Data from USB4F104151__42__11-26-38-993.txt Node

Date: Wed Feb 26 11:26:38 EST 2025
User: louis
Spectrometer: USB4F10415
Trigger mode: 4
Integration Time (sec): 1.000000E-1
Scans to average: 1
Electric dark correction enabled: true
Nonlinearity correction enabled: false
Boxcar width: 0
XAxis mode: Wavelengths
Number of Pixels in Spectrum: 3648
>>>>>Begin Spectral Data<<<<<
178.204	-321.7
178.424	-321.7
178.644	-321.7
178.864	-458.92
179.084	-420
179.304	-39.08
179.524	-45.23
179.744	61.27
179.964	75.6
180.184	36.69
180.404	-0.17
180.624	-24.75
180.844	38.74
181.064	-71.85
181.283	3.93
181.503	-67.75
181.723	32.6
181.943	-24.75
182.163	257.87
182.383	-0.17
182.602	48.98
182.822	175.95
183.042	96.08
183.262	28.5
183.482	38.74
183.701	-2.22
183.921	36.69
184.141	-28.84
184.361	-10.41
184.58	32.6
184.8	46.93
185.02	-12.46
185.239	130.9
185.459	81.75
185.679	110.42
185.898	-106.67
186.118	26.45
186.338	87.89
186.557	79.7
186.777	-14.51
186.997	-73.9
187.216	67.41
187.436	194.39
187.655	116.56
187.875	157.52
188.095	32.6
188.314	8.02
188.534	163.67
188.753	-41.13
188.973	149.33
189.192	104.28
189.412	42.84
189.631	116.56
189.851	71.51
190.07	171.86
190.29	-65.71
190.509	-41.13
190.729	51.03
190.948	212.82
191.168	225.11
191.387	94.04
191.607	3.93
191.826	79.7
192.045	36.69
192.265	30.55
192.484	67.41
192.704	40.79
192.923	8.02
193.142	188.24
193.362	143.19
193.581	116.56
193.8	102.23
194.02	44.88
194.239	-0.17
194.458	173.91
194.678	-37.03
194.897	-16.55
195.116	122.71
195.335	110.42
195.555	118.61
195.774	-77.99
195.993	128.85
196.212	96.08
196.432	-71.85
196.651	44.88
196.87	34.64
197.089	204.63
197.308	116.56
197.528	87.89
197.747	-98.47
197.966	102.23
198.185	155.47
198.404	-59.56
198.623	100.18
198.842	198.48
199.062	108.37
199.281	151.38
199.5	30.55
199.719	91.99
199.938	40.79
200.157	130.9
200.376	32.6
200.595	208.72
200.814	44.88
201.033	-55.47
201.252	188.24
201.471	77.65
201.69	59.22
201.909	-63.66
202.128	87.89
202.347	137.04
202.566	28.5
202.785	-16.55
203.004	42.84
203.223	229.2
203.442	34.64
203.661	-63.66
203.879	20.31
204.098	216.91
204.317	38.74
204.536	85.84
204.755	94.04
204.974	163.67
205.193	-24.75
205.411	110.42
205.63	87.89
205.849	81.75
206.068	20.31
206.287	5.97
206.505	114.52
206.724	5.97
206.943	30.55
207.162	12.12
207.381	55.12
207.599	3.93
207.818	94.04
208.037	-45.23
208.255	10.07
208.474	51.03
208.693	59.22
208.911	59.22
209.13	91.99
209.349	12.12
209.567	59.22
209.786	145.24
210.005	91.99
210.223	38.74
210.442	-149.67
210.661	38.74
210.879	30.55
211.098	79.7
211.316	-26.79
211.535	53.08
211.753	53.08
211.972	91.99
212.191	-8.36
212.409	28.5
212.628	20.31
212.846	-34.99
213.065	94.04
213.283	229.2
213.502	51.03
213.72	28.5
213.938	36.69
214.157	10.07
214.375	108.37
214.594	59.22
214.812	104.28
215.031	108.37
215.249	1.88
215.467	89.94
215.686	42.84
215.904	3.93
216.122	8.02
216.341	143.19
216.559	53.08
216.778	118.61
216.996	163.67
217.214	8.02
217.432	-53.42
217.651	-26.79
217.869	53.08
218.087	40.79
218.306	51.03
218.524	38.74
218.742	42.84
218.96	139.09
219.179	14.17
219.397	-30.89
219.615	253.78
219.833	124.76
220.051	18.26
220.27	81.75
220.488	96.08
220.706	73.56
220.924	-49.32
221.142	12.12
221.36	53.08
221.578	53.08
221.796	46.93
222.015	48.98
222.233	51.03
222.451	120.66
222.669	-53.42
222.887	79.7
223.105	20.31
223.323	-8.36
223.541	-80.04
223.759	24.4
223.977	71.51
224.195	182.1
224.413	153.43
224.631	51.03
224.849	63.32
225.067	206.67
225.285	26.45
225.503	20.31
225.721	-59.56
225.939	65.36
226.157	38.74
226.375	210.77
226.592	-12.46
226.81	22.36
227.028	132.95
227.246	120.66
227.464	87.89
227.682	46.93
227.9	71.51
228.117	-34.99
228.335	44.88
228.553	59.22
228.771	26.45
228.989	63.32
229.206	85.84
229.424	122.71
229.642	-67.75
229.86	22.36
230.077	186.19
230.295	71.51
230.513	114.52
230.731	40.79
230.948	165.71
231.166	137.04
231.384	65.36
231.601	-39.08
231.819	225.11
232.037	-12.46
232.254	-61.61
232.472	63.32
232.689	-12.46
232.907	65.36
233.125	81.75
233.342	10.07
233.56	34.64
233.777	-61.61
233.995	-14.51
234.213	110.42
234.43	128.85
234.648	71.51
234.865	3.93
235.083	89.94
235.3	67.41
235.518	104.28
235.735	161.62
235.953	73.56
236.17	63.32
236.388	-37.03
236.605	87.89
236.822	79.7
237.04	110.42
237.257	55.12
237.475	-34.99
237.692	24.4
237.909	28.5
238.127	30.55
238.344	137.04
238.562	51.03
238.779	-47.27
238.996	-84.14
239.214	30.55
239.431	69.46
239.648	30.55
239.865	155.47
240.083	118.61
240.3	40.79
240.517	-75.95
240.735	18.26
240.952	122.71
241.169	18.26
241.386	83.8
241.603	48.98
241.821	-37.03
242.038	135
242.255	108.37
242.472	32.6
242.689	83.8
242.907	73.56
243.124	73.56
243.341	122.71
243.558	-90.28
243.775	-43.18
243.992	-61.61
244.209	139.09
244.426	270.16
244.643	63.32
244.86	1.88
245.078	128.85
245.295	94.04
245.512	42.84
245.729	-43.18
245.946	46.93
246.163	61.27
246.38	32.6
246.597	159.57
246.814	61.27
247.031	22.36
247.248	48.98
247.464	57.17
247.681	28.5
247.898	55.12
248.115	51.03
248.332	-14.51
248.549	165.71
248.766	135
248.983	59.22
249.2	40.79
249.417	130.9
249.633	-63.66
249.85	85.84
250.067	36.69
250.284	38.74
250.501	53.08
250.717	116.56
250.934	30.55
251.151	36.69
251.368	12.12
251.585	73.56
251.801	98.13
252.018	-37.03
252.235	46.93
252.451	83.8
252.668	69.46
252.885	151.38
253.102	143.19
253.318	104.28
253.535	-55.47
253.752	22.36
253.968	-6.31
254.185	-88.23
254.401	77.65
254.618	147.28
254.835	-67.75
255.051	137.04
255.268	53.08
255.484	75.6
255.701	79.7
255.917	91.99
256.134	-39.08
256.351	44.88
256.567	-16.55
256.784	102.23
257	10.07
257.217	157.52
257.433	85.84
257.65	51.03
257.866	118.61
258.082	-141.48
258.299	100.18
258.515	42.84
258.732	-86.19
258.948	3.93
259.165	57.17
259.381	-2.22
259.597	16.21
259.814	55.12
260.03	-16.55
260.246	48.98
260.463	67.41
260.679	141.14
260.895	63.32
261.112	18.26
261.328	34.64
261.544	-14.51
261.761	192.34
261.977	-0.17
262.193	-30.89
262.409	216.91
262.626	110.42
262.842	85.84
263.058	22.36
263.274	135
263.49	26.45
263.707	89.94
263.923	112.47
264.139	-69.8
264.355	5.97
264.571	87.89
264.787	98.13
265.004	153.43
265.22	-34.99
265.436	5.97
265.652	-24.75
265.868	32.6
266.084	-8.36
266.3	36.69
266.516	42.84
266.732	69.46
266.948	67.41
267.164	-8.36
267.38	63.32
267.596	65.36
267.812	139.09
268.028	53.08
268.244	87.89
268.46	48.98
268.676	-32.94
268.892	44.88
269.108	-77.99
269.324	3.93
269.54	-43.18
269.756	171.86
269.972	-61.61
270.188	30.55
270.403	-49.32
270.619	32.6
270.835	155.47
271.051	51.03
271.267	-0.17
271.483	-39.08
271.698	55.12
271.914	85.84
272.13	26.45
272.346	1.88
272.562	53.08
272.777	104.28
272.993	-10.41
273.209	-63.66
273.425	20.31
273.64	1.88
273.856	34.64
274.072	-26.79
274.287	81.75
274.503	77.65
274.719	186.19
274.934	-6.31
275.15	-12.46
275.366	81.75
275.581	-45.23
275.797	63.32
276.012	40.79
276.228	36.69
276.444	18.26
276.659	38.74
276.875	-53.42
277.09	67.41
277.306	14.17
277.521	55.12
277.737	20.31
277.952	61.27
278.168	118.61
278.383	20.31
278.599	126.8
278.814	149.33
279.03	-16.55
279.245	169.81
279.461	16.21
279.676	178
279.892	-16.55
280.107	-18.6
280.322	-26.79
280.538	40.79
280.753	-6.31
280.969	10.07
281.184	59.22
281.399	163.67
281.615	48.98
281.83	5.97
282.045	-49.32
282.26	10.07
282.476	16.21
282.691	61.27
282.906	51.03
283.122	85.84
283.337	-32.94
283.552	110.42
283.767	104.28
283.983	118.61
284.198	30.55
284.413	110.42
284.628	-114.86
284.843	32.6
285.058	61.27
285.274	32.6
285.489	12.12
285.704	114.52
285.919	65.36
286.134	-16.55
286.349	108.37
286.564	42.84
286.779	130.9
286.995	63.32
287.21	-6.31
287.425	132.95
287.64	-63.66
287.855	-30.89
288.07	1.88
288.285	75.6
288.5	178
288.715	85.84
288.93	1.88
289.145	73.56
289.36	106.32
289.575	-16.55
289.79	126.8
290.004	42.84
290.219	104.28
290.434	-10.41
290.649	-4.27
290.864	1.88
291.079	106.32
291.294	38.74
291.509	69.46
291.724	-20.65
291.938	83.8
292.153	59.22
292.368	-26.79
292.583	40.79
292.798	83.8
293.012	65.36
293.227	98.13
293.442	-28.84
293.657	175.95
293.871	71.51
294.086	61.27
294.301	165.71
294.516	118.61
294.73	55.12
294.945	-90.28
295.16	-2.22
295.374	180.05
295.589	128.85
295.804	-30.89
296.018	100.18
296.233	171.86
296.447	42.84
296.662	40.79
296.877	194.39
297.091	63.32
297.306	-12.46
297.52	-14.51
297.735	87.89
297.949	40.79
298.164	67.41
298.378	-37.03
298.593	30.55
298.807	-2.22
299.022	28.5
299.236	85.84
299.451	-8.36
299.665	67.41
299.88	71.51
300.094	40.79
300.309	77.65
300.523	20.31
300.737	-8.36
300.952	16.21
301.166	59.22
301.381	89.94
301.595	61.27
301.809	34.64
302.024	26.45
302.238	10.07
302.452	188.24
302.667	87.89
302.881	194.39
303.095	102.23
303.309	42.84
303.524	24.4
303.738	69.46
303.952	-2.22
304.166	141.14
304.381	-98.47
304.595	38.74
304.809	-4.27
305.023	5.97
305.237	12.12
305.452	65.36
305.666	87.89
305.88	71.51
306.094	126.8
306.308	81.75
306.522	51.03
306.736	44.88
306.95	116.56
307.164	32.6
307.379	14.17
307.593	218.96
307.807	143.19
308.021	57.17
308.235	40.79
308.449	-84.14
308.663	96.08
308.877	280.4
309.091	46.93
309.305	114.52
309.519	12.12
309.733	145.24
309.947	-84.14
310.161	30.55
310.374	126.8
310.588	102.23
310.802	-18.6
311.016	-71.85
311.23	46.93
311.444	10.07
311.658	-14.51
311.872	118.61
312.085	108.37
312.299	143.19
312.513	139.09
312.727	102.23
312.941	-84.14
313.154	71.51
313.368	16.21
313.582	40.79
313.796	1.88
314.009	42.84
314.223	81.75
314.437	46.93
314.651	44.88
314.864	5.97
315.078	81.75
315.292	-0.17
315.505	87.89
315.719	61.27
315.933	116.56
316.146	3.93
316.36	-28.84
316.573	36.69
316.787	67.41
317.001	67.41
317.214	-84.14
317.428	53.08
317.641	-24.75
317.855	51.03
318.068	8.02
318.282	100.18
318.495	227.15
318.709	55.12
318.922	-2.22
319.136	151.38
319.349	94.04
319.563	55.12
319.776	114.52
319.99	-127.14
320.203	108.37
320.417	-26.79
320.63	61.27
320.843	194.39
321.057	59.22
321.27	32.6
321.483	65.36
321.697	96.08
321.91	48.98
322.124	73.56
322.337	36.69
322.55	8.02
322.763	102.23
322.977	38.74
323.19	-43.18
323.403	77.65
323.617	71.51
323.83	175.95
324.043	-2.22
324.256	24.4
324.469	-71.85
324.683	237.39
324.896	51.03
325.109	55.12
325.322	-53.42
325.535	165.71
325.748	104.28
325.962	71.51
326.175	71.51
326.388	36.69
326.601	32.6
326.814	40.79
327.027	65.36
327.24	204.63
327.453	-131.24
327.666	67.41
327.879	83.8
328.092	132.95
328.305	128.85
328.518	14.17
328.731	30.55
328.944	-8.36
329.157	83.8
329.37	22.36
329.583	282.45
329.796	151.38
330.009	-39.08
330.222	126.8
330.435	98.13
330.648	14.17
330.861	-0.17
331.073	34.64
331.286	48.98
331.499	75.6
331.712	-20.65
331.925	75.6
332.138	87.89
332.35	118.61
332.563	114.52
332.776	145.24
332.989	-6.31
333.202	79.7
333.414	71.51
333.627	-49.32
333.84	28.5
334.053	24.4
334.265	22.36
334.478	34.64
334.691	59.22
334.903	59.22
335.116	14.17
335.329	-2.22
335.541	61.27
335.754	128.85
335.966	-16.55
336.179	122.71
336.392	55.12
336.604	-16.55
336.817	44.88
337.029	71.51
337.242	100.18
337.454	69.46
337.667	122.71
337.88	186.19
338.092	40.79
338.305	63.32
338.517	59.22
338.729	151.38
338.942	130.9
339.154	10.07
339.367	30.55
339.579	44.88
339.792	32.6
340.004	73.56
340.217	71.51
340.429	79.7
340.641	28.5
340.854	-28.84
341.066	69.46
341.278	145.24
341.491	151.38
341.703	46.93
341.915	40.79
342.128	212.82
342.34	182.1
342.552	3.93
342.764	57.17
342.977	59.22
343.189	175.95
343.401	73.56
343.613	-22.7
343.826	1.88
344.038	-34.99
344.25	63.32
344.462	-20.65
344.674	67.41
344.886	75.6
345.099	20.31
345.311	102.23
345.523	10.07
345.735	-59.56
345.947	216.91
346.159	18.26
346.371	-32.94
346.583	-22.7
346.795	182.1
347.007	-18.6
347.219	40.79
347.431	51.03
347.643	149.33
347.855	-47.27
348.067	212.82
348.279	-41.13
348.491	22.36
348.703	120.66
348.915	71.51
349.127	44.88
349.339	89.94
349.551	32.6
349.763	63.32
349.975	12.12
350.187	137.04
350.399	163.67
350.61	28.5
350.822	5.97
351.034	-14.51
351.246	147.28
351.458	57.17
351.669	108.37
351.881	63.32
352.093	122.71
352.305	89.94
352.517	-0.17
352.728	165.71
352.94	79.7
353.152	145.24
353.363	-32.94
353.575	98.13
353.787	204.63
353.999	94.04
354.21	178
354.422	-82.09
354.633	51.03
354.845	14.17
355.057	75.6
355.268	42.84
355.48	112.47
355.692	-28.84
355.903	63.32
356.115	-8.36
356.326	-26.79
356.538	94.04
356.749	85.84
356.961	143.19
357.172	48.98
357.384	24.4
357.595	229.2
357.807	51.03
358.018	-55.47
358.23	38.74
358.441	153.43
358.653	155.47
358.864	53.08
359.075	-12.46
359.287	124.76
359.498	126.8
359.709	53.08
359.921	51.03
360.132	96.08
360.344	32.6
360.555	-12.46
360.766	112.47
360.977	14.17
361.189	175.95
361.4	30.55
361.611	145.24
361.823	100.18
362.034	108.37
362.245	-0.17
362.456	143.19
362.667	30.55
362.879	-51.37
363.09	145.24
363.301	18.26
363.512	63.32
363.723	-71.85
363.935	10.07
364.146	161.62
364.357	98.13
364.568	87.89
364.779	-37.03
364.99	161.62
365.201	34.64
365.412	124.76
365.623	-53.42
365.834	77.65
366.045	28.5
366.256	48.98
366.467	42.84
366.678	30.55
366.889	71.51
367.1	-12.46
367.311	81.75
367.522	-14.51
367.733	108.37
367.944	126.8
368.155	5.97
368.366	106.32
368.577	124.76
368.788	180.05
368.999	-26.79
369.209	12.12
369.42	163.67
369.631	169.81
369.842	69.46
370.053	71.51
370.264	79.7
370.474	-18.6
370.685	81.75
370.896	36.69
371.107	94.04
371.317	81.75
371.528	1.88
371.739	157.52
371.95	48.98
372.16	79.7
372.371	26.45
372.582	42.84
372.792	59.22
373.003	108.37
373.214	210.77
373.424	108.37
373.635	-77.99
373.846	192.34
374.056	-12.46
374.267	24.4
374.477	83.8
374.688	-10.41
374.898	57.17
375.109	46.93
375.319	46.93
375.53	126.8
375.74	100.18
375.951	-20.65
376.161	104.28
376.372	106.32
376.582	-32.94
376.793	-34.99
377.003	3.93
377.214	12.12
377.424	87.89
377.635	20.31
377.845	-20.65
378.055	173.91
378.266	-2.22
378.476	75.6
378.686	83.8
378.897	104.28
379.107	116.56
379.317	89.94
379.528	-4.27
379.738	28.5
379.948	5.97
380.158	159.57
380.369	24.4
380.579	32.6
380.789	57.17
380.999	149.33
381.21	40.79
381.42	212.82
381.63	10.07
381.84	53.08
382.05	67.41
382.261	42.84
382.471	98.13
382.681	-2.22
382.891	130.9
383.101	87.89
383.311	65.36
383.521	57.17
383.731	77.65
383.941	87.89
384.151	-30.89
384.361	-92.33
384.571	81.75
384.781	16.21
384.991	194.39
385.201	175.95
385.411	81.75
385.621	124.76
385.831	94.04
386.041	12.12
386.251	87.89
386.461	184.15
386.671	46.93
386.881	77.65
387.091	38.74
387.301	67.41
387.511	-69.8
387.72	155.47
387.93	151.38
388.14	-16.55
388.35	75.6
388.56	139.09
388.769	145.24
388.979	87.89
389.189	-73.9
389.399	77.65
389.609	75.6
389.818	91.99
390.028	94.04
390.238	77.65
390.447	85.84
390.657	40.79
390.867	44.88
391.076	18.26
391.286	96.08
391.496	22.36
391.705	8.02
391.915	81.75
392.125	126.8
392.334	16.21
392.544	145.24
392.753	38.74
392.963	42.84
393.172	34.64
393.382	-0.17
393.591	257.87
393.801	57.17
394.01	87.89
394.22	141.14
394.429	32.6
394.639	-2.22
394.848	57.17
395.058	48.98
395.267	8.02
395.477	155.47
395.686	51.03
395.895	118.61
396.105	221.01
396.314	163.67
396.524	34.64
396.733	1.88
396.942	135
397.152	44.88
397.361	139.09
397.57	51.03
397.78	-10.41
397.989	169.81
398.198	175.95
398.407	100.18
398.617	169.81
398.826	51.03
399.035	-4.27
399.244	114.52
399.453	-0.17
399.663	24.4
399.872	175.95
400.081	-96.43
400.29	159.57
400.499	10.07
400.708	124.76
400.917	20.31
401.127	-22.7
401.336	20.31
401.545	241.49
401.754	94.04
401.963	135
402.172	44.88
402.381	14.17
402.59	-8.36
402.799	89.94
403.008	157.52
403.217	81.75
403.426	26.45
403.635	-26.79
403.844	18.26
404.053	57.17
404.262	1.88
404.471	48.98
404.68	87.89
404.888	-43.18
405.097	57.17
405.306	48.98
405.515	112.47
405.724	14.17
405.933	102.23
406.142	65.36
406.35	120.66
406.559	24.4
406.768	100.18
406.977	130.9
407.185	59.22
407.394	85.84
407.603	-77.99
407.812	5.97
408.02	141.14
408.229	32.6
408.438	61.27
408.646	-24.75
408.855	-47.27
409.064	89.94
409.272	-12.46
409.481	22.36
409.69	-22.7
409.898	48.98
410.107	143.19
410.315	169.81
410.524	67.41
410.733	96.08
410.941	32.6
411.15	118.61
411.358	24.4
411.567	122.71
411.775	10.07
411.984	91.99
412.192	44.88
412.401	-0.17
412.609	218.96
412.818	141.14
413.026	65.36
413.234	22.36
413.443	96.08
413.651	-26.79
413.86	139.09
414.068	132.95
414.276	212.82
414.485	91.99
414.693	157.52
414.901	212.82
415.11	89.94
415.318	65.36
415.526	14.17
415.734	132.95
415.943	65.36
416.151	204.63
416.359	42.84
416.567	122.71
416.776	167.76
416.984	110.42
417.192	227.15
417.4	85.84
417.608	10.07
417.817	-39.08
418.025	96.08
418.233	208.72
418.441	-16.55
418.649	8.02
418.857	106.32
419.065	73.56
419.273	-28.84
419.481	5.97
419.689	28.5
419.897	-2.22
420.105	-94.38
420.313	104.28
420.521	145.24
420.729	204.63
420.937	20.31
421.145	-20.65
421.353	143.19
421.561	102.23
421.769	153.43
421.977	40.79
422.185	114.52
422.393	67.41
422.601	28.5
422.809	108.37
423.017	104.28
423.224	28.5
423.432	153.43
423.64	87.89
423.848	118.61
424.056	-16.55
424.263	94.04
424.471	14.17
424.679	110.42
424.887	44.88
425.094	110.42
425.302	81.75
425.51	8.02
425.718	51.03
425.925	102.23
426.133	10.07
426.341	200.53
426.548	145.24
426.756	116.56
426.964	106.32
427.171	-90.28
427.379	161.62
427.586	130.9
427.794	147.28
428.001	221.01
428.209	135
428.417	91.99
428.624	69.46
428.832	98.13
429.039	94.04
429.247	98.13
429.454	163.67
429.662	288.59
429.869	147.28
430.076	120.66
430.284	182.1
430.491	130.9
430.699	155.47
430.906	208.72
431.114	161.62
431.321	130.9
431.528	67.41
431.736	124.76
431.943	139.09
432.15	147.28
432.358	180.05
432.565	190.29
432.772	24.4
432.979	249.68
433.187	110.42
433.394	216.91
433.601	44.88
433.808	198.48
434.016	239.44
434.223	194.39
434.43	214.87
434.637	192.34
434.844	243.54
435.052	200.53
435.259	290.64
435.466	286.54
435.673	249.68
435.88	225.11
436.087	292.69
436.294	284.5
436.501	274.26
436.708	282.45
436.915	319.31
437.122	337.74
437.329	255.83
437.537	257.87
437.743	270.16
437.95	384.85
438.157	399.18
438.364	317.26
438.571	335.7
438.778	503.63
438.985	347.98
439.192	372.56
439.399	393.04
439.606	401.23
439.813	505.68
440.02	499.53
440.227	651.08
440.433	485.2
440.64	481.1
440.847	421.71
441.054	411.47
441.261	591.69
441.467	528.21
441.674	538.45
441.881	700.23
442.088	612.17
442.294	757.58
442.501	683.85
442.708	687.95
442.914	671.56
443.121	784.2
443.328	683.85
443.534	864.07
443.741	780.11
443.948	694.09
444.154	952.13
444.361	997.19
444.568	993.09
444.774	839.5
444.981	798.54
445.187	1132.36
445.394	1083.2
445.6	1111.88
445.807	1093.44
446.013	1218.37
446.22	1077.06
446.426	1208.13
446.633	1279.81
446.839	1529.66
447.046	1304.39
447.252	1457.98
447.459	1496.89
447.665	1447.74
447.871	1691.45
448.078	1732.41
448.284	1689.4
448.491	1806.14
448.697	1756.99
448.903	1947.45
449.11	2027.32
449.316	1965.88
449.522	2092.85
449.728	2258.74
449.935	2350.9
450.141	2137.91
450.347	2510.64
450.553	2389.81
450.76	2567.98
450.966	2619.18
451.172	2649.9
451.378	2971.43
451.584	2772.78
451.791	3112.74
451.997	3147.56
452.203	3172.13
452.409	3262.24
452.615	3407.65
452.821	3288.87
453.027	3399.46
453.233	3987.22
453.44	3798.81
453.646	3944.22
453.852	4085.53
454.058	4349.71
454.264	4425.49
454.47	4751.12
454.676	4611.85
454.882	5144.33
455.088	4816.65
455.294	5199.62
455.5	5494.53
455.705	5789.44
455.911	5797.63
456.117	5963.51
456.323	6010.62
456.529	6274.81
456.735	6844.14
456.941	6983.4
457.147	7024.36
457.352	7386.85
457.558	7616.23
457.764	8136.41
457.97	8384.21
458.176	8705.74
458.381	9058
458.587	9029.32
458.793	9637.57
458.999	9299.66
459.204	10882.74
459.41	11028.14
459.616	11042.48
459.821	11617.96
460.027	12222.11
460.233	12555.93
460.438	12652.18
460.644	13571.72
460.85	13575.81
461.055	14306.94
461.261	14704.24
461.466	14472.82
461.672	14958.19
461.878	16465.5
462.083	16432.73
462.289	16789.08
462.494	17348.17
462.7	17405.52
462.905	17909.32
463.111	19414.57
463.316	20213.28
463.522	20684.31
463.727	21171.73
463.932	22091.27
464.138	22713.85
464.343	23737.84
464.549	23649.77
464.754	25286.1
464.959	26410.43
465.165	26394.05
465.37	26058.18
465.575	26453.44
465.781	28409.25
465.986	29175.19
466.191	28548.51
466.397	29064.6
466.602	27913.64
466.807	29789.58
467.012	30446.98
467.218	31001.98
467.423	31161.72
467.628	32136.55
467.833	33508.69
468.038	32730.47
468.244	32243.05
468.449	34086.22
468.654	33449.3
468.859	33654.1
469.064	33336.66
469.269	32546.15
469.474	32750.95
469.679	34180.43
469.885	32865.63
470.09	33213.79
470.295	33697.11
470.5	32513.38
470.705	32970.08
470.91	32197.99
471.115	32273.77
471.32	32560.48
471.525	32146.79
471.73	31219.06
471.935	31317.37
472.139	30055.82
472.344	29934.99
472.549	29867.41
472.754	29230.49
472.959	28536.23
473.164	27502
473.369	27200.95
473.574	28018.09
473.778	27270.58
473.983	27096.5
474.188	26473.92
474.393	25171.41
474.598	24899.03
474.802	24466.91
475.007	24503.78
475.212	23801.32
475.417	23330.29
475.621	22910.46
475.826	22826.49
476.031	22003.21
476.235	21659.15
476.44	21835.27
476.645	21214.74
476.849	20782.62
477.054	20280.86
477.259	19893.8
477.463	19930.66
477.668	19410.48
477.872	19633.71
478.077	19082.8
478.282	18556.47
478.486	18284.09
478.691	18058.82
478.895	17929.8
479.1	17923.65
479.304	17499.72
479.509	17061.46
479.713	17305.17
479.918	16834.13
480.122	16344.67
480.326	16782.93
480.531	16686.68
480.735	16103.01
480.94	16158.3
481.144	16600.66
481.348	15730.28
481.553	16006.75
481.757	15394.41
481.961	15705.7
482.166	15910.5
482.37	15208.05
482.574	15007.34
482.778	15095.41
482.983	15367.79
483.187	15003.25
483.391	14841.46
483.595	14657.14
483.8	14491.26
484.004	14636.66
484.208	14556.79
484.412	14313.08
484.616	14308.99
484.821	13893.25
485.025	13817.47
485.229	13891.2
485.433	13450.89
485.637	13571.72
485.841	13319.82
486.045	12936.85
486.249	12797.59
486.453	12367.51
486.657	12443.29
486.861	12455.58
487.065	11810.47
487.269	11921.06
487.473	11568.8
487.677	11632.29
487.881	11867.81
488.085	11333.29
488.289	11177.64
488.493	10700.47
488.697	10856.11
488.901	10512.05
489.105	10190.52
489.309	10299.06
489.512	10151.61
489.716	9875.13
489.92	9627.33
490.124	9418.44
490.328	9494.21
490.531	9158.35
490.735	9137.87
490.939	8789.71
491.143	8607.44
491.346	8507.09
491.55	8627.92
491.754	8482.52
491.958	8333.01
492.161	8013.53
492.365	7831.26
492.569	7663.33
492.772	7558.88
492.976	7692
493.18	7370.47
493.383	7519.97
493.587	7409.38
493.79	7388.9
493.994	7071.47
494.197	7108.33
494.401	6993.64
494.605	6889.2
494.808	7044.84
495.012	6815.47
495.215	6944.49
495.419	6856.43
495.622	6719.21
495.825	6653.68
496.029	6704.88
496.232	6809.33
496.436	6586.1
496.639	6829.81
496.843	6665.97
497.046	6668.02
497.249	6678.26
497.453	6751.98
497.656	6661.87
497.859	6526.71
498.063	6565.62
498.266	6682.35
498.469	6590.19
498.673	6575.86
498.876	6776.56
499.079	6590.19
499.282	6633.2
499.485	7053.03
499.689	6792.94
499.892	6860.52
500.095	6815.47
500.298	6897.39
500.501	6891.24
500.705	7159.53
500.908	7038.7
501.111	7229.16
501.314	7360.23
501.517	7642.85
501.72	7458.53
501.923	7395.04
502.126	7501.54
502.329	7827.17
502.532	7970.52
502.735	7810.78
502.938	8091.35
503.141	7943.9
503.344	8021.72
503.547	8236.76
503.75	8296.15
503.953	8484.56
504.156	8433.36
504.359	8744.66
504.562	8599.25
504.765	8810.19
504.968	9162.44
505.17	9258.7
505.373	9547.46
505.576	9551.56
505.779	9688.77
505.982	9727.68
506.185	10102.46
506.387	10260.15
506.59	10215.1
506.793	10657.46
506.996	10495.67
507.198	11116.2
507.401	11249.32
507.604	11468.45
507.807	11525.8
508.009	11886.24
508.212	11978.4
508.415	12281.5
508.617	12449.43
508.82	12770.96
509.022	12967.57
509.225	13616.77
509.428	13516.42
509.63	13569.67
509.833	14071.42
510.035	14855.79
510.238	14564.98
510.44	14947.95
510.643	15341.16
510.845	15818.34
511.048	16086.62
511.25	16399.96
511.453	16643.67
511.655	17426
511.858	17669.7
512.06	17868.36
512.262	18271.81
512.465	18708.02
512.667	19273.26
512.87	19371.57
513.072	19936.81
513.274	20774.42
513.477	21141.01
513.679	21464.59
513.881	22111.75
514.084	22511.1
514.286	22875.64
514.488	23324.15
514.69	24339.94
514.893	24440.29
515.095	25159.13
515.297	25671.12
515.499	25785.8
515.701	26826.17
515.904	27321.78
516.106	28018.09
516.308	28644.77
516.51	29244.82
516.712	29795.73
516.914	30031.24
517.116	30883.2
517.318	31477.11
517.52	32032.11
517.722	32329.06
517.925	33357.14
518.127	34008.4
518.329	34833.73
518.531	34698.56
518.733	35693.88
518.935	36261.16
519.136	37025.06
519.338	37389.59
519.54	37840.15
519.742	38966.53
519.944	39027.97
520.146	39693.56
520.348	40393.96
520.55	40631.53
520.752	41479.39
520.954	42136.79
521.155	42282.19
521.357	43064.52
521.559	43615.42
521.761	44422.32
521.963	44702.89
522.164	45040.81
522.366	45151.4
522.568	45894.81
522.77	45888.67
522.971	46611.6
523.173	46359.7
523.375	47217.8
523.576	46886.03
523.778	47256.71
523.98	48182.39
524.181	48288.88
524.383	48178.29
524.584	48897.13
524.786	49263.72
524.988	48591.98
525.189	49146.98
525.391	48968.81
525.592	49202.28
525.794	49636.45
525.995	49030.25
526.197	49366.12
526.398	49468.51
526.6	48911.47
526.801	49409.12
527.003	49300.58
527.204	49189.99
527.406	49476.71
527.607	48678
527.808	49161.32
528.01	47799.42
528.211	47910.01
528.412	48587.89
528.614	47869.05
528.815	47602.81
529.016	47852.67
529.218	46824.59
529.419	46754.96
529.62	46132.37
529.822	45780.12
530.023	45782.17
530.224	44903.59
530.425	44606.64
530.626	43855.03
530.828	43418.81
531.029	44014.77
531.23	42886.34
531.431	42296.53
531.632	41790.68
531.833	41614.55
532.035	41407.71
532.236	40842.47
532.437	40555.75
532.638	39523.58
532.839	39542.01
533.04	38653.19
533.241	38380.81
533.442	38569.22
533.643	37838.1
533.844	36853.03
534.045	36785.44
534.246	35738.93
534.447	35597.62
534.648	35470.65
534.849	34854.21
535.05	34022.73
535.251	33834.32
535.451	33078.62
535.652	33293.66
535.853	32304.49
536.054	32169.32
536.255	31569.27
536.456	30993.79
536.657	31225.21
536.857	30293.38
537.058	29779.34
537.259	29703.57
537.46	29435.28
537.66	29144.47
537.861	28313
538.062	28247.46
538.263	27714.99
538.463	27280.82
538.664	27334.07
538.865	26514.88
539.065	26465.73
539.266	25808.33
539.466	26047.94
539.667	25320.91
539.868	25523.66
540.068	24561.12
540.269	24706.52
540.469	24442.34
540.67	23969.26
540.87	24045.03
541.071	23277.04
541.271	23160.31
541.472	22873.59
541.672	22453.76
541.873	22353.41
542.073	21902.86
542.274	21980.68
542.474	21554.7
542.675	21216.79
542.875	21378.58
543.075	21044.76
543.276	20268.58
543.476	20620.83
543.676	20360.73
543.877	19985.96
544.077	19729.96
544.277	19598.89
544.478	19635.75
544.678	19349.04
544.878	18738.74
545.078	18695.74
545.279	18456.12
545.479	18021.95
545.679	18138.69
545.879	17684.04
546.079	17704.52
546.28	17497.67
546.48	17032.79
546.68	17215.05
546.88	16856.66
547.08	16711.25
547.28	16307.8
547.48	16203.36
547.68	16316
547.88	15828.58
548.081	15744.61
548.281	15527.53
548.481	15322.73
548.681	15292.01
548.881	15099.5
549.081	14863.99
549.28	14513.78
549.48	14468.73
549.68	14216.83
549.88	14046.85
550.08	13760.13
550.28	13649.54
550.48	13483.66
550.68	13219.47
550.88	12908.18
551.08	12824.21
551.279	12861.07
551.479	12234.39
551.679	12273.31
551.879	11962.01
552.079	12162.72
552.278	11835.04
552.478	11837.09
552.678	11493.03
552.878	11550.37
553.077	11153.07
553.277	10860.21
553.477	11069.1
553.676	10690.23
553.876	10596.02
554.076	10170.04
554.275	10258.1
554.475	9950.91
554.674	9813.7
554.874	9682.63
555.074	9412.29
555.273	9518.79
555.473	9354.95
555.672	9158.35
555.872	8906.45
556.071	8804.05
556.271	8787.66
556.47	8580.82
556.67	8496.85
556.869	8320.73
557.068	8152.79
557.268	7909.08
557.467	7749.34
557.667	7665.38
557.866	7610.08
558.065	7683.81
558.265	7364.32
558.464	7147.24
558.663	7102.18
558.863	7007.98
559.062	6954.73
559.261	6711.02
559.461	6729.45
559.66	6401.78
559.859	6375.16
560.058	6199.03
560.258	6237.94
560.457	6178.55
560.656	6301.43
560.855	6033.15
561.054	6100.73
561.253	5805.82
561.453	5748.48
561.652	5629.7
561.851	5633.79
562.05	5330.69
562.249	5293.83
562.448	5271.3
562.647	5369.6
562.846	4943.63
563.045	5136.13
563.244	4882.19
563.443	4925.19
563.642	4755.21
563.841	4865.8
564.04	4732.69
564.239	4691.73
564.438	4556.56
564.637	4359.95
564.836	4374.29
565.035	4245.27
565.234	4218.64
565.432	4120.34
565.631	4134.68
565.83	4267.8
566.029	3876.63
566.228	3966.74
566.427	3987.22
566.625	3604.25
566.824	3561.25
567.023	3788.57
567.222	3600.16
567.42	3702.56
567.619	3491.62
567.818	3571.49
568.016	3522.34
568.215	3376.93
568.414	3325.73
568.612	3403.55
568.811	3290.92
569.01	3202.85
569.208	3082.02
569.407	3176.23
569.605	3139.37
569.804	2987.82
570.002	3045.16
570.201	2817.83
570.4	2996.01
570.598	2852.65
570.797	2819.88
570.995	2613.04
571.193	2746.16
571.392	2557.74
571.59	2668.33
571.789	2654
571.987	2633.52
572.186	2543.41
572.384	2369.33
572.582	2512.69
572.781	2527.02
572.979	2346.8
573.177	2375.47
573.376	2334.51
573.574	2303.79
573.772	2193.2
573.971	2117.43
574.169	2129.72
574.367	2170.68
574.565	2189.11
574.763	2076.47
574.962	2062.13
575.16	2012.98
575.358	1914.68
575.556	1908.54
575.754	1984.31
575.952	1937.21
576.151	1834.81
576.349	1838.91
576.547	1677.12
576.745	1873.72
576.943	1685.31
577.141	1759.03
577.339	1634.11
577.537	1599.29
577.735	1728.31
577.933	1662.78
578.131	1527.61
578.329	1646.4
578.527	1591.1
578.725	1619.77
578.923	1392.45
579.121	1492.8
579.319	1265.47
579.516	1355.58
579.714	1539.9
579.912	1378.11
580.11	1195.84
580.308	1345.34
580.506	1255.23
580.704	1169.22
580.901	1103.68
581.099	1414.98
581.297	1161.03
581.495	1206.08
581.692	1337.15
581.89	1251.14
582.088	1269.57
582.285	1130.31
582.483	1113.92
582.681	1111.88
582.878	1095.49
583.076	1120.07
583.274	1044.29
583.471	1173.32
583.669	991.05
583.866	999.24
584.064	948.04
584.262	919.37
584.459	839.5
584.657	1009.48
584.854	888.65
585.052	999.24
585.249	1019.72
585.447	915.27
585.644	819.02
585.841	995.14
586.039	892.74
586.236	892.74
586.434	825.16
586.631	823.11
586.828	751.43
587.026	823.11
587.223	720.71
587.42	806.73
587.618	812.87
587.815	870.22
588.012	743.24
588.21	753.48
588.407	765.77
588.604	728.91
588.801	657.23
588.999	649.04
589.196	745.29
589.393	634.7
589.59	749.39
589.787	649.04
589.984	677.71
590.182	737.1
590.379	675.66
590.576	606.03
590.773	583.5
590.97	608.08
591.167	620.36
591.364	739.15
591.561	653.13
591.758	776.01
591.955	778.06
592.152	630.6
592.349	565.07
592.546	644.94
592.743	589.64
592.94	614.22
593.137	720.71
593.334	700.23
593.531	708.43
593.727	710.47
593.924	708.43
594.121	581.45
594.318	536.4
594.515	687.95
594.712	829.26
594.908	728.91
595.105	563.02
595.302	778.06
595.499	702.28
595.696	833.35
595.892	765.77
596.089	927.56
596.286	597.84
596.482	833.35
596.679	782.15
596.876	720.71
597.072	829.26
597.269	763.72
597.466	892.74
597.662	816.97
597.859	837.45
598.055	929.61
598.252	958.28
598.448	982.85
598.645	1025.86
598.841	1038.15
599.038	1140.55
599.234	1281.86
599.431	1146.69
599.627	1208.13
599.824	1226.56
600.02	1230.66
600.217	1238.85
600.413	1331.01
600.609	1484.61
600.806	1660.73
601.002	1597.24
601.198	1453.89
601.395	1634.11
601.591	1668.92
601.787	1765.18
601.984	1853.24
602.18	1832.76
602.376	1912.63
602.572	2006.84
602.769	2195.25
602.965	2117.43
603.161	2314.03
603.357	2279.22
603.553	2580.27
603.75	2309.94
603.946	2496.3
604.142	2645.8
604.338	2926.38
604.534	2744.11
604.73	2895.66
604.926	2893.61
605.122	3092.26
605.318	3122.98
605.514	3448.61
605.71	3348.26
605.906	3368.74
606.102	3530.53
606.298	3700.51
606.494	3862.3
606.69	3997.46
606.886	4036.38
607.082	4163.35
607.278	4189.97
607.474	4292.37
607.67	4480.78
607.866	4439.83
608.062	4761.36
608.257	4787.98
608.453	4863.76
608.649	5252.87
608.845	5203.72
609.041	5199.62
609.236	5598.98
609.432	5779.2
609.628	5805.82
609.824	6022.91
610.019	5943.03
610.215	6319.86
610.411	6622.96
610.606	6713.07
610.802	6944.49
610.998	6895.34
611.193	7210.73
611.389	7280.36
611.584	7501.54
611.78	7679.71
611.976	7964.38
612.171	8378.07
612.367	8562.39
612.562	8402.65
612.758	8672.98
612.953	8861.39
613.149	9311.94
613.344	9238.22
613.539	9686.72
613.735	9905.85
613.93	10245.82
614.126	10288.82
614.321	10794.67
614.517	11161.26
614.712	11171.5
614.907	11525.8
615.103	12013.21
615.298	11923.1
615.493	12779.15
615.688	12650.13
615.884	13237.9
616.079	13323.91
616.274	13923.97
616.47	13930.11
616.665	14368.38
616.86	14730.87
617.055	15003.25
617.25	15451.75
617.445	15871.59
617.641	16117.34
617.836	16619.1
618.031	16641.62
618.226	17735.24
618.421	18071.11
618.616	18310.72
618.811	18302.53
619.006	19314.22
619.201	19365.42
619.396	19936.81
619.591	20149.79
619.786	20962.84
619.981	20710.94
620.176	21573.13
620.371	21665.29
620.566	22566.4
620.761	22935.03
620.956	23422.45
621.151	23393.78
621.346	24378.85
621.541	24548.83
621.735	25441.75
621.93	25824.72
622.125	26072.52
622.32	26219.97
622.515	27147.7
622.709	27626.93
622.904	28200.36
623.099	28454.31
623.294	28970.4
623.488	28978.59
623.683	30313.86
623.878	29961.61
624.072	30981.5
624.267	31270.26
624.462	31886.7
624.656	31778.16
624.851	33056.09
625.046	33135.96
625.24	33781.07
625.435	33985.87
625.629	34833.73
625.824	34981.18
626.018	35396.92
626.213	35435.83
626.407	35886.39
626.602	36298.03
626.796	37344.54
626.991	37537.05
627.185	37668.12
627.38	38049.04
627.574	38180.11
627.768	38479.11
627.963	38747.4
628.157	38616.33
628.352	39181.57
628.546	38671.62
628.74	39589.11
628.935	38898.95
629.129	39142.66
629.323	38409.48
629.517	38950.15
629.712	38391.05
629.906	38245.65
630.1	37815.57
630.294	37829.91
630.489	36916.51
630.683	37076.26
630.877	35839.28
631.071	35743.03
631.265	34878.79
631.459	34522.44
631.653	33480.02
631.848	33211.74
632.042	32513.38
632.236	32204.14
632.43	30584.19
632.624	30586.24
632.818	29195.67
633.012	28274.09
633.206	26990.01
633.4	27241.91
633.594	25744.84
633.788	24946.14
633.982	24387.04
634.176	23254.51
634.369	22384.13
634.563	21626.38
634.757	20893.21
634.951	20278.82
635.145	19535.4
635.339	18744.89
635.533	17872.45
635.726	17079.89
635.92	16318.04
636.114	15906.4
636.308	15048.3
636.501	14601.85
636.695	13979.26
636.889	13291.15
637.083	12830.35
637.276	12252.83
637.47	11716.26
637.664	11161.26
637.857	10901.17
638.051	10380.98
638.244	10098.36
638.438	9647.81
638.632	9545.41
638.825	8828.62
639.019	8683.22
639.212	8351.45
639.406	7937.76
639.599	7679.71
639.793	7282.41
639.986	6967.02
640.18	6711.02
640.373	6412.02
640.567	6078.2
640.76	6022.91
640.954	5697.28
641.147	5539.58
641.34	5416.71
641.534	5103.37
641.727	5205.77
641.92	4876.04
642.114	4536.08
642.307	4312.85
642.5	4355.86
642.694	3944.22
642.887	3960.6
643.08	3745.56
643.273	3774.24
643.467	3442.46
643.66	3276.58
643.853	3159.85
644.046	3151.65
644.239	2993.96
644.432	2762.54
644.626	2629.42
644.819	2729.77
645.012	2649.9
645.205	2520.88
645.398	2371.38
645.591	2371.38
645.784	2148.15
645.977	2051.89
646.17	2129.72
646.363	1908.54
646.556	1797.95
646.749	1730.36
646.942	1738.55
647.135	1756.99
647.328	1611.58
647.521	1546.05
647.714	1531.71
647.907	1519.42
648.099	1290.05
648.292	1466.17
648.485	1355.58
648.678	1140.55
648.871	1255.23
649.064	1279.81
649.256	1064.77
649.449	1093.44
649.642	937.8
649.835	1017.67
650.027	966.47
650.22	980.81
650.413	825.16
650.605	948.04
650.798	853.83
650.991	728.91
651.183	794.44
651.376	759.63
651.568	802.63
651.761	665.42
651.954	649.04
652.146	673.61
652.339	681.8
652.531	802.63
652.724	581.45
652.916	507.73
653.109	493.39
653.301	622.41
653.494	560.97
653.686	456.53
653.879	593.74
654.071	614.22
654.263	544.59
654.456	534.35
654.648	524.11
654.84	405.33
655.033	429.9
655.225	511.82
655.417	345.94
655.61	534.35
655.802	493.39
655.994	489.29
656.186	341.84
656.379	427.85
656.571	304.98
656.763	390.99
656.955	294.74
657.148	354.13
657.34	384.85
657.532	294.74
657.724	343.89
657.916	315.22
658.108	307.02
658.3	354.13
658.492	339.79
658.684	235.35
658.876	382.8
659.068	137.04
659.26	175.95
659.452	225.11
659.644	282.45
659.836	360.27
660.028	235.35
660.22	272.21
660.412	298.83
660.604	233.3
660.796	247.63
660.988	413.52
661.18	157.52
661.372	294.74
661.563	268.11
661.755	159.57
661.947	149.33
662.139	180.05
662.331	212.82
662.522	218.96
662.714	163.67
662.906	175.95
663.097	135
663.289	180.05
663.481	1.88
663.673	190.29
663.864	182.1
664.056	259.92
664.247	159.57
664.439	165.71
664.631	216.91
664.822	239.44
665.014	169.81
665.205	208.72
665.397	212.82
665.588	157.52
665.78	194.39
665.971	210.77
666.163	36.69
666.354	225.11
666.546	94.04
666.737	175.95
666.929	204.63
667.12	139.09
667.311	155.47
667.503	161.62
667.694	198.48
667.885	169.81
668.077	237.39
668.268	73.56
668.459	61.27
668.651	202.58
668.842	180.05
669.033	145.24
669.224	110.42
669.416	304.98
669.607	147.28
669.798	128.85
669.989	272.21
670.18	77.65
670.371	198.48
670.563	118.61
670.754	292.69
670.945	218.96
671.136	243.54
671.327	128.85
671.518	231.25
671.709	317.26
671.9	196.43
672.091	208.72
672.282	280.4
672.473	282.45
672.664	190.29
672.855	171.86
673.046	149.33
673.237	282.45
673.428	173.91
673.619	247.63
673.809	139.09
674	264.02
674.191	288.59
674.382	161.62
674.573	141.14
674.764	141.14
674.954	239.44
675.145	147.28
675.336	139.09
675.527	96.08
675.717	122.71
675.908	165.71
676.099	159.57
676.289	169.81
676.48	100.18
676.671	214.87
676.861	122.71
677.052	214.87
677.243	173.91
677.433	153.43
677.624	307.02
677.814	243.54
678.005	186.19
678.195	331.6
678.386	81.75
678.576	173.91
678.767	135
678.957	194.39
679.148	180.05
679.338	372.56
679.529	294.74
679.719	231.25
679.909	315.22
680.1	302.93
680.29	290.64
680.481	112.47
680.671	282.45
680.861	259.92
681.052	235.35
681.242	272.21
681.432	218.96
681.622	282.45
681.813	112.47
682.003	266.07
682.193	227.15
682.383	274.26
682.573	286.54
682.764	186.19
682.954	292.69
683.144	296.78
683.334	218.96
683.524	255.83
683.714	282.45
683.904	221.01
684.094	214.87
684.284	235.35
684.474	378.7
684.664	270.16
684.854	196.43
685.044	261.97
685.234	268.11
685.424	276.31
685.614	208.72
685.804	360.27
685.994	272.21
686.184	356.18
686.374	245.59
686.564	376.66
686.753	296.78
686.943	169.81
687.133	231.25
687.323	194.39
687.513	329.55
687.702	259.92
687.892	163.67
688.082	425.81
688.272	339.79
688.461	221.01
688.651	368.46
688.841	264.02
689.03	212.82
689.22	251.73
689.41	329.55
689.599	341.84
689.789	243.54
689.979	446.29
690.168	270.16
690.358	323.41
690.547	292.69
690.737	309.07
690.926	237.39
691.116	300.88
691.305	352.08
691.495	323.41
691.684	124.76
691.874	235.35
692.063	315.22
692.252	315.22
692.442	307.02
692.631	202.58
692.82	210.77
693.01	307.02
693.199	268.11
693.388	284.5
693.578	200.53
693.767	343.89
693.956	302.93
694.146	264.02
694.335	327.5
694.524	208.72
694.713	247.63
694.902	216.91
695.092	216.91
695.281	325.46
695.47	227.15
695.659	239.44
695.848	243.54
696.037	206.67
696.226	304.98
696.415	155.47
696.604	327.5
696.793	286.54
696.982	249.68
697.171	321.36
697.36	216.91
697.549	245.59
697.738	132.95
697.927	284.5
698.116	255.83
698.305	335.7
698.494	229.2
698.683	212.82
698.872	415.57
699.061	247.63
699.25	241.49
699.438	229.2
699.627	159.57
699.816	350.03
700.005	153.43
700.193	202.58
700.382	331.6
700.571	290.64
700.76	202.58
700.948	296.78
701.137	292.69
701.326	282.45
701.514	208.72
701.703	368.46
701.892	243.54
702.08	446.29
702.269	239.44
702.457	161.62
702.646	319.31
702.834	304.98
703.023	364.37
703.212	354.13
703.4	249.68
703.589	225.11
703.777	204.63
703.965	253.78
704.154	229.2
704.342	227.15
704.531	210.77
704.719	278.35
704.907	372.56
705.096	91.99
705.284	196.43
705.472	300.88
705.661	274.26
705.849	212.82
706.037	311.12
706.226	296.78
706.414	315.22
706.602	255.83
706.79	259.92
706.979	192.34
707.167	249.68
707.355	204.63
707.543	237.39
707.731	364.37
707.919	280.4
708.107	188.24
708.296	87.89
708.484	249.68
708.672	241.49
708.86	245.59
709.048	237.39
709.236	276.31
709.424	294.74
709.612	270.16
709.8	100.18
709.988	128.85
710.176	274.26
710.364	278.35
710.551	237.39
710.739	188.24
710.927	227.15
711.115	309.07
711.303	335.7
711.491	325.46
711.679	200.53
711.866	247.63
712.054	251.73
712.242	288.59
712.43	321.36
712.617	202.58
712.805	337.74
712.993	257.87
713.181	221.01
713.368	272.21
713.556	294.74
713.744	184.15
713.931	452.43
714.119	343.89
714.306	259.92
714.494	276.31
714.682	251.73
714.869	163.67
715.057	278.35
715.244	143.19
715.432	264.02
715.619	239.44
715.807	323.41
715.994	235.35
716.182	268.11
716.369	350.03
716.556	380.75
716.744	173.91
716.931	204.63
717.119	206.67
717.306	231.25
717.493	276.31
717.681	198.48
717.868	237.39
718.055	286.54
718.242	255.83
718.43	317.26
718.617	286.54
718.804	354.13
718.991	233.3
719.179	294.74
719.366	411.47
719.553	343.89
719.74	307.02
719.927	331.6
720.114	294.74
720.301	157.52
720.488	251.73
720.676	208.72
720.863	407.38
721.05	440.14
721.237	319.31
721.424	319.31
721.611	341.84
721.798	171.86
721.985	237.39
722.172	196.43
722.358	290.64
722.545	384.85
722.732	261.97
722.919	411.47
723.106	221.01
723.293	360.27
723.48	333.65
723.667	210.77
723.853	350.03
724.04	356.18
724.227	401.23
724.414	272.21
724.6	376.66
724.787	374.61
724.974	468.81
725.161	266.07
725.347	200.53
725.534	333.65
725.72	319.31
725.907	313.17
726.094	321.36
726.28	259.92
726.467	333.65
726.653	288.59
726.84	350.03
727.027	419.66
727.213	356.18
727.4	356.18
727.586	386.9
727.773	343.89
727.959	315.22
728.145	274.26
728.332	188.24
728.518	264.02
728.705	390.99
728.891	321.36
729.077	356.18
729.264	298.83
729.45	354.13
729.636	337.74
729.823	274.26
730.009	458.57
730.195	337.74
730.382	337.74
730.568	337.74
730.754	329.55
730.94	268.11
731.126	341.84
731.313	347.98
731.499	395.09
731.685	364.37
731.871	407.38
732.057	360.27
732.243	442.19
732.429	313.17
732.615	528.21
732.801	352.08
732.987	395.09
733.173	380.75
733.359	331.6
733.545	370.51
733.731	360.27
733.917	491.34
734.103	292.69
734.289	270.16
734.475	382.8
734.661	356.18
734.847	380.75
735.033	282.45
735.219	499.53
735.404	382.8
735.59	327.5
735.776	393.04
735.962	356.18
736.148	466.77
736.333	462.67
736.519	354.13
736.705	368.46
736.89	319.31
737.076	376.66
737.262	251.73
737.447	368.46
737.633	399.18
737.819	495.44
738.004	343.89
738.19	282.45
738.375	411.47
738.561	431.95
738.747	462.67
738.932	307.02
739.118	581.45
739.303	452.43
739.489	456.53
739.674	382.8
739.859	298.83
740.045	417.61
740.23	311.12
740.416	214.87
740.601	382.8
740.786	337.74
740.972	270.16
741.157	374.61
741.342	298.83
741.528	356.18
741.713	511.82
741.898	331.6
742.084	362.32
742.269	409.42
742.454	362.32
742.639	499.53
742.824	290.64
743.01	487.25
743.195	417.61
743.38	378.7
743.565	364.37
743.75	360.27
743.935	417.61
744.12	415.57
744.305	315.22
744.49	335.7
744.675	423.76
744.86	278.35
745.045	384.85
745.23	335.7
745.415	411.47
745.6	464.72
745.785	319.31
745.97	438.09
746.155	341.84
746.34	434
746.525	358.22
746.71	434
746.895	278.35
747.079	358.22
747.264	255.83
747.449	425.81
747.634	421.71
747.819	399.18
748.003	272.21
748.188	325.46
748.373	339.79
748.557	331.6
748.742	311.12
748.927	352.08
749.111	327.5
749.296	362.32
749.481	444.24
749.665	311.12
749.85	286.54
750.034	356.18
750.219	294.74
750.404	278.35
750.588	319.31
750.773	208.72
750.957	229.2
751.141	286.54
751.326	362.32
751.51	225.11
751.695	292.69
751.879	292.69
752.064	401.23
752.248	278.35
752.432	399.18
752.617	386.9
752.801	399.18
752.985	366.42
753.17	335.7
753.354	237.39
753.538	327.5
753.722	233.3
753.907	229.2
754.091	229.2
754.275	296.78
754.459	206.67
754.643	184.15
754.828	259.92
755.012	278.35
755.196	208.72
755.38	261.97
755.564	231.25
755.748	237.39
755.932	366.42
756.116	212.82
756.3	286.54
756.484	227.15
756.668	223.06
756.852	71.51
757.036	157.52
757.22	286.54
757.404	241.49
757.588	196.43
757.772	292.69
757.956	216.91
758.14	337.74
758.323	149.33
758.507	214.87
758.691	192.34
758.875	231.25
759.059	259.92
759.242	145.24
759.426	268.11
759.61	259.92
759.794	169.81
759.977	237.39
760.161	368.46
760.345	235.35
760.528	249.68
760.712	175.95
760.895	249.68
761.079	163.67
761.263	102.23
761.446	141.14
761.63	159.57
761.813	296.78
761.997	102.23
762.18	163.67
762.364	216.91
762.547	143.19
762.731	141.14
762.914	69.46
763.098	118.61
763.281	173.91
763.464	175.95
763.648	141.14
763.831	147.28
764.015	100.18
764.198	221.01
764.381	137.04
764.564	216.91
764.748	130.9
764.931	229.2
765.114	165.71
765.297	249.68
765.481	124.76
765.664	151.38
765.847	130.9
766.03	227.15
766.213	141.14
766.397	157.52
766.58	98.13
766.763	221.01
766.946	157.52
767.129	169.81
767.312	120.66
767.495	100.18
767.678	71.51
767.861	155.47
768.044	42.84
768.227	214.87
768.41	143.19
768.593	173.91
768.776	145.24
768.959	112.47
769.142	237.39
769.324	81.75
769.507	126.8
769.69	94.04
769.873	141.14
770.056	282.45
770.239	79.7
770.421	272.21
770.604	223.06
770.787	132.95
770.97	188.24
771.152	112.47
771.335	130.9
771.518	75.6
771.7	190.29
771.883	272.21
772.066	114.52
772.248	143.19
772.431	270.16
772.613	112.47
772.796	59.22
772.978	198.48
773.161	159.57
773.343	89.94
773.526	61.27
773.708	44.88
773.891	14.17
774.073	77.65
774.256	120.66
774.438	173.91
774.621	126.8
774.803	135
774.985	63.32
775.168	212.82
775.35	112.47
775.532	229.2
775.715	42.84
775.897	118.61
776.079	151.38
776.261	118.61
776.444	135
776.626	128.85
776.808	77.65
776.99	32.6
777.173	112.47
777.355	61.27
777.537	94.04
777.719	57.17
777.901	53.08
778.083	63.32
778.265	32.6
778.447	178
778.629	-4.27
778.811	128.85
778.993	114.52
779.175	206.67
779.357	57.17
779.539	44.88
779.721	112.47
779.903	108.37
780.085	63.32
780.267	137.04
780.449	180.05
780.631	110.42
780.812	110.42
780.994	89.94
781.176	65.36
781.358	36.69
781.54	126.8
781.721	67.41
781.903	130.9
782.085	36.69
782.267	171.86
782.448	-59.56
782.63	69.46
782.812	-4.27
782.993	55.12
783.175	81.75
783.357	10.07
783.538	147.28
783.72	61.27
783.901	81.75
784.083	137.04
784.264	53.08
784.446	-20.65
784.627	53.08
784.809	135
784.99	55.12
785.172	53.08
785.353	81.75
785.535	94.04
785.716	-20.65
785.897	85.84
786.079	-2.22
786.26	36.69
786.441	91.99
786.623	51.03
786.804	67.41
786.985	69.46
787.167	67.41
787.348	-51.37
787.529	1.88
787.71	216.91
787.891	114.52
788.073	-20.65
788.254	-22.7
788.435	135
788.616	55.12
788.797	16.21
788.978	81.75
789.159	24.4
789.34	55.12
789.522	87.89
789.703	-20.65
789.884	44.88
790.065	81.75
790.246	147.28
790.427	-47.27
790.607	128.85
790.788	73.56
790.969	44.88
791.15	34.64
791.331	-80.04
791.512	106.32
791.693	-49.32
791.874	38.74
792.054	237.39
792.235	143.19
792.416	8.02
792.597	1.88
792.778	55.12
792.958	67.41
793.139	96.08
793.32	98.13
793.5	44.88
793.681	153.43
793.862	110.42
794.042	46.93
794.223	-80.04
794.404	10.07
794.584	-61.61
794.765	59.22
794.945	-34.99
795.126	87.89
795.306	81.75
795.487	53.08
795.667	38.74
795.848	12.12
796.028	42.84
796.209	69.46
796.389	89.94
796.57	8.02
796.75	-47.27
796.93	36.69
797.111	-0.17
797.291	-34.99
797.471	116.56
797.652	-20.65
797.832	85.84
798.012	102.23
798.192	44.88
798.373	-102.57
798.553	-18.6
798.733	53.08
798.913	8.02
799.093	-26.79
799.274	73.56
799.454	83.8
799.634	100.18
799.814	67.41
799.994	69.46
800.174	91.99
800.354	-37.03
800.534	-73.9
800.714	79.7
800.894	-26.79
801.074	-49.32
801.254	-24.75
801.434	137.04
801.614	-26.79
801.794	-59.56
801.974	1824.57
802.154	-53.42
802.334	22.36
802.514	-77.99
802.693	-77.99
802.873	22.36
803.053	104.28
803.233	12.12
803.413	-37.03
803.592	71.51
803.772	-20.65
803.952	73.56
804.131	-41.13
804.311	65.36
804.491	26.45
804.67	48.98
804.85	8.02
805.03	81.75
805.209	96.08
805.389	-67.75
805.568	-69.8
805.748	-4.27
805.928	-10.41
806.107	51.03
806.287	46.93
806.466	81.75
806.646	20.31
806.825	20.31
807.004	46.93
807.184	61.27
807.363	79.7
807.543	40.79
807.722	-77.99
807.901	73.56
808.081	91.99
808.26	-143.53
808.439	110.42
808.619	57.17
808.798	51.03
808.977	57.17
809.156	128.85
809.336	-8.36
809.515	100.18
809.694	-18.6
809.873	-88.23
810.052	-16.55
810.231	118.61
810.411	40.79
810.59	-18.6
810.769	10.07
810.948	77.65
811.127	-143.53
811.306	36.69
811.485	5.97
811.664	128.85
811.843	-0.17
812.022	16.21
812.201	55.12
812.38	-8.36
812.559	-12.46
812.737	59.22
812.916	-88.23
813.095	-18.6
813.274	69.46
813.453	40.79
813.632	67.41
813.811	147.28
813.989	-43.18
814.168	55.12
814.347	-61.61
814.526	22.36
814.704	132.95
814.883	102.23
815.062	-80.04
815.24	147.28
815.419	-16.55
815.598	87.89
815.776	-49.32
815.955	94.04
816.133	-147.62
816.312	126.8
816.49	40.79
816.669	24.4
816.847	18.26
817.026	36.69
817.204	-73.9
817.383	8.02
817.561	-20.65
817.74	46.93
817.918	48.98
818.097	-26.79
818.275	-37.03
818.453	42.84
818.632	71.51
818.81	-10.41
818.988	8.02
819.167	30.55
819.345	106.32
819.523	-67.75
819.701	26.45
819.879	-22.7
820.058	8.02
820.236	34.64
820.414	26.45
820.592	5.97
820.77	-0.17
820.948	-18.6
821.127	10.07
821.305	18.26
821.483	-57.51
821.661	34.64
821.839	69.46
822.017	-12.46
822.195	14.17
822.373	89.94
822.551	1.88
822.729	48.98
822.907	53.08
823.085	63.32
823.262	69.46
823.44	-65.71
823.618	10.07
823.796	10.07
823.974	3.93
824.152	-20.65
824.329	5.97
824.507	79.7
824.685	-10.41
824.863	69.46
825.04	10.07
825.218	71.51
825.396	-14.51
825.574	44.88
825.751	-4.27
825.929	51.03
826.107	-45.23
826.284	20.31
826.462	63.32
826.639	22.36
826.817	-73.9
826.994	-4.27
827.172	-92.33
827.349	169.81
827.527	67.41
827.704	-34.99
827.882	102.23
828.059	-16.55
828.237	-47.27
828.414	48.98
828.591	-114.86
828.769	-28.84
828.946	-65.71
829.124	132.95
829.301	48.98
829.478	-10.41
829.655	30.55
829.833	20.31
830.01	-127.14
830.187	59.22
830.364	5.97
830.542	87.89
830.719	139.09
830.896	34.64
831.073	-22.7
831.25	75.6
831.427	30.55
831.604	22.36
831.782	-55.47
831.959	36.69
832.136	-14.51
832.313	-8.36
832.49	-10.41
832.667	77.65
832.844	-61.61
833.021	104.28
833.198	10.07
833.374	71.51
833.551	3.93
833.728	-28.84
833.905	51.03
834.082	-112.81
834.259	61.27
834.436	157.52
834.612	-30.89
834.789	55.12
834.966	40.79
835.143	18.26
835.319	-45.23
835.496	59.22
835.673	40.79
835.85	46.93
836.026	44.88
836.203	42.84
836.38	16.21
836.556	14.17
836.733	-28.84
836.909	104.28
837.086	16.21
837.262	-55.47
837.439	36.69
837.616	10.07
837.792	-28.84
837.968	-32.94
838.145	32.6
838.321	51.03
838.498	40.79
838.674	116.56
838.851	40.79
839.027	30.55
839.203	40.79
839.38	53.08
839.556	59.22
839.732	1.88
839.909	-57.51
840.085	16.21
840.261	20.31
840.437	-6.31
840.614	10.07
840.79	61.27
840.966	75.6
841.142	5.97
841.318	10.07
841.494	-4.27
841.671	112.47
841.847	-4.27
842.023	-61.61
842.199	20.31
842.375	147.28
842.551	-159.91
842.727	-16.55
842.903	120.66
843.079	-59.56
843.255	71.51
843.431	-22.7
843.607	48.98
843.783	-112.81
843.959	24.4
844.134	-53.42
844.31	206.67
844.486	3.93
844.662	-2.22
844.838	67.41
845.013	59.22
845.189	67.41
845.365	-24.75
845.541	59.22
845.716	-2.22
845.892	30.55
846.068	-82.09
846.244	-96.43
846.419	20.31
846.595	-63.66
846.77	-71.85
846.946	96.08
847.122	-8.36
847.297	14.17
847.473	139.09
847.648	-82.09
847.824	-41.13
847.999	-166.06
848.175	-8.36
848.35	53.08
848.526	71.51
848.701	32.6
848.876	102.23
849.052	122.71
849.227	26.45
849.403	67.41
849.578	10.07
849.753	75.6
849.929	-26.79
850.104	-106.67
850.279	8.02
850.454	-22.7
850.63	91.99
850.805	-34.99
850.98	-16.55
851.155	-14.51
851.33	89.94
851.505	5.97
851.681	161.62
851.856	-90.28
852.031	-2.22
852.206	-71.85
852.381	-96.43
852.556	16.21
852.731	12.12
852.906	18.26
853.081	-8.36
853.256	40.79
853.431	-14.51
853.606	-6.31
853.781	-28.84
853.956	-112.81
854.131	-10.41
854.305	-59.56
854.48	24.4
854.655	-18.6
854.83	-73.9
855.005	-28.84
855.18	16.21
855.354	-71.85
855.529	5.97
855.704	12.12
855.879	65.36
856.053	12.12
856.228	-28.84
856.403	-26.79
856.577	42.84
856.752	-34.99
856.926	32.6
857.101	12.12
857.276	-55.47
857.45	32.6
857.625	36.69
857.799	36.69
857.974	16.21
858.148	-121
858.323	5.97
858.497	-16.55
858.672	-37.03
858.846	-121
859.02	30.55
859.195	-61.61
859.369	-53.42
859.543	24.4
859.718	-26.79
859.892	-16.55
860.066	16.21
860.241	5.97
860.415	-12.46
860.589	-53.42
860.763	-57.51
860.938	-59.56
861.112	48.98
861.286	-90.28
861.46	8.02
861.634	-12.46
861.808	77.65
861.982	-108.71
862.157	-139.43
862.331	-67.75
862.505	-102.57
862.679	-77.99
862.853	-16.55
863.027	-131.24
863.201	171.86
863.375	-4.27
863.549	28.5
863.722	10.07
863.896	94.04
864.07	-28.84
864.244	-47.27
864.418	132.95
864.592	32.6
864.766	-57.51
864.939	20.31
865.113	32.6
865.287	91.99
865.461	-90.28
865.634	5.97
865.808	55.12
865.982	-73.9
866.156	-24.75
866.329	-121
866.503	14.17
866.676	-30.89
866.85	42.84
867.024	-84.14
867.197	-47.27
867.371	-12.46
867.544	94.04
867.718	-100.52
867.891	175.95
868.065	-112.81
868.238	18.26
868.412	89.94
868.585	8.02
868.759	-14.51
868.932	-53.42
869.105	-125.1
869.279	24.4
869.452	-98.47
869.625	53.08
869.799	-63.66
869.972	-92.33
870.145	-12.46
870.319	118.61
870.492	-82.09
870.665	-57.51
870.838	-73.9
871.011	-123.05
871.185	-18.6
871.358	-57.51
871.531	55.12
871.704	-55.47
871.877	20.31
872.05	-43.18
872.223	-71.85
872.396	48.98
872.569	8.02
872.742	-32.94
872.915	30.55
873.088	-67.75
873.261	-45.23
873.434	102.23
873.607	-43.18
873.78	102.23
873.953	-102.57
874.126	12.12
874.299	57.17
874.471	-65.71
874.644	-65.71
874.817	22.36
874.99	94.04
875.163	-2.22
875.335	77.65
875.508	34.64
875.681	132.95
875.853	-37.03
876.026	-0.17
876.199	26.45
876.371	-24.75
876.544	-22.7
876.717	24.4
876.889	-16.55
877.062	83.8
877.234	-57.51
877.407	-8.36
877.579	-73.9
877.752	-39.08
877.924	120.66
878.097	-49.32
878.269	-26.79
878.442	-16.55
878.614	53.08
878.786	-10.41
878.959	38.74
879.131	44.88
879.303	-110.76
879.476	-2.22
879.648	53.08
879.82	-16.55
879.993	-39.08
880.165	-84.14
880.337	-94.38
880.509	-10.41
880.681	-127.14
880.854	-45.23
881.026	96.08
881.198	149.33
881.37	-24.75
881.542	-24.75
881.714	44.88
881.886	-57.51
882.058	14.17
882.23	-49.32
882.402	-47.27
882.574	55.12
882.746	108.37
882.918	118.61
883.09	30.55
883.262	22.36
883.434	-10.41
883.606	-88.23
883.778	-8.36
883.95	89.94
884.122	-121
884.293	77.65
884.465	-6.31
884.637	161.62
884.809	-10.41
884.98	53.08
885.152	5.97
885.324	69.46
885.496	32.6
885.667	-86.19
885.839	-94.38
886.011	81.75
886.182	12.12
886.354	124.76
886.525	-22.7
886.697	10.07
886.869	-0.17
887.04	-34.99
887.212	91.99
887.383	61.27
887.555	28.5
887.726	-69.8
887.897	-47.27
888.069	36.69
888.24	59.22
888.412	-82.09
888.583	-20.65
888.754	-37.03
888.926	-139.43
889.097	3.93
889.268	-102.57
889.44	-10.41
889.611	-110.76
889.782	-77.99
889.953	-151.72
890.125	135
890.296	-32.94
890.467	-43.18
890.638	-8.36
890.809	16.21
890.98	-49.32
891.151	55.12
891.323	94.04
891.494	-26.79
891.665	51.03
891.836	-2.22
892.007	-30.89
892.178	10.07
892.349	18.26
892.52	-106.67
892.691	10.07
892.862	12.12
893.032	-90.28
893.203	-37.03
893.374	-14.51
893.545	-4.27
893.716	55.12
893.887	18.26
894.057	-14.51
894.228	67.41
894.399	-28.84
894.57	61.27
894.74	-43.18
894.911	48.98
895.082	10.07
895.253	-34.99
895.423	-39.08
895.594	-2.22
895.764	-37.03
895.935	-157.86
896.106	5.97
896.276	20.31
896.447	40.79
896.617	-6.31
896.788	-75.95
896.958	-16.55
897.129	-80.04
897.299	-65.71
897.47	14.17
897.64	106.32
897.81	-4.27
897.981	63.32
898.151	-37.03
898.322	57.17
898.492	57.17
898.662	-121
898.832	-22.7
899.003	-65.71
899.173	114.52
899.343	-166.06
899.513	-96.43
