Data from USB4F104151__89__10-34-45-532.txt Node

Date: Wed Feb 26 10:34:45 EST 2025
User: louis
Spectrometer: USB4F10415
Trigger mode: 4
Integration Time (sec): 1.000000E-1
Scans to average: 1
Electric dark correction enabled: true
Nonlinearity correction enabled: false
Boxcar width: 0
XAxis mode: Wavelengths
Number of Pixels in Spectrum: 3648
>>>>>Begin Spectral Data<<<<<
178.204	-407.55
178.424	-407.55
178.644	-407.55
178.864	-466.94
179.084	-423.93
179.304	8.19
179.524	-32.77
179.744	57.34
179.964	45.06
180.184	63.49
180.404	10.24
180.624	-112.64
180.844	-26.62
181.064	-59.39
181.283	-6.14
181.503	-16.38
181.723	69.63
181.943	-36.86
182.163	131.07
182.383	-32.77
182.602	92.16
182.822	112.64
183.042	-32.77
183.262	59.39
183.482	53.25
183.701	28.67
183.921	69.63
184.141	-59.39
184.361	69.63
184.58	40.96
184.8	28.67
185.02	8.19
185.239	81.92
185.459	63.49
185.679	32.77
185.898	-102.4
186.118	-18.43
186.338	120.83
186.557	106.49
186.777	-12.29
186.997	-51.2
187.216	-24.58
187.436	149.5
187.655	73.73
187.875	129.02
188.095	14.34
188.314	215.04
188.534	122.88
188.753	36.86
188.973	59.39
189.192	169.98
189.412	43.01
189.631	40.96
189.851	61.44
190.07	157.69
190.29	-57.34
190.509	34.82
190.729	38.91
190.948	145.41
191.168	249.85
191.387	137.21
191.607	51.2
191.826	16.38
192.045	32.77
192.265	-34.82
192.484	86.01
192.704	77.82
192.923	-92.16
193.142	208.89
193.362	108.54
193.581	143.36
193.8	77.82
194.02	122.88
194.239	75.77
194.458	45.06
194.678	-16.38
194.897	67.58
195.116	34.82
195.335	28.67
195.555	86.01
195.774	-73.73
195.993	122.88
196.212	20.48
196.432	-34.82
196.651	-8.19
196.87	45.06
197.089	264.19
197.308	22.53
197.528	-59.39
197.747	-63.49
197.966	108.54
198.185	219.13
198.404	-49.15
198.623	69.63
198.842	98.3
199.062	118.78
199.281	114.69
199.5	75.77
199.719	38.91
199.938	30.72
200.157	79.87
200.376	77.82
200.595	118.78
200.814	8.19
201.033	-114.69
201.252	167.93
201.471	81.92
201.69	100.35
201.909	38.91
202.128	129.02
202.347	73.73
202.566	73.73
202.785	-16.38
203.004	10.24
203.223	221.18
203.442	18.43
203.661	-102.4
203.879	30.72
204.098	153.6
204.317	-28.67
204.536	86.01
204.755	77.82
204.974	135.17
205.193	-4.1
205.411	122.88
205.63	137.21
205.849	96.25
206.068	45.06
206.287	-73.73
206.505	106.49
206.724	38.91
206.943	-77.82
207.162	38.91
207.381	77.82
207.599	-28.67
207.818	71.68
208.037	-38.91
208.255	77.82
208.474	71.68
208.693	40.96
208.911	12.29
209.13	32.77
209.349	65.54
209.567	71.68
209.786	118.78
210.005	98.3
210.223	0
210.442	-30.72
210.661	16.38
210.879	83.97
211.098	65.54
211.316	16.38
211.535	24.58
211.753	40.96
211.972	10.24
212.191	-24.58
212.409	-12.29
212.628	178.17
212.846	40.96
213.065	90.11
213.283	110.59
213.502	-57.34
213.72	38.91
213.938	26.62
214.157	6.14
214.375	14.34
214.594	47.1
214.812	51.2
215.031	45.06
215.249	73.73
215.467	69.63
215.686	-16.38
215.904	-4.1
216.122	49.15
216.341	159.74
216.559	67.58
216.778	59.39
216.996	137.21
217.214	22.53
217.432	-22.53
217.651	-63.49
217.869	0
218.087	28.67
218.306	32.77
218.524	-6.14
218.742	-43.01
218.96	57.34
219.179	-79.87
219.397	36.86
219.615	143.36
219.833	131.07
220.051	-63.49
220.27	120.83
220.488	133.12
220.706	73.73
220.924	-71.68
221.142	-51.2
221.36	59.39
221.578	122.88
221.796	65.54
222.015	18.43
222.233	47.1
222.451	122.88
222.669	-18.43
222.887	73.73
223.105	30.72
223.323	-26.62
223.541	-77.82
223.759	30.72
223.977	16.38
224.195	126.97
224.413	75.77
224.631	-4.1
224.849	77.82
225.067	172.03
225.285	-34.82
225.503	-75.77
225.721	-30.72
225.939	77.82
226.157	-22.53
226.375	184.32
226.592	32.77
226.81	32.77
227.028	155.65
227.246	139.26
227.464	32.77
227.682	122.88
227.9	-16.38
228.117	61.44
228.335	69.63
228.553	88.06
228.771	30.72
228.989	28.67
229.206	49.15
229.424	-61.44
229.642	0
229.86	-57.34
230.077	108.54
230.295	92.16
230.513	157.69
230.731	88.06
230.948	143.36
231.166	212.99
231.384	2.05
231.601	-53.25
231.819	161.79
232.037	-32.77
232.254	-18.43
232.472	45.06
232.689	-10.24
232.907	129.02
233.125	49.15
233.342	-67.58
233.56	-20.48
233.777	-30.72
233.995	40.96
234.213	55.3
234.43	16.38
234.648	-2.05
234.865	-16.38
235.083	32.77
235.3	67.58
235.518	133.12
235.735	137.21
235.953	4.1
236.17	-71.68
236.388	12.29
236.605	14.34
236.822	116.73
237.04	77.82
237.257	77.82
237.475	-2.05
237.692	94.21
237.909	118.78
238.127	2.05
238.344	96.25
238.562	-8.19
238.779	-32.77
238.996	-20.48
239.214	43.01
239.431	55.3
239.648	32.77
239.865	73.73
240.083	116.73
240.3	-12.29
240.517	24.58
240.735	6.14
240.952	135.17
241.169	36.86
241.386	22.53
241.603	67.58
241.821	-16.38
242.038	126.97
242.255	81.92
242.472	-38.91
242.689	75.77
242.907	34.82
243.124	49.15
243.341	-2.05
243.558	-63.49
243.775	-34.82
243.992	6.14
244.209	155.65
244.426	124.93
244.643	67.58
244.86	22.53
245.078	133.12
245.295	73.73
245.512	0
245.729	-57.34
245.946	73.73
246.163	100.35
246.38	88.06
246.597	24.58
246.814	75.77
247.031	10.24
247.248	38.91
247.464	102.4
247.681	86.01
247.898	135.17
248.115	75.77
248.332	-24.58
248.549	223.23
248.766	131.07
248.983	124.93
249.2	59.39
249.417	122.88
249.633	-22.53
249.85	149.5
250.067	22.53
250.284	63.49
250.501	106.49
250.717	32.77
250.934	-53.25
251.151	32.77
251.368	43.01
251.585	49.15
251.801	-18.43
252.018	-73.73
252.235	112.64
252.451	2.05
252.668	-45.06
252.885	92.16
253.102	14.34
253.318	-22.53
253.535	28.67
253.752	-2.05
253.968	12.29
254.185	-16.38
254.401	-32.77
254.618	94.21
254.835	-45.06
255.051	126.97
255.268	22.53
255.484	30.72
255.701	14.34
255.917	55.3
256.134	47.1
256.351	22.53
256.567	-73.73
256.784	108.54
257	-102.4
257.217	96.25
257.433	120.83
257.65	-12.29
257.866	120.83
258.082	-16.38
258.299	-20.48
258.515	94.21
258.732	32.77
258.948	-57.34
259.165	143.36
259.381	34.82
259.597	2.05
259.814	38.91
260.03	86.01
260.246	-24.58
260.463	108.54
260.679	200.7
260.895	69.63
261.112	71.68
261.328	18.43
261.544	-51.2
261.761	118.78
261.977	-8.19
262.193	-98.3
262.409	81.92
262.626	2.05
262.842	4.1
263.058	-18.43
263.274	129.02
263.49	114.69
263.707	49.15
263.923	98.3
264.139	-73.73
264.355	16.38
264.571	106.49
264.787	100.35
265.004	126.97
265.22	-12.29
265.436	-43.01
265.652	49.15
265.868	18.43
266.084	-114.69
266.3	28.67
266.516	-24.58
266.732	69.63
266.948	-6.14
267.164	-10.24
267.38	83.97
267.596	106.49
267.812	161.79
268.028	45.06
268.244	18.43
268.46	40.96
268.676	-28.67
268.892	116.73
269.108	-79.87
269.324	-81.92
269.54	-79.87
269.756	12.29
269.972	-36.86
270.188	0
270.403	-143.36
270.619	6.14
270.835	88.06
271.051	45.06
271.267	47.1
271.483	61.44
271.698	32.77
271.914	61.44
272.13	45.06
272.346	-61.44
272.562	45.06
272.777	180.22
272.993	36.86
273.209	10.24
273.425	161.79
273.64	-51.2
273.856	69.63
274.072	-40.96
274.287	-16.38
274.503	141.31
274.719	122.88
274.934	-28.67
275.15	-75.77
275.366	151.55
275.581	24.58
275.797	-20.48
276.012	0
276.228	-45.06
276.444	59.39
276.659	145.41
276.875	71.68
277.09	-57.34
277.306	24.58
277.521	120.83
277.737	4.1
277.952	145.41
278.168	26.62
278.383	110.59
278.599	-20.48
278.814	28.67
279.03	-36.86
279.245	172.03
279.461	94.21
279.676	112.64
279.892	-53.25
280.107	-24.58
280.322	-12.29
280.538	59.39
280.753	71.68
280.969	104.45
281.184	83.97
281.399	122.88
281.615	32.77
281.83	122.88
282.045	-16.38
282.26	6.14
282.476	43.01
282.691	139.26
282.906	106.49
283.122	-36.86
283.337	-34.82
283.552	34.82
283.767	-47.1
283.983	86.01
284.198	20.48
284.413	81.92
284.628	45.06
284.843	-16.38
285.058	88.06
285.274	26.62
285.489	24.58
285.704	137.21
285.919	-24.58
286.134	24.58
286.349	26.62
286.564	-36.86
286.779	100.35
286.995	-18.43
287.21	-90.11
287.425	32.77
287.64	8.19
287.855	53.25
288.07	-26.62
288.285	126.97
288.5	43.01
288.715	112.64
288.93	75.77
289.145	-26.62
289.36	112.64
289.575	77.82
289.79	69.63
290.004	-24.58
290.219	122.88
290.434	-49.15
290.649	-2.05
290.864	32.77
291.079	12.29
291.294	108.54
291.509	2.05
291.724	26.62
291.938	-4.1
292.153	-20.48
292.368	26.62
292.583	0
292.798	59.39
293.012	-20.48
293.227	55.3
293.442	-20.48
293.657	143.36
293.871	69.63
294.086	40.96
294.301	182.27
294.516	77.82
294.73	49.15
294.945	-4.1
295.16	16.38
295.374	137.21
295.589	104.45
295.804	-16.38
296.018	57.34
296.233	184.32
296.447	30.72
296.662	-2.05
296.877	26.62
297.091	86.01
297.306	10.24
297.52	10.24
297.735	59.39
297.949	90.11
298.164	12.29
298.378	40.96
298.593	8.19
298.807	10.24
299.022	57.34
299.236	190.46
299.451	-57.34
299.665	-20.48
299.88	67.58
300.094	2.05
300.309	102.4
300.523	34.82
300.737	28.67
300.952	77.82
301.166	32.77
301.381	-65.53
301.595	-53.25
301.809	16.38
302.024	-53.25
302.238	20.48
302.452	169.98
302.667	32.77
302.881	176.13
303.095	53.25
303.309	32.77
303.524	-28.67
303.738	63.49
303.952	6.14
304.166	98.3
304.381	-30.72
304.595	137.21
304.809	40.96
305.023	22.53
305.237	-20.48
305.452	57.34
305.666	129.02
305.88	26.62
306.094	120.83
306.308	57.34
306.522	69.63
306.736	65.54
306.95	45.06
307.164	26.62
307.379	79.87
307.593	116.73
307.807	94.21
308.021	73.73
308.235	116.73
308.449	-102.4
308.663	6.14
308.877	186.37
309.091	67.58
309.305	92.16
309.519	-47.1
309.733	139.26
309.947	-63.49
310.161	118.78
310.374	102.4
310.588	73.73
310.802	-30.72
311.016	-14.34
311.23	-20.48
311.444	-24.58
311.658	116.73
311.872	112.64
312.085	67.58
312.299	147.45
312.513	45.06
312.727	40.96
312.941	-96.25
313.154	71.68
313.368	32.77
313.582	75.77
313.796	92.16
314.009	-28.67
314.223	88.06
314.437	-2.05
314.651	81.92
314.864	2.05
315.078	26.62
315.292	4.1
315.505	6.14
315.719	114.69
315.933	100.35
316.146	16.38
316.36	18.43
316.573	100.35
316.787	159.74
317.001	67.58
317.214	-73.73
317.428	83.97
317.641	-24.58
317.855	28.67
318.068	40.96
318.282	-32.77
318.495	141.31
318.709	20.48
318.922	24.58
319.136	147.45
319.349	98.3
319.563	0
319.776	61.44
319.99	-14.34
320.203	102.4
320.417	49.15
320.63	100.35
320.843	131.07
321.057	83.97
321.27	28.67
321.483	141.31
321.697	159.74
321.91	-2.05
322.124	28.67
322.337	40.96
322.55	6.14
322.763	69.63
322.977	-16.38
323.19	12.29
323.403	18.43
323.617	79.87
323.83	141.31
324.043	-32.77
324.256	61.44
324.469	-59.39
324.683	137.21
324.896	-12.29
325.109	-2.05
325.322	-47.1
325.535	118.78
325.748	110.59
325.962	18.43
326.175	10.24
326.388	55.3
326.601	69.63
326.814	-32.77
327.027	67.58
327.24	108.54
327.453	-18.43
327.666	61.44
327.879	77.82
328.092	104.45
328.305	28.67
328.518	8.19
328.731	-24.58
328.944	122.88
329.157	61.44
329.37	22.53
329.583	200.7
329.796	129.02
330.009	-28.67
330.222	36.86
330.435	69.63
330.648	67.58
330.861	47.1
331.073	-8.19
331.286	153.6
331.499	16.38
331.712	-24.58
331.925	59.39
332.138	49.15
332.35	98.3
332.563	-10.24
332.776	79.87
332.989	22.53
333.202	57.34
333.414	34.82
333.627	47.1
333.84	51.2
334.053	-34.82
334.265	-12.29
334.478	0
334.691	65.54
334.903	43.01
335.116	-40.96
335.329	65.54
335.541	75.77
335.754	79.87
335.966	-40.96
336.179	40.96
336.392	104.45
336.604	-55.3
336.817	159.74
337.029	22.53
337.242	51.2
337.454	67.58
337.667	-24.58
337.88	102.4
338.092	0
338.305	114.69
338.517	-8.19
338.729	65.54
338.942	65.54
339.154	45.06
339.367	-51.2
339.579	18.43
339.792	-12.29
340.004	75.77
340.217	8.19
340.429	16.38
340.641	8.19
340.854	-22.53
341.066	-28.67
341.278	184.32
341.491	102.4
341.703	8.19
341.915	22.53
342.128	108.54
342.34	55.3
342.552	47.1
342.764	104.45
342.977	-16.38
343.189	-8.19
343.401	79.87
343.613	-16.38
343.826	-16.38
344.038	-16.38
344.25	18.43
344.462	102.4
344.674	36.86
344.886	100.35
345.099	98.3
345.311	53.25
345.523	-90.11
345.735	-67.58
345.947	106.49
346.159	-49.15
346.371	43.01
346.583	43.01
346.795	241.66
347.007	0
347.219	133.12
347.431	47.1
347.643	92.16
347.855	-24.58
348.067	79.87
348.279	-81.92
348.491	-30.72
348.703	102.4
348.915	30.72
349.127	14.34
349.339	104.45
349.551	32.77
349.763	169.98
349.975	124.93
350.187	112.64
350.399	90.11
350.61	34.82
350.822	-2.05
351.034	47.1
351.246	36.86
351.458	77.82
351.669	26.62
351.881	14.34
352.093	151.55
352.305	88.06
352.517	92.16
352.728	32.77
352.94	32.77
353.152	94.21
353.363	-14.34
353.575	120.83
353.787	141.31
353.999	40.96
354.21	88.06
354.422	16.38
354.633	-24.58
354.845	20.48
355.057	14.34
355.268	77.82
355.48	104.45
355.692	-22.53
355.903	135.17
356.115	2.05
356.326	-108.54
356.538	61.44
356.749	73.73
356.961	178.17
357.172	145.41
357.384	2.05
357.595	212.99
357.807	-61.44
358.018	-49.15
358.23	26.62
358.441	88.06
358.653	30.72
358.864	18.43
359.075	24.58
359.287	30.72
359.498	106.49
359.709	59.39
359.921	30.72
360.132	51.2
360.344	14.34
360.555	-51.2
360.766	43.01
360.977	12.29
361.189	145.41
361.4	36.86
361.611	83.97
361.823	81.92
362.034	108.54
362.245	-32.77
362.456	34.82
362.667	61.44
362.879	-28.67
363.09	169.98
363.301	118.78
363.512	6.14
363.723	-20.48
363.935	88.06
364.146	122.88
364.357	18.43
364.568	53.25
364.779	-47.1
364.99	81.92
365.201	-24.58
365.412	135.17
365.623	-6.14
365.834	12.29
366.045	-16.38
366.256	75.77
366.467	114.69
366.678	-8.19
366.889	26.62
367.1	-18.43
367.311	79.87
367.522	24.58
367.733	59.39
367.944	65.54
368.155	0
368.366	75.77
368.577	86.01
368.788	124.93
368.999	4.1
369.209	63.49
369.42	157.69
369.631	204.8
369.842	55.3
370.053	-10.24
370.264	4.1
370.474	-77.82
370.685	59.39
370.896	-30.72
371.107	120.83
371.317	53.25
371.528	-30.72
371.739	147.45
371.95	28.67
372.16	61.44
372.371	-49.15
372.582	-4.1
372.792	59.39
373.003	110.59
373.214	75.77
373.424	53.25
373.635	-38.91
373.846	112.64
374.056	71.68
374.267	30.72
374.477	65.54
374.688	-36.86
374.898	34.82
375.109	43.01
375.319	28.67
375.53	165.89
375.74	86.01
375.951	-45.06
376.161	12.29
376.372	143.36
376.582	45.06
376.793	0
377.003	-2.05
377.214	18.43
377.424	157.69
377.635	16.38
377.845	-22.53
378.055	131.07
378.266	-12.29
378.476	-18.43
378.686	22.53
378.897	34.82
379.107	98.3
379.317	86.01
379.528	10.24
379.738	73.73
379.948	4.1
380.158	120.83
380.369	43.01
380.579	83.97
380.789	6.14
380.999	81.92
381.21	108.54
381.42	176.13
381.63	-2.05
381.84	83.97
382.05	77.82
382.261	124.93
382.471	137.21
382.681	-8.19
382.891	192.51
383.101	59.39
383.311	22.53
383.521	-59.39
383.731	55.3
383.941	124.93
384.151	59.39
384.361	61.44
384.571	86.01
384.781	77.82
384.991	151.55
385.201	141.31
385.411	24.58
385.621	69.63
385.831	53.25
386.041	34.82
386.251	43.01
386.461	55.3
386.671	32.77
386.881	157.69
387.091	8.19
387.301	104.45
387.511	18.43
387.72	120.83
387.93	151.55
388.14	-55.3
388.35	22.53
388.56	104.45
388.769	149.5
388.979	26.62
389.189	-20.48
389.399	-6.14
389.609	12.29
389.818	135.17
390.028	30.72
390.238	112.64
390.447	10.24
390.657	108.54
390.867	-36.86
391.076	-14.34
391.286	53.25
391.496	61.44
391.705	-34.82
391.915	147.45
392.125	83.97
392.334	12.29
392.544	75.77
392.753	-8.19
392.963	-12.29
393.172	14.34
393.382	-71.68
393.591	151.55
393.801	-43.01
394.01	116.73
394.22	69.63
394.429	47.1
394.639	-24.58
394.848	126.97
395.058	16.38
395.267	34.82
395.477	69.63
395.686	65.54
395.895	180.22
396.105	167.93
396.314	45.06
396.524	-22.53
396.733	61.44
396.942	98.3
397.152	47.1
397.361	120.83
397.57	67.58
397.78	45.06
397.989	73.73
398.198	210.94
398.407	26.62
398.617	69.63
398.826	79.87
399.035	-67.58
399.244	59.39
399.453	79.87
399.663	49.15
399.872	65.54
400.081	-86.01
400.29	204.8
400.499	-49.15
400.708	104.45
400.917	14.34
401.127	-8.19
401.336	0
401.545	210.94
401.754	135.17
401.963	98.3
402.172	-34.82
402.381	-90.11
402.59	45.06
402.799	114.69
403.008	6.14
403.217	28.67
403.426	108.54
403.635	-67.58
403.844	53.25
404.053	59.39
404.262	88.06
404.471	147.45
404.68	30.72
404.888	30.72
405.097	45.06
405.306	43.01
405.515	69.63
405.724	6.14
405.933	188.41
406.142	57.34
406.35	53.25
406.559	49.15
406.768	55.3
406.977	141.31
407.185	100.35
407.394	57.34
407.603	-10.24
407.812	45.06
408.02	81.92
408.229	49.15
408.438	73.73
408.646	-6.14
408.855	2.05
409.064	22.53
409.272	53.25
409.481	143.36
409.69	-4.1
409.898	-8.19
410.107	98.3
410.315	116.73
410.524	-4.1
410.733	38.91
410.941	63.49
411.15	102.4
411.358	88.06
411.567	118.78
411.775	8.19
411.984	-36.86
412.192	116.73
412.401	30.72
412.609	147.45
412.818	178.17
413.026	43.01
413.234	16.38
413.443	40.96
413.651	32.77
413.86	55.3
414.068	161.79
414.276	188.41
414.485	8.19
414.693	217.08
414.901	172.03
415.11	110.59
415.318	-18.43
415.526	18.43
415.734	133.12
415.943	65.54
416.151	88.06
416.359	20.48
416.567	34.82
416.776	102.4
416.984	169.98
417.192	182.27
417.4	22.53
417.608	24.58
417.817	-55.3
418.025	67.58
418.233	184.32
418.441	10.24
418.649	-8.19
418.857	102.4
419.065	98.3
419.273	59.39
419.481	55.3
419.689	118.78
419.897	-45.06
420.105	45.06
420.313	112.64
420.521	83.97
420.729	151.55
420.937	-40.96
421.145	-2.05
421.353	83.97
421.561	192.51
421.769	61.44
421.977	108.54
422.185	102.4
422.393	69.63
422.601	108.54
422.809	86.01
423.017	96.25
423.224	32.77
423.432	112.64
423.64	77.82
423.848	108.54
424.056	53.25
424.263	110.59
424.471	16.38
424.679	157.69
424.887	8.19
425.094	198.65
425.302	65.54
425.51	73.73
425.718	163.84
425.925	24.58
426.133	24.58
426.341	268.28
426.548	137.21
426.756	45.06
426.964	135.17
427.171	38.91
427.379	102.4
427.586	75.77
427.794	161.79
428.001	124.93
428.209	114.69
428.417	143.36
428.624	81.92
428.832	102.4
429.039	149.5
429.247	92.16
429.454	32.77
429.662	264.19
429.869	86.01
430.076	124.93
430.284	88.06
430.491	270.33
430.699	192.51
430.906	268.28
431.114	161.79
431.321	67.58
431.528	210.94
431.736	188.41
431.943	239.61
432.15	243.71
432.358	219.13
432.565	305.15
432.772	-2.05
432.979	272.38
433.187	215.04
433.394	235.52
433.601	192.51
433.808	276.48
434.016	358.39
434.223	368.63
434.43	274.43
434.637	229.37
434.844	378.87
435.052	286.72
435.259	348.15
435.466	354.3
435.673	354.3
435.88	368.63
436.087	432.12
436.294	401.4
436.501	335.87
436.708	313.34
436.915	387.07
437.122	485.37
437.329	342.01
437.537	378.87
437.743	432.12
437.95	511.99
438.157	487.42
438.364	419.83
438.571	516.09
438.778	567.29
438.985	491.51
439.192	600.05
439.399	546.81
439.606	577.53
439.813	567.29
440.02	759.8
440.227	802.8
440.433	675.83
440.64	661.49
440.847	686.07
441.054	739.32
441.261	870.39
441.467	819.19
441.674	741.36
441.881	849.91
442.088	831.48
442.294	874.48
442.501	997.36
442.708	956.4
442.914	1023.98
443.121	1091.57
443.328	1079.28
443.534	1150.96
443.741	1234.93
443.948	983.02
444.154	1198.06
444.361	1413.1
444.568	1265.64
444.774	1294.32
444.981	1232.88
445.187	1484.78
445.394	1574.89
445.6	1423.34
445.807	1728.49
446.013	1609.7
446.22	1505.26
446.426	1863.65
446.633	1873.89
446.839	2002.91
447.046	1853.41
447.252	1980.39
447.459	2105.31
447.665	2156.51
447.871	2285.53
448.078	2471.9
448.284	2367.45
448.491	2578.39
448.697	2635.74
448.903	2762.71
449.11	2770.9
449.316	2807.77
449.522	3112.91
449.728	3069.91
449.935	3235.79
450.141	3190.74
450.347	3598.28
450.553	3323.85
450.76	3499.98
450.966	3741.64
451.172	3925.96
451.378	3968.96
451.584	4054.98
451.791	4407.23
451.997	4530.11
452.203	4704.18
452.409	4972.47
452.615	5138.35
452.821	4849.59
453.027	4935.6
453.233	5601.19
453.44	5347.25
453.646	5625.77
453.852	6000.55
454.058	6170.53
454.264	6377.37
454.47	6946.71
454.676	6868.89
454.882	7567.24
455.088	6995.86
455.294	7638.92
455.5	8083.33
455.705	8511.36
455.911	8388.48
456.117	8632.19
456.323	8951.67
456.529	8990.58
456.735	9797.48
456.941	10104.68
457.147	10407.78
457.352	10577.76
457.558	11083.61
457.764	11939.66
457.97	12224.33
458.176	12494.66
458.381	13023.03
458.587	13389.62
458.793	13995.82
458.999	14118.7
459.204	15841.04
459.41	16396.04
459.616	16131.85
459.821	17174.27
460.027	17585.91
460.233	18427.62
460.438	18611.94
460.644	19769.04
460.85	20084.43
461.055	20704.96
461.261	21608.12
461.466	21497.53
461.672	21708.47
461.878	24487.56
462.083	23975.57
462.289	24665.74
462.494	25509.5
462.7	25685.62
462.905	26064.5
463.111	28188.24
463.316	29496.89
463.522	29875.77
463.727	30785.07
463.932	32355.86
464.138	33308.16
464.343	34412.02
464.549	34647.54
464.754	36984.27
464.959	38309.3
465.165	38487.48
465.37	38653.36
465.575	38055.36
465.781	40687
465.986	41633.16
466.191	41614.72
466.397	41905.54
466.602	40787.35
466.807	43335.02
467.012	43955.55
467.218	44815.7
467.423	44729.69
467.628	46142.78
467.833	48735.51
468.038	47535.4
468.244	46437.69
468.449	48514.33
468.654	47846.69
468.859	47953.19
469.064	47740.2
469.269	46951.73
469.474	47328.56
469.679	48805.14
469.885	47256.88
470.09	47551.79
470.295	47910.18
470.5	47000.88
470.705	47410.48
470.91	45827.4
471.115	45653.32
471.32	46576.95
471.525	46071.1
471.73	45079.89
471.935	44791.12
472.139	42906.99
472.344	43210.09
472.549	42720.63
472.754	41940.35
472.959	41153.93
473.164	39720.35
473.369	39423.4
473.574	40240.54
473.778	39560.61
473.983	38692.27
474.188	37840.32
474.393	36330.97
474.598	36150.74
474.802	35499.49
475.007	34823.66
475.212	34467.31
475.417	33199.62
475.621	32642.57
475.826	32628.24
476.031	32024.09
476.235	31415.84
476.44	31198.76
476.645	30152.24
476.849	30121.52
477.054	29787.71
477.259	28890.7
477.463	28739.15
477.668	28063.32
477.872	28018.26
478.077	27248.22
478.282	26502.76
478.486	26480.24
478.691	25863.8
478.895	25894.52
479.1	25572.99
479.304	25468.54
479.509	24647.3
479.713	24780.42
479.918	24409.74
480.122	23701.14
480.326	23910.04
480.531	24041.11
480.735	23557.78
480.94	23223.97
481.144	23914.13
481.348	23017.12
481.553	23031.46
481.757	22419.11
481.961	22537.9
482.166	22617.77
482.37	22275.76
482.574	21806.77
482.778	21868.21
482.983	22159.02
483.187	21677.75
483.391	21694.13
483.595	21149.37
483.8	21155.52
484.004	21055.17
484.208	20946.62
484.412	20788.93
484.616	20432.58
484.821	20203.21
485.025	19699.41
485.229	19820.24
485.433	19128.03
485.637	19142.36
485.841	18777.83
486.045	18546.4
486.249	18398.95
486.453	18153.19
486.657	17848.05
486.861	17723.12
487.065	16850.69
487.269	16969.47
487.473	16445.19
487.677	16664.32
487.881	16621.31
488.085	15761.17
488.289	15728.4
488.493	15134.49
488.697	15359.77
488.901	14935.84
489.105	14366.5
489.309	14438.18
489.512	14276.39
489.716	13848.36
489.92	13582.13
490.124	13293.37
490.328	13563.7
490.531	12863.29
490.735	12838.72
490.939	12642.11
491.143	12318.53
491.346	12076.87
491.55	11933.51
491.754	11732.81
491.958	11620.17
492.161	10915.67
492.365	11208.53
492.569	10710.88
492.772	10723.16
492.976	10559.33
493.18	10454.88
493.383	10278.76
493.587	10340.19
493.79	10147.69
493.994	9901.93
494.197	9920.36
494.401	9707.37
494.605	9396.08
494.808	9559.92
495.012	9254.77
495.215	9402.22
495.419	9197.43
495.622	9111.41
495.825	9078.65
496.029	9027.45
496.232	9092.98
496.436	8808.31
496.639	9009.01
496.843	8906.62
497.046	8810.36
497.249	9111.41
497.453	8740.73
497.656	8814.46
497.859	8877.94
498.063	8781.69
498.266	8750.97
498.469	8570.75
498.673	8863.61
498.876	8759.16
499.079	8900.47
499.282	8800.12
499.485	9195.38
499.689	9125.75
499.892	9109.36
500.095	8957.82
500.298	9088.89
500.501	9095.03
500.705	9101.17
500.908	9170.8
501.111	9150.32
501.314	9404.27
501.517	9572.21
501.72	9346.93
501.923	9576.3
502.126	9582.45
502.329	9746.28
502.532	9787.24
502.735	9914.22
502.938	10241.89
503.141	10280.8
503.344	10209.12
503.547	10301.28
503.75	10313.57
503.953	10497.89
504.156	10649.44
504.359	10719.07
504.562	10901.34
504.765	11149.14
504.968	11323.22
505.17	11474.77
505.373	11474.77
505.576	11755.34
505.779	12007.24
505.982	11771.72
506.185	12404.55
506.387	12341.06
506.59	12697.41
506.793	12660.54
506.996	12853.05
507.198	13414.2
507.401	13342.52
507.604	13612.85
507.807	13997.87
508.009	14173.99
508.212	14434.08
508.415	14628.64
508.617	14851.87
508.82	15093.53
509.022	15152.92
509.225	15767.31
509.428	16041.74
509.63	16291.59
509.833	16815.87
510.035	17176.31
510.238	17395.45
510.44	17712.88
510.643	18128.62
510.845	18591.46
511.048	18829.02
511.25	19101.4
511.453	19320.54
511.655	20090.57
511.858	20528.84
512.06	21022.4
512.262	21288.64
512.465	21788.34
512.667	22130.35
512.87	22697.64
513.072	23258.78
513.274	23801.49
513.477	24411.79
513.679	24802.95
513.881	25491.07
514.084	26101.36
514.286	26406.51
514.488	26736.23
514.69	27731.54
514.893	28261.97
515.095	28673.61
515.297	29216.32
515.499	29748.79
515.701	30643.76
515.904	31202.85
516.106	31817.24
516.308	32192.02
516.51	32904.71
516.712	33330.69
516.914	34366.96
517.116	34964.97
517.318	35440.1
517.52	35988.95
517.722	36603.35
517.925	37418.44
518.127	38032.83
518.329	38854.06
518.531	38905.26
518.733	39902.62
518.935	40572.31
519.136	41049.49
519.338	41809.28
519.54	42493.3
519.742	42956.14
519.944	43482.47
520.146	44528.98
520.348	44684.63
520.55	45380.94
520.752	45512.01
520.954	46546.23
521.155	46462.27
521.357	47422.76
521.559	47641.9
521.761	48844.05
521.963	48465.18
522.164	49100.05
522.366	49278.22
522.568	49882.37
522.77	50054.4
522.971	51031.29
523.173	50926.84
523.375	51309.81
523.576	51651.82
523.778	51750.12
523.98	52288.74
524.181	52667.61
524.383	52737.24
524.584	52622.56
524.786	52550.88
524.988	52397.28
525.189	52970.71
525.391	53462.22
525.592	53255.38
525.794	53101.78
525.995	53492.94
526.197	52905.18
526.398	53036.25
526.6	52980.95
526.801	52747.48
527.003	53085.4
527.204	52747.48
527.406	52761.82
527.607	52010.21
527.808	52073.7
528.01	50838.78
528.211	51297.52
528.412	51737.83
528.614	50750.71
528.815	50611.45
529.016	50961.65
529.218	49909
529.419	49943.81
529.62	49001.75
529.822	48153.89
530.023	48299.29
530.224	48117.03
530.425	47729.96
530.626	46374.2
530.828	46015.81
531.029	46892.34
531.23	45593.93
531.431	44776.79
531.632	44627.29
531.833	44209.5
532.035	43840.87
532.236	43177.33
532.437	42765.68
532.638	41926.02
532.839	41366.92
533.04	41395.59
533.241	40596.88
533.442	40920.46
533.643	39470.5
533.844	38852.02
534.045	39255.46
534.246	38143.42
534.447	37617.09
534.648	36832.72
534.849	36775.37
535.05	36056.54
535.251	35612.13
535.451	34926.06
535.652	34864.62
535.853	34098.68
536.054	33869.31
536.255	33476.1
536.456	32771.6
536.657	32714.25
536.857	32099.86
537.058	31454.75
537.259	31247.91
537.46	31012.39
537.66	30072.37
537.861	29976.12
538.062	29759.03
538.263	29077.06
538.463	28997.19
538.664	28360.27
538.865	28216.91
539.065	27797.08
539.266	27246.18
539.466	27330.14
539.667	26453.61
539.868	26789.48
540.068	26220.14
540.269	25777.78
540.469	25310.85
540.67	25032.32
540.87	24725.13
541.071	24667.78
541.271	24299.15
541.472	24309.39
541.672	23891.6
541.873	23398.04
542.073	23117.47
542.274	22939.3
542.474	22906.53
542.675	22199.98
542.875	22406.83
543.075	21982.9
543.276	21417.66
543.476	21610.17
543.676	21155.52
543.877	20932.29
544.077	21042.88
544.277	20723.4
544.478	20244.17
544.678	19990.22
544.878	20039.37
545.078	19754.71
545.279	19361.5
545.479	18962.14
545.679	19146.46
545.879	18831.07
546.079	18474.73
546.28	18421.48
546.48	17819.38
546.68	18079.47
546.88	17741.55
547.08	17387.25
547.28	17364.73
547.48	16977.66
547.68	16836.35
547.88	16506.63
548.081	16740.1
548.281	16101.13
548.481	15992.59
548.681	15990.54
548.881	15638.29
549.081	15525.65
549.28	15277.85
549.48	14937.88
549.68	14937.88
549.88	14636.83
550.08	14364.45
550.28	14382.88
550.48	14112.55
550.68	13961
550.88	13760.3
551.08	13401.91
551.279	13373.24
551.479	12947.26
551.679	12834.62
551.879	12695.36
552.079	12642.11
552.278	12285.76
552.478	12132.17
552.678	12240.71
552.878	11958.09
553.077	11597.65
553.277	11431.76
553.477	11310.93
553.676	11018.07
553.876	10954.58
554.076	10600.29
554.275	10610.53
554.475	10305.38
554.674	10497.89
554.874	10202.98
555.074	10028.9
555.273	9836.39
555.473	9930.6
555.672	9482.1
555.872	9338.74
556.071	9238.39
556.271	9322.35
556.47	9006.97
556.67	8730.49
556.869	8572.8
557.068	8523.65
557.268	8337.28
557.467	8265.6
557.667	8230.79
557.866	8062.85
558.065	7815.05
558.265	7581.58
558.464	7514
558.663	7415.69
558.863	7280.53
559.062	7235.47
559.261	6997.91
559.461	7110.55
559.66	6829.98
559.859	6612.89
560.058	6633.37
560.258	6344.61
560.457	6451.1
560.656	6582.17
560.855	6231.97
561.054	6125.47
561.253	6053.8
561.453	5920.68
561.652	5838.76
561.851	5984.16
562.05	5511.08
562.249	5558.19
562.448	5545.9
562.647	5431.21
562.846	5365.68
563.045	5269.42
563.244	5111.73
563.443	5164.98
563.642	5177.27
563.841	4888.5
564.04	4874.17
564.239	4849.59
564.438	4820.92
564.637	4640.7
564.836	4538.3
565.035	4646.84
565.234	4495.29
565.432	4493.24
565.631	4337.6
565.83	4315.07
566.029	4278.21
566.228	4077.51
566.427	4093.89
566.625	3866.57
566.824	4200.38
567.023	3856.33
567.222	3858.37
567.42	3841.99
567.619	3702.73
567.818	3690.44
568.016	3948.48
568.215	3612.62
568.414	3604.43
568.612	3499.98
568.811	3563.47
569.01	3467.21
569.208	3319.76
569.407	3342.28
569.605	3330
569.804	3258.32
570.002	3227.6
570.201	3143.63
570.4	3172.3
570.598	3022.8
570.797	3039.19
570.995	2969.55
571.193	2912.21
571.392	2832.34
571.59	2637.78
571.789	2758.61
571.987	2856.92
572.186	2844.63
572.384	2648.02
572.582	2639.83
572.781	2676.7
572.979	2351.07
573.177	2371.55
573.376	2377.69
573.574	2416.6
573.772	2394.08
573.971	2213.85
574.169	2170.85
574.367	2344.92
574.565	2174.94
574.763	2193.37
574.962	2201.57
575.16	2187.23
575.358	2099.17
575.556	2093.02
575.754	2058.21
575.952	1925.09
576.151	2037.73
576.349	1984.48
576.547	1841.12
576.745	1886.18
576.943	1947.62
577.141	1785.83
577.339	1804.26
577.537	1720.29
577.735	1828.84
577.933	1804.26
578.131	1624.04
578.329	1834.98
578.527	1640.42
578.725	1624.04
578.923	1601.51
579.121	1605.61
579.319	1439.72
579.516	1468.39
579.714	1775.59
579.912	1535.98
580.11	1402.86
580.308	1374.19
580.506	1421.29
580.704	1163.25
580.901	1214.45
581.099	1454.06
581.297	1353.71
581.495	1370.09
581.692	1253.36
581.89	1409
582.088	1243.12
582.285	1273.84
582.483	1259.5
582.681	1269.74
582.878	1107.95
583.076	1153.01
583.274	1110
583.471	1257.45
583.669	1177.58
583.866	1046.51
584.064	1107.95
584.262	1011.7
584.459	1038.32
584.657	1021.94
584.854	1009.65
585.052	991.22
585.249	1077.23
585.447	1011.7
585.644	927.73
585.841	1015.79
586.039	989.17
586.236	1087.47
586.434	892.91
586.631	872.43
586.828	856.05
587.026	892.91
587.223	854
587.42	843.76
587.618	909.3
587.815	964.59
588.012	815.09
588.21	733.17
588.407	915.44
588.604	905.2
588.801	722.93
588.999	796.66
589.196	878.58
589.393	698.36
589.59	868.34
589.787	823.28
589.984	819.19
590.182	755.7
590.379	731.12
590.576	757.75
590.773	722.93
590.97	778.23
591.167	770.04
591.364	722.93
591.561	733.17
591.758	808.95
591.955	837.62
592.152	679.93
592.349	616.44
592.546	602.1
592.743	694.26
592.94	751.6
593.137	671.73
593.334	868.34
593.531	628.73
593.727	792.56
593.924	790.52
594.121	761.84
594.318	710.65
594.515	716.79
594.712	933.87
594.908	802.8
595.105	657.4
595.302	798.71
595.499	778.23
595.696	829.43
595.892	712.69
596.089	995.31
596.286	880.63
596.482	915.44
596.679	923.63
596.876	772.08
597.072	874.48
597.269	954.35
597.466	958.45
597.662	909.3
597.859	1073.14
598.055	1054.7
598.252	1093.62
598.448	1085.42
598.645	1093.62
598.841	1228.78
599.038	1308.65
599.234	1279.98
599.431	1388.52
599.627	1351.66
599.824	1376.23
600.02	1413.1
600.217	1523.69
600.413	1554.41
600.609	1624.04
600.806	1863.65
601.002	1785.83
601.198	1769.44
601.395	1941.47
601.591	1857.51
601.787	2050.02
601.984	2238.43
602.18	2146.27
602.376	2211.81
602.572	2353.12
602.769	2389.98
602.965	2562.01
603.161	2682.84
603.357	2844.63
603.553	2748.37
603.75	2820.05
603.946	2871.25
604.142	3051.47
604.338	3264.46
604.534	3137.49
604.73	3362.76
604.926	3518.41
605.122	3579.85
605.318	3721.16
605.514	3948.48
605.71	3925.96
605.906	4130.75
606.102	4216.77
606.298	4356.03
606.494	4562.87
606.69	4564.92
606.886	4609.98
607.082	4693.94
607.278	5040.05
607.474	5199.79
607.67	5414.83
607.866	5277.62
608.062	5695.4
608.257	5576.62
608.453	5719.98
608.649	5988.26
608.845	6047.65
609.041	6352.8
609.236	6535.07
609.432	6756.25
609.628	7008.15
609.824	7067.54
610.019	7258
610.215	7364.5
610.411	7716.75
610.606	7946.12
610.802	7866.25
610.998	8185.73
611.193	8564.61
611.389	8662.91
611.584	8925.05
611.78	9041.78
611.976	9305.97
612.171	9883.5
612.367	10004.33
612.562	9989.99
612.758	10188.64
612.953	10588
613.149	10923.87
613.344	11249.49
613.539	11323.22
613.735	11577.17
613.93	12115.78
614.126	12365.64
614.321	12861.24
614.517	13256.5
614.712	13567.79
614.907	13727.53
615.103	14354.21
615.298	14354.21
615.493	14667.55
615.688	14944.03
615.884	15650.58
616.079	15759.12
616.274	16475.91
616.47	16674.56
616.665	17245.94
616.86	17422.07
617.055	18003.69
617.25	18241.26
617.445	18976.48
617.641	19277.53
617.836	19594.97
618.031	19920.59
618.226	20893.38
618.421	21147.33
618.616	21749.43
618.811	22038.19
619.006	23017.12
619.201	23158.43
619.396	23834.26
619.591	24114.83
619.786	25024.13
619.981	25302.65
620.176	26259.06
620.371	26021.49
620.566	26981.99
620.761	27600.47
620.956	28233.3
621.151	28563.02
621.346	29498.94
621.541	29396.54
621.735	30443.06
621.93	30217.78
622.125	31088.17
622.32	31342.11
622.515	32359.95
622.709	32984.58
622.904	33676.8
623.099	33953.27
623.294	34909.68
623.488	35280.36
623.683	35761.63
623.878	36236.76
624.072	37119.43
624.267	37653.95
624.462	38211
624.656	38280.63
624.851	39290.28
625.046	39572.9
625.24	40349.08
625.435	41110.92
625.629	41207.18
625.824	41780.61
626.018	42425.72
626.213	42358.14
626.407	43531.62
626.602	43210.09
626.796	44494.17
626.991	44422.49
627.185	45012.31
627.38	45268.3
627.574	45321.55
627.768	45632.84
627.963	45845.83
628.157	46161.22
628.352	46509.37
628.546	45741.38
628.74	46427.45
628.935	46320.96
629.129	46320.96
629.323	45598.02
629.517	45911.36
629.712	45522.25
629.906	45796.68
630.1	44658.01
630.294	44766.55
630.489	43894.11
630.683	43922.79
630.877	42333.56
631.071	42182.01
631.265	41766.27
631.459	40744.34
631.653	39896.48
631.848	39296.42
632.042	37649.86
632.236	37653.95
632.43	36382.16
632.624	35831.26
632.818	34223.61
633.012	33447.43
633.206	32699.92
633.4	31256.1
633.594	30045.75
633.788	29482.56
633.982	28423.76
634.176	27278.94
634.369	25970.29
634.563	25593.47
634.757	24143.5
634.951	23881.36
635.145	22967.97
635.339	21894.83
635.533	20807.36
635.726	20012.75
635.92	18947.81
636.114	18333.42
636.308	17463.03
636.501	16969.47
636.695	16387.85
636.889	15656.72
637.083	14939.93
637.276	14423.84
637.47	13819.69
637.664	13276.98
637.857	12767.04
638.051	12212.04
638.244	11755.34
638.438	11054.94
638.632	10940.25
638.825	10219.36
639.019	9930.6
639.212	9541.49
639.406	9322.35
639.599	8679.29
639.793	8447.87
639.986	8109.96
640.18	8109.96
640.373	7430.03
640.567	7214.99
640.76	6936.47
640.954	6842.26
641.147	6381.47
641.34	6238.11
641.534	5994.4
641.727	5889.96
641.92	5619.63
642.114	5425.07
642.307	5177.27
642.5	4972.47
642.694	4546.49
642.887	4442.04
643.08	4612.03
643.273	4317.12
643.467	4161.47
643.66	3805.13
643.853	3674.06
644.046	3649.48
644.239	3622.86
644.432	3264.46
644.626	3182.54
644.819	3078.1
645.012	2975.7
645.205	3024.85
645.398	2914.26
645.591	2703.32
645.784	2566.1
645.977	2432.99
646.17	2267.1
646.363	2228.19
646.556	2144.22
646.749	2146.27
646.942	2105.31
647.135	2068.45
647.328	1884.13
647.521	1859.56
647.714	1746.92
647.907	1757.16
648.099	1511.4
648.292	1652.71
648.485	1552.36
648.678	1427.43
648.871	1380.33
649.064	1388.52
649.256	1267.69
649.449	1191.92
649.642	1095.66
649.835	1169.39
650.027	1124.33
650.22	1200.11
650.413	1028.08
650.605	1011.7
650.798	897.01
650.991	929.78
651.183	980.98
651.376	933.87
651.568	954.35
651.761	718.84
651.954	796.66
652.146	681.97
652.339	841.72
652.531	790.52
652.724	663.54
652.916	555
653.109	559.1
653.301	620.53
653.494	624.63
653.686	595.96
653.879	714.74
654.071	567.29
654.263	657.4
654.456	538.62
654.648	577.53
654.84	526.33
655.033	440.31
655.225	577.53
655.417	380.92
655.61	530.42
655.802	511.99
655.994	536.57
656.186	368.63
656.379	501.75
656.571	319.48
656.763	317.44
656.955	329.72
657.148	368.63
657.34	391.16
657.532	409.59
657.724	321.53
657.916	256
658.108	385.02
658.3	352.25
658.492	407.55
658.684	290.81
658.876	389.11
659.068	186.37
659.26	184.32
659.452	227.32
659.644	286.72
659.836	428.03
660.028	299
660.22	239.61
660.412	286.72
660.604	165.89
660.796	165.89
660.988	290.81
661.18	245.76
661.372	225.28
661.563	266.24
661.755	278.52
661.947	118.78
662.139	155.65
662.331	221.18
662.522	217.08
662.714	194.56
662.906	237.56
663.097	266.24
663.289	153.6
663.481	88.06
663.673	231.42
663.864	122.88
664.056	206.84
664.247	151.55
664.439	272.38
664.631	196.61
664.822	167.93
665.014	88.06
665.205	120.83
665.397	180.22
665.588	186.37
665.78	147.45
665.971	264.19
666.163	79.87
666.354	219.13
666.546	49.15
666.737	143.36
666.929	88.06
667.12	122.88
667.311	229.37
667.503	131.07
667.694	135.17
667.885	180.22
668.077	290.81
668.268	49.15
668.459	122.88
668.651	174.08
668.842	131.07
669.033	75.77
669.224	-28.67
669.416	280.57
669.607	47.1
669.798	-36.86
669.989	247.8
670.18	53.25
670.371	153.6
670.563	57.34
670.754	198.65
670.945	165.89
671.136	141.31
671.327	43.01
671.518	219.13
671.709	198.65
671.9	149.5
672.091	167.93
672.282	149.5
672.473	135.17
672.664	77.82
672.855	126.97
673.046	120.83
673.237	149.5
673.428	153.6
673.619	43.01
673.809	192.51
674	227.32
674.191	196.61
674.382	122.88
674.573	30.72
674.764	94.21
674.954	262.14
675.145	61.44
675.336	94.21
675.527	122.88
675.717	135.17
675.908	143.36
676.099	67.58
676.289	106.49
676.48	-22.53
676.671	182.27
676.861	108.54
677.052	163.84
677.243	49.15
677.433	75.77
677.624	131.07
677.814	178.17
678.005	131.07
678.195	278.52
678.386	90.11
678.576	38.91
678.767	69.63
678.957	98.3
679.148	143.36
679.338	155.65
679.529	206.84
679.719	167.93
679.909	239.61
680.1	245.76
680.29	202.75
680.481	165.89
680.671	190.46
680.861	206.84
681.052	192.51
681.242	106.49
681.432	149.5
681.622	135.17
681.813	20.48
682.003	210.94
682.193	73.73
682.383	124.93
682.573	141.31
682.764	53.25
682.954	139.26
683.144	188.41
683.334	104.45
683.524	178.17
683.714	186.37
683.904	151.55
684.094	94.21
684.284	153.6
684.474	268.28
684.664	165.89
684.854	272.38
685.044	159.74
685.234	124.93
685.424	192.51
685.614	108.54
685.804	215.04
685.994	147.45
686.184	139.26
686.374	192.51
686.564	143.36
686.753	124.93
686.943	81.92
687.133	90.11
687.323	219.13
687.513	227.32
687.702	208.89
687.892	188.41
688.082	206.84
688.272	196.61
688.461	96.25
688.651	274.43
688.841	274.43
689.03	108.54
689.22	55.3
689.41	184.32
689.599	83.97
689.789	92.16
689.979	284.67
690.168	141.31
690.358	219.13
690.547	112.64
690.737	139.26
690.926	188.41
691.116	161.79
691.305	208.89
691.495	165.89
691.684	69.63
691.874	169.98
692.063	149.5
692.252	188.41
692.442	229.37
692.631	18.43
692.82	200.7
693.01	131.07
693.199	129.02
693.388	217.08
693.578	208.89
693.767	313.34
693.956	172.03
694.146	169.98
694.335	176.13
694.524	206.84
694.713	172.03
694.902	38.91
695.092	112.64
695.281	229.37
695.47	172.03
695.659	114.69
695.848	90.11
696.037	204.8
696.226	200.7
696.415	92.16
696.604	174.08
696.793	194.56
696.982	79.87
697.171	253.95
697.36	122.88
697.549	169.98
697.738	65.54
697.927	198.65
698.116	94.21
698.305	266.24
698.494	204.8
698.683	141.31
698.872	305.15
699.061	108.54
699.25	36.86
699.438	169.98
699.627	126.97
699.816	305.15
700.005	32.77
700.193	57.34
700.382	174.08
700.571	198.65
700.76	241.66
700.948	206.84
701.137	210.94
701.326	231.42
701.514	55.3
701.703	106.49
701.892	145.41
702.08	276.48
702.269	118.78
702.457	98.3
702.646	57.34
702.834	122.88
703.023	219.13
703.212	221.18
703.4	180.22
703.589	124.93
703.777	90.11
703.965	100.35
704.154	169.98
704.342	20.48
704.531	108.54
704.719	149.5
704.907	194.56
705.096	108.54
705.284	110.59
705.472	212.99
705.661	141.31
705.849	241.66
706.037	192.51
706.226	233.47
706.414	243.71
706.602	57.34
706.79	215.04
706.979	12.29
707.167	131.07
707.355	-40.96
707.543	165.89
707.731	174.08
707.919	190.46
708.107	129.02
708.296	86.01
708.484	61.44
708.672	206.84
708.86	157.69
709.048	174.08
709.236	59.39
709.424	233.47
709.612	163.84
709.8	79.87
709.988	204.8
710.176	151.55
710.364	206.84
710.551	47.1
710.739	159.74
710.927	98.3
711.115	135.17
711.303	192.51
711.491	204.8
711.679	69.63
711.866	180.22
712.054	94.21
712.242	198.65
712.43	241.66
712.617	122.88
712.805	294.91
712.993	63.49
713.181	73.73
713.368	290.81
713.556	34.82
713.744	112.64
713.931	356.35
714.119	194.56
714.306	94.21
714.494	145.41
714.682	106.49
714.869	0
715.057	118.78
715.244	94.21
715.432	133.12
715.619	120.83
715.807	174.08
715.994	120.83
716.182	147.45
716.369	239.61
716.556	272.38
716.744	98.3
716.931	71.68
717.119	135.17
717.306	153.6
717.493	159.74
717.681	61.44
717.868	110.59
718.055	176.13
718.242	61.44
718.43	106.49
718.617	227.32
718.804	131.07
718.991	247.8
719.179	155.65
719.366	245.76
719.553	165.89
719.74	108.54
719.927	165.89
720.114	204.8
720.301	149.5
720.488	122.88
720.676	133.12
720.863	270.33
721.05	303.1
721.237	231.42
721.424	219.13
721.611	151.55
721.798	67.58
721.985	151.55
722.172	210.94
722.358	186.37
722.545	229.37
722.732	202.75
722.919	221.18
723.106	206.84
723.293	149.5
723.48	210.94
723.667	165.89
723.853	266.24
724.04	274.43
724.227	233.47
724.414	167.93
724.6	167.93
724.787	305.15
724.974	342.01
725.161	180.22
725.347	32.77
725.534	200.7
725.72	188.41
725.907	327.67
726.094	206.84
726.28	192.51
726.467	217.08
726.653	225.28
726.84	282.62
727.027	364.54
727.213	180.22
727.4	249.85
727.586	212.99
727.773	219.13
727.959	163.84
728.145	286.72
728.332	133.12
728.518	161.79
728.705	249.85
728.891	262.14
729.077	206.84
729.264	135.17
729.45	167.93
729.636	290.81
729.823	276.48
730.009	274.43
730.195	237.56
730.382	348.15
730.568	131.07
730.754	157.69
730.94	186.37
731.126	276.48
731.313	256
731.499	243.71
731.685	286.72
731.871	274.43
732.057	215.04
732.243	217.08
732.429	284.67
732.615	274.43
732.801	235.52
732.987	196.61
733.173	323.58
733.359	122.88
733.545	292.86
733.731	204.8
733.917	278.52
734.103	243.71
734.289	202.75
734.475	176.13
734.661	364.54
734.847	225.28
735.033	233.47
735.219	241.66
735.404	208.89
735.59	227.32
735.776	223.23
735.962	206.84
736.148	348.15
736.333	319.48
736.519	274.43
736.705	260.09
736.89	225.28
737.076	192.51
737.262	176.13
737.447	231.42
737.633	176.13
737.819	249.85
738.004	274.43
738.19	282.62
738.375	301.05
738.561	331.77
738.747	229.37
738.932	139.26
739.118	387.07
739.303	305.15
739.489	262.14
739.674	241.66
739.859	135.17
740.045	270.33
740.23	268.28
740.416	88.06
740.601	190.46
740.786	210.94
740.972	190.46
741.157	219.13
741.342	178.17
741.528	192.51
741.713	282.62
741.898	227.32
742.084	229.37
742.269	235.52
742.454	339.96
742.639	299
742.824	217.08
743.01	339.96
743.195	358.39
743.38	305.15
743.565	299
743.75	276.48
743.935	251.9
744.12	311.29
744.305	151.55
744.49	194.56
744.675	278.52
744.86	303.1
745.045	110.59
745.23	241.66
745.415	217.08
745.6	282.62
745.785	210.94
745.97	288.76
746.155	270.33
746.34	315.39
746.525	210.94
746.71	288.76
746.895	188.41
747.079	133.12
747.264	202.75
747.449	294.91
747.634	387.07
747.819	268.28
748.003	245.76
748.188	139.26
748.373	290.81
748.557	241.66
748.742	204.8
748.927	223.23
749.111	270.33
749.296	237.56
749.481	239.61
749.665	157.69
749.85	251.9
750.034	274.43
750.219	268.28
750.404	135.17
750.588	260.09
750.773	174.08
750.957	194.56
751.141	237.56
751.326	212.99
751.51	65.54
751.695	206.84
751.879	243.71
752.064	288.76
752.248	184.32
752.432	411.64
752.617	233.47
752.801	237.56
752.985	169.98
753.17	274.43
753.354	208.89
753.538	225.28
753.722	167.93
753.907	229.37
754.091	167.93
754.275	210.94
754.459	102.4
754.643	188.41
754.828	204.8
755.012	266.24
755.196	12.29
755.38	118.78
755.564	135.17
755.748	192.51
755.932	155.65
756.116	210.94
756.3	208.89
756.484	90.11
756.668	176.13
756.852	-12.29
757.036	202.75
757.22	198.65
757.404	186.37
757.588	176.13
757.772	253.95
757.956	106.49
758.14	256
758.323	153.6
758.507	133.12
758.691	143.36
758.875	296.96
759.059	268.28
759.242	116.73
759.426	221.18
759.61	196.61
759.794	49.15
759.977	245.76
760.161	292.86
760.345	241.66
760.528	204.8
760.712	253.95
760.895	229.37
761.079	169.98
761.263	51.2
761.446	131.07
761.63	186.37
761.813	258.04
761.997	98.3
762.18	157.69
762.364	161.79
762.547	28.67
762.731	65.54
762.914	169.98
763.098	139.26
763.281	157.69
763.464	145.41
763.648	106.49
763.831	112.64
764.015	55.3
764.198	180.22
764.381	61.44
764.564	147.45
764.748	163.84
764.931	151.55
765.114	61.44
765.297	147.45
765.481	81.92
765.664	151.55
765.847	112.64
766.03	94.21
766.213	10.24
766.397	108.54
766.58	-20.48
766.763	83.97
766.946	71.68
767.129	71.68
767.312	126.97
767.495	104.45
767.678	4.1
767.861	86.01
768.044	34.82
768.227	47.1
768.41	98.3
768.593	129.02
768.776	51.2
768.959	122.88
769.142	227.32
769.324	67.58
769.507	53.25
769.69	94.21
769.873	94.21
770.056	266.24
770.239	83.97
770.421	114.69
770.604	114.69
770.787	114.69
770.97	86.01
771.152	24.58
771.335	131.07
771.518	49.15
771.7	143.36
771.883	145.41
772.066	55.3
772.248	116.73
772.431	151.55
772.613	172.03
772.796	151.55
772.978	110.59
773.161	219.13
773.343	45.06
773.526	81.92
773.708	-51.2
773.891	-63.49
774.073	118.78
774.256	36.86
774.438	151.55
774.621	34.82
774.803	143.36
774.985	94.21
775.168	75.77
775.35	36.86
775.532	92.16
775.715	96.25
775.897	59.39
776.079	16.38
776.261	65.54
776.444	-20.48
776.626	135.17
776.808	92.16
776.99	-104.45
777.173	139.26
777.355	55.3
777.537	38.91
777.719	49.15
777.901	53.25
778.083	36.86
778.265	-6.14
778.447	112.64
778.629	90.11
778.811	81.92
778.993	98.3
779.175	157.69
779.357	57.34
779.539	-28.67
779.721	-16.38
779.903	90.11
780.085	38.91
780.267	131.07
780.449	26.62
780.631	141.31
780.812	178.17
780.994	-18.43
781.176	92.16
781.358	90.11
781.54	22.53
781.721	114.69
781.903	147.45
782.085	32.77
782.267	81.92
782.448	-98.3
782.63	22.53
782.812	71.68
782.993	22.53
783.175	92.16
783.357	14.34
783.538	32.77
783.72	22.53
783.901	26.62
784.083	45.06
784.264	38.91
784.446	-71.68
784.627	-38.91
784.809	77.82
784.99	4.1
785.172	106.49
785.353	45.06
785.535	-12.29
785.716	-6.14
785.897	-38.91
786.079	108.54
786.26	51.2
786.441	45.06
786.623	-20.48
786.804	-18.43
786.985	59.39
787.167	49.15
787.348	-2.05
787.529	106.49
787.71	174.08
787.891	0
788.073	-20.48
788.254	-24.58
788.435	172.03
788.616	30.72
788.797	-75.77
788.978	18.43
789.159	-8.19
789.34	40.96
789.522	28.67
789.703	-45.06
789.884	53.25
790.065	98.3
790.246	126.97
790.427	32.77
790.607	190.46
790.788	131.07
790.969	2.05
791.15	86.01
791.331	57.34
791.512	43.01
791.693	-26.62
791.874	45.06
792.054	155.65
792.235	147.45
792.416	45.06
792.597	40.96
792.778	122.88
792.958	22.53
793.139	63.49
793.32	47.1
793.5	-47.1
793.681	114.69
793.862	61.44
794.042	8.19
794.223	-100.35
794.404	-36.86
794.584	-55.3
794.765	-24.58
794.945	55.3
795.126	67.58
795.306	104.45
795.487	22.53
795.667	-18.43
795.848	49.15
796.028	-12.29
796.209	59.39
796.389	24.58
796.57	-18.43
796.75	-22.53
796.93	24.58
797.111	32.77
797.291	16.38
797.471	79.87
797.652	22.53
797.832	-8.19
798.012	43.01
798.192	-20.48
798.373	-30.72
798.553	22.53
798.733	75.77
798.913	-51.2
799.093	8.19
799.274	26.62
799.454	53.25
799.634	65.54
799.814	106.49
799.994	12.29
800.174	47.1
800.354	65.54
800.534	-47.1
800.714	24.58
800.894	-75.77
801.074	-67.58
801.254	-69.63
801.434	28.67
801.614	-79.87
801.794	-63.49
801.974	1910.75
802.154	10.24
802.334	141.31
802.514	-22.53
802.693	8.19
802.873	-38.91
803.053	131.07
803.233	143.36
803.413	-8.19
803.592	-67.58
803.772	-59.39
803.952	20.48
804.131	-16.38
804.311	57.34
804.491	131.07
804.67	-20.48
804.85	-6.14
805.03	-20.48
805.209	34.82
805.389	16.38
805.568	4.1
805.748	-12.29
805.928	6.14
806.107	-65.53
806.287	47.1
806.466	-16.38
806.646	-67.58
806.825	18.43
807.004	20.48
807.184	83.97
807.363	-14.34
807.543	-10.24
807.722	-75.77
807.901	67.58
808.081	63.49
808.26	-22.53
808.439	2.05
808.619	-22.53
808.798	-34.82
808.977	67.58
809.156	102.4
809.336	2.05
809.515	110.59
809.694	-45.06
809.873	-47.1
810.052	20.48
810.231	104.45
810.411	16.38
810.59	71.68
810.769	2.05
810.948	86.01
811.127	-53.25
811.306	-28.67
811.485	8.19
811.664	178.17
811.843	22.53
812.022	22.53
812.201	-18.43
812.38	-8.19
812.559	57.34
812.737	83.97
812.916	-53.25
813.095	-10.24
813.274	94.21
813.453	67.58
813.632	26.62
813.811	126.97
813.989	-108.54
814.168	-67.58
814.347	-45.06
814.526	-40.96
814.704	114.69
814.883	186.37
815.062	-8.19
815.24	81.92
815.419	-81.92
815.598	96.25
815.776	-172.03
815.955	-12.29
816.133	-106.49
816.312	-24.58
816.49	-73.73
816.669	28.67
816.847	-20.48
817.026	-10.24
817.204	-12.29
817.383	6.14
817.561	-59.39
817.74	10.24
817.918	12.29
818.097	-65.53
818.275	-28.67
818.453	14.34
818.632	110.59
818.81	77.82
818.988	-8.19
819.167	-6.14
819.345	8.19
819.523	-28.67
819.701	-43.01
819.879	8.19
820.058	2.05
820.236	4.1
820.414	55.3
820.592	-53.25
820.77	-40.96
820.948	-40.96
821.127	-10.24
821.305	88.06
821.483	-59.39
821.661	90.11
821.839	-77.82
822.017	-14.34
822.195	-36.86
822.373	102.4
822.551	-28.67
822.729	8.19
822.907	-45.06
823.085	-8.19
823.262	24.58
823.44	-26.62
823.618	-47.1
823.796	26.62
823.974	-77.82
824.152	-65.53
824.329	28.67
824.507	12.29
824.685	-2.05
824.863	32.77
825.04	4.1
825.218	96.25
825.396	92.16
825.574	-24.58
825.751	-53.25
825.929	55.3
826.107	4.1
826.284	-10.24
826.462	-22.53
826.639	-30.72
826.817	-94.21
826.994	6.14
827.172	24.58
827.349	69.63
827.527	61.44
827.704	2.05
827.882	102.4
828.059	-92.16
828.237	-43.01
828.414	16.38
828.591	-55.3
828.769	22.53
828.946	-10.24
829.124	45.06
829.301	36.86
829.478	18.43
829.655	22.53
829.833	26.62
830.01	-155.65
830.187	18.43
830.364	-4.1
830.542	65.54
830.719	55.3
830.896	-2.05
831.073	26.62
831.25	4.1
831.427	26.62
831.604	-34.82
831.782	-122.88
831.959	47.1
832.136	-16.38
832.313	20.48
832.49	-61.44
832.667	110.59
832.844	-4.1
833.021	102.4
833.198	-47.1
833.374	22.53
833.551	0
833.728	8.19
833.905	32.77
834.082	-98.3
834.259	-26.62
834.436	90.11
834.612	-36.86
834.789	57.34
834.966	36.86
835.143	-26.62
835.319	-63.49
835.496	61.44
835.673	81.92
835.85	137.21
836.026	104.45
836.203	30.72
836.38	-12.29
836.556	-26.62
836.733	-4.1
836.909	100.35
837.086	-32.77
837.262	-53.25
837.439	67.58
837.616	-28.67
837.792	-30.72
837.968	0
838.145	-69.63
838.321	-2.05
838.498	-40.96
838.674	36.86
838.851	36.86
839.027	-43.01
839.203	45.06
839.38	59.39
839.556	-71.68
839.732	57.34
839.909	-55.3
840.085	-10.24
840.261	-47.1
840.437	14.34
840.614	-124.93
840.79	63.49
840.966	55.3
841.142	-28.67
841.318	-43.01
841.494	28.67
841.671	53.25
841.847	-69.63
842.023	-47.1
842.199	73.73
842.375	159.74
842.551	-104.45
842.727	-92.16
842.903	131.07
843.079	-94.21
843.255	30.72
843.431	-86.01
843.607	45.06
843.783	-124.93
843.959	79.87
844.134	-40.96
844.31	63.49
844.486	-28.67
844.662	-45.06
844.838	20.48
845.013	-12.29
845.189	-18.43
845.365	14.34
845.541	38.91
845.716	28.67
845.892	67.58
846.068	-32.77
846.244	-38.91
846.419	-18.43
846.595	-49.15
846.77	-63.49
846.946	26.62
847.122	-71.68
847.297	-40.96
847.473	96.25
847.648	-73.73
847.824	106.49
847.999	-81.92
848.175	-61.44
848.35	6.14
848.526	38.91
848.701	47.1
848.876	36.86
849.052	32.77
849.227	-16.38
849.403	59.39
849.578	40.96
849.753	8.19
849.929	-24.58
850.104	-71.68
850.279	-4.1
850.454	32.77
850.63	-36.86
850.805	-16.38
850.98	-2.05
851.155	-65.53
851.33	-28.67
851.505	-96.25
851.681	51.2
851.856	-135.17
852.031	20.48
852.206	61.44
852.381	-139.26
852.556	-16.38
852.731	71.68
852.906	-24.58
853.081	-40.96
853.256	106.49
853.431	-2.05
853.606	-38.91
853.781	-96.25
853.956	-67.58
854.131	-24.58
854.305	-6.14
854.48	-10.24
854.655	-40.96
854.83	-4.1
855.005	-28.67
855.18	-6.14
855.354	2.05
855.529	-8.19
855.704	-36.86
855.879	32.77
856.053	-63.49
856.228	-2.05
856.403	-157.69
856.577	-8.19
856.752	-81.92
856.926	-83.97
857.101	4.1
857.276	-43.01
857.45	24.58
857.625	38.91
857.799	28.67
857.974	22.53
858.148	-145.41
858.323	-38.91
858.497	22.53
858.672	-79.87
858.846	-43.01
859.02	30.72
859.195	0
859.369	-40.96
859.543	69.63
859.718	-16.38
859.892	2.05
860.066	4.1
860.241	-65.53
860.415	-34.82
860.589	-38.91
860.763	2.05
860.938	45.06
861.112	-4.1
861.286	-20.48
861.46	6.14
861.634	-51.2
861.808	112.64
861.982	-61.44
862.157	-36.86
862.331	-45.06
862.505	-22.53
862.679	-8.19
862.853	10.24
863.027	-22.53
863.201	102.4
863.375	-20.48
863.549	59.39
863.722	20.48
863.896	131.07
864.07	-92.16
864.244	-12.29
864.418	-51.2
864.592	-2.05
864.766	-83.97
864.939	34.82
865.113	-40.96
865.287	88.06
865.461	-55.3
865.634	36.86
865.808	-43.01
865.982	-57.34
866.156	-51.2
866.329	-38.91
866.503	38.91
866.676	102.4
866.85	79.87
867.024	-8.19
867.197	-10.24
867.371	43.01
867.544	-18.43
867.718	-110.59
867.891	116.73
868.065	-122.88
868.238	43.01
868.412	135.17
868.585	34.82
868.759	-92.16
868.932	-18.43
869.105	-63.49
869.279	-28.67
869.452	-75.77
869.625	4.1
869.799	30.72
869.972	-96.25
870.145	-28.67
870.319	90.11
870.492	32.77
870.665	4.1
870.838	-14.34
871.011	-139.26
871.185	-28.67
871.358	-81.92
871.531	6.14
871.704	-34.82
871.877	-16.38
872.05	-61.44
872.223	2.05
872.396	6.14
872.569	73.73
872.742	-143.36
872.915	8.19
873.088	32.77
873.261	-73.73
873.434	102.4
873.607	-79.87
873.78	53.25
873.953	-34.82
874.126	0
874.299	59.39
874.471	-71.68
874.644	-61.44
874.817	-43.01
874.99	114.69
875.163	-32.77
875.335	-24.58
875.508	-102.4
875.681	83.97
875.853	-12.29
876.026	14.34
876.199	8.19
876.371	0
876.544	-79.87
876.717	2.05
876.889	-65.53
877.062	75.77
877.234	-108.54
877.407	-61.44
877.579	-59.39
877.752	-61.44
877.924	96.25
878.097	-14.34
878.269	-16.38
878.442	65.54
878.614	-12.29
878.786	4.1
878.959	-4.1
879.131	18.43
879.303	-108.54
879.476	-2.05
879.648	81.92
879.82	-16.38
879.993	-110.59
880.165	10.24
880.337	-90.11
880.509	-34.82
880.681	-79.87
880.854	-67.58
881.026	8.19
881.198	169.98
881.37	30.72
881.542	-61.44
881.714	86.01
881.886	-40.96
882.058	0
882.23	-28.67
882.402	26.62
882.574	-67.58
882.746	102.4
882.918	83.97
883.09	-22.53
883.262	-38.91
883.434	43.01
883.606	-47.1
883.778	8.19
883.95	34.82
884.122	-59.39
884.293	8.19
884.465	-24.58
884.637	22.53
884.809	4.1
884.98	-49.15
885.152	36.86
885.324	10.24
885.496	-83.97
885.667	45.06
885.839	-65.53
886.011	98.3
886.182	-22.53
886.354	30.72
886.525	49.15
886.697	30.72
886.869	-24.58
887.04	0
887.212	108.54
887.383	90.11
887.555	-18.43
887.726	-34.82
887.897	-47.1
888.069	-32.77
888.24	67.58
888.412	-38.91
888.583	16.38
888.754	51.2
888.926	-90.11
889.097	-96.25
889.268	-86.01
889.44	-28.67
889.611	-106.49
889.782	-20.48
889.953	-55.3
890.125	104.45
890.296	-45.06
890.467	-4.1
890.638	-63.49
890.809	38.91
890.98	-169.98
891.151	34.82
891.323	75.77
891.494	-81.92
891.665	-8.19
891.836	-24.58
892.007	-12.29
892.178	38.91
892.349	-32.77
892.52	-16.38
892.691	-38.91
892.862	-47.1
893.032	-196.6
893.203	38.91
893.374	-6.14
893.545	45.06
893.716	-73.73
893.887	-8.19
894.057	-2.05
894.228	-24.58
894.399	-36.86
894.57	8.19
894.74	-51.2
894.911	53.25
895.082	-53.25
895.253	-90.11
895.423	12.29
895.594	73.73
895.764	28.67
895.935	-116.73
896.106	16.38
896.276	-57.34
896.447	-38.91
896.617	32.77
896.788	-83.97
896.958	12.29
897.129	-116.73
897.299	-92.16
897.47	75.77
897.64	26.62
897.81	-8.19
897.981	59.39
898.151	-65.53
898.322	94.21
898.492	135.17
898.662	-118.78
898.832	-75.77
899.003	-73.73
899.173	86.01
899.343	-96.25
899.513	-67.58
