Data from USB4F104151__41__11-26-38-392.txt Node

Date: Wed Feb 26 11:26:38 EST 2025
User: louis
Spectrometer: USB4F10415
Trigger mode: 4
Integration Time (sec): 1.000000E-1
Scans to average: 1
Electric dark correction enabled: true
Nonlinearity correction enabled: false
Boxcar width: 0
XAxis mode: Wavelengths
Number of Pixels in Spectrum: 3648
>>>>>Begin Spectral Data<<<<<
178.204	-383.65
178.424	-383.65
178.644	-383.65
178.864	-418.47
179.084	-385.7
179.304	60.76
179.524	42.32
179.744	13.65
179.964	23.89
180.184	-17.07
180.404	99.67
180.624	1.37
180.844	-58.03
181.064	-125.61
181.283	-4.78
181.503	-21.16
181.723	-15.02
181.943	-74.41
182.163	165.2
182.383	-41.64
182.602	32.08
182.822	191.83
183.042	56.66
183.262	-47.79
183.482	5.46
183.701	21.85
183.921	36.18
184.141	-21.16
184.361	93.52
184.58	103.76
184.8	95.57
185.02	-17.07
185.239	56.66
185.459	116.05
185.679	91.48
185.898	-86.7
186.118	46.42
186.338	23.89
186.557	111.96
186.777	-19.11
186.997	34.13
187.216	19.8
187.436	214.35
187.655	54.61
187.875	161.11
188.095	-25.26
188.314	169.3
188.534	99.67
188.753	-66.22
188.973	161.11
189.192	89.43
189.412	56.66
189.631	64.85
189.851	36.18
190.07	218.45
190.29	-125.61
190.509	23.89
190.729	-0.68
190.948	85.33
191.168	249.17
191.387	79.19
191.607	54.61
191.826	95.57
192.045	97.62
192.265	-17.07
192.484	11.61
192.704	-8.87
192.923	-19.11
193.142	179.54
193.362	159.06
193.581	132.44
193.8	85.33
194.02	56.66
194.239	77.14
194.458	81.24
194.678	9.56
194.897	56.66
195.116	58.71
195.335	60.76
195.555	7.51
195.774	-39.59
195.993	50.52
196.212	1.37
196.432	-37.55
196.651	-62.12
196.87	81.24
197.089	187.73
197.308	13.65
197.528	116.05
197.747	30.04
197.966	36.18
198.185	146.77
198.404	-58.03
198.623	142.68
198.842	114
199.062	126.29
199.281	44.37
199.5	-8.87
199.719	111.96
199.938	68.95
200.157	150.87
200.376	81.24
200.595	95.57
200.814	71
201.033	-84.65
201.252	97.62
201.471	23.89
201.69	93.52
201.909	95.57
202.128	116.05
202.347	81.24
202.566	64.85
202.785	48.47
203.004	5.46
203.223	251.22
203.442	-31.4
203.661	19.8
203.879	13.65
204.098	204.11
204.317	9.56
204.536	138.58
204.755	161.11
204.974	95.57
205.193	-2.73
205.411	89.43
205.63	91.48
205.849	-53.93
206.068	-10.92
206.287	-0.68
206.505	73.04
206.724	34.13
206.943	-51.88
207.162	-17.07
207.381	73.04
207.599	42.32
207.818	7.51
208.037	32.08
208.255	99.67
208.474	99.67
208.693	105.81
208.911	-25.26
209.13	97.62
209.349	68.95
209.567	85.33
209.786	54.61
210.005	130.39
210.223	13.65
210.442	-133.8
210.661	-0.68
210.879	64.85
211.098	-53.93
211.316	73.04
211.535	124.24
211.753	77.14
211.972	-2.73
212.191	-78.51
212.409	48.47
212.628	58.71
212.846	5.46
213.065	101.72
213.283	130.39
213.502	25.94
213.72	50.52
213.938	93.52
214.157	-33.45
214.375	64.85
214.594	3.41
214.812	21.85
215.031	-21.16
215.249	48.47
215.467	71
215.686	-27.31
215.904	107.86
216.122	-8.87
216.341	218.45
216.559	81.24
216.778	185.68
216.996	136.53
217.214	71
217.432	50.52
217.651	38.23
217.869	30.04
218.087	62.8
218.306	-41.64
218.524	93.52
218.742	-23.21
218.96	204.11
219.179	7.51
219.397	38.23
219.615	169.3
219.833	136.53
220.051	-64.17
220.27	64.85
220.488	99.67
220.706	62.8
220.924	40.28
221.142	-4.78
221.36	81.24
221.578	48.47
221.796	40.28
222.015	-12.97
222.233	13.65
222.451	175.44
222.669	-31.4
222.887	128.34
223.105	-17.07
223.323	46.42
223.541	-17.07
223.759	44.37
223.977	13.65
224.195	157.01
224.413	30.04
224.631	56.66
224.849	38.23
225.067	200.02
225.285	17.75
225.503	79.19
225.721	-66.22
225.939	-35.5
226.157	64.85
226.375	183.63
226.592	-12.97
226.81	9.56
227.028	101.72
227.246	181.59
227.464	87.38
227.682	66.9
227.9	60.76
228.117	79.19
228.335	165.2
228.553	17.75
228.771	42.32
228.989	73.04
229.206	130.39
229.424	68.95
229.642	62.8
229.86	9.56
230.077	124.24
230.295	54.61
230.513	60.76
230.731	142.68
230.948	222.55
231.166	144.72
231.384	83.28
231.601	21.85
231.819	183.63
232.037	-94.89
232.254	3.41
232.472	89.43
232.689	103.76
232.907	128.34
233.125	-58.03
233.342	9.56
233.56	25.94
233.777	-39.59
233.995	64.85
234.213	173.39
234.43	81.24
234.648	138.58
234.865	23.89
235.083	25.94
235.3	91.48
235.518	134.48
235.735	68.95
235.953	109.91
236.17	3.41
236.388	23.89
236.605	62.8
236.822	171.35
237.04	161.11
237.257	15.7
237.475	-60.07
237.692	-4.78
237.909	144.72
238.127	-45.74
238.344	32.08
238.562	79.19
238.779	-43.69
238.996	1.37
239.214	17.75
239.431	97.62
239.648	44.37
239.865	132.44
240.083	116.05
240.3	-8.87
240.517	-2.73
240.735	126.29
240.952	165.2
241.169	81.24
241.386	101.72
241.603	46.42
241.821	1.37
242.038	36.18
242.255	114
242.472	36.18
242.689	142.68
242.907	11.61
243.124	97.62
243.341	48.47
243.558	-49.83
243.775	-12.97
243.992	-31.4
244.209	68.95
244.426	226.64
244.643	36.18
244.86	19.8
245.078	161.11
245.295	81.24
245.512	60.76
245.729	-27.31
245.946	122.2
246.163	44.37
246.38	54.61
246.597	66.9
246.814	40.28
247.031	48.47
247.248	27.99
247.464	95.57
247.681	83.28
247.898	42.32
248.115	136.53
248.332	32.08
248.549	79.19
248.766	183.63
248.983	66.9
249.2	64.85
249.417	130.39
249.633	-25.26
249.85	111.96
250.067	97.62
250.284	77.14
250.501	50.52
250.717	116.05
250.934	3.41
251.151	66.9
251.368	95.57
251.585	64.85
251.801	-33.45
252.018	-4.78
252.235	128.34
252.451	25.94
252.668	32.08
252.885	171.35
253.102	52.56
253.318	38.23
253.535	-25.26
253.752	77.14
253.968	-0.68
254.185	-27.31
254.401	73.04
254.618	83.28
254.835	60.76
255.051	202.07
255.268	62.8
255.484	109.91
255.701	32.08
255.917	165.2
256.134	-29.35
256.351	87.38
256.567	64.85
256.784	75.09
257	-109.22
257.217	77.14
257.433	105.81
257.65	66.9
257.866	48.47
258.082	-41.64
258.299	-39.59
258.515	21.85
258.732	99.67
258.948	15.7
259.165	42.32
259.381	40.28
259.597	58.71
259.814	46.42
260.03	75.09
260.246	19.8
260.463	101.72
260.679	136.53
260.895	83.28
261.112	62.8
261.328	13.65
261.544	56.66
261.761	181.59
261.977	60.76
262.193	-21.16
262.409	103.76
262.626	85.33
262.842	56.66
263.058	-12.97
263.274	73.04
263.49	56.66
263.707	85.33
263.923	56.66
264.139	-29.35
264.355	56.66
264.571	152.91
264.787	148.82
265.004	130.39
265.22	48.47
265.436	-17.07
265.652	13.65
265.868	54.61
266.084	-68.27
266.3	38.23
266.516	-6.83
266.732	91.48
266.948	75.09
267.164	15.7
267.38	114
267.596	107.86
267.812	167.25
268.028	-37.55
268.244	19.8
268.46	97.62
268.676	87.38
268.892	36.18
269.108	-15.02
269.324	1.37
269.54	3.41
269.756	89.43
269.972	-23.21
270.188	-2.73
270.403	-68.27
270.619	-19.11
270.835	157.01
271.051	118.1
271.267	7.51
271.483	30.04
271.698	103.76
271.914	71
272.13	32.08
272.346	44.37
272.562	89.43
272.777	152.91
272.993	-41.64
273.209	-25.26
273.425	64.85
273.64	-55.98
273.856	81.24
274.072	-6.83
274.287	-29.35
274.503	60.76
274.719	60.76
274.934	-19.11
275.15	-8.87
275.366	1.37
275.581	15.7
275.797	1.37
276.012	42.32
276.228	60.76
276.444	64.85
276.659	91.48
276.875	-49.83
277.09	68.95
277.306	3.41
277.521	-17.07
277.737	44.37
277.952	148.82
278.168	40.28
278.383	64.85
278.599	42.32
278.814	107.86
279.03	34.13
279.245	114
279.461	44.37
279.676	71
279.892	-76.46
280.107	-33.45
280.322	30.04
280.538	89.43
280.753	-29.35
280.969	64.85
281.184	-80.55
281.399	165.2
281.615	7.51
281.83	107.86
282.045	7.51
282.26	-17.07
282.476	40.28
282.691	56.66
282.906	81.24
283.122	50.52
283.337	-29.35
283.552	36.18
283.767	-66.22
283.983	54.61
284.198	21.85
284.413	54.61
284.628	-92.84
284.843	-43.69
285.058	15.7
285.274	34.13
285.489	-17.07
285.704	83.28
285.919	15.7
286.134	58.71
286.349	44.37
286.564	-2.73
286.779	105.81
286.995	109.91
287.21	-53.93
287.425	25.94
287.64	62.8
287.855	46.42
288.07	-31.4
288.285	107.86
288.5	114
288.715	146.77
288.93	27.99
289.145	15.7
289.36	46.42
289.575	15.7
289.79	159.06
290.004	-8.87
290.219	138.58
290.434	13.65
290.649	21.85
290.864	-23.21
291.079	-2.73
291.294	130.39
291.509	50.52
291.724	79.19
291.938	52.56
292.153	5.46
292.368	-80.55
292.583	58.71
292.798	128.34
293.012	152.91
293.227	58.71
293.442	-12.97
293.657	89.43
293.871	130.39
294.086	52.56
294.301	118.1
294.516	183.63
294.73	11.61
294.945	-98.99
295.16	-15.02
295.374	173.39
295.589	91.48
295.804	42.32
296.018	95.57
296.233	154.96
296.447	48.47
296.662	9.56
296.877	50.52
297.091	101.72
297.306	36.18
297.52	36.18
297.735	38.23
297.949	-4.78
298.164	114
298.378	114
298.593	3.41
298.807	-2.73
299.022	109.91
299.236	144.72
299.451	30.04
299.665	52.56
299.88	-25.26
300.094	50.52
300.309	56.66
300.523	44.37
300.737	27.99
300.952	136.53
301.166	15.7
301.381	30.04
301.595	89.43
301.809	66.9
302.024	17.75
302.238	-25.26
302.452	169.3
302.667	81.24
302.881	83.28
303.095	95.57
303.309	32.08
303.524	-25.26
303.738	-2.73
303.952	-51.88
304.166	23.89
304.381	-49.83
304.595	220.5
304.809	34.13
305.023	-15.02
305.237	48.47
305.452	9.56
305.666	44.37
305.88	64.85
306.094	146.77
306.308	128.34
306.522	163.15
306.736	71
306.95	105.81
307.164	-66.22
307.379	-39.59
307.593	208.21
307.807	167.25
308.021	114
308.235	163.15
308.449	-0.68
308.663	27.99
308.877	214.35
309.091	13.65
309.305	87.38
309.519	-41.64
309.733	126.29
309.947	-55.98
310.161	122.2
310.374	118.1
310.588	120.15
310.802	11.61
311.016	-72.36
311.23	32.08
311.444	21.85
311.658	62.8
311.872	171.35
312.085	148.82
312.299	200.02
312.513	154.96
312.727	-4.78
312.941	-86.7
313.154	62.8
313.368	30.04
313.582	83.28
313.796	17.75
314.009	-2.73
314.223	183.63
314.437	107.86
314.651	71
314.864	42.32
315.078	7.51
315.292	-86.7
315.505	23.89
315.719	97.62
315.933	58.71
316.146	-4.78
316.36	-10.92
316.573	128.34
316.787	77.14
317.001	120.15
317.214	-123.56
317.428	15.7
317.641	89.43
317.855	42.32
318.068	81.24
318.282	40.28
318.495	142.68
318.709	64.85
318.922	25.94
319.136	152.91
319.349	105.81
319.563	91.48
319.776	85.33
319.99	-107.18
320.203	130.39
320.417	58.71
320.63	93.52
320.843	195.92
321.057	-0.68
321.27	19.8
321.483	85.33
321.697	144.72
321.91	-4.78
322.124	52.56
322.337	68.95
322.55	42.32
322.763	97.62
322.977	9.56
323.19	-6.83
323.403	60.76
323.617	93.52
323.83	171.35
324.043	13.65
324.256	34.13
324.469	-23.21
324.683	91.48
324.896	-15.02
325.109	71
325.322	-17.07
325.535	118.1
325.748	118.1
325.962	54.61
326.175	9.56
326.388	60.76
326.601	118.1
326.814	52.56
327.027	85.33
327.24	189.78
327.453	-70.31
327.666	134.48
327.879	163.15
328.092	89.43
328.305	87.38
328.518	40.28
328.731	-55.98
328.944	32.08
329.157	71
329.37	34.13
329.583	189.78
329.796	191.83
330.009	-4.78
330.222	25.94
330.435	142.68
330.648	138.58
330.861	124.24
331.073	58.71
331.286	132.44
331.499	44.37
331.712	-10.92
331.925	44.37
332.138	32.08
332.35	124.24
332.563	-37.55
332.776	140.63
332.989	-51.88
333.202	52.56
333.414	52.56
333.627	66.9
333.84	114
334.053	146.77
334.265	-6.83
334.478	-27.31
334.691	64.85
334.903	81.24
335.116	9.56
335.329	7.51
335.541	21.85
335.754	243.03
335.966	-10.92
336.179	66.9
336.392	-19.11
336.604	54.61
336.817	87.38
337.029	27.99
337.242	32.08
337.454	83.28
337.667	75.09
337.88	144.72
338.092	95.57
338.305	50.52
338.517	-29.35
338.729	32.08
338.942	134.48
339.154	-45.74
339.367	-58.03
339.579	38.23
339.792	5.46
340.004	87.38
340.217	21.85
340.429	19.8
340.641	25.94
340.854	-55.98
341.066	85.33
341.278	132.44
341.491	195.92
341.703	44.37
341.915	21.85
342.128	79.19
342.34	48.47
342.552	-4.78
342.764	66.9
342.977	85.33
343.189	54.61
343.401	89.43
343.613	3.41
343.826	-2.73
344.038	-17.07
344.25	-4.78
344.462	-53.93
344.674	54.61
344.886	62.8
345.099	40.28
345.311	97.62
345.523	109.91
345.735	-8.87
345.947	19.8
346.159	77.14
346.371	44.37
346.583	-41.64
346.795	154.96
347.007	-12.97
347.219	91.48
347.431	-19.11
347.643	128.34
347.855	25.94
348.067	114
348.279	-70.31
348.491	66.9
348.703	32.08
348.915	27.99
349.127	-2.73
349.339	11.61
349.551	-35.5
349.763	99.67
349.975	56.66
350.187	132.44
350.399	99.67
350.61	79.19
350.822	1.37
351.034	42.32
351.246	32.08
351.458	5.46
351.669	124.24
351.881	83.28
352.093	122.2
352.305	175.44
352.517	-25.26
352.728	134.48
352.94	48.47
353.152	38.23
353.363	32.08
353.575	48.47
353.787	81.24
353.999	62.8
354.21	116.05
354.422	-31.4
354.633	85.33
354.845	-12.97
355.057	27.99
355.268	99.67
355.48	83.28
355.692	-4.78
355.903	60.76
356.115	-2.73
356.326	-29.35
356.538	111.96
356.749	71
356.961	181.59
357.172	21.85
357.384	11.61
357.595	177.49
357.807	79.19
358.018	42.32
358.23	23.89
358.441	189.78
358.653	42.32
358.864	68.95
359.075	-0.68
359.287	136.53
359.498	85.33
359.709	95.57
359.921	79.19
360.132	68.95
360.344	58.71
360.555	13.65
360.766	-10.92
360.977	77.14
361.189	216.4
361.4	3.41
361.611	118.1
361.823	206.16
362.034	30.04
362.245	-39.59
362.456	77.14
362.667	97.62
362.879	-70.31
363.09	5.46
363.301	73.04
363.512	163.15
363.723	48.47
363.935	3.41
364.146	146.77
364.357	40.28
364.568	118.1
364.779	62.8
364.99	81.24
365.201	1.37
365.412	114
365.623	-53.93
365.834	52.56
366.045	17.75
366.256	83.28
366.467	87.38
366.678	-2.73
366.889	118.1
367.1	-0.68
367.311	68.95
367.522	44.37
367.733	87.38
367.944	109.91
368.155	-6.83
368.366	120.15
368.577	97.62
368.788	126.29
368.999	-62.12
369.209	34.13
369.42	247.12
369.631	251.22
369.842	68.95
370.053	-8.87
370.264	107.86
370.474	11.61
370.685	17.75
370.896	42.32
371.107	109.91
371.317	105.81
371.528	25.94
371.739	122.2
371.95	62.8
372.16	81.24
372.371	-35.5
372.582	38.23
372.792	167.25
373.003	89.43
373.214	71
373.424	107.86
373.635	13.65
373.846	111.96
374.056	87.38
374.267	75.09
374.477	87.38
374.688	21.85
374.898	66.9
375.109	36.18
375.319	1.37
375.53	93.52
375.74	154.96
375.951	64.85
376.161	163.15
376.372	169.3
376.582	34.13
376.793	97.62
377.003	-6.83
377.214	79.19
377.424	40.28
377.635	66.9
377.845	-33.45
378.055	154.96
378.266	-82.6
378.476	77.14
378.686	77.14
378.897	97.62
379.107	66.9
379.317	62.8
379.528	-37.55
379.738	93.52
379.948	9.56
380.158	62.8
380.369	40.28
380.579	85.33
380.789	81.24
380.999	81.24
381.21	89.43
381.42	175.44
381.63	-66.22
381.84	81.24
382.05	44.37
382.261	83.28
382.471	116.05
382.681	25.94
382.891	150.87
383.101	44.37
383.311	-68.27
383.521	-49.83
383.731	148.82
383.941	17.75
384.151	60.76
384.361	-2.73
384.571	97.62
384.781	30.04
384.991	163.15
385.201	181.59
385.411	148.82
385.621	40.28
385.831	44.37
386.041	66.9
386.251	107.86
386.461	66.9
386.671	27.99
386.881	32.08
387.091	111.96
387.301	15.7
387.511	95.57
387.72	87.38
387.93	66.9
388.14	-111.27
388.35	56.66
388.56	109.91
388.769	85.33
388.979	64.85
389.189	52.56
389.399	-35.5
389.609	109.91
389.818	124.24
390.028	32.08
390.238	91.48
390.447	50.52
390.657	77.14
390.867	-53.93
391.076	-49.83
391.286	71
391.496	40.28
391.705	87.38
391.915	58.71
392.125	99.67
392.334	19.8
392.544	144.72
392.753	44.37
392.963	-12.97
393.172	111.96
393.382	21.85
393.591	191.83
393.801	48.47
394.01	109.91
394.22	97.62
394.429	54.61
394.639	101.72
394.848	128.34
395.058	48.47
395.267	42.32
395.477	9.56
395.686	52.56
395.895	212.31
396.105	251.22
396.314	89.43
396.524	-31.4
396.733	50.52
396.942	142.68
397.152	195.92
397.361	64.85
397.57	81.24
397.78	30.04
397.989	81.24
398.198	144.72
398.407	73.04
398.617	62.8
398.826	77.14
399.035	58.71
399.244	77.14
399.453	157.01
399.663	89.43
399.872	81.24
400.081	-39.59
400.29	118.1
400.499	17.75
400.708	210.26
400.917	62.8
401.127	7.51
401.336	46.42
401.545	177.49
401.754	77.14
401.963	71
402.172	30.04
402.381	52.56
402.59	32.08
402.799	7.51
403.008	64.85
403.217	62.8
403.426	68.95
403.635	-0.68
403.844	36.18
404.053	56.66
404.262	116.05
404.471	206.16
404.68	21.85
404.888	30.04
405.097	-21.16
405.306	83.28
405.515	64.85
405.724	27.99
405.933	85.33
406.142	42.32
406.35	120.15
406.559	7.51
406.768	56.66
406.977	136.53
407.185	91.48
407.394	81.24
407.603	-55.98
407.812	128.34
408.02	99.67
408.229	23.89
408.438	91.48
408.646	-78.51
408.855	25.94
409.064	48.47
409.272	15.7
409.481	187.73
409.69	13.65
409.898	-88.75
410.107	81.24
410.315	85.33
410.524	21.85
410.733	118.1
410.941	42.32
411.15	93.52
411.358	40.28
411.567	138.58
411.775	116.05
411.984	75.09
412.192	134.48
412.401	19.8
412.609	189.78
412.818	130.39
413.026	81.24
413.234	52.56
413.443	60.76
413.651	44.37
413.86	-6.83
414.068	142.68
414.276	130.39
414.485	27.99
414.693	56.66
414.901	197.97
415.11	32.08
415.318	56.66
415.526	56.66
415.734	81.24
415.943	56.66
416.151	120.15
416.359	9.56
416.567	73.04
416.776	103.76
416.984	95.57
417.192	154.96
417.4	-2.73
417.608	40.28
417.817	-21.16
418.025	134.48
418.233	132.44
418.441	-51.88
418.649	-49.83
418.857	50.52
419.065	107.86
419.273	-17.07
419.481	114
419.689	25.94
419.897	89.43
420.105	21.85
420.313	132.44
420.521	187.73
420.729	193.87
420.937	-35.5
421.145	-37.55
421.353	128.34
421.561	185.68
421.769	52.56
421.977	44.37
422.185	183.63
422.393	48.47
422.601	87.38
422.809	79.19
423.017	54.61
423.224	32.08
423.432	159.06
423.64	66.9
423.848	154.96
424.056	52.56
424.263	95.57
424.471	50.52
424.679	183.63
424.887	11.61
425.094	204.11
425.302	85.33
425.51	9.56
425.718	132.44
425.925	152.91
426.133	-47.79
426.341	163.15
426.548	75.09
426.756	87.38
426.964	95.57
427.171	21.85
427.379	122.2
427.586	97.62
427.794	99.67
428.001	148.82
428.209	64.85
428.417	177.49
428.624	161.11
428.832	161.11
429.039	46.42
429.247	122.2
429.454	136.53
429.662	150.87
429.869	81.24
430.076	79.19
430.284	75.09
430.491	212.31
430.699	142.68
430.906	148.82
431.114	140.63
431.321	58.71
431.528	128.34
431.736	132.44
431.943	140.63
432.15	136.53
432.358	210.26
432.565	277.84
432.772	34.13
432.979	206.16
433.187	134.48
433.394	116.05
433.601	150.87
433.808	267.6
434.016	247.12
434.223	257.36
434.43	230.74
434.637	286.03
434.844	257.36
435.052	240.98
435.259	281.94
435.466	314.7
435.673	202.07
435.88	290.13
436.087	337.23
436.294	267.6
436.501	316.75
436.708	245.07
436.915	326.99
437.122	329.04
437.329	220.5
437.537	249.17
437.743	343.38
437.95	466.25
438.157	355.66
438.364	359.76
438.571	374.1
438.778	494.93
438.985	474.45
439.192	410.96
439.399	384.34
439.606	417.1
439.813	390.48
440.02	621.9
440.227	587.08
440.433	515.41
440.64	443.73
440.847	523.6
441.054	535.89
441.261	619.85
441.467	533.84
441.674	486.73
441.881	613.71
442.088	578.89
442.294	654.67
442.501	734.54
442.708	685.39
442.914	679.24
443.121	832.84
443.328	724.3
443.534	845.13
443.741	785.74
443.948	574.8
444.154	855.37
444.361	990.53
444.568	945.48
444.774	968.01
444.981	828.74
445.187	1021.25
445.394	1004.87
445.6	1060.17
445.807	1131.84
446.013	1154.37
446.22	1049.93
446.426	1156.42
446.633	1224
446.839	1363.26
447.046	1287.49
447.252	1443.14
447.459	1404.22
447.665	1457.47
447.871	1680.7
448.078	1641.79
448.284	1656.12
448.491	1871.16
448.697	1899.83
448.903	2018.61
449.11	1983.8
449.316	2014.52
449.522	2166.07
449.728	2108.73
449.935	2344.24
450.141	2223.41
450.347	2372.91
450.553	2471.22
450.76	2469.17
450.966	2659.63
451.172	2637.1
451.378	2757.93
451.584	2899.24
451.791	3095.85
451.997	3065.13
452.203	3167.53
452.409	3335.46
452.615	3585.31
452.821	3333.41
453.027	3331.36
453.233	3863.83
453.44	3593.5
453.646	3925.27
453.852	4183.32
454.058	4314.39
454.264	4435.22
454.47	4685.07
454.676	4674.83
454.882	5016.84
455.088	4887.82
455.294	5082.38
455.5	5561.6
455.705	5850.36
455.911	5782.78
456.117	6075.64
456.323	6024.44
456.529	6202.61
456.735	6823.15
456.941	6765.81
457.147	7259.37
457.352	7392.48
457.558	7269.61
457.764	8158.42
457.97	8221.91
458.176	8641.75
458.381	8916.17
458.587	9084.11
458.793	9741.5
458.999	9417.93
459.204	10904.75
459.41	11033.77
459.616	11091.12
459.821	11867.3
460.027	12197.02
460.233	12713.11
460.438	12858.51
460.644	13407.37
460.85	13845.63
461.055	14218.36
461.261	14591.09
461.466	14623.86
461.672	14871.67
461.878	16628.82
462.083	16290.91
462.289	16632.92
462.494	17249.36
462.7	17556.55
462.905	17699.91
463.111	19143.73
463.316	20208.67
463.522	20657.18
463.727	21191.7
463.932	21955.59
464.138	22883.32
464.343	23671.79
464.549	23514.09
464.754	25588.69
464.959	26368.96
465.165	26506.18
465.37	26336.2
465.575	26614.72
465.781	28275.62
465.986	28894.11
466.191	28531.62
466.397	29049.75
466.602	28169.13
466.807	29772.69
467.012	30450.56
467.218	31239.03
467.423	31050.62
467.628	31834.99
467.833	33491.8
468.038	33172.32
468.244	32461.67
468.449	33913.68
468.654	33383.26
468.859	33096.54
469.064	33117.02
469.269	32422.76
469.474	32953.18
469.679	33647.44
469.885	32510.82
470.09	33385.3
470.295	33536.85
470.5	32494.44
470.705	33078.11
470.91	32101.23
471.115	32351.08
471.32	32078.7
471.525	32047.98
471.73	31064.96
471.935	30878.59
472.139	29660.05
472.344	30165.9
472.549	29737.87
472.754	29324.18
472.959	28359.59
473.164	27632.56
473.369	26928.06
473.574	28111.78
473.778	27552.69
473.983	27042.74
474.188	26491.84
474.393	24996.82
474.598	25084.89
474.802	24624.09
475.007	24028.13
475.212	24146.92
475.417	23133.17
475.621	22889.46
475.826	22825.98
476.031	22031.37
476.235	21683.21
476.44	21685.26
476.645	21244.95
476.849	20808.73
477.054	20468.76
477.259	20018.21
477.463	20141.09
477.668	19506.22
477.872	19428.4
478.077	19108.91
478.282	18263.1
478.486	18052.16
478.691	18226.24
478.895	17851.46
479.1	17734.73
479.304	17609.8
479.509	16909.4
479.713	17255.5
479.918	16841.81
480.122	16770.13
480.326	16913.49
480.531	16452.7
480.735	16174.17
480.94	15985.76
481.144	16714.84
481.348	15832.16
481.553	16084.06
481.757	15352.94
481.961	15348.84
482.166	15674.47
482.37	15629.41
482.574	15256.68
482.778	14816.37
482.983	15412.33
483.187	15080.56
483.391	14986.35
483.595	14689.4
483.8	14419.07
484.004	14539.9
484.208	14462.07
484.412	14249.08
484.616	14087.29
484.821	14251.13
485.025	13556.87
485.229	13712.52
485.433	13462.66
485.637	13485.19
485.841	13157.52
486.045	13055.12
486.249	12940.43
486.453	12592.28
486.657	12500.12
486.861	12180.64
487.065	11998.37
487.269	11971.74
487.473	11664.55
487.677	11646.12
487.881	11705.51
488.085	11308.2
488.289	11195.56
488.493	10755.25
488.697	10601.65
488.901	10636.47
489.105	10245.3
489.309	10048.7
489.512	10034.36
489.716	9903.29
489.92	9575.62
490.124	9276.62
490.328	9538.76
490.531	9125.07
490.735	9137.35
490.939	9186.51
491.143	8738
491.346	8805.58
491.55	8643.79
491.754	8226.01
491.958	8316.12
492.161	8047.83
492.365	8060.12
492.569	7791.84
492.772	7738.59
492.976	7607.52
493.18	7427.3
493.383	7488.74
493.587	7451.88
493.79	7447.78
493.994	7062.76
494.197	7177.45
494.401	7095.53
494.605	6935.79
494.808	6888.68
495.012	6903.02
495.215	6817.01
495.419	6817.01
495.622	6569.2
495.825	6714.61
496.029	6659.31
496.232	6726.89
496.436	6724.85
496.639	6714.61
496.843	6755.57
497.046	6792.43
497.249	6466.8
497.453	6616.3
497.656	6552.82
497.859	6522.1
498.063	6741.23
498.266	6857.96
498.469	6581.49
498.673	6712.56
498.876	6724.85
499.079	6677.74
499.282	6561.01
499.485	7040.23
499.689	6868.2
499.892	6943.98
500.095	6939.88
500.298	6962.41
500.501	6730.99
500.705	7267.56
500.908	7204.07
501.111	7316.71
501.314	7443.68
501.517	7496.93
501.72	7492.84
501.923	7546.08
502.126	7466.21
502.329	7685.34
502.532	7810.27
502.735	7840.99
502.938	8037.59
503.141	8168.66
503.344	8076.51
503.547	8338.65
503.75	8340.69
503.953	8314.07
504.156	8426.71
504.359	8592.59
504.562	8713.42
504.765	8969.42
504.968	9227.46
505.17	9358.53
505.373	9305.29
505.576	9788.61
505.779	9555.14
505.982	9721.02
506.185	10218.68
506.387	10106.04
506.59	10185.91
506.793	10685.62
506.996	10618.04
507.198	11029.68
507.401	11195.56
507.604	11408.55
507.807	11422.89
508.009	11855.01
508.212	11918.5
508.415	12154.01
508.617	12512.41
508.82	12649.62
509.022	12743.83
509.225	13288.59
509.428	13544.58
509.63	13837.44
509.833	14144.64
510.035	14564.47
510.238	14613.62
510.44	14926.96
510.643	15397.99
510.845	16204.89
511.048	15932.51
511.25	16438.36
511.453	16870.48
511.655	17474.63
511.858	17783.88
512.06	18086.98
512.262	18476.09
512.465	18574.39
512.667	19100.72
512.87	19735.59
513.072	19840.04
513.274	20464.67
513.477	21085.2
513.679	21455.89
513.881	22096.9
514.084	22373.38
514.286	22785.02
514.488	23323.63
514.69	24417.25
514.893	24314.85
515.095	24921.05
515.297	25721.8
515.499	26307.52
515.701	26676.16
515.904	27423.67
516.106	27845.55
516.308	28220.33
516.51	29113.24
516.712	29569.94
516.914	30206.86
517.116	30858.11
517.318	31116.15
517.52	31890.29
517.722	32293.74
517.925	33002.33
518.127	33842
518.329	34884.42
518.531	34538.31
518.733	35619.64
518.935	36170.54
519.136	36361
519.338	37253.92
519.54	38093.58
519.742	38757.13
519.944	39230.21
520.146	39875.32
520.348	40078.07
520.55	40702.7
520.752	41415.39
520.954	42074.84
521.155	42105.55
521.357	43090.63
521.559	43664.06
521.761	44006.07
521.963	44231.35
522.164	44999.33
522.366	45273.76
522.568	45904.54
522.77	46230.16
522.971	46793.36
523.173	46772.88
523.375	47438.47
523.576	47368.83
523.778	47723.13
523.98	47692.41
524.181	48501.36
524.383	48745.07
524.584	48693.87
524.786	48870
524.988	48511.6
525.189	49648.22
525.391	49744.48
525.592	49517.15
525.794	49832.54
525.995	49308.26
526.197	49355.36
526.398	49396.32
526.6	49398.37
526.801	49324.64
527.003	48751.21
527.204	49003.11
527.406	49410.66
527.607	48679.53
527.808	49054.31
528.01	47833.72
528.211	47925.88
528.412	48599.66
528.614	47942.27
528.815	47383.17
529.016	47536.77
529.218	46656.14
529.419	46629.52
529.62	46340.75
529.822	45716.12
530.023	45697.69
530.224	45224.61
530.425	44638.89
530.626	44128.95
530.828	43598.52
531.029	43752.12
531.23	42635.98
531.431	42449.61
531.632	42398.41
531.833	41992.92
532.035	40911.59
532.236	40964.84
532.437	40186.61
532.638	39768.82
532.839	39138.05
533.04	39045.89
533.241	38476.55
533.442	38552.33
533.643	37550.87
533.844	36993.82
534.045	36461.35
534.246	36264.75
534.447	35754.8
534.648	35091.26
534.849	34720.58
535.05	33663.83
535.251	33747.79
535.451	33135.45
535.652	33389.4
535.853	32531.3
536.054	32113.52
536.255	31779.7
536.456	31011.71
536.657	31120.25
536.857	30538.63
537.058	29883.28
537.259	29752.21
537.46	29315.99
537.66	28793.76
537.861	28244.9
538.062	27808.69
538.263	27558.83
538.463	27524.02
538.664	27028.41
538.865	26756.03
539.065	26368.96
539.266	26065.86
539.466	26078.15
539.667	25355.22
539.868	25525.2
540.068	24763.36
540.269	24562.65
540.469	24488.93
540.67	23882.73
540.87	23606.25
541.071	23284.72
541.271	23448.56
541.472	23086.07
541.672	22780.92
541.873	22330.37
542.073	21845
542.274	21816.33
542.474	21550.09
542.675	21154.83
542.875	21134.35
543.075	21013.52
543.276	20417.57
543.476	20685.85
543.676	20132.9
543.877	20087.84
544.077	19655.72
544.277	19452.97
544.478	19246.13
544.678	19153.97
544.878	18797.62
545.078	18529.34
545.279	18316.35
545.479	18074.69
545.679	18099.27
545.879	18062.4
546.079	17470.54
546.28	17323.08
546.48	17511.5
546.68	17056.85
546.88	16856.15
547.08	16671.83
547.28	16372.83
547.48	16221.28
547.68	16178.27
547.88	15791.2
548.081	15711.33
548.281	15537.26
548.481	15156.33
548.681	15295.6
548.881	14926.96
549.081	14810.23
549.28	14396.54
549.48	14316.67
549.68	14115.97
549.88	14222.46
550.08	13597.83
550.28	13800.58
550.48	13624.45
550.68	13358.22
550.88	13169.8
551.08	12739.73
551.279	12866.7
551.479	12506.26
551.679	12479.64
551.879	12068
552.079	11975.84
552.278	11701.41
552.478	11850.91
552.678	11660.45
552.878	11619.49
553.077	11035.82
553.277	10839.22
553.477	10773.68
553.676	10687.67
553.876	10706.1
554.076	10200.25
554.275	10228.92
554.475	9966.78
554.674	9966.78
554.874	9581.76
555.074	9524.42
555.273	9323.72
555.473	9399.49
555.672	9045.2
555.872	9008.33
556.071	8711.38
556.271	8815.82
556.47	8563.92
556.67	8525.01
556.869	8121.56
557.068	8109.27
557.268	7816.41
557.467	7793.89
557.667	7703.78
557.866	7671.01
558.065	7433.44
558.265	7279.85
558.464	7267.56
558.663	7058.67
558.863	6958.32
559.062	6886.64
559.261	6765.81
559.461	6784.24
559.66	6536.43
559.859	6395.12
560.058	6167.8
560.258	6153.46
560.457	6159.61
560.656	6126.84
560.855	5795.07
561.054	5965.05
561.253	5856.51
561.453	5817.6
561.652	5592.32
561.851	5506.31
562.05	5430.53
562.249	5147.91
562.448	5379.33
562.647	5278.98
562.846	5256.45
563.045	5229.83
563.244	5057.8
563.443	5000.46
563.642	4697.36
563.841	4789.52
564.04	4607.25
564.239	4648.21
564.438	4408.59
564.637	4179.22
564.836	4490.51
565.035	4177.17
565.234	4281.62
565.432	4279.57
565.631	4211.99
565.83	4078.87
566.029	4056.34
566.228	3986.71
566.427	4037.91
566.625	3601.69
566.824	3755.29
567.023	3814.68
567.222	3628.32
567.42	3652.89
567.619	3579.17
567.818	3601.69
568.016	3603.74
568.215	3435.81
568.414	3415.33
568.612	3321.12
568.811	3249.44
569.01	3210.53
569.208	3124.52
569.407	3124.52
569.605	3130.66
569.804	3036.45
570.002	3005.74
570.201	2929.96
570.4	2886.95
570.598	2770.22
570.797	2784.55
570.995	2780.46
571.193	2706.73
571.392	2747.69
571.59	2647.34
571.789	2649.39
571.987	2729.26
572.186	2692.4
572.384	2526.51
572.582	2417.97
572.781	2587.95
572.979	2190.64
573.177	2344.24
573.376	2454.83
573.574	2340.15
573.772	2131.25
573.971	2151.73
574.169	2028.85
574.367	2143.54
574.565	2096.44
574.763	2039.09
574.962	2065.72
575.16	1996.09
575.358	1981.75
575.556	1813.82
575.754	1996.09
575.952	1858.87
576.151	1856.83
576.349	1774.91
576.547	1779
576.745	1793.34
576.943	1850.68
577.141	1764.67
577.339	1609.02
577.537	1772.86
577.735	1717.56
577.933	1649.98
578.131	1494.33
578.329	1643.84
578.527	1504.57
578.725	1482.05
578.923	1379.65
579.121	1535.29
579.319	1363.26
579.516	1467.71
579.714	1545.53
579.912	1477.95
580.11	1129.8
580.308	1244.48
580.506	1359.17
580.704	1181
580.901	1211.71
581.099	1287.49
581.297	1303.87
581.495	1191.24
581.692	1131.84
581.89	1277.25
582.088	1244.48
582.285	1127.75
582.483	1029.45
582.681	1162.56
582.878	1191.24
583.076	984.39
583.274	1066.31
583.471	1127.75
583.669	994.63
583.866	886.09
584.064	961.86
584.262	961.86
584.459	908.62
584.657	992.58
584.854	1000.77
585.052	929.1
585.249	1006.92
585.447	865.61
585.644	849.22
585.841	963.91
586.039	1025.35
586.236	980.29
586.434	836.94
586.631	795.98
586.828	808.27
587.026	884.04
587.223	730.44
587.42	718.15
587.618	824.65
587.815	974.15
588.012	767.31
588.21	736.59
588.407	712.01
588.604	841.03
588.801	673.1
588.999	664.91
589.196	802.12
589.393	558.41
589.59	802.12
589.787	703.82
589.984	720.2
590.182	580.94
590.379	671.05
590.576	693.58
590.773	652.62
590.97	673.1
591.167	785.74
591.364	750.92
591.561	619.85
591.758	726.35
591.955	683.34
592.152	660.81
592.349	658.76
592.546	605.52
592.743	576.84
592.94	646.48
593.137	542.03
593.334	740.68
593.531	714.06
593.727	679.24
593.924	650.57
594.121	671.05
594.318	648.52
594.515	728.39
594.712	832.84
594.908	877.9
595.105	556.36
595.302	765.26
595.499	718.15
595.696	789.83
595.892	771.4
596.089	759.11
596.286	701.77
596.482	843.08
596.679	755.02
596.876	693.58
597.072	849.22
597.269	810.31
597.466	847.18
597.662	871.75
597.859	902.47
598.055	867.66
598.252	986.44
598.448	1025.35
598.645	1086.79
598.841	972.1
599.038	1166.66
599.234	1121.6
599.431	1084.74
599.627	1137.99
599.824	1258.82
600.02	1199.43
600.217	1279.3
600.413	1377.6
600.609	1365.31
600.806	1621.31
601.002	1480
601.198	1594.69
601.395	1711.42
601.591	1639.74
601.787	1674.56
601.984	1977.66
602.18	1871.16
602.376	1908.02
602.572	2092.34
602.769	2112.82
602.965	2102.58
603.161	2372.91
603.357	2327.86
603.553	2473.26
603.75	2366.77
603.946	2411.82
604.142	2596.14
604.338	2833.71
604.534	2747.69
604.73	2868.52
604.926	2815.27
605.122	3167.53
605.318	3069.22
605.514	3220.77
605.71	3251.49
605.906	3527.97
606.102	3515.68
606.298	3689.76
606.494	3804.44
606.69	3999
606.886	3986.71
607.082	4066.58
607.278	4267.28
607.474	4345.11
607.67	4461.84
607.866	4474.13
608.062	4840.72
608.257	4920.59
608.453	5000.46
608.649	5102.86
608.845	5090.57
609.041	5281.03
609.236	5491.97
609.432	5664
609.628	5956.86
609.824	6096.12
610.019	6053.11
610.215	6286.58
610.411	6491.38
610.606	6702.32
610.802	6841.58
610.998	6939.88
611.193	7148.78
611.389	7249.13
611.584	7642.34
611.78	7496.93
611.976	7890.14
612.171	8342.74
612.367	8336.6
612.562	8455.38
612.758	8703.18
612.953	8821.97
613.149	9219.27
613.344	9434.31
613.539	9637.06
613.735	9819.33
613.93	10083.52
614.126	10230.97
614.321	10745.01
614.517	11091.12
614.712	11134.12
614.907	11324.58
615.103	12002.46
615.298	11869.34
615.493	12344.47
615.688	12612.76
615.884	13180.04
616.079	13122.7
616.274	13722.76
616.47	13954.18
616.665	14589.05
616.86	14705.78
617.055	15012.98
617.25	15303.79
617.445	15946.85
617.641	15983.71
617.836	16729.17
618.031	16839.76
618.226	17564.75
618.421	17747.01
618.616	18304.06
618.811	18431.04
619.006	18840.63
619.201	19172.4
619.396	20093.99
619.591	20063.27
619.786	20784.15
619.981	20937.75
620.176	21697.55
620.371	22107.14
620.566	22580.22
620.761	22922.23
620.956	23438.32
621.151	23630.83
621.346	24490.98
621.541	24814.55
621.735	25404.37
621.93	25689.04
622.125	26104.78
622.32	25981.9
622.515	27012.03
622.709	27530.16
622.904	28199.85
623.099	28603.3
623.294	29428.63
623.488	29066.14
623.683	30053.26
623.878	30153.61
624.072	31187.83
624.267	31261.56
624.462	32002.92
624.656	31812.46
624.851	32830.3
625.046	33123.16
625.24	33518.42
625.435	34200.4
625.629	34921.28
625.824	34845.51
626.018	35584.82
626.213	35394.36
626.407	36244.27
626.602	36297.52
626.796	37286.68
626.991	37534.49
627.185	37595.93
627.38	38013.71
627.574	38112.02
627.768	38558.47
627.963	38273.81
628.157	38529.8
628.352	39191.3
628.546	38585.1
628.74	39518.97
628.935	38949.63
629.129	39326.46
629.323	38931.2
629.517	38763.27
629.712	38376.2
629.906	38064.91
630.1	37935.89
630.294	37583.64
630.489	37178.14
630.683	37090.08
630.877	35937.07
631.071	35660.6
631.265	35267.39
631.459	34399.05
631.653	33719.12
631.848	33327.96
632.042	32496.49
632.236	31998.83
632.43	30606.21
632.624	29971.34
632.818	29303.7
633.012	28298.15
633.206	27419.57
633.4	26954.68
633.594	25766.86
633.788	24947.67
633.982	24013.8
634.176	23614.44
634.369	22025.22
634.563	21814.28
634.757	20673.56
634.951	20194.34
635.145	19561.51
635.339	18900.02
635.533	17761.35
635.726	17359.95
635.92	16278.62
636.114	15615.08
636.308	15098.99
636.501	14630.01
636.695	13941.89
636.889	13366.41
637.083	12645.52
637.276	12289.18
637.47	11660.45
637.664	11502.76
637.857	11066.54
638.051	10400.95
638.244	10009.79
638.438	9540.8
638.632	9379.01
638.825	8826.06
639.019	8715.47
639.212	8088.79
639.406	7832.8
639.599	7482.6
639.793	7490.79
639.986	6941.93
640.18	6710.51
640.373	6444.28
640.567	6241.53
640.76	5911.8
640.954	5690.62
641.147	5405.95
641.34	5190.92
641.534	5254.41
641.727	4863.24
641.92	4816.14
642.114	4658.45
642.307	4410.64
642.5	4160.79
642.694	4072.73
642.887	3845.4
643.08	3786.01
643.273	3654.94
643.467	3437.86
643.66	3276.07
643.853	3267.88
644.046	3097.89
644.239	2956.58
644.432	2934.06
644.626	2712.88
644.819	2655.53
645.012	2544.94
645.205	2432.3
645.398	2458.93
645.591	2286.9
645.784	2075.96
645.977	2039.09
646.17	2030.9
646.363	2026.81
646.556	1772.86
646.749	1774.91
646.942	1776.95
647.135	1674.56
647.328	1555.77
647.521	1658.17
647.714	1535.29
647.907	1514.81
648.099	1400.13
648.292	1398.08
648.485	1348.93
648.678	1256.77
648.871	1109.32
649.064	1152.32
649.256	1127.75
649.449	1088.84
649.642	937.29
649.835	986.44
650.027	961.86
650.22	951.62
650.413	920.9
650.605	902.47
650.798	808.27
650.991	752.97
651.183	793.93
651.376	703.82
651.568	720.2
651.761	582.99
651.954	687.43
652.146	652.62
652.339	728.39
652.531	677.19
652.724	599.37
652.916	535.89
653.109	390.48
653.301	628.04
653.494	507.21
653.686	576.84
653.879	613.71
654.071	568.65
654.263	470.35
654.456	480.59
654.648	558.41
654.84	490.83
655.033	388.43
655.225	593.23
655.417	296.27
655.61	576.84
655.802	501.07
655.994	421.2
656.186	324.94
656.379	466.25
656.571	380.24
656.763	410.96
656.955	273.75
657.148	384.34
657.34	404.82
657.532	263.51
657.724	326.99
657.916	288.08
658.108	435.53
658.3	376.14
658.492	370
658.684	259.41
658.876	376.14
659.068	249.17
659.26	181.59
659.452	152.91
659.644	288.08
659.836	374.1
660.028	251.22
660.22	183.63
660.412	261.46
660.604	279.89
660.796	230.74
660.988	292.18
661.18	245.07
661.372	312.66
661.563	232.79
661.755	261.46
661.947	136.53
662.139	220.5
662.331	234.83
662.522	210.26
662.714	167.25
662.906	226.64
663.097	218.45
663.289	124.24
663.481	124.24
663.673	222.55
663.864	183.63
664.056	249.17
664.247	165.2
664.439	218.45
664.631	179.54
664.822	154.96
665.014	224.59
665.205	81.24
665.397	124.24
665.588	175.44
665.78	140.63
665.971	146.77
666.163	138.58
666.354	212.31
666.546	206.16
666.737	175.44
666.929	114
667.12	93.52
667.311	218.45
667.503	146.77
667.694	171.35
667.885	159.06
668.077	216.4
668.268	77.14
668.459	130.39
668.651	140.63
668.842	148.82
669.033	56.66
669.224	99.67
669.416	298.32
669.607	116.05
669.798	148.82
669.989	206.16
670.18	154.96
670.371	163.15
670.563	103.76
670.754	222.55
670.945	251.22
671.136	220.5
671.327	36.18
671.518	302.42
671.709	193.87
671.9	204.11
672.091	177.49
672.282	134.48
672.473	191.83
672.664	81.24
672.855	191.83
673.046	202.07
673.237	189.78
673.428	243.03
673.619	208.21
673.809	71
674	275.79
674.191	331.09
674.382	187.73
674.573	183.63
674.764	204.11
674.954	298.32
675.145	128.34
675.336	187.73
675.527	142.68
675.717	218.45
675.908	71
676.099	114
676.289	206.16
676.48	62.8
676.671	157.01
676.861	154.96
677.052	236.88
677.243	200.02
677.433	138.58
677.624	193.87
677.814	269.65
678.005	154.96
678.195	314.7
678.386	116.05
678.576	269.65
678.767	124.24
678.957	171.35
679.148	353.62
679.338	306.51
679.529	292.18
679.719	236.88
679.909	288.08
680.1	290.13
680.29	257.36
680.481	185.68
680.671	288.08
680.861	257.36
681.052	292.18
681.242	249.17
681.432	226.64
681.622	261.46
681.813	212.31
682.003	296.27
682.193	109.91
682.383	224.59
682.573	234.83
682.764	228.69
682.954	173.39
683.144	277.84
683.334	216.4
683.524	210.26
683.714	365.9
683.904	263.51
684.094	269.65
684.284	343.38
684.474	435.53
684.664	277.84
684.854	281.94
685.044	257.36
685.234	206.16
685.424	279.89
685.614	181.59
685.804	351.57
685.994	320.85
686.184	294.22
686.374	251.22
686.564	283.98
686.753	281.94
686.943	245.07
687.133	222.55
687.323	226.64
687.513	357.71
687.702	263.51
687.892	310.61
688.082	292.18
688.272	337.23
688.461	263.51
688.651	400.72
688.841	277.84
689.03	263.51
689.22	265.55
689.41	322.9
689.599	283.98
689.789	161.11
689.979	380.24
690.168	277.84
690.358	292.18
690.547	304.46
690.737	357.71
690.926	304.46
691.116	382.29
691.305	326.99
691.495	392.53
691.684	214.35
691.874	234.83
692.063	249.17
692.252	347.47
692.442	335.18
692.631	243.03
692.82	324.94
693.01	259.41
693.199	195.92
693.388	337.23
693.578	179.54
693.767	326.99
693.956	283.98
694.146	238.93
694.335	238.93
694.524	230.74
694.713	349.52
694.902	245.07
695.092	179.54
695.281	183.63
695.47	214.35
695.659	159.06
695.848	261.46
696.037	187.73
696.226	306.51
696.415	230.74
696.604	363.86
696.793	339.28
696.982	134.48
697.171	359.76
697.36	177.49
697.549	265.55
697.738	85.33
697.927	212.31
698.116	208.21
698.305	326.99
698.494	290.13
698.683	261.46
698.872	351.57
699.061	245.07
699.25	283.98
699.438	206.16
699.627	236.88
699.816	386.38
700.005	124.24
700.193	208.21
700.382	310.61
700.571	286.03
700.76	277.84
700.948	333.14
701.137	200.02
701.326	388.43
701.514	202.07
701.703	290.13
701.892	193.87
702.08	402.77
702.269	247.12
702.457	132.44
702.646	339.28
702.834	224.59
703.023	238.93
703.212	296.27
703.4	236.88
703.589	189.78
703.777	138.58
703.965	251.22
704.154	159.06
704.342	132.44
704.531	204.11
704.719	208.21
704.907	277.84
705.096	222.55
705.284	195.92
705.472	220.5
705.661	255.31
705.849	308.56
706.037	286.03
706.226	267.6
706.414	230.74
706.602	183.63
706.79	195.92
706.979	163.15
707.167	261.46
707.355	187.73
707.543	249.17
707.731	212.31
707.919	255.31
708.107	185.68
708.296	185.68
708.484	130.39
708.672	294.22
708.86	195.92
709.048	234.83
709.236	144.72
709.424	355.66
709.612	236.88
709.8	124.24
709.988	302.42
710.176	273.75
710.364	335.18
710.551	200.02
710.739	259.41
710.927	202.07
711.115	238.93
711.303	326.99
711.491	408.91
711.679	224.59
711.866	300.37
712.054	142.68
712.242	320.85
712.43	333.14
712.617	197.97
712.805	337.23
712.993	267.6
713.181	150.87
713.368	331.09
713.556	222.55
713.744	195.92
713.931	406.86
714.119	265.55
714.306	214.35
714.494	218.45
714.682	283.98
714.869	218.45
715.057	298.32
715.244	193.87
715.432	296.27
715.619	277.84
715.807	273.75
715.994	230.74
716.182	281.94
716.369	300.37
716.556	355.66
716.744	161.11
716.931	169.3
717.119	324.94
717.306	277.84
717.493	152.91
717.681	144.72
717.868	228.69
718.055	288.08
718.242	220.5
718.43	300.37
718.617	343.38
718.804	275.79
718.991	408.91
719.179	296.27
719.366	306.51
719.553	460.11
719.74	322.9
719.927	281.94
720.114	286.03
720.301	230.74
720.488	222.55
720.676	265.55
720.863	380.24
721.05	441.68
721.237	339.28
721.424	335.18
721.611	169.3
721.798	189.78
721.985	298.32
722.172	197.97
722.358	294.22
722.545	433.49
722.732	304.46
722.919	386.38
723.106	326.99
723.293	240.98
723.48	316.75
723.667	204.11
723.853	329.04
724.04	392.53
724.227	365.9
724.414	308.56
724.6	343.38
724.787	425.29
724.974	413.01
725.161	257.36
725.347	220.5
725.534	269.65
725.72	333.14
725.907	384.34
726.094	365.9
726.28	271.7
726.467	300.37
726.653	208.21
726.84	437.58
727.027	456.01
727.213	357.71
727.4	333.14
727.586	363.86
727.773	240.98
727.959	324.94
728.145	355.66
728.332	314.7
728.518	281.94
728.705	406.86
728.891	306.51
729.077	333.14
729.264	277.84
729.45	343.38
729.636	382.29
729.823	374.1
730.009	271.7
730.195	388.43
730.382	376.14
730.568	259.41
730.754	269.65
730.94	294.22
731.126	290.13
731.313	406.86
731.499	302.42
731.685	390.48
731.871	425.29
732.057	423.25
732.243	359.76
732.429	337.23
732.615	456.01
732.801	326.99
732.987	324.94
733.173	318.8
733.359	329.04
733.545	349.52
733.731	320.85
733.917	435.53
734.103	370
734.289	380.24
734.475	316.75
734.661	546.13
734.847	277.84
735.033	298.32
735.219	437.58
735.404	294.22
735.59	339.28
735.776	300.37
735.962	329.04
736.148	343.38
736.333	494.93
736.519	370
736.705	374.1
736.89	333.14
737.076	437.58
737.262	306.51
737.447	273.75
737.633	218.45
737.819	435.53
738.004	372.05
738.19	324.94
738.375	343.38
738.561	429.39
738.747	335.18
738.932	288.08
739.118	421.2
739.303	408.91
739.489	394.58
739.674	230.74
739.859	253.27
740.045	413.01
740.23	265.55
740.416	210.26
740.601	275.79
740.786	384.34
740.972	343.38
741.157	390.48
741.342	218.45
741.528	320.85
741.713	431.44
741.898	306.51
742.084	322.9
742.269	312.66
742.454	419.15
742.639	460.11
742.824	341.33
743.01	466.25
743.195	456.01
743.38	345.42
743.565	257.36
743.75	281.94
743.935	425.29
744.12	378.19
744.305	283.98
744.49	355.66
744.675	302.42
744.86	269.65
745.045	439.63
745.23	386.38
745.415	380.24
745.6	488.78
745.785	331.09
745.97	394.58
746.155	429.39
746.34	386.38
746.525	367.95
746.71	529.74
746.895	247.12
747.079	230.74
747.264	372.05
747.449	419.15
747.634	394.58
747.819	374.1
748.003	314.7
748.188	216.4
748.373	322.9
748.557	290.13
748.742	329.04
748.927	335.18
749.111	275.79
749.296	304.46
749.481	398.67
749.665	310.61
749.85	259.41
750.034	359.76
750.219	349.52
750.404	283.98
750.588	396.62
750.773	226.64
750.957	263.51
751.141	257.36
751.326	392.53
751.51	187.73
751.695	304.46
751.879	298.32
752.064	359.76
752.248	230.74
752.432	365.9
752.617	376.14
752.801	331.09
752.985	245.07
753.17	410.96
753.354	286.03
753.538	263.51
753.722	259.41
753.907	218.45
754.091	189.78
754.275	326.99
754.459	167.25
754.643	181.59
754.828	349.52
755.012	232.79
755.196	132.44
755.38	228.69
755.564	167.25
755.748	341.33
755.932	286.03
756.116	210.26
756.3	314.7
756.484	175.44
756.668	275.79
756.852	42.32
757.036	197.97
757.22	210.26
757.404	189.78
757.588	249.17
757.772	271.7
757.956	118.1
758.14	279.89
758.323	179.54
758.507	255.31
758.691	204.11
758.875	249.17
759.059	269.65
759.242	173.39
759.426	181.59
759.61	279.89
759.794	118.1
759.977	253.27
760.161	425.29
760.345	230.74
760.528	294.22
760.712	240.98
760.895	224.59
761.079	212.31
761.263	130.39
761.446	93.52
761.63	142.68
761.813	255.31
761.997	118.1
762.18	154.96
762.364	183.63
762.547	124.24
762.731	234.83
762.914	189.78
763.098	202.07
763.281	109.91
763.464	58.71
763.648	165.2
763.831	150.87
764.015	116.05
764.198	234.83
764.381	122.2
764.564	109.91
764.748	132.44
764.931	159.06
765.114	103.76
765.297	214.35
765.481	118.1
765.664	159.06
765.847	107.86
766.03	245.07
766.213	52.56
766.397	185.68
766.58	118.1
766.763	124.24
766.946	144.72
767.129	159.06
767.312	144.72
767.495	146.77
767.678	66.9
767.861	83.28
768.044	142.68
768.227	89.43
768.41	138.58
768.593	148.82
768.776	240.98
768.959	116.05
769.142	232.79
769.324	101.72
769.507	167.25
769.69	157.01
769.873	101.72
770.056	365.9
770.239	218.45
770.421	204.11
770.604	167.25
770.787	146.77
770.97	83.28
771.152	116.05
771.335	243.03
771.518	77.14
771.7	243.03
771.883	220.5
772.066	93.52
772.248	148.82
772.431	204.11
772.613	105.81
772.796	144.72
772.978	56.66
773.161	243.03
773.343	157.01
773.526	44.37
773.708	-25.26
773.891	107.86
774.073	109.91
774.256	34.13
774.438	204.11
774.621	132.44
774.803	130.39
774.985	68.95
775.168	173.39
775.35	101.72
775.532	165.2
775.715	-6.83
775.897	128.34
776.079	52.56
776.261	105.81
776.444	97.62
776.626	128.34
776.808	52.56
776.99	64.85
777.173	146.77
777.355	58.71
777.537	75.09
777.719	142.68
777.901	50.52
778.083	44.37
778.265	81.24
778.447	95.57
778.629	81.24
778.811	103.76
778.993	146.77
779.175	150.87
779.357	105.81
779.539	3.41
779.721	48.47
779.903	152.91
780.085	9.56
780.267	79.19
780.449	107.86
780.631	85.33
780.812	253.27
780.994	107.86
781.176	17.75
781.358	27.99
781.54	58.71
781.721	95.57
781.903	152.91
782.085	38.23
782.267	146.77
782.448	25.94
782.63	97.62
782.812	52.56
782.993	150.87
783.175	97.62
783.357	19.8
783.538	64.85
783.72	-25.26
783.901	48.47
784.083	107.86
784.264	173.39
784.446	-94.89
784.627	46.42
784.809	68.95
784.99	114
785.172	159.06
785.353	25.94
785.535	128.34
785.716	38.23
785.897	9.56
786.079	58.71
786.26	23.89
786.441	128.34
786.623	-29.35
786.804	-49.83
786.985	56.66
787.167	48.47
787.348	52.56
787.529	97.62
787.71	152.91
787.891	13.65
788.073	3.41
788.254	-21.16
788.435	249.17
788.616	56.66
788.797	-45.74
788.978	50.52
789.159	-21.16
789.34	89.43
789.522	56.66
789.703	62.8
789.884	52.56
790.065	36.18
790.246	142.68
790.427	13.65
790.607	130.39
790.788	58.71
790.969	-17.07
791.15	38.23
791.331	52.56
791.512	3.41
791.693	-23.21
791.874	38.23
792.054	197.97
792.235	128.34
792.416	54.61
792.597	32.08
792.778	81.24
792.958	81.24
793.139	75.09
793.32	81.24
793.5	-12.97
793.681	210.26
793.862	54.61
794.042	73.04
794.223	-37.55
794.404	46.42
794.584	-23.21
794.765	56.66
794.945	124.24
795.126	107.86
795.306	116.05
795.487	54.61
795.667	19.8
795.848	50.52
796.028	50.52
796.209	30.04
796.389	68.95
796.57	38.23
796.75	-31.4
796.93	1.37
797.111	32.08
797.291	21.85
797.471	50.52
797.652	-12.97
797.832	19.8
798.012	56.66
798.192	32.08
798.373	-39.59
798.553	11.61
798.733	60.76
798.913	32.08
799.093	-21.16
799.274	89.43
799.454	15.7
799.634	73.04
799.814	122.2
799.994	30.04
800.174	13.65
800.354	75.09
800.534	-109.22
800.714	46.42
800.894	-0.68
801.074	-29.35
801.254	-23.21
801.434	146.77
801.614	48.47
801.794	-105.13
801.974	1733.95
802.154	19.8
802.334	71
802.514	-70.31
802.693	-17.07
802.873	-51.88
803.053	130.39
803.233	17.75
803.413	-6.83
803.592	-33.45
803.772	-25.26
803.952	107.86
804.131	-68.27
804.311	40.28
804.491	122.2
804.67	46.42
804.85	-76.46
805.03	66.9
805.209	68.95
805.389	36.18
805.568	-17.07
805.748	75.09
805.928	32.08
806.107	38.23
806.287	142.68
806.466	85.33
806.646	32.08
806.825	-12.97
807.004	5.46
807.184	71
807.363	23.89
807.543	85.33
807.722	-41.64
807.901	132.44
808.081	109.91
808.26	-125.61
808.439	-43.69
808.619	25.94
808.798	-8.87
808.977	36.18
809.156	83.28
809.336	32.08
809.515	122.2
809.694	-10.92
809.873	-37.55
810.052	126.29
810.231	89.43
810.411	25.94
810.59	95.57
810.769	-55.98
810.948	124.24
811.127	-137.9
811.306	15.7
811.485	-12.97
811.664	204.11
811.843	71
812.022	85.33
812.201	-60.07
812.38	38.23
812.559	7.51
812.737	48.47
812.916	-119.46
813.095	-8.87
813.274	62.8
813.453	-15.02
813.632	27.99
813.811	56.66
813.989	-55.98
814.168	23.89
814.347	-6.83
814.526	48.47
814.704	50.52
814.883	177.49
815.062	15.7
815.24	77.14
815.419	19.8
815.598	103.76
815.776	-47.79
815.955	23.89
816.133	-55.98
816.312	77.14
816.49	15.7
816.669	5.46
816.847	27.99
817.026	58.71
817.204	-23.21
817.383	9.56
817.561	-47.79
817.74	58.71
817.918	-72.36
818.097	-25.26
818.275	64.85
818.453	-2.73
818.632	64.85
818.81	-2.73
818.988	25.94
819.167	-90.79
819.345	40.28
819.523	-12.97
819.701	32.08
819.879	103.76
820.058	50.52
820.236	15.7
820.414	-43.69
820.592	-2.73
820.77	17.75
820.948	-98.99
821.127	-119.46
821.305	30.04
821.483	-135.85
821.661	140.63
821.839	15.7
822.017	-60.07
822.195	-68.27
822.373	132.44
822.551	-15.02
822.729	58.71
822.907	-133.8
823.085	36.18
823.262	-27.31
823.44	-25.26
823.618	-21.16
823.796	-12.97
823.974	25.94
824.152	23.89
824.329	93.52
824.507	-0.68
824.685	77.14
824.863	36.18
825.04	7.51
825.218	36.18
825.396	25.94
825.574	7.51
825.751	-39.59
825.929	54.61
826.107	-70.31
826.284	38.23
826.462	13.65
826.639	-33.45
826.817	-35.5
826.994	21.85
827.172	-70.31
827.349	130.39
827.527	38.23
827.704	-6.83
827.882	68.95
828.059	27.99
828.237	21.85
828.414	89.43
828.591	-53.93
828.769	-12.97
828.946	-58.03
829.124	54.61
829.301	97.62
829.478	1.37
829.655	46.42
829.833	19.8
830.01	-90.79
830.187	107.86
830.364	17.75
830.542	91.48
830.719	97.62
830.896	52.56
831.073	25.94
831.25	32.08
831.427	68.95
831.604	-41.64
831.782	-12.97
831.959	25.94
832.136	60.76
832.313	21.85
832.49	-27.31
832.667	87.38
832.844	-25.26
833.021	128.34
833.198	32.08
833.374	99.67
833.551	50.52
833.728	-17.07
833.905	91.48
834.082	-127.66
834.259	36.18
834.436	60.76
834.612	-25.26
834.789	-12.97
834.966	9.56
835.143	50.52
835.319	-80.55
835.496	40.28
835.673	66.9
835.85	107.86
836.026	-74.41
836.203	173.39
836.38	-21.16
836.556	11.61
836.733	-78.51
836.909	142.68
837.086	-6.83
837.262	-68.27
837.439	21.85
837.616	-55.98
837.792	-0.68
837.968	-115.37
838.145	-141.99
838.321	5.46
838.498	-8.87
838.674	44.37
838.851	52.56
839.027	-62.12
839.203	-21.16
839.38	11.61
839.556	-131.75
839.732	128.34
839.909	-45.74
840.085	7.51
840.261	34.13
840.437	87.38
840.614	9.56
840.79	152.91
840.966	-2.73
841.142	-29.35
841.318	-0.68
841.494	99.67
841.671	101.72
841.847	-45.74
842.023	-64.17
842.199	32.08
842.375	64.85
842.551	-17.07
842.727	3.41
842.903	167.25
843.079	-111.27
843.255	109.91
843.431	11.61
843.607	-4.78
843.783	-82.6
843.959	13.65
844.134	-47.79
844.31	101.72
844.486	-62.12
844.662	-53.93
844.838	-0.68
845.013	71
845.189	54.61
845.365	64.85
845.541	-41.64
845.716	38.23
845.892	114
846.068	40.28
846.244	-23.21
846.419	66.9
846.595	-29.35
846.77	-10.92
846.946	95.57
847.122	-4.78
847.297	7.51
847.473	105.81
847.648	-21.16
847.824	97.62
847.999	-162.47
848.175	-10.92
848.35	11.61
848.526	93.52
848.701	34.13
848.876	128.34
849.052	48.47
849.227	-2.73
849.403	25.94
849.578	1.37
849.753	56.66
849.929	-10.92
850.104	-68.27
850.279	21.85
850.454	21.85
850.63	89.43
850.805	23.89
850.98	-19.11
851.155	-66.22
851.33	52.56
851.505	-101.03
851.681	107.86
851.856	-10.92
852.031	73.04
852.206	48.47
852.381	-111.27
852.556	13.65
852.731	42.32
852.906	40.28
853.081	13.65
853.256	109.91
853.431	-39.59
853.606	-2.73
853.781	-78.51
853.956	-144.04
854.131	36.18
854.305	-66.22
854.48	-35.5
854.655	-78.51
854.83	-62.12
855.005	-10.92
855.18	32.08
855.354	-12.97
855.529	66.9
855.704	-8.87
855.879	71
856.053	-113.32
856.228	38.23
856.403	-76.46
856.577	120.15
856.752	-101.03
856.926	-60.07
857.101	-6.83
857.276	-78.51
857.45	-6.83
857.625	89.43
857.799	-80.55
857.974	-4.78
858.148	-125.61
858.323	77.14
858.497	32.08
858.672	-41.64
858.846	34.13
859.02	25.94
859.195	-35.5
859.369	30.04
859.543	-0.68
859.718	25.94
859.892	-6.83
860.066	60.76
860.241	-2.73
860.415	-58.03
860.589	11.61
860.763	-29.35
860.938	11.61
861.112	64.85
861.286	-45.74
861.46	101.72
861.634	9.56
861.808	54.61
861.982	-70.31
862.157	-70.31
862.331	-4.78
862.505	-35.5
862.679	-88.75
862.853	-31.4
863.027	-43.69
863.201	101.72
863.375	25.94
863.549	38.23
863.722	-29.35
863.896	9.56
864.07	-4.78
864.244	42.32
864.418	-4.78
864.592	-8.87
864.766	-2.73
864.939	11.61
865.113	-39.59
865.287	154.96
865.461	-53.93
865.634	-8.87
865.808	19.8
865.982	-2.73
866.156	-49.83
866.329	-45.74
866.503	-39.59
866.676	99.67
866.85	-23.21
867.024	-55.98
867.197	54.61
867.371	77.14
867.544	30.04
867.718	-45.74
867.891	161.11
868.065	3.41
868.238	-0.68
868.412	128.34
868.585	-6.83
868.759	1.37
868.932	-19.11
869.105	-109.22
869.279	-29.35
869.452	-25.26
869.625	-15.02
869.799	-29.35
869.972	-90.79
870.145	15.7
870.319	32.08
870.492	-0.68
870.665	-45.74
870.838	-98.99
871.011	-127.66
871.185	11.61
871.358	34.13
871.531	58.71
871.704	-82.6
871.877	-6.83
872.05	-31.4
872.223	-84.65
872.396	17.75
872.569	5.46
872.742	-53.93
872.915	44.37
873.088	-58.03
873.261	-107.18
873.434	68.95
873.607	-29.35
873.78	105.81
873.953	-37.55
874.126	-17.07
874.299	23.89
874.471	-35.5
874.644	97.62
874.817	-15.02
874.99	122.2
875.163	-60.07
875.335	36.18
875.508	17.75
875.681	85.33
875.853	-74.41
876.026	52.56
876.199	9.56
876.371	32.08
876.544	-94.89
876.717	46.42
876.889	15.7
877.062	30.04
877.234	-25.26
877.407	34.13
877.579	11.61
877.752	-2.73
877.924	73.04
878.097	38.23
878.269	23.89
878.442	66.9
878.614	-2.73
878.786	-35.5
878.959	101.72
879.131	-4.78
879.303	-96.94
879.476	-41.64
879.648	79.19
879.82	17.75
879.993	-37.55
880.165	-72.36
880.337	-90.79
880.509	-2.73
880.681	-135.85
880.854	34.13
881.026	95.57
881.198	150.87
881.37	7.51
881.542	-12.97
881.714	11.61
881.886	-96.94
882.058	-17.07
882.23	1.37
882.402	1.37
882.574	38.23
882.746	-17.07
882.918	134.48
883.09	40.28
883.262	32.08
883.434	21.85
883.606	-53.93
883.778	-8.87
883.95	71
884.122	101.72
884.293	66.9
884.465	21.85
884.637	54.61
884.809	-12.97
884.98	36.18
885.152	-0.68
885.324	64.85
885.496	-76.46
885.667	-2.73
885.839	44.37
886.011	224.59
886.182	40.28
886.354	36.18
886.525	13.65
886.697	-17.07
886.869	-70.31
887.04	13.65
887.212	81.24
887.383	175.44
887.555	-6.83
887.726	-27.31
887.897	64.85
888.069	-35.5
888.24	79.19
888.412	25.94
888.583	-103.08
888.754	58.71
888.926	-148.14
889.097	-6.83
889.268	-29.35
889.44	-47.79
889.611	-105.13
889.782	-88.75
889.953	-125.61
890.125	128.34
890.296	-45.74
890.467	-47.79
890.638	-117.42
890.809	50.52
890.98	-103.08
891.151	23.89
891.323	126.29
891.494	52.56
891.665	-15.02
891.836	-0.68
892.007	-17.07
892.178	62.8
892.349	73.04
892.52	-139.94
892.691	48.47
892.862	-72.36
893.032	-103.08
893.203	-39.59
893.374	-10.92
893.545	27.99
893.716	-123.56
893.887	58.71
894.057	-111.27
894.228	11.61
894.399	-137.9
894.57	95.57
894.74	93.52
894.911	1.37
895.082	-90.79
895.253	-29.35
895.423	-31.4
895.594	58.71
895.764	32.08
895.935	-107.18
896.106	30.04
896.276	91.48
896.447	66.9
896.617	-4.78
896.788	-103.08
896.958	-12.97
897.129	-51.88
897.299	-80.55
897.47	163.15
897.64	38.23
897.81	-45.74
897.981	-6.83
898.151	-0.68
898.322	38.23
898.492	93.52
898.662	-117.42
898.832	-49.83
899.003	-17.07
899.173	48.47
899.343	-84.65
899.513	-58.03
