Data from USB4F104151__77__10-33-10-943.txt Node

Date: Wed Feb 26 10:33:10 EST 2025
User: louis
Spectrometer: USB4F10415
Trigger mode: 4
Integration Time (sec): 1.000000E-1
Scans to average: 1
Electric dark correction enabled: true
Nonlinearity correction enabled: false
Boxcar width: 0
XAxis mode: Wavelengths
Number of Pixels in Spectrum: 3648
>>>>>Begin Spectral Data<<<<<
178.204	-431.1
178.424	-431.1
178.644	-431.1
178.864	-361.47
179.084	-439.29
179.304	9.22
179.524	-56.32
179.744	25.6
179.964	7.17
180.184	99.33
180.404	78.85
180.624	60.42
180.844	-74.75
181.064	-87.04
181.283	54.27
181.503	-52.22
181.723	-64.51
181.943	-31.74
182.163	199.68
182.383	-82.94
182.602	17.41
182.822	107.52
183.042	54.27
183.262	-23.55
183.482	-1.02
183.701	33.79
183.921	7.17
184.141	-7.17
184.361	136.19
184.58	66.56
184.8	37.89
185.02	-11.26
185.239	162.81
185.459	48.13
185.679	58.37
185.898	-25.6
186.118	50.18
186.338	48.13
186.557	105.47
186.777	7.17
186.997	-7.17
187.216	-15.36
187.436	214.01
187.655	56.32
187.875	123.9
188.095	15.36
188.314	185.34
188.534	105.47
188.753	-3.07
188.973	76.8
189.192	175.1
189.412	-5.12
189.631	29.7
189.851	87.04
190.07	187.39
190.29	-39.94
190.509	27.65
190.729	48.13
190.948	140.29
191.168	238.59
191.387	160.77
191.607	37.89
191.826	52.22
192.045	60.42
192.265	54.27
192.484	33.79
192.704	13.31
192.923	-29.7
193.142	252.92
193.362	207.87
193.581	152.57
193.8	99.33
194.02	101.37
194.239	27.65
194.458	111.61
194.678	9.22
194.897	-3.07
195.116	148.48
195.335	-13.31
195.555	58.37
195.774	66.56
195.993	177.15
196.212	29.7
196.432	-27.65
196.651	13.31
196.87	13.31
197.089	224.25
197.308	93.18
197.528	144.38
197.747	-17.41
197.966	21.5
198.185	173.05
198.404	-1.02
198.623	105.47
198.842	74.75
199.062	70.65
199.281	128
199.5	35.84
199.719	56.32
199.938	52.22
200.157	62.46
200.376	162.81
200.595	84.99
200.814	-3.07
201.033	-1.02
201.252	171.01
201.471	39.94
201.69	130.05
201.909	-3.07
202.128	132.09
202.347	64.51
202.566	37.89
202.785	-56.32
203.004	23.55
203.223	199.68
203.442	103.42
203.661	27.65
203.879	33.79
204.098	199.68
204.317	58.37
204.536	62.46
204.755	115.71
204.974	205.82
205.193	25.6
205.411	121.85
205.63	109.57
205.849	21.5
206.068	3.07
206.287	-64.51
206.505	154.62
206.724	80.89
206.943	44.03
207.162	-25.6
207.381	82.94
207.599	15.36
207.818	-33.79
208.037	-60.42
208.255	35.84
208.474	72.7
208.693	17.41
208.911	-64.51
209.13	60.42
209.349	76.8
209.567	99.33
209.786	93.18
210.005	111.61
210.223	72.7
210.442	-87.04
210.661	9.22
210.879	123.9
211.098	62.46
211.316	142.33
211.535	60.42
211.753	93.18
211.972	66.56
212.191	37.89
212.409	-7.17
212.628	144.38
212.846	-35.84
213.065	64.51
213.283	84.99
213.502	50.18
213.72	54.27
213.938	74.75
214.157	31.74
214.375	121.85
214.594	103.42
214.812	101.37
215.031	-17.41
215.249	5.12
215.467	60.42
215.686	19.46
215.904	7.17
216.122	74.75
216.341	132.09
216.559	44.03
216.778	183.29
216.996	138.24
217.214	-29.7
217.432	52.22
217.651	-9.22
217.869	21.5
218.087	39.94
218.306	37.89
218.524	3.07
218.742	-17.41
218.96	23.55
219.179	89.09
219.397	7.17
219.615	252.92
219.833	117.76
220.051	60.42
220.27	99.33
220.488	123.9
220.706	80.89
220.924	-54.27
221.142	-35.84
221.36	148.48
221.578	-27.65
221.796	99.33
222.015	68.61
222.233	27.65
222.451	228.35
222.669	17.41
222.887	99.33
223.105	-58.37
223.323	5.12
223.541	-89.09
223.759	173.05
223.977	76.8
224.195	166.91
224.413	87.04
224.631	62.46
224.849	80.89
225.067	195.58
225.285	1.02
225.503	-50.18
225.721	-117.76
225.939	7.17
226.157	50.18
226.375	197.63
226.592	31.74
226.81	23.55
227.028	140.29
227.246	113.66
227.464	115.71
227.682	74.75
227.9	31.74
228.117	148.48
228.335	46.08
228.553	27.65
228.771	-29.7
228.989	31.74
229.206	119.81
229.424	11.26
229.642	48.13
229.86	-74.75
230.077	99.33
230.295	29.7
230.513	21.5
230.731	91.13
230.948	158.72
231.166	158.72
231.384	3.07
231.601	7.17
231.819	146.43
232.037	-56.32
232.254	-33.79
232.472	-64.51
232.689	70.65
232.907	74.75
233.125	-54.27
233.342	-3.07
233.56	-48.13
233.777	21.5
233.995	76.8
234.213	109.57
234.43	60.42
234.648	66.56
234.865	46.08
235.083	72.7
235.3	37.89
235.518	152.57
235.735	105.47
235.953	80.89
236.17	-17.41
236.388	62.46
236.605	25.6
236.822	101.37
237.04	187.39
237.257	50.18
237.475	5.12
237.692	72.7
237.909	125.95
238.127	-1.02
238.344	128
238.562	58.37
238.779	-74.75
238.996	7.17
239.214	183.29
239.431	109.57
239.648	-11.26
239.865	27.65
240.083	80.89
240.3	-48.13
240.517	19.46
240.735	60.42
240.952	132.09
241.169	39.94
241.386	44.03
241.603	95.23
241.821	-99.33
242.038	123.9
242.255	93.18
242.472	-3.07
242.689	60.42
242.907	99.33
243.124	52.22
243.341	-44.03
243.558	-25.6
243.775	-82.94
243.992	-72.7
244.209	82.94
244.426	158.72
244.643	152.57
244.86	25.6
245.078	152.57
245.295	31.74
245.512	44.03
245.729	-13.31
245.946	140.29
246.163	91.13
246.38	31.74
246.597	132.09
246.814	76.8
247.031	84.99
247.248	19.46
247.464	9.22
247.681	46.08
247.898	80.89
248.115	37.89
248.332	-15.36
248.549	187.39
248.766	125.95
248.983	46.08
249.2	199.68
249.417	93.18
249.633	-46.08
249.85	62.46
250.067	-37.89
250.284	-46.08
250.501	76.8
250.717	138.24
250.934	-27.65
251.151	46.08
251.368	52.22
251.585	-1.02
251.801	56.32
252.018	-1.02
252.235	142.33
252.451	-25.6
252.668	37.89
252.885	134.14
253.102	13.31
253.318	-27.65
253.535	78.85
253.752	31.74
253.968	13.31
254.185	-44.03
254.401	48.13
254.618	107.52
254.835	41.98
255.051	115.71
255.268	105.47
255.484	48.13
255.701	17.41
255.917	7.17
256.134	-7.17
256.351	27.65
256.567	1.02
256.784	13.31
257	-50.18
257.217	19.46
257.433	134.14
257.65	39.94
257.866	207.87
258.082	-37.89
258.299	11.26
258.515	50.18
258.732	-1.02
258.948	46.08
259.165	97.28
259.381	1.02
259.597	33.79
259.814	58.37
260.03	33.79
260.246	78.85
260.463	158.72
260.679	138.24
260.895	35.84
261.112	187.39
261.328	21.5
261.544	-5.12
261.761	142.33
261.977	-15.36
262.193	-46.08
262.409	160.77
262.626	29.7
262.842	78.85
263.058	-13.31
263.274	97.28
263.49	84.99
263.707	37.89
263.923	134.14
264.139	-23.55
264.355	48.13
264.571	152.57
264.787	74.75
265.004	150.53
265.22	-25.6
265.436	41.98
265.652	37.89
265.868	60.42
266.084	-84.99
266.3	-1.02
266.516	25.6
266.732	9.22
266.948	99.33
267.164	-29.7
267.38	76.8
267.596	125.95
267.812	123.9
268.028	72.7
268.244	44.03
268.46	52.22
268.676	31.74
268.892	78.85
269.108	-21.5
269.324	-5.12
269.54	-56.32
269.756	113.66
269.972	-37.89
270.188	72.7
270.403	19.46
270.619	-19.46
270.835	60.42
271.051	-15.36
271.267	-1.02
271.483	-1.02
271.698	101.37
271.914	62.46
272.13	52.22
272.346	-13.31
272.562	89.09
272.777	130.05
272.993	5.12
273.209	35.84
273.425	72.7
273.64	-35.84
273.856	64.51
274.072	-76.8
274.287	-11.26
274.503	21.5
274.719	31.74
274.934	58.37
275.15	-54.27
275.366	21.5
275.581	-31.74
275.797	-48.13
276.012	56.32
276.228	54.27
276.444	80.89
276.659	154.62
276.875	-29.7
277.09	19.46
277.306	25.6
277.521	48.13
277.737	64.51
277.952	162.81
278.168	68.61
278.383	78.85
278.599	-13.31
278.814	115.71
279.03	50.18
279.245	134.14
279.461	56.32
279.676	101.37
279.892	-113.66
280.107	-1.02
280.322	-9.22
280.538	50.18
280.753	-46.08
280.969	70.65
281.184	5.12
281.399	111.61
281.615	33.79
281.83	107.52
282.045	-54.27
282.26	-13.31
282.476	19.46
282.691	101.37
282.906	78.85
283.122	31.74
283.337	-11.26
283.552	41.98
283.767	3.07
283.983	121.85
284.198	11.26
284.413	35.84
284.628	-105.47
284.843	93.18
285.058	52.22
285.274	-19.46
285.489	-21.5
285.704	44.03
285.919	-21.5
286.134	3.07
286.349	80.89
286.564	-66.56
286.779	113.66
286.995	-37.89
287.21	19.46
287.425	95.23
287.64	3.07
287.855	-3.07
288.07	-54.27
288.285	60.42
288.5	66.56
288.715	48.13
288.93	80.89
289.145	-93.18
289.36	74.75
289.575	27.65
289.79	68.61
290.004	-33.79
290.219	58.37
290.434	46.08
290.649	58.37
290.864	-3.07
291.079	48.13
291.294	48.13
291.509	52.22
291.724	5.12
291.938	-29.7
292.153	50.18
292.368	54.27
292.583	37.89
292.798	62.46
293.012	74.75
293.227	84.99
293.442	41.98
293.657	119.81
293.871	154.62
294.086	52.22
294.301	191.49
294.516	111.61
294.73	64.51
294.945	41.98
295.16	9.22
295.374	148.48
295.589	74.75
295.804	35.84
296.018	70.65
296.233	82.94
296.447	113.66
296.662	-9.22
296.877	109.57
297.091	56.32
297.306	68.61
297.52	-19.46
297.735	19.46
297.949	93.18
298.164	84.99
298.378	23.55
298.593	39.94
298.807	-15.36
299.022	-5.12
299.236	166.91
299.451	1.02
299.665	25.6
299.88	19.46
300.094	9.22
300.309	84.99
300.523	64.51
300.737	52.22
300.952	62.46
301.166	80.89
301.381	-62.46
301.595	-15.36
301.809	-1.02
302.024	62.46
302.238	1.02
302.452	181.25
302.667	27.65
302.881	189.44
303.095	56.32
303.309	101.37
303.524	50.18
303.738	113.66
303.952	-66.56
304.166	33.79
304.381	-62.46
304.595	138.24
304.809	-23.55
305.023	-11.26
305.237	95.23
305.452	-1.02
305.666	130.05
305.88	78.85
306.094	132.09
306.308	134.14
306.522	89.09
306.736	64.51
306.95	97.28
307.164	15.36
307.379	44.03
307.593	171.01
307.807	60.42
308.021	89.09
308.235	132.09
308.449	-44.03
308.663	11.26
308.877	195.58
309.091	25.6
309.305	132.09
309.519	1.02
309.733	89.09
309.947	-39.94
310.161	119.81
310.374	72.7
310.588	156.67
310.802	-41.98
311.016	54.27
311.23	89.09
311.444	-25.6
311.658	7.17
311.872	87.04
312.085	130.05
312.299	160.77
312.513	119.81
312.727	-3.07
312.941	44.03
313.154	44.03
313.368	5.12
313.582	35.84
313.796	39.94
314.009	3.07
314.223	146.43
314.437	23.55
314.651	84.99
314.864	44.03
315.078	11.26
315.292	39.94
315.505	35.84
315.719	87.04
315.933	150.53
316.146	-19.46
316.36	-58.37
316.573	87.04
316.787	52.22
317.001	31.74
317.214	-17.41
317.428	5.12
317.641	-68.61
317.855	-25.6
318.068	89.09
318.282	95.23
318.495	222.2
318.709	70.65
318.922	33.79
319.136	150.53
319.349	111.61
319.563	19.46
319.776	87.04
319.99	-84.99
320.203	82.94
320.417	48.13
320.63	132.09
320.843	123.9
321.057	113.66
321.27	-25.6
321.483	23.55
321.697	117.76
321.91	25.6
322.124	84.99
322.337	60.42
322.55	-19.46
322.763	35.84
322.977	-62.46
323.19	21.5
323.403	74.75
323.617	62.46
323.83	44.03
324.043	5.12
324.256	58.37
324.469	-3.07
324.683	117.76
324.896	31.74
325.109	-9.22
325.322	-62.46
325.535	72.7
325.748	82.94
325.962	97.28
326.175	80.89
326.388	64.51
326.601	93.18
326.814	64.51
327.027	-29.7
327.24	136.19
327.453	-76.8
327.666	125.95
327.879	154.62
328.092	66.56
328.305	27.65
328.518	-15.36
328.731	-17.41
328.944	41.98
329.157	91.13
329.37	1.02
329.583	216.06
329.796	160.77
330.009	-68.61
330.222	91.13
330.435	158.72
330.648	58.37
330.861	62.46
331.073	76.8
331.286	76.8
331.499	33.79
331.712	-31.74
331.925	44.03
332.138	25.6
332.35	101.37
332.563	-91.13
332.776	156.67
332.989	-25.6
333.202	-62.46
333.414	44.03
333.627	70.65
333.84	54.27
334.053	27.65
334.265	11.26
334.478	-7.17
334.691	19.46
334.903	117.76
335.116	19.46
335.329	66.56
335.541	44.03
335.754	203.77
335.966	5.12
336.179	50.18
336.392	52.22
336.604	3.07
336.817	117.76
337.029	41.98
337.242	-9.22
337.454	93.18
337.667	93.18
337.88	130.05
338.092	91.13
338.305	80.89
338.517	-5.12
338.729	119.81
338.942	115.71
339.154	-54.27
339.367	-60.42
339.579	31.74
339.792	-13.31
340.004	68.61
340.217	25.6
340.429	91.13
340.641	15.36
340.854	-101.37
341.066	23.55
341.278	138.24
341.491	152.57
341.703	39.94
341.915	89.09
342.128	52.22
342.34	125.95
342.552	-21.5
342.764	78.85
342.977	29.7
343.189	125.95
343.401	39.94
343.613	-3.07
343.826	78.85
344.038	-54.27
344.25	29.7
344.462	-60.42
344.674	35.84
344.886	-1.02
345.099	41.98
345.311	64.51
345.523	27.65
345.735	-33.79
345.947	119.81
346.159	37.89
346.371	23.55
346.583	23.55
346.795	136.19
347.007	-7.17
347.219	87.04
347.431	60.42
347.643	60.42
347.855	-17.41
348.067	87.04
348.279	-52.22
348.491	87.04
348.703	54.27
348.915	7.17
349.127	13.31
349.339	99.33
349.551	21.5
349.763	58.37
349.975	95.23
350.187	107.52
350.399	105.47
350.61	74.75
350.822	58.37
351.034	17.41
351.246	52.22
351.458	60.42
351.669	97.28
351.881	99.33
352.093	166.91
352.305	154.62
352.517	87.04
352.728	148.48
352.94	70.65
353.152	50.18
353.363	11.26
353.575	80.89
353.787	164.86
353.999	35.84
354.21	166.91
354.422	-41.98
354.633	23.55
354.845	21.5
355.057	46.08
355.268	25.6
355.48	115.71
355.692	-50.18
355.903	-15.36
356.115	-105.47
356.326	-76.8
356.538	105.47
356.749	11.26
356.961	138.24
357.172	84.99
357.384	-56.32
357.595	179.2
357.807	56.32
358.018	37.89
358.23	46.08
358.441	281.6
358.653	37.89
358.864	-1.02
359.075	48.13
359.287	80.89
359.498	46.08
359.709	48.13
359.921	23.55
360.132	46.08
360.344	21.5
360.555	-29.7
360.766	87.04
360.977	11.26
361.189	48.13
361.4	33.79
361.611	93.18
361.823	103.42
362.034	87.04
362.245	-46.08
362.456	54.27
362.667	76.8
362.879	11.26
363.09	23.55
363.301	80.89
363.512	50.18
363.723	-17.41
363.935	-1.02
364.146	56.32
364.357	62.46
364.568	99.33
364.779	-78.85
364.99	166.91
365.201	17.41
365.412	97.28
365.623	-37.89
365.834	93.18
366.045	82.94
366.256	41.98
366.467	41.98
366.678	31.74
366.889	54.27
367.1	52.22
367.311	130.05
367.522	-17.41
367.733	78.85
367.944	41.98
368.155	9.22
368.366	138.24
368.577	70.65
368.788	113.66
368.999	31.74
369.209	46.08
369.42	201.72
369.631	195.58
369.842	117.76
370.053	7.17
370.264	87.04
370.474	-72.7
370.685	44.03
370.896	99.33
371.107	138.24
371.317	-11.26
371.528	27.65
371.739	193.53
371.95	15.36
372.16	72.7
372.371	-87.04
372.582	7.17
372.792	35.84
373.003	68.61
373.214	87.04
373.424	64.51
373.635	-76.8
373.846	91.13
374.056	105.47
374.267	101.37
374.477	84.99
374.688	-9.22
374.898	138.24
375.109	72.7
375.319	17.41
375.53	89.09
375.74	148.48
375.951	-5.12
376.161	68.61
376.372	76.8
376.582	3.07
376.793	107.52
377.003	-37.89
377.214	-33.79
377.424	50.18
377.635	33.79
377.845	-50.18
378.055	150.53
378.266	-44.03
378.476	50.18
378.686	58.37
378.897	48.13
379.107	78.85
379.317	91.13
379.528	-13.31
379.738	95.23
379.948	-21.5
380.158	164.86
380.369	11.26
380.579	29.7
380.789	9.22
380.999	84.99
381.21	216.06
381.42	224.25
381.63	-66.56
381.84	107.52
382.05	27.65
382.261	78.85
382.471	117.76
382.681	15.36
382.891	158.72
383.101	87.04
383.311	15.36
383.521	58.37
383.731	136.19
383.941	72.7
384.151	21.5
384.361	48.13
384.571	25.6
384.781	25.6
384.991	187.39
385.201	132.09
385.411	74.75
385.621	46.08
385.831	58.37
386.041	146.43
386.251	56.32
386.461	39.94
386.671	19.46
386.881	109.57
387.091	-27.65
387.301	158.72
387.511	19.46
387.72	140.29
387.93	177.15
388.14	27.65
388.35	44.03
388.56	142.33
388.769	158.72
388.979	119.81
389.189	46.08
389.399	68.61
389.609	58.37
389.818	1.02
390.028	15.36
390.238	72.7
390.447	9.22
390.657	117.76
390.867	64.51
391.076	-37.89
391.286	84.99
391.496	9.22
391.705	-13.31
391.915	144.38
392.125	140.29
392.334	95.23
392.544	146.43
392.753	-25.6
392.963	58.37
393.172	64.51
393.382	27.65
393.591	119.81
393.801	-19.46
394.01	136.19
394.22	115.71
394.429	-58.37
394.639	78.85
394.848	19.46
395.058	17.41
395.267	72.7
395.477	82.94
395.686	66.56
395.895	216.06
396.105	189.44
396.314	117.76
396.524	105.47
396.733	91.13
396.942	99.33
397.152	44.03
397.361	58.37
397.57	25.6
397.78	50.18
397.989	72.7
398.198	173.05
398.407	-29.7
398.617	91.13
398.826	117.76
399.035	44.03
399.244	95.23
399.453	70.65
399.663	-9.22
399.872	-11.26
400.081	-80.89
400.29	222.2
400.499	35.84
400.708	5.12
400.917	101.37
401.127	7.17
401.336	64.51
401.545	168.96
401.754	121.85
401.963	113.66
402.172	11.26
402.381	33.79
402.59	56.32
402.799	19.46
403.008	107.52
403.217	48.13
403.426	84.99
403.635	-25.6
403.844	-23.55
404.053	-11.26
404.262	39.94
404.471	185.34
404.68	150.53
404.888	33.79
405.097	13.31
405.306	9.22
405.515	37.89
405.724	-1.02
405.933	84.99
406.142	70.65
406.35	201.72
406.559	87.04
406.768	125.95
406.977	173.05
407.185	50.18
407.394	109.57
407.603	41.98
407.812	70.65
408.02	164.86
408.229	-7.17
408.438	33.79
408.646	-46.08
408.855	66.56
409.064	68.61
409.272	33.79
409.481	107.52
409.69	31.74
409.898	15.36
410.107	117.76
410.315	164.86
410.524	-48.13
410.733	117.76
410.941	31.74
411.15	62.46
411.358	154.62
411.567	179.2
411.775	54.27
411.984	19.46
412.192	72.7
412.401	48.13
412.609	152.57
412.818	138.24
413.026	39.94
413.234	-9.22
413.443	19.46
413.651	21.5
413.86	-25.6
414.068	11.26
414.276	177.15
414.485	58.37
414.693	195.58
414.901	199.68
415.11	50.18
415.318	48.13
415.526	146.43
415.734	189.44
415.943	89.09
416.151	64.51
416.359	72.7
416.567	128
416.776	183.29
416.984	84.99
417.192	220.16
417.4	39.94
417.608	-44.03
417.817	-37.89
418.025	13.31
418.233	209.92
418.441	-5.12
418.649	1.02
418.857	89.09
419.065	171.01
419.273	5.12
419.481	13.31
419.689	52.22
419.897	29.7
420.105	-91.13
420.313	39.94
420.521	101.37
420.729	158.72
420.937	46.08
421.145	-41.98
421.353	95.23
421.561	197.63
421.769	15.36
421.977	-3.07
422.185	125.95
422.393	76.8
422.601	158.72
422.809	95.23
423.017	-15.36
423.224	109.57
423.432	70.65
423.64	93.18
423.848	144.38
424.056	-37.89
424.263	156.67
424.471	95.23
424.679	148.48
424.887	-31.74
425.094	154.62
425.302	60.42
425.51	39.94
425.718	185.34
425.925	117.76
426.133	-37.89
426.341	240.64
426.548	68.61
426.756	72.7
426.964	111.61
427.171	62.46
427.379	74.75
427.586	1.02
427.794	173.05
428.001	209.92
428.209	105.47
428.417	191.49
428.624	142.33
428.832	203.77
429.039	123.9
429.247	142.33
429.454	162.81
429.662	199.68
429.869	123.9
430.076	179.2
430.284	105.47
430.491	128
430.699	60.42
430.906	222.2
431.114	109.57
431.321	97.28
431.528	132.09
431.736	99.33
431.943	119.81
432.15	158.72
432.358	168.96
432.565	232.44
432.772	-21.5
432.979	224.25
433.187	109.57
433.394	173.05
433.601	111.61
433.808	195.58
434.016	281.6
434.223	224.25
434.43	162.81
434.637	238.59
434.844	287.74
435.052	201.72
435.259	242.68
435.466	193.53
435.673	187.39
435.88	248.83
436.087	314.36
436.294	289.79
436.501	308.22
436.708	226.3
436.915	273.4
437.122	416.76
437.329	275.45
437.537	355.32
437.743	312.32
437.95	386.04
438.157	318.46
438.364	420.86
438.571	320.51
438.778	386.04
438.985	418.81
439.192	418.81
439.399	443.39
439.606	416.76
439.813	482.3
440.02	578.55
440.227	531.45
440.433	543.74
440.64	488.44
440.847	420.86
441.054	531.45
441.261	599.03
441.467	623.61
441.674	435.19
441.881	656.37
442.088	570.36
442.294	644.09
442.501	764.92
442.708	723.96
442.914	674.81
443.121	826.36
443.328	848.88
443.534	801.78
443.741	795.64
443.948	764.92
444.154	895.99
444.361	951.28
444.568	820.21
444.774	973.81
444.981	777.2
445.187	1063.92
445.394	1061.87
445.6	1012.72
445.807	1188.85
446.013	1141.74
446.22	1166.32
446.426	1156.08
446.633	1326.06
446.839	1557.48
447.046	1213.42
447.252	1543.14
447.459	1383.4
447.665	1592.3
447.871	1518.57
448.078	1743.85
448.284	1674.21
448.491	1764.33
448.697	1960.93
448.903	1938.4
449.11	1973.22
449.316	1962.98
449.522	2120.67
449.728	2184.16
449.935	2276.32
450.141	2237.41
450.347	2456.54
450.553	2528.22
450.76	2438.11
450.966	2608.09
451.172	2716.63
451.378	2776.02
451.584	2808.79
451.791	3113.94
451.997	3115.98
452.203	3183.57
452.409	3402.7
452.615	3562.44
452.821	3296.21
453.027	3396.56
453.233	3861.45
453.44	3779.53
453.646	3908.55
453.852	4115.39
454.058	4215.74
454.264	4447.16
454.47	4737.98
454.676	4678.58
454.882	5063.6
455.088	5049.27
455.294	5475.24
455.5	5458.86
455.705	5800.87
455.911	5903.27
456.117	5888.93
456.323	6187.94
456.529	6230.94
456.735	6601.63
456.941	6945.69
457.147	7259.03
457.352	7541.64
457.558	7551.88
457.764	8215.43
457.97	8412.03
458.176	8762.23
458.381	8983.41
458.587	9083.77
458.793	9749.36
458.999	9558.89
459.204	10812.25
459.41	11279.19
459.616	10865.5
459.821	11782.99
460.027	12190.53
460.233	12710.72
460.438	12671.81
460.644	13531.95
460.85	13685.55
461.055	14052.14
461.261	14801.69
461.466	14373.67
461.672	14977.82
461.878	16571.14
462.083	16552.71
462.289	16802.56
462.494	17375.99
462.7	17484.53
462.905	17859.31
463.111	19131.1
463.316	20284.11
463.522	20607.69
463.727	21013.18
463.932	22164.14
464.138	22688.42
464.343	23759.51
464.549	23798.42
464.754	25361.02
464.959	26016.37
465.165	26557.03
465.37	26425.96
465.575	26641
465.781	28164.69
465.986	29356.61
466.191	28424.78
466.397	28971.59
466.602	28379.73
466.807	29749.82
467.012	30290.48
467.218	30896.68
467.423	30712.36
467.628	31724.06
467.833	33239.56
468.038	32561.68
468.244	31758.88
468.449	33808.89
468.654	33212.93
468.859	33303.04
469.064	33307.14
469.269	31734.3
469.474	32776.72
469.679	33290.76
469.885	32535.06
470.09	32737.8
470.295	33114.63
470.5	32375.31
470.705	32696.85
470.91	31656.48
471.115	31369.76
471.32	31668.76
471.525	31605.28
471.73	30777.9
471.935	30466.61
472.139	29428.29
472.344	29631.04
472.549	29436.48
472.754	28598.86
472.959	27896.41
473.164	27224.67
473.369	26481.26
473.574	27767.38
473.778	26696.3
473.983	26331.76
474.188	26243.7
474.393	24535.69
474.598	24439.44
474.802	24138.38
475.007	23702.17
475.212	23415.45
475.417	22399.66
475.621	22485.67
475.826	21951.15
476.031	21328.57
476.235	21082.81
476.44	21396.15
476.645	20425.42
476.849	20325.07
477.054	19725.01
477.259	19555.03
477.463	19595.99
477.668	19143.39
477.872	18760.42
478.077	18492.13
478.282	17783.54
478.486	17842.93
478.691	17928.94
478.895	17525.49
479.1	17337.08
479.304	17142.52
479.509	16460.55
479.713	17156.86
479.918	16425.73
480.122	16048.91
480.326	16440.07
480.531	16347.91
480.735	15876.88
480.94	15809.29
481.144	16251.66
481.348	15379.22
481.553	15686.42
481.757	15209.24
481.961	15325.97
482.166	15299.35
482.37	15104.79
482.574	14844.7
482.778	14910.24
482.983	15201.05
483.187	14564.13
483.391	14803.74
483.595	14287.65
483.8	14306.09
484.004	14304.04
484.208	14140.2
484.412	14068.52
484.616	13947.69
484.821	13712.17
485.025	13196.09
485.229	13339.44
485.433	12974.91
485.637	12985.15
485.841	12870.46
486.045	12596.03
486.249	12616.51
486.453	12251.97
486.657	11887.43
486.861	11955.02
487.065	11488.08
487.269	11494.22
487.473	11289.43
487.677	11395.92
487.881	11139.93
488.085	11015
488.289	10799.96
488.493	10447.71
488.697	10550.11
488.901	10292.07
489.105	9894.76
489.309	9841.51
489.512	9735.02
489.716	9526.13
489.92	9212.79
490.124	9116.53
490.328	9274.23
490.531	8924.02
490.735	8797.05
490.939	8588.16
491.143	8385.41
491.346	8295.3
491.55	8278.91
491.754	7865.22
491.958	8043.4
492.161	7728.01
492.365	7531.41
492.569	7498.64
492.772	7439.25
492.976	7529.36
493.18	7334.8
493.383	7308.18
493.587	7089.04
493.79	7187.35
493.994	6634.39
494.197	6816.66
494.401	6595.48
494.605	6628.25
494.808	6771.61
495.012	6654.87
495.215	6785.94
495.419	6648.73
495.622	6470.56
495.825	6372.25
496.029	6439.84
496.232	6488.99
496.436	6357.92
496.639	6630.3
496.843	6376.35
497.046	6368.16
497.249	6355.87
497.453	6327.2
497.656	6239.14
497.859	6380.45
498.063	6347.68
498.266	6474.65
498.469	6372.25
498.673	6511.52
498.876	6343.58
499.079	6462.37
499.282	6298.53
499.485	6718.36
499.689	6495.13
499.892	6751.13
500.095	6325.15
500.298	6814.62
500.501	6525.85
500.705	6945.69
500.908	6880.15
501.111	6876.06
501.314	6984.6
501.517	7170.96
501.72	7289.74
501.923	7068.56
502.126	7041.94
502.329	7529.36
502.532	7347.09
502.735	7484.3
502.938	7580.56
503.141	7449.49
503.344	7693.19
503.547	7764.87
503.75	7908.23
503.953	7926.66
504.156	8158.08
504.359	8098.69
504.562	8096.64
504.765	8539.01
504.968	8473.47
505.17	8727.42
505.373	8876.92
505.576	9057.14
505.779	9063.29
505.982	9180.02
506.185	9522.03
506.387	9413.49
506.59	9759.6
506.793	9984.87
506.996	10148.71
507.198	10460
507.401	10433.38
507.604	10722.14
507.807	10818.39
508.009	10883.93
508.212	11350.87
508.415	11768.65
508.617	11504.46
508.82	11881.29
509.022	12122.95
509.225	12530.5
509.428	12823.36
509.63	12841.79
509.833	13212.47
510.035	13572.91
510.238	13695.79
510.44	14021.42
510.643	14383.91
510.845	15010.59
511.048	15100.7
511.25	15377.17
511.453	15700.75
511.655	16366.34
511.858	16485.12
512.06	16927.49
512.262	17230.59
512.465	17365.75
512.667	18066.16
512.87	18150.12
513.072	18404.07
513.274	19235.55
513.477	19524.31
513.679	20202.19
513.881	20628.17
514.084	20865.73
514.286	21226.17
514.488	21826.23
514.69	22565.54
514.893	23003.81
515.095	23319.2
515.297	23741.08
515.499	24244.88
515.701	24543.88
515.904	25330.3
516.106	26030.71
516.308	26671.72
516.51	26882.66
516.712	27314.78
516.914	28035.67
517.116	28635.72
517.318	28938.82
517.52	29309.5
517.722	29708.86
517.925	30655.02
518.127	31539.74
518.329	31941.14
518.531	31662.62
518.733	33182.21
518.935	33298.95
519.136	33729.02
519.338	34677.23
519.54	35230.18
519.742	35607.01
519.944	36114.9
520.146	36557.27
520.348	37155.27
520.55	37722.56
520.752	37804.48
520.954	38875.57
521.155	39029.16
521.357	39909.79
521.559	39971.23
521.761	40509.85
521.963	40554.9
522.164	41189.77
522.366	41116.04
522.568	42303.87
522.77	42043.77
522.971	43045.23
523.173	42588.53
523.375	43465.06
523.576	42891.63
523.778	43204.97
523.98	44050.78
524.181	44302.68
524.383	44626.26
524.584	44790.1
524.786	44564.82
524.988	44427.61
525.189	44794.2
525.391	44810.58
525.592	44749.14
525.794	44826.96
525.995	44820.82
526.197	44773.72
526.398	45293.9
526.6	44876.12
526.801	44857.68
527.003	44964.18
527.204	44513.62
527.406	44786
527.607	44616.02
527.808	44224.86
528.01	42854.77
528.211	43364.71
528.412	44257.63
528.614	43196.78
528.815	42869.11
529.016	43014.51
529.218	42254.72
529.419	41900.42
529.62	41607.56
529.822	41570.69
530.023	41257.35
530.224	40575.38
530.425	40151.45
530.626	39690.66
530.828	39211.43
531.029	39973.28
531.23	38601.14
531.431	37917.12
531.632	38048.19
531.833	37566.91
532.035	37222.86
532.236	36536.79
532.437	36319.7
532.638	35760.61
532.839	35422.69
533.04	35297.77
533.241	34509.3
533.442	34658.8
533.643	33628.67
533.844	33153.54
534.045	32979.46
534.246	32301.59
534.447	32084.5
534.648	31566.37
534.849	31097.38
535.05	30693.93
535.251	30552.62
535.451	30167.6
535.652	29856.31
535.853	29051.46
536.054	28777.03
536.255	28467.79
536.456	27925.08
536.657	27886.17
536.857	27271.78
537.058	26774.12
537.259	26673.77
537.46	26532.46
537.66	25700.98
537.861	25670.26
538.062	25158.27
538.263	25084.55
538.463	24509.07
538.664	24062.61
538.865	23861.91
539.065	23872.15
539.266	23302.81
539.466	23200.41
539.667	22610.6
539.868	22602.41
540.068	22137.52
540.269	21787.32
540.469	21861.04
540.67	21426.87
540.87	21050.05
541.071	21013.18
541.271	20896.45
541.472	20646.6
541.672	20329.16
541.873	20189.9
542.073	19817.17
542.274	19956.43
542.474	19186.4
542.675	19411.67
542.875	19206.87
543.075	18799.33
543.276	18553.57
543.476	18350.82
543.676	18060.01
543.877	18115.31
544.077	18076.4
544.277	17509.11
544.478	17269.5
544.678	17058.56
544.878	16888.57
545.078	16747.26
545.279	16481.03
545.479	16341.77
545.679	16194.31
545.879	16044.81
546.079	15809.29
546.28	15409.94
546.48	15541.01
546.68	15459.09
546.88	15069.98
547.08	14906.14
547.28	14730.02
547.48	14306.09
547.68	14471.97
547.88	14005.03
548.081	14109.48
548.281	13939.5
548.481	13689.65
548.681	13632.3
548.881	13355.83
549.081	13271.86
549.28	13159.22
549.48	13122.36
549.68	12608.32
549.88	12636.99
550.08	12110.66
550.28	12307.27
550.48	12108.62
550.68	11852.62
550.88	11666.25
551.08	11529.04
551.279	11512.66
551.479	11334.48
551.679	11131.73
551.879	10832.73
552.079	10666.85
552.278	10402.66
552.478	10462.05
552.678	10070.89
552.878	10175.33
553.077	10103.65
553.277	9634.67
553.477	9716.59
553.676	9579.37
553.876	9247.6
554.076	8924.02
554.275	8952.7
554.475	8764.28
554.674	8854.39
554.874	8582.01
555.074	8459.13
555.273	8280.96
555.473	8350.59
555.672	8037.25
555.872	7871.37
556.071	7793.55
556.271	7832.46
556.47	7400.34
556.67	7345.04
556.869	7429.01
557.068	7199.63
557.268	7058.32
557.467	7046.04
557.667	7037.84
557.866	6857.62
558.065	6724.51
558.265	6425.5
558.464	6232.99
558.663	6462.37
558.863	6286.24
559.062	6120.35
559.261	6103.97
559.461	6005.67
559.66	5872.55
559.859	5632.94
560.058	5538.73
560.258	5565.36
560.457	5422
560.656	5600.17
560.855	5098.42
561.054	5405.61
561.253	5084.08
561.453	5176.24
561.652	4891.57
561.851	4983.73
562.05	4807.61
562.249	4690.87
562.448	4705.21
562.647	4477.88
562.846	4488.12
563.045	4500.41
563.244	4268.99
563.443	4455.36
563.642	4264.89
563.841	4160.45
564.04	4133.82
564.239	4162.5
564.438	4043.71
564.637	3894.21
564.836	3859.4
565.035	3959.75
565.234	3806.15
565.432	3716.04
565.631	3652.55
565.83	3705.8
566.029	3609.54
566.228	3437.52
566.427	3548.11
566.625	3410.89
566.824	3410.89
567.023	3189.71
567.222	3257.29
567.42	3238.86
567.619	3218.38
567.818	3181.52
568.016	3177.42
568.215	3107.79
568.414	3042.26
568.612	3038.16
568.811	2810.84
569.01	2802.65
569.208	2712.53
569.407	2718.68
569.605	2753.49
569.804	2599.9
570.002	2675.67
570.201	2610.14
570.4	2567.13
570.598	2483.16
570.797	2468.83
570.995	2376.67
571.193	2354.14
571.392	2458.59
571.59	2294.75
571.789	2436.06
571.987	2487.26
572.186	2296.8
572.384	2098.14
572.582	2178.01
572.781	2335.71
572.979	2116.58
573.177	2048.99
573.376	2218.97
573.574	2104.29
573.772	1940.45
573.971	1846.24
574.169	1924.07
574.367	1915.87
574.565	1856.48
574.763	1840.1
574.962	1784.8
575.16	1788.9
575.358	1702.89
575.556	1686.5
575.754	1719.27
575.952	1637.35
576.151	1616.87
576.349	1649.64
576.547	1526.76
576.745	1623.02
576.943	1577.96
577.141	1399.79
577.339	1508.33
577.537	1469.42
577.735	1532.9
577.933	1401.83
578.131	1326.06
578.329	1412.07
578.527	1338.35
578.725	1336.3
578.923	1231.85
579.121	1442.79
579.319	1170.41
579.516	1250.28
579.714	1401.83
579.912	1264.62
580.11	1137.65
580.308	1125.36
580.506	1068.02
580.704	977.91
580.901	1102.83
581.099	1203.18
581.297	1100.78
581.495	1078.26
581.692	1086.45
581.89	1180.65
582.088	1104.88
582.285	965.62
582.483	1057.78
582.681	982
582.878	938.99
583.076	1055.73
583.274	1080.3
583.471	994.29
583.669	945.14
583.866	832.5
584.064	863.22
584.262	773.11
584.459	920.56
584.657	838.64
584.854	959.47
585.052	807.92
585.249	803.83
585.447	812.02
585.644	687.09
585.841	887.79
586.039	830.45
586.236	852.98
586.434	775.16
586.631	730.1
586.828	709.62
587.026	707.57
587.223	707.57
587.42	605.17
587.618	773.11
587.815	762.87
588.012	695.29
588.21	666.61
588.407	719.86
588.604	666.61
588.801	576.5
588.999	601.08
589.196	723.96
589.393	541.69
589.59	629.75
589.787	695.29
589.984	631.8
590.182	613.37
590.379	629.75
590.576	556.02
590.773	646.13
590.97	642.04
591.167	631.8
591.364	617.46
591.561	502.78
591.758	730.1
591.955	590.84
592.152	562.17
592.349	515.06
592.546	656.37
592.743	523.26
592.94	465.91
593.137	574.46
593.334	668.66
593.531	619.51
593.727	619.51
593.924	596.98
594.121	615.41
594.318	515.06
594.515	553.98
594.712	717.81
594.908	687.09
595.105	533.5
595.302	615.41
595.499	635.89
595.696	726
595.892	613.37
596.089	793.59
596.286	609.27
596.482	736.24
596.679	646.13
596.876	650.23
597.072	783.35
597.269	773.11
597.466	773.11
597.662	748.53
597.859	652.28
598.055	787.44
598.252	840.69
598.448	943.09
598.645	951.28
598.841	1029.1
599.038	1025.01
599.234	959.47
599.431	1080.3
599.627	1111.02
599.824	1141.74
600.02	1192.94
600.217	1190.89
600.413	1192.94
600.609	1338.35
600.806	1559.53
601.002	1387.5
601.198	1461.23
601.395	1518.57
601.591	1553.38
601.787	1541.1
601.984	1678.31
602.18	1786.85
602.376	1786.85
602.572	1956.83
602.769	2071.52
602.965	1952.74
603.161	2055.14
603.357	2259.93
603.553	2192.35
603.75	2323.42
603.946	2307.04
604.142	2544.6
604.338	2622.42
604.534	2528.22
604.73	2571.22
604.926	2759.64
605.122	2923.48
605.318	2868.18
605.514	3187.66
605.71	2917.33
605.906	3333.07
606.102	3371.98
606.298	3421.13
606.494	3556.3
606.69	3781.57
606.886	3804.1
607.082	3750.85
607.278	3879.88
607.474	3988.42
607.67	4189.12
607.866	4051.91
608.062	4471.74
608.257	4418.49
608.453	4488.12
608.649	4670.39
608.845	4778.94
609.041	5061.55
609.236	5147.57
609.432	5192.62
609.628	5407.66
609.824	5491.63
610.019	5677.99
610.215	5790.63
610.411	6112.16
610.606	6175.65
610.802	6140.83
610.998	6433.69
611.193	6675.35
611.389	6689.69
611.584	6923.16
611.78	6917.01
611.976	7230.35
612.171	7648.14
612.367	7711.63
612.562	7781.26
612.758	7797.64
612.953	8412.03
613.149	8467.33
613.344	8625.02
613.539	8975.22
613.735	9098.1
613.93	9530.22
614.126	9597.81
614.321	9974.63
614.517	10234.72
614.712	10292.07
614.907	10883.93
615.103	10994.52
615.298	11123.54
615.493	11418.45
615.688	11613.01
615.884	12098.38
616.079	12340.04
616.274	12806.97
616.47	13140.79
616.665	13433.65
616.86	13810.48
617.055	14121.77
617.25	14334.76
617.445	14959.39
617.641	14994.2
617.836	15614.74
618.031	15637.27
618.226	16265.99
618.421	16583.43
618.616	17361.66
618.811	17214.2
619.006	18076.4
619.201	17781.49
619.396	18451.17
619.591	18825.95
619.786	19518.17
619.981	19739.35
620.176	20398.79
620.371	20083.41
620.566	20867.78
620.761	21316.28
620.956	22045.36
621.151	22041.26
621.346	22733.48
621.541	22721.19
621.735	23530.14
621.93	23612.06
622.125	24394.38
622.32	24685.19
622.515	25252.48
622.709	25678.46
622.904	26098.29
623.099	26319.47
623.294	27132.51
623.488	27294.3
623.683	28238.42
623.878	27994.71
624.072	29129.28
624.267	29198.91
624.462	29557.31
624.656	29782.59
624.851	30896.68
625.046	30589.49
625.24	31646.24
625.435	31613.47
625.629	31937.05
625.824	32444.94
626.018	33280.52
626.213	32748.04
626.407	33825.28
626.602	33989.11
626.796	34679.28
626.991	34540.02
627.185	34603.5
627.38	34970.09
627.574	35004.91
627.768	35082.73
627.963	35312.1
628.157	35451.36
628.352	36131.29
628.546	35588.58
628.74	36006.36
628.935	35727.84
629.129	36026.84
629.323	35029.48
629.517	35066.34
629.712	35183.08
629.906	35066.34
630.1	34345.46
630.294	34404.85
630.489	33456.64
630.683	33587.71
630.877	32664.08
631.071	31986.2
631.265	31996.44
631.459	30902.82
631.653	30122.55
631.848	29749.82
632.042	28897.86
632.236	28334.67
632.43	27247.2
632.624	26923.62
632.818	25811.57
633.012	25275.01
633.206	24101.52
633.4	23640.73
633.594	22690.47
633.788	21729.97
633.982	21392.06
634.176	20705.99
634.369	19512.02
634.563	19065.57
634.757	18270.95
634.951	17711.86
635.145	17081.08
635.339	16059.15
635.533	15655.7
635.726	15024.92
635.92	14201.64
636.114	13765.42
636.308	13118.26
636.501	12532.54
636.695	12354.37
636.889	11639.63
637.083	11234.13
637.276	10556.25
637.47	10269.54
637.664	9960.3
637.857	9370.48
638.051	9270.13
638.244	8776.57
638.438	8356.74
638.632	8188.8
638.825	7746.44
639.019	7564.17
639.212	7246.74
639.406	6972.31
639.599	6585.24
639.793	6413.21
639.986	5974.95
640.18	5864.36
640.373	5659.56
640.567	5501.87
640.76	5340.08
640.954	5053.36
641.147	4787.13
641.34	4623.29
641.534	4463.55
641.727	4436.92
641.92	3945.41
642.114	4115.39
642.307	3836.87
642.5	3752.9
642.694	3437.52
642.887	3408.84
643.08	3486.67
643.273	3169.23
643.467	3113.94
643.66	2952.15
643.853	2679.77
644.046	2669.53
644.239	2565.08
644.432	2534.36
644.626	2348
644.819	2315.23
645.012	2270.17
645.205	2182.11
645.398	2116.58
645.591	1952.74
645.784	1901.54
645.977	1768.42
646.17	1692.65
646.363	1706.98
646.556	1647.59
646.749	1524.71
646.942	1518.57
647.135	1539.05
647.328	1393.64
647.521	1334.25
647.714	1410.03
647.907	1278.96
648.099	1182.7
648.292	1250.28
648.485	1084.4
648.678	1078.26
648.871	871.41
649.064	1043.44
649.256	844.79
649.449	826.36
649.642	842.74
649.835	850.93
650.027	803.83
650.22	863.22
650.413	754.68
650.605	869.36
650.798	662.52
650.991	707.57
651.183	744.44
651.376	699.38
651.568	551.93
651.761	605.17
651.954	691.19
652.146	642.04
652.339	629.75
652.531	594.93
652.724	412.67
652.916	406.52
653.109	363.51
653.301	545.78
653.494	461.82
653.686	396.28
653.879	494.58
654.071	494.58
654.263	347.13
654.456	377.85
654.648	515.06
654.84	431.1
655.033	318.46
655.225	412.67
655.417	322.56
655.61	525.3
655.802	441.34
655.994	408.57
656.186	328.7
656.379	486.39
656.571	226.3
656.763	267.26
656.955	332.79
657.148	308.22
657.34	359.42
657.532	254.97
657.724	287.74
657.916	265.21
658.108	330.75
658.3	285.69
658.492	365.56
658.684	295.93
658.876	355.32
659.068	162.81
659.26	164.86
659.452	146.43
659.644	267.26
659.836	293.88
660.028	269.31
660.22	146.43
660.412	240.64
660.604	220.16
660.796	224.25
660.988	220.16
661.18	234.49
661.372	246.78
661.563	144.38
661.755	140.29
661.947	164.86
662.139	146.43
662.331	99.33
662.522	138.24
662.714	171.01
662.906	128
663.097	80.89
663.289	138.24
663.481	52.22
663.673	230.4
663.864	203.77
664.056	181.25
664.247	84.99
664.439	275.45
664.631	148.48
664.822	226.3
665.014	144.38
665.205	48.13
665.397	101.37
665.588	236.54
665.78	74.75
665.971	197.63
666.163	125.95
666.354	203.77
666.546	171.01
666.737	97.28
666.929	60.42
667.12	130.05
667.311	162.81
667.503	87.04
667.694	179.2
667.885	156.67
668.077	164.86
668.268	15.36
668.459	152.57
668.651	214.01
668.842	175.1
669.033	121.85
669.224	3.07
669.416	273.4
669.607	107.52
669.798	52.22
669.989	177.15
670.18	177.15
670.371	166.91
670.563	-7.17
670.754	242.68
670.945	189.44
671.136	189.44
671.327	78.85
671.518	248.83
671.709	236.54
671.9	158.72
672.091	187.39
672.282	144.38
672.473	136.19
672.664	-44.03
672.855	146.43
673.046	252.92
673.237	181.25
673.428	93.18
673.619	173.05
673.809	134.14
674	166.91
674.191	168.96
674.382	128
674.573	164.86
674.764	140.29
674.954	168.96
675.145	89.09
675.336	41.98
675.527	134.14
675.717	119.81
675.908	89.09
676.099	191.49
676.289	207.87
676.48	76.8
676.671	158.72
676.861	82.94
677.052	166.91
677.243	105.47
677.433	66.56
677.624	132.09
677.814	244.73
678.005	103.42
678.195	250.88
678.386	97.28
678.576	150.53
678.767	95.23
678.957	230.4
679.148	209.92
679.338	248.83
679.529	293.88
679.719	160.77
679.909	308.22
680.1	193.53
680.29	254.97
680.481	152.57
680.671	216.06
680.861	148.48
681.052	216.06
681.242	152.57
681.432	197.63
681.622	275.45
681.813	128
682.003	203.77
682.193	95.23
682.383	183.29
682.573	130.05
682.764	183.29
682.954	152.57
683.144	214.01
683.334	216.06
683.524	199.68
683.714	232.44
683.904	211.96
684.094	152.57
684.284	191.49
684.474	302.08
684.664	220.16
684.854	216.06
685.044	144.38
685.234	203.77
685.424	265.21
685.614	117.76
685.804	353.27
685.994	234.49
686.184	228.35
686.374	218.11
686.564	224.25
686.753	230.4
686.943	99.33
687.133	136.19
687.323	285.69
687.513	222.2
687.702	179.2
687.892	269.31
688.082	302.08
688.272	318.46
688.461	277.5
688.651	412.67
688.841	326.65
689.03	291.84
689.22	263.16
689.41	273.4
689.599	244.73
689.789	154.62
689.979	238.59
690.168	246.78
690.358	226.3
690.547	228.35
690.737	248.83
690.926	199.68
691.116	271.36
691.305	230.4
691.495	297.98
691.684	117.76
691.874	95.23
692.063	142.33
692.252	316.41
692.442	257.02
692.631	218.11
692.82	119.81
693.01	181.25
693.199	164.86
693.388	250.88
693.578	191.49
693.767	283.64
693.956	238.59
694.146	228.35
694.335	263.16
694.524	111.61
694.713	312.32
694.902	197.63
695.092	193.53
695.281	197.63
695.47	177.15
695.659	175.1
695.848	171.01
696.037	173.05
696.226	240.64
696.415	191.49
696.604	295.93
696.793	224.25
696.982	216.06
697.171	302.08
697.36	185.34
697.549	205.82
697.738	97.28
697.927	189.44
698.116	35.84
698.305	222.2
698.494	168.96
698.683	132.09
698.872	369.66
699.061	156.67
699.25	183.29
699.438	162.81
699.627	138.24
699.816	390.14
700.005	62.46
700.193	121.85
700.382	283.64
700.571	232.44
700.76	179.2
700.948	302.08
701.137	273.4
701.326	166.91
701.514	158.72
701.703	203.77
701.892	216.06
702.08	363.51
702.269	156.67
702.457	154.62
702.646	130.05
702.834	113.66
703.023	171.01
703.212	302.08
703.4	179.2
703.589	242.68
703.777	158.72
703.965	115.71
704.154	171.01
704.342	164.86
704.531	138.24
704.719	166.91
704.907	224.25
705.096	113.66
705.284	130.05
705.472	183.29
705.661	216.06
705.849	285.69
706.037	322.56
706.226	271.36
706.414	238.59
706.602	203.77
706.79	228.35
706.979	162.81
707.167	166.91
707.355	64.51
707.543	279.55
707.731	220.16
707.919	218.11
708.107	175.1
708.296	138.24
708.484	193.53
708.672	285.69
708.86	261.12
709.048	193.53
709.236	156.67
709.424	226.3
709.612	179.2
709.8	128
709.988	199.68
710.176	316.41
710.364	343.03
710.551	205.82
710.739	214.01
710.927	130.05
711.115	203.77
711.303	230.4
711.491	203.77
711.679	89.09
711.866	304.12
712.054	146.43
712.242	224.25
712.43	302.08
712.617	173.05
712.805	347.13
712.993	220.16
713.181	29.7
713.368	257.02
713.556	205.82
713.744	197.63
713.931	410.62
714.119	373.75
714.306	162.81
714.494	187.39
714.682	220.16
714.869	89.09
715.057	230.4
715.244	166.91
715.432	195.58
715.619	207.87
715.807	175.1
715.994	144.38
716.182	234.49
716.369	252.92
716.556	302.08
716.744	82.94
716.931	191.49
717.119	187.39
717.306	179.2
717.493	420.86
717.681	181.25
717.868	234.49
718.055	199.68
718.242	257.02
718.43	189.44
718.617	289.79
718.804	250.88
718.991	281.6
719.179	267.26
719.366	254.97
719.553	220.16
719.74	271.36
719.927	201.72
720.114	240.64
720.301	199.68
720.488	168.96
720.676	148.48
720.863	300.03
721.05	330.75
721.237	330.75
721.424	252.92
721.611	291.84
721.798	224.25
721.985	248.83
722.172	226.3
722.358	246.78
722.545	254.97
722.732	193.53
722.919	269.31
723.106	316.41
723.293	322.56
723.48	162.81
723.667	236.54
723.853	302.08
724.04	361.47
724.227	281.6
724.414	218.11
724.6	312.32
724.787	322.56
724.974	332.79
725.161	328.7
725.347	179.2
725.534	228.35
725.72	332.79
725.907	326.65
726.094	302.08
726.28	222.2
726.467	240.64
726.653	224.25
726.84	353.27
727.027	406.52
727.213	328.7
727.4	265.21
727.586	365.56
727.773	252.92
727.959	197.63
728.145	261.12
728.332	254.97
728.518	250.88
728.705	306.17
728.891	302.08
729.077	285.69
729.264	218.11
729.45	265.21
729.636	283.64
729.823	302.08
730.009	320.51
730.195	236.54
730.382	295.93
730.568	226.3
730.754	351.23
730.94	273.4
731.126	314.36
731.313	306.17
731.499	236.54
731.685	306.17
731.871	316.41
732.057	306.17
732.243	330.75
732.429	347.13
732.615	447.48
732.801	351.23
732.987	312.32
733.173	304.12
733.359	191.49
733.545	273.4
733.731	338.94
733.917	359.42
734.103	365.56
734.289	373.75
734.475	252.92
734.661	402.43
734.847	336.89
735.033	314.36
735.219	422.91
735.404	304.12
735.59	236.54
735.776	310.27
735.962	320.51
736.148	365.56
736.333	431.1
736.519	326.65
736.705	291.84
736.89	257.02
737.076	390.14
737.262	275.45
737.447	181.25
737.633	222.2
737.819	338.94
738.004	334.84
738.19	324.6
738.375	343.03
738.561	347.13
738.747	332.79
738.932	261.12
739.118	431.1
739.303	312.32
739.489	318.46
739.674	267.26
739.859	246.78
740.045	392.19
740.23	326.65
740.416	197.63
740.601	308.22
740.786	291.84
740.972	289.79
741.157	357.37
741.342	240.64
741.528	250.88
741.713	371.71
741.898	283.64
742.084	234.49
742.269	295.93
742.454	383.99
742.639	439.29
742.824	343.03
743.01	402.43
743.195	377.85
743.38	328.7
743.565	398.33
743.75	359.42
743.935	330.75
744.12	437.24
744.305	263.16
744.49	293.88
744.675	304.12
744.86	300.03
745.045	318.46
745.23	304.12
745.415	287.74
745.6	406.52
745.785	263.16
745.97	334.84
746.155	279.55
746.34	248.83
746.525	279.55
746.71	404.47
746.895	197.63
747.079	171.01
747.264	312.32
747.449	326.65
747.634	383.99
747.819	308.22
748.003	234.49
748.188	220.16
748.373	324.6
748.557	357.37
748.742	332.79
748.927	310.27
749.111	209.92
749.296	310.27
749.481	216.06
749.665	310.27
749.85	269.31
750.034	334.84
750.219	277.5
750.404	269.31
750.588	332.79
750.773	209.92
750.957	295.93
751.141	177.15
751.326	273.4
751.51	218.11
751.695	228.35
751.879	275.45
752.064	396.28
752.248	273.4
752.432	316.41
752.617	265.21
752.801	302.08
752.985	222.2
753.17	332.79
753.354	320.51
753.538	177.15
753.722	175.1
753.907	263.16
754.091	211.96
754.275	216.06
754.459	201.72
754.643	164.86
754.828	236.54
755.012	232.44
755.196	138.24
755.38	246.78
755.564	144.38
755.748	193.53
755.932	216.06
756.116	224.25
756.3	248.83
756.484	252.92
756.668	236.54
756.852	93.18
757.036	144.38
757.22	338.94
757.404	140.29
757.588	224.25
757.772	291.84
757.956	173.05
758.14	365.56
758.323	183.29
758.507	216.06
758.691	187.39
758.875	302.08
759.059	248.83
759.242	132.09
759.426	179.2
759.61	205.82
759.794	103.42
759.977	218.11
760.161	379.9
760.345	259.07
760.528	275.45
760.712	187.39
760.895	244.73
761.079	103.42
761.263	60.42
761.446	146.43
761.63	130.05
761.813	140.29
761.997	84.99
762.18	62.46
762.364	168.96
762.547	78.85
762.731	205.82
762.914	203.77
763.098	115.71
763.281	121.85
763.464	101.37
763.648	146.43
763.831	84.99
764.015	181.25
764.198	189.44
764.381	113.66
764.564	80.89
764.748	130.05
764.931	160.77
765.114	148.48
765.297	175.1
765.481	113.66
765.664	146.43
765.847	138.24
766.03	240.64
766.213	62.46
766.397	44.03
766.58	128
766.763	146.43
766.946	103.42
767.129	132.09
767.312	99.33
767.495	166.91
767.678	72.7
767.861	115.71
768.044	142.33
768.227	187.39
768.41	132.09
768.593	140.29
768.776	175.1
768.959	89.09
769.142	267.26
769.324	154.62
769.507	74.75
769.69	138.24
769.873	117.76
770.056	330.75
770.239	109.57
770.421	254.97
770.604	181.25
770.787	121.85
770.97	82.94
771.152	82.94
771.335	222.2
771.518	123.9
771.7	279.55
771.883	216.06
772.066	48.13
772.248	64.51
772.431	138.24
772.613	179.2
772.796	62.46
772.978	154.62
773.161	199.68
773.343	50.18
773.526	113.66
773.708	-27.65
773.891	-11.26
774.073	146.43
774.256	101.37
774.438	230.4
774.621	15.36
774.803	173.05
774.985	52.22
775.168	211.96
775.35	27.65
775.532	101.37
775.715	62.46
775.897	84.99
776.079	70.65
776.261	162.81
776.444	13.31
776.626	23.55
776.808	54.27
776.99	-54.27
777.173	189.44
777.355	50.18
777.537	76.8
777.719	54.27
777.901	41.98
778.083	76.8
778.265	-15.36
778.447	105.47
778.629	113.66
778.811	82.94
778.993	152.57
779.175	130.05
779.357	62.46
779.539	3.07
779.721	95.23
779.903	107.52
780.085	25.6
780.267	84.99
780.449	91.13
780.631	103.42
780.812	207.87
780.994	128
781.176	15.36
781.358	91.13
781.54	72.7
781.721	175.1
781.903	101.37
782.085	29.7
782.267	168.96
782.448	21.5
782.63	41.98
782.812	140.29
782.993	87.04
783.175	105.47
783.357	134.14
783.538	89.09
783.72	-37.89
783.901	89.09
784.083	164.86
784.264	101.37
784.446	7.17
784.627	-25.6
784.809	80.89
784.99	35.84
785.172	107.52
785.353	78.85
785.535	54.27
785.716	-41.98
785.897	-39.94
786.079	37.89
786.26	91.13
786.441	74.75
786.623	29.7
786.804	-13.31
786.985	17.41
787.167	148.48
787.348	52.22
787.529	25.6
787.71	193.53
787.891	27.65
788.073	17.41
788.254	-25.6
788.435	162.81
788.616	19.46
788.797	-37.89
788.978	70.65
789.159	-66.56
789.34	37.89
789.522	11.26
789.703	9.22
789.884	3.07
790.065	91.13
790.246	136.19
790.427	-17.41
790.607	138.24
790.788	105.47
790.969	44.03
791.15	95.23
791.331	-13.31
791.512	48.13
791.693	-3.07
791.874	50.18
792.054	248.83
792.235	132.09
792.416	-33.79
792.597	-50.18
792.778	62.46
792.958	-17.41
793.139	48.13
793.32	64.51
793.5	-56.32
793.681	113.66
793.862	111.61
794.042	54.27
794.223	-74.75
794.404	11.26
794.584	-19.46
794.765	29.7
794.945	9.22
795.126	82.94
795.306	150.53
795.487	64.51
795.667	31.74
795.848	54.27
796.028	37.89
796.209	54.27
796.389	89.09
796.57	29.7
796.75	15.36
796.93	-41.98
797.111	5.12
797.291	52.22
797.471	72.7
797.652	17.41
797.832	-1.02
798.012	37.89
798.192	3.07
798.373	-7.17
798.553	-15.36
798.733	121.85
798.913	11.26
799.093	-41.98
799.274	144.38
799.454	154.62
799.634	132.09
799.814	56.32
799.994	50.18
800.174	31.74
800.354	11.26
800.534	-76.8
800.714	103.42
800.894	5.12
801.074	-29.7
801.254	9.22
801.434	119.81
801.614	52.22
801.794	-46.08
801.974	1727.46
802.154	-5.12
802.334	80.89
802.514	-23.55
802.693	-27.65
802.873	60.42
803.053	31.74
803.233	103.42
803.413	-3.07
803.592	-39.94
803.772	37.89
803.952	13.31
804.131	-87.04
804.311	84.99
804.491	93.18
804.67	-48.13
804.85	-66.56
805.03	87.04
805.209	119.81
805.389	31.74
805.568	-25.6
805.748	-56.32
805.928	58.37
806.107	105.47
806.287	128
806.466	23.55
806.646	-11.26
806.825	60.42
807.004	52.22
807.184	113.66
807.363	154.62
807.543	68.61
807.722	-68.61
807.901	93.18
808.081	76.8
808.26	-119.81
808.439	-44.03
808.619	-33.79
808.798	60.42
808.977	27.65
809.156	84.99
809.336	-19.46
809.515	48.13
809.694	-66.56
809.873	-50.18
810.052	41.98
810.231	39.94
810.411	44.03
810.59	185.34
810.769	87.04
810.948	50.18
811.127	-138.24
811.306	-54.27
811.485	15.36
811.664	111.61
811.843	68.61
812.022	44.03
812.201	46.08
812.38	-41.98
812.559	-50.18
812.737	60.42
812.916	-93.18
813.095	-1.02
813.274	76.8
813.453	62.46
813.632	-19.46
813.811	44.03
813.989	-62.46
814.168	48.13
814.347	-56.32
814.526	-41.98
814.704	125.95
814.883	54.27
815.062	-25.6
815.24	52.22
815.419	-68.61
815.598	52.22
815.776	-125.95
815.955	74.75
816.133	-105.47
816.312	54.27
816.49	-29.7
816.669	54.27
816.847	-52.22
817.026	-50.18
817.204	-13.31
817.383	17.41
817.561	-87.04
817.74	56.32
817.918	46.08
818.097	37.89
818.275	-58.37
818.453	25.6
818.632	48.13
818.81	-15.36
818.988	-3.07
819.167	-33.79
819.345	19.46
819.523	-25.6
819.701	-21.5
819.879	-19.46
820.058	-56.32
820.236	-17.41
820.414	64.51
820.592	-7.17
820.77	29.7
820.948	-7.17
821.127	15.36
821.305	62.46
821.483	-29.7
821.661	29.7
821.839	-5.12
822.017	-64.51
822.195	-33.79
822.373	70.65
822.551	13.31
822.729	37.89
822.907	-66.56
823.085	50.18
823.262	70.65
823.44	-171.01
823.618	-35.84
823.796	64.51
823.974	-21.5
824.152	17.41
824.329	50.18
824.507	7.17
824.685	13.31
824.863	15.36
825.04	21.5
825.218	33.79
825.396	3.07
825.574	50.18
825.751	9.22
825.929	23.55
826.107	-84.99
826.284	54.27
826.462	44.03
826.639	-107.52
826.817	-25.6
826.994	-5.12
827.172	-87.04
827.349	154.62
827.527	50.18
827.704	11.26
827.882	95.23
828.059	-46.08
828.237	-25.6
828.414	7.17
828.591	-136.19
828.769	54.27
828.946	-60.42
829.124	31.74
829.301	84.99
829.478	56.32
829.655	46.08
829.833	39.94
830.01	-128
830.187	58.37
830.364	-15.36
830.542	76.8
830.719	87.04
830.896	62.46
831.073	44.03
831.25	3.07
831.427	44.03
831.604	-7.17
831.782	-60.42
831.959	33.79
832.136	29.7
832.313	66.56
832.49	-46.08
832.667	5.12
832.844	-9.22
833.021	44.03
833.198	95.23
833.374	-44.03
833.551	-39.94
833.728	-74.75
833.905	97.28
834.082	-74.75
834.259	95.23
834.436	48.13
834.612	-93.18
834.789	117.76
834.966	5.12
835.143	-5.12
835.319	-89.09
835.496	27.65
835.673	13.31
835.85	82.94
836.026	-13.31
836.203	-52.22
836.38	-29.7
836.556	-17.41
836.733	-15.36
836.909	105.47
837.086	-27.65
837.262	-66.56
837.439	17.41
837.616	-74.75
837.792	13.31
837.968	62.46
838.145	-134.14
838.321	-25.6
838.498	-7.17
838.674	52.22
838.851	21.5
839.027	56.32
839.203	-35.84
839.38	37.89
839.556	-52.22
839.732	72.7
839.909	-23.55
840.085	66.56
840.261	-11.26
840.437	-23.55
840.614	-52.22
840.79	70.65
840.966	119.81
841.142	56.32
841.318	46.08
841.494	54.27
841.671	66.56
841.847	-35.84
842.023	-13.31
842.199	58.37
842.375	181.25
842.551	-70.65
842.727	-99.33
842.903	171.01
843.079	-132.09
843.255	125.95
843.431	52.22
843.607	-19.46
843.783	-142.33
843.959	-31.74
844.134	-46.08
844.31	60.42
844.486	23.55
844.662	-11.26
844.838	9.22
845.013	1.02
845.189	138.24
845.365	84.99
845.541	44.03
845.716	33.79
845.892	87.04
846.068	-89.09
846.244	-84.99
846.419	-11.26
846.595	-68.61
846.77	-44.03
846.946	54.27
847.122	33.79
847.297	-64.51
847.473	144.38
847.648	-66.56
847.824	3.07
847.999	-115.71
848.175	25.6
848.35	46.08
848.526	68.61
848.701	113.66
848.876	37.89
849.052	105.47
849.227	-76.8
849.403	-31.74
849.578	23.55
849.753	37.89
849.929	11.26
850.104	-64.51
850.279	25.6
850.454	31.74
850.63	1.02
850.805	-107.52
850.98	-103.42
851.155	-33.79
851.33	103.42
851.505	-78.85
851.681	97.28
851.856	-21.5
852.031	17.41
852.206	-13.31
852.381	-95.23
852.556	-1.02
852.731	78.85
852.906	35.84
853.081	78.85
853.256	52.22
853.431	-1.02
853.606	-25.6
853.781	-44.03
853.956	-115.71
854.131	87.04
854.305	-54.27
854.48	15.36
854.655	-95.23
854.83	-21.5
855.005	-15.36
855.18	-13.31
855.354	-76.8
855.529	60.42
855.704	7.17
855.879	125.95
856.053	-62.46
856.228	66.56
856.403	-60.42
856.577	39.94
856.752	-41.98
856.926	23.55
857.101	39.94
857.276	-54.27
857.45	1.02
857.625	66.56
857.799	-39.94
857.974	17.41
858.148	-93.18
858.323	9.22
858.497	19.46
858.672	-68.61
858.846	-72.7
859.02	31.74
859.195	-70.65
859.369	-19.46
859.543	93.18
859.718	-13.31
859.892	37.89
860.066	-21.5
860.241	-15.36
860.415	-21.5
860.589	-97.28
860.763	-13.31
860.938	23.55
861.112	-21.5
861.286	-37.89
861.46	56.32
861.634	19.46
861.808	74.75
861.982	-70.65
862.157	-37.89
862.331	21.5
862.505	21.5
862.679	-91.13
862.853	9.22
863.027	-37.89
863.201	70.65
863.375	-9.22
863.549	52.22
863.722	52.22
863.896	87.04
864.07	-132.09
864.244	-1.02
864.418	66.56
864.592	-25.6
864.766	39.94
864.939	39.94
865.113	-7.17
865.287	97.28
865.461	-37.89
865.634	15.36
865.808	-52.22
865.982	11.26
866.156	-58.37
866.329	-152.57
866.503	89.09
866.676	41.98
866.85	-41.98
867.024	-93.18
867.197	19.46
867.371	-5.12
867.544	-13.31
867.718	-130.05
867.891	134.14
868.065	-48.13
868.238	-1.02
868.412	84.99
868.585	46.08
868.759	-70.65
868.932	-119.81
869.105	-64.51
869.279	-9.22
869.452	-29.7
869.625	15.36
869.799	-44.03
869.972	-41.98
870.145	-37.89
870.319	35.84
870.492	-142.33
870.665	-44.03
870.838	-91.13
871.011	-152.57
871.185	-3.07
871.358	-1.02
871.531	82.94
871.704	-62.46
871.877	39.94
872.05	31.74
872.223	7.17
872.396	31.74
872.569	23.55
872.742	-39.94
872.915	15.36
873.088	-41.98
873.261	-105.47
873.434	58.37
873.607	-70.65
873.78	177.15
873.953	-113.66
874.126	-29.7
874.299	44.03
874.471	17.41
874.644	-29.7
874.817	54.27
874.99	164.86
875.163	-50.18
875.335	-3.07
875.508	3.07
875.681	68.61
875.853	-76.8
876.026	17.41
876.199	-11.26
876.371	-9.22
876.544	80.89
876.717	-50.18
876.889	-37.89
877.062	-3.07
877.234	-31.74
877.407	-50.18
877.579	-21.5
877.752	58.37
877.924	95.23
878.097	62.46
878.269	105.47
878.442	17.41
878.614	-21.5
878.786	-21.5
878.959	-11.26
879.131	64.51
879.303	-150.53
879.476	-7.17
879.648	89.09
879.82	21.5
879.993	-54.27
880.165	-50.18
880.337	-54.27
880.509	7.17
880.681	-76.8
880.854	9.22
881.026	3.07
881.198	177.15
881.37	17.41
881.542	5.12
881.714	27.65
881.886	15.36
882.058	-25.6
882.23	11.26
882.402	23.55
882.574	-9.22
882.746	95.23
882.918	35.84
883.09	-19.46
883.262	-5.12
883.434	-35.84
883.606	-144.38
883.778	95.23
883.95	119.81
884.122	-99.33
884.293	78.85
884.465	54.27
884.637	93.18
884.809	-15.36
884.98	5.12
885.152	-70.65
885.324	17.41
885.496	-54.27
885.667	-15.36
885.839	-68.61
886.011	134.14
886.182	-17.41
886.354	97.28
886.525	-68.61
886.697	-48.13
886.869	-78.85
887.04	-5.12
887.212	109.57
887.383	70.65
887.555	-19.46
887.726	-25.6
887.897	-44.03
888.069	33.79
888.24	-7.17
888.412	-70.65
888.583	1.02
888.754	-11.26
888.926	-72.7
889.097	-7.17
889.268	-99.33
889.44	-11.26
889.611	-109.57
889.782	-21.5
889.953	-13.31
890.125	87.04
890.296	-37.89
890.467	-80.89
890.638	-62.46
890.809	13.31
890.98	-31.74
891.151	13.31
891.323	80.89
891.494	39.94
891.665	3.07
891.836	-99.33
892.007	44.03
892.178	-3.07
892.349	29.7
892.52	-31.74
892.691	-39.94
892.862	-150.53
893.032	-175.1
893.203	-54.27
893.374	52.22
893.545	48.13
893.716	37.89
893.887	-35.84
894.057	-25.6
894.228	39.94
894.399	-60.42
894.57	117.76
894.74	82.94
894.911	17.41
895.082	50.18
895.253	-87.04
895.423	-11.26
895.594	95.23
895.764	44.03
895.935	-162.81
896.106	39.94
896.276	-60.42
896.447	15.36
896.617	-23.55
896.788	-128
896.958	-62.46
897.129	-46.08
897.299	-64.51
897.47	103.42
897.64	21.5
897.81	-84.99
897.981	-1.02
898.151	-31.74
898.322	-19.46
898.492	74.75
898.662	-78.85
898.832	31.74
899.003	-15.36
899.173	9.22
899.343	-80.89
899.513	-64.51
