Data from USB4F104151__4__09-24-24-428.txt Node

Date: Wed Feb 26 09:24:24 EST 2025
User: louis
Spectrometer: USB4F10415
Trigger mode: 4
Integration Time (sec): 1.000000E-1
Scans to average: 1
Electric dark correction enabled: true
Nonlinearity correction enabled: false
Boxcar width: 0
XAxis mode: Wavelengths
Number of Pixels in Spectrum: 3648
>>>>>Begin Spectral Data<<<<<
178.204	-329.55
178.424	-329.55
178.644	-329.55
178.864	-356.18
179.084	-341.84
179.304	32.94
179.524	2.22
179.744	51.37
179.964	24.75
180.184	59.56
180.404	-59.22
180.624	-53.08
180.844	-14.17
181.064	-83.8
181.283	53.42
181.503	-30.55
181.723	16.55
181.943	-116.56
182.163	118.95
182.383	-55.12
182.602	20.65
182.822	159.91
183.042	41.13
183.262	-18.26
183.482	-1.88
183.701	-38.74
183.921	12.46
184.141	-46.93
184.361	174.25
184.58	55.47
184.8	59.56
185.02	-36.69
185.239	39.08
185.459	26.79
185.679	110.76
185.898	-110.42
186.118	22.7
186.338	28.84
186.557	84.14
186.777	-38.74
186.997	-22.36
187.216	-16.21
187.436	116.9
187.655	53.42
187.875	57.51
188.095	-30.55
188.314	86.19
188.534	96.43
188.753	-3.93
188.973	123.05
189.192	34.99
189.412	34.99
189.631	-14.17
189.851	71.85
190.07	43.18
190.29	-59.22
190.509	39.08
190.729	-3.93
190.948	22.7
191.168	161.96
191.387	24.75
191.607	6.31
191.826	30.89
192.045	-38.74
192.265	63.66
192.484	55.47
192.704	41.13
192.923	-28.5
193.142	202.92
193.362	63.66
193.581	75.95
193.8	30.89
194.02	75.95
194.239	-5.97
194.458	10.41
194.678	30.89
194.897	30.89
195.116	51.37
195.335	39.08
195.555	71.85
195.774	10.41
195.993	180.39
196.212	-42.84
196.432	-1.88
196.651	22.7
196.87	-3.93
197.089	209.06
197.308	43.18
197.528	14.51
197.747	-79.7
197.966	63.66
198.185	39.08
198.404	-38.74
198.623	112.81
198.842	141.48
199.062	137.38
199.281	80.04
199.5	-10.07
199.719	80.04
199.938	90.28
200.157	178.34
200.376	75.95
200.595	77.99
200.814	67.75
201.033	6.31
201.252	194.73
201.471	20.65
201.69	51.37
201.909	80.04
202.128	102.57
202.347	12.46
202.566	34.99
202.785	-34.64
203.004	-108.37
203.223	159.91
203.442	26.79
203.661	-55.12
203.879	8.36
204.098	63.66
204.317	-34.64
204.536	10.41
204.755	77.99
204.974	39.08
205.193	-55.12
205.411	121
205.63	39.08
205.849	-32.6
206.068	63.66
206.287	-28.5
206.505	86.19
206.724	-55.12
206.943	34.99
207.162	4.27
207.381	30.89
207.599	41.13
207.818	30.89
208.037	-12.12
208.255	-36.69
208.474	2.22
208.693	137.38
208.911	-61.27
209.13	71.85
209.349	-10.07
209.567	28.84
209.786	59.56
210.005	-10.07
210.223	108.71
210.442	-108.37
210.661	14.51
210.879	10.41
211.098	37.03
211.316	20.65
211.535	16.55
211.753	6.31
211.972	4.27
212.191	6.31
212.409	10.41
212.628	67.75
212.846	2.22
213.065	24.75
213.283	88.23
213.502	22.7
213.72	18.6
213.938	22.7
214.157	-44.88
214.375	55.47
214.594	10.41
214.812	63.66
215.031	22.7
215.249	14.51
215.467	47.27
215.686	-34.64
215.904	65.71
216.122	-42.84
216.341	153.77
216.559	-30.55
216.778	47.27
216.996	133.29
217.214	0.17
217.432	22.7
217.651	59.56
217.869	57.51
218.087	18.6
218.306	-26.45
218.524	47.27
218.742	-1.88
218.96	77.99
219.179	-14.17
219.397	32.94
219.615	202.92
219.833	49.32
220.051	-40.79
220.27	55.47
220.488	53.42
220.706	98.47
220.924	-100.18
221.142	-18.26
221.36	32.94
221.578	57.51
221.796	47.27
222.015	-28.5
222.233	61.61
222.451	106.67
222.669	-34.64
222.887	32.94
223.105	-87.89
223.323	20.65
223.541	-63.32
223.759	53.42
223.977	4.27
224.195	155.82
224.413	6.31
224.631	59.56
224.849	51.37
225.067	225.45
225.285	-30.55
225.503	30.89
225.721	-137.04
225.939	4.27
226.157	22.7
226.375	147.62
226.592	-20.31
226.81	63.66
227.028	94.38
227.246	121
227.464	-18.26
227.682	69.8
227.9	6.31
228.117	51.37
228.335	80.04
228.553	4.27
228.771	53.42
228.989	37.03
229.206	65.71
229.424	-26.45
229.642	-65.36
229.86	-26.45
230.077	51.37
230.295	55.47
230.513	96.43
230.731	22.7
230.948	86.19
231.166	94.38
231.384	30.89
231.601	-3.93
231.819	118.95
232.037	0.17
232.254	18.6
232.472	22.7
232.689	32.94
232.907	92.33
233.125	-10.07
233.342	4.27
233.56	-34.64
233.777	-18.26
233.995	55.47
234.213	22.7
234.43	14.51
234.648	-3.93
234.865	-20.31
235.083	77.99
235.3	-18.26
235.518	98.47
235.735	155.82
235.953	43.18
236.17	32.94
236.388	2.22
236.605	-14.17
236.822	77.99
237.04	80.04
237.257	63.66
237.475	-116.56
237.692	92.33
237.909	45.23
238.127	-1.88
238.344	71.85
238.562	-8.02
238.779	-32.6
238.996	-20.31
239.214	-46.93
239.431	59.56
239.648	-46.93
239.865	55.47
240.083	59.56
240.3	18.6
240.517	-51.03
240.735	20.65
240.952	108.71
241.169	28.84
241.386	24.75
241.603	22.7
241.821	-28.5
242.038	98.47
242.255	37.03
242.472	-14.17
242.689	-24.4
242.907	135.34
243.124	28.84
243.341	-38.74
243.558	-71.51
243.775	4.27
243.992	-94.04
244.209	39.08
244.426	164.01
244.643	63.66
244.86	18.6
245.078	59.56
245.295	22.7
245.512	32.94
245.729	-30.55
245.946	-46.93
246.163	47.27
246.38	22.7
246.597	63.66
246.814	32.94
247.031	-3.93
247.248	49.32
247.464	104.62
247.681	4.27
247.898	61.61
248.115	100.52
248.332	-32.6
248.549	88.23
248.766	114.86
248.983	92.33
249.2	125.1
249.417	100.52
249.633	-51.03
249.85	-3.93
250.067	10.41
250.284	-20.31
250.501	26.79
250.717	34.99
250.934	-69.46
251.151	-32.6
251.368	10.41
251.585	49.32
251.801	59.56
252.018	-26.45
252.235	75.95
252.451	51.37
252.668	67.75
252.885	61.61
253.102	51.37
253.318	-108.37
253.535	-16.21
253.752	6.31
253.968	-26.45
254.185	-61.27
254.401	28.84
254.618	10.41
254.835	-3.93
255.051	174.25
255.268	20.65
255.484	71.85
255.701	34.99
255.917	43.18
256.134	-85.84
256.351	-30.55
256.567	-42.84
256.784	10.41
257	-26.45
257.217	73.9
257.433	32.94
257.65	-10.07
257.866	110.76
258.082	-102.23
258.299	-20.31
258.515	2.22
258.732	-34.64
258.948	-22.36
259.165	-10.07
259.381	-55.12
259.597	57.51
259.814	24.75
260.03	53.42
260.246	28.84
260.463	63.66
260.679	73.9
260.895	75.95
261.112	80.04
261.328	-59.22
261.544	-10.07
261.761	215.21
261.977	39.08
262.193	-59.22
262.409	84.14
262.626	10.41
262.842	28.84
263.058	-36.69
263.274	28.84
263.49	59.56
263.707	18.6
263.923	104.62
264.139	-124.76
264.355	55.47
264.571	100.52
264.787	67.75
265.004	114.86
265.22	-46.93
265.436	-26.45
265.652	-34.64
265.868	73.9
266.084	-83.8
266.3	39.08
266.516	-20.31
266.732	-100.18
266.948	10.41
267.164	0.17
267.38	90.28
267.596	53.42
267.812	80.04
268.028	30.89
268.244	-20.31
268.46	-12.12
268.676	-75.6
268.892	6.31
269.108	-81.75
269.324	-71.51
269.54	-36.69
269.756	6.31
269.972	-34.64
270.188	6.31
270.403	-53.08
270.619	-40.79
270.835	30.89
271.051	-96.08
271.267	30.89
271.483	-30.55
271.698	47.27
271.914	59.56
272.13	-10.07
272.346	-83.8
272.562	26.79
272.777	125.1
272.993	-59.22
273.209	24.75
273.425	39.08
273.64	-77.65
273.856	59.56
274.072	0.17
274.287	77.99
274.503	94.38
274.719	32.94
274.934	-38.74
275.15	-46.93
275.366	49.32
275.581	-59.22
275.797	-28.5
276.012	102.57
276.228	63.66
276.444	30.89
276.659	123.05
276.875	-79.7
277.09	-12.12
277.306	-63.32
277.521	6.31
277.737	30.89
277.952	116.9
278.168	18.6
278.383	14.51
278.599	26.79
278.814	37.03
279.03	4.27
279.245	84.14
279.461	75.95
279.676	26.79
279.892	55.47
280.107	-108.37
280.322	-18.26
280.538	4.27
280.753	6.31
280.969	-51.03
281.184	-22.36
281.399	71.85
281.615	-3.93
281.83	82.09
282.045	-53.08
282.26	-38.74
282.476	47.27
282.691	20.65
282.906	71.85
283.122	88.23
283.337	75.95
283.552	-1.88
283.767	-10.07
283.983	10.41
284.198	4.27
284.413	47.27
284.628	-18.26
284.843	75.95
285.058	49.32
285.274	-18.26
285.489	-26.45
285.704	-77.65
285.919	2.22
286.134	14.51
286.349	57.51
286.564	55.47
286.779	137.38
286.995	-36.69
287.21	-124.76
287.425	69.8
287.64	-69.46
287.855	16.55
288.07	-32.6
288.285	12.46
288.5	92.33
288.715	55.47
288.93	32.94
289.145	-30.55
289.36	92.33
289.575	16.55
289.79	65.71
290.004	-89.94
290.219	157.86
290.434	4.27
290.649	-65.36
290.864	-51.03
291.079	6.31
291.294	34.99
291.509	-20.31
291.724	12.46
291.938	4.27
292.153	69.8
292.368	-8.02
292.583	28.84
292.798	80.04
293.012	43.18
293.227	30.89
293.442	-34.64
293.657	69.8
293.871	94.38
294.086	59.56
294.301	127.14
294.516	84.14
294.73	71.85
294.945	2.22
295.16	-34.64
295.374	102.57
295.589	110.76
295.804	-24.4
296.018	-51.03
296.233	98.47
296.447	-8.02
296.662	30.89
296.877	-30.55
297.091	14.51
297.306	-5.97
297.52	14.51
297.735	22.7
297.949	-12.12
298.164	-30.55
298.378	-38.74
298.593	-89.94
298.807	-55.12
299.022	53.42
299.236	121
299.451	30.89
299.665	-71.51
299.88	86.19
300.094	125.1
300.309	-10.07
300.523	47.27
300.737	-14.17
300.952	53.42
301.166	4.27
301.381	-42.84
301.595	30.89
301.809	-18.26
302.024	6.31
302.238	-55.12
302.452	96.43
302.667	-1.88
302.881	41.13
303.095	30.89
303.309	57.51
303.524	-59.22
303.738	73.9
303.952	-34.64
304.166	51.37
304.381	-116.56
304.595	100.52
304.809	-34.64
305.023	-112.47
305.237	-53.08
305.452	14.51
305.666	129.19
305.88	67.75
306.094	80.04
306.308	18.6
306.522	102.57
306.736	80.04
306.95	12.46
307.164	20.65
307.379	-5.97
307.593	131.24
307.807	37.03
308.021	61.61
308.235	12.46
308.449	-94.04
308.663	55.47
308.877	172.2
309.091	-91.99
309.305	106.67
309.519	-132.95
309.733	125.1
309.947	-44.88
310.161	82.09
310.374	55.47
310.588	26.79
310.802	-14.17
311.016	18.6
311.23	4.27
311.444	-20.31
311.658	-1.88
311.872	69.8
312.085	47.27
312.299	133.29
312.513	166.06
312.727	22.7
312.941	-10.07
313.154	69.8
313.368	61.61
313.582	-1.88
313.796	32.94
314.009	12.46
314.223	61.61
314.437	-53.08
314.651	-1.88
314.864	-34.64
315.078	-53.08
315.292	-48.98
315.505	55.47
315.719	28.84
315.933	28.84
316.146	0.17
316.36	28.84
316.573	133.29
316.787	8.36
317.001	80.04
317.214	-104.28
317.428	55.47
317.641	4.27
317.855	14.51
318.068	-10.07
318.282	37.03
318.495	147.62
318.709	34.99
318.922	8.36
319.136	63.66
319.349	127.14
319.563	-42.84
319.776	-53.08
319.99	-120.66
320.203	43.18
320.417	0.17
320.63	153.77
320.843	190.63
321.057	-65.36
321.27	-53.08
321.483	8.36
321.697	26.79
321.91	49.32
322.124	-51.03
322.337	61.61
322.55	-38.74
322.763	-48.98
322.977	92.33
323.19	12.46
323.403	-20.31
323.617	75.95
323.83	39.08
324.043	-22.36
324.256	63.66
324.469	-100.18
324.683	96.43
324.896	12.46
325.109	47.27
325.322	-91.99
325.535	6.31
325.748	43.18
325.962	-18.26
326.175	-42.84
326.388	2.22
326.601	63.66
326.814	63.66
327.027	26.79
327.24	22.7
327.453	-112.47
327.666	123.05
327.879	153.77
328.092	53.42
328.305	-24.4
328.518	28.84
328.731	53.42
328.944	12.46
329.157	-8.02
329.37	-34.64
329.583	147.62
329.796	121
330.009	-100.18
330.222	71.85
330.435	110.76
330.648	-59.22
330.861	84.14
331.073	69.8
331.286	59.56
331.499	75.95
331.712	-57.17
331.925	20.65
332.138	-75.6
332.35	75.95
332.563	-18.26
332.776	61.61
332.989	-14.17
333.202	-20.31
333.414	-3.93
333.627	-24.4
333.84	2.22
334.053	-1.88
334.265	63.66
334.478	14.51
334.691	2.22
334.903	39.08
335.116	-32.6
335.329	-24.4
335.541	112.81
335.754	84.14
335.966	-8.02
336.179	-10.07
336.392	57.51
336.604	-63.32
336.817	34.99
337.029	82.09
337.242	77.99
337.454	-1.88
337.667	-12.12
337.88	73.9
338.092	75.95
338.305	123.05
338.517	112.81
338.729	86.19
338.942	57.51
339.154	-20.31
339.367	-48.98
339.579	69.8
339.792	-102.23
340.004	-1.88
340.217	-38.74
340.429	-26.45
340.641	14.51
340.854	-42.84
341.066	57.51
341.278	61.61
341.491	151.72
341.703	53.42
341.915	20.65
342.128	98.47
342.34	32.94
342.552	-30.55
342.764	71.85
342.977	0.17
343.189	10.41
343.401	22.7
343.613	-51.03
343.826	-28.5
344.038	-30.55
344.25	-22.36
344.462	12.46
344.674	34.99
344.886	-34.64
345.099	34.99
345.311	-67.41
345.523	53.42
345.735	-128.85
345.947	131.24
346.159	24.75
346.371	8.36
346.583	71.85
346.795	145.58
347.007	10.41
347.219	45.23
347.431	-1.88
347.643	67.75
347.855	14.51
348.067	108.71
348.279	-100.18
348.491	104.62
348.703	4.27
348.915	57.51
349.127	30.89
349.339	-16.21
349.551	-18.26
349.763	28.84
349.975	22.7
350.187	55.47
350.399	63.66
350.61	65.71
350.822	14.51
351.034	-1.88
351.246	67.75
351.458	94.38
351.669	20.65
351.881	96.43
352.093	104.62
352.305	88.23
352.517	102.57
352.728	82.09
352.94	104.62
353.152	22.7
353.363	-38.74
353.575	45.23
353.787	73.9
353.999	22.7
354.21	96.43
354.422	-91.99
354.633	45.23
354.845	63.66
355.057	28.84
355.268	6.31
355.48	94.38
355.692	-22.36
355.903	-1.88
356.115	-38.74
356.326	-91.99
356.538	82.09
356.749	26.79
356.961	133.29
357.172	-30.55
357.384	16.55
357.595	141.48
357.807	-75.6
358.018	2.22
358.23	-1.88
358.441	153.77
358.653	41.13
358.864	4.27
359.075	-32.6
359.287	80.04
359.498	2.22
359.709	65.71
359.921	-42.84
360.132	65.71
360.344	-3.93
360.555	-77.65
360.766	59.56
360.977	45.23
361.189	110.76
361.4	-10.07
361.611	121
361.823	59.56
362.034	34.99
362.245	-104.28
362.456	-30.55
362.667	28.84
362.879	24.75
363.09	-38.74
363.301	69.8
363.512	41.13
363.723	-40.79
363.935	-5.97
364.146	102.57
364.357	-1.88
364.568	28.84
364.779	-91.99
364.99	90.28
365.201	-38.74
365.412	110.76
365.623	-30.55
365.834	16.55
366.045	0.17
366.256	114.86
366.467	133.29
366.678	-65.36
366.889	59.56
367.1	-16.21
367.311	53.42
367.522	-40.79
367.733	39.08
367.944	80.04
368.155	14.51
368.366	32.94
368.577	34.99
368.788	80.04
368.999	-22.36
369.209	77.99
369.42	129.19
369.631	174.25
369.842	20.65
370.053	-42.84
370.264	127.14
370.474	-96.08
370.685	80.04
370.896	10.41
371.107	137.38
371.317	88.23
371.528	22.7
371.739	55.47
371.95	34.99
372.16	100.52
372.371	14.51
372.582	-10.07
372.792	43.18
373.003	22.7
373.214	30.89
373.424	39.08
373.635	-1.88
373.846	96.43
374.056	12.46
374.267	63.66
374.477	18.6
374.688	51.37
374.898	53.42
375.109	102.57
375.319	-5.97
375.53	12.46
375.74	18.6
375.951	-12.12
376.161	39.08
376.372	104.62
376.582	51.37
376.793	34.99
377.003	37.03
377.214	-36.69
377.424	-12.12
377.635	0.17
377.845	-1.88
378.055	174.25
378.266	-14.17
378.476	53.42
378.686	14.51
378.897	-53.08
379.107	67.75
379.317	96.43
379.528	49.32
379.738	57.51
379.948	-81.75
380.158	77.99
380.369	-57.17
380.579	59.56
380.789	-1.88
380.999	-18.26
381.21	116.9
381.42	149.67
381.63	2.22
381.84	100.52
382.05	67.75
382.261	84.14
382.471	104.62
382.681	-14.17
382.891	55.47
383.101	121
383.311	-38.74
383.521	67.75
383.731	26.79
383.941	26.79
384.151	-10.07
384.361	-16.21
384.571	32.94
384.781	108.71
384.991	137.38
385.201	153.77
385.411	20.65
385.621	90.28
385.831	0.17
386.041	-36.69
386.251	6.31
386.461	71.85
386.671	88.23
386.881	59.56
387.091	-20.31
387.301	61.61
387.511	20.65
387.72	37.03
387.93	47.27
388.14	-96.08
388.35	45.23
388.56	69.8
388.769	69.8
388.979	-28.5
389.189	-51.03
389.399	6.31
389.609	53.42
389.818	125.1
390.028	77.99
390.238	82.09
390.447	-61.27
390.657	45.23
390.867	-20.31
391.076	-100.18
391.286	16.55
391.496	-14.17
391.705	-12.12
391.915	114.86
392.125	149.67
392.334	-34.64
392.544	133.29
392.753	43.18
392.963	-3.93
393.172	-28.5
393.382	-51.03
393.591	153.77
393.801	28.84
394.01	125.1
394.22	69.8
394.429	18.6
394.639	18.6
394.848	75.95
395.058	41.13
395.267	32.94
395.477	-5.97
395.686	55.47
395.895	180.39
396.105	166.06
396.314	6.31
396.524	-44.88
396.733	41.13
396.942	73.9
397.152	12.46
397.361	137.38
397.57	59.56
397.78	-16.21
397.989	12.46
398.198	112.81
398.407	73.9
398.617	34.99
398.826	71.85
399.035	-5.97
399.244	16.55
399.453	67.75
399.663	-51.03
399.872	73.9
400.081	-22.36
400.29	141.48
400.499	-28.5
400.708	80.04
400.917	18.6
401.127	30.89
401.336	18.6
401.545	180.39
401.754	110.76
401.963	96.43
402.172	12.46
402.381	30.89
402.59	6.31
402.799	-24.4
403.008	104.62
403.217	26.79
403.426	73.9
403.635	-20.31
403.844	-104.28
404.053	67.75
404.262	-100.18
404.471	102.57
404.68	8.36
404.888	-1.88
405.097	-10.07
405.306	-16.21
405.515	84.14
405.724	-14.17
405.933	30.89
406.142	47.27
406.35	157.86
406.559	88.23
406.768	-46.93
406.977	59.56
407.185	129.19
407.394	12.46
407.603	-87.89
407.812	86.19
408.02	131.24
408.229	77.99
408.438	37.03
408.646	-79.7
408.855	51.37
409.064	80.04
409.272	45.23
409.481	59.56
409.69	14.51
409.898	-67.41
410.107	65.71
410.315	131.24
410.524	-28.5
410.733	-24.4
410.941	-22.36
411.15	129.19
411.358	127.14
411.567	135.34
411.775	22.7
411.984	-48.98
412.192	34.99
412.401	2.22
412.609	178.34
412.818	137.38
413.026	55.47
413.234	6.31
413.443	110.76
413.651	-67.41
413.86	-38.74
414.068	55.47
414.276	116.9
414.485	-28.5
414.693	102.57
414.901	137.38
415.11	53.42
415.318	104.62
415.526	49.32
415.734	43.18
415.943	63.66
416.151	53.42
416.359	12.46
416.567	100.52
416.776	100.52
416.984	133.29
417.192	178.34
417.4	63.66
417.608	-20.31
417.817	-61.27
418.025	53.42
418.233	139.43
418.441	-61.27
418.649	-73.56
418.857	67.75
419.065	207.02
419.273	-5.97
419.481	67.75
419.689	34.99
419.897	14.51
420.105	-34.64
420.313	30.89
420.521	153.77
420.729	161.96
420.937	6.31
421.145	-36.69
421.353	118.95
421.561	129.19
421.769	96.43
421.977	-10.07
422.185	77.99
422.393	-18.26
422.601	139.43
422.809	0.17
423.017	73.9
423.224	67.75
423.432	149.67
423.64	-59.22
423.848	112.81
424.056	73.9
424.263	28.84
424.471	4.27
424.679	166.06
424.887	-51.03
425.094	112.81
425.302	129.19
425.51	104.62
425.718	121
425.925	63.66
426.133	37.03
426.341	161.96
426.548	96.43
426.756	-42.84
426.964	108.71
427.171	-10.07
427.379	96.43
427.586	53.42
427.794	53.42
428.001	94.38
428.209	37.03
428.417	145.58
428.624	98.47
428.832	32.94
429.039	43.18
429.247	37.03
429.454	157.86
429.662	90.28
429.869	61.61
430.076	18.6
430.284	102.57
430.491	116.9
430.699	194.73
430.906	159.91
431.114	125.1
431.321	139.43
431.528	86.19
431.736	131.24
431.943	198.82
432.15	153.77
432.358	143.53
432.565	233.64
432.772	22.7
432.979	151.72
433.187	65.71
433.394	166.06
433.601	86.19
433.808	231.59
434.016	223.4
434.223	188.58
434.43	170.15
434.637	209.06
434.844	198.82
435.052	227.5
435.259	194.73
435.466	231.59
435.673	241.83
435.88	282.79
436.087	350.37
436.294	317.61
436.501	333.99
436.708	307.37
436.915	301.22
437.122	366.76
437.329	235.69
437.537	374.95
437.743	303.27
437.95	401.57
438.157	315.56
438.364	397.48
438.571	354.47
438.778	383.14
438.985	503.97
439.192	403.62
439.399	372.9
439.606	501.92
439.813	497.83
440.02	497.83
440.227	600.23
440.433	579.75
440.64	522.4
440.847	456.87
441.054	616.61
441.261	635.04
441.467	528.55
441.674	559.27
441.881	708.77
442.088	637.09
442.294	708.77
442.501	686.24
442.708	673.95
442.914	628.9
443.121	866.46
443.328	815.26
443.534	866.46
443.741	915.61
443.948	671.9
444.154	1022.11
444.361	1134.75
444.568	878.75
444.774	948.38
444.981	1054.87
445.187	1183.9
445.394	1104.03
445.6	1048.73
445.807	1271.96
446.013	1253.53
446.22	1149.08
446.426	1415.32
446.633	1439.89
446.839	1644.69
447.046	1398.93
447.252	1562.77
447.459	1538.2
447.665	1538.2
447.871	1806.48
448.078	1906.83
448.284	1675.41
448.491	1878.16
448.697	2107.53
448.903	2019.47
449.11	2199.69
449.316	2156.68
449.522	2242.7
449.728	2275.46
449.935	2539.65
450.141	2390.15
450.347	2631.81
450.553	2670.72
450.76	2619.52
450.966	2705.54
451.172	2977.92
451.378	3117.18
451.584	3004.54
451.791	3352.7
451.997	3311.74
452.203	3414.13
452.409	3612.79
452.615	3797.1
452.821	3629.17
453.027	3723.38
453.233	4184.17
453.44	4079.72
453.646	4356.2
453.852	4575.33
454.058	4583.52
454.264	4880.48
454.47	5193.82
454.676	5122.14
454.882	5568.6
455.088	5355.61
455.294	5740.63
455.5	5937.23
455.705	6453.32
455.911	6301.77
456.117	6539.33
456.323	6862.91
456.529	6838.34
456.735	7510.07
456.941	7690.29
457.147	7966.77
457.352	8042.54
457.558	8329.26
457.764	8947.75
457.97	9087.01
458.176	9424.92
458.381	9811.99
458.587	10184.72
458.793	10717.19
458.999	10549.26
459.204	11880.44
459.41	12359.66
459.616	12290.03
459.821	12857.32
460.027	13445.09
460.233	14143.44
460.438	14227.41
460.644	15005.64
460.85	15155.14
461.055	15693.76
461.261	16590.77
461.466	15959.99
461.672	16396.21
461.878	18423.7
462.083	18257.81
462.289	18366.35
462.494	19210.12
462.7	19470.21
462.905	19812.22
463.111	20965.23
463.316	22253.4
463.522	22480.72
463.727	23273.29
463.932	24225.59
464.138	25147.18
464.343	26119.96
464.549	26425.11
464.754	28182.27
464.959	28751.6
465.165	29388.52
465.37	29196.01
465.575	28946.16
465.781	31307.47
465.986	31968.96
466.191	31313.61
466.397	32104.13
466.602	31094.48
466.807	32624.31
467.012	33562.28
467.218	33672.87
467.423	34104.99
467.628	35427.98
467.833	36703.87
468.038	36015.75
468.244	35546.76
468.449	37197.43
468.654	36193.92
468.859	36722.3
469.064	36593.28
469.269	35499.66
469.474	36138.63
469.679	36873.85
469.885	35929.73
470.09	36456.06
470.295	36478.59
470.5	35401.36
470.705	35829.38
470.91	34969.24
471.115	34625.18
471.32	34809.5
471.525	35163.79
471.73	33818.28
471.935	33996.45
472.139	32194.24
472.344	32405.18
472.549	32685.75
472.754	31796.93
472.959	31000.27
473.164	30109.41
473.369	29445.87
473.574	30426.84
473.778	29818.6
473.983	29443.82
474.188	28622.58
474.393	27283.21
474.598	27479.82
474.802	27123.47
475.007	26427.16
475.212	26228.51
475.417	25157.42
475.621	24788.78
475.826	24532.79
476.031	23940.93
476.235	23643.97
476.44	23682.88
476.645	22886.22
476.849	22667.09
477.054	22343.51
477.259	21727.07
477.463	21895
477.668	21309.29
477.872	21366.63
478.077	20653.94
478.282	19984.25
478.486	19902.33
478.691	19568.51
478.895	19636.1
479.1	19529.6
479.304	19486.59
479.509	18552.72
479.713	18864.01
479.918	18601.87
480.122	17854.36
480.326	18171.8
480.531	18253.72
480.735	17799.07
480.94	17573.79
481.144	17952.66
481.348	17244.07
481.553	17350.56
481.757	17100.71
481.961	17149.86
482.166	17108.9
482.37	16668.59
482.574	16496.56
482.778	16445.36
482.983	16861.1
483.187	16424.88
483.391	16394.16
483.595	15886.26
483.8	16039.86
484.004	15747
484.208	16074.68
484.412	15536.06
484.616	15280.07
484.821	15224.77
485.025	14929.86
485.229	14987.21
485.433	14776.27
485.637	14618.57
485.841	14225.36
486.045	14301.14
486.249	14032.85
486.453	13588.44
486.657	13512.67
486.861	13477.85
487.065	12842.98
487.269	12767.21
487.473	12410.86
487.677	12582.89
487.881	12521.45
488.085	12009.46
488.289	11929.59
488.493	11495.42
488.697	11702.26
488.901	11374.59
489.105	11032.58
489.309	10876.93
489.512	10706.95
489.716	10745.86
489.92	10221.58
490.124	10035.22
490.328	10166.29
490.531	9695.25
490.735	9705.49
490.939	9502.75
491.143	9291.8
491.346	9050.14
491.55	9058.34
491.754	8851.49
491.958	8906.79
492.161	8609.83
492.365	8511.53
492.569	8269.87
492.772	8151.09
492.976	8026.16
493.18	7915.57
493.383	7936.05
493.587	7827.51
493.79	7651.38
493.994	7557.18
494.197	7632.95
494.401	7231.55
494.605	7379
494.808	7168.06
495.012	7141.44
495.215	7202.88
495.419	7043.14
495.622	6891.59
495.825	6856.77
496.029	6811.71
496.232	6920.26
496.436	6938.69
496.639	6965.31
496.843	6836.29
497.046	6703.17
497.249	7026.75
497.453	6807.62
497.656	6735.94
497.859	6611.01
498.063	6770.76
498.266	6789.19
498.469	6762.56
498.673	6694.98
498.876	6770.76
499.079	6746.18
499.282	6750.28
499.485	7211.07
499.689	6842.43
499.892	6901.83
500.095	6996.03
500.298	6936.64
500.501	6877.25
500.705	7024.7
500.908	7098.43
501.111	6998.08
501.314	7428.15
501.517	7383.1
501.72	7387.19
501.923	7454.78
502.126	7417.91
502.329	7788.6
502.532	7534.65
502.735	7587.89
502.938	7843.89
503.141	7921.71
503.344	7862.32
503.547	8134.7
503.75	8136.75
503.953	8165.42
504.156	8423.47
504.359	8271.92
504.562	8622.12
504.765	8869.92
504.968	8908.83
505.17	8955.94
505.373	8996.9
505.576	9467.93
505.779	9365.53
505.982	9371.68
506.185	9711.64
506.387	9695.25
506.59	9869.33
506.793	10278.93
506.996	10219.53
507.198	10469.39
507.401	10676.23
507.604	10983.43
507.807	11243.52
508.009	11446.27
508.212	11550.71
508.415	11393.02
508.617	11948.02
508.82	11943.92
509.022	12318.7
509.225	12607.47
509.428	12744.68
509.63	13201.38
509.833	13283.3
510.035	13883.35
510.238	13924.31
510.44	14262.23
510.643	14471.12
510.845	15073.22
511.048	15075.27
511.25	15546.3
511.453	15781.82
511.655	16547.76
511.858	16633.77
512.06	16906.15
512.262	17409.95
512.465	17784.73
512.667	18024.34
512.87	18364.31
513.072	18806.67
513.274	19365.76
513.477	19818.36
513.679	20086.65
513.881	20725.61
514.084	21026.67
514.286	21358.44
514.488	21858.14
514.69	22597.46
514.893	23129.93
515.095	23228.23
515.297	24045.37
515.499	24385.33
515.701	24950.57
515.904	25405.22
516.106	25802.53
516.308	26459.93
516.51	27295.5
516.712	27510.53
516.914	27705.09
517.116	28514.04
517.318	29007.6
517.52	29671.14
517.722	30166.75
517.925	30717.65
518.127	31602.38
518.329	32227.01
518.531	31975.11
518.733	32960.18
518.935	33717.93
519.136	33994.4
519.338	34975.38
519.54	35325.58
519.742	35393.17
519.944	36445.82
520.146	36974.2
520.348	37199.48
520.55	37813.87
520.752	38291.04
520.954	39284.31
521.155	39116.37
521.357	40097.35
521.559	40017.48
521.761	40836.67
521.963	40873.53
522.164	41299.51
522.366	41451.06
522.568	42194.47
522.77	42272.29
522.971	43167.26
523.173	42825.25
523.375	43587.09
523.576	43281.94
523.778	43152.92
523.98	44502.53
524.181	44563.97
524.383	44547.59
524.584	45090.3
524.786	44770.82
524.988	44416.52
525.189	45010.43
525.391	45145.59
525.592	45633.01
525.794	45630.96
525.995	44891.65
526.197	45145.59
526.398	45372.92
526.6	44924.41
526.801	45000.19
527.003	44973.56
527.204	44992
527.406	44965.37
527.607	44506.63
527.808	44729.86
528.01	43630.1
528.211	43900.43
528.412	44420.61
528.614	43916.81
528.815	43349.53
529.016	43451.92
529.218	42724.89
529.419	43046.43
529.62	42393.12
529.822	41877.04
530.023	41305.65
530.224	41492.02
530.425	40953.4
530.626	39990.86
530.828	39495.25
531.029	40130.12
531.23	39071.32
531.431	39210.58
531.632	38487.65
531.833	37871.21
532.035	37308.02
532.236	37052.02
532.437	37125.75
532.638	36132.48
532.839	35896.97
533.04	35561.1
533.241	34832.02
533.442	35051.16
533.643	34074.27
533.844	33679.02
534.045	33644.2
534.246	32775.86
534.447	32288.45
534.648	32116.42
534.849	31844.04
535.05	30942.93
535.251	31024.85
535.451	30342.88
535.652	29843.17
535.853	29505.26
536.054	29275.88
536.255	29279.98
536.456	28540.66
536.657	28251.9
536.857	27479.82
537.058	27248.39
537.259	27227.92
537.46	26382.1
537.66	26429.21
537.861	26095.39
538.062	25745.19
538.263	25521.96
538.463	24940.33
538.664	24807.22
538.865	24600.37
539.065	24078.14
539.266	23879.49
539.466	23406.41
539.667	23097.16
539.868	23007.05
540.068	22564.69
540.269	22431.57
540.469	22404.95
540.67	21907.29
540.87	21698.4
541.071	21383.01
541.271	21286.76
541.472	20973.42
541.672	20752.24
541.873	20473.71
542.073	20129.66
542.274	20209.53
542.474	19781.5
542.675	19371.91
542.875	19486.59
543.075	19079.05
543.276	18644.88
543.476	18925.45
543.676	18323.35
543.877	18452.37
544.077	18280.34
544.277	17987.48
544.478	17878.94
544.678	17455.01
544.878	17358.75
545.078	17217.44
545.279	16961.45
545.479	16514.99
545.679	16719.79
545.879	16355.25
546.079	16443.31
546.28	15824.83
546.48	15794.11
546.68	15886.26
546.88	15546.3
547.08	15491.01
547.28	15038.41
547.48	14618.57
547.68	14833.61
547.88	14550.99
548.081	14241.75
548.281	14125.01
548.481	13834.2
548.681	13930.45
548.881	13649.88
549.081	13416.41
549.28	13293.54
549.48	13348.83
549.68	12926.95
549.88	12990.44
550.08	12597.23
550.28	12384.24
550.48	12242.93
550.68	12130.29
550.88	11880.44
551.08	11806.71
551.279	11825.14
551.479	11419.64
551.679	11436.03
551.879	11030.53
552.079	11241.47
552.278	10946.56
552.478	10811.4
552.678	10657.8
552.878	10670.09
553.077	10221.58
553.277	9912.34
553.477	9838.61
553.676	9852.95
553.876	9650.2
554.076	9474.07
554.275	9410.59
554.475	9013.28
554.674	8994.85
554.874	8857.64
555.074	8607.78
555.273	8628.26
555.473	8532.01
555.672	8230.96
555.872	8304.68
556.071	8015.92
556.271	8042.54
556.47	7841.84
556.67	7553.08
556.869	7551.03
557.068	7376.95
557.268	7233.6
557.467	7182.4
557.667	7032.9
557.866	7108.67
558.065	6760.52
558.265	6641.73
558.464	6576.2
558.663	6527.05
558.863	6453.32
559.062	6295.63
559.261	6125.65
559.461	6256.72
559.66	5951.57
559.859	5732.44
560.058	5781.59
560.258	5601.37
560.457	5507.16
560.656	5584.98
560.855	5363.8
561.054	5445.72
561.253	5369.94
561.453	5232.73
561.652	5113.95
561.851	5163.1
562.05	4896.86
562.249	4851.81
562.448	4841.57
562.647	4773.99
562.846	4681.83
563.045	4569.19
563.244	4440.17
563.443	4532.33
563.642	4544.61
563.841	4372.58
564.04	4098.16
564.239	4200.55
564.438	4229.23
564.637	4051.05
564.836	3979.37
565.035	3868.78
565.234	3909.74
565.432	3887.22
565.631	3850.35
565.83	3717.23
566.029	3674.23
566.228	3659.89
566.427	3666.03
566.625	3428.47
566.824	3455.09
567.023	3436.66
567.222	3344.5
567.42	3283.06
567.619	3227.77
567.818	3129.47
568.016	3305.59
568.215	3149.95
568.414	3129.47
568.612	3127.42
568.811	3020.92
569.01	2994.3
569.208	2869.37
569.407	2875.52
569.605	2850.94
569.804	2723.97
570.002	2705.54
570.201	2488.45
570.4	2648.19
570.598	2576.52
570.797	2519.17
570.995	2377.86
571.193	2463.88
571.392	2521.22
571.59	2291.85
571.789	2422.92
571.987	2357.38
572.186	2435.21
572.384	2193.55
572.582	2271.37
572.781	2320.52
572.979	2164.87
573.177	2177.16
573.376	2121.87
573.574	2058.38
573.772	1943.69
573.971	1955.98
574.169	1996.94
574.367	1994.89
574.565	1878.16
574.763	1865.87
574.962	1790.1
575.16	1820.81
575.358	1767.57
575.556	1802.38
575.754	1839.25
575.952	1757.33
576.151	1755.28
576.349	1767.57
576.547	1501.33
576.745	1472.66
576.943	1628.31
577.141	1591.44
577.339	1484.95
577.537	1558.67
577.735	1597.59
577.933	1415.32
578.131	1351.83
578.329	1435.8
578.527	1271.96
578.725	1394.84
578.923	1259.67
579.121	1323.16
579.319	1263.77
579.516	1161.37
579.714	1306.77
579.912	1276.06
580.11	1056.92
580.308	1192.09
580.506	1151.13
580.704	1005.72
580.901	1050.78
581.099	1140.89
581.297	1124.51
581.495	1128.6
581.692	1087.64
581.89	1173.66
582.088	1028.25
582.285	1018.01
582.483	940.19
582.681	960.67
582.878	964.76
583.076	917.66
583.274	1013.92
583.471	987.29
583.669	841.89
583.866	874.65
584.064	786.59
584.262	858.27
584.459	850.08
584.657	901.28
584.854	880.8
585.052	917.66
585.249	944.28
585.447	839.84
585.644	755.87
585.841	884.89
586.039	907.42
586.236	874.65
586.434	723.1
586.631	710.82
586.828	731.3
587.026	796.83
587.223	686.24
587.42	659.62
587.618	684.19
587.815	792.73
588.012	682.14
588.21	698.53
588.407	731.3
588.604	739.49
588.801	587.94
588.999	569.51
589.196	778.4
589.393	596.13
589.59	727.2
589.787	645.28
589.984	694.43
590.182	690.34
590.379	628.9
590.576	659.62
590.773	579.75
590.97	612.51
591.167	612.51
591.364	678.05
591.561	600.23
591.758	678.05
591.955	571.55
592.152	620.71
592.349	602.27
592.546	542.88
592.743	546.98
592.94	577.7
593.137	643.23
593.334	624.8
593.531	579.75
593.727	604.32
593.924	645.28
594.121	680.1
594.318	589.99
594.515	653.47
594.712	784.54
594.908	784.54
595.105	604.32
595.302	682.14
595.499	676
595.696	731.3
595.892	716.96
596.089	852.13
596.286	659.62
596.482	839.84
596.679	833.69
596.876	714.91
597.072	897.18
597.269	856.22
597.466	882.85
597.662	802.97
597.859	815.26
598.055	897.18
598.252	987.29
598.448	1101.98
598.645	1140.89
598.841	1036.44
599.038	1165.46
599.234	1212.57
599.431	1210.52
599.627	1251.48
599.824	1239.19
600.02	1423.51
600.217	1460.37
600.413	1495.19
600.609	1415.32
600.806	1730.7
601.002	1648.79
601.198	1697.94
601.395	1816.72
601.591	1896.59
601.787	1882.25
601.984	2044.04
602.18	1951.88
602.376	2113.67
602.572	2314.38
602.769	2250.89
602.965	2363.53
603.161	2474.12
603.357	2617.47
603.553	2660.48
603.75	2726.02
603.946	2797.7
604.142	3022.97
604.338	3143.8
604.534	3244.15
604.73	3076.22
604.926	3291.26
605.122	3543.16
605.318	3502.2
605.514	3776.63
605.71	3731.57
605.906	3909.74
606.102	3866.74
606.298	4116.59
606.494	4188.27
606.69	4434.02
606.886	4442.21
607.082	4556.9
607.278	4704.35
607.474	4952.16
607.67	5029.98
607.866	4919.39
608.062	5404.76
608.257	5458.01
608.453	5503.06
608.649	5673.04
608.845	5789.78
609.041	6049.87
609.236	6256.72
609.432	6428.74
609.628	6617.16
609.824	6752.32
610.019	6891.59
610.215	7123.01
610.411	7426.11
610.606	7563.32
610.802	7827.51
610.998	7800.88
611.193	8235.05
611.389	8144.94
611.584	8661.03
611.78	8738.85
611.976	9246.75
612.171	9379.87
612.367	9406.49
612.562	9639.96
612.758	9830.42
612.953	10018.83
613.149	10483.72
613.344	10756.1
613.539	11089.92
613.735	11446.27
613.93	11624.44
614.126	11726.84
614.321	12382.19
614.517	12562.41
614.712	13023.2
614.907	13371.36
615.103	13670.36
615.298	13742.04
615.493	14346.19
615.688	14454.73
615.884	15353.79
616.079	15386.56
616.274	15738.81
616.47	16041.91
616.665	16705.45
616.86	16873.39
617.055	17358.75
617.25	17717.15
617.445	18519.95
617.641	18515.86
617.836	19154.82
618.031	19513.22
618.226	20391.8
618.421	20596.59
618.616	21176.17
618.811	21520.23
619.006	22144.86
619.201	22579.03
619.396	23299.91
619.591	23357.25
619.786	24121.15
619.981	24295.22
620.176	25079.6
620.371	25384.74
620.566	26216.22
620.761	26658.58
620.956	27610.89
621.151	27649.8
621.346	28368.63
621.541	28411.64
621.735	29740.77
621.93	29662.95
622.125	30308.06
622.32	30213.85
622.515	31379.15
622.709	31870.66
622.904	32642.74
623.099	32775.86
623.294	33693.35
623.488	34168.48
623.683	35077.78
623.878	35315.34
624.072	35774.09
624.267	36499.07
624.462	36972.15
624.656	37394.03
624.851	38493.79
625.046	38575.71
625.24	39140.95
625.435	39566.93
625.629	40298.05
625.824	40668.73
626.018	41629.23
626.213	40965.69
626.407	42196.52
626.602	41852.46
626.796	43179.54
626.991	43537.94
627.185	44066.31
627.38	44187.14
627.574	44107.27
627.768	44033.55
627.963	44463.62
628.157	44316.17
628.352	44948.99
628.546	44484.1
628.74	45262.33
628.935	44457.48
629.129	44998.14
629.323	44158.47
629.517	44410.37
629.712	44140.04
629.906	43990.54
630.1	42929.69
630.294	42958.36
630.489	42311.21
630.683	42018.35
630.877	41051.7
631.071	40590.91
631.265	40468.03
631.459	39263.83
631.653	38342.24
631.848	37983.85
632.042	36576.89
632.236	36126.34
632.43	34956.95
632.624	33896.1
632.818	32970.42
633.012	31997.63
633.206	30961.36
633.4	30293.72
633.594	29019.89
633.788	28231.42
633.982	27258.63
634.176	26347.29
634.369	25315.11
634.563	24590.13
634.757	23220.04
634.951	22589.27
635.145	21583.71
635.339	20983.66
635.533	20082.55
635.726	18970.51
635.92	18435.99
636.114	17862.55
636.308	17194.92
636.501	16465.84
636.695	15744.95
636.889	14839.75
637.083	14503.89
637.276	13793.24
637.47	13209.57
637.664	12912.61
637.857	12324.85
638.051	11798.52
638.244	11380.73
638.438	10926.08
638.632	10315.79
638.825	9781.27
639.019	9429.02
639.212	9089.06
639.406	8849.44
639.599	8357.93
639.793	8179.76
639.986	7706.68
640.18	7518.26
640.373	7120.96
640.567	7010.37
640.76	6801.47
640.954	6469.7
641.147	6150.22
641.34	5873.75
641.534	5775.44
641.727	5724.24
641.92	5460.06
642.114	5185.63
642.307	4900.96
642.5	4724.83
642.694	4460.65
642.887	4380.78
643.08	4405.35
643.273	4163.69
643.467	3891.31
643.66	3684.47
643.853	3625.08
644.046	3485.81
644.239	3324.02
644.432	3340.41
644.626	2943.1
644.819	3004.54
645.012	2863.23
645.205	2805.89
645.398	2648.19
645.591	2517.12
645.784	2373.77
645.977	2279.56
646.17	2154.63
646.363	2111.63
646.556	2123.91
646.749	1939.6
646.942	1896.59
647.135	1859.73
647.328	1685.65
647.521	1783.95
647.714	1626.26
647.907	1734.8
648.099	1552.53
648.292	1587.35
648.485	1421.46
648.678	1382.55
648.871	1345.69
649.064	1300.63
649.256	1208.47
649.449	1255.58
649.642	948.38
649.835	1061.02
650.027	1058.97
650.22	1054.87
650.413	966.81
650.605	1054.87
650.798	925.85
650.991	888.99
651.183	942.24
651.376	854.17
651.568	835.74
651.761	807.07
651.954	839.84
652.146	716.96
652.339	725.15
652.531	782.49
652.724	647.33
652.916	600.23
653.109	645.28
653.301	612.51
653.494	624.8
653.686	585.89
653.879	710.82
654.071	567.46
654.263	577.7
654.456	479.4
654.648	610.47
654.84	565.41
655.033	448.68
655.225	616.61
655.417	364.71
655.61	512.16
655.802	510.11
655.994	483.49
656.186	303.27
656.379	460.96
656.571	329.89
656.763	366.76
656.955	385.19
657.148	319.65
657.34	417.96
657.532	319.65
657.724	276.65
657.916	383.14
658.108	346.28
658.3	381.09
658.492	362.66
658.684	250.02
658.876	235.69
659.068	219.3
659.26	280.74
659.452	260.26
659.644	229.54
659.836	415.91
660.028	282.79
660.22	284.84
660.412	239.78
660.604	227.5
660.796	229.54
660.988	325.8
661.18	213.16
661.372	309.41
661.563	159.91
661.755	260.26
661.947	100.52
662.139	145.58
662.331	209.06
662.522	178.34
662.714	151.72
662.906	75.95
663.097	168.1
663.289	161.96
663.481	61.61
663.673	225.45
663.864	104.62
664.056	219.3
664.247	166.06
664.439	190.63
664.631	190.63
664.822	293.03
665.014	186.54
665.205	161.96
665.397	180.39
665.588	170.15
665.78	34.99
665.971	254.12
666.163	161.96
666.354	227.5
666.546	133.29
666.737	90.28
666.929	170.15
667.12	176.3
667.311	180.39
667.503	176.3
667.694	161.96
667.885	92.33
668.077	260.26
668.268	20.65
668.459	94.38
668.651	209.06
668.842	159.91
669.033	102.57
669.224	94.38
669.416	305.32
669.607	47.27
669.798	98.47
669.989	174.25
670.18	172.2
670.371	143.53
670.563	149.67
670.754	149.67
670.945	217.26
671.136	239.78
671.327	88.23
671.518	207.02
671.709	301.22
671.9	182.44
672.091	284.84
672.282	129.19
672.473	153.77
672.664	98.47
672.855	110.76
673.046	266.41
673.237	139.43
673.428	207.02
673.619	252.07
673.809	82.09
674	211.11
674.191	161.96
674.382	194.73
674.573	135.34
674.764	129.19
674.954	223.4
675.145	153.77
675.336	180.39
675.527	121
675.717	219.3
675.908	225.45
676.099	211.11
676.289	200.87
676.48	131.24
676.671	157.86
676.861	190.63
677.052	174.25
677.243	108.71
677.433	108.71
677.624	161.96
677.814	293.03
678.005	131.24
678.195	293.03
678.386	129.19
678.576	170.15
678.767	145.58
678.957	274.6
679.148	290.98
679.338	317.61
679.529	207.02
679.719	256.17
679.909	211.11
680.1	299.17
680.29	264.36
680.481	145.58
680.671	280.74
680.861	241.83
681.052	260.26
681.242	217.26
681.432	284.84
681.622	264.36
681.813	204.97
682.003	235.69
682.193	239.78
682.383	258.21
682.573	153.77
682.764	170.15
682.954	319.65
683.144	399.52
683.334	219.3
683.524	250.02
683.714	350.37
683.904	350.37
684.094	327.85
684.284	393.38
684.474	463.01
684.664	309.41
684.854	305.32
685.044	313.51
685.234	321.7
685.424	280.74
685.614	282.79
685.804	356.52
685.994	307.37
686.184	297.13
686.374	325.8
686.564	303.27
686.753	288.93
686.943	225.45
687.133	264.36
687.323	333.99
687.513	321.7
687.702	266.41
687.892	247.97
688.082	356.52
688.272	293.03
688.461	358.57
688.651	446.63
688.841	286.89
689.03	282.79
689.22	366.76
689.41	362.66
689.599	303.27
689.789	309.41
689.979	370.85
690.168	252.07
690.358	346.28
690.547	317.61
690.737	317.61
690.926	319.65
691.116	274.6
691.305	395.43
691.495	270.5
691.684	305.32
691.874	247.97
692.063	323.75
692.252	297.13
692.442	350.37
692.631	227.5
692.82	295.08
693.01	284.84
693.199	262.31
693.388	262.31
693.578	280.74
693.767	364.71
693.956	356.52
694.146	288.93
694.335	290.98
694.524	247.97
694.713	383.14
694.902	307.37
695.092	317.61
695.281	366.76
695.47	295.08
695.659	245.93
695.848	321.7
696.037	276.65
696.226	290.98
696.415	274.6
696.604	403.62
696.793	299.17
696.982	354.47
697.171	348.33
697.36	303.27
697.549	252.07
697.738	264.36
697.927	262.31
698.116	192.68
698.305	276.65
698.494	307.37
698.683	284.84
698.872	411.81
699.061	295.08
699.25	254.12
699.438	258.21
699.627	297.13
699.816	391.33
700.005	280.74
700.193	192.68
700.382	323.75
700.571	286.89
700.76	342.18
700.948	348.33
701.137	293.03
701.326	329.89
701.514	202.92
701.703	309.41
701.892	309.41
702.08	360.61
702.269	258.21
702.457	192.68
702.646	256.17
702.834	151.72
703.023	301.22
703.212	286.89
703.4	254.12
703.589	241.83
703.777	286.89
703.965	164.01
704.154	252.07
704.342	266.41
704.531	233.64
704.719	272.55
704.907	389.28
705.096	172.2
705.284	129.19
705.472	325.8
705.661	284.84
705.849	313.51
706.037	311.46
706.226	282.79
706.414	395.43
706.602	231.59
706.79	409.76
706.979	211.11
707.167	301.22
707.355	211.11
707.543	288.93
707.731	272.55
707.919	282.79
708.107	278.69
708.296	166.06
708.484	288.93
708.672	231.59
708.86	284.84
709.048	309.41
709.236	274.6
709.424	309.41
709.612	272.55
709.8	217.26
709.988	282.79
710.176	282.79
710.364	309.41
710.551	299.17
710.739	276.65
710.927	284.84
711.115	172.2
711.303	268.45
711.491	321.7
711.679	252.07
711.866	282.79
712.054	262.31
712.242	284.84
712.43	325.8
712.617	274.6
712.805	309.41
712.993	295.08
713.181	233.64
713.368	333.99
713.556	288.93
713.744	198.82
713.931	473.25
714.119	342.18
714.306	243.88
714.494	274.6
714.682	321.7
714.869	233.64
715.057	350.37
715.244	192.68
715.432	383.14
715.619	260.26
715.807	268.45
715.994	243.88
716.182	317.61
716.369	333.99
716.556	352.42
716.744	180.39
716.931	227.5
717.119	340.13
717.306	252.07
717.493	297.13
717.681	340.13
717.868	288.93
718.055	329.89
718.242	301.22
718.43	342.18
718.617	381.09
718.804	268.45
718.991	370.85
719.179	346.28
719.366	350.37
719.553	366.76
719.74	342.18
719.927	331.94
720.114	321.7
720.301	356.52
720.488	317.61
720.676	262.31
720.863	405.67
721.05	399.52
721.237	323.75
721.424	342.18
721.611	338.09
721.798	250.02
721.985	327.85
722.172	309.41
722.358	247.97
722.545	389.28
722.732	366.76
722.919	360.61
723.106	295.08
723.293	282.79
723.48	407.72
723.667	217.26
723.853	379.04
724.04	340.13
724.227	424.1
724.414	290.98
724.6	321.7
724.787	370.85
724.974	432.29
725.161	323.75
725.347	336.04
725.534	307.37
725.72	415.91
725.907	366.76
726.094	413.86
726.28	290.98
726.467	420
726.653	278.69
726.84	456.87
727.027	493.73
727.213	358.57
727.4	372.9
727.586	411.81
727.773	397.48
727.959	370.85
728.145	428.2
728.332	354.47
728.518	309.41
728.705	340.13
728.891	366.76
729.077	383.14
729.264	344.23
729.45	333.99
729.636	413.86
729.823	383.14
730.009	432.29
730.195	323.75
730.382	393.38
730.568	262.31
730.754	372.9
730.94	338.09
731.126	290.98
731.313	493.73
731.499	432.29
731.685	381.09
731.871	428.2
732.057	428.2
732.243	415.91
732.429	460.96
732.615	465.06
732.801	436.39
732.987	456.87
733.173	424.1
733.359	411.81
733.545	399.52
733.731	284.84
733.917	444.58
734.103	422.05
734.289	432.29
734.475	262.31
734.661	506.02
734.847	387.24
735.033	471.2
735.219	514.21
735.404	329.89
735.59	473.25
735.776	362.66
735.962	407.72
736.148	383.14
736.333	463.01
736.519	344.23
736.705	405.67
736.89	424.1
737.076	336.04
737.262	307.37
737.447	350.37
737.633	374.95
737.819	465.06
738.004	422.05
738.19	417.96
738.375	426.15
738.561	471.2
738.747	479.4
738.932	374.95
739.118	561.31
739.303	366.76
739.489	399.52
739.674	356.52
739.859	381.09
740.045	481.44
740.23	446.63
740.416	336.04
740.601	395.43
740.786	391.33
740.972	428.2
741.157	413.86
741.342	290.98
741.528	383.14
741.713	526.5
741.898	387.24
742.084	405.67
742.269	432.29
742.454	471.2
742.639	501.92
742.824	403.62
743.01	471.2
743.195	481.44
743.38	432.29
743.565	469.16
743.75	440.48
743.935	438.44
744.12	440.48
744.305	405.67
744.49	329.89
744.675	407.72
744.86	354.47
745.045	374.95
745.23	444.58
745.415	409.76
745.6	450.72
745.785	354.47
745.97	454.82
746.155	430.24
746.34	393.38
746.525	383.14
746.71	465.06
746.895	272.55
747.079	317.61
747.264	329.89
747.449	420
747.634	350.37
747.819	426.15
748.003	305.32
748.188	290.98
748.373	385.19
748.557	368.81
748.742	348.33
748.927	342.18
749.111	297.13
749.296	370.85
749.481	340.13
749.665	307.37
749.85	329.89
750.034	401.57
750.219	290.98
750.404	333.99
750.588	383.14
750.773	282.79
750.957	323.75
751.141	327.85
751.326	344.23
751.51	260.26
751.695	399.52
751.879	235.69
752.064	422.05
752.248	299.17
752.432	407.72
752.617	366.76
752.801	407.72
752.985	276.65
753.17	420
753.354	399.52
753.538	372.9
753.722	268.45
753.907	288.93
754.091	213.16
754.275	241.83
754.459	307.37
754.643	290.98
754.828	325.8
755.012	350.37
755.196	170.15
755.38	276.65
755.564	293.03
755.748	252.07
755.932	315.56
756.116	344.23
756.3	252.07
756.484	307.37
756.668	252.07
756.852	161.96
757.036	223.4
757.22	223.4
757.404	190.63
757.588	264.36
757.772	260.26
757.956	135.34
758.14	309.41
758.323	159.91
758.507	315.56
758.691	209.06
758.875	233.64
759.059	215.21
759.242	133.29
759.426	153.77
759.61	219.3
759.794	178.34
759.977	272.55
760.161	415.91
760.345	186.54
760.528	274.6
760.712	172.2
760.895	198.82
761.079	204.97
761.263	49.32
761.446	104.62
761.63	202.92
761.813	174.25
761.997	77.99
762.18	137.38
762.364	284.84
762.547	104.62
762.731	207.02
762.914	243.88
763.098	112.81
763.281	172.2
763.464	168.1
763.648	209.06
763.831	186.54
764.015	172.2
764.198	211.11
764.381	178.34
764.564	227.5
764.748	151.72
764.931	194.73
765.114	155.82
765.297	237.74
765.481	172.2
765.664	209.06
765.847	178.34
766.03	204.97
766.213	86.19
766.397	69.8
766.58	59.56
766.763	198.82
766.946	127.14
767.129	161.96
767.312	84.14
767.495	108.71
767.678	75.95
767.861	129.19
768.044	178.34
768.227	133.29
768.41	129.19
768.593	209.06
768.776	121
768.959	141.48
769.142	243.88
769.324	57.51
769.507	151.72
769.69	161.96
769.873	123.05
770.056	284.84
770.239	114.86
770.421	139.43
770.604	176.3
770.787	192.68
770.97	204.97
771.152	80.04
771.335	170.15
771.518	104.62
771.7	164.01
771.883	247.97
772.066	141.48
772.248	247.97
772.431	196.78
772.613	118.95
772.796	139.43
772.978	149.67
773.161	170.15
773.343	77.99
773.526	135.34
773.708	14.51
773.891	37.03
774.073	123.05
774.256	106.67
774.438	180.39
774.621	71.85
774.803	108.71
774.985	110.76
775.168	153.77
775.35	127.14
775.532	104.62
775.715	34.99
775.897	131.24
776.079	86.19
776.261	102.57
776.444	106.67
776.626	129.19
776.808	53.42
776.99	96.43
777.173	96.43
777.355	96.43
777.537	102.57
777.719	94.38
777.901	108.71
778.083	67.75
778.265	47.27
778.447	153.77
778.629	59.56
778.811	104.62
778.993	137.38
779.175	133.29
779.357	20.65
779.539	-87.89
779.721	88.23
779.903	106.67
780.085	53.42
780.267	121
780.449	47.27
780.631	108.71
780.812	112.81
780.994	39.08
781.176	57.51
781.358	14.51
781.54	24.75
781.721	102.57
781.903	100.52
782.085	67.75
782.267	166.06
782.448	18.6
782.63	4.27
782.812	94.38
782.993	121
783.175	106.67
783.357	12.46
783.538	108.71
783.72	37.03
783.901	116.9
784.083	121
784.264	80.04
784.446	-10.07
784.627	-10.07
784.809	123.05
784.99	0.17
785.172	63.66
785.353	55.47
785.535	174.25
785.716	-24.4
785.897	47.27
786.079	92.33
786.26	41.13
786.441	41.13
786.623	-36.69
786.804	-69.46
786.985	61.61
787.167	6.31
787.348	67.75
787.529	49.32
787.71	75.95
787.891	100.52
788.073	-53.08
788.254	-10.07
788.435	182.44
788.616	30.89
788.797	22.7
788.978	-40.79
789.159	-14.17
789.34	-24.4
789.522	30.89
789.703	-12.12
789.884	45.23
790.065	63.66
790.246	90.28
790.427	-67.41
790.607	141.48
790.788	20.65
790.969	-26.45
791.15	69.8
791.331	34.99
791.512	-18.26
791.693	22.7
791.874	12.46
792.054	127.14
792.235	39.08
792.416	6.31
792.597	39.08
792.778	2.22
792.958	69.8
793.139	86.19
793.32	-8.02
793.5	-36.69
793.681	55.47
793.862	-26.45
794.042	-18.26
794.223	-20.31
794.404	34.99
794.584	-10.07
794.765	55.47
794.945	18.6
795.126	63.66
795.306	104.62
795.487	-3.93
795.667	108.71
795.848	39.08
796.028	-44.88
796.209	108.71
796.389	131.24
796.57	-51.03
796.75	16.55
796.93	8.36
797.111	-10.07
797.291	-30.55
797.471	26.79
797.652	-42.84
797.832	-22.36
798.012	41.13
798.192	-51.03
798.373	4.27
798.553	-53.08
798.733	16.55
798.913	-36.69
799.093	4.27
799.274	67.75
799.454	59.56
799.634	106.67
799.814	67.75
799.994	12.46
800.174	51.37
800.354	24.75
800.534	-77.65
800.714	16.55
800.894	-108.37
801.074	-1.88
801.254	-83.8
801.434	-28.5
801.614	53.42
801.794	-46.93
801.974	1443.99
802.154	43.18
802.334	65.71
802.514	-14.17
802.693	-46.93
802.873	47.27
803.053	63.66
803.233	71.85
803.413	-53.08
803.592	-5.97
803.772	-53.08
803.952	28.84
804.131	-67.41
804.311	92.33
804.491	69.8
804.67	10.41
804.85	-77.65
805.03	6.31
805.209	20.65
805.389	-12.12
805.568	4.27
805.748	-42.84
805.928	-55.12
806.107	-1.88
806.287	41.13
806.466	53.42
806.646	-83.8
806.825	6.31
807.004	-59.22
807.184	39.08
807.363	-5.97
807.543	43.18
807.722	-10.07
807.901	73.9
808.081	26.79
808.26	-198.48
808.439	47.27
808.619	-10.07
808.798	-48.98
808.977	18.6
809.156	12.46
809.336	86.19
809.515	112.81
809.694	-40.79
809.873	6.31
810.052	20.65
810.231	77.99
810.411	71.85
810.59	63.66
810.769	55.47
810.948	118.95
811.127	-14.17
811.306	-10.07
811.485	-40.79
811.664	92.33
811.843	43.18
812.022	-14.17
812.201	-8.02
812.38	-5.97
812.559	-96.08
812.737	26.79
812.916	-69.46
813.095	-38.74
813.274	22.7
813.453	-24.4
813.632	-48.98
813.811	-22.36
813.989	-51.03
814.168	12.46
814.347	-120.66
814.526	16.55
814.704	84.14
814.883	75.95
815.062	-10.07
815.24	86.19
815.419	43.18
815.598	8.36
815.776	-124.76
815.955	-51.03
816.133	-116.56
816.312	-30.55
816.49	-96.08
816.669	45.23
816.847	-18.26
817.026	55.47
817.204	-28.5
817.383	-38.74
817.561	-22.36
817.74	24.75
817.918	104.62
818.097	-69.46
818.275	-30.55
818.453	18.6
818.632	67.75
818.81	-51.03
818.988	-96.08
819.167	-18.26
819.345	-20.31
819.523	-61.27
819.701	80.04
819.879	30.89
820.058	-12.12
820.236	-1.88
820.414	-53.08
820.592	-83.8
820.77	-5.97
820.948	-87.89
821.127	-28.5
821.305	-89.94
821.483	-59.22
821.661	39.08
821.839	-28.5
822.017	-100.18
822.195	-12.12
822.373	16.55
822.551	145.58
822.729	86.19
822.907	-26.45
823.085	-12.12
823.262	6.31
823.44	-26.45
823.618	-94.04
823.796	-20.31
823.974	-28.5
824.152	-38.74
824.329	-20.31
824.507	-18.26
824.685	-10.07
824.863	-20.31
825.04	-3.93
825.218	-5.97
825.396	-1.88
825.574	63.66
825.751	-53.08
825.929	-22.36
826.107	-44.88
826.284	-44.88
826.462	-18.26
826.639	-10.07
826.817	-59.22
826.994	-1.88
827.172	-42.84
827.349	116.9
827.527	4.27
827.704	34.99
827.882	18.6
828.059	-3.93
828.237	-8.02
828.414	-44.88
828.591	-94.04
828.769	45.23
828.946	-44.88
829.124	86.19
829.301	96.43
829.478	41.13
829.655	61.61
829.833	6.31
830.01	-145.24
830.187	63.66
830.364	-46.93
830.542	14.51
830.719	65.71
830.896	110.76
831.073	10.41
831.25	26.79
831.427	12.46
831.604	-28.5
831.782	-63.32
831.959	8.36
832.136	18.6
832.313	-26.45
832.49	-53.08
832.667	20.65
832.844	-53.08
833.021	22.7
833.198	-26.45
833.374	26.79
833.551	47.27
833.728	-59.22
833.905	-24.4
834.082	-89.94
834.259	112.81
834.436	153.77
834.612	-100.18
834.789	-32.6
834.966	55.47
835.143	-77.65
835.319	6.31
835.496	102.57
835.673	-12.12
835.85	84.14
836.026	2.22
836.203	10.41
836.38	-51.03
836.556	-67.41
836.733	4.27
836.909	77.99
837.086	-18.26
837.262	-26.45
837.439	8.36
837.616	-26.45
837.792	24.75
837.968	-85.84
838.145	-153.43
838.321	22.7
838.498	22.7
838.674	84.14
838.851	-12.12
839.027	-81.75
839.203	-5.97
839.38	84.14
839.556	-10.07
839.732	2.22
839.909	-28.5
840.085	22.7
840.261	-36.69
840.437	-38.74
840.614	-46.93
840.79	84.14
840.966	-8.02
841.142	-51.03
841.318	-75.6
841.494	-3.93
841.671	0.17
841.847	-53.08
842.023	-63.32
842.199	26.79
842.375	-22.36
842.551	-124.76
842.727	-69.46
842.903	98.47
843.079	-51.03
843.255	39.08
843.431	-51.03
843.607	-32.6
843.783	-165.71
843.959	-1.88
844.134	26.79
844.31	90.28
844.486	-34.64
844.662	-67.41
844.838	12.46
845.013	16.55
845.189	-26.45
845.365	57.51
845.541	22.7
845.716	-44.88
845.892	34.99
846.068	-59.22
846.244	-34.64
846.419	98.47
846.595	-5.97
846.77	-157.52
846.946	45.23
847.122	-14.17
847.297	-3.93
847.473	34.99
847.648	-18.26
847.824	-38.74
847.999	-149.33
848.175	-3.93
848.35	-8.02
848.526	2.22
848.701	18.6
848.876	69.8
849.052	88.23
849.227	59.56
849.403	-8.02
849.578	-20.31
849.753	-1.88
849.929	-10.07
850.104	-85.84
850.279	-5.97
850.454	4.27
850.63	-38.74
850.805	2.22
850.98	-10.07
851.155	-18.26
851.33	-5.97
851.505	-89.94
851.681	88.23
851.856	-87.89
852.031	88.23
852.206	18.6
852.381	-69.46
852.556	-55.12
852.731	10.41
852.906	22.7
853.081	39.08
853.256	166.06
853.431	22.7
853.606	-165.71
853.781	-24.4
853.956	-149.33
854.131	4.27
854.305	-53.08
854.48	-67.41
854.655	-44.88
854.83	-59.22
855.005	-44.88
855.18	-36.69
855.354	-20.31
855.529	55.47
855.704	-28.5
855.879	22.7
856.053	-132.95
856.228	30.89
856.403	-55.12
856.577	63.66
856.752	-100.18
856.926	-5.97
857.101	-26.45
857.276	-55.12
857.45	61.61
857.625	39.08
857.799	-10.07
857.974	-12.12
858.148	-83.8
858.323	-34.64
858.497	-106.32
858.672	-89.94
858.846	-44.88
859.02	22.7
859.195	-14.17
859.369	-63.32
859.543	32.94
859.718	-69.46
859.892	-22.36
860.066	-32.6
860.241	-3.93
860.415	-3.93
860.589	-65.36
860.763	-32.6
860.938	-94.04
861.112	37.03
861.286	-10.07
861.46	12.46
861.634	-16.21
861.808	14.51
861.982	-46.93
862.157	-46.93
862.331	0.17
862.505	-14.17
862.679	-89.94
862.853	-44.88
863.027	20.65
863.201	53.42
863.375	-30.55
863.549	63.66
863.722	-42.84
863.896	61.61
864.07	-46.93
864.244	-34.64
864.418	61.61
864.592	-12.12
864.766	-79.7
864.939	18.6
865.113	-55.12
865.287	34.99
865.461	-77.65
865.634	-5.97
865.808	-77.65
865.982	22.7
866.156	-59.22
866.329	-126.8
866.503	-20.31
866.676	16.55
866.85	-71.51
867.024	-38.74
867.197	45.23
867.371	-34.64
867.544	-63.32
867.718	-79.7
867.891	77.99
868.065	-46.93
868.238	30.89
868.412	30.89
868.585	12.46
868.759	-48.98
868.932	-26.45
869.105	-42.84
869.279	8.36
869.452	-48.98
869.625	14.51
869.799	47.27
869.972	-63.32
870.145	-34.64
870.319	-22.36
870.492	-42.84
870.665	-83.8
870.838	-34.64
871.011	-149.33
871.185	-61.27
871.358	-26.45
871.531	-30.55
871.704	-96.08
871.877	-38.74
872.05	-22.36
872.223	-59.22
872.396	63.66
872.569	-42.84
872.742	-83.8
872.915	-1.88
873.088	-10.07
873.261	-59.22
873.434	37.03
873.607	24.75
873.78	92.33
873.953	-85.84
874.126	12.46
874.299	-5.97
874.471	-59.22
874.644	-73.56
874.817	-12.12
874.99	121
875.163	-91.99
875.335	-44.88
875.508	-28.5
875.681	71.85
875.853	-12.12
876.026	-132.95
876.199	-71.51
876.371	-18.26
876.544	-106.32
876.717	43.18
876.889	-75.6
877.062	14.51
877.234	-143.19
877.407	-63.32
877.579	6.31
877.752	-98.13
877.924	-12.12
878.097	-83.8
878.269	-10.07
878.442	51.37
878.614	63.66
878.786	-28.5
878.959	-14.17
879.131	-46.93
879.303	-135
879.476	8.36
879.648	45.23
879.82	30.89
879.993	-104.28
880.165	-32.6
880.337	-122.71
880.509	-34.64
880.681	-120.66
880.854	-65.36
881.026	88.23
881.198	98.47
881.37	-34.64
881.542	12.46
881.714	-8.02
881.886	-38.74
882.058	-75.6
882.23	-61.27
882.402	-38.74
882.574	26.79
882.746	-1.88
882.918	84.14
883.09	2.22
883.262	-18.26
883.434	-71.51
883.606	-59.22
883.778	22.7
883.95	80.04
884.122	30.89
884.293	28.84
884.465	6.31
884.637	4.27
884.809	26.79
884.98	112.81
885.152	6.31
885.324	-3.93
885.496	-55.12
885.667	-36.69
885.839	-91.99
886.011	94.38
886.182	-8.02
886.354	-30.55
886.525	-38.74
886.697	-14.17
886.869	-57.17
887.04	-26.45
887.212	96.43
887.383	112.81
887.555	6.31
887.726	12.46
887.897	-85.84
888.069	-51.03
888.24	-28.5
888.412	2.22
888.583	-69.46
888.754	-8.02
888.926	-61.27
889.097	-16.21
889.268	-55.12
889.44	-26.45
889.611	-94.04
889.782	-51.03
889.953	-36.69
890.125	77.99
890.296	-63.32
890.467	-91.99
890.638	-91.99
890.809	-63.32
890.98	-10.07
891.151	8.36
891.323	-20.31
891.494	65.71
891.665	10.41
891.836	-40.79
892.007	-34.64
892.178	4.27
892.349	34.99
892.52	-51.03
892.691	-42.84
892.862	-10.07
893.032	-73.56
893.203	-108.37
893.374	14.51
893.545	-1.88
893.716	-87.89
893.887	-20.31
894.057	-22.36
894.228	-18.26
894.399	-5.97
894.57	73.9
894.74	-63.32
894.911	-5.97
895.082	51.37
895.253	-65.36
895.423	-12.12
895.594	63.66
895.764	-12.12
895.935	-34.64
896.106	-38.74
896.276	14.51
896.447	-55.12
896.617	-81.75
896.788	-85.84
896.958	-10.07
897.129	-59.22
897.299	-118.61
897.47	80.04
897.64	-32.6
897.81	-141.14
897.981	-51.03
898.151	6.31
898.322	43.18
898.492	45.23
898.662	-22.36
898.832	-149.33
899.003	-83.8
899.173	12.46
899.343	-1.88
899.513	-75.6
