Data from USB4F104151__75__10-33-04-444.txt Node

Date: Wed Feb 26 10:33:04 EST 2025
User: louis
Spectrometer: USB4F10415
Trigger mode: 4
Integration Time (sec): 1.000000E-1
Scans to average: 1
Electric dark correction enabled: true
Nonlinearity correction enabled: false
Boxcar width: 0
XAxis mode: Wavelengths
Number of Pixels in Spectrum: 3648
>>>>>Begin Spectral Data<<<<<
178.204	-417.79
178.424	-417.79
178.644	-417.79
178.864	-389.11
179.084	-428.03
179.304	61.44
179.524	-104.45
179.744	-2.05
179.964	12.29
180.184	57.34
180.404	20.48
180.624	-38.91
180.844	36.86
181.064	-75.77
181.283	-8.19
181.503	6.14
181.723	34.82
181.943	-75.77
182.163	182.27
182.383	12.29
182.602	73.73
182.822	151.55
183.042	47.1
183.262	-18.43
183.482	57.34
183.701	59.39
183.921	55.3
184.141	-122.88
184.361	139.26
184.58	77.82
184.8	157.69
185.02	-38.91
185.239	155.65
185.459	88.06
185.679	96.25
185.898	-30.72
186.118	83.97
186.338	108.54
186.557	94.21
186.777	-59.39
186.997	47.1
187.216	26.62
187.436	163.84
187.655	10.24
187.875	67.58
188.095	77.82
188.314	108.54
188.534	153.6
188.753	24.58
188.973	77.82
189.192	174.08
189.412	73.73
189.631	40.96
189.851	98.3
190.07	186.37
190.29	4.1
190.509	-24.58
190.729	108.54
190.948	167.93
191.168	192.51
191.387	110.59
191.607	-16.38
191.826	116.73
192.045	6.14
192.265	63.49
192.484	59.39
192.704	61.44
192.923	-45.06
193.142	174.08
193.362	133.12
193.581	145.41
193.8	108.54
194.02	139.26
194.239	100.35
194.458	135.17
194.678	73.73
194.897	18.43
195.116	159.74
195.335	77.82
195.555	124.93
195.774	47.1
195.993	75.77
196.212	69.63
196.432	16.38
196.651	36.86
196.87	55.3
197.089	227.32
197.308	73.73
197.528	34.82
197.747	-22.53
197.966	34.82
198.185	174.08
198.404	-20.48
198.623	192.51
198.842	124.93
199.062	126.97
199.281	61.44
199.5	22.53
199.719	98.3
199.938	106.49
200.157	77.82
200.376	151.55
200.595	112.64
200.814	108.54
201.033	108.54
201.252	223.23
201.471	124.93
201.69	6.14
201.909	141.31
202.128	118.78
202.347	131.07
202.566	47.1
202.785	-2.05
203.004	51.2
203.223	288.76
203.442	71.68
203.661	16.38
203.879	102.4
204.098	184.32
204.317	-18.43
204.536	116.73
204.755	71.68
204.974	149.5
205.193	22.53
205.411	149.5
205.63	104.45
205.849	22.53
206.068	96.25
206.287	-32.77
206.505	110.59
206.724	59.39
206.943	8.19
207.162	53.25
207.381	63.49
207.599	22.53
207.818	63.49
208.037	-34.82
208.255	30.72
208.474	92.16
208.693	53.25
208.911	6.14
209.13	133.12
209.349	83.97
209.567	92.16
209.786	108.54
210.005	190.46
210.223	51.2
210.442	-53.25
210.661	-24.58
210.879	77.82
211.098	139.26
211.316	20.48
211.535	65.54
211.753	112.64
211.972	96.25
212.191	16.38
212.409	30.72
212.628	75.77
212.846	98.3
213.065	26.62
213.283	139.26
213.502	153.6
213.72	22.53
213.938	77.82
214.157	51.2
214.375	114.69
214.594	102.4
214.812	137.21
215.031	-4.1
215.249	61.44
215.467	20.48
215.686	71.68
215.904	53.25
216.122	137.21
216.341	169.98
216.559	43.01
216.778	98.3
216.996	114.69
217.214	47.1
217.432	55.3
217.651	-14.34
217.869	69.63
218.087	38.91
218.306	6.14
218.524	61.44
218.742	-22.53
218.96	153.6
219.179	47.1
219.397	-14.34
219.615	239.61
219.833	161.79
220.051	-30.72
220.27	208.89
220.488	116.73
220.706	49.15
220.924	14.34
221.142	-6.14
221.36	63.49
221.578	122.88
221.796	36.86
222.015	65.54
222.233	83.97
222.451	208.89
222.669	-8.19
222.887	116.73
223.105	-14.34
223.323	57.34
223.541	4.1
223.759	157.69
223.977	47.1
224.195	167.93
224.413	65.54
224.631	96.25
224.849	71.68
225.067	227.32
225.285	8.19
225.503	45.06
225.721	-133.12
225.939	26.62
226.157	34.82
226.375	262.14
226.592	47.1
226.81	63.49
227.028	141.31
227.246	159.74
227.464	96.25
227.682	49.15
227.9	174.08
228.117	18.43
228.335	22.53
228.553	57.34
228.771	65.54
228.989	34.82
229.206	83.97
229.424	100.35
229.642	28.67
229.86	-12.29
230.077	163.84
230.295	20.48
230.513	137.21
230.731	96.25
230.948	219.13
231.166	165.89
231.384	-55.3
231.601	-63.49
231.819	221.18
232.037	-14.34
232.254	-24.58
232.472	49.15
232.689	43.01
232.907	98.3
233.125	59.39
233.342	-2.05
233.56	20.48
233.777	73.73
233.995	73.73
234.213	135.17
234.43	26.62
234.648	30.72
234.865	51.2
235.083	184.32
235.3	61.44
235.518	145.41
235.735	231.42
235.953	100.35
236.17	108.54
236.388	43.01
236.605	49.15
236.822	96.25
237.04	34.82
237.257	106.49
237.475	-65.53
237.692	55.3
237.909	75.77
238.127	36.86
238.344	45.06
238.562	83.97
238.779	-32.77
238.996	-40.96
239.214	-12.29
239.431	75.77
239.648	63.49
239.865	100.35
240.083	40.96
240.3	47.1
240.517	55.3
240.735	69.63
240.952	114.69
241.169	110.59
241.386	59.39
241.603	18.43
241.821	-55.3
242.038	38.91
242.255	114.69
242.472	-100.35
242.689	133.12
242.907	79.87
243.124	73.73
243.341	69.63
243.558	-30.72
243.775	-12.29
243.992	4.1
244.209	139.26
244.426	180.22
244.643	86.01
244.86	34.82
245.078	98.3
245.295	71.68
245.512	65.54
245.729	2.05
245.946	165.89
246.163	106.49
246.38	81.92
246.597	184.32
246.814	83.97
247.031	61.44
247.248	86.01
247.464	57.34
247.681	28.67
247.898	65.54
248.115	40.96
248.332	55.3
248.549	198.65
248.766	163.84
248.983	131.07
249.2	141.31
249.417	104.45
249.633	10.24
249.85	124.93
250.067	22.53
250.284	83.97
250.501	20.48
250.717	92.16
250.934	-32.77
251.151	4.1
251.368	0
251.585	106.49
251.801	63.49
252.018	47.1
252.235	69.63
252.451	14.34
252.668	34.82
252.885	106.49
253.102	57.34
253.318	57.34
253.535	-10.24
253.752	55.3
253.968	-28.67
254.185	-24.58
254.401	38.91
254.618	69.63
254.835	14.34
255.051	157.69
255.268	118.78
255.484	120.83
255.701	10.24
255.917	8.19
256.134	28.67
256.351	47.1
256.567	53.25
256.784	-16.38
257	-51.2
257.217	122.88
257.433	104.45
257.65	53.25
257.866	196.61
258.082	12.29
258.299	12.29
258.515	145.41
258.732	108.54
258.948	0
259.165	67.58
259.381	-22.53
259.597	83.97
259.814	43.01
260.03	-14.34
260.246	59.39
260.463	157.69
260.679	139.26
260.895	51.2
261.112	71.68
261.328	49.15
261.544	88.06
261.761	202.75
261.977	28.67
262.193	-45.06
262.409	96.25
262.626	43.01
262.842	61.44
263.058	-18.43
263.274	65.54
263.49	69.63
263.707	79.87
263.923	77.82
264.139	-71.68
264.355	71.68
264.571	100.35
264.787	81.92
265.004	131.07
265.22	57.34
265.436	12.29
265.652	77.82
265.868	106.49
266.084	-30.72
266.3	40.96
266.516	-43.01
266.732	135.17
266.948	18.43
267.164	49.15
267.38	57.34
267.596	73.73
267.812	186.37
268.028	94.21
268.244	20.48
268.46	96.25
268.676	57.34
268.892	114.69
269.108	-36.86
269.324	43.01
269.54	4.1
269.756	100.35
269.972	-40.96
270.188	14.34
270.403	0
270.619	20.48
270.835	86.01
271.051	67.58
271.267	-51.2
271.483	53.25
271.698	151.55
271.914	137.21
272.13	116.73
272.346	16.38
272.562	55.3
272.777	129.02
272.993	30.72
273.209	-28.67
273.425	100.35
273.64	-4.1
273.856	65.54
274.072	-36.86
274.287	30.72
274.503	67.58
274.719	116.73
274.934	36.86
275.15	-57.34
275.366	40.96
275.581	53.25
275.797	18.43
276.012	24.58
276.228	26.62
276.444	57.34
276.659	163.84
276.875	-28.67
277.09	36.86
277.306	22.53
277.521	96.25
277.737	59.39
277.952	118.78
278.168	28.67
278.383	36.86
278.599	32.77
278.814	151.55
279.03	45.06
279.245	167.93
279.461	126.97
279.676	106.49
279.892	-47.1
280.107	-2.05
280.322	-43.01
280.538	79.87
280.753	47.1
280.969	61.44
281.184	71.68
281.399	34.82
281.615	49.15
281.83	122.88
282.045	-53.25
282.26	34.82
282.476	2.05
282.691	137.21
282.906	14.34
283.122	90.11
283.337	-59.39
283.552	30.72
283.767	28.67
283.983	71.68
284.198	96.25
284.413	32.77
284.628	-116.73
284.843	55.3
285.058	122.88
285.274	32.77
285.489	22.53
285.704	190.46
285.919	-14.34
286.134	-4.1
286.349	75.77
286.564	75.77
286.779	124.93
286.995	0
287.21	10.24
287.425	100.35
287.64	69.63
287.855	53.25
288.07	-30.72
288.285	196.61
288.5	163.84
288.715	90.11
288.93	133.12
289.145	-18.43
289.36	141.31
289.575	18.43
289.79	192.51
290.004	28.67
290.219	94.21
290.434	26.62
290.649	38.91
290.864	65.54
291.079	49.15
291.294	73.73
291.509	71.68
291.724	75.77
291.938	2.05
292.153	104.45
292.368	79.87
292.583	94.21
292.798	135.17
293.012	24.58
293.227	86.01
293.442	6.14
293.657	79.87
293.871	69.63
294.086	30.72
294.301	172.03
294.516	190.46
294.73	24.58
294.945	47.1
295.16	47.1
295.374	126.97
295.589	139.26
295.804	-20.48
296.018	-2.05
296.233	145.41
296.447	63.49
296.662	71.68
296.877	65.54
297.091	92.16
297.306	63.49
297.52	75.77
297.735	65.54
297.949	59.39
298.164	86.01
298.378	77.82
298.593	-10.24
298.807	-32.77
299.022	51.2
299.236	182.27
299.451	34.82
299.665	79.87
299.88	51.2
300.094	36.86
300.309	18.43
300.523	34.82
300.737	65.54
300.952	75.77
301.166	32.77
301.381	-10.24
301.595	-16.38
301.809	114.69
302.024	38.91
302.238	-55.3
302.452	178.17
302.667	100.35
302.881	180.22
303.095	100.35
303.309	-14.34
303.524	51.2
303.738	2.05
303.952	-6.14
304.166	53.25
304.381	-28.67
304.595	96.25
304.809	12.29
305.023	63.49
305.237	-6.14
305.452	67.58
305.666	114.69
305.88	120.83
306.094	63.49
306.308	51.2
306.522	120.83
306.736	98.3
306.95	61.44
307.164	55.3
307.379	47.1
307.593	98.3
307.807	129.02
308.021	141.31
308.235	96.25
308.449	-47.1
308.663	30.72
308.877	245.76
309.091	57.34
309.305	98.3
309.519	-71.68
309.733	149.5
309.947	-8.19
310.161	116.73
310.374	88.06
310.588	202.75
310.802	61.44
311.016	43.01
311.23	94.21
311.444	14.34
311.658	8.19
311.872	92.16
312.085	124.93
312.299	153.6
312.513	94.21
312.727	65.54
312.941	49.15
313.154	100.35
313.368	65.54
313.582	94.21
313.796	14.34
314.009	34.82
314.223	182.27
314.437	77.82
314.651	75.77
314.864	-10.24
315.078	18.43
315.292	-18.43
315.505	-34.82
315.719	94.21
315.933	75.77
316.146	57.34
316.36	-92.16
316.573	161.79
316.787	92.16
317.001	77.82
317.214	6.14
317.428	32.77
317.641	16.38
317.855	-14.34
318.068	88.06
318.282	43.01
318.495	184.32
318.709	116.73
318.922	51.2
319.136	186.37
319.349	155.65
319.563	28.67
319.776	118.78
319.99	-116.73
320.203	116.73
320.417	83.97
320.63	114.69
320.843	190.46
321.057	172.03
321.27	16.38
321.483	71.68
321.697	122.88
321.91	133.12
322.124	133.12
322.337	79.87
322.55	-10.24
322.763	40.96
322.977	83.97
323.19	67.58
323.403	32.77
323.617	112.64
323.83	81.92
324.043	92.16
324.256	61.44
324.469	30.72
324.683	174.08
324.896	-10.24
325.109	55.3
325.322	12.29
325.535	129.02
325.748	75.77
325.962	94.21
326.175	38.91
326.388	120.83
326.601	77.82
326.814	61.44
327.027	45.06
327.24	149.5
327.453	-12.29
327.666	59.39
327.879	102.4
328.092	77.82
328.305	38.91
328.518	-8.19
328.731	-36.86
328.944	18.43
329.157	94.21
329.37	36.86
329.583	186.37
329.796	186.37
330.009	-104.45
330.222	86.01
330.435	208.89
330.648	102.4
330.861	0
331.073	-10.24
331.286	137.21
331.499	24.58
331.712	61.44
331.925	28.67
332.138	83.97
332.35	147.45
332.563	51.2
332.776	131.07
332.989	-4.1
333.202	71.68
333.414	28.67
333.627	16.38
333.84	14.34
334.053	79.87
334.265	118.78
334.478	61.44
334.691	61.44
334.903	43.01
335.116	43.01
335.329	28.67
335.541	73.73
335.754	167.93
335.966	14.34
336.179	71.68
336.392	0
336.604	75.77
336.817	137.21
337.029	147.45
337.242	67.58
337.454	69.63
337.667	43.01
337.88	126.97
338.092	65.54
338.305	79.87
338.517	-51.2
338.729	57.34
338.942	178.17
339.154	26.62
339.367	-45.06
339.579	43.01
339.792	45.06
340.004	-14.34
340.217	90.11
340.429	59.39
340.641	71.68
340.854	0
341.066	133.12
341.278	108.54
341.491	65.54
341.703	81.92
341.915	-49.15
342.128	65.54
342.34	55.3
342.552	-26.62
342.764	-26.62
342.977	43.01
343.189	45.06
343.401	34.82
343.613	-116.73
343.826	94.21
344.038	-38.91
344.25	104.45
344.462	38.91
344.674	153.6
344.886	73.73
345.099	51.2
345.311	28.67
345.523	-53.25
345.735	-20.48
345.947	100.35
346.159	120.83
346.371	20.48
346.583	28.67
346.795	241.66
347.007	-12.29
347.219	139.26
347.431	24.58
347.643	129.02
347.855	-53.25
348.067	106.49
348.279	-4.1
348.491	122.88
348.703	137.21
348.915	106.49
349.127	20.48
349.339	129.02
349.551	22.53
349.763	63.49
349.975	-18.43
350.187	94.21
350.399	182.27
350.61	79.87
350.822	16.38
351.034	47.1
351.246	69.63
351.458	65.54
351.669	98.3
351.881	34.82
352.093	122.88
352.305	112.64
352.517	165.89
352.728	116.73
352.94	71.68
353.152	112.64
353.363	53.25
353.575	112.64
353.787	176.13
353.999	96.25
354.21	184.32
354.422	-51.2
354.633	108.54
354.845	55.3
355.057	34.82
355.268	0
355.48	155.65
355.692	63.49
355.903	43.01
356.115	26.62
356.326	63.49
356.538	161.79
356.749	30.72
356.961	120.83
357.172	100.35
357.384	24.58
357.595	219.13
357.807	81.92
358.018	65.54
358.23	-34.82
358.441	112.64
358.653	118.78
358.864	69.63
359.075	-12.29
359.287	61.44
359.498	126.97
359.709	161.79
359.921	-12.29
360.132	155.65
360.344	79.87
360.555	24.58
360.766	86.01
360.977	2.05
361.189	77.82
361.4	63.49
361.611	67.58
361.823	69.63
362.034	32.77
362.245	-30.72
362.456	67.58
362.667	124.93
362.879	-26.62
363.09	73.73
363.301	57.34
363.512	151.55
363.723	53.25
363.935	45.06
364.146	126.97
364.357	108.54
364.568	26.62
364.779	-55.3
364.99	116.73
365.201	59.39
365.412	196.61
365.623	-59.39
365.834	53.25
366.045	38.91
366.256	32.77
366.467	88.06
366.678	92.16
366.889	96.25
367.1	55.3
367.311	116.73
367.522	10.24
367.733	94.21
367.944	124.93
368.155	124.93
368.366	149.5
368.577	212.99
368.788	51.2
368.999	38.91
369.209	47.1
369.42	174.08
369.631	190.46
369.842	133.12
370.053	10.24
370.264	151.55
370.474	-28.67
370.685	43.01
370.896	108.54
371.107	167.93
371.317	49.15
371.528	102.4
371.739	18.43
371.95	77.82
372.16	98.3
372.371	-55.3
372.582	14.34
372.792	100.35
373.003	12.29
373.214	98.3
373.424	151.55
373.635	63.49
373.846	178.17
374.056	75.77
374.267	73.73
374.477	51.2
374.688	6.14
374.898	40.96
375.109	92.16
375.319	86.01
375.53	153.6
375.74	149.5
375.951	32.77
376.161	129.02
376.372	75.77
376.582	36.86
376.793	51.2
377.003	43.01
377.214	75.77
377.424	81.92
377.635	69.63
377.845	55.3
378.055	112.64
378.266	59.39
378.476	-47.1
378.686	67.58
378.897	36.86
379.107	165.89
379.317	108.54
379.528	-65.53
379.738	155.65
379.948	-30.72
380.158	92.16
380.369	-6.14
380.579	83.97
380.789	-16.38
380.999	172.03
381.21	129.02
381.42	151.55
381.63	-2.05
381.84	139.26
382.05	114.69
382.261	149.5
382.471	102.4
382.681	6.14
382.891	141.31
383.101	38.91
383.311	-8.19
383.521	-12.29
383.731	55.3
383.941	55.3
384.151	141.31
384.361	45.06
384.571	124.93
384.781	96.25
384.991	192.51
385.201	155.65
385.411	26.62
385.621	18.43
385.831	98.3
386.041	20.48
386.251	73.73
386.461	73.73
386.671	55.3
386.881	40.96
387.091	65.54
387.301	133.12
387.511	6.14
387.72	81.92
387.93	135.17
388.14	-108.54
388.35	129.02
388.56	167.93
388.769	100.35
388.979	-4.1
389.189	20.48
389.399	118.78
389.609	90.11
389.818	71.68
390.028	30.72
390.238	149.5
390.447	92.16
390.657	-6.14
390.867	75.77
391.076	-14.34
391.286	141.31
391.496	40.96
391.705	-16.38
391.915	219.13
392.125	116.73
392.334	57.34
392.544	204.8
392.753	79.87
392.963	14.34
393.172	40.96
393.382	18.43
393.591	180.22
393.801	12.29
394.01	92.16
394.22	81.92
394.429	26.62
394.639	32.77
394.848	157.69
395.058	49.15
395.267	20.48
395.477	73.73
395.686	63.49
395.895	198.65
396.105	194.56
396.314	169.98
396.524	57.34
396.733	43.01
396.942	212.99
397.152	120.83
397.361	133.12
397.57	96.25
397.78	110.59
397.989	108.54
398.198	202.75
398.407	190.46
398.617	129.02
398.826	57.34
399.035	-47.1
399.244	129.02
399.453	73.73
399.663	47.1
399.872	12.29
400.081	-69.63
400.29	200.7
400.499	-6.14
400.708	86.01
400.917	-10.24
401.127	67.58
401.336	-53.25
401.545	260.09
401.754	90.11
401.963	61.44
402.172	43.01
402.381	6.14
402.59	45.06
402.799	92.16
403.008	141.31
403.217	88.06
403.426	73.73
403.635	-32.77
403.844	98.3
404.053	26.62
404.262	57.34
404.471	137.21
404.68	135.17
404.888	55.3
405.097	57.34
405.306	135.17
405.515	77.82
405.724	-2.05
405.933	120.83
406.142	86.01
406.35	122.88
406.559	-40.96
406.768	114.69
406.977	169.98
407.185	0
407.394	100.35
407.603	26.62
407.812	59.39
408.02	129.02
408.229	30.72
408.438	34.82
408.646	-77.82
408.855	131.07
409.064	86.01
409.272	59.39
409.481	147.45
409.69	-14.34
409.898	-63.49
410.107	20.48
410.315	129.02
410.524	24.58
410.733	45.06
410.941	32.77
411.15	94.21
411.358	67.58
411.567	145.41
411.775	88.06
411.984	126.97
412.192	174.08
412.401	36.86
412.609	86.01
412.818	190.46
413.026	196.61
413.234	-55.3
413.443	47.1
413.651	102.4
413.86	53.25
414.068	55.3
414.276	182.27
414.485	-20.48
414.693	178.17
414.901	182.27
415.11	92.16
415.318	36.86
415.526	90.11
415.734	161.79
415.943	79.87
416.151	92.16
416.359	69.63
416.567	77.82
416.776	104.45
416.984	182.27
417.192	217.08
417.4	-2.05
417.608	20.48
417.817	38.91
418.025	131.07
418.233	124.93
418.441	-4.1
418.649	34.82
418.857	79.87
419.065	122.88
419.273	34.82
419.481	51.2
419.689	104.45
419.897	38.91
420.105	-18.43
420.313	167.93
420.521	178.17
420.729	92.16
420.937	36.86
421.145	-38.91
421.353	102.4
421.561	206.84
421.769	-12.29
421.977	-32.77
422.185	73.73
422.393	106.49
422.601	110.59
422.809	18.43
423.017	63.49
423.224	71.68
423.432	194.56
423.64	43.01
423.848	151.55
424.056	36.86
424.263	143.36
424.471	53.25
424.679	172.03
424.887	4.1
425.094	122.88
425.302	114.69
425.51	-10.24
425.718	161.79
425.925	79.87
426.133	4.1
426.341	106.49
426.548	61.44
426.756	0
426.964	100.35
427.171	18.43
427.379	151.55
427.586	65.54
427.794	165.89
428.001	165.89
428.209	96.25
428.417	163.84
428.624	223.23
428.832	206.84
429.039	57.34
429.247	65.54
429.454	149.5
429.662	143.36
429.869	174.08
430.076	88.06
430.284	137.21
430.491	219.13
430.699	92.16
430.906	204.8
431.114	83.97
431.321	231.42
431.528	106.49
431.736	155.65
431.943	131.07
432.15	131.07
432.358	235.52
432.565	159.74
432.772	-4.1
432.979	163.84
433.187	10.24
433.394	241.66
433.601	79.87
433.808	190.46
434.016	227.32
434.223	296.96
434.43	137.21
434.637	219.13
434.844	149.5
435.052	186.37
435.259	174.08
435.466	176.13
435.673	204.8
435.88	188.41
436.087	264.19
436.294	223.23
436.501	245.76
436.708	282.62
436.915	237.56
437.122	260.09
437.329	206.84
437.537	159.74
437.743	225.28
437.95	333.82
438.157	256
438.364	307.2
438.571	284.67
438.778	385.02
438.985	329.72
439.192	372.73
439.399	309.24
439.606	370.68
439.813	428.03
440.02	565.24
440.227	520.18
440.433	485.37
440.64	518.14
440.847	282.62
441.054	481.27
441.261	520.18
441.467	417.79
441.674	382.97
441.881	544.76
442.088	563.19
442.294	548.86
442.501	643.06
442.708	618.49
442.914	563.19
443.121	704.5
443.328	645.11
443.534	874.48
443.741	731.12
443.948	581.62
444.154	745.46
444.361	841.72
444.568	813.04
444.774	817.14
444.981	694.26
445.187	950.26
445.394	892.91
445.6	817.14
445.807	1009.65
446.013	1034.22
446.22	997.36
446.426	1048.56
446.633	1159.15
446.839	1210.35
447.046	1136.62
447.252	1308.65
447.459	1249.26
447.665	1200.11
447.871	1400.81
448.078	1447.91
448.284	1413.1
448.491	1597.42
448.697	1531.88
448.903	1677.29
449.11	1665
449.316	1525.74
449.522	1736.68
449.728	1927.14
449.935	1939.43
450.141	1994.72
450.347	2179.04
450.553	2013.15
450.76	2056.16
450.966	2179.04
451.172	2324.44
451.378	2381.79
451.584	2435.03
451.791	2594.78
451.997	2756.57
452.203	2572.25
452.409	2977.75
452.615	2957.27
452.821	2832.34
453.027	2899.92
453.233	3295.18
453.44	3080.14
453.646	3348.43
453.852	3485.64
454.058	3448.78
454.264	3708.87
454.47	4040.64
454.676	3987.4
454.882	4157.38
455.088	4216.77
455.294	4409.28
455.5	4546.49
455.705	4962.23
455.911	4810.68
456.117	5076.91
456.323	5228.46
456.529	5189.55
456.735	5601.19
456.941	5828.52
457.147	5963.68
457.352	6176.67
457.558	6272.93
457.764	6938.52
457.97	7108.5
458.176	7090.07
458.381	7550.86
458.587	7632.78
458.793	8220.55
458.999	8103.81
459.204	9185.14
459.41	9389.94
459.616	9420.66
459.821	9854.83
460.027	10217.32
460.233	10829.66
460.438	10651.49
460.644	11220.82
460.85	11431.76
461.055	12009.29
461.261	12490.56
461.466	12457.79
461.672	12408.64
461.878	13979.43
462.083	13643.57
462.289	13985.58
462.494	14503.71
462.7	14477.09
462.905	14929.69
463.111	16340.74
463.316	16948.99
463.522	17116.92
463.727	17467.13
463.932	18376.42
464.138	18904.8
464.343	19711.7
464.549	19580.63
464.754	21315.26
464.959	21796.53
465.165	22202.03
465.37	22148.78
465.575	22085.29
465.781	23469.72
465.986	24012.43
466.191	23971.47
466.397	24250
466.602	23588.5
466.807	24927.88
467.012	25155.2
467.218	25689.72
467.423	25710.2
467.628	26334.83
467.833	27602.52
468.038	27373.15
468.244	26533.48
468.449	28032.6
468.654	27156.07
468.859	27428.45
469.064	27924.05
469.269	26566.25
469.474	27100.77
469.679	27962.97
469.885	27027.04
470.09	27326.05
470.295	27551.32
470.5	26795.62
470.705	26465.9
470.91	26420.84
471.115	26246.77
471.32	26230.38
471.525	26142.32
471.73	25550.46
471.935	25267.84
472.139	24446.6
472.344	24422.03
472.549	24198.8
472.754	23946.9
472.959	23291.55
473.164	22204.08
473.369	21903.03
473.574	22625.96
473.778	22308.52
473.983	22066.86
474.188	21288.64
474.393	20299.47
474.598	20289.23
474.802	19883.73
475.007	19429.08
475.212	19637.97
475.417	18581.22
475.621	18540.26
475.826	18347.75
476.031	17843.95
476.235	17526.52
476.44	17647.35
476.645	17114.87
476.849	16844.54
477.054	16545.54
477.259	16041.74
477.463	16299.78
477.668	15646.48
477.872	15712.02
478.077	15546.13
478.282	14769.95
478.486	14851.87
478.691	14499.62
478.895	14249.77
479.1	14329.64
479.304	14401.32
479.509	13707.05
479.713	14024.49
479.918	13662
480.122	13363
480.326	13391.67
480.531	13281.08
480.735	13281.08
480.94	13025.08
481.144	13522.74
481.348	12945.21
481.553	12877.63
481.757	12492.61
481.961	12508.99
482.166	12654.4
482.37	12474.18
482.574	12085.06
482.778	11966.28
482.983	12584.77
483.187	12128.07
483.391	12093.26
483.595	11874.12
483.8	11683.66
484.004	11892.55
484.208	11673.42
484.412	11558.74
484.616	11417.43
484.821	11175.77
485.025	10915.67
485.229	11044.7
485.433	10776.41
485.637	10557.28
485.841	10407.78
486.045	10256.23
486.249	10485.6
486.453	10055.53
486.657	10016.62
486.861	9676.65
487.065	9592.69
487.269	9508.72
487.473	9152.37
487.677	9367.41
487.881	9250.67
488.085	8869.75
488.289	8830.84
488.493	8462.21
488.697	8634.24
488.901	8408.96
489.105	8286.08
489.309	7960.45
489.512	7995.27
489.716	7769.99
489.92	7745.42
490.124	7413.65
490.328	7346.06
490.531	7163.79
490.735	7204.75
490.939	7018.39
491.143	6780.82
491.346	6612.89
491.55	6729.63
491.754	6561.69
491.958	6643.61
492.161	6279.07
492.365	6254.5
492.569	5922.73
492.772	5922.73
492.976	6076.32
493.18	5808.04
493.383	5748.65
493.587	5717.93
493.79	5822.38
493.994	5412.78
494.197	5488.56
494.401	5562.28
494.605	5289.9
494.808	5468.08
495.012	5310.38
495.215	5214.13
495.419	5337.01
495.622	5060.53
495.825	5070.77
496.029	5038
496.232	5236.66
496.436	5001.14
496.639	5113.78
496.843	5085.11
497.046	4941.75
497.249	5142.45
497.453	5109.68
497.656	5056.43
497.859	4984.76
498.063	5240.75
498.266	5121.97
498.469	4978.61
498.673	5017.52
498.876	5066.67
499.079	5095.35
499.282	5021.62
499.485	5281.71
499.689	5140.4
499.892	5218.22
500.095	5115.83
500.298	5279.66
500.501	5189.55
500.705	5253.04
500.908	5334.96
501.111	5191.6
501.314	5554.09
501.517	5533.61
501.72	5580.71
501.923	5470.12
502.126	5619.63
502.329	5805.99
502.532	5717.93
502.735	5748.65
502.938	6070.18
503.141	6016.93
503.344	6023.08
503.547	5945.25
503.75	5990.31
503.953	5971.88
504.156	6123.43
504.359	6238.11
504.562	6363.04
504.765	6641.56
504.968	6522.78
505.17	6801.3
505.373	6942.61
505.576	6905.75
505.779	6868.89
505.982	7042.96
506.185	7493.52
506.387	7327.63
506.59	7557
506.793	7688.07
506.996	7665.55
507.198	7851.91
507.401	8052.61
507.604	8179.59
507.807	8474.49
508.009	8517.5
508.212	8595.32
508.415	8966.01
508.617	9013.11
508.82	9113.46
509.022	9320.31
509.225	9574.25
509.428	9863.02
509.63	10139.49
509.833	10004.33
510.035	10608.48
510.238	10450.78
510.44	10633.05
510.643	11032.41
510.845	11507.54
511.048	11525.97
511.25	11695.95
511.453	12134.21
511.655	12597.06
511.858	12619.58
512.06	12891.96
512.262	13035.32
512.465	13317.94
512.667	13596.46
512.87	13950.76
513.072	14163.75
513.274	14657.31
513.477	14808.86
513.679	15134.49
513.881	15865.61
514.084	16150.28
514.286	16535.3
514.488	16637.7
514.69	17196.79
514.893	17600.24
515.095	17620.72
515.297	18296.55
515.499	18747.11
515.701	18999.01
515.904	19836.63
516.106	20090.57
516.308	20399.82
516.51	20913.86
516.712	21079.74
516.914	21395.13
517.116	22027.95
517.318	22576.81
517.52	22701.73
517.722	23152.29
517.925	23608.98
518.127	24037.01
518.329	24680.07
518.531	24569.48
518.733	25710.2
518.935	25853.56
519.136	26250.86
519.338	26771.05
519.54	27260.51
519.742	27526.75
519.944	27706.97
520.146	28558.92
520.348	28948.04
520.55	29259.33
520.752	29445.69
520.954	30627.37
521.155	30381.62
521.357	31133.22
521.559	31157.8
521.761	31532.57
521.963	31827.48
522.164	32206.36
522.366	32435.73
522.568	32734.73
522.77	33193.48
522.971	33951.23
523.173	33467.91
523.375	33811.96
523.576	34033.14
523.778	34094.58
523.98	34549.23
524.181	34903.53
524.383	35071.46
524.584	35153.38
524.786	34938.35
524.988	34842.09
525.189	35343.84
525.391	35282.41
525.592	35270.12
525.794	35567.07
525.995	35501.54
526.197	35597.79
526.398	35423.72
526.6	35511.78
526.801	35405.28
527.003	35325.41
527.204	35540.45
527.406	35550.69
527.607	34891.24
527.808	35325.41
528.01	34727.41
528.211	34565.62
528.412	34876.91
528.614	34934.25
528.815	33990.14
529.016	34387.44
529.218	33715.71
529.419	33672.7
529.62	33183.24
529.822	33328.64
530.023	32339.47
530.224	32452.11
530.425	32067.09
530.626	31542.81
530.828	31055.4
531.029	31270.43
531.23	30909.99
531.431	30281.27
531.632	30377.52
531.833	30064.18
532.035	29511.23
532.236	28833.35
532.437	28816.97
532.638	28407.37
532.839	28229.2
533.04	28073.56
533.241	27358.81
533.442	27287.14
533.643	26914.41
533.844	26496.62
534.045	26005.11
534.246	25765.49
534.447	25306.75
534.648	24874.63
534.849	24807.05
535.05	24127.12
535.251	24096.4
535.451	23778.97
535.652	23385.76
535.853	23316.12
536.054	23017.12
536.255	22791.84
536.456	22236.84
536.657	22005.42
536.857	21718.71
537.058	21411.51
537.259	21149.37
537.46	20979.39
537.66	20633.29
537.861	20266.7
538.062	20158.16
538.263	19930.83
538.463	19449.56
538.664	19504.85
538.865	19228.38
539.065	19115.74
539.266	18501.35
539.466	18470.63
539.667	18343.66
539.868	18052.84
540.068	17772.27
540.269	17417.97
540.469	17452.79
540.67	17145.59
540.87	17080.06
541.071	16854.78
541.271	16658.18
541.472	16502.53
541.672	16137.99
541.873	16154.38
542.073	15640.34
542.274	15824.65
542.474	15568.66
542.675	15234.84
542.875	15118.11
543.075	14855.97
543.276	14716.7
543.476	14794.53
543.676	14466.85
543.877	14503.71
544.077	14583.59
544.277	14001.96
544.478	13983.53
544.678	13659.95
544.878	13338.42
545.078	13365.04
545.279	13223.73
545.479	13211.45
545.679	12926.78
545.879	12857.15
546.079	12474.18
546.28	12455.75
546.48	12214.09
546.68	12373.83
546.88	12250.95
547.08	11997
547.28	11824.97
547.48	11429.71
547.68	11663.18
547.88	11396.95
548.081	11464.53
548.281	10934.11
548.481	10923.87
548.681	10825.56
548.881	10581.85
549.081	10549.09
549.28	10393.44
549.48	10393.44
549.68	10243.94
549.88	10012.52
550.08	9709.42
550.28	9721.71
550.48	9660.27
550.68	9383.79
550.88	9209.72
551.08	9088.89
551.279	9138.04
551.479	8867.7
551.679	9049.97
551.879	8564.61
552.079	8574.85
552.278	8398.72
552.478	8406.91
552.678	8265.6
552.878	8126.34
553.077	8032.13
553.277	7724.94
553.477	7651.21
553.676	7565.2
553.876	7438.22
554.076	7294.86
554.275	7231.38
554.475	7067.54
554.674	7022.48
554.874	6770.58
555.074	6674.33
555.273	6639.51
555.473	6547.36
555.672	6348.7
555.872	6408.09
556.071	6381.47
556.271	6307.74
556.47	5853.09
556.67	6047.65
556.869	5740.46
557.068	5930.92
557.268	5468.08
557.467	5369.77
557.667	5580.71
557.866	5396.4
558.065	5312.43
558.265	5267.38
558.464	5035.96
558.663	5103.54
558.863	4982.71
559.062	5099.44
559.261	4816.82
559.461	4886.45
559.66	4616.12
559.859	4571.07
560.058	4390.84
560.258	4407.23
560.457	4267.97
560.656	4251.58
560.855	4263.87
561.054	4118.47
561.253	4208.58
561.453	3952.58
561.652	4014.02
561.851	3911.62
562.05	3866.56
562.249	3608.52
562.448	3731.4
562.647	3547.08
562.846	3575.75
563.045	3719.11
563.244	3440.59
563.443	3559.37
563.642	3364.81
563.841	3463.12
564.04	3252.17
564.239	3260.37
564.438	3143.63
564.637	3114.96
564.836	3219.41
565.035	3057.62
565.234	2910.16
565.432	2861.01
565.631	2813.91
565.83	2951.12
566.029	2805.72
566.228	2643.93
566.427	2805.72
566.625	2658.26
566.824	2635.74
567.023	2596.82
567.222	2598.87
567.42	2478.04
567.619	2574.3
567.818	2557.91
568.016	2625.5
568.215	2441.18
568.414	2486.23
568.612	2439.13
568.811	2254.81
569.01	2291.68
569.208	2250.72
569.407	2191.33
569.605	2191.33
569.804	2064.35
570.002	2045.92
570.201	2000.87
570.4	2041.82
570.598	1972.19
570.797	2029.54
570.995	1933.28
571.193	1849.32
571.392	1929.19
571.59	1710.05
571.789	1820.64
571.987	1794.02
572.186	1920.99
572.384	1705.96
572.582	1728.49
572.781	1728.49
572.979	1501.16
573.177	1576.94
573.376	1687.53
573.574	1611.75
573.772	1497.07
573.971	1589.22
574.169	1427.43
574.367	1542.12
574.565	1374.19
574.763	1402.86
574.962	1402.86
575.16	1308.65
575.358	1306.6
575.556	1339.37
575.754	1310.7
575.952	1234.93
576.151	1294.32
576.349	1333.23
576.547	1087.47
576.745	1259.5
576.943	1316.84
577.141	1073.14
577.339	1093.62
577.537	1193.97
577.735	1101.81
577.933	1234.93
578.131	1062.9
578.329	1114.1
578.527	1042.42
578.725	1066.99
578.923	995.31
579.121	927.73
579.319	860.15
579.516	962.55
579.714	1175.53
579.912	933.87
580.11	874.48
580.308	923.63
580.506	874.48
580.704	737.27
580.901	913.39
581.099	925.68
581.297	915.44
581.495	948.21
581.692	823.28
581.89	952.31
582.088	747.51
582.285	823.28
582.483	690.17
582.681	733.17
582.878	767.99
583.076	716.79
583.274	761.84
583.471	833.52
583.669	698.36
583.866	636.92
584.064	636.92
584.262	604.15
584.459	561.14
584.657	720.88
584.854	729.08
585.052	626.68
585.249	659.45
585.447	761.84
585.644	528.38
585.841	686.07
586.039	727.03
586.236	692.21
586.434	612.34
586.631	561.14
586.828	608.25
587.026	624.63
587.223	487.42
587.42	483.32
587.618	460.79
587.815	581.62
588.012	548.86
588.21	524.28
588.407	563.19
588.604	653.3
588.801	514.04
588.999	477.18
589.196	618.49
589.393	354.3
589.59	499.7
589.787	579.58
589.984	442.36
590.182	505.85
590.379	405.5
590.576	438.27
590.773	428.03
590.97	485.37
591.167	477.18
591.364	532.47
591.561	479.22
591.758	565.24
591.955	532.47
592.152	456.7
592.349	389.11
592.546	440.31
592.743	413.69
592.94	589.82
593.137	438.27
593.334	466.94
593.531	516.09
593.727	514.04
593.924	485.37
594.121	481.27
594.318	458.75
594.515	567.29
594.712	608.25
594.908	630.77
595.105	368.63
595.302	563.19
595.499	450.55
595.696	548.86
595.892	516.09
596.089	595.96
596.286	440.31
596.482	632.82
596.679	624.63
596.876	538.62
597.072	571.38
597.269	651.25
597.466	632.82
597.662	702.45
597.859	600.05
598.055	643.06
598.252	759.8
598.448	813.04
598.645	761.84
598.841	888.82
599.038	868.34
599.234	831.48
599.431	966.64
599.627	974.83
599.824	999.41
600.02	1013.74
600.217	991.22
600.413	1064.94
600.609	1103.86
600.806	1331.18
601.002	1181.68
601.198	1110
601.395	1273.84
601.591	1306.6
601.787	1314.8
601.984	1394.67
602.18	1425.39
602.376	1556.46
602.572	1548.26
602.769	1632.23
602.965	1658.85
603.161	1783.78
603.357	1777.64
603.553	1914.85
603.75	1708.01
603.946	1972.19
604.142	1914.85
604.338	2187.23
604.534	2179.04
604.73	2201.57
604.926	2209.76
605.122	2412.51
605.318	2299.87
605.514	2559.96
605.71	2519
605.906	2623.45
606.102	2471.9
606.298	2910.16
606.494	3010.51
606.69	3030.99
606.886	3053.52
607.082	3194.83
607.278	3200.98
607.474	3246.03
607.67	3565.51
607.866	3434.44
608.062	3641.29
608.257	3696.58
608.453	3616.71
608.649	3850.18
608.845	3921.86
609.041	3966.92
609.236	4274.11
609.432	4241.34
609.628	4538.3
609.824	4597.69
610.019	4607.93
610.215	4698.04
610.411	4896.69
610.606	5171.12
610.802	5103.54
610.998	5322.67
611.193	5484.46
611.389	5488.56
611.584	5724.07
611.78	5816.23
611.976	5900.2
612.171	6082.47
612.367	6365.09
612.562	6387.61
612.758	6502.3
612.953	6760.34
613.149	7032.72
613.344	7198.61
613.539	7268.24
613.735	7503.76
613.93	7819.14
614.126	7880.58
614.321	8198.02
614.517	8324.99
614.712	8560.51
614.907	8892.28
615.103	9142.13
615.298	9199.48
615.493	9498.48
615.688	9510.77
615.884	10080.1
616.079	9961.32
616.274	10524.51
616.47	10477.41
616.665	10921.82
616.86	11263.83
617.055	11331.41
617.25	11722.57
617.445	12255.05
617.641	12281.67
617.836	12416.83
618.031	12881.72
618.226	13340.47
618.421	13449.01
618.616	14057.26
618.811	14135.08
619.006	14542.63
619.201	14886.68
619.396	15109.91
619.591	15341.33
619.786	15867.66
619.981	16066.31
620.176	16639.75
620.371	16879.36
620.566	17041.15
620.761	17039.1
620.956	18134.76
621.151	17876.72
621.346	18517.73
621.541	18616.04
621.735	19496.66
621.93	19429.08
622.125	19912.4
622.32	20010.7
622.515	20645.57
622.709	20737.73
622.904	21458.62
623.099	21468.86
623.294	22206.13
623.488	22296.24
623.683	22728.36
623.878	23123.62
624.072	23649.94
624.267	23871.12
624.462	23940.75
624.656	24387.21
624.851	25093.76
625.046	25015.94
625.24	25624.18
625.435	25456.25
625.629	26281.58
625.824	26347.12
626.018	27027.04
626.213	27106.91
626.407	27647.58
626.602	27534.94
626.796	28024.4
626.991	28296.78
627.185	28431.95
627.38	28620.36
627.574	29054.53
627.768	28661.32
627.963	29148.74
628.157	28606.03
628.352	29267.52
628.546	28964.42
628.74	29572.67
628.935	28984.9
629.129	29052.48
629.323	28311.12
629.517	28712.52
629.712	28190.29
629.906	28188.24
630.1	27842.14
630.294	27944.53
630.489	27223.65
630.683	26961.51
630.877	26355.31
631.071	25933.43
631.265	25708.15
631.459	25286.27
631.653	24551.05
631.848	24131.22
632.042	23264.92
632.236	23017.12
632.43	22247.08
632.624	21872.31
632.818	21006.02
633.012	20291.27
633.206	19527.38
633.4	19189.47
633.594	18372.33
633.788	17796.85
633.982	17266.42
634.176	16502.53
634.369	15836.94
634.563	15220.5
634.757	14655.26
634.951	14147.37
635.145	13584.18
635.339	13057.85
635.533	12357.44
635.726	12091.21
635.92	11419.47
636.114	11036.5
636.308	10626.91
636.501	10045.29
636.695	9940.84
636.889	9324.4
637.083	9099.13
637.276	8695.68
637.47	8046.47
637.664	7968.65
637.857	7704.46
638.051	7327.63
638.244	7053.2
638.438	6784.92
638.632	6578.08
638.825	6088.61
639.019	5906.34
639.212	5550
639.406	5556.14
639.599	5158.83
639.793	5183.41
639.986	4833.21
640.18	4728.76
640.373	4550.59
640.567	4329.41
640.76	4251.58
640.954	4143.04
641.147	3796.93
641.34	3639.24
641.534	3483.59
641.727	3459.02
641.92	3272.65
642.114	3377.1
642.307	3078.1
642.5	2998.23
642.694	2750.42
642.887	2830.29
643.08	2688.98
643.273	2598.87
643.467	2482.14
643.66	2318.3
643.853	2222.05
644.046	2312.16
644.239	2111.46
644.432	1920.99
644.626	1724.39
644.819	1890.28
645.012	1853.41
645.205	1867.75
645.398	1669.09
645.591	1628.14
645.784	1425.39
645.977	1427.43
646.17	1478.63
646.363	1339.37
646.556	1335.28
646.749	1230.83
646.942	1245.17
647.135	1247.21
647.328	1120.24
647.521	1132.53
647.714	1023.98
647.907	1019.89
648.099	878.58
648.292	1069.04
648.485	974.83
648.678	765.94
648.871	854
649.064	915.44
649.256	747.51
649.449	659.45
649.642	626.68
649.835	710.65
650.027	655.35
650.22	663.54
650.413	614.39
650.605	681.97
650.798	626.68
650.991	561.14
651.183	526.33
651.376	557.05
651.568	591.86
651.761	501.75
651.954	573.43
652.146	462.84
652.339	468.98
652.531	557.05
652.724	344.06
652.916	393.21
653.109	303.1
653.301	546.81
653.494	423.93
653.686	481.27
653.879	473.08
654.071	401.4
654.263	313.34
654.456	315.39
654.648	393.21
654.84	403.45
655.033	313.34
655.225	477.18
655.417	159.74
655.61	407.55
655.802	292.86
655.994	370.68
656.186	235.52
656.379	329.72
656.571	266.24
656.763	241.66
656.955	258.04
657.148	262.14
657.34	339.96
657.532	212.99
657.724	280.57
657.916	256
658.108	251.9
658.3	239.61
658.492	258.04
658.684	221.18
658.876	337.91
659.068	147.45
659.26	118.78
659.452	196.61
659.644	192.51
659.836	247.8
660.028	188.41
660.22	217.08
660.412	157.69
660.604	141.31
660.796	176.13
660.988	251.9
661.18	155.65
661.372	174.08
661.563	145.41
661.755	116.73
661.947	77.82
662.139	147.45
662.331	217.08
662.522	157.69
662.714	149.5
662.906	172.03
663.097	215.04
663.289	114.69
663.481	120.83
663.673	221.18
663.864	157.69
664.056	204.8
664.247	129.02
664.439	178.17
664.631	104.45
664.822	174.08
665.014	108.54
665.205	83.97
665.397	145.41
665.588	161.79
665.78	112.64
665.971	217.08
666.163	55.3
666.354	212.99
666.546	-4.1
666.737	114.69
666.929	186.37
667.12	118.78
667.311	83.97
667.503	92.16
667.694	190.46
667.885	169.98
668.077	194.56
668.268	14.34
668.459	137.21
668.651	186.37
668.842	143.36
669.033	63.49
669.224	8.19
669.416	270.33
669.607	124.93
669.798	43.01
669.989	194.56
670.18	114.69
670.371	176.13
670.563	96.25
670.754	165.89
670.945	147.45
671.136	284.67
671.327	96.25
671.518	253.95
671.709	239.61
671.9	245.76
672.091	198.65
672.282	133.12
672.473	198.65
672.664	106.49
672.855	157.69
673.046	96.25
673.237	190.46
673.428	106.49
673.619	233.47
673.809	126.97
674	294.91
674.191	192.51
674.382	81.92
674.573	94.21
674.764	137.21
674.954	288.76
675.145	110.59
675.336	88.06
675.527	141.31
675.717	73.73
675.908	112.64
676.099	86.01
676.289	120.83
676.48	22.53
676.671	96.25
676.861	151.55
677.052	196.61
677.243	190.46
677.433	131.07
677.624	212.99
677.814	202.75
678.005	149.5
678.195	241.66
678.386	92.16
678.576	215.04
678.767	81.92
678.957	141.31
679.148	266.24
679.338	190.46
679.529	192.51
679.719	190.46
679.909	321.53
680.1	292.86
680.29	190.46
680.481	163.84
680.671	251.9
680.861	182.27
681.052	212.99
681.242	200.7
681.432	292.86
681.622	180.22
681.813	106.49
682.003	235.52
682.193	233.47
682.383	200.7
682.573	186.37
682.764	155.65
682.954	208.89
683.144	376.83
683.334	131.07
683.524	264.19
683.714	202.75
683.904	186.37
684.094	237.56
684.284	202.75
684.474	264.19
684.664	350.2
684.854	305.15
685.044	219.13
685.234	237.56
685.424	256
685.614	184.32
685.804	362.49
685.994	212.99
686.184	169.98
686.374	249.85
686.564	176.13
686.753	215.04
686.943	172.03
687.133	178.17
687.323	163.84
687.513	309.24
687.702	153.6
687.892	172.03
688.082	249.85
688.272	288.76
688.461	241.66
688.651	317.44
688.841	301.05
689.03	165.89
689.22	202.75
689.41	249.85
689.599	276.48
689.789	198.65
689.979	382.97
690.168	239.61
690.358	235.52
690.547	286.72
690.737	241.66
690.926	174.08
691.116	200.7
691.305	239.61
691.495	327.67
691.684	165.89
691.874	124.93
692.063	165.89
692.252	231.42
692.442	221.18
692.631	200.7
692.82	182.27
693.01	221.18
693.199	163.84
693.388	299
693.578	198.65
693.767	258.04
693.956	264.19
694.146	147.45
694.335	188.41
694.524	174.08
694.713	309.24
694.902	157.69
695.092	178.17
695.281	239.61
695.47	135.17
695.659	239.61
695.848	122.88
696.037	165.89
696.226	233.47
696.415	223.23
696.604	278.52
696.793	290.81
696.982	120.83
697.171	284.67
697.36	217.08
697.549	186.37
697.738	12.29
697.927	217.08
698.116	143.36
698.305	223.23
698.494	280.57
698.683	155.65
698.872	350.2
699.061	165.89
699.25	196.61
699.438	186.37
699.627	167.93
699.816	362.49
700.005	94.21
700.193	149.5
700.382	307.2
700.571	192.51
700.76	169.98
700.948	221.18
701.137	280.57
701.326	307.2
701.514	165.89
701.703	299
701.892	217.08
702.08	301.05
702.269	243.71
702.457	116.73
702.646	182.27
702.834	167.93
703.023	270.33
703.212	270.33
703.4	167.93
703.589	159.74
703.777	169.98
703.965	153.6
704.154	159.74
704.342	98.3
704.531	227.32
704.719	227.32
704.907	333.82
705.096	98.3
705.284	202.75
705.472	135.17
705.661	192.51
705.849	219.13
706.037	346.11
706.226	198.65
706.414	241.66
706.602	159.74
706.79	208.89
706.979	120.83
707.167	229.37
707.355	116.73
707.543	217.08
707.731	157.69
707.919	174.08
708.107	165.89
708.296	157.69
708.484	88.06
708.672	200.7
708.86	219.13
709.048	251.9
709.236	184.32
709.424	215.04
709.612	194.56
709.8	94.21
709.988	188.41
710.176	245.76
710.364	262.14
710.551	174.08
710.739	188.41
710.927	159.74
711.115	235.52
711.303	262.14
711.491	245.76
711.679	133.12
711.866	200.7
712.054	184.32
712.242	239.61
712.43	294.91
712.617	215.04
712.805	190.46
712.993	135.17
713.181	129.02
713.368	233.47
713.556	229.37
713.744	172.03
713.931	352.25
714.119	299
714.306	172.03
714.494	165.89
714.682	219.13
714.869	88.06
715.057	221.18
715.244	124.93
715.432	309.24
715.619	194.56
715.807	141.31
715.994	221.18
716.182	135.17
716.369	288.76
716.556	235.52
716.744	172.03
716.931	163.84
717.119	264.19
717.306	202.75
717.493	231.42
717.681	192.51
717.868	174.08
718.055	245.76
718.242	184.32
718.43	280.57
718.617	243.71
718.804	172.03
718.991	327.67
719.179	198.65
719.366	292.86
719.553	258.04
719.74	182.27
719.927	215.04
720.114	251.9
720.301	155.65
720.488	155.65
720.676	147.45
720.863	323.58
721.05	370.68
721.237	249.85
721.424	219.13
721.611	206.84
721.798	227.32
721.985	184.32
722.172	184.32
722.358	266.24
722.545	303.1
722.732	282.62
722.919	331.77
723.106	290.81
723.293	227.32
723.48	262.14
723.667	282.62
723.853	331.77
724.04	346.11
724.227	301.05
724.414	260.09
724.6	352.25
724.787	335.87
724.974	468.98
725.161	210.94
725.347	174.08
725.534	288.76
725.72	315.39
725.907	313.34
726.094	319.48
726.28	176.13
726.467	294.91
726.653	225.28
726.84	299
727.027	503.8
727.213	311.29
727.4	282.62
727.586	282.62
727.773	290.81
727.959	272.38
728.145	321.53
728.332	223.23
728.518	249.85
728.705	272.38
728.891	305.15
729.077	290.81
729.264	194.56
729.45	217.08
729.636	366.59
729.823	268.28
730.009	286.72
730.195	237.56
730.382	321.53
730.568	176.13
730.754	249.85
730.94	294.91
731.126	206.84
731.313	272.38
731.499	253.95
731.685	352.25
731.871	329.72
732.057	296.96
732.243	266.24
732.429	286.72
732.615	403.45
732.801	319.48
732.987	206.84
733.173	294.91
733.359	262.14
733.545	327.67
733.731	192.51
733.917	385.02
734.103	296.96
734.289	264.19
734.475	270.33
734.661	409.59
734.847	264.19
735.033	288.76
735.219	356.35
735.404	247.8
735.59	233.47
735.776	288.76
735.962	303.1
736.148	329.72
736.333	356.35
736.519	270.33
736.705	335.87
736.89	354.3
737.076	286.72
737.262	274.43
737.447	337.91
737.633	356.35
737.819	352.25
738.004	339.96
738.19	311.29
738.375	327.67
738.561	409.59
738.747	215.04
738.932	356.35
739.118	446.46
739.303	335.87
739.489	376.83
739.674	303.1
739.859	288.76
740.045	346.11
740.23	358.39
740.416	176.13
740.601	292.86
740.786	319.48
740.972	260.09
741.157	249.85
741.342	258.04
741.528	249.85
741.713	370.68
741.898	227.32
742.084	245.76
742.269	346.11
742.454	358.39
742.639	294.91
742.824	376.83
743.01	407.55
743.195	350.2
743.38	358.39
743.565	342.01
743.75	315.39
743.935	290.81
744.12	309.24
744.305	215.04
744.49	276.48
744.675	305.15
744.86	274.43
745.045	344.06
745.23	294.91
745.415	305.15
745.6	348.15
745.785	239.61
745.97	317.44
746.155	374.78
746.34	423.93
746.525	282.62
746.71	374.78
746.895	200.7
747.079	155.65
747.264	210.94
747.449	364.54
747.634	337.91
747.819	342.01
748.003	223.23
748.188	202.75
748.373	350.2
748.557	296.96
748.742	241.66
748.927	346.11
749.111	266.24
749.296	225.28
749.481	301.05
749.665	256
749.85	219.13
750.034	299
750.219	284.67
750.404	227.32
750.588	280.57
750.773	194.56
750.957	251.9
751.141	258.04
751.326	327.67
751.51	116.73
751.695	200.7
751.879	227.32
752.064	329.72
752.248	272.38
752.432	352.25
752.617	380.92
752.801	325.63
752.985	208.89
753.17	266.24
753.354	296.96
753.538	249.85
753.722	174.08
753.907	206.84
754.091	194.56
754.275	258.04
754.459	143.36
754.643	192.51
754.828	270.33
755.012	225.28
755.196	196.61
755.38	288.76
755.564	241.66
755.748	251.9
755.932	268.28
756.116	284.67
756.3	180.22
756.484	157.69
756.668	237.56
756.852	137.21
757.036	110.59
757.22	208.89
757.404	28.67
757.588	219.13
757.772	243.71
757.956	141.31
758.14	342.01
758.323	108.54
758.507	208.89
758.691	210.94
758.875	233.47
759.059	278.52
759.242	100.35
759.426	198.65
759.61	176.13
759.794	155.65
759.977	296.96
760.161	440.31
760.345	327.67
760.528	268.28
760.712	198.65
760.895	239.61
761.079	202.75
761.263	88.06
761.446	178.17
761.63	184.32
761.813	210.94
761.997	112.64
762.18	120.83
762.364	210.94
762.547	14.34
762.731	112.64
762.914	198.65
763.098	96.25
763.281	110.59
763.464	149.5
763.648	165.89
763.831	106.49
764.015	94.21
764.198	198.65
764.381	141.31
764.564	118.78
764.748	190.46
764.931	149.5
765.114	92.16
765.297	180.22
765.481	96.25
765.664	145.41
765.847	149.5
766.03	243.71
766.213	83.97
766.397	155.65
766.58	122.88
766.763	192.51
766.946	102.4
767.129	129.02
767.312	157.69
767.495	196.61
767.678	151.55
767.861	147.45
768.044	180.22
768.227	186.37
768.41	104.45
768.593	135.17
768.776	124.93
768.959	96.25
769.142	247.8
769.324	73.73
769.507	94.21
769.69	143.36
769.873	116.73
770.056	366.59
770.239	75.77
770.421	239.61
770.604	92.16
770.787	112.64
770.97	225.28
771.152	38.91
771.335	204.8
771.518	65.54
771.7	137.21
771.883	260.09
772.066	102.4
772.248	182.27
772.431	126.97
772.613	184.32
772.796	96.25
772.978	149.5
773.161	208.89
773.343	36.86
773.526	98.3
773.708	81.92
773.891	16.38
774.073	106.49
774.256	137.21
774.438	272.38
774.621	57.34
774.803	182.27
774.985	79.87
775.168	133.12
775.35	114.69
775.532	133.12
775.715	16.38
775.897	110.59
776.079	12.29
776.261	114.69
776.444	94.21
776.626	120.83
776.808	71.68
776.99	45.06
777.173	53.25
777.355	161.79
777.537	67.58
777.719	77.82
777.901	59.39
778.083	94.21
778.265	67.58
778.447	79.87
778.629	165.89
778.811	57.34
778.993	151.55
779.175	98.3
779.357	149.5
779.539	32.77
779.721	34.82
779.903	55.3
780.085	108.54
780.267	149.5
780.449	57.34
780.631	90.11
780.812	172.03
780.994	69.63
781.176	124.93
781.358	86.01
781.54	94.21
781.721	71.68
781.903	206.84
782.085	104.45
782.267	167.93
782.448	77.82
782.63	34.82
782.812	155.65
782.993	100.35
783.175	116.73
783.357	77.82
783.538	106.49
783.72	-10.24
783.901	38.91
784.083	151.55
784.264	149.5
784.446	-18.43
784.627	-45.06
784.809	120.83
784.99	4.1
785.172	55.3
785.353	116.73
785.535	108.54
785.716	20.48
785.897	10.24
786.079	6.14
786.26	104.45
786.441	116.73
786.623	-10.24
786.804	14.34
786.985	118.78
787.167	102.4
787.348	6.14
787.529	49.15
787.71	200.7
787.891	151.55
788.073	98.3
788.254	-38.91
788.435	258.04
788.616	159.74
788.797	2.05
788.978	-18.43
789.159	0
789.34	71.68
789.522	34.82
789.703	-10.24
789.884	100.35
790.065	61.44
790.246	151.55
790.427	98.3
790.607	114.69
790.788	120.83
790.969	20.48
791.15	32.77
791.331	28.67
791.512	36.86
791.693	-43.01
791.874	45.06
792.054	243.71
792.235	98.3
792.416	16.38
792.597	-18.43
792.778	65.54
792.958	69.63
793.139	63.49
793.32	73.73
793.5	-10.24
793.681	90.11
793.862	137.21
794.042	75.77
794.223	-57.34
794.404	90.11
794.584	-24.58
794.765	2.05
794.945	90.11
795.126	38.91
795.306	120.83
795.487	10.24
795.667	61.44
795.848	69.63
796.028	77.82
796.209	69.63
796.389	116.73
796.57	18.43
796.75	63.49
796.93	122.88
797.111	-49.15
797.291	-28.67
797.471	120.83
797.652	-47.1
797.832	-49.15
798.012	108.54
798.192	10.24
798.373	-36.86
798.553	-8.19
798.733	133.12
798.913	12.29
799.093	47.1
799.274	100.35
799.454	65.54
799.634	147.45
799.814	165.89
799.994	129.02
800.174	116.73
800.354	28.67
800.534	0
800.714	100.35
800.894	34.82
801.074	-16.38
801.254	-45.06
801.434	141.31
801.614	34.82
801.794	32.77
801.974	1857.51
802.154	6.14
802.334	110.59
802.514	-118.78
802.693	45.06
802.873	45.06
803.053	61.44
803.233	18.43
803.413	86.01
803.592	-32.77
803.772	53.25
803.952	120.83
804.131	-2.05
804.311	129.02
804.491	90.11
804.67	-18.43
804.85	45.06
805.03	120.83
805.209	112.64
805.389	14.34
805.568	-16.38
805.748	-40.96
805.928	-55.3
806.107	98.3
806.287	106.49
806.466	112.64
806.646	14.34
806.825	34.82
807.004	-38.91
807.184	96.25
807.363	36.86
807.543	16.38
807.722	-102.4
807.901	104.45
808.081	98.3
808.26	-137.21
808.439	34.82
808.619	110.59
808.798	6.14
808.977	53.25
809.156	165.89
809.336	8.19
809.515	124.93
809.694	-12.29
809.873	4.1
810.052	90.11
810.231	159.74
810.411	53.25
810.59	92.16
810.769	-12.29
810.948	129.02
811.127	-96.25
811.306	16.38
811.485	55.3
811.664	118.78
811.843	8.19
812.022	83.97
812.201	-10.24
812.38	28.67
812.559	12.29
812.737	55.3
812.916	-55.3
813.095	16.38
813.274	2.05
813.453	36.86
813.632	57.34
813.811	120.83
813.989	-120.83
814.168	45.06
814.347	-92.16
814.526	36.86
814.704	110.59
814.883	67.58
815.062	-49.15
815.24	120.83
815.419	-18.43
815.598	57.34
815.776	-86.01
815.955	24.58
816.133	-126.97
816.312	26.62
816.49	40.96
816.669	30.72
816.847	30.72
817.026	40.96
817.204	40.96
817.383	-38.91
817.561	-10.24
817.74	98.3
817.918	-2.05
818.097	-40.96
818.275	20.48
818.453	49.15
818.632	106.49
818.81	-22.53
818.988	-30.72
819.167	83.97
819.345	-6.14
819.523	-88.06
819.701	71.68
819.879	32.77
820.058	77.82
820.236	88.06
820.414	-10.24
820.592	20.48
820.77	30.72
820.948	-40.96
821.127	-22.53
821.305	-8.19
821.483	-26.62
821.661	133.12
821.839	24.58
822.017	8.19
822.195	12.29
822.373	131.07
822.551	4.1
822.729	61.44
822.907	47.1
823.085	-14.34
823.262	-22.53
823.44	-12.29
823.618	-26.62
823.796	4.1
823.974	-36.86
824.152	-77.82
824.329	51.2
824.507	63.49
824.685	28.67
824.863	6.14
825.04	51.2
825.218	96.25
825.396	-94.21
825.574	106.49
825.751	51.2
825.929	98.3
826.107	-2.05
826.284	4.1
826.462	16.38
826.639	-73.73
826.817	26.62
826.994	10.24
827.172	-45.06
827.349	174.08
827.527	63.49
827.704	6.14
827.882	100.35
828.059	24.58
828.237	-49.15
828.414	124.93
828.591	-57.34
828.769	-75.77
828.946	22.53
829.124	92.16
829.301	137.21
829.478	14.34
829.655	45.06
829.833	55.3
830.01	-102.4
830.187	94.21
830.364	-36.86
830.542	-43.01
830.719	135.17
830.896	120.83
831.073	86.01
831.25	114.69
831.427	126.97
831.604	6.14
831.782	-18.43
831.959	71.68
832.136	112.64
832.313	-14.34
832.49	-6.14
832.667	77.82
832.844	-38.91
833.021	186.37
833.198	71.68
833.374	26.62
833.551	38.91
833.728	-28.67
833.905	81.92
834.082	-118.78
834.259	28.67
834.436	176.13
834.612	57.34
834.789	71.68
834.966	-57.34
835.143	40.96
835.319	-79.87
835.496	47.1
835.673	40.96
835.85	114.69
836.026	-4.1
836.203	-14.34
836.38	-26.62
836.556	-28.67
836.733	-30.72
836.909	83.97
837.086	-8.19
837.262	-75.77
837.439	34.82
837.616	14.34
837.792	57.34
837.968	26.62
838.145	-86.01
838.321	-61.44
838.498	79.87
838.674	98.3
838.851	69.63
839.027	-4.1
839.203	-12.29
839.38	73.73
839.556	30.72
839.732	63.49
839.909	32.77
840.085	18.43
840.261	14.34
840.437	-2.05
840.614	86.01
840.79	102.4
840.966	32.77
841.142	24.58
841.318	-49.15
841.494	51.2
841.671	67.58
841.847	-20.48
842.023	-34.82
842.199	-16.38
842.375	102.4
842.551	-34.82
842.727	24.58
842.903	188.41
843.079	-63.49
843.255	57.34
843.431	-26.62
843.607	34.82
843.783	-184.32
843.959	43.01
844.134	-108.54
844.31	53.25
844.486	-34.82
844.662	14.34
844.838	53.25
845.013	43.01
845.189	-6.14
845.365	22.53
845.541	20.48
845.716	96.25
845.892	108.54
846.068	-24.58
846.244	-22.53
846.419	83.97
846.595	-14.34
846.77	-73.73
846.946	83.97
847.122	-83.97
847.297	-45.06
847.473	145.41
847.648	-26.62
847.824	51.2
847.999	-81.92
848.175	51.2
848.35	-12.29
848.526	124.93
848.701	94.21
848.876	69.63
849.052	108.54
849.227	-14.34
849.403	81.92
849.578	30.72
849.753	26.62
849.929	77.82
850.104	-26.62
850.279	51.2
850.454	88.06
850.63	102.4
850.805	-8.19
850.98	63.49
851.155	67.58
851.33	116.73
851.505	-43.01
851.681	145.41
851.856	-67.58
852.031	-6.14
852.206	124.93
852.381	55.3
852.556	-55.3
852.731	-8.19
852.906	32.77
853.081	16.38
853.256	141.31
853.431	8.19
853.606	-34.82
853.781	-26.62
853.956	-106.49
854.131	53.25
854.305	-63.49
854.48	-55.3
854.655	-63.49
854.83	-122.88
855.005	10.24
855.18	100.35
855.354	-102.4
855.529	49.15
855.704	-18.43
855.879	45.06
856.053	-61.44
856.228	47.1
856.403	-18.43
856.577	-20.48
856.752	-86.01
856.926	28.67
857.101	34.82
857.276	-67.58
857.45	83.97
857.625	43.01
857.799	63.49
857.974	34.82
858.148	-45.06
858.323	92.16
858.497	18.43
858.672	-34.82
858.846	-40.96
859.02	69.63
859.195	-59.39
859.369	51.2
859.543	28.67
859.718	-10.24
859.892	24.58
860.066	65.54
860.241	-22.53
860.415	-71.68
860.589	77.82
860.763	-79.87
860.938	14.34
861.112	86.01
861.286	-43.01
861.46	22.53
861.634	47.1
861.808	38.91
861.982	-79.87
862.157	-67.58
862.331	18.43
862.505	-65.53
862.679	-73.73
862.853	6.14
863.027	67.58
863.201	86.01
863.375	-26.62
863.549	90.11
863.722	49.15
863.896	149.5
864.07	-30.72
864.244	43.01
864.418	34.82
864.592	-4.1
864.766	20.48
864.939	55.3
865.113	-67.58
865.287	169.98
865.461	-8.19
865.634	22.53
865.808	71.68
865.982	6.14
866.156	-14.34
866.329	-38.91
866.503	-30.72
866.676	63.49
866.85	-30.72
867.024	-38.91
867.197	32.77
867.371	38.91
867.544	10.24
867.718	-65.53
867.891	135.17
868.065	-61.44
868.238	53.25
868.412	49.15
868.585	-4.1
868.759	43.01
868.932	-26.62
869.105	-59.39
869.279	18.43
869.452	-92.16
869.625	73.73
869.799	-81.92
869.972	-61.44
870.145	-20.48
870.319	45.06
870.492	10.24
870.665	-12.29
870.838	-75.77
871.011	-112.64
871.185	-18.43
871.358	-69.63
871.531	36.86
871.704	-45.06
871.877	-8.19
872.05	-69.63
872.223	-61.44
872.396	43.01
872.569	61.44
872.742	-135.17
872.915	69.63
873.088	-96.25
873.261	-2.05
873.434	10.24
873.607	26.62
873.78	47.1
873.953	-98.3
874.126	28.67
874.299	124.93
874.471	16.38
874.644	8.19
874.817	118.78
874.99	157.69
875.163	-6.14
875.335	12.29
875.508	-53.25
875.681	120.83
875.853	-53.25
876.026	-63.49
876.199	90.11
876.371	38.91
876.544	-59.39
876.717	20.48
876.889	43.01
877.062	71.68
877.234	-30.72
877.407	6.14
877.579	12.29
877.752	59.39
877.924	51.2
878.097	118.78
878.269	20.48
878.442	59.39
878.614	69.63
878.786	-8.19
878.959	-24.58
879.131	-36.86
879.303	-112.64
879.476	24.58
879.648	24.58
879.82	-6.14
879.993	-65.53
880.165	-32.77
880.337	-92.16
880.509	-6.14
880.681	-75.77
880.854	-36.86
881.026	67.58
881.198	208.89
881.37	28.67
881.542	14.34
881.714	-65.53
881.886	4.1
882.058	69.63
882.23	77.82
882.402	-40.96
882.574	38.91
882.746	92.16
882.918	67.58
883.09	71.68
883.262	-30.72
883.434	-10.24
883.606	-102.4
883.778	10.24
883.95	133.12
884.122	-22.53
884.293	116.73
884.465	-10.24
884.637	16.38
884.809	-40.96
884.98	92.16
885.152	53.25
885.324	71.68
885.496	-38.91
885.667	57.34
885.839	0
886.011	75.77
886.182	16.38
886.354	-10.24
886.525	86.01
886.697	88.06
886.869	-6.14
887.04	26.62
887.212	90.11
887.383	94.21
887.555	88.06
887.726	-28.67
887.897	-67.58
888.069	-34.82
888.24	-30.72
888.412	-22.53
888.583	-6.14
888.754	32.77
888.926	-98.3
889.097	45.06
889.268	-63.49
889.44	114.69
889.611	-98.3
889.782	-49.15
889.953	-18.43
890.125	110.59
890.296	-26.62
890.467	-8.19
890.638	-59.39
890.809	51.2
890.98	-36.86
891.151	124.93
891.323	118.78
891.494	49.15
891.665	100.35
891.836	18.43
892.007	24.58
892.178	55.3
892.349	-4.1
892.52	-143.36
892.691	45.06
892.862	30.72
893.032	-65.53
893.203	-16.38
893.374	73.73
893.545	77.82
893.716	0
893.887	55.3
894.057	-40.96
894.228	-18.43
894.399	69.63
894.57	102.4
894.74	-20.48
894.911	-2.05
895.082	-36.86
895.253	10.24
895.423	-4.1
895.594	26.62
895.764	-22.53
895.935	-79.87
896.106	22.53
896.276	-10.24
896.447	45.06
896.617	-38.91
896.788	-69.63
896.958	-6.14
897.129	-8.19
897.299	2.05
897.47	147.45
897.64	71.68
897.81	65.54
897.981	-6.14
898.151	22.53
898.322	65.54
898.492	24.58
898.662	-73.73
898.832	8.19
899.003	22.53
899.173	83.97
899.343	-90.11
899.513	-112.64
