Data from USB4F104151__27__11-24-50-805.txt Node

Date: Wed Feb 26 11:24:50 EST 2025
User: louis
Spectrometer: USB4F10415
Trigger mode: 4
Integration Time (sec): 1.000000E-1
Scans to average: 1
Electric dark correction enabled: true
Nonlinearity correction enabled: false
Boxcar width: 0
XAxis mode: Wavelengths
Number of Pixels in Spectrum: 3648
>>>>>Begin Spectral Data<<<<<
178.204	-348.5
178.424	-348.5
178.644	-348.5
178.864	-403.79
179.084	-328.02
179.304	-22.87
179.524	44.71
179.744	38.57
179.964	48.81
180.184	16.04
180.404	79.53
180.624	-2.39
180.844	-45.4
181.064	-82.26
181.283	-82.26
181.503	3.75
181.723	3.75
181.943	-96.6
182.163	128.68
182.383	85.67
182.602	65.19
182.822	251.56
183.042	89.77
183.262	-22.87
183.482	73.39
183.701	13.99
183.921	-6.49
184.141	9.9
184.361	44.71
184.58	89.77
184.8	77.48
185.02	16.04
185.239	85.67
185.459	106.15
185.679	179.88
185.898	-39.25
186.118	67.24
186.338	157.35
186.557	206.5
186.777	3.75
186.997	-20.82
187.216	65.19
187.436	138.92
187.655	46.76
187.875	126.63
188.095	-59.73
188.314	235.18
188.534	85.67
188.753	-35.16
188.973	83.63
189.192	87.72
189.412	40.62
189.631	93.87
189.851	149.16
190.07	222.89
190.29	-29.01
190.509	5.8
190.729	61.1
190.948	190.12
191.168	298.66
191.387	38.57
191.607	-45.4
191.826	173.74
192.045	24.23
192.265	-43.35
192.484	59.05
192.704	114.34
192.923	-49.49
193.142	186.02
193.362	124.58
193.581	204.46
193.8	22.19
194.02	116.39
194.239	54.95
194.458	104.11
194.678	-41.3
194.897	36.52
195.116	95.91
195.335	116.39
195.555	40.62
195.774	44.71
195.993	102.06
196.212	9.9
196.432	38.57
196.651	5.8
196.87	26.28
197.089	304.81
197.308	106.15
197.528	108.2
197.747	11.95
197.966	81.58
198.185	145.06
198.404	-53.59
198.623	83.63
198.842	87.72
199.062	116.39
199.281	128.68
199.5	83.63
199.719	95.91
199.938	128.68
200.157	89.77
200.376	214.7
200.595	73.39
200.814	22.19
201.033	16.04
201.252	147.11
201.471	102.06
201.69	124.58
201.909	73.39
202.128	106.15
202.347	155.3
202.566	7.85
202.785	61.1
203.004	-55.64
203.223	210.6
203.442	48.81
203.661	-24.92
203.879	32.43
204.098	181.93
204.317	-41.3
204.536	104.11
204.755	81.58
204.974	118.44
205.193	-4.44
205.411	208.55
205.63	44.71
205.849	147.11
206.068	85.67
206.287	24.23
206.505	132.78
206.724	54.95
206.943	9.9
207.162	20.14
207.381	73.39
207.599	26.28
207.818	97.96
208.037	48.81
208.255	-10.58
208.474	108.2
208.693	87.72
208.911	-12.63
209.13	138.92
209.349	161.45
209.567	102.06
209.786	126.63
210.005	110.25
210.223	118.44
210.442	-55.64
210.661	57
210.879	71.34
211.098	67.24
211.316	22.19
211.535	34.47
211.753	155.3
211.972	50.86
212.191	40.62
212.409	120.49
212.628	134.82
212.846	18.09
213.065	114.34
213.283	138.92
213.502	7.85
213.72	132.78
213.938	130.73
214.157	48.81
214.375	159.4
214.594	114.34
214.812	71.34
215.031	50.86
215.249	85.67
215.467	85.67
215.686	143.02
215.904	85.67
216.122	63.15
216.341	229.03
216.559	108.2
216.778	114.34
216.996	87.72
217.214	61.1
217.432	24.23
217.651	11.95
217.869	81.58
218.087	-2.39
218.306	83.63
218.524	87.72
218.742	24.23
218.96	91.82
219.179	11.95
219.397	95.91
219.615	218.79
219.833	81.58
220.051	69.29
220.27	77.48
220.488	42.67
220.706	106.15
220.924	-22.87
221.142	-10.58
221.36	112.3
221.578	128.68
221.796	85.67
222.015	67.24
222.233	95.91
222.451	171.69
222.669	7.85
222.887	93.87
223.105	-10.58
223.323	73.39
223.541	28.33
223.759	104.11
223.977	69.29
224.195	292.52
224.413	77.48
224.631	106.15
224.849	57
225.067	181.93
225.285	50.86
225.503	-18.77
225.721	-63.83
225.939	75.43
226.157	81.58
226.375	255.65
226.592	42.67
226.81	71.34
227.028	102.06
227.246	126.63
227.464	61.1
227.682	136.87
227.9	100.01
228.117	95.91
228.335	153.26
228.553	34.47
228.771	20.14
228.989	91.82
229.206	173.74
229.424	93.87
229.642	67.24
229.86	-35.16
230.077	186.02
230.295	110.25
230.513	190.12
230.731	89.77
230.948	165.54
231.166	222.89
231.384	38.57
231.601	1.71
231.819	214.7
232.037	-37.2
232.254	11.95
232.472	61.1
232.689	-18.77
232.907	143.02
233.125	44.71
233.342	-10.58
233.56	7.85
233.777	26.28
233.995	-14.68
234.213	126.63
234.43	181.93
234.648	118.44
234.865	28.33
235.083	122.54
235.3	52.91
235.518	71.34
235.735	179.88
235.953	122.54
236.17	110.25
236.388	67.24
236.605	46.76
236.822	91.82
237.04	147.11
237.257	75.43
237.475	-0.34
237.692	11.95
237.909	122.54
238.127	3.75
238.344	116.39
238.562	128.68
238.779	1.71
238.996	-10.58
239.214	81.58
239.431	20.14
239.648	1.71
239.865	116.39
240.083	161.45
240.3	5.8
240.517	81.58
240.735	138.92
240.952	149.16
241.169	69.29
241.386	130.73
241.603	140.97
241.821	-37.2
242.038	63.15
242.255	95.91
242.472	-31.06
242.689	93.87
242.907	124.58
243.124	71.34
243.341	73.39
243.558	32.43
243.775	-72.02
243.992	20.14
244.209	153.26
244.426	120.49
244.643	145.06
244.86	3.75
245.078	100.01
245.295	11.95
245.512	102.06
245.729	-33.11
245.946	83.63
246.163	26.28
246.38	69.29
246.597	188.07
246.814	89.77
247.031	63.15
247.248	83.63
247.464	165.54
247.681	106.15
247.898	57
248.115	46.76
248.332	3.75
248.549	218.79
248.766	212.65
248.983	11.95
249.2	-51.54
249.417	147.11
249.633	22.19
249.85	71.34
250.067	83.63
250.284	16.04
250.501	73.39
250.717	124.58
250.934	-41.3
251.151	106.15
251.368	30.38
251.585	40.62
251.801	52.91
252.018	-37.2
252.235	181.93
252.451	-18.77
252.668	3.75
252.885	167.59
253.102	83.63
253.318	-14.68
253.535	61.1
253.752	38.57
253.968	16.04
254.185	-78.16
254.401	18.09
254.618	42.67
254.835	38.57
255.051	134.82
255.268	161.45
255.484	110.25
255.701	32.43
255.917	87.72
256.134	-69.97
256.351	52.91
256.567	42.67
256.784	110.25
257	-43.35
257.217	106.15
257.433	73.39
257.65	-0.34
257.866	173.74
258.082	-74.07
258.299	1.71
258.515	63.15
258.732	-53.59
258.948	20.14
259.165	85.67
259.381	-10.58
259.597	153.26
259.814	102.06
260.03	36.52
260.246	24.23
260.463	110.25
260.679	100.01
260.895	63.15
261.112	57
261.328	32.43
261.544	59.05
261.761	157.35
261.977	71.34
262.193	-98.64
262.409	143.02
262.626	114.34
262.842	36.52
263.058	7.85
263.274	100.01
263.49	22.19
263.707	100.01
263.923	153.26
264.139	-55.64
264.355	65.19
264.571	110.25
264.787	40.62
265.004	116.39
265.22	46.76
265.436	85.67
265.652	110.25
265.868	73.39
266.084	-12.63
266.3	46.76
266.516	-4.44
266.732	104.11
266.948	85.67
267.164	69.29
267.38	128.68
267.596	102.06
267.812	138.92
268.028	59.05
268.244	-12.63
268.46	97.96
268.676	16.04
268.892	81.58
269.108	-2.39
269.324	-6.49
269.54	-29.01
269.756	102.06
269.972	-4.44
270.188	42.67
270.403	3.75
270.619	22.19
270.835	151.21
271.051	46.76
271.267	18.09
271.483	24.23
271.698	61.1
271.914	132.78
272.13	126.63
272.346	9.9
272.562	75.43
272.777	124.58
272.993	32.43
273.209	73.39
273.425	100.01
273.64	-4.44
273.856	120.49
274.072	16.04
274.287	38.57
274.503	108.2
274.719	134.82
274.934	40.62
275.15	7.85
275.366	44.71
275.581	-24.92
275.797	108.2
276.012	30.38
276.228	11.95
276.444	54.95
276.659	165.54
276.875	-49.49
277.09	77.48
277.306	28.33
277.521	28.33
277.737	-22.87
277.952	112.3
278.168	124.58
278.383	118.44
278.599	61.1
278.814	126.63
279.03	67.24
279.245	100.01
279.461	46.76
279.676	93.87
279.892	-4.44
280.107	-31.06
280.322	61.1
280.538	102.06
280.753	-31.06
280.969	-6.49
281.184	85.67
281.399	165.54
281.615	57
281.83	81.58
282.045	-2.39
282.26	-33.11
282.476	32.43
282.691	83.63
282.906	24.23
283.122	54.95
283.337	46.76
283.552	77.48
283.767	-12.63
283.983	159.4
284.198	69.29
284.413	87.72
284.628	-14.68
284.843	104.11
285.058	44.71
285.274	-2.39
285.489	-4.44
285.704	93.87
285.919	65.19
286.134	91.82
286.349	16.04
286.564	-0.34
286.779	169.64
286.995	52.91
287.21	-24.92
287.425	48.81
287.64	-18.77
287.855	38.57
288.07	-12.63
288.285	163.5
288.5	89.77
288.715	85.67
288.93	59.05
289.145	20.14
289.36	102.06
289.575	108.2
289.79	73.39
290.004	30.38
290.219	130.73
290.434	63.15
290.649	75.43
290.864	46.76
291.079	50.86
291.294	91.82
291.509	93.87
291.724	-53.59
291.938	24.23
292.153	9.9
292.368	-6.49
292.583	114.34
292.798	181.93
293.012	83.63
293.227	22.19
293.442	36.52
293.657	52.91
293.871	149.16
294.086	26.28
294.301	196.26
294.516	79.53
294.73	77.48
294.945	-55.64
295.16	-4.44
295.374	190.12
295.589	161.45
295.804	63.15
296.018	44.71
296.233	173.74
296.447	104.11
296.662	32.43
296.877	128.68
297.091	102.06
297.306	-8.53
297.52	59.05
297.735	57
297.949	69.29
298.164	106.15
298.378	104.11
298.593	81.58
298.807	-4.44
299.022	75.43
299.236	159.4
299.451	81.58
299.665	73.39
299.88	114.34
300.094	114.34
300.309	54.95
300.523	114.34
300.737	42.67
300.952	91.82
301.166	42.67
301.381	-2.39
301.595	32.43
301.809	59.05
302.024	-0.34
302.238	-8.53
302.452	93.87
302.667	73.39
302.881	83.63
303.095	120.49
303.309	52.91
303.524	13.99
303.738	18.09
303.952	-72.02
304.166	42.67
304.381	-117.08
304.595	151.21
304.809	11.95
305.023	57
305.237	63.15
305.452	28.33
305.666	136.87
305.88	106.15
306.094	83.63
306.308	190.12
306.522	132.78
306.736	106.15
306.95	95.91
307.164	44.71
307.379	52.91
307.593	95.91
307.807	163.5
308.021	87.72
308.235	112.3
308.449	-65.88
308.663	9.9
308.877	194.22
309.091	132.78
309.305	108.2
309.519	-14.68
309.733	124.58
309.947	-61.78
310.161	9.9
310.374	177.83
310.588	140.97
310.802	-86.36
311.016	65.19
311.23	106.15
311.444	71.34
311.658	79.53
311.872	136.87
312.085	85.67
312.299	220.84
312.513	114.34
312.727	42.67
312.941	-20.82
313.154	26.28
313.368	20.14
313.582	50.86
313.796	20.14
314.009	75.43
314.223	87.72
314.437	52.91
314.651	114.34
314.864	36.52
315.078	-8.53
315.292	-72.02
315.505	20.14
315.719	65.19
315.933	59.05
316.146	-22.87
316.36	-26.96
316.573	75.43
316.787	110.25
317.001	61.1
317.214	20.14
317.428	85.67
317.641	-65.88
317.855	-22.87
318.068	28.33
318.282	7.85
318.495	165.54
318.709	38.57
318.922	118.44
319.136	143.02
319.349	-0.34
319.563	28.33
319.776	128.68
319.99	-26.96
320.203	226.98
320.417	52.91
320.63	153.26
320.843	206.5
321.057	48.81
321.27	85.67
321.483	108.2
321.697	126.63
321.91	52.91
322.124	-8.53
322.337	104.11
322.55	-41.3
322.763	100.01
322.977	93.87
323.19	-43.35
323.403	147.11
323.617	46.76
323.83	128.68
324.043	-4.44
324.256	75.43
324.469	-4.44
324.683	173.74
324.896	30.38
325.109	13.99
325.322	3.75
325.535	110.25
325.748	87.72
325.962	69.29
326.175	69.29
326.388	114.34
326.601	163.5
326.814	57
327.027	95.91
327.24	132.78
327.453	-100.69
327.666	138.92
327.879	116.39
328.092	167.59
328.305	59.05
328.518	18.09
328.731	36.52
328.944	-67.92
329.157	61.1
329.37	18.09
329.583	157.35
329.796	243.37
330.009	9.9
330.222	106.15
330.435	89.77
330.648	46.76
330.861	136.87
331.073	40.62
331.286	106.15
331.499	38.57
331.712	57
331.925	100.01
332.138	77.48
332.35	106.15
332.563	-2.39
332.776	200.36
332.989	-57.68
333.202	59.05
333.414	171.69
333.627	48.81
333.84	75.43
334.053	87.72
334.265	-14.68
334.478	34.47
334.691	32.43
334.903	153.26
335.116	-6.49
335.329	46.76
335.541	108.2
335.754	136.87
335.966	65.19
336.179	93.87
336.392	93.87
336.604	-2.39
336.817	36.52
337.029	83.63
337.242	93.87
337.454	130.73
337.667	-14.68
337.88	190.12
338.092	130.73
338.305	85.67
338.517	20.14
338.729	73.39
338.942	186.02
339.154	-14.68
339.367	-45.4
339.579	34.47
339.792	-39.25
340.004	116.39
340.217	9.9
340.429	44.71
340.641	28.33
340.854	-18.77
341.066	30.38
341.278	188.07
341.491	181.93
341.703	93.87
341.915	-0.34
342.128	36.52
342.34	57
342.552	-29.01
342.764	69.29
342.977	100.01
343.189	63.15
343.401	-0.34
343.613	-41.3
343.826	40.62
344.038	-53.59
344.25	81.58
344.462	13.99
344.674	46.76
344.886	67.24
345.099	130.73
345.311	110.25
345.523	44.71
345.735	34.47
345.947	134.82
346.159	30.38
346.371	52.91
346.583	13.99
346.795	183.98
347.007	59.05
347.219	134.82
347.431	52.91
347.643	118.44
347.855	67.24
348.067	181.93
348.279	-61.78
348.491	42.67
348.703	89.77
348.915	30.38
349.127	34.47
349.339	7.85
349.551	34.47
349.763	116.39
349.975	32.43
350.187	181.93
350.399	188.07
350.61	73.39
350.822	9.9
351.034	91.82
351.246	89.77
351.458	112.3
351.669	120.49
351.881	153.26
352.093	136.87
352.305	97.96
352.517	63.15
352.728	138.92
352.94	81.58
353.152	89.77
353.363	16.04
353.575	57
353.787	81.58
353.999	57
354.21	104.11
354.422	-16.73
354.633	69.29
354.845	40.62
355.057	128.68
355.268	83.63
355.48	149.16
355.692	-39.25
355.903	81.58
356.115	-10.58
356.326	-61.78
356.538	159.4
356.749	65.19
356.961	188.07
357.172	24.23
357.384	-12.63
357.595	255.65
357.807	3.75
358.018	-22.87
358.23	59.05
358.441	145.06
358.653	93.87
358.864	32.43
359.075	13.99
359.287	108.2
359.498	108.2
359.709	118.44
359.921	81.58
360.132	85.67
360.344	50.86
360.555	83.63
360.766	120.49
360.977	9.9
361.189	177.83
361.4	87.72
361.611	130.73
361.823	147.11
362.034	52.91
362.245	-115.03
362.456	95.91
362.667	91.82
362.879	-2.39
363.09	128.68
363.301	114.34
363.512	87.72
363.723	-33.11
363.935	-0.34
364.146	118.44
364.357	-4.44
364.568	95.91
364.779	63.15
364.99	237.22
365.201	-26.96
365.412	128.68
365.623	13.99
365.834	79.53
366.045	106.15
366.256	147.11
366.467	100.01
366.678	30.38
366.889	50.86
367.1	34.47
367.311	108.2
367.522	-2.39
367.733	100.01
367.944	100.01
368.155	69.29
368.366	91.82
368.577	128.68
368.788	153.26
368.999	1.71
369.209	122.54
369.42	294.57
369.631	243.37
369.842	112.3
370.053	38.57
370.264	138.92
370.474	36.52
370.685	140.97
370.896	69.29
371.107	114.34
371.317	147.11
371.528	18.09
371.739	73.39
371.95	91.82
372.16	93.87
372.371	-67.92
372.582	3.75
372.792	120.49
373.003	77.48
373.214	61.1
373.424	181.93
373.635	79.53
373.846	147.11
374.056	118.44
374.267	57
374.477	97.96
374.688	-22.87
374.898	112.3
375.109	-26.96
375.319	112.3
375.53	89.77
375.74	112.3
375.951	5.8
376.161	50.86
376.372	104.11
376.582	59.05
376.793	126.63
377.003	32.43
377.214	-4.44
377.424	155.3
377.635	128.68
377.845	65.19
378.055	167.59
378.266	9.9
378.476	63.15
378.686	165.54
378.897	77.48
379.107	44.71
379.317	104.11
379.528	22.19
379.738	181.93
379.948	-0.34
380.158	118.44
380.369	50.86
380.579	147.11
380.789	89.77
380.999	157.35
381.21	122.54
381.42	267.94
381.63	40.62
381.84	97.96
382.05	30.38
382.261	122.54
382.471	104.11
382.681	63.15
382.891	110.25
383.101	77.48
383.311	-47.44
383.521	-2.39
383.731	100.01
383.941	87.72
384.151	65.19
384.361	18.09
384.571	26.28
384.781	30.38
384.991	212.65
385.201	128.68
385.411	16.04
385.621	110.25
385.831	83.63
386.041	26.28
386.251	81.58
386.461	175.78
386.671	7.85
386.881	89.77
387.091	50.86
387.301	75.43
387.511	57
387.72	67.24
387.93	140.97
388.14	-33.11
388.35	110.25
388.56	106.15
388.769	118.44
388.979	159.4
389.189	54.95
389.399	38.57
389.609	108.2
389.818	93.87
390.028	44.71
390.238	112.3
390.447	-8.53
390.657	83.63
390.867	61.1
391.076	-0.34
391.286	114.34
391.496	83.63
391.705	102.06
391.915	104.11
392.125	233.13
392.334	32.43
392.544	169.64
392.753	50.86
392.963	-20.82
393.172	50.86
393.382	-53.59
393.591	220.84
393.801	136.87
394.01	153.26
394.22	151.21
394.429	63.15
394.639	11.95
394.848	104.11
395.058	-18.77
395.267	89.77
395.477	136.87
395.686	104.11
395.895	304.81
396.105	149.16
396.314	34.47
396.524	89.77
396.733	61.1
396.942	200.36
397.152	126.63
397.361	165.54
397.57	198.31
397.78	77.48
397.989	38.57
398.198	239.27
398.407	102.06
398.617	32.43
398.826	134.82
399.035	65.19
399.244	26.28
399.453	167.59
399.663	54.95
399.872	122.54
400.081	-18.77
400.29	128.68
400.499	-57.68
400.708	155.3
400.917	34.47
401.127	-14.68
401.336	26.28
401.545	220.84
401.754	116.39
401.963	118.44
402.172	46.76
402.381	-24.92
402.59	16.04
402.799	57
403.008	169.64
403.217	118.44
403.426	143.02
403.635	28.33
403.844	13.99
404.053	44.71
404.262	-8.53
404.471	169.64
404.68	59.05
404.888	30.38
405.097	-24.92
405.306	65.19
405.515	130.73
405.724	100.01
405.933	138.92
406.142	112.3
406.35	61.1
406.559	36.52
406.768	83.63
406.977	200.36
407.185	106.15
407.394	136.87
407.603	-35.16
407.812	38.57
408.02	220.84
408.229	44.71
408.438	20.14
408.646	16.04
408.855	122.54
409.064	104.11
409.272	102.06
409.481	136.87
409.69	-33.11
409.898	-67.92
410.107	143.02
410.315	44.71
410.524	40.62
410.733	54.95
410.941	50.86
411.15	145.06
411.358	112.3
411.567	196.26
411.775	169.64
411.984	16.04
412.192	198.31
412.401	38.57
412.609	186.02
412.818	165.54
413.026	116.39
413.234	108.2
413.443	75.43
413.651	3.75
413.86	83.63
414.068	151.21
414.276	134.82
414.485	38.57
414.693	188.07
414.901	126.63
415.11	63.15
415.318	28.33
415.526	-6.49
415.734	143.02
415.943	114.34
416.151	38.57
416.359	52.91
416.567	122.54
416.776	114.34
416.984	151.21
417.192	249.51
417.4	40.62
417.608	36.52
417.817	28.33
418.025	114.34
418.233	183.98
418.441	18.09
418.649	40.62
418.857	112.3
419.065	198.31
419.273	-16.73
419.481	134.82
419.689	110.25
419.897	81.58
420.105	7.85
420.313	118.44
420.521	130.73
420.729	161.45
420.937	-24.92
421.145	-43.35
421.353	122.54
421.561	167.59
421.769	122.54
421.977	11.95
422.185	177.83
422.393	44.71
422.601	138.92
422.809	161.45
423.017	44.71
423.224	173.74
423.432	147.11
423.64	67.24
423.848	155.3
424.056	26.28
424.263	120.49
424.471	71.34
424.679	249.51
424.887	7.85
425.094	106.15
425.302	145.06
425.51	59.05
425.718	97.96
425.925	57
426.133	54.95
426.341	202.41
426.548	-14.68
426.756	77.48
426.964	69.29
427.171	-43.35
427.379	114.34
427.586	34.47
427.794	140.97
428.001	108.2
428.209	128.68
428.417	188.07
428.624	120.49
428.832	116.39
429.039	126.63
429.247	108.2
429.454	97.96
429.662	251.56
429.869	175.78
430.076	147.11
430.284	186.02
430.491	257.7
430.699	108.2
430.906	222.89
431.114	188.07
431.321	75.43
431.528	24.23
431.736	192.17
431.943	153.26
432.15	210.6
432.358	241.32
432.565	280.23
432.772	7.85
432.979	259.75
433.187	118.44
433.394	245.41
433.601	155.3
433.808	272.04
434.016	253.61
434.223	214.7
434.43	202.41
434.637	247.46
434.844	249.51
435.052	163.5
435.259	231.08
435.466	239.27
435.673	216.74
435.88	239.27
436.087	351.91
436.294	298.66
436.501	325.29
436.708	261.8
436.915	282.28
437.122	308.9
437.329	267.94
437.537	243.37
437.743	261.8
437.95	388.77
438.157	331.43
438.364	290.47
438.571	333.48
438.778	419.49
438.985	452.26
439.192	448.16
439.399	368.29
439.606	366.25
439.813	444.07
440.02	523.94
440.227	724.64
440.433	558.75
440.64	472.74
440.847	482.98
441.054	554.66
441.261	646.82
441.467	536.23
441.674	603.81
441.881	634.53
442.088	646.82
442.294	648.86
442.501	814.75
442.708	808.61
442.914	765.6
443.121	730.78
443.328	708.26
443.534	921.24
443.741	837.28
443.948	771.74
444.154	884.38
444.361	1101.47
444.568	851.61
444.774	874.14
444.981	824.99
445.187	1042.07
445.394	1056.41
445.6	1001.12
445.807	1085.08
446.013	1195.67
446.22	1042.07
446.426	1257.11
446.633	1253.02
446.839	1572.5
447.046	1234.58
447.252	1492.63
447.459	1513.11
447.665	1353.37
447.871	1564.31
448.078	1695.38
448.284	1705.62
448.491	1842.83
448.697	1799.82
448.903	2066.06
449.11	1934.99
449.316	1853.07
449.522	2078.35
449.728	1959.56
449.935	2258.57
450.141	2117.26
450.347	2424.45
450.553	2434.69
450.76	2514.56
450.966	2588.29
451.172	2602.63
451.378	2774.66
451.584	2864.77
451.791	3063.42
451.997	3145.34
452.203	3180.15
452.409	3329.66
452.615	3409.53
452.821	3251.83
453.027	3296.89
453.233	3894.9
453.44	3581.56
453.646	3917.42
453.852	3868.27
454.058	4255.34
454.264	4226.67
454.47	4523.62
454.676	4613.73
454.882	4970.08
455.088	4941.41
455.294	4953.7
455.5	5369.43
455.705	5621.33
455.911	5744.21
456.117	5858.9
456.323	6178.38
456.529	6108.75
456.735	6610.5
456.941	6950.46
457.147	7093.82
457.352	7228.99
457.558	7452.22
457.764	7833.14
457.97	7958.07
458.176	8646.18
458.381	8631.85
458.587	8840.74
458.793	9453.08
458.999	9276.96
459.204	10485.26
459.41	11005.44
459.616	10728.97
459.821	11576.83
460.027	11832.82
460.233	12510.7
460.438	12582.38
460.644	12969.44
460.85	13506.01
461.055	13845.98
461.261	14560.72
461.466	14294.48
461.672	14636.49
461.878	16319.92
462.083	16090.55
462.289	16407.98
462.494	17003.94
462.7	16899.5
462.905	17163.68
463.111	18933.13
463.316	19662.21
463.522	19813.76
463.727	20694.38
463.932	21556.58
464.138	21978.46
464.343	23174.47
464.549	23350.6
464.754	25062.7
464.959	25398.57
465.165	25900.32
465.37	25771.3
465.575	25969.95
465.781	27456.78
465.986	28194.04
466.191	28177.66
466.397	28114.17
466.602	27731.2
466.807	29017.33
467.012	29596.9
467.218	30270.68
467.423	30334.17
467.628	31372.49
467.833	32670.9
468.038	32117.95
468.244	31675.59
468.449	33129.65
468.654	32593.08
468.859	32496.83
469.064	32945.33
469.269	31882.44
469.474	32085.19
469.679	32994.48
469.885	32027.84
470.09	32443.58
470.295	32679.1
470.5	32021.7
470.705	32042.18
470.91	31370.44
471.115	30989.52
471.32	31298.77
471.525	31397.07
471.73	30575.83
471.935	30194.91
472.139	29134.06
472.344	29164.78
472.549	29424.87
472.754	28622.07
472.959	27714.82
473.164	27012.37
473.369	26828.05
473.574	27213.07
473.778	26739.99
473.983	26260.76
474.188	25793.83
474.393	24546.61
474.598	24681.78
474.802	23987.52
475.007	23971.13
475.212	23246.15
475.417	22512.98
475.621	22320.47
475.826	21966.17
476.031	21439.84
476.235	21103.98
476.44	21329.25
476.645	20510.07
476.849	19996.03
477.054	20061.56
477.259	19412.35
477.463	19459.46
477.668	19148.17
477.872	19090.82
478.077	18402.71
478.282	17880.47
478.486	18013.59
478.691	17593.76
478.895	17458.59
479.1	17378.72
479.304	17114.53
479.509	16487.86
479.713	17137.06
479.918	16393.65
480.122	15936.95
480.326	16080.31
480.531	16186.8
480.735	16065.97
480.94	15691.2
481.144	16096.69
481.348	15095.24
481.553	15508.93
481.757	15060.42
481.961	15177.16
482.166	15384
482.37	15254.98
482.574	14847.43
482.778	14675.4
482.983	15064.52
483.187	14513.61
483.391	14632.4
483.595	14319.06
483.8	14208.47
484.004	14339.54
484.208	13950.42
484.412	13858.26
484.616	13837.78
484.821	13692.38
485.025	13063.65
485.229	13540.83
485.433	13000.16
485.637	13123.04
485.841	12797.42
486.045	12594.67
486.249	12842.47
486.453	12129.78
486.657	12004.85
486.861	11652.6
487.065	11542.01
487.269	11640.31
487.473	11195.9
487.677	11349.5
487.881	11496.96
488.085	10868.23
488.289	10880.52
488.493	10548.75
488.697	10599.94
488.901	10415.63
489.105	10014.23
489.309	9975.31
489.512	9981.46
489.716	9747.99
489.92	9426.46
490.124	9313.82
490.328	9350.68
490.531	8928.8
490.735	8879.65
490.939	8648.23
491.143	8431.15
491.346	8371.75
491.55	8226.35
491.754	8015.41
491.958	8093.23
492.161	8011.31
492.365	7925.3
492.569	7571
492.772	7470.65
492.976	7482.94
493.18	7511.61
493.383	7382.59
493.587	7253.56
493.79	7310.91
493.994	6972.99
494.197	6977.09
494.401	7065.15
494.605	6848.07
494.808	6946.37
495.012	6800.96
495.215	6925.89
495.419	6839.87
495.622	6620.74
495.825	6559.3
496.029	6579.78
496.232	6712.9
496.436	6618.69
496.639	6719.04
496.843	6626.89
497.046	6567.49
497.249	6796.87
497.453	6553.16
497.656	6458.95
497.859	6581.83
498.063	6585.93
498.266	6725.19
498.469	6594.12
498.673	6686.28
498.876	6653.51
499.079	6479.43
499.282	6573.64
499.485	7022.14
499.689	6862.4
499.892	6934.08
500.095	6929.98
500.298	7032.38
500.501	6919.75
500.705	7142.97
500.908	7118.4
501.111	7265.85
501.314	7235.13
501.517	7337.53
501.72	7407.16
501.923	7523.9
502.126	7523.9
502.329	7743.03
502.532	7716.4
502.735	7693.88
502.938	7917.11
503.141	8082.99
503.344	8173.1
503.547	8267.31
503.75	8228.4
503.953	8394.28
504.156	8715.81
504.359	8709.67
504.562	8824.36
504.765	9072.16
504.968	9192.99
505.17	9309.72
505.373	9147.94
505.576	9600.54
505.779	9666.07
505.982	9655.83
506.185	10210.83
506.387	10069.52
506.59	10239.5
506.793	10421.77
506.996	10862.08
507.198	11165.18
507.401	11089.41
507.604	11519.48
507.807	11646.46
508.009	11838.97
508.212	12213.74
508.415	12338.67
508.617	12363.25
508.82	12611.05
509.022	12721.64
509.225	13379.04
509.428	13661.66
509.63	13962.71
509.833	13956.57
510.035	14958.02
510.238	14902.73
510.44	15230.4
510.643	15496.64
510.845	15953.34
511.048	15941.05
511.25	16219.57
511.453	16752.04
511.655	17620.38
511.858	17524.13
512.06	17796.51
512.262	18445.71
512.465	18675.09
512.667	19391.87
512.87	19555.71
513.072	20170.1
513.274	20737.39
513.477	21171.56
513.679	21661.02
513.881	22406.48
514.084	22627.67
514.286	22623.57
514.488	23477.57
514.69	24073.53
514.893	24610.1
515.095	24915.25
515.297	25646.37
515.499	26078.49
515.701	26588.44
515.904	27084.05
516.106	28050.69
516.308	28470.52
516.51	29250.8
516.712	29418.73
516.914	30399.71
517.116	30809.3
517.318	31212.75
517.52	31812.81
517.722	32341.18
517.925	33080.5
518.127	33815.72
518.329	34600.09
518.531	34610.33
518.733	35607.69
518.935	36052.1
519.136	36875.38
519.338	37389.42
519.54	38044.77
519.742	38536.29
519.944	39134.29
520.146	39879.75
520.348	40223.81
520.55	40936.51
520.752	41022.52
520.954	41739.31
521.155	41647.15
521.357	42853.4
521.559	43373.59
521.761	44139.53
521.963	43578.39
522.164	44739.58
522.366	44817.41
522.568	46167.02
522.77	45738.99
522.971	46685.15
523.173	46470.12
523.375	46838.75
523.576	47023.07
523.778	47180.76
523.98	47946.7
524.181	48075.73
524.383	48108.49
524.584	48309.19
524.786	47872.98
524.988	48088.01
525.189	48776.13
525.391	48778.18
525.592	48853.95
525.794	49144.76
525.995	48645.06
526.197	48786.37
526.398	48567.24
526.6	48735.17
526.801	48853.95
527.003	48817.09
527.204	48280.52
527.406	48221.13
527.607	48495.56
527.808	48235.47
528.01	47092.7
528.211	47649.75
528.412	47952.85
528.614	47342.55
528.815	47094.75
529.016	47135.71
529.218	45761.52
529.419	46291.94
529.62	45390.84
529.822	45466.61
530.023	44633.09
530.224	44368.9
530.425	43842.57
530.626	43363.35
530.828	42904.6
531.029	43271.19
531.23	42447.91
531.431	41854
531.632	41776.17
531.833	40961.08
532.035	40610.88
532.236	40299.59
532.437	40148.04
532.638	38988.89
532.839	39212.12
533.04	38478.94
533.241	37532.78
533.442	37983.34
533.643	36881.53
533.844	36355.2
534.045	36084.87
534.246	35202.19
534.447	35083.41
534.648	34915.48
534.849	34176.16
535.05	33338.54
535.251	33363.12
535.451	32959.67
535.652	32345.28
535.853	31995.07
536.054	31734.98
536.255	31278.29
536.456	30487.77
536.657	30850.26
536.857	29783.27
537.058	29476.07
537.259	29013.23
537.46	28734.71
537.66	28302.59
537.861	28103.93
538.062	27524.36
538.263	27411.72
538.463	26981.65
538.664	26537.24
538.865	26565.91
539.065	26141.98
539.266	25349.42
539.466	25414.95
539.667	24704.31
539.868	25005.36
540.068	24454.45
540.269	24300.86
540.469	24089.92
540.67	23672.13
540.87	23328.07
541.071	22922.57
541.271	22748.5
541.472	22621.52
541.672	22375.77
541.873	21697.89
542.073	21644.64
542.274	21701.98
542.474	21333.35
542.675	20772.21
542.875	21101.93
543.075	20360.56
543.276	20172.15
543.476	20354.42
543.676	19973.5
543.877	19758.46
544.077	19506.56
544.277	19584.38
544.478	18986.38
544.678	19053.96
544.878	18800.01
545.078	18482.58
545.279	18054.55
545.479	17857.95
545.679	17724.83
545.879	17622.43
546.079	17376.67
546.28	17116.58
546.48	16989.61
546.68	17147.3
546.88	16829.87
547.08	16557.49
547.28	16121.27
547.48	15777.21
547.68	15904.18
547.88	15625.66
548.081	15461.82
548.281	15254.98
548.481	14935.49
548.681	15168.96
548.881	14611.92
549.081	14730.7
549.28	14290.38
549.48	14065.11
549.68	13800.92
549.88	13923.8
550.08	13614.55
550.28	13186.53
550.48	13198.82
550.68	13241.82
550.88	12723.69
551.08	12778.98
551.279	12584.43
551.479	12273.14
551.679	12252.66
551.879	11761.14
552.079	11630.07
552.278	11689.46
552.478	11625.98
552.678	11544.06
552.878	11046.4
553.077	11013.63
553.277	10876.42
553.477	10849.8
553.676	10585.61
553.876	10352.14
554.076	10114.58
554.275	10077.71
554.475	9729.56
554.674	9965.07
554.874	9659.93
555.074	9330.2
555.273	9201.18
555.473	9184.8
555.672	8893.99
555.872	8949.28
556.071	8734.25
556.271	8767.01
556.47	8304.17
556.67	8130.09
556.869	8154.67
557.068	7863.86
557.268	7802.42
557.467	7859.76
557.667	7689.78
557.866	7548.47
558.065	7241.28
558.265	7190.08
558.464	7077.44
558.663	7075.39
558.863	6835.78
559.062	6829.63
559.261	6563.4
559.461	6766.15
559.66	6465.1
559.859	6250.06
560.058	6104.65
560.258	6176.33
560.457	5955.15
560.656	6080.08
560.855	5844.56
561.054	5815.89
561.253	5795.41
561.453	5748.31
561.652	5412.44
561.851	5678.68
562.05	5351
562.249	5312.09
562.448	5230.17
562.647	5049.95
562.846	5011.04
563.045	4929.12
563.244	5019.23
563.443	4886.11
563.642	4769.38
563.841	4687.46
564.04	4652.64
564.239	4607.59
564.438	4429.42
564.637	4370.02
564.836	4337.26
565.035	4144.75
565.234	4218.47
565.432	4169.32
565.631	4056.68
565.83	3950.19
566.029	3974.77
566.228	3913.33
566.427	3812.98
566.625	3716.72
566.824	3739.25
567.023	3720.82
567.222	3739.25
567.42	3591.8
567.619	3286.65
567.818	3395.19
568.016	3516.02
568.215	3378.81
568.414	3313.27
568.612	3368.57
568.811	3444.34
569.01	3223.16
569.208	3073.66
569.407	3182.2
569.605	3038.84
569.804	3083.9
570.002	2915.97
570.201	2844.29
570.4	2926.21
570.598	2797.18
570.797	2887.29
570.995	2627.2
571.193	2680.45
571.392	2745.98
571.59	2662.02
571.789	2700.93
571.987	2662.02
572.186	2666.11
572.384	2463.37
572.582	2430.6
572.781	2573.96
572.979	2172.55
573.177	2293.38
573.376	2268.81
573.574	2326.15
573.772	2170.51
573.971	2233.99
574.169	2016.91
574.367	2320.01
574.565	1994.38
574.763	2066.06
574.962	1916.56
575.16	1881.74
575.358	1922.7
575.556	1787.54
575.754	1973.9
575.952	1863.31
576.151	1881.74
576.349	1814.16
576.547	1726.1
576.745	1789.58
576.943	1830.54
577.141	1719.95
577.339	1498.77
577.537	1722
577.735	1719.95
577.933	1674.9
578.131	1511.06
578.329	1654.42
578.527	1554.07
578.725	1531.54
578.923	1453.72
579.121	1543.83
579.319	1341.08
579.516	1322.65
579.714	1656.47
579.912	1441.43
580.11	1300.12
580.308	1263.26
580.506	1357.46
580.704	1164.95
580.901	1097.37
581.099	1418.9
581.297	1203.86
581.495	1214.1
581.692	1136.28
581.89	1244.82
582.088	1224.34
582.285	1101.47
582.483	1119.9
582.681	1044.12
582.878	1056.41
583.076	1019.55
583.274	1158.81
583.471	1136.28
583.669	986.78
583.866	868
584.064	974.49
584.262	1033.88
584.459	913.05
584.657	992.92
584.854	1074.84
585.052	915.1
585.249	974.49
585.447	947.87
585.644	822.94
585.841	984.73
586.039	833.18
586.236	1001.12
586.434	808.61
586.631	779.93
586.828	788.13
587.026	816.8
587.223	796.32
587.42	771.74
587.618	827.04
587.815	820.89
588.012	775.84
588.21	745.12
588.407	804.51
588.604	816.8
588.801	736.93
588.999	732.83
589.196	745.12
589.393	706.21
589.59	763.55
589.787	681.63
589.984	732.83
590.182	691.87
590.379	704.16
590.576	671.39
590.773	673.44
590.97	685.73
591.167	669.34
591.364	732.83
591.561	741.02
591.758	759.46
591.955	638.62
592.152	716.45
592.349	683.68
592.546	628.39
592.743	612
592.94	665.25
593.137	663.2
593.334	712.35
593.531	691.87
593.727	677.54
593.924	689.82
594.121	704.16
594.318	609.95
594.515	628.39
594.712	806.56
594.908	765.6
595.105	593.57
595.302	734.88
595.499	681.63
595.696	827.04
595.892	630.43
596.089	802.46
596.286	624.29
596.482	810.65
596.679	829.09
596.876	722.59
597.072	874.14
597.269	761.5
597.466	911
597.662	847.52
597.859	849.57
598.055	982.68
598.252	921.24
598.448	1007.26
598.645	1109.66
598.841	1009.31
599.038	1101.47
599.234	1226.39
599.431	1146.52
599.627	1187.48
599.824	1132.19
600.02	1341.08
600.217	1234.58
600.413	1283.74
600.609	1369.75
600.806	1715.86
601.002	1457.81
601.198	1398.42
601.395	1617.55
601.591	1631.89
601.787	1660.56
601.984	1867.41
602.18	1855.12
602.376	1855.12
602.572	2037.39
602.769	2166.41
602.965	2041.48
603.161	2162.31
603.357	2250.38
603.553	2383.49
603.75	2274.95
603.946	2436.74
604.142	2633.35
604.338	2838.14
604.534	2760.32
604.73	2805.38
604.926	2848.38
605.122	3014.27
605.318	2997.88
605.514	3135.1
605.71	3106.43
605.906	3446.39
606.102	3511.93
606.298	3538.55
606.494	3712.63
606.69	3937.9
606.886	3860.08
607.082	3952.24
607.278	3964.53
607.474	4284.01
607.67	4519.53
607.866	4089.45
608.062	4560.49
608.257	4658.79
608.453	4689.51
608.649	5187.16
608.845	4968.03
609.041	5215.84
609.236	5469.78
609.432	5463.64
609.628	5637.72
609.824	5748.31
610.019	5957.2
610.215	6131.28
610.411	6362.7
610.606	6643.27
610.802	6684.23
610.998	6757.96
611.193	7073.34
611.389	7001.66
611.584	7366.2
611.78	7296.57
611.976	7646.77
612.171	8142.38
612.367	8166.96
612.562	8263.21
612.758	8369.71
612.953	8508.97
613.149	8820.26
613.344	9250.33
613.539	9512.47
613.735	9573.91
613.93	9752.09
614.126	10186.26
614.321	10575.37
614.517	10702.34
614.712	10935.81
614.907	11269.63
615.103	11595.26
615.298	11605.5
615.493	12246.51
615.688	12248.56
615.884	12912.1
616.079	12633.58
616.274	13538.78
616.47	13544.92
616.665	13931.99
616.86	14353.87
617.055	14618.06
617.25	14974.41
617.445	15422.91
617.641	15586.75
617.836	16274.87
618.031	16528.81
618.226	17073.57
618.421	17458.59
618.616	17872.28
618.811	17747.36
619.006	18750.86
619.201	18634.13
619.396	19363.2
619.591	19445.12
619.786	20159.86
619.981	20381.04
620.176	21040.49
620.371	21224.81
620.566	21863.77
620.761	22220.12
620.956	22906.19
621.151	23168.33
621.346	23809.34
621.541	24044.86
621.735	24685.87
621.93	24775.98
622.125	25754.91
622.32	25586.98
622.515	26938.64
622.709	26512.66
622.904	27424.01
623.099	27825.41
623.294	28548.34
623.488	28288.25
623.683	29142.25
623.878	29338.86
624.072	30086.37
624.267	30768.34
624.462	30975.19
624.656	31147.22
624.851	32185.54
625.046	32539.83
625.24	32744.63
625.435	33182.9
625.629	33959.08
625.824	34325.66
626.018	34628.76
626.213	34696.35
626.407	35353.74
626.602	35275.92
626.796	36236.42
626.991	36363.39
627.185	37008.5
627.38	37069.94
627.574	37727.34
627.768	37639.28
627.963	37350.51
628.157	37651.56
628.352	38061.16
628.546	37602.41
628.74	38364.26
628.935	37663.85
629.129	38095.97
629.323	37889.13
629.517	37956.71
629.712	37581.93
629.906	37244.02
630.1	36654.2
630.294	37004.41
630.489	36041.86
630.683	35984.52
630.877	35013.78
631.071	34716.82
631.265	34464.92
631.459	34016.42
631.653	32844.98
631.848	32449.72
632.042	31309
632.236	30964.95
632.43	30211.29
632.624	29635.81
632.818	28374.27
633.012	27454.73
633.206	26377.5
633.4	26244.38
633.594	24991.02
633.788	24421.69
633.982	23651.65
634.176	22924.62
634.369	21968.22
634.563	21124.46
634.757	20219.25
634.951	19684.73
635.145	18861.45
635.339	18124.18
635.533	17337.76
635.726	16893.35
635.92	15797.69
636.114	15181.25
636.308	14847.43
636.501	14153.17
636.695	13379.04
636.889	13043.17
637.083	12504.56
637.276	12025.33
637.47	11353.6
637.664	11021.83
637.857	10692.1
638.051	10329.61
638.244	9784.85
638.438	9385.5
638.632	9149.98
638.825	8578.6
639.019	8341.04
639.212	8044.08
639.406	7755.32
639.599	7407.16
639.793	7016
639.986	6760
640.18	6602.31
640.373	6391.37
640.567	5985.87
640.76	5832.27
640.954	5766.74
641.147	5447.26
641.34	5156.44
641.534	5080.67
641.727	4898.4
641.92	4683.36
642.114	4419.18
642.307	4269.67
642.5	4269.67
642.694	3933.81
642.887	3937.9
643.08	3665.52
643.273	3614.32
643.467	3380.86
643.66	3208.83
643.853	3022.46
644.046	3147.39
644.239	2975.36
644.432	2614.91
644.626	2621.06
644.819	2653.83
645.012	2346.63
645.205	2446.98
645.398	2367.11
645.591	2164.36
645.784	2051.72
645.977	1965.71
646.17	1894.03
646.363	1951.37
646.556	1783.44
646.749	1705.62
646.942	1767.06
647.135	1795.73
647.328	1545.88
647.521	1662.61
647.714	1472.15
647.907	1349.27
648.099	1197.72
648.292	1423
648.485	1250.97
648.678	1160.86
648.871	1158.81
649.064	1101.47
649.256	1091.23
649.449	1003.16
649.642	949.92
649.835	954.01
650.027	894.62
650.22	986.78
650.413	913.05
650.605	863.9
650.798	747.17
650.991	847.52
651.183	800.41
651.376	743.07
651.568	736.93
651.761	691.87
651.954	753.31
652.146	687.78
652.339	751.26
652.531	784.03
652.724	550.56
652.916	628.39
653.109	489.12
653.301	585.38
653.494	548.51
653.686	472.74
653.879	622.24
654.071	540.32
654.263	462.5
654.456	493.22
654.648	497.32
654.84	421.54
655.033	353.96
655.225	517.79
655.417	298.66
655.61	456.36
655.802	450.21
655.994	466.6
656.186	335.53
656.379	419.49
656.571	323.24
656.763	466.6
656.955	327.33
657.148	331.43
657.34	419.49
657.532	315.05
657.724	276.13
657.916	372.39
658.108	317.09
658.3	360.1
658.492	319.14
658.684	259.75
658.876	356.01
659.068	204.46
659.26	231.08
659.452	214.7
659.644	304.81
659.836	356.01
660.028	319.14
660.22	235.18
660.412	302.76
660.604	257.7
660.796	308.9
660.988	272.04
661.18	181.93
661.372	276.13
661.563	259.75
661.755	286.37
661.947	149.16
662.139	196.26
662.331	231.08
662.522	226.98
662.714	200.36
662.906	114.34
663.097	206.5
663.289	155.3
663.481	143.02
663.673	196.26
663.864	233.13
664.056	224.94
664.247	134.82
664.439	265.89
664.631	231.08
664.822	255.65
665.014	216.74
665.205	165.54
665.397	183.98
665.588	245.41
665.78	192.17
665.971	280.23
666.163	210.6
666.354	214.7
666.546	106.15
666.737	177.83
666.929	179.88
667.12	120.49
667.311	143.02
667.503	128.68
667.694	179.88
667.885	157.35
668.077	194.22
668.268	73.39
668.459	224.94
668.651	210.6
668.842	149.16
669.033	93.87
669.224	134.82
669.416	380.58
669.607	100.01
669.798	91.82
669.989	155.3
670.18	208.55
670.371	190.12
670.563	112.3
670.754	214.7
670.945	210.6
671.136	224.94
671.327	126.63
671.518	210.6
671.709	370.34
671.9	190.12
672.091	208.55
672.282	165.54
672.473	171.69
672.664	118.44
672.855	190.12
673.046	198.31
673.237	261.8
673.428	163.5
673.619	224.94
673.809	237.22
674	247.46
674.191	239.27
674.382	93.87
674.573	218.79
674.764	200.36
674.954	247.46
675.145	161.45
675.336	204.46
675.527	212.65
675.717	124.58
675.908	222.89
676.099	140.97
676.289	267.94
676.48	167.59
676.671	229.03
676.861	143.02
677.052	128.68
677.243	171.69
677.433	149.16
677.624	134.82
677.814	173.74
678.005	183.98
678.195	343.72
678.386	130.73
678.576	229.03
678.767	147.11
678.957	206.5
679.148	269.99
679.338	349.86
679.529	290.47
679.719	282.28
679.909	272.04
680.1	276.13
680.29	269.99
680.481	157.35
680.671	272.04
680.861	269.99
681.052	315.05
681.242	192.17
681.432	290.47
681.622	257.7
681.813	181.93
682.003	206.5
682.193	229.03
682.383	347.81
682.573	206.5
682.764	151.21
682.954	263.85
683.144	353.96
683.334	278.18
683.524	265.89
683.714	263.85
683.904	315.05
684.094	247.46
684.284	253.61
684.474	413.35
684.664	364.2
684.854	212.65
685.044	249.51
685.234	298.66
685.424	308.9
685.614	116.39
685.804	396.96
685.994	333.48
686.184	267.94
686.374	259.75
686.564	241.32
686.753	358.05
686.943	235.18
687.133	300.71
687.323	241.32
687.513	216.74
687.702	310.95
687.892	276.13
688.082	300.71
688.272	380.58
688.461	302.76
688.651	374.44
688.841	370.34
689.03	233.13
689.22	288.42
689.41	331.43
689.599	261.8
689.789	188.07
689.979	388.77
690.168	269.99
690.358	313
690.547	315.05
690.737	304.81
690.926	317.09
691.116	274.09
691.305	360.1
691.495	325.29
691.684	235.18
691.874	183.98
692.063	261.8
692.252	261.8
692.442	310.95
692.631	272.04
692.82	204.46
693.01	249.51
693.199	302.76
693.388	267.94
693.578	241.32
693.767	317.09
693.956	298.66
694.146	229.03
694.335	329.38
694.524	237.22
694.713	245.41
694.902	243.37
695.092	196.26
695.281	265.89
695.47	237.22
695.659	216.74
695.848	255.65
696.037	192.17
696.226	399.01
696.415	257.7
696.604	319.14
696.793	202.41
696.982	304.81
697.171	427.68
697.36	224.94
697.549	263.85
697.738	112.3
697.927	263.85
698.116	210.6
698.305	257.7
698.494	233.13
698.683	278.18
698.872	401.06
699.061	237.22
699.25	204.46
699.438	267.94
699.627	231.08
699.816	304.81
700.005	114.34
700.193	222.89
700.382	313
700.571	198.31
700.76	269.99
700.948	280.23
701.137	368.29
701.326	224.94
701.514	169.64
701.703	288.42
701.892	249.51
702.08	351.91
702.269	245.41
702.457	130.73
702.646	210.6
702.834	247.46
703.023	243.37
703.212	267.94
703.4	231.08
703.589	190.12
703.777	198.31
703.965	239.27
704.154	255.65
704.342	159.4
704.531	226.98
704.719	341.67
704.907	317.09
705.096	177.83
705.284	183.98
705.472	294.57
705.661	247.46
705.849	308.9
706.037	335.53
706.226	235.18
706.414	222.89
706.602	177.83
706.79	290.47
706.979	155.3
707.167	272.04
707.355	159.4
707.543	257.7
707.731	241.32
707.919	202.41
708.107	214.7
708.296	214.7
708.484	192.17
708.672	257.7
708.86	265.89
709.048	192.17
709.236	147.11
709.424	290.47
709.612	206.5
709.8	196.26
709.988	239.27
710.176	261.8
710.364	253.61
710.551	235.18
710.739	208.55
710.927	183.98
711.115	177.83
711.303	302.76
711.491	329.38
711.679	220.84
711.866	339.62
712.054	190.12
712.242	308.9
712.43	349.86
712.617	259.75
712.805	327.33
712.993	231.08
713.181	138.92
713.368	321.19
713.556	183.98
713.744	210.6
713.931	446.12
714.119	331.43
714.306	222.89
714.494	218.79
714.682	235.18
714.869	97.96
715.057	294.57
715.244	175.78
715.432	231.08
715.619	210.6
715.807	212.65
715.994	224.94
716.182	126.63
716.369	337.57
716.556	317.09
716.744	118.44
716.931	190.12
717.119	241.32
717.306	300.71
717.493	269.99
717.681	188.07
717.868	218.79
718.055	319.14
718.242	269.99
718.43	265.89
718.617	409.25
718.804	190.12
718.991	265.89
719.179	292.52
719.366	229.03
719.553	294.57
719.74	358.05
719.927	231.08
720.114	200.36
720.301	138.92
720.488	200.36
720.676	179.88
720.863	315.05
721.05	384.68
721.237	226.98
721.424	288.42
721.611	274.09
721.798	171.69
721.985	302.76
722.172	282.28
722.358	229.03
722.545	276.13
722.732	325.29
722.919	298.66
723.106	282.28
723.293	226.98
723.48	263.85
723.667	239.27
723.853	317.09
724.04	288.42
724.227	259.75
724.414	208.55
724.6	276.13
724.787	456.36
724.974	433.83
725.161	253.61
725.347	183.98
725.534	272.04
725.72	407.2
725.907	427.68
726.094	300.71
726.28	341.67
726.467	321.19
726.653	233.13
726.84	362.15
727.027	482.98
727.213	304.81
727.4	243.37
727.586	308.9
727.773	267.94
727.959	265.89
728.145	294.57
728.332	249.51
728.518	247.46
728.705	376.48
728.891	208.55
729.077	298.66
729.264	237.22
729.45	229.03
729.636	353.96
729.823	308.9
730.009	325.29
730.195	321.19
730.382	335.53
730.568	167.59
730.754	370.34
730.94	339.62
731.126	347.81
731.313	370.34
731.499	333.48
731.685	347.81
731.871	339.62
732.057	425.64
732.243	356.01
732.429	347.81
732.615	415.4
732.801	302.76
732.987	261.8
733.173	380.58
733.359	288.42
733.545	288.42
733.731	345.77
733.917	388.77
734.103	364.2
734.289	378.53
734.475	257.7
734.661	433.83
734.847	265.89
735.033	358.05
735.219	405.16
735.404	290.47
735.59	274.09
735.776	282.28
735.962	401.06
736.148	458.4
736.333	392.87
736.519	353.96
736.705	368.29
736.89	298.66
737.076	376.48
737.262	343.72
737.447	253.61
737.633	286.37
737.819	335.53
738.004	360.1
738.19	269.99
738.375	392.87
738.561	388.77
738.747	372.39
738.932	229.03
739.118	442.02
739.303	370.34
739.489	394.92
739.674	284.33
739.859	290.47
740.045	433.83
740.23	290.47
740.416	171.69
740.601	269.99
740.786	304.81
740.972	263.85
741.157	349.86
741.342	255.65
741.528	239.27
741.713	347.81
741.898	302.76
742.084	376.48
742.269	351.91
742.454	321.19
742.639	372.39
742.824	306.85
743.01	370.34
743.195	421.54
743.38	315.05
743.565	319.14
743.75	396.96
743.935	306.85
744.12	396.96
744.305	226.98
744.49	294.57
744.675	366.25
744.86	321.19
745.045	325.29
745.23	392.87
745.415	353.96
745.6	407.2
745.785	143.02
745.97	392.87
746.155	335.53
746.34	450.21
746.525	323.24
746.71	358.05
746.895	300.71
747.079	192.17
747.264	315.05
747.449	345.77
747.634	356.01
747.819	331.43
748.003	296.61
748.188	179.88
748.373	341.67
748.557	349.86
748.742	251.56
748.927	380.58
749.111	259.75
749.296	313
749.481	274.09
749.665	276.13
749.85	304.81
750.034	276.13
750.219	241.32
750.404	224.94
750.588	298.66
750.773	206.5
750.957	292.52
751.141	265.89
751.326	325.29
751.51	114.34
751.695	261.8
751.879	224.94
752.064	390.82
752.248	204.46
752.432	366.25
752.617	335.53
752.801	321.19
752.985	249.51
753.17	331.43
753.354	317.09
753.538	243.37
753.722	272.04
753.907	245.41
754.091	288.42
754.275	249.51
754.459	118.44
754.643	202.41
754.828	237.22
755.012	286.37
755.196	247.46
755.38	286.37
755.564	120.49
755.748	210.6
755.932	243.37
756.116	251.56
756.3	317.09
756.484	188.07
756.668	202.41
756.852	130.73
757.036	161.45
757.22	204.46
757.404	181.93
757.588	202.41
757.772	226.98
757.956	206.5
758.14	343.72
758.323	173.74
758.507	253.61
758.691	130.73
758.875	278.18
759.059	351.91
759.242	167.59
759.426	296.61
759.61	173.74
759.794	100.01
759.977	345.77
760.161	409.25
760.345	335.53
760.528	208.55
760.712	251.56
760.895	143.02
761.079	147.11
761.263	95.91
761.446	157.35
761.63	118.44
761.813	241.32
761.997	87.72
762.18	89.77
762.364	192.17
762.547	26.28
762.731	216.74
762.914	120.49
763.098	134.82
763.281	140.97
763.464	79.53
763.648	181.93
763.831	196.26
764.015	151.21
764.198	202.41
764.381	114.34
764.564	173.74
764.748	167.59
764.931	171.69
765.114	126.63
765.297	259.75
765.481	102.06
765.664	140.97
765.847	181.93
766.03	237.22
766.213	102.06
766.397	163.5
766.58	40.62
766.763	255.65
766.946	120.49
767.129	122.54
767.312	93.87
767.495	71.34
767.678	48.81
767.861	145.06
768.044	159.4
768.227	112.3
768.41	97.96
768.593	85.67
768.776	179.88
768.959	89.77
769.142	239.27
769.324	97.96
769.507	220.84
769.69	143.02
769.873	124.58
770.056	269.99
770.239	134.82
770.421	241.32
770.604	116.39
770.787	136.87
770.97	-4.44
771.152	48.81
771.335	243.37
771.518	95.91
771.7	194.22
771.883	200.36
772.066	149.16
772.248	134.82
772.431	212.65
772.613	149.16
772.796	153.26
772.978	163.5
773.161	253.61
773.343	110.25
773.526	112.3
773.708	20.14
773.891	75.43
774.073	69.29
774.256	85.67
774.438	214.7
774.621	118.44
774.803	181.93
774.985	145.06
775.168	181.93
775.35	95.91
775.532	116.39
775.715	50.86
775.897	181.93
776.079	114.34
776.261	171.69
776.444	128.68
776.626	54.95
776.808	114.34
776.99	97.96
777.173	63.15
777.355	138.92
777.537	118.44
777.719	220.84
777.901	42.67
778.083	11.95
778.265	87.72
778.447	186.02
778.629	83.63
778.811	54.95
778.993	188.07
779.175	173.74
779.357	128.68
779.539	42.67
779.721	73.39
779.903	149.16
780.085	83.63
780.267	79.53
780.449	110.25
780.631	186.02
780.812	177.83
780.994	97.96
781.176	95.91
781.358	-14.68
781.54	67.24
781.721	169.64
781.903	173.74
782.085	24.23
782.267	104.11
782.448	69.29
782.63	50.86
782.812	81.58
782.993	161.45
783.175	118.44
783.357	161.45
783.538	65.19
783.72	48.81
783.901	128.68
784.083	79.53
784.264	116.39
784.446	-4.44
784.627	13.99
784.809	79.53
784.99	79.53
785.172	124.58
785.353	108.2
785.535	85.67
785.716	46.76
785.897	18.09
786.079	65.19
786.26	91.82
786.441	179.88
786.623	7.85
786.804	-12.63
786.985	124.58
787.167	108.2
787.348	54.95
787.529	20.14
787.71	140.97
787.891	83.63
788.073	-18.77
788.254	-35.16
788.435	214.7
788.616	120.49
788.797	-8.53
788.978	11.95
789.159	22.19
789.34	147.11
789.522	97.96
789.703	-39.25
789.884	85.67
790.065	57
790.246	224.94
790.427	-8.53
790.607	83.63
790.788	132.78
790.969	61.1
791.15	151.21
791.331	-16.73
791.512	46.76
791.693	-18.77
791.874	-14.68
792.054	226.98
792.235	136.87
792.416	30.38
792.597	46.76
792.778	167.59
792.958	134.82
793.139	30.38
793.32	97.96
793.5	-10.58
793.681	204.46
793.862	77.48
794.042	32.43
794.223	20.14
794.404	-4.44
794.584	-110.93
794.765	-16.73
794.945	7.85
795.126	140.97
795.306	132.78
795.487	116.39
795.667	-33.11
795.848	167.59
796.028	44.71
796.209	-8.53
796.389	112.3
796.57	44.71
796.75	-2.39
796.93	36.52
797.111	20.14
797.291	20.14
797.471	30.38
797.652	28.33
797.832	-2.39
798.012	65.19
798.192	-26.96
798.373	-67.92
798.553	44.71
798.733	67.24
798.913	34.47
799.093	26.28
799.274	71.34
799.454	132.78
799.634	116.39
799.814	147.11
799.994	32.43
800.174	155.3
800.354	-22.87
800.534	-72.02
800.714	102.06
800.894	-12.63
801.074	-33.11
801.254	20.14
801.434	38.57
801.614	-57.68
801.794	-18.77
801.974	1830.54
802.154	-6.49
802.334	52.91
802.514	1.71
802.693	-2.39
802.873	16.04
803.053	167.59
803.233	59.05
803.413	42.67
803.592	-16.73
803.772	3.75
803.952	30.38
804.131	-106.84
804.311	85.67
804.491	155.3
804.67	42.67
804.85	13.99
805.03	63.15
805.209	85.67
805.389	-10.58
805.568	-82.26
805.748	-78.16
805.928	26.28
806.107	175.78
806.287	106.15
806.466	110.25
806.646	-6.49
806.825	40.62
807.004	13.99
807.184	50.86
807.363	102.06
807.543	83.63
807.722	28.33
807.901	118.44
808.081	110.25
808.26	-106.84
808.439	13.99
808.619	-14.68
808.798	22.19
808.977	-24.92
809.156	104.11
809.336	65.19
809.515	155.3
809.694	-16.73
809.873	9.9
810.052	59.05
810.231	128.68
810.411	83.63
810.59	159.4
810.769	40.62
810.948	157.35
811.127	-72.02
811.306	-31.06
811.485	-35.16
811.664	106.15
811.843	106.15
812.022	85.67
812.201	7.85
812.38	-6.49
812.559	1.71
812.737	38.57
812.916	-51.54
813.095	-14.68
813.274	28.33
813.453	44.71
813.632	91.82
813.811	108.2
813.989	-86.36
814.168	71.34
814.347	3.75
814.526	24.23
814.704	169.64
814.883	202.41
815.062	16.04
815.24	81.58
815.419	-67.92
815.598	134.82
815.776	-65.88
815.955	16.04
816.133	7.85
816.312	16.04
816.49	11.95
816.669	-20.82
816.847	5.8
817.026	91.82
817.204	-12.63
817.383	-41.3
817.561	38.57
817.74	-37.2
817.918	-6.49
818.097	11.95
818.275	-57.68
818.453	46.76
818.632	87.72
818.81	-2.39
818.988	-55.64
819.167	-22.87
819.345	44.71
819.523	-18.77
819.701	73.39
819.879	87.72
820.058	61.1
820.236	69.29
820.414	-0.34
820.592	65.19
820.77	50.86
820.948	-12.63
821.127	-26.96
821.305	11.95
821.483	-41.3
821.661	79.53
821.839	52.91
822.017	-55.64
822.195	65.19
822.373	130.73
822.551	34.47
822.729	149.16
822.907	32.43
823.085	132.78
823.262	20.14
823.44	-39.25
823.618	3.75
823.796	3.75
823.974	-24.92
824.152	24.23
824.329	22.19
824.507	-6.49
824.685	89.77
824.863	7.85
825.04	18.09
825.218	13.99
825.396	24.23
825.574	42.67
825.751	24.23
825.929	71.34
826.107	-69.97
826.284	81.58
826.462	44.71
826.639	1.71
826.817	-106.84
826.994	-8.53
827.172	-59.73
827.349	177.83
827.527	-35.16
827.704	16.04
827.882	-16.73
828.059	-24.92
828.237	-18.77
828.414	114.34
828.591	-43.35
828.769	-29.01
828.946	-22.87
829.124	120.49
829.301	1.71
829.478	-12.63
829.655	24.23
829.833	75.43
830.01	-149.84
830.187	93.87
830.364	75.43
830.542	-18.77
830.719	163.5
830.896	50.86
831.073	24.23
831.25	9.9
831.427	167.59
831.604	93.87
831.782	30.38
831.959	65.19
832.136	-55.64
832.313	77.48
832.49	9.9
832.667	54.95
832.844	-4.44
833.021	20.14
833.198	-33.11
833.374	34.47
833.551	32.43
833.728	-6.49
833.905	57
834.082	-47.44
834.259	36.52
834.436	167.59
834.612	-6.49
834.789	44.71
834.966	1.71
835.143	97.96
835.319	-14.68
835.496	24.23
835.673	18.09
835.85	83.63
836.026	93.87
836.203	57
836.38	-76.12
836.556	30.38
836.733	-12.63
836.909	110.25
837.086	50.86
837.262	-20.82
837.439	83.63
837.616	-10.58
837.792	11.95
837.968	110.25
838.145	-67.92
838.321	22.19
838.498	81.58
838.674	145.06
838.851	16.04
839.027	20.14
839.203	-6.49
839.38	48.81
839.556	-10.58
839.732	89.77
839.909	-53.59
840.085	102.06
840.261	-39.25
840.437	48.81
840.614	32.43
840.79	77.48
840.966	120.49
841.142	24.23
841.318	-14.68
841.494	93.87
841.671	145.06
841.847	-16.73
842.023	-41.3
842.199	16.04
842.375	159.4
842.551	-86.36
842.727	32.43
842.903	120.49
843.079	11.95
843.255	91.82
843.431	71.34
843.607	-2.39
843.783	-151.89
843.959	91.82
844.134	-33.11
844.31	132.78
844.486	34.47
844.662	-45.4
844.838	52.91
845.013	28.33
845.189	87.72
845.365	-24.92
845.541	71.34
845.716	20.14
845.892	71.34
846.068	-2.39
846.244	18.09
846.419	7.85
846.595	-4.44
846.77	16.04
846.946	30.38
847.122	-29.01
847.297	-41.3
847.473	110.25
847.648	-6.49
847.824	22.19
847.999	-102.74
848.175	5.8
848.35	-20.82
848.526	108.2
848.701	30.38
848.876	108.2
849.052	40.62
849.227	61.1
849.403	65.19
849.578	-16.73
849.753	75.43
849.929	122.54
850.104	-69.97
850.279	7.85
850.454	63.15
850.63	30.38
850.805	46.76
850.98	26.28
851.155	-10.58
851.33	59.05
851.505	-16.73
851.681	138.92
851.856	-29.01
852.031	126.63
852.206	-65.88
852.381	-35.16
852.556	5.8
852.731	77.48
852.906	-31.06
853.081	7.85
853.256	130.73
853.431	-0.34
853.606	48.81
853.781	-61.78
853.956	-61.78
854.131	73.39
854.305	-47.44
854.48	-4.44
854.655	-22.87
854.83	-72.02
855.005	-20.82
855.18	26.28
855.354	32.43
855.529	71.34
855.704	-4.44
855.879	44.71
856.053	-98.64
856.228	-22.87
856.403	-80.21
856.577	26.28
856.752	-82.26
856.926	-33.11
857.101	59.05
857.276	-43.35
857.45	61.1
857.625	83.63
857.799	28.33
857.974	57
858.148	-74.07
858.323	-49.49
858.497	-18.77
858.672	-6.49
858.846	-96.6
859.02	149.16
859.195	-74.07
859.369	40.62
859.543	71.34
859.718	-2.39
859.892	1.71
860.066	11.95
860.241	-80.21
860.415	-29.01
860.589	7.85
860.763	54.95
860.938	-31.06
861.112	36.52
861.286	13.99
861.46	28.33
861.634	7.85
861.808	24.23
861.982	-82.26
862.157	-47.44
862.331	-33.11
862.505	-55.64
862.679	-47.44
862.853	-24.92
863.027	20.14
863.201	163.5
863.375	-76.12
863.549	59.05
863.722	104.11
863.896	63.15
864.07	-47.44
864.244	46.76
864.418	50.86
864.592	44.71
864.766	42.67
864.939	-31.06
865.113	50.86
865.287	89.77
865.461	-53.59
865.634	48.81
865.808	-2.39
865.982	-31.06
866.156	26.28
866.329	-10.58
866.503	-43.35
866.676	67.24
866.85	18.09
867.024	-16.73
867.197	22.19
867.371	52.91
867.544	-22.87
867.718	-55.64
867.891	106.15
868.065	-74.07
868.238	-31.06
868.412	79.53
868.585	61.1
868.759	-16.73
868.932	5.8
869.105	-0.34
869.279	-2.39
869.452	-20.82
869.625	87.72
869.799	30.38
869.972	-39.25
870.145	9.9
870.319	95.91
870.492	48.81
870.665	9.9
870.838	36.52
871.011	-121.17
871.185	38.57
871.358	-49.49
871.531	57
871.704	-2.39
871.877	52.91
872.05	7.85
872.223	-18.77
872.396	42.67
872.569	-16.73
872.742	-63.83
872.915	61.1
873.088	32.43
873.261	-72.02
873.434	24.23
873.607	11.95
873.78	-10.58
873.953	-31.06
874.126	20.14
874.299	87.72
874.471	57
874.644	-22.87
874.817	69.29
874.99	179.88
875.163	-2.39
875.335	48.81
875.508	-2.39
875.681	73.39
875.853	-74.07
876.026	-2.39
876.199	46.76
876.371	-61.78
876.544	16.04
876.717	34.47
876.889	-0.34
877.062	67.24
877.234	-59.73
877.407	36.52
877.579	52.91
877.752	61.1
877.924	102.06
878.097	110.25
878.269	-74.07
878.442	42.67
878.614	13.99
878.786	18.09
878.959	13.99
879.131	54.95
879.303	-94.55
879.476	-65.88
879.648	114.34
879.82	26.28
879.993	-4.44
880.165	-6.49
880.337	-39.25
880.509	57
880.681	-92.5
880.854	-43.35
881.026	54.95
881.198	161.45
881.37	-16.73
881.542	34.47
881.714	16.04
881.886	-80.21
882.058	-43.35
882.23	9.9
882.402	-10.58
882.574	3.75
882.746	44.71
882.918	63.15
883.09	175.78
883.262	-26.96
883.434	3.75
883.606	-86.36
883.778	24.23
883.95	108.2
884.122	-82.26
884.293	116.39
884.465	61.1
884.637	63.15
884.809	-8.53
884.98	61.1
885.152	44.71
885.324	93.87
885.496	-63.83
885.667	-8.53
885.839	-14.68
886.011	169.64
886.182	83.63
886.354	120.49
886.525	-39.25
886.697	102.06
886.869	-39.25
887.04	26.28
887.212	114.34
887.383	145.06
887.555	20.14
887.726	-41.3
887.897	9.9
888.069	52.91
888.24	-41.3
888.412	-49.49
888.583	5.8
888.754	-4.44
888.926	-63.83
889.097	-29.01
889.268	32.43
889.44	50.86
889.611	-69.97
889.782	65.19
889.953	20.14
890.125	153.26
890.296	-43.35
890.467	-76.12
890.638	20.14
890.809	-47.44
890.98	-57.68
891.151	97.96
891.323	83.63
891.494	-51.54
891.665	3.75
891.836	-22.87
892.007	-12.63
892.178	-16.73
892.349	11.95
892.52	3.75
892.691	-4.44
892.862	5.8
893.032	-24.92
893.203	24.23
893.374	34.47
893.545	93.87
893.716	-67.92
893.887	106.15
894.057	7.85
894.228	50.86
894.399	-88.4
894.57	102.06
894.74	1.71
894.911	87.72
895.082	28.33
895.253	-57.68
895.423	3.75
895.594	145.06
895.764	24.23
895.935	-10.58
896.106	40.62
896.276	9.9
896.447	71.34
896.617	-29.01
896.788	-96.6
896.958	26.28
897.129	7.85
897.299	-98.64
897.47	67.24
897.64	118.44
897.81	38.57
897.981	22.19
898.151	-74.07
898.322	52.91
898.492	46.76
898.662	-29.01
898.832	28.33
899.003	-8.53
899.173	130.73
899.343	-117.08
899.513	-80.21
