Data from USB4F104151__2__09-24-15-729.txt Node

Date: Wed Feb 26 09:24:15 EST 2025
User: louis
Spectrometer: USB4F10415
Trigger mode: 4
Integration Time (sec): 1.000000E-1
Scans to average: 1
Electric dark correction enabled: true
Nonlinearity correction enabled: false
Boxcar width: 0
XAxis mode: Wavelengths
Number of Pixels in Spectrum: 3648
>>>>>Begin Spectral Data<<<<<
178.204	-291.32
178.424	-291.32
178.644	-291.32
178.864	-248.32
179.084	-305.66
179.304	-8.7
179.524	-102.91
179.744	34.3
179.964	52.74
180.184	34.3
180.404	30.21
180.624	17.92
180.844	17.92
181.064	-61.95
181.283	17.92
181.503	-25.09
181.723	-6.66
181.943	-135.68
182.163	161.28
182.383	-2.56
182.602	93.69
182.822	138.75
183.042	73.21
183.262	13.82
183.482	46.59
183.701	101.89
183.921	69.12
184.141	58.88
184.361	110.08
184.58	26.11
184.8	36.35
185.02	26.11
185.239	71.17
185.459	93.69
185.679	167.42
185.898	-90.62
186.118	97.79
186.338	75.26
186.557	146.94
186.777	11.78
186.997	-8.7
187.216	32.26
187.436	163.33
187.655	93.69
187.875	69.12
188.095	44.54
188.314	73.21
188.534	110.08
188.753	1.54
188.973	32.26
189.192	165.37
189.412	36.35
189.631	50.69
189.851	50.69
190.07	140.8
190.29	-12.8
190.509	19.97
190.729	-0.51
190.948	157.18
191.168	290.3
191.387	132.61
191.607	75.26
191.826	56.83
192.045	22.02
192.265	19.97
192.484	81.41
192.704	67.07
192.923	-20.99
193.142	177.66
193.362	95.74
193.581	142.85
193.8	-14.85
194.02	97.79
194.239	5.63
194.458	97.79
194.678	60.93
194.897	19.97
195.116	67.07
195.335	114.17
195.555	22.02
195.774	3.58
195.993	52.74
196.212	40.45
196.432	34.3
196.651	3.58
196.87	73.21
197.089	247.29
197.308	122.37
197.528	69.12
197.747	-72.19
197.966	9.73
198.185	97.79
198.404	44.54
198.623	65.02
198.842	126.46
199.062	142.85
199.281	60.93
199.5	67.07
199.719	26.11
199.938	24.06
200.157	103.93
200.376	99.84
200.595	130.56
200.814	42.5
201.033	1.54
201.252	110.08
201.471	-6.66
201.69	91.65
201.909	40.45
202.128	77.31
202.347	52.74
202.566	97.79
202.785	26.11
203.004	-29.18
203.223	173.57
203.442	52.74
203.661	9.73
203.879	73.21
204.098	185.85
204.317	-6.66
204.536	167.42
204.755	77.31
204.974	91.65
205.193	-0.51
205.411	175.61
205.63	108.03
205.849	99.84
206.068	83.45
206.287	36.35
206.505	148.99
206.724	58.88
206.943	-10.75
207.162	36.35
207.381	89.6
207.599	-4.61
207.818	44.54
208.037	36.35
208.255	17.92
208.474	87.55
208.693	60.93
208.911	30.21
209.13	148.99
209.349	28.16
209.567	56.83
209.786	101.89
210.005	108.03
210.223	-0.51
210.442	-20.99
210.661	26.11
210.879	52.74
211.098	34.3
211.316	93.69
211.535	87.55
211.753	5.63
211.972	46.59
212.191	-4.61
212.409	42.5
212.628	93.69
212.846	85.5
213.065	69.12
213.283	122.37
213.502	87.55
213.72	13.82
213.938	52.74
214.157	69.12
214.375	54.78
214.594	36.35
214.812	93.69
215.031	62.98
215.249	36.35
215.467	116.22
215.686	97.79
215.904	58.88
216.122	87.55
216.341	83.45
216.559	83.45
216.778	110.08
216.996	93.69
217.214	17.92
217.432	110.08
217.651	-29.18
217.869	110.08
218.087	65.02
218.306	46.59
218.524	44.54
218.742	46.59
218.96	140.8
219.179	13.82
219.397	153.09
219.615	146.94
219.833	81.41
220.051	-72.19
220.27	110.08
220.488	93.69
220.706	97.79
220.924	-10.75
221.142	1.54
221.36	15.87
221.578	89.6
221.796	15.87
222.015	77.31
222.233	11.78
222.451	128.51
222.669	52.74
222.887	130.56
223.105	-2.56
223.323	-12.8
223.541	-20.99
223.759	56.83
223.977	40.45
224.195	259.58
224.413	62.98
224.631	122.37
224.849	69.12
225.067	187.9
225.285	-8.7
225.503	22.02
225.721	-53.76
225.939	17.92
226.157	122.37
226.375	189.95
226.592	11.78
226.81	-20.99
227.028	69.12
227.246	142.85
227.464	99.84
227.682	91.65
227.9	101.89
228.117	93.69
228.335	13.82
228.553	32.26
228.771	19.97
228.989	118.27
229.206	134.65
229.424	-20.99
229.642	54.78
229.86	-53.76
230.077	204.28
230.295	3.58
230.513	169.47
230.731	140.8
230.948	77.31
231.166	99.84
231.384	114.17
231.601	40.45
231.819	108.03
232.037	13.82
232.254	103.93
232.472	7.68
232.689	7.68
232.907	171.52
233.125	56.83
233.342	11.78
233.56	-45.57
233.777	58.88
233.995	48.64
234.213	67.07
234.43	134.65
234.648	77.31
234.865	9.73
235.083	93.69
235.3	60.93
235.518	101.89
235.735	85.5
235.953	118.27
236.17	67.07
236.388	50.69
236.605	81.41
236.822	142.85
237.04	91.65
237.257	81.41
237.475	-78.33
237.692	13.82
237.909	38.4
238.127	7.68
238.344	108.03
238.562	93.69
238.779	-16.9
238.996	1.54
239.214	-6.66
239.431	93.69
239.648	-27.14
239.865	103.93
240.083	173.57
240.3	-2.56
240.517	85.5
240.735	-59.9
240.952	181.76
241.169	130.56
241.386	134.65
241.603	-16.9
241.821	9.73
242.038	48.64
242.255	153.09
242.472	11.78
242.689	136.7
242.907	81.41
243.124	67.07
243.341	40.45
243.558	32.26
243.775	-29.18
243.992	-39.42
244.209	169.47
244.426	196.09
244.643	101.89
244.86	91.65
245.078	58.88
245.295	71.17
245.512	-0.51
245.729	-29.18
245.946	75.26
246.163	50.69
246.38	42.5
246.597	40.45
246.814	103.93
247.031	46.59
247.248	142.85
247.464	118.27
247.681	75.26
247.898	93.69
248.115	44.54
248.332	-8.7
248.549	101.89
248.766	167.42
248.983	103.93
249.2	62.98
249.417	99.84
249.633	44.54
249.85	126.46
250.067	-23.04
250.284	83.45
250.501	126.46
250.717	110.08
250.934	19.97
251.151	-14.85
251.368	40.45
251.585	85.5
251.801	24.06
252.018	5.63
252.235	65.02
252.451	-29.18
252.668	11.78
252.885	138.75
253.102	13.82
253.318	19.97
253.535	77.31
253.752	101.89
253.968	36.35
254.185	-51.71
254.401	48.64
254.618	79.36
254.835	62.98
255.051	126.46
255.268	48.64
255.484	112.13
255.701	89.6
255.917	65.02
256.134	-61.95
256.351	67.07
256.567	-6.66
256.784	69.12
257	-6.66
257.217	50.69
257.433	132.61
257.65	32.26
257.866	138.75
258.082	-4.61
258.299	24.06
258.515	28.16
258.732	58.88
258.948	50.69
259.165	130.56
259.381	-16.9
259.597	28.16
259.814	60.93
260.03	36.35
260.246	48.64
260.463	83.45
260.679	105.98
260.895	108.03
261.112	91.65
261.328	11.78
261.544	60.93
261.761	218.62
261.977	9.73
262.193	-86.53
262.409	28.16
262.626	112.13
262.842	42.5
263.058	-8.7
263.274	101.89
263.49	148.99
263.707	48.64
263.923	171.52
264.139	-64
264.355	38.4
264.571	183.81
264.787	69.12
265.004	159.23
265.22	130.56
265.436	-20.99
265.652	11.78
265.868	226.81
266.084	-33.28
266.3	85.5
266.516	-6.66
266.732	-31.23
266.948	85.5
267.164	19.97
267.38	99.84
267.596	71.17
267.812	99.84
268.028	77.31
268.244	-33.28
268.46	105.98
268.676	-6.66
268.892	177.66
269.108	11.78
269.324	56.83
269.54	-61.95
269.756	93.69
269.972	-4.61
270.188	56.83
270.403	-29.18
270.619	-27.14
270.835	134.65
271.051	69.12
271.267	13.82
271.483	28.16
271.698	71.17
271.914	-0.51
272.13	52.74
272.346	9.73
272.562	44.54
272.777	116.22
272.993	3.58
273.209	3.58
273.425	67.07
273.64	7.68
273.856	142.85
274.072	-37.38
274.287	77.31
274.503	1.54
274.719	194.05
274.934	65.02
275.15	-86.53
275.366	83.45
275.581	11.78
275.797	32.26
276.012	52.74
276.228	3.58
276.444	122.37
276.659	89.6
276.875	42.5
277.09	30.21
277.306	-23.04
277.521	89.6
277.737	91.65
277.952	134.65
278.168	22.02
278.383	28.16
278.599	34.3
278.814	118.27
279.03	13.82
279.245	126.46
279.461	34.3
279.676	89.6
279.892	3.58
280.107	-86.53
280.322	-12.8
280.538	151.04
280.753	75.26
280.969	93.69
281.184	19.97
281.399	175.61
281.615	83.45
281.83	-0.51
282.045	-53.76
282.26	7.68
282.476	118.27
282.691	169.47
282.906	-0.51
283.122	101.89
283.337	52.74
283.552	60.93
283.767	60.93
283.983	83.45
284.198	56.83
284.413	101.89
284.628	-0.51
284.843	95.74
285.058	167.42
285.274	69.12
285.489	5.63
285.704	142.85
285.919	-10.75
286.134	19.97
286.349	101.89
286.564	-0.51
286.779	138.75
286.995	-10.75
287.21	-35.33
287.425	58.88
287.64	19.97
287.855	103.93
288.07	-29.18
288.285	155.13
288.5	101.89
288.715	60.93
288.93	-29.18
289.145	22.02
289.36	81.41
289.575	1.54
289.79	118.27
290.004	69.12
290.219	161.28
290.434	22.02
290.649	69.12
290.864	32.26
291.079	15.87
291.294	19.97
291.509	15.87
291.724	28.16
291.938	83.45
292.153	58.88
292.368	62.98
292.583	44.54
292.798	44.54
293.012	93.69
293.227	122.37
293.442	7.68
293.657	38.4
293.871	73.21
294.086	103.93
294.301	179.71
294.516	77.31
294.73	30.21
294.945	-61.95
295.16	85.5
295.374	138.75
295.589	56.83
295.804	-70.14
296.018	69.12
296.233	118.27
296.447	73.21
296.662	-12.8
296.877	132.61
297.091	95.74
297.306	110.08
297.52	65.02
297.735	101.89
297.949	126.46
298.164	-20.99
298.378	79.36
298.593	1.54
298.807	-0.51
299.022	52.74
299.236	105.98
299.451	42.5
299.665	69.12
299.88	30.21
300.094	48.64
300.309	-53.76
300.523	46.59
300.737	9.73
300.952	15.87
301.166	77.31
301.381	-80.38
301.595	3.58
301.809	56.83
302.024	81.41
302.238	3.58
302.452	-0.51
302.667	58.88
302.881	91.65
303.095	28.16
303.309	89.6
303.524	-14.85
303.738	24.06
303.952	-8.7
304.166	44.54
304.381	-49.66
304.595	185.85
304.809	56.83
305.023	99.84
305.237	48.64
305.452	42.5
305.666	97.79
305.88	75.26
306.094	157.18
306.308	105.98
306.522	142.85
306.736	34.3
306.95	183.81
307.164	-4.61
307.379	99.84
307.593	173.57
307.807	192
308.021	146.94
308.235	58.88
308.449	-82.43
308.663	50.69
308.877	159.23
309.091	108.03
309.305	163.33
309.519	-66.05
309.733	151.04
309.947	-76.29
310.161	132.61
310.374	73.21
310.588	239.1
310.802	-86.53
311.016	50.69
311.23	91.65
311.444	-53.76
311.658	99.84
311.872	116.22
312.085	196.09
312.299	165.37
312.513	175.61
312.727	105.98
312.941	-29.18
313.154	108.03
313.368	36.35
313.582	79.36
313.796	65.02
314.009	91.65
314.223	79.36
314.437	81.41
314.651	81.41
314.864	32.26
315.078	3.58
315.292	-68.09
315.505	22.02
315.719	83.45
315.933	93.69
316.146	44.54
316.36	50.69
316.573	185.85
316.787	60.93
317.001	73.21
317.214	19.97
317.428	146.94
317.641	32.26
317.855	40.45
318.068	19.97
318.282	26.11
318.495	222.72
318.709	112.13
318.922	-0.51
319.136	175.61
319.349	163.33
319.563	36.35
319.776	171.52
319.99	-31.23
320.203	36.35
320.417	58.88
320.63	105.98
320.843	192
321.057	44.54
321.27	28.16
321.483	58.88
321.697	108.03
321.91	69.12
322.124	60.93
322.337	69.12
322.55	40.45
322.763	134.65
322.977	77.31
323.19	42.5
323.403	58.88
323.617	118.27
323.83	81.41
324.043	52.74
324.256	93.69
324.469	17.92
324.683	151.04
324.896	85.5
325.109	7.68
325.322	-14.85
325.535	81.41
325.748	159.23
325.962	52.74
326.175	17.92
326.388	52.74
326.601	159.23
326.814	75.26
327.027	91.65
327.24	206.33
327.453	60.93
327.666	75.26
327.879	140.8
328.092	44.54
328.305	-4.61
328.518	58.88
328.731	-18.94
328.944	-0.51
329.157	91.65
329.37	9.73
329.583	179.71
329.796	138.75
330.009	-39.42
330.222	132.61
330.435	114.17
330.648	69.12
330.861	19.97
331.073	54.78
331.286	105.98
331.499	44.54
331.712	34.3
331.925	85.5
332.138	122.37
332.35	128.51
332.563	-12.8
332.776	192
332.989	-25.09
333.202	-10.75
333.414	-0.51
333.627	11.78
333.84	67.07
334.053	65.02
334.265	-53.76
334.478	28.16
334.691	60.93
334.903	60.93
335.116	34.3
335.329	24.06
335.541	95.74
335.754	85.5
335.966	32.26
336.179	42.5
336.392	28.16
336.604	26.11
336.817	91.65
337.029	36.35
337.242	36.35
337.454	62.98
337.667	42.5
337.88	65.02
338.092	28.16
338.305	163.33
338.517	67.07
338.729	85.5
338.942	153.09
339.154	28.16
339.367	11.78
339.579	44.54
339.792	9.73
340.004	52.74
340.217	75.26
340.429	116.22
340.641	77.31
340.854	40.45
341.066	-25.09
341.278	101.89
341.491	181.76
341.703	97.79
341.915	-6.66
342.128	77.31
342.34	56.83
342.552	-2.56
342.764	77.31
342.977	77.31
343.189	155.13
343.401	69.12
343.613	22.02
343.826	71.17
344.038	-55.81
344.25	71.17
344.462	3.58
344.674	140.8
344.886	60.93
345.099	108.03
345.311	85.5
345.523	116.22
345.735	-29.18
345.947	73.21
346.159	5.63
346.371	128.51
346.583	30.21
346.795	232.96
347.007	95.74
347.219	103.93
347.431	52.74
347.643	110.08
347.855	60.93
348.067	120.32
348.279	-6.66
348.491	67.07
348.703	108.03
348.915	40.45
349.127	1.54
349.339	22.02
349.551	-23.04
349.763	34.3
349.975	69.12
350.187	32.26
350.399	157.18
350.61	34.3
350.822	26.11
351.034	65.02
351.246	99.84
351.458	36.35
351.669	56.83
351.881	71.17
352.093	159.23
352.305	140.8
352.517	50.69
352.728	85.5
352.94	77.31
353.152	44.54
353.363	-45.57
353.575	144.89
353.787	108.03
353.999	67.07
354.21	142.85
354.422	-16.9
354.633	-25.09
354.845	126.46
355.057	79.36
355.268	60.93
355.48	32.26
355.692	-37.38
355.903	101.89
356.115	42.5
356.326	-14.85
356.538	116.22
356.749	126.46
356.961	175.61
357.172	44.54
357.384	28.16
357.595	155.13
357.807	77.31
358.018	44.54
358.23	85.5
358.441	95.74
358.653	-2.56
358.864	26.11
359.075	-6.66
359.287	52.74
359.498	103.93
359.709	44.54
359.921	108.03
360.132	126.46
360.344	60.93
360.555	15.87
360.766	134.65
360.977	48.64
361.189	103.93
361.4	87.55
361.611	122.37
361.823	118.27
362.034	65.02
362.245	-0.51
362.456	97.79
362.667	67.07
362.879	3.58
363.09	73.21
363.301	73.21
363.512	85.5
363.723	65.02
363.935	17.92
364.146	101.89
364.357	108.03
364.568	97.79
364.779	-70.14
364.99	142.85
365.201	110.08
365.412	108.03
365.623	15.87
365.834	44.54
366.045	3.58
366.256	108.03
366.467	75.26
366.678	44.54
366.889	165.37
367.1	97.79
367.311	11.78
367.522	108.03
367.733	77.31
367.944	56.83
368.155	126.46
368.366	73.21
368.577	146.94
368.788	99.84
368.999	17.92
369.209	58.88
369.42	173.57
369.631	224.76
369.842	101.89
370.053	48.64
370.264	89.6
370.474	-14.85
370.685	122.37
370.896	-29.18
371.107	153.09
371.317	7.68
371.528	75.26
371.739	93.69
371.95	114.17
372.16	126.46
372.371	-39.42
372.582	97.79
372.792	83.45
373.003	87.55
373.214	3.58
373.424	79.36
373.635	-25.09
373.846	183.81
374.056	60.93
374.267	69.12
374.477	101.89
374.688	-23.04
374.898	11.78
375.109	144.89
375.319	142.85
375.53	97.79
375.74	148.99
375.951	17.92
376.161	32.26
376.372	175.61
376.582	91.65
376.793	77.31
377.003	-31.23
377.214	9.73
377.424	91.65
377.635	36.35
377.845	3.58
378.055	175.61
378.266	11.78
378.476	65.02
378.686	167.42
378.897	93.69
379.107	69.12
379.317	110.08
379.528	65.02
379.738	28.16
379.948	-14.85
380.158	108.03
380.369	44.54
380.579	97.79
380.789	-23.04
380.999	77.31
381.21	73.21
381.42	189.95
381.63	87.55
381.84	142.85
382.05	75.26
382.261	136.7
382.471	128.51
382.681	15.87
382.891	122.37
383.101	73.21
383.311	-20.99
383.521	11.78
383.731	91.65
383.941	116.22
384.151	126.46
384.361	34.3
384.571	-4.61
384.781	108.03
384.991	140.8
385.201	138.75
385.411	165.37
385.621	155.13
385.831	67.07
386.041	132.61
386.251	99.84
386.461	142.85
386.671	5.63
386.881	26.11
387.091	52.74
387.301	85.5
387.511	-0.51
387.72	122.37
387.93	77.31
388.14	40.45
388.35	85.5
388.56	157.18
388.769	81.41
388.979	42.5
389.189	19.97
389.399	62.98
389.609	32.26
389.818	163.33
390.028	17.92
390.238	52.74
390.447	11.78
390.657	95.74
390.867	5.63
391.076	-18.94
391.286	85.5
391.496	93.69
391.705	36.35
391.915	134.65
392.125	97.79
392.334	-12.8
392.544	130.56
392.753	97.79
392.963	50.69
393.172	75.26
393.382	7.68
393.591	155.13
393.801	19.97
394.01	169.47
394.22	112.13
394.429	-37.38
394.639	44.54
394.848	77.31
395.058	36.35
395.267	24.06
395.477	116.22
395.686	142.85
395.895	153.09
396.105	161.28
396.314	71.17
396.524	79.36
396.733	46.59
396.942	97.79
397.152	130.56
397.361	105.98
397.57	85.5
397.78	56.83
397.989	126.46
398.198	282.11
398.407	42.5
398.617	85.5
398.826	71.17
399.035	58.88
399.244	179.71
399.453	79.36
399.663	97.79
399.872	120.32
400.081	15.87
400.29	155.13
400.499	3.58
400.708	159.23
400.917	44.54
401.127	99.84
401.336	44.54
401.545	204.28
401.754	167.42
401.963	81.41
402.172	-59.9
402.381	-8.7
402.59	60.93
402.799	73.21
403.008	130.56
403.217	116.22
403.426	75.26
403.635	32.26
403.844	105.98
404.053	108.03
404.262	77.31
404.471	183.81
404.68	148.99
404.888	95.74
405.097	81.41
405.306	89.6
405.515	97.79
405.724	85.5
405.933	140.8
406.142	52.74
406.35	134.65
406.559	46.59
406.768	110.08
406.977	81.41
407.185	110.08
407.394	103.93
407.603	-35.33
407.812	101.89
408.02	105.98
408.229	48.64
408.438	75.26
408.646	-88.57
408.855	11.78
409.064	116.22
409.272	54.78
409.481	81.41
409.69	26.11
409.898	11.78
410.107	108.03
410.315	136.7
410.524	62.98
410.733	148.99
410.941	44.54
411.15	105.98
411.358	65.02
411.567	208.38
411.775	77.31
411.984	93.69
412.192	60.93
412.401	17.92
412.609	183.81
412.818	187.9
413.026	179.71
413.234	108.03
413.443	81.41
413.651	22.02
413.86	112.13
414.068	44.54
414.276	200.19
414.485	69.12
414.693	278.01
414.901	202.24
415.11	69.12
415.318	99.84
415.526	89.6
415.734	62.98
415.943	126.46
416.151	228.86
416.359	13.82
416.567	103.93
416.776	163.33
416.984	103.93
417.192	142.85
417.4	99.84
417.608	24.06
417.817	5.63
418.025	85.5
418.233	249.34
418.441	75.26
418.649	48.64
418.857	91.65
419.065	120.32
419.273	-53.76
419.481	146.94
419.689	73.21
419.897	-2.56
420.105	15.87
420.313	185.85
420.521	169.47
420.729	118.27
420.937	50.69
421.145	-6.66
421.353	171.52
421.561	157.18
421.769	118.27
421.977	52.74
422.185	108.03
422.393	118.27
422.601	167.42
422.809	144.89
423.017	101.89
423.224	105.98
423.432	153.09
423.64	128.51
423.848	91.65
424.056	13.82
424.263	71.17
424.471	60.93
424.679	146.94
424.887	44.54
425.094	148.99
425.302	148.99
425.51	192
425.718	257.53
425.925	138.75
426.133	65.02
426.341	206.33
426.548	77.31
426.756	-2.56
426.964	183.81
427.171	122.37
427.379	148.99
427.586	71.17
427.794	112.13
428.001	108.03
428.209	120.32
428.417	192
428.624	216.57
428.832	163.33
429.039	116.22
429.247	171.52
429.454	220.67
429.662	294.4
429.869	134.65
430.076	179.71
430.284	136.7
430.491	167.42
430.699	114.17
430.906	228.86
431.114	179.71
431.321	132.61
431.528	134.65
431.736	187.9
431.943	232.96
432.15	148.99
432.358	189.95
432.565	265.72
432.772	142.85
432.979	286.2
433.187	232.96
433.394	288.25
433.601	192
433.808	298.49
434.016	224.76
434.223	259.58
434.43	239.1
434.637	329.21
434.844	318.97
435.052	294.4
435.259	335.35
435.466	431.61
435.673	372.22
435.88	241.15
436.087	400.89
436.294	417.27
436.501	398.84
436.708	429.56
436.915	368.12
437.122	384.51
437.329	331.26
437.537	368.12
437.743	400.89
437.95	531.96
438.157	335.35
438.364	447.99
438.571	445.95
438.778	511.48
438.985	503.29
439.192	570.87
439.399	447.99
439.606	484.86
439.813	663.03
440.02	712.18
440.227	718.33
440.433	681.46
440.64	675.32
440.847	591.35
441.054	665.08
441.261	740.85
441.467	691.7
441.674	765.43
441.881	792.05
442.088	806.39
442.294	925.17
442.501	992.75
442.708	968.18
442.914	1027.57
443.121	962.03
443.328	996.85
443.534	1187.31
443.741	1154.54
443.948	1031.66
444.154	1246.7
444.361	1359.34
444.568	1361.39
444.774	1330.67
444.981	1256.94
445.187	1435.11
445.394	1461.74
445.6	1375.72
445.807	1629.67
446.013	1523.18
446.22	1547.75
446.426	1805.8
446.633	1906.15
446.839	2026.98
447.046	1842.66
447.252	1983.97
447.459	2018.79
447.665	2002.4
447.871	2080.22
448.078	2387.42
448.284	2346.46
448.491	2473.43
448.697	2518.49
448.903	2573.78
449.11	2737.62
449.316	2696.66
449.522	2993.62
449.728	2936.28
449.935	3145.17
450.141	3085.78
450.347	3276.24
450.553	3280.33
450.76	3319.25
450.966	3669.45
451.172	3741.13
451.378	3816.9
451.584	3904.96
451.791	4191.68
451.997	4378.05
452.203	4386.24
452.409	4777.4
452.615	4791.73
452.821	4707.77
453.027	4795.83
453.233	5299.63
453.44	5238.19
453.646	5604.78
453.852	5713.32
454.058	5932.45
454.264	6202.79
454.47	6636.95
454.676	6485.41
454.882	7089.56
455.088	6753.69
455.294	7198.1
455.5	7642.51
455.705	8220.03
455.911	8164.74
456.117	8387.97
456.323	8531.33
456.529	8506.75
456.735	9483.63
456.941	9459.06
457.147	10024.3
457.352	10247.52
457.558	10401.12
457.764	11240.79
457.97	11730.25
458.176	11902.28
458.381	12547.39
458.587	12973.37
458.793	13471.03
458.999	13428.02
459.204	15037.72
459.41	15582.48
459.616	15379.73
459.821	16192.78
460.027	17016.06
460.233	17745.14
460.438	17722.61
460.644	18638.05
460.85	19004.64
461.055	19737.81
461.261	20812.99
461.466	20356.3
461.672	20640.97
461.878	23192.73
462.083	23002.27
462.289	23483.55
462.494	24597.64
462.7	24853.64
462.905	25060.48
463.111	27182.18
463.316	28228.69
463.522	28525.64
463.727	29774.91
463.932	30807.08
464.138	32078.87
464.343	33475.59
464.549	33102.85
464.754	35599.33
464.959	36496.34
465.165	36916.17
465.37	36756.43
465.575	36707.28
465.781	39541.67
465.986	40549.27
466.191	39760.8
466.397	40203.16
466.602	39476.13
466.807	41298.83
467.012	42224.51
467.218	42515.32
467.423	43021.17
467.628	44053.34
467.833	46437.18
468.038	45384.52
468.244	44929.87
468.449	47047.47
468.654	46281.53
468.859	46379.84
469.064	46095.17
469.269	44684.12
469.474	45167.44
469.679	46727.99
469.885	45228.88
470.09	46132.03
470.295	45863.75
470.5	44972.88
470.705	45081.42
470.91	43875.17
471.115	43477.86
471.32	44577.62
471.525	43963.23
471.73	42673.01
471.935	42009.47
472.139	41237.39
472.344	41159.56
472.549	40883.09
472.754	40297.37
472.959	39316.39
473.164	37934.01
473.369	37204.94
473.574	38495.16
473.778	37833.66
473.983	37237.7
474.188	36336.6
474.393	34821.1
474.598	34366.45
474.802	33743.87
475.007	33494.02
475.212	32959.5
475.417	31609.89
475.621	31597.6
475.826	31183.91
476.031	30448.69
476.235	29815.87
476.44	29692.99
476.645	28965.96
476.849	28744.78
477.054	28236.88
477.259	27888.73
477.463	27753.56
477.668	27036.77
477.872	26969.19
478.077	26334.32
478.282	25459.84
478.486	25197.7
478.691	24935.56
478.895	24624.26
479.1	24286.35
479.304	24624.26
479.509	23544.98
479.713	24018.07
479.918	23344.28
480.122	23119.01
480.326	23547.03
480.531	23121.06
480.735	22760.61
480.94	22580.39
481.144	23237.79
481.348	22009.01
481.553	22258.86
481.757	21570.74
481.961	21980.34
482.166	21931.19
482.37	21515.45
482.574	20776.13
482.778	21103.81
482.983	21660.85
483.187	20880.58
483.391	20880.58
483.595	20470.98
483.8	20552.9
484.004	20337.87
484.208	20229.32
484.412	20028.62
484.616	19842.26
484.821	19578.07
485.025	19160.28
485.229	19383.51
485.433	18556.13
485.637	18984.16
485.841	18388.2
486.045	18046.19
486.249	18076.91
486.453	17526
486.657	17675.51
486.861	17218.81
487.065	16579.84
487.269	16688.39
487.473	15977.74
487.677	16475.4
487.881	16180.49
488.085	15871.25
488.289	15551.76
488.493	15271.19
488.697	15260.95
488.901	14986.52
489.105	14380.32
489.309	14325.03
489.512	14032.17
489.716	13747.5
489.92	13571.38
490.124	13223.22
490.328	13315.38
490.531	12584.26
490.735	12787
490.939	12471.62
491.143	12459.33
491.346	12285.25
491.55	11908.43
491.754	11763.02
491.958	11758.92
492.161	11468.11
492.365	11320.66
492.569	11175.25
492.772	10876.25
492.976	10909.02
493.18	10831.19
493.383	10638.69
493.587	10403.17
493.79	10485.09
493.994	10190.18
494.197	10145.13
494.401	10276.2
494.605	9878.89
494.808	10052.97
495.012	9913.7
495.215	9786.73
495.419	10030.44
495.622	9713
495.825	9831.79
496.029	9504.11
496.232	9950.57
496.436	9637.23
496.639	9940.33
496.843	9461.1
497.046	9864.55
497.249	9813.35
497.453	9696.62
497.656	9702.76
497.859	9842.03
498.063	9641.32
498.266	9837.93
498.469	9842.03
498.673	9653.61
498.876	10046.82
499.079	9956.71
499.282	9784.68
499.485	10509.66
499.689	10349.92
499.892	10284.39
500.095	10169.7
500.298	10784.09
500.501	10487.14
500.705	10648.93
500.908	10749.28
501.111	10906.97
501.314	11173.21
501.517	11322.71
501.72	11234.64
501.923	11351.38
502.126	11533.65
502.329	11779.4
502.532	11636.05
502.735	11799.88
502.938	12199.24
503.141	12203.33
503.344	12422.47
503.547	12666.17
503.75	12635.46
503.953	12787
504.156	13077.82
504.359	13305.14
504.562	13485.36
504.765	13782.32
504.968	14216.49
505.17	14105.9
505.373	14361.89
505.576	14882.08
505.779	14830.88
505.982	15047.96
506.185	15709.46
506.387	15684.88
506.59	15852.81
506.793	16329.99
506.996	16532.74
507.198	17126.65
507.401	17073.4
507.604	17691.89
507.807	18066.67
508.009	18283.75
508.212	18826.46
508.415	19084.51
508.617	19363.03
508.82	19948.75
509.022	19809.49
509.225	20841.67
509.428	21046.46
509.63	21367.99
509.833	21810.36
510.035	22676.65
510.238	22971.55
510.44	23577.75
510.643	24308.88
510.845	24517.77
511.048	24777.86
511.25	25609.34
511.453	26014.84
511.655	27583.58
511.858	27456.61
512.06	27858.01
512.262	28652.62
512.465	29082.69
512.667	29856.82
512.87	30350.38
513.072	31085.61
513.274	32031.77
513.477	32707.6
513.679	33395.71
513.881	34085.88
514.084	34788.33
514.286	35109.86
514.488	36000.73
514.69	37723.07
514.893	38192.06
515.095	38681.52
515.297	39525.28
515.499	40100.76
515.701	41010.06
515.904	41937.79
516.106	42894.19
516.308	43817.83
516.51	44391.26
516.712	44993.36
516.914	46289.73
517.116	47272.75
517.318	47457.07
517.52	48157.47
517.722	48546.59
517.925	50320.13
518.127	51614.44
518.329	51823.34
518.531	51950.31
518.733	53615.31
518.935	54424.26
519.136	55132.85
519.338	55743.15
519.54	56912.54
519.742	57537.17
519.944	57692.82
520.146	59183.74
520.348	59908.72
520.55	60465.77
520.752	60650.08
520.954	62151.24
521.155	61960.78
521.357	62978.62
521.559	63377.98
521.761	63930.93
521.963	63930.93
522.164	63930.93
522.366	63930.93
522.568	63930.93
522.77	63930.93
522.971	63930.93
523.173	63930.93
523.375	63930.93
523.576	63930.93
523.778	63930.93
523.98	63930.93
524.181	63930.93
524.383	63930.93
524.584	63930.93
524.786	63930.93
524.988	63930.93
525.189	63930.93
525.391	63930.93
525.592	63930.93
525.794	63930.93
525.995	63930.93
526.197	63930.93
526.398	63930.93
526.6	63930.93
526.801	63930.93
527.003	63930.93
527.204	63930.93
527.406	63930.93
527.607	63930.93
527.808	63930.93
528.01	63930.93
528.211	63930.93
528.412	63930.93
528.614	63930.93
528.815	63930.93
529.016	63930.93
529.218	63930.93
529.419	63930.93
529.62	63930.93
529.822	63930.93
530.023	63930.93
530.224	63930.93
530.425	63312.44
530.626	62263.88
530.828	61444.69
531.029	62278.22
531.23	60840.54
531.431	59863.66
531.632	59896.43
531.833	58970.75
532.035	58552.96
532.236	57619.09
532.437	57504.4
532.638	56242.85
532.839	56083.11
533.04	55421.62
533.241	54379.2
533.442	54723.26
533.643	53537.49
533.844	52640.48
534.045	52437.73
534.246	51012.34
534.447	50754.3
534.648	50543.36
534.849	49443.6
535.05	48501.53
535.251	48255.78
535.451	47414.06
535.652	47135.54
535.853	46588.73
536.054	45871.94
536.255	45359.95
536.456	44344.16
536.657	44254.04
536.857	43553.64
537.058	42918.77
537.259	42797.94
537.46	42052.48
537.66	40835.98
537.861	41063.31
538.062	40027.04
538.263	39848.86
538.463	38966.19
538.664	38785.97
538.865	38517.68
539.065	38157.24
539.266	37641.15
539.466	37448.64
539.667	36545.49
539.868	36555.73
540.068	36127.7
540.269	35470.31
540.469	35152.87
540.67	34579.44
540.87	34237.43
541.071	34036.73
541.271	33485.83
541.472	33235.97
541.672	32435.22
541.873	32187.41
542.073	31609.89
542.274	31665.18
542.474	31415.33
542.675	30790.7
542.875	30837.8
543.075	30317.62
543.276	29490.24
543.476	29770.81
543.676	29113.41
543.877	28988.49
544.077	28937.29
544.277	28210.26
544.478	28193.87
544.678	28191.83
544.878	27679.83
545.078	27206.75
545.279	27069.54
545.479	26315.89
545.679	26367.09
545.879	25879.67
546.079	25912.44
546.28	25482.36
546.48	24829.06
546.68	24986.75
546.88	24442
547.08	24333.45
547.28	24122.51
547.48	23409.82
547.68	23600.28
547.88	23174.3
548.081	22832.29
548.281	22281.39
548.481	21966
548.681	22176.94
548.881	21638.33
549.081	21370.04
549.28	21279.93
549.48	20798.66
549.68	20522.18
549.88	20649.16
550.08	19840.21
550.28	19827.92
550.48	19737.81
550.68	19565.78
550.88	18906.34
551.08	18660.58
551.279	18586.85
551.479	18164.97
551.679	17960.17
551.879	17972.46
552.079	17706.23
552.278	17372.41
552.478	17140.99
552.678	16829.7
552.878	16774.4
553.077	16293.13
553.277	16006.41
553.477	16035.08
553.676	15648.02
553.876	15283.48
554.076	15293.72
554.275	15154.46
554.475	14615.84
554.674	14587.17
554.874	14173.48
555.074	13731.12
555.273	13776.17
555.473	13534.51
555.672	13235.51
555.872	13188.41
556.071	13077.82
556.271	12946.75
556.47	12449.09
556.67	11873.61
556.869	12094.79
557.068	12062.02
557.268	11664.72
557.467	11646.29
557.667	11502.93
557.866	11308.37
558.065	10884.44
558.265	10915.16
558.464	10706.27
558.663	10605.92
558.863	10036.58
559.062	10108.26
559.261	10104.17
559.461	10067.3
559.66	9631.09
559.859	9600.37
560.058	9289.07
560.258	9182.58
560.457	9194.87
560.656	9022.84
560.855	8633.72
561.054	8895.86
561.253	8478.08
561.453	8598.91
561.652	8242.56
561.851	8371.58
562.05	7972.23
562.249	7982.47
562.448	8037.77
562.647	7849.35
562.846	7564.68
563.045	7599.5
563.244	7413.13
563.443	7513.49
563.642	7288.21
563.841	7105.94
564.04	6972.82
564.239	7058.84
564.438	6843.8
564.637	6696.35
564.836	6663.58
565.035	6471.07
565.234	6368.67
565.432	6389.15
565.631	6340
565.83	6147.49
566.029	6110.63
566.228	5965.22
566.427	6088.1
566.625	5799.34
566.824	5604.78
567.023	5799.34
567.222	5557.68
567.42	5520.81
567.619	5578.15
567.818	5326.25
568.016	5494.19
568.215	5309.87
568.414	5180.85
568.612	5199.28
568.811	5055.92
569.01	4865.46
569.208	4691.38
569.407	4971.96
569.605	4662.71
569.804	4613.56
570.002	4617.66
570.201	4474.3
570.4	4535.74
570.598	4419
570.797	4394.43
570.995	4257.22
571.193	4386.24
571.392	4064.71
571.59	4091.33
571.789	4144.58
571.987	4099.52
572.186	4099.52
572.384	3843.53
572.582	3935.68
572.781	3808.71
572.979	3667.4
573.177	3657.16
573.376	3714.5
573.574	3734.98
573.772	3472.84
573.971	3476.94
574.169	3370.44
574.367	3319.25
574.565	3245.52
574.763	3182.03
574.962	3100.11
575.16	3128.78
575.358	3112.4
575.556	3032.53
575.754	3122.64
575.952	2958.8
576.151	2940.37
576.349	2864.6
576.547	2809.3
576.745	2665.94
576.943	2813.4
577.141	2604.5
577.339	2608.6
577.537	2653.66
577.735	2641.37
577.933	2510.3
578.131	2463.19
578.329	2641.37
578.527	2475.48
578.725	2487.77
578.923	2387.42
579.121	2297.31
579.319	2199.01
579.516	2297.31
579.714	2391.52
579.912	2205.15
580.11	2174.43
580.308	2055.65
580.506	1998.31
580.704	1969.63
580.901	2067.94
581.099	2104.8
581.297	2002.4
581.495	1945.06
581.692	1879.52
581.89	1945.06
582.088	1973.73
582.285	1934.82
582.483	1818.08
582.681	1830.37
582.878	1723.88
583.076	1660.39
583.274	1828.32
583.471	1811.94
583.669	1576.42
583.866	1641.96
584.064	1676.77
584.262	1478.12
584.459	1656.29
584.657	1621.48
584.854	1590.76
585.052	1469.93
585.249	1535.46
585.447	1486.31
585.644	1482.22
585.841	1433.07
586.039	1557.99
586.236	1496.55
586.434	1330.67
586.631	1273.32
586.828	1273.32
587.026	1338.86
587.223	1215.98
587.42	1275.37
587.618	1302
587.815	1461.74
588.012	1197.55
588.21	1148.4
588.407	1306.09
588.604	1220.08
588.801	1125.87
588.999	1140.21
589.196	1299.95
589.393	1207.79
589.59	1293.8
589.787	1172.97
589.984	1193.45
590.182	1125.87
590.379	970.23
590.576	1154.54
590.773	1062.38
590.97	982.51
591.167	1062.38
591.364	1103.34
591.561	1043.95
591.758	1091.06
591.955	1101.3
592.152	1064.43
592.349	1023.47
592.546	1080.82
592.743	1011.18
592.94	1035.76
593.137	1117.68
593.334	1002.99
593.531	1011.18
593.727	1060.34
593.924	1103.34
594.121	1023.47
594.318	1134.06
594.515	1002.99
594.712	1172.97
594.908	1248.75
595.105	1019.38
595.302	1033.71
595.499	1107.44
595.696	1248.75
595.892	1195.5
596.089	1201.65
596.286	1177.07
596.482	1256.94
596.679	1306.09
596.876	1244.65
597.072	1324.52
597.269	1306.09
597.466	1373.68
597.662	1295.85
597.859	1371.63
598.055	1406.44
598.252	1500.65
598.448	1521.13
598.645	1678.82
598.841	1779.17
599.038	1691.11
599.234	1852.9
599.431	1986.02
599.627	1953.25
599.824	2076.13
600.02	2035.17
600.217	2162.14
600.413	2231.77
600.609	2368.99
600.806	2590.17
601.002	2461.15
601.198	2444.76
601.395	2633.18
601.591	2725.33
601.787	2909.65
601.984	2883.03
602.18	3104.21
602.376	3182.03
602.572	3399.12
602.769	3452.36
602.965	3435.98
603.161	3636.68
603.357	3659.21
603.553	4072.9
603.75	3952.07
603.946	4044.23
604.142	4285.89
604.338	4462.01
604.534	4443.58
604.73	4844.98
604.926	4785.59
605.122	4849.08
605.318	4984.24
605.514	5238.19
605.71	5307.82
605.906	5672.36
606.102	5752.23
606.298	6018.47
606.494	6221.22
606.69	6374.81
606.886	6229.41
607.082	6475.17
607.278	6981.01
607.474	7073.17
607.67	7101.84
607.866	7216.53
608.062	7808.39
608.257	7978.37
608.453	7990.66
608.649	8435.07
608.845	8490.37
609.041	8664.44
609.236	9006.45
609.432	9192.82
609.628	9530.73
609.824	9893.23
610.019	9932.14
610.215	10108.26
610.411	10898.78
610.606	10818.91
610.802	11134.29
610.998	11257.17
611.193	11844.94
611.389	11758.92
611.584	12309.83
611.78	12807.48
611.976	12954.94
612.171	13356.34
612.367	13546.8
612.562	13905.2
612.758	14234.92
612.953	14456.1
613.149	15111.45
613.344	15527.19
613.539	16026.89
613.735	16243.98
613.93	16844.03
614.126	17235.19
614.321	17667.31
614.517	18265.32
614.712	18556.13
614.907	18935.01
615.103	19545.3
615.298	19956.94
615.493	20458.7
615.688	20692.16
615.884	21902.51
616.079	21787.83
616.274	22961.31
616.47	23473.31
616.665	24218.77
616.86	24392.84
617.055	25179.26
617.25	25554.04
617.445	26506.35
617.641	26637.42
617.836	27573.34
618.031	27819.1
618.226	29019.21
618.421	29402.18
618.616	30231.6
618.811	30506.03
619.006	31763.48
619.201	31669.28
619.396	33270.79
619.591	33342.47
619.786	34554.86
619.981	34620.4
620.176	35765.21
620.371	36150.23
620.566	37082.06
620.761	37913.53
620.956	39304.1
621.151	39336.87
621.346	40524.69
621.541	40395.67
621.735	42193.79
621.93	42386.3
622.125	43422.57
622.32	43764.58
622.515	44831.57
622.709	45589.32
622.904	46074.69
623.099	46582.59
623.294	48358.17
623.488	48411.42
623.683	49232.66
623.878	49646.35
624.072	50905.85
624.267	51524.33
624.462	52128.48
624.656	52982.49
624.851	53936.84
625.046	54446.79
625.24	54850.24
625.435	55481.01
625.629	56591.01
625.824	56791.71
626.018	58061.45
626.213	57848.46
626.407	59142.78
626.602	58983.04
626.796	60211.82
626.991	60670.56
627.185	60826.21
627.38	61084.25
627.574	61151.83
627.768	61452.89
627.963	61893.2
628.157	61692.5
628.352	62650.95
628.546	62018.13
628.74	62542.41
628.935	62263.88
629.129	62739.01
629.323	61846.1
629.517	61657.68
629.712	61411.93
629.906	61016.67
630.1	60207.72
630.294	59978.35
630.489	58876.54
630.683	58798.72
630.877	57424.53
631.071	56416.93
631.265	56105.64
631.459	54383.3
631.653	53703.37
631.848	52724.44
632.042	51450.61
632.236	50463.49
632.43	49050.39
632.624	47766.31
632.818	46009.15
633.012	44852.05
633.206	43320.17
633.4	42242.94
633.594	40489.88
633.788	39789.47
633.982	38736.82
634.176	37104.59
634.369	35204.07
634.563	34157.56
634.757	32873.48
634.951	31833.11
635.145	30379.06
635.339	29627.45
635.533	28224.59
635.726	27231.33
635.92	25613.43
636.114	25078.91
636.308	23903.38
636.501	23104.67
636.695	22062.26
636.889	20776.13
637.083	19903.7
637.276	19494.1
637.47	18836.7
637.664	18146.54
637.857	17212.67
638.051	16721.15
638.244	15770.9
638.438	15150.36
638.632	14781.73
638.825	13847.85
639.019	13468.98
639.212	12694.85
639.406	12397.89
639.599	11840.84
639.793	11414.87
639.986	10843.48
640.18	10683.74
640.373	10093.93
640.567	9794.92
640.76	9600.37
640.954	8885.62
641.147	8742.27
641.34	8334.72
641.534	7998.85
641.727	7660.94
641.92	7556.49
642.114	7194
642.307	6913.43
642.5	6725.02
642.694	6258.08
642.887	6149.54
643.08	6036.9
643.273	5639.59
643.467	5475.76
643.66	5240.24
643.853	5221.81
644.046	4871.61
644.239	4801.97
644.432	4347.33
644.626	4373.95
644.819	4042.18
645.012	4128.19
645.205	3845.57
645.398	3767.75
645.591	3657.16
645.784	3530.19
645.977	3249.61
646.17	3216.85
646.363	3200.46
646.556	2842.07
646.749	2764.25
646.942	2811.35
647.135	2758.1
647.328	2565.59
647.521	2377.18
647.714	2321.88
647.907	2184.67
648.099	2018.79
648.292	2051.55
648.485	2133.47
648.678	1920.48
648.871	1854.95
649.064	1813.99
649.256	1707.49
649.449	1631.72
649.642	1525.22
649.835	1605.1
650.027	1451.5
650.22	1547.75
650.413	1408.49
650.605	1355.24
650.798	1287.66
650.991	1199.6
651.183	1269.23
651.376	1232.37
651.568	1302
651.761	1125.87
651.954	1134.06
652.146	1048.05
652.339	1117.68
652.531	992.75
652.724	933.36
652.916	929.27
653.109	765.43
653.301	964.08
653.494	990.7
653.686	812.53
653.879	820.72
654.071	792.05
654.263	767.48
654.456	697.85
654.648	796.15
654.84	728.56
655.033	617.97
655.225	775.67
655.417	597.49
655.61	695.8
655.802	642.55
655.994	652.79
656.186	583.16
656.379	611.83
656.571	523.77
656.763	484.86
656.955	585.21
657.148	409.08
657.34	650.74
657.532	478.71
657.724	519.67
657.916	486.9
658.108	517.62
658.3	466.42
658.492	525.82
658.684	374.27
658.876	568.82
659.068	421.37
659.26	323.07
659.452	366.07
659.644	439.8
659.836	507.38
660.028	372.22
660.22	257.53
660.412	421.37
660.604	351.74
660.796	335.35
660.988	388.6
661.18	359.93
661.372	286.2
661.563	376.31
661.755	388.6
661.947	337.4
662.139	310.78
662.331	327.16
662.522	275.96
662.714	318.97
662.906	245.24
663.097	282.11
663.289	294.4
663.481	167.42
663.673	241.15
663.864	216.57
664.056	300.54
664.247	294.4
664.439	232.96
664.631	249.34
664.822	339.45
665.014	278.01
665.205	189.95
665.397	247.29
665.588	314.88
665.78	280.06
665.971	318.97
666.163	243.2
666.354	290.3
666.546	192
666.737	222.72
666.929	241.15
667.12	192
667.311	361.98
667.503	189.95
667.694	171.52
667.885	247.29
668.077	296.44
668.268	204.28
668.459	300.54
668.651	247.29
668.842	261.63
669.033	294.4
669.224	116.22
669.416	421.37
669.607	196.09
669.798	239.1
669.989	286.2
670.18	241.15
670.371	249.34
670.563	239.1
670.754	286.2
670.945	249.34
671.136	273.92
671.327	173.57
671.518	273.92
671.709	392.7
671.9	273.92
672.091	278.01
672.282	296.44
672.473	255.48
672.664	179.71
672.855	269.82
673.046	347.64
673.237	331.26
673.428	267.77
673.619	329.21
673.809	261.63
674	343.55
674.191	198.14
674.382	189.95
674.573	175.61
674.764	273.92
674.954	316.92
675.145	196.09
675.336	171.52
675.527	261.63
675.717	259.58
675.908	230.91
676.099	280.06
676.289	298.49
676.48	155.13
676.671	204.28
676.861	261.63
677.052	361.98
677.243	364.03
677.433	302.59
677.624	374.27
677.814	288.25
678.005	230.91
678.195	400.89
678.386	278.01
678.576	300.54
678.767	245.24
678.957	318.97
679.148	323.07
679.338	421.37
679.529	364.03
679.719	294.4
679.909	355.83
680.1	347.64
680.29	341.5
680.481	251.39
680.671	386.55
680.861	323.07
681.052	245.24
681.242	327.16
681.432	273.92
681.622	454.14
681.813	269.82
682.003	355.83
682.193	339.45
682.383	323.07
682.573	345.59
682.764	396.79
682.954	411.13
683.144	394.75
683.334	402.94
683.524	341.5
683.714	386.55
683.904	368.12
684.094	417.27
684.284	318.97
684.474	466.42
684.664	468.47
684.854	462.33
685.044	437.75
685.234	433.66
685.424	429.56
685.614	355.83
685.804	536.06
685.994	460.28
686.184	347.64
686.374	394.75
686.564	421.37
686.753	443.9
686.943	370.17
687.133	337.4
687.323	400.89
687.513	400.89
687.702	478.71
687.892	419.32
688.082	400.89
688.272	462.33
688.461	540.15
688.651	486.9
688.841	429.56
689.03	443.9
689.22	386.55
689.41	374.27
689.599	413.18
689.789	318.97
689.979	468.47
690.168	374.27
690.358	470.52
690.547	445.95
690.737	534.01
690.926	392.7
691.116	351.74
691.305	386.55
691.495	429.56
691.684	253.44
691.874	361.98
692.063	378.36
692.252	411.13
692.442	466.42
692.631	331.26
692.82	368.12
693.01	470.52
693.199	421.37
693.388	366.07
693.578	339.45
693.767	482.81
693.956	345.59
694.146	413.18
694.335	333.31
694.524	380.41
694.713	404.99
694.902	396.79
695.092	378.36
695.281	437.75
695.47	349.69
695.659	339.45
695.848	417.27
696.037	372.22
696.226	452.09
696.415	339.45
696.604	478.71
696.793	429.56
696.982	335.35
697.171	419.32
697.36	290.3
697.549	396.79
697.738	263.68
697.927	337.4
698.116	294.4
698.305	413.18
698.494	474.62
698.683	347.64
698.872	488.95
699.061	402.94
699.25	378.36
699.438	392.7
699.627	419.32
699.816	536.06
700.005	327.16
700.193	384.51
700.382	382.46
700.571	380.41
700.76	374.27
700.948	355.83
701.137	374.27
701.326	353.79
701.514	327.16
701.703	364.03
701.892	419.32
702.08	509.43
702.269	372.22
702.457	302.59
702.646	368.12
702.834	347.64
703.023	423.42
703.212	409.08
703.4	384.51
703.589	355.83
703.777	364.03
703.965	329.21
704.154	316.92
704.342	241.15
704.531	384.51
704.719	323.07
704.907	355.83
705.096	249.34
705.284	355.83
705.472	370.17
705.661	380.41
705.849	296.44
706.037	470.52
706.226	327.16
706.414	394.75
706.602	378.36
706.79	398.84
706.979	374.27
707.167	404.99
707.355	232.96
707.543	376.31
707.731	247.29
707.919	378.36
708.107	306.68
708.296	314.88
708.484	257.53
708.672	304.64
708.86	394.75
709.048	353.79
709.236	357.88
709.424	419.32
709.612	357.88
709.8	286.2
709.988	398.84
710.176	452.09
710.364	456.19
710.551	370.17
710.739	392.7
710.927	394.75
711.115	321.02
711.303	359.93
711.491	433.66
711.679	384.51
711.866	364.03
712.054	314.88
712.242	386.55
712.43	476.66
712.617	386.55
712.805	425.47
712.993	468.47
713.181	298.49
713.368	402.94
713.556	380.41
713.744	290.3
713.931	519.67
714.119	359.93
714.306	339.45
714.494	361.98
714.682	380.41
714.869	261.63
715.057	331.26
715.244	259.58
715.432	425.47
715.619	364.03
715.807	384.51
715.994	368.12
716.182	310.78
716.369	482.81
716.556	441.85
716.744	216.57
716.931	282.11
717.119	411.13
717.306	370.17
717.493	384.51
717.681	331.26
717.868	417.27
718.055	402.94
718.242	372.22
718.43	411.13
718.617	482.81
718.804	364.03
718.991	495.1
719.179	380.41
719.366	415.23
719.553	482.81
719.74	386.55
719.927	443.9
720.114	435.71
720.301	374.27
720.488	380.41
720.676	312.83
720.863	458.23
721.05	511.48
721.237	509.43
721.424	456.19
721.611	468.47
721.798	321.02
721.985	411.13
722.172	421.37
722.358	400.89
722.545	411.13
722.732	392.7
722.919	437.75
723.106	437.75
723.293	511.48
723.48	372.22
723.667	443.9
723.853	466.42
724.04	409.08
724.227	491
724.414	437.75
724.6	480.76
724.787	425.47
724.974	478.71
725.161	415.23
725.347	353.79
725.534	441.85
725.72	476.66
725.907	409.08
726.094	488.95
726.28	433.66
726.467	429.56
726.653	390.65
726.84	445.95
727.027	568.82
727.213	417.27
727.4	540.15
727.586	447.99
727.773	460.28
727.959	429.56
728.145	421.37
728.332	474.62
728.518	495.1
728.705	482.81
728.891	402.94
729.077	466.42
729.264	429.56
729.45	384.51
729.636	523.77
729.823	409.08
730.009	611.83
730.195	536.06
730.382	499.19
730.568	396.79
730.754	454.14
730.94	396.79
731.126	511.48
731.313	462.33
731.499	470.52
731.685	550.39
731.871	507.38
732.057	523.77
732.243	536.06
732.429	482.81
732.615	556.54
732.801	566.78
732.987	495.1
733.173	458.23
733.359	558.58
733.545	470.52
733.731	470.52
733.917	544.25
734.103	501.24
734.289	521.72
734.475	390.65
734.661	615.93
734.847	472.57
735.033	523.77
735.219	511.48
735.404	411.13
735.59	462.33
735.776	538.1
735.962	495.1
736.148	554.49
736.333	503.29
736.519	523.77
736.705	480.76
736.89	574.97
737.076	544.25
737.262	474.62
737.447	423.42
737.633	505.34
737.819	554.49
738.004	486.9
738.19	472.57
738.375	589.3
738.561	503.29
738.747	540.15
738.932	495.1
739.118	601.59
739.303	517.62
739.489	564.73
739.674	499.19
739.859	507.38
740.045	577.02
740.23	511.48
740.416	407.03
740.601	450.04
740.786	531.96
740.972	454.14
741.157	503.29
741.342	464.38
741.528	460.28
741.713	552.44
741.898	452.09
742.084	468.47
742.269	499.19
742.454	484.86
742.639	581.11
742.824	493.05
743.01	564.73
743.195	523.77
743.38	548.34
743.565	474.62
743.75	548.34
743.935	482.81
744.12	617.97
744.305	445.95
744.49	531.96
744.675	433.66
744.86	462.33
745.045	542.2
745.23	495.1
745.415	398.84
745.6	564.73
745.785	421.37
745.97	558.58
746.155	511.48
746.34	521.72
746.525	470.52
746.71	527.86
746.895	361.98
747.079	476.66
747.264	454.14
747.449	511.48
747.634	421.37
747.819	511.48
748.003	474.62
748.188	419.32
748.373	515.58
748.557	480.76
748.742	421.37
748.927	419.32
749.111	421.37
749.296	470.52
749.481	552.44
749.665	478.71
749.85	425.47
750.034	429.56
750.219	503.29
750.404	388.6
750.588	388.6
750.773	388.6
750.957	361.98
751.141	441.85
751.326	474.62
751.51	368.12
751.695	359.93
751.879	306.68
752.064	499.19
752.248	384.51
752.432	521.72
752.617	443.9
752.801	507.38
752.985	335.35
753.17	429.56
753.354	392.7
753.538	390.65
753.722	292.35
753.907	433.66
754.091	298.49
754.275	380.41
754.459	329.21
754.643	306.68
754.828	400.89
755.012	333.31
755.196	339.45
755.38	355.83
755.564	323.07
755.748	353.79
755.932	339.45
756.116	361.98
756.3	372.22
756.484	339.45
756.668	290.3
756.852	257.53
757.036	284.16
757.22	335.35
757.404	296.44
757.588	288.25
757.772	245.24
757.956	273.92
758.14	445.95
758.323	255.48
758.507	431.61
758.691	337.4
758.875	351.74
759.059	306.68
759.242	192
759.426	337.4
759.61	321.02
759.794	247.29
759.977	339.45
760.161	529.91
760.345	394.75
760.528	306.68
760.712	347.64
760.895	284.16
761.079	316.92
761.263	140.8
761.446	300.54
761.63	257.53
761.813	339.45
761.997	257.53
762.18	222.72
762.364	288.25
762.547	222.72
762.731	212.48
762.914	286.2
763.098	241.15
763.281	198.14
763.464	280.06
763.648	245.24
763.831	146.94
764.015	220.67
764.198	241.15
764.381	265.72
764.564	241.15
764.748	200.19
764.931	241.15
765.114	163.33
765.297	257.53
765.481	146.94
765.664	175.61
765.847	165.37
766.03	355.83
766.213	173.57
766.397	249.34
766.58	198.14
766.763	175.61
766.946	257.53
767.129	214.52
767.312	222.72
767.495	167.42
767.678	175.61
767.861	212.48
768.044	245.24
768.227	169.47
768.41	241.15
768.593	144.89
768.776	175.61
768.959	241.15
769.142	198.14
769.324	187.9
769.507	134.65
769.69	118.27
769.873	204.28
770.056	366.07
770.239	173.57
770.421	302.59
770.604	220.67
770.787	144.89
770.97	153.09
771.152	81.41
771.335	185.85
771.518	52.74
771.7	275.96
771.883	282.11
772.066	97.79
772.248	167.42
772.431	288.25
772.613	257.53
772.796	179.71
772.978	194.05
773.161	232.96
773.343	159.23
773.526	118.27
773.708	48.64
773.891	69.12
774.073	196.09
774.256	165.37
774.438	310.78
774.621	142.85
774.803	284.16
774.985	183.81
775.168	142.85
775.35	83.45
775.532	253.44
775.715	151.04
775.897	161.28
776.079	110.08
776.261	89.6
776.444	169.47
776.626	134.65
776.808	175.61
776.99	30.21
777.173	155.13
777.355	71.17
777.537	110.08
777.719	91.65
777.901	118.27
778.083	69.12
778.265	93.69
778.447	148.99
778.629	97.79
778.811	97.79
778.993	142.85
779.175	136.7
779.357	167.42
779.539	173.57
779.721	206.33
779.903	151.04
780.085	171.52
780.267	108.03
780.449	108.03
780.631	167.42
780.812	237.05
780.994	138.75
781.176	81.41
781.358	97.79
781.54	19.97
781.721	175.61
781.903	151.04
782.085	144.89
782.267	146.94
782.448	87.55
782.63	126.46
782.812	91.65
782.993	165.37
783.175	155.13
783.357	101.89
783.538	179.71
783.72	108.03
783.901	108.03
784.083	93.69
784.264	134.65
784.446	-10.75
784.627	85.5
784.809	179.71
784.99	108.03
785.172	108.03
785.353	58.88
785.535	99.84
785.716	91.65
785.897	65.02
786.079	52.74
786.26	167.42
786.441	105.98
786.623	56.83
786.804	75.26
786.985	134.65
787.167	120.32
787.348	146.94
787.529	93.69
787.71	187.9
787.891	171.52
788.073	69.12
788.254	-0.51
788.435	198.14
788.616	56.83
788.797	-0.51
788.978	103.93
789.159	9.73
789.34	138.75
789.522	99.84
789.703	-25.09
789.884	99.84
790.065	140.8
790.246	155.13
790.427	67.07
790.607	183.81
790.788	206.33
790.969	-14.85
791.15	134.65
791.331	58.88
791.512	22.02
791.693	77.31
791.874	75.26
792.054	232.96
792.235	130.56
792.416	-25.09
792.597	103.93
792.778	142.85
792.958	140.8
793.139	93.69
793.32	65.02
793.5	105.98
793.681	159.23
793.862	75.26
794.042	97.79
794.223	-45.57
794.404	32.26
794.584	-16.9
794.765	28.16
794.945	110.08
795.126	85.5
795.306	87.55
795.487	-12.8
795.667	40.45
795.848	110.08
796.028	32.26
796.209	28.16
796.389	99.84
796.57	7.68
796.75	22.02
796.93	-25.09
797.111	30.21
797.291	40.45
797.471	52.74
797.652	46.59
797.832	38.4
798.012	159.23
798.192	-0.51
798.373	-55.81
798.553	42.5
798.733	93.69
798.913	-12.8
799.093	13.82
799.274	5.63
799.454	95.74
799.634	52.74
799.814	73.21
799.994	99.84
800.174	103.93
800.354	11.78
800.534	-43.52
800.714	99.84
800.894	52.74
801.074	-10.75
801.254	24.06
801.434	142.85
801.614	134.65
801.794	19.97
801.974	1265.13
802.154	40.45
802.334	108.03
802.514	7.68
802.693	67.07
802.873	15.87
803.053	134.65
803.233	97.79
803.413	30.21
803.592	60.93
803.772	1.54
803.952	52.74
804.131	-23.04
804.311	44.54
804.491	171.52
804.67	19.97
804.85	-57.86
805.03	44.54
805.209	132.61
805.389	34.3
805.568	9.73
805.748	73.21
805.928	-37.38
806.107	108.03
806.287	28.16
806.466	130.56
806.646	44.54
806.825	60.93
807.004	36.35
807.184	157.18
807.363	95.74
807.543	3.58
807.722	5.63
807.901	132.61
808.081	48.64
808.26	-70.14
808.439	120.32
808.619	110.08
808.798	-18.94
808.977	36.35
809.156	148.99
809.336	24.06
809.515	103.93
809.694	-16.9
809.873	-12.8
810.052	91.65
810.231	153.09
810.411	28.16
810.59	83.45
810.769	87.55
810.948	48.64
811.127	-82.43
811.306	30.21
811.485	26.11
811.664	159.23
811.843	56.83
812.022	60.93
812.201	-2.56
812.38	44.54
812.559	69.12
812.737	81.41
812.916	-16.9
813.095	19.97
813.274	58.88
813.453	73.21
813.632	93.69
813.811	128.51
813.989	-18.94
814.168	15.87
814.347	-45.57
814.526	56.83
814.704	192
814.883	99.84
815.062	-49.66
815.24	130.56
815.419	-86.53
815.598	83.45
815.776	-47.62
815.955	36.35
816.133	3.58
816.312	81.41
816.49	34.3
816.669	7.68
816.847	-12.8
817.026	9.73
817.204	44.54
817.383	52.74
817.561	-37.38
817.74	138.75
817.918	19.97
818.097	-8.7
818.275	-0.51
818.453	69.12
818.632	60.93
818.81	-20.99
818.988	32.26
819.167	93.69
819.345	91.65
819.523	-0.51
819.701	1.54
819.879	-23.04
820.058	79.36
820.236	62.98
820.414	9.73
820.592	17.92
820.77	-12.8
820.948	-20.99
821.127	3.58
821.305	91.65
821.483	-37.38
821.661	122.37
821.839	89.6
822.017	-35.33
822.195	-47.62
822.373	110.08
822.551	75.26
822.729	93.69
822.907	-10.75
823.085	44.54
823.262	11.78
823.44	-55.81
823.618	69.12
823.796	44.54
823.974	56.83
824.152	28.16
824.329	52.74
824.507	58.88
824.685	17.92
824.863	-2.56
825.04	75.26
825.218	114.17
825.396	24.06
825.574	26.11
825.751	-10.75
825.929	34.3
826.107	-57.86
826.284	15.87
826.462	9.73
826.639	-68.09
826.817	-55.81
826.994	42.5
827.172	-45.57
827.349	148.99
827.527	99.84
827.704	69.12
827.882	108.03
828.059	3.58
828.237	44.54
828.414	71.17
828.591	-41.47
828.769	60.93
828.946	69.12
829.124	85.5
829.301	140.8
829.478	-6.66
829.655	3.58
829.833	9.73
830.01	-131.58
830.187	101.89
830.364	19.97
830.542	40.45
830.719	62.98
830.896	30.21
831.073	69.12
831.25	85.5
831.427	89.6
831.604	-37.38
831.782	-12.8
831.959	58.88
832.136	36.35
832.313	65.02
832.49	-31.23
832.667	124.41
832.844	3.58
833.021	40.45
833.198	54.78
833.374	110.08
833.551	114.17
833.728	32.26
833.905	73.21
834.082	-102.91
834.259	40.45
834.436	85.5
834.612	3.58
834.789	44.54
834.966	50.69
835.143	40.45
835.319	-37.38
835.496	120.32
835.673	69.12
835.85	52.74
836.026	32.26
836.203	114.17
836.38	11.78
836.556	-45.57
836.733	-25.09
836.909	91.65
837.086	48.64
837.262	-33.28
837.439	52.74
837.616	-70.14
837.792	-25.09
837.968	46.59
838.145	-51.71
838.321	58.88
838.498	126.46
838.674	120.32
838.851	67.07
839.027	1.54
839.203	56.83
839.38	69.12
839.556	40.45
839.732	118.27
839.909	32.26
840.085	36.35
840.261	-23.04
840.437	30.21
840.614	-20.99
840.79	52.74
840.966	130.56
841.142	48.64
841.318	-37.38
841.494	81.41
841.671	46.59
841.847	50.69
842.023	19.97
842.199	-16.9
842.375	116.22
842.551	-90.62
842.727	3.58
842.903	134.65
843.079	-8.7
843.255	159.23
843.431	-27.14
843.607	167.42
843.783	-98.81
843.959	-10.75
844.134	-70.14
844.31	153.09
844.486	44.54
844.662	-76.29
844.838	-0.51
845.013	130.56
845.189	91.65
845.365	28.16
845.541	-45.57
845.716	26.11
845.892	75.26
846.068	-76.29
846.244	-41.47
846.419	30.21
846.595	-33.28
846.77	-16.9
846.946	34.3
847.122	-6.66
847.297	-10.75
847.473	159.23
847.648	-70.14
847.824	-23.04
847.999	-61.95
848.175	42.5
848.35	114.17
848.526	118.27
848.701	77.31
848.876	40.45
849.052	155.13
849.227	22.02
849.403	75.26
849.578	58.88
849.753	24.06
849.929	50.69
850.104	-61.95
850.279	-61.95
850.454	26.11
850.63	83.45
850.805	32.26
850.98	50.69
851.155	22.02
851.33	52.74
851.505	1.54
851.681	112.13
851.856	-33.28
852.031	7.68
852.206	36.35
852.381	-78.33
852.556	-25.09
852.731	52.74
852.906	77.31
853.081	93.69
853.256	155.13
853.431	-12.8
853.606	-25.09
853.781	-43.52
853.956	-57.86
854.131	22.02
854.305	3.58
854.48	54.78
854.655	7.68
854.83	-20.99
855.005	-33.28
855.18	122.37
855.354	60.93
855.529	126.46
855.704	89.6
855.879	15.87
856.053	-45.57
856.228	19.97
856.403	-66.05
856.577	32.26
856.752	-53.76
856.926	-57.86
857.101	75.26
857.276	-33.28
857.45	9.73
857.625	130.56
857.799	-6.66
857.974	-14.85
858.148	-121.34
858.323	-16.9
858.497	26.11
858.672	44.54
858.846	-25.09
859.02	73.21
859.195	1.54
859.369	-12.8
859.543	1.54
859.718	-4.61
859.892	11.78
860.066	71.17
860.241	-23.04
860.415	-12.8
860.589	44.54
860.763	-8.7
860.938	-4.61
861.112	67.07
861.286	-66.05
861.46	56.83
861.634	-25.09
861.808	126.46
861.982	-29.18
862.157	36.35
862.331	-23.04
862.505	-41.47
862.679	-72.19
862.853	44.54
863.027	-12.8
863.201	73.21
863.375	-4.61
863.549	-45.57
863.722	62.98
863.896	93.69
864.07	-20.99
864.244	-0.51
864.418	71.17
864.592	81.41
864.766	13.82
864.939	-23.04
865.113	73.21
865.287	62.98
865.461	-33.28
865.634	13.82
865.808	-25.09
865.982	-49.66
866.156	-45.57
866.329	-16.9
866.503	26.11
866.676	36.35
866.85	44.54
867.024	11.78
867.197	112.13
867.371	28.16
867.544	89.6
867.718	-90.62
867.891	134.65
868.065	-2.56
868.238	40.45
868.412	81.41
868.585	60.93
868.759	-61.95
868.932	9.73
869.105	-80.38
869.279	7.68
869.452	-74.24
869.625	48.64
869.799	-39.42
869.972	-25.09
870.145	-4.61
870.319	11.78
870.492	-76.29
870.665	-33.28
870.838	24.06
871.011	-80.38
871.185	-70.14
871.358	-8.7
871.531	85.5
871.704	-20.99
871.877	-0.51
872.05	-8.7
872.223	-78.33
872.396	97.79
872.569	28.16
872.742	-6.66
872.915	71.17
873.088	1.54
873.261	-61.95
873.434	73.21
873.607	22.02
873.78	105.98
873.953	-55.81
874.126	-35.33
874.299	83.45
874.471	-16.9
874.644	-10.75
874.817	-20.99
874.99	93.69
875.163	7.68
875.335	-20.99
875.508	95.74
875.681	81.41
875.853	-6.66
876.026	7.68
876.199	40.45
876.371	-12.8
876.544	5.63
876.717	3.58
876.889	52.74
877.062	67.07
877.234	46.59
877.407	-20.99
877.579	52.74
877.752	3.58
877.924	19.97
878.097	44.54
878.269	19.97
878.442	-10.75
878.614	-23.04
878.786	28.16
878.959	91.65
879.131	73.21
879.303	-72.19
879.476	40.45
879.648	-16.9
879.82	-20.99
879.993	-53.76
880.165	11.78
880.337	-61.95
880.509	60.93
880.681	-96.77
880.854	-20.99
881.026	30.21
881.198	151.04
881.37	34.3
881.542	52.74
881.714	-29.18
881.886	-4.61
882.058	60.93
882.23	-53.76
882.402	-25.09
882.574	-6.66
882.746	69.12
882.918	93.69
883.09	15.87
883.262	34.3
883.434	17.92
883.606	-57.86
883.778	-45.57
883.95	87.55
884.122	71.17
884.293	44.54
884.465	44.54
884.637	60.93
884.809	-72.19
884.98	-8.7
885.152	67.07
885.324	42.5
885.496	13.82
885.667	-41.47
885.839	-25.09
886.011	42.5
886.182	-4.61
886.354	56.83
886.525	3.58
886.697	17.92
886.869	34.3
887.04	-0.51
887.212	108.03
887.383	142.85
887.555	77.31
887.726	15.87
887.897	15.87
888.069	-33.28
888.24	67.07
888.412	-33.28
888.583	7.68
888.754	28.16
888.926	-82.43
889.097	-25.09
889.268	-33.28
889.44	5.63
889.611	-29.18
889.782	-68.09
889.953	-94.72
890.125	159.23
890.296	-8.7
890.467	36.35
890.638	3.58
890.809	-20.99
890.98	-94.72
891.151	44.54
891.323	48.64
891.494	19.97
891.665	-29.18
891.836	11.78
892.007	36.35
892.178	65.02
892.349	-25.09
892.52	-59.9
892.691	34.3
892.862	-70.14
893.032	-78.33
893.203	-61.95
893.374	-0.51
893.545	19.97
893.716	40.45
893.887	73.21
894.057	-0.51
894.228	32.26
894.399	-20.99
894.57	122.37
894.74	-4.61
894.911	44.54
895.082	-29.18
895.253	44.54
895.423	60.93
895.594	73.21
895.764	13.82
895.935	-104.96
896.106	28.16
896.276	-92.67
896.447	-0.51
896.617	-35.33
896.788	-27.14
896.958	-20.99
897.129	-88.57
897.299	-47.62
897.47	91.65
897.64	52.74
897.81	-37.38
897.981	34.3
898.151	24.06
898.322	34.3
898.492	15.87
898.662	-29.18
898.832	-25.09
899.003	-59.9
899.173	19.97
899.343	3.58
899.513	-55.81
