Data from USB4F104151__64__09-29-14-997.txt Node

Date: Wed Feb 26 09:29:14 EST 2025
User: louis
Spectrometer: USB4F10415
Trigger mode: 4
Integration Time (sec): 1.000000E-1
Scans to average: 1
Electric dark correction enabled: true
Nonlinearity correction enabled: false
Boxcar width: 0
XAxis mode: Wavelengths
Number of Pixels in Spectrum: 3648
>>>>>Begin Spectral Data<<<<<
178.204	-342.69
178.424	-342.69
178.644	-342.69
178.864	-361.13
179.084	-334.5
179.304	11.61
179.524	-27.31
179.744	17.75
179.964	15.7
180.184	-31.4
180.404	7.51
180.624	-53.93
180.844	36.18
181.064	-58.03
181.283	46.42
181.503	5.46
181.723	30.04
181.943	25.94
182.163	101.72
182.383	15.7
182.602	60.76
182.822	60.76
183.042	93.52
183.262	-51.88
183.482	-55.98
183.701	34.13
183.921	66.9
184.141	-107.18
184.361	85.33
184.58	7.51
184.8	25.94
185.02	44.37
185.239	85.33
185.459	19.8
185.679	124.24
185.898	-23.21
186.118	5.46
186.338	79.19
186.557	87.38
186.777	-27.31
186.997	38.23
187.216	50.52
187.436	97.62
187.655	68.95
187.875	140.63
188.095	-29.35
188.314	60.76
188.534	89.43
188.753	-37.55
188.973	5.46
189.192	126.29
189.412	42.32
189.631	77.14
189.851	32.08
190.07	126.29
190.29	-37.55
190.509	-33.45
190.729	34.13
190.948	126.29
191.168	306.51
191.387	60.76
191.607	32.08
191.826	17.75
192.045	-29.35
192.265	13.65
192.484	-2.73
192.704	25.94
192.923	17.75
193.142	150.87
193.362	114
193.581	81.24
193.8	44.37
194.02	79.19
194.239	-4.78
194.458	23.89
194.678	42.32
194.897	-82.6
195.116	50.52
195.335	77.14
195.555	114
195.774	-10.92
195.993	32.08
196.212	77.14
196.432	-41.64
196.651	-2.73
196.87	23.89
197.089	263.51
197.308	77.14
197.528	75.09
197.747	-58.03
197.966	3.41
198.185	77.14
198.404	-25.26
198.623	64.85
198.842	101.72
199.062	75.09
199.281	159.06
199.5	85.33
199.719	130.39
199.938	-12.97
200.157	3.41
200.376	56.66
200.595	60.76
200.814	93.52
201.033	-12.97
201.252	93.52
201.471	-68.27
201.69	68.95
201.909	-45.74
202.128	97.62
202.347	87.38
202.566	105.81
202.785	-29.35
203.004	-55.98
203.223	245.07
203.442	75.09
203.661	-29.35
203.879	17.75
204.098	107.86
204.317	-70.31
204.536	93.52
204.755	46.42
204.974	107.86
205.193	11.61
205.411	111.96
205.63	85.33
205.849	5.46
206.068	36.18
206.287	17.75
206.505	142.68
206.724	56.66
206.943	27.99
207.162	46.42
207.381	87.38
207.599	-2.73
207.818	23.89
208.037	-25.26
208.255	3.41
208.474	101.72
208.693	73.04
208.911	-29.35
209.13	73.04
209.349	13.65
209.567	48.47
209.786	118.1
210.005	32.08
210.223	64.85
210.442	-70.31
210.661	46.42
210.879	40.28
211.098	54.61
211.316	50.52
211.535	77.14
211.753	68.95
211.972	11.61
212.191	44.37
212.409	21.85
212.628	68.95
212.846	-23.21
213.065	7.51
213.283	136.53
213.502	-4.78
213.72	25.94
213.938	56.66
214.157	-2.73
214.375	109.91
214.594	-29.35
214.812	116.05
215.031	-19.11
215.249	11.61
215.467	87.38
215.686	58.71
215.904	68.95
216.122	56.66
216.341	77.14
216.559	109.91
216.778	109.91
216.996	48.47
217.214	40.28
217.432	-8.87
217.651	-55.98
217.869	9.56
218.087	7.51
218.306	15.7
218.524	44.37
218.742	-55.98
218.96	224.59
219.179	89.43
219.397	-0.68
219.615	165.2
219.833	85.33
220.051	11.61
220.27	97.62
220.488	89.43
220.706	75.09
220.924	9.56
221.142	15.7
221.36	42.32
221.578	19.8
221.796	-15.02
222.015	81.24
222.233	91.48
222.451	118.1
222.669	-33.45
222.887	157.01
223.105	27.99
223.323	83.28
223.541	-10.92
223.759	38.23
223.977	101.72
224.195	128.34
224.413	93.52
224.631	46.42
224.849	19.8
225.067	177.49
225.285	11.61
225.503	44.37
225.721	-90.79
225.939	46.42
226.157	99.67
226.375	183.63
226.592	-49.83
226.81	-66.22
227.028	73.04
227.246	148.82
227.464	118.1
227.682	58.71
227.9	68.95
228.117	15.7
228.335	54.61
228.553	27.99
228.771	34.13
228.989	5.46
229.206	3.41
229.424	-23.21
229.642	-31.4
229.86	-115.37
230.077	118.1
230.295	120.15
230.513	60.76
230.731	109.91
230.948	146.77
231.166	32.08
231.384	-2.73
231.601	27.99
231.819	171.35
232.037	-12.97
232.254	-45.74
232.472	3.41
232.689	48.47
232.907	111.96
233.125	34.13
233.342	-12.97
233.56	-25.26
233.777	15.7
233.995	-4.78
234.213	5.46
234.43	40.28
234.648	60.76
234.865	73.04
235.083	23.89
235.3	73.04
235.518	50.52
235.735	163.15
235.953	17.75
236.17	25.94
236.388	1.37
236.605	-62.12
236.822	120.15
237.04	126.29
237.257	30.04
237.475	-62.12
237.692	66.9
237.909	64.85
238.127	68.95
238.344	126.29
238.562	52.56
238.779	-45.74
238.996	-19.11
239.214	42.32
239.431	140.63
239.648	9.56
239.865	85.33
240.083	81.24
240.3	60.76
240.517	-0.68
240.735	42.32
240.952	52.56
241.169	87.38
241.386	25.94
241.603	-0.68
241.821	-80.55
242.038	30.04
242.255	120.15
242.472	52.56
242.689	54.61
242.907	71
243.124	-23.21
243.341	7.51
243.558	-37.55
243.775	-49.83
243.992	-72.36
244.209	68.95
244.426	208.21
244.643	52.56
244.86	-4.78
245.078	118.1
245.295	32.08
245.512	9.56
245.729	-33.45
245.946	114
246.163	-0.68
246.38	1.37
246.597	36.18
246.814	60.76
247.031	3.41
247.248	-25.26
247.464	-21.16
247.681	114
247.898	-23.21
248.115	159.06
248.332	23.89
248.549	99.67
248.766	107.86
248.983	46.42
249.2	52.56
249.417	91.48
249.633	40.28
249.85	64.85
250.067	-23.21
250.284	60.76
250.501	64.85
250.717	50.52
250.934	-53.93
251.151	-15.02
251.368	-2.73
251.585	1.37
251.801	116.05
252.018	-94.89
252.235	36.18
252.451	-74.41
252.668	36.18
252.885	150.87
253.102	99.67
253.318	42.32
253.535	-70.31
253.752	-35.5
253.968	19.8
254.185	-64.17
254.401	19.8
254.618	-12.97
254.835	-27.31
255.051	161.11
255.268	52.56
255.484	60.76
255.701	40.28
255.917	13.65
256.134	34.13
256.351	48.47
256.567	44.37
256.784	3.41
257	-43.69
257.217	157.01
257.433	50.52
257.65	89.43
257.866	60.76
258.082	-68.27
258.299	3.41
258.515	52.56
258.732	66.9
258.948	32.08
259.165	52.56
259.381	-80.55
259.597	120.15
259.814	15.7
260.03	32.08
260.246	15.7
260.463	107.86
260.679	175.44
260.895	-8.87
261.112	54.61
261.328	58.71
261.544	-35.5
261.761	159.06
261.977	3.41
262.193	3.41
262.409	58.71
262.626	27.99
262.842	36.18
263.058	-8.87
263.274	130.39
263.49	-17.07
263.707	75.09
263.923	91.48
264.139	-37.55
264.355	-4.78
264.571	77.14
264.787	60.76
265.004	140.63
265.22	60.76
265.436	-10.92
265.652	44.37
265.868	36.18
266.084	-23.21
266.3	68.95
266.516	-66.22
266.732	-27.31
266.948	126.29
267.164	77.14
267.38	97.62
267.596	60.76
267.812	187.73
268.028	11.61
268.244	36.18
268.46	9.56
268.676	54.61
268.892	5.46
269.108	-47.79
269.324	-70.31
269.54	-66.22
269.756	48.47
269.972	-47.79
270.188	7.51
270.403	-19.11
270.619	5.46
270.835	99.67
271.051	3.41
271.267	-31.4
271.483	-12.97
271.698	75.09
271.914	34.13
272.13	52.56
272.346	34.13
272.562	44.37
272.777	116.05
272.993	44.37
273.209	-49.83
273.425	44.37
273.64	-68.27
273.856	19.8
274.072	-58.03
274.287	-0.68
274.503	58.71
274.719	40.28
274.934	13.65
275.15	-123.56
275.366	101.72
275.581	25.94
275.797	-43.69
276.012	32.08
276.228	-29.35
276.444	81.24
276.659	85.33
276.875	-25.26
277.09	93.52
277.306	-23.21
277.521	27.99
277.737	62.8
277.952	60.76
278.168	85.33
278.383	68.95
278.599	124.24
278.814	15.7
279.03	-4.78
279.245	85.33
279.461	101.72
279.676	71
279.892	-58.03
280.107	-55.98
280.322	-23.21
280.538	75.09
280.753	21.85
280.969	17.75
281.184	1.37
281.399	83.28
281.615	58.71
281.83	93.52
282.045	-74.41
282.26	-45.74
282.476	3.41
282.691	118.1
282.906	85.33
283.122	77.14
283.337	15.7
283.552	40.28
283.767	-2.73
283.983	87.38
284.198	42.32
284.413	48.47
284.628	-66.22
284.843	81.24
285.058	81.24
285.274	23.89
285.489	-12.97
285.704	77.14
285.919	75.09
286.134	34.13
286.349	7.51
286.564	52.56
286.779	134.48
286.995	-6.83
287.21	-146.09
287.425	75.09
287.64	27.99
287.855	-8.87
288.07	-101.03
288.285	44.37
288.5	124.24
288.715	62.8
288.93	3.41
289.145	38.23
289.36	34.13
289.575	21.85
289.79	71
290.004	-8.87
290.219	64.85
290.434	25.94
290.649	-31.4
290.864	5.46
291.079	11.61
291.294	109.91
291.509	13.65
291.724	25.94
291.938	-25.26
292.153	109.91
292.368	-66.22
292.583	114
292.798	62.8
293.012	93.52
293.227	60.76
293.442	15.7
293.657	142.68
293.871	118.1
294.086	40.28
294.301	181.59
294.516	30.04
294.73	40.28
294.945	-4.78
295.16	-31.4
295.374	101.72
295.589	60.76
295.804	-2.73
296.018	-45.74
296.233	111.96
296.447	52.56
296.662	27.99
296.877	134.48
297.091	48.47
297.306	3.41
297.52	-70.31
297.735	56.66
297.949	-43.69
298.164	34.13
298.378	38.23
298.593	-25.26
298.807	-17.07
299.022	34.13
299.236	130.39
299.451	52.56
299.665	-19.11
299.88	116.05
300.094	66.9
300.309	15.7
300.523	42.32
300.737	5.46
300.952	66.9
301.166	91.48
301.381	21.85
301.595	-15.02
301.809	-37.55
302.024	-45.74
302.238	-49.83
302.452	134.48
302.667	19.8
302.881	132.44
303.095	11.61
303.309	-29.35
303.524	-8.87
303.738	25.94
303.952	5.46
304.166	109.91
304.381	-88.75
304.595	101.72
304.809	-27.31
305.023	44.37
305.237	-64.17
305.452	-21.16
305.666	23.89
305.88	-0.68
306.094	140.63
306.308	27.99
306.522	60.76
306.736	81.24
306.95	93.52
307.164	19.8
307.379	75.09
307.593	167.25
307.807	99.67
308.021	62.8
308.235	66.9
308.449	-53.93
308.663	7.51
308.877	214.35
309.091	46.42
309.305	73.04
309.519	-17.07
309.733	157.01
309.947	-82.6
310.161	77.14
310.374	3.41
310.588	40.28
310.802	-0.68
311.016	30.04
311.23	32.08
311.444	-15.02
311.658	56.66
311.872	142.68
312.085	44.37
312.299	150.87
312.513	146.77
312.727	50.52
312.941	3.41
313.154	83.28
313.368	50.52
313.582	85.33
313.796	-19.11
314.009	19.8
314.223	87.38
314.437	75.09
314.651	132.44
314.864	40.28
315.078	-41.64
315.292	-96.94
315.505	64.85
315.719	77.14
315.933	58.71
316.146	-33.45
316.36	5.46
316.573	71
316.787	52.56
317.001	91.48
317.214	-39.59
317.428	32.08
317.641	-33.45
317.855	-53.93
318.068	56.66
318.282	30.04
318.495	161.11
318.709	48.47
318.922	77.14
319.136	130.39
319.349	89.43
319.563	9.56
319.776	71
319.99	-21.16
320.203	105.81
320.417	1.37
320.63	103.76
320.843	56.66
321.057	79.19
321.27	25.94
321.483	15.7
321.697	171.35
321.91	7.51
322.124	58.71
322.337	11.61
322.55	-2.73
322.763	25.94
322.977	-31.4
323.19	40.28
323.403	15.7
323.617	68.95
323.83	91.48
324.043	27.99
324.256	27.99
324.469	-17.07
324.683	181.59
324.896	-41.64
325.109	46.42
325.322	-60.07
325.535	91.48
325.748	60.76
325.962	58.71
326.175	48.47
326.388	134.48
326.601	62.8
326.814	13.65
327.027	36.18
327.24	111.96
327.453	-72.36
327.666	40.28
327.879	44.37
328.092	83.28
328.305	3.41
328.518	-64.17
328.731	-21.16
328.944	54.61
329.157	93.52
329.37	-33.45
329.583	171.35
329.796	195.92
330.009	13.65
330.222	91.48
330.435	97.62
330.648	81.24
330.861	11.61
331.073	-10.92
331.286	23.89
331.499	91.48
331.712	-64.17
331.925	73.04
332.138	27.99
332.35	68.95
332.563	38.23
332.776	93.52
332.989	19.8
333.202	3.41
333.414	30.04
333.627	75.09
333.84	-19.11
334.053	50.52
334.265	42.32
334.478	30.04
334.691	38.23
334.903	40.28
335.116	-4.78
335.329	-19.11
335.541	60.76
335.754	159.06
335.966	13.65
336.179	-4.78
336.392	-35.5
336.604	52.56
336.817	44.37
337.029	83.28
337.242	56.66
337.454	15.7
337.667	27.99
337.88	87.38
338.092	7.51
338.305	85.33
338.517	-72.36
338.729	60.76
338.942	99.67
339.154	-90.79
339.367	-64.17
339.579	44.37
339.792	-33.45
340.004	91.48
340.217	-64.17
340.429	-49.83
340.641	-55.98
340.854	32.08
341.066	23.89
341.278	34.13
341.491	146.77
341.703	60.76
341.915	-4.78
342.128	77.14
342.34	-6.83
342.552	-15.02
342.764	60.76
342.977	17.75
343.189	36.18
343.401	73.04
343.613	-21.16
343.826	73.04
344.038	-115.37
344.25	40.28
344.462	-41.64
344.674	71
344.886	11.61
345.099	142.68
345.311	56.66
345.523	7.51
345.735	-70.31
345.947	7.51
346.159	85.33
346.371	-21.16
346.583	105.81
346.795	179.54
347.007	9.56
347.219	95.57
347.431	36.18
347.643	99.67
347.855	58.71
348.067	109.91
348.279	-51.88
348.491	68.95
348.703	83.28
348.915	-43.69
349.127	-53.93
349.339	32.08
349.551	34.13
349.763	128.34
349.975	-31.4
350.187	71
350.399	122.2
350.61	1.37
350.822	73.04
351.034	11.61
351.246	52.56
351.458	9.56
351.669	60.76
351.881	116.05
352.093	89.43
352.305	130.39
352.517	-29.35
352.728	140.63
352.94	44.37
353.152	3.41
353.363	-19.11
353.575	101.72
353.787	208.21
353.999	-12.97
354.21	148.82
354.422	-2.73
354.633	-6.83
354.845	15.7
355.057	81.24
355.268	17.75
355.48	27.99
355.692	-33.45
355.903	52.56
356.115	42.32
356.326	-72.36
356.538	157.01
356.749	85.33
356.961	60.76
357.172	34.13
357.384	19.8
357.595	169.3
357.807	34.13
358.018	44.37
358.23	5.46
358.441	77.14
358.653	36.18
358.864	11.61
359.075	11.61
359.287	44.37
359.498	105.81
359.709	19.8
359.921	42.32
360.132	19.8
360.344	27.99
360.555	-49.83
360.766	-39.59
360.977	-23.21
361.189	103.76
361.4	1.37
361.611	105.81
361.823	134.48
362.034	101.72
362.245	-58.03
362.456	-37.55
362.667	30.04
362.879	-53.93
363.09	58.71
363.301	91.48
363.512	-0.68
363.723	-21.16
363.935	3.41
364.146	101.72
364.357	13.65
364.568	48.47
364.779	-58.03
364.99	91.48
365.201	-68.27
365.412	148.82
365.623	-64.17
365.834	52.56
366.045	60.76
366.256	91.48
366.467	15.7
366.678	-41.64
366.889	68.95
367.1	7.51
367.311	118.1
367.522	-66.22
367.733	77.14
367.944	3.41
368.155	-4.78
368.366	44.37
368.577	150.87
368.788	97.62
368.999	-33.45
369.209	-4.78
369.42	124.24
369.631	220.5
369.842	56.66
370.053	11.61
370.264	42.32
370.474	-96.94
370.685	17.75
370.896	36.18
371.107	60.76
371.317	103.76
371.528	36.18
371.739	87.38
371.95	64.85
372.16	32.08
372.371	15.7
372.582	-27.31
372.792	66.9
373.003	79.19
373.214	83.28
373.424	116.05
373.635	-15.02
373.846	120.15
374.056	-4.78
374.267	105.81
374.477	64.85
374.688	-19.11
374.898	73.04
375.109	38.23
375.319	71
375.53	124.24
375.74	114
375.951	-29.35
376.161	-4.78
376.372	89.43
376.582	46.42
376.793	60.76
377.003	-19.11
377.214	-29.35
377.424	3.41
377.635	-29.35
377.845	40.28
378.055	134.48
378.266	27.99
378.476	-27.31
378.686	140.63
378.897	93.52
379.107	101.72
379.317	9.56
379.528	-19.11
379.738	116.05
379.948	-23.21
380.158	89.43
380.369	68.95
380.579	105.81
380.789	48.47
380.999	-8.87
381.21	111.96
381.42	150.87
381.63	-47.79
381.84	27.99
382.05	15.7
382.261	105.81
382.471	132.44
382.681	-4.78
382.891	60.76
383.101	9.56
383.311	32.08
383.521	13.65
383.731	36.18
383.941	109.91
384.151	-0.68
384.361	48.47
384.571	42.32
384.781	-12.97
384.991	99.67
385.201	169.3
385.411	71
385.621	27.99
385.831	126.29
386.041	50.52
386.251	-15.02
386.461	48.47
386.671	3.41
386.881	-8.87
387.091	-43.69
387.301	83.28
387.511	40.28
387.72	91.48
387.93	9.56
388.14	-39.59
388.35	11.61
388.56	77.14
388.769	109.91
388.979	30.04
389.189	-15.02
389.399	-4.78
389.609	42.32
389.818	93.52
390.028	36.18
390.238	91.48
390.447	-37.55
390.657	46.42
390.867	81.24
391.076	-10.92
391.286	30.04
391.496	-15.02
391.705	-6.83
391.915	111.96
392.125	9.56
392.334	23.89
392.544	66.9
392.753	77.14
392.963	-27.31
393.172	89.43
393.382	-49.83
393.591	159.06
393.801	48.47
394.01	157.01
394.22	25.94
394.429	64.85
394.639	11.61
394.848	60.76
395.058	71
395.267	-8.87
395.477	68.95
395.686	73.04
395.895	232.79
396.105	138.58
396.314	85.33
396.524	40.28
396.733	-6.83
396.942	7.51
397.152	46.42
397.361	48.47
397.57	60.76
397.78	44.37
397.989	56.66
398.198	134.48
398.407	23.89
398.617	34.13
398.826	97.62
399.035	44.37
399.244	71
399.453	-62.12
399.663	9.56
399.872	48.47
400.081	-58.03
400.29	183.63
400.499	-6.83
400.708	40.28
400.917	25.94
401.127	25.94
401.336	-0.68
401.545	154.96
401.754	58.71
401.963	48.47
402.172	25.94
402.381	36.18
402.59	-27.31
402.799	60.76
403.008	142.68
403.217	36.18
403.426	23.89
403.635	27.99
403.844	77.14
404.053	38.23
404.262	-6.83
404.471	103.76
404.68	-15.02
404.888	52.56
405.097	-39.59
405.306	19.8
405.515	64.85
405.724	-45.74
405.933	27.99
406.142	25.94
406.35	116.05
406.559	21.85
406.768	144.72
406.977	103.76
407.185	27.99
407.394	60.76
407.603	7.51
407.812	120.15
408.02	165.2
408.229	-15.02
408.438	91.48
408.646	-96.94
408.855	19.8
409.064	75.09
409.272	-45.74
409.481	40.28
409.69	44.37
409.898	77.14
410.107	-0.68
410.315	107.86
410.524	44.37
410.733	52.56
410.941	66.9
411.15	15.7
411.358	32.08
411.567	95.57
411.775	44.37
411.984	60.76
412.192	93.52
412.401	-19.11
412.609	214.35
412.818	97.62
413.026	103.76
413.234	52.56
413.443	5.46
413.651	-0.68
413.86	79.19
414.068	64.85
414.276	118.1
414.485	40.28
414.693	99.67
414.901	175.44
415.11	25.94
415.318	23.89
415.526	-21.16
415.734	183.63
415.943	89.43
416.151	93.52
416.359	36.18
416.567	56.66
416.776	83.28
416.984	126.29
417.192	154.96
417.4	40.28
417.608	-58.03
417.817	-2.73
418.025	114
418.233	144.72
418.441	25.94
418.649	-0.68
418.857	91.48
419.065	105.81
419.273	-33.45
419.481	50.52
419.689	36.18
419.897	-29.35
420.105	-55.98
420.313	15.7
420.521	157.01
420.729	114
420.937	-6.83
421.145	-74.41
421.353	44.37
421.561	136.53
421.769	44.37
421.977	-55.98
422.185	75.09
422.393	25.94
422.601	105.81
422.809	36.18
423.017	152.91
423.224	60.76
423.432	163.15
423.64	122.2
423.848	62.8
424.056	-15.02
424.263	48.47
424.471	30.04
424.679	105.81
424.887	-129.7
425.094	118.1
425.302	68.95
425.51	9.56
425.718	116.05
425.925	-4.78
426.133	-12.97
426.341	132.44
426.548	132.44
426.756	105.81
426.964	83.28
427.171	52.56
427.379	101.72
427.586	-39.59
427.794	130.39
428.001	75.09
428.209	23.89
428.417	97.62
428.624	105.81
428.832	77.14
429.039	32.08
429.247	19.8
429.454	91.48
429.662	134.48
429.869	95.57
430.076	40.28
430.284	130.39
430.491	165.2
430.699	103.76
430.906	122.2
431.114	99.67
431.321	50.52
431.528	13.65
431.736	-4.78
431.943	62.8
432.15	111.96
432.358	195.92
432.565	138.58
432.772	-49.83
432.979	171.35
433.187	97.62
433.394	191.83
433.601	58.71
433.808	157.01
434.016	204.11
434.223	206.16
434.43	118.1
434.637	236.88
434.844	116.05
435.052	171.35
435.259	142.68
435.466	208.21
435.673	222.55
435.88	200.02
436.087	220.5
436.294	259.41
436.501	240.98
436.708	130.39
436.915	210.26
437.122	345.42
437.329	175.44
437.537	271.7
437.743	197.97
437.95	386.38
438.157	214.35
438.364	228.69
438.571	292.18
438.778	292.18
438.985	320.85
439.192	337.23
439.399	232.79
439.606	253.27
439.813	384.34
440.02	410.96
440.227	507.21
440.433	304.46
440.64	316.75
440.847	343.38
441.054	435.53
441.261	560.46
441.467	365.9
441.674	423.25
441.881	490.83
442.088	443.73
442.294	492.88
442.501	523.6
442.708	523.6
442.914	482.64
443.121	556.36
443.328	587.08
443.534	595.28
443.741	560.46
443.948	492.88
444.154	634.19
444.361	757.07
444.568	695.63
444.774	671.05
444.981	736.59
445.187	845.13
445.394	736.59
445.6	748.87
445.807	898.38
446.013	865.61
446.22	853.32
446.426	851.27
446.633	1011.01
446.839	1043.78
447.046	1011.01
447.252	1031.49
447.459	1074.5
447.665	1090.88
447.871	1127.75
448.078	1310.02
448.284	1283.39
448.491	1307.97
448.697	1363.26
448.903	1332.55
449.11	1461.57
449.316	1439.04
449.522	1537.34
449.728	1555.77
449.935	1717.56
450.141	1717.56
450.347	1797.43
450.553	1815.87
450.76	1871.16
450.966	1881.4
451.172	2055.48
451.378	2092.34
451.584	2125.11
451.791	2256.18
451.997	2293.04
452.203	2348.34
452.409	2528.56
452.615	2485.55
452.821	2559.28
453.027	2424.11
453.233	2802.99
453.44	2805.03
453.646	2854.19
453.852	2932.01
454.058	3194.15
454.264	3231.01
454.47	3353.89
454.676	3419.43
454.882	3861.79
455.088	3771.68
455.294	3689.76
455.5	3962.14
455.705	4125.97
455.911	4285.72
456.117	4257.04
456.323	4515.09
456.529	4533.52
456.735	4875.53
456.941	5147.91
457.147	5301.51
457.352	5430.53
457.558	5321.99
457.764	5993.72
457.97	6094.07
458.176	6302.97
458.381	6491.38
458.587	6710.51
458.793	7089.39
458.999	6903.02
459.204	7816.41
459.41	8096.99
459.616	8051.93
459.821	8539.35
460.027	8787.15
460.233	9047.24
460.438	9231.56
460.644	9843.9
460.85	9903.29
461.055	10171.58
461.261	10927.28
461.466	10495.16
461.672	10646.71
461.878	11953.31
462.083	12039.33
462.289	12180.64
462.494	12821.65
462.7	12616.85
462.905	12852.37
463.111	14058.62
463.316	14763.12
463.522	14838.9
463.727	15301.74
463.932	15936.61
464.138	16583.77
464.343	17087.57
464.549	17257.55
464.754	18486.33
464.959	18910.26
465.165	19332.14
465.37	19172.4
465.575	19147.83
465.781	20524.06
465.986	21138.45
466.191	20665.37
466.397	20859.93
466.602	20571.16
466.807	22123.52
467.012	22234.11
467.218	22565.88
467.423	22666.24
467.628	23133.17
467.833	24124.39
468.038	24202.21
468.244	23684.08
468.449	24949.72
468.654	24093.67
468.859	24312.8
469.064	24087.53
469.269	23536.62
469.474	23739.37
469.679	24771.55
469.885	23639.02
470.09	24282.08
470.295	24452.06
470.5	23815.15
470.705	23813.1
470.91	23315.44
471.115	23225.33
471.32	23514.09
471.525	23393.26
471.73	22739.96
471.935	22590.46
472.139	21783.56
472.344	21664.78
472.549	21558.28
472.754	21316.62
472.959	20769.82
473.164	20110.37
473.369	19852.33
473.574	20618.27
473.778	20085.79
473.983	19926.05
474.188	18920.5
474.393	18158.66
474.598	18574.39
474.802	17693.77
475.007	17523.79
475.212	17718.34
475.417	16868.44
475.621	16729.17
475.826	16489.56
476.031	15920.23
476.235	15803.49
476.44	15778.92
476.645	15508.58
476.849	15395.95
477.054	14974.06
477.259	14550.14
477.463	14625.91
477.668	14013.57
477.872	14136.45
478.077	13706.37
478.282	13194.38
478.486	13298.83
478.691	13212.81
478.895	12930.19
479.1	12815.51
479.304	13034.64
479.509	12119.2
479.713	12453.02
479.918	12190.88
480.122	12043.42
480.326	12059.81
480.531	12201.12
480.735	11791.52
480.94	11691.17
481.144	12174.49
481.348	11365.54
481.553	11445.41
481.757	11183.27
481.961	11310.25
482.166	11619.49
482.37	11189.42
482.574	10710.19
482.778	10976.43
482.983	11017.39
483.187	10929.33
483.391	10788.02
483.595	10710.19
483.8	10458.29
484.004	10497.21
484.208	10507.44
484.412	10351.8
484.616	10218.68
484.821	10161.34
485.025	9708.74
485.229	9950.4
485.433	9628.87
485.637	9657.54
485.841	9710.79
486.045	9551.04
486.249	9241.8
486.453	9290.95
486.657	9039.05
486.861	8989.9
487.065	8586.45
487.269	8608.98
487.473	8449.24
487.677	8572.11
487.881	8465.62
488.085	8115.42
488.289	7802.08
488.493	7861.47
488.697	7959.77
488.901	7628
489.105	7419.11
489.309	7488.74
489.512	7388.39
489.716	6958.32
489.92	7011.56
490.124	7050.47
490.328	7154.92
490.531	6606.06
490.735	6819.05
490.939	6534.39
491.143	6530.29
491.346	6243.57
491.55	6405.36
491.754	6171.9
491.958	6104.31
492.161	6036.73
492.365	5881.08
492.569	5627.14
492.772	5645.57
492.976	5664
493.18	5506.31
493.383	5539.07
493.587	5483.78
493.79	5401.86
493.994	5371.14
494.197	5211.4
494.401	5369.09
494.605	5098.76
494.808	5244.17
495.012	5065.99
495.215	5084.42
495.419	5182.73
495.622	4881.67
495.825	5088.52
496.029	5022.98
496.232	4902.15
496.436	4715.79
496.639	5041.42
496.843	4873.48
497.046	5147.91
497.249	5096.71
497.453	5016.84
497.656	5098.76
497.859	5109
498.063	4900.11
498.266	5043.46
498.469	5049.61
498.673	4922.63
498.876	5227.78
499.079	5098.76
499.282	5002.51
499.485	5328.13
499.689	5317.89
499.892	5328.13
500.095	5143.81
500.298	5342.47
500.501	5297.41
500.705	5358.85
500.908	5551.36
501.111	5471.49
501.314	5745.92
501.517	5790.97
501.72	5645.57
501.923	5590.27
502.126	5901.56
502.329	6126.84
502.532	5928.19
502.735	6106.36
502.938	6161.66
503.141	6208.76
503.344	6348.02
503.547	6540.53
503.75	6434.04
503.953	6577.39
504.156	6702.32
504.359	6550.77
504.562	6778.09
504.765	7060.71
504.968	7087.34
505.17	7062.76
505.373	7316.71
505.576	7482.6
505.779	7402.72
505.982	7548.13
506.185	7920.86
506.387	7787.74
506.59	7935.2
506.793	8379.61
506.996	8289.49
507.198	8793.3
507.401	8760.53
507.604	8910.03
507.807	9043.15
508.009	9252.04
508.212	9436.36
508.415	9516.23
508.617	9802.94
508.82	9999.55
509.022	10028.22
509.225	10476.73
509.428	10630.32
509.63	10882.22
509.833	10826.93
510.035	11424.93
510.238	11553.96
510.44	11699.36
510.643	12143.77
510.845	12342.42
511.048	12618.9
511.25	12823.7
511.453	13251.72
511.655	13767.81
511.858	13864.07
512.06	14085.25
512.262	14433.4
512.465	14699.64
512.667	15088.75
512.87	15320.17
513.072	15524.97
513.274	15885.41
513.477	16338.01
513.679	16813.14
513.881	17042.51
514.084	17661
514.286	18148.42
514.488	18334.78
514.69	18887.73
514.893	19223.6
515.095	19467.31
515.297	20030.5
515.499	20411.42
515.701	20655.13
515.904	21421.07
516.106	21498.89
516.308	22209.54
516.51	22582.27
516.712	22815.74
516.914	23555.05
517.116	23733.23
517.318	24128.49
517.52	24986.58
517.722	25281.49
517.925	25744.33
518.127	26336.2
518.329	27028.41
518.531	26784.7
518.733	27599.79
518.935	27775.92
519.136	28109.74
519.338	28795.81
519.54	29135.77
519.742	29870.99
519.944	29914
520.146	30751.62
520.348	31208.31
520.55	31568.76
520.752	31806.32
520.954	32582.5
521.155	32584.55
521.357	33110.88
521.559	33358.68
521.761	34132.81
521.963	34009.93
522.164	34569.03
522.366	34779.97
522.568	35257.15
522.77	35298.11
522.971	36057.9
523.173	35996.46
523.375	36295.47
523.576	36473.64
523.778	36393.77
523.98	36768.55
524.181	37186.33
524.383	37221.15
524.584	37507.87
524.786	37307.16
524.988	37190.43
525.189	37894.93
525.391	37823.25
525.592	38140.69
525.794	38335.24
525.995	37399.32
526.197	37540.63
526.398	37835.54
526.6	37825.3
526.801	37530.39
527.003	37520.15
527.204	37626.65
527.406	37843.73
527.607	37323.55
527.808	37413.66
528.01	36803.36
528.211	36428.59
528.412	36782.88
528.614	36391.72
528.815	36258.6
529.016	36565.8
529.218	35676.98
529.419	35507
529.62	35138.37
529.822	34693.96
530.023	34693.96
530.224	34351.95
530.425	34110.28
530.626	33205.08
530.828	32912.22
531.029	33665.88
531.23	32308.07
531.431	32220.01
531.632	32035.69
531.833	31538.04
532.035	31329.14
532.236	30817.15
532.437	30935.93
532.638	30073.74
532.839	30151.56
533.04	29639.57
533.241	28924.83
533.442	29373.33
533.643	28418.98
533.844	28203.94
534.045	27624.37
534.246	26997.69
534.447	26999.74
534.648	26248.13
534.849	26350.53
535.05	25523.15
535.251	25398.23
535.451	25193.43
535.652	24988.63
535.853	24331.23
536.054	24273.89
536.255	23589.87
536.456	23483.38
536.657	23241.71
536.857	23030.77
537.058	22928.38
537.259	22330.37
537.46	22125.57
537.66	21736.46
537.861	21658.63
538.062	20931.61
538.263	20937.75
538.463	20655.13
538.664	20214.82
538.865	20102.18
539.065	20036.64
539.266	19625
539.466	19557.42
539.667	19274.8
539.868	18957.36
540.068	18512.95
540.269	18459.71
540.469	18359.36
540.67	17833.03
540.87	17738.82
541.071	17671.24
541.271	17728.58
541.472	17261.65
541.672	17192.01
541.873	16782.42
542.073	16614.49
542.274	16690.26
542.474	16383.07
542.675	15871.08
542.875	16030.82
543.075	15486.06
543.276	15256.68
543.476	15754.34
543.676	15373.42
543.877	15307.88
544.077	14982.26
544.277	14826.61
544.478	14429.31
544.678	14564.47
544.878	14187.64
545.078	14087.29
545.279	13733
545.479	13661.32
545.679	13636.74
545.879	13278.35
546.079	13286.54
546.28	12926.1
546.48	13102.22
546.68	12917.9
546.88	12704.92
547.08	12653.72
547.28	12399.77
547.48	12397.72
547.68	12137.63
547.88	11996.32
548.081	11920.54
548.281	11496.61
548.481	11443.37
548.681	11465.89
548.881	11257
549.081	10998.96
549.28	10845.36
549.48	10849.46
549.68	10669.23
549.88	10824.88
550.08	10093.76
550.28	10226.87
550.48	10200.25
550.68	10120.38
550.88	9579.72
551.08	9782.46
551.279	9659.59
551.479	9315.53
551.679	9469.12
551.879	9125.07
552.079	8914.13
552.278	9147.59
552.478	8797.39
552.678	8965.32
552.878	8617.17
553.077	8371.41
553.277	8277.21
553.477	8283.35
553.676	8080.6
553.876	8152.28
554.076	7697.63
554.275	7800.03
554.475	7402.72
554.674	7290.09
554.874	7349.48
555.074	7050.47
555.273	7027.95
555.473	7159.02
555.672	6833.39
555.872	6618.35
556.071	6745.33
556.271	6710.51
556.47	6274.29
556.67	6032.63
556.869	6071.54
557.068	6085.88
557.268	5934.33
557.467	6065.4
557.667	5948.67
557.866	5700.86
558.065	5588.22
558.265	5565.7
558.464	5545.22
558.663	5422.34
558.863	5276.93
559.062	5336.32
559.261	5068.04
559.461	5188.87
559.66	4896.01
559.859	4871.43
560.058	4781.32
560.258	4621.58
560.457	4648.21
560.656	4646.16
560.855	4435.22
561.054	4461.84
561.253	4166.93
561.453	4193.56
561.652	4334.87
561.851	4373.78
562.05	3976.47
562.249	3890.46
562.448	3927.32
562.647	3853.59
562.846	3786.01
563.045	3814.68
563.244	3767.58
563.443	3788.06
563.642	3659.04
563.841	3648.8
564.04	3634.46
564.239	3513.63
564.438	3384.61
564.637	3288.36
564.836	3327.27
565.035	3310.88
565.234	3136.81
565.432	3147.05
565.631	3181.86
565.83	3079.46
566.029	3108.13
566.228	3009.83
566.427	3075.37
566.625	2731.31
566.824	2891.05
567.023	2811.18
567.222	2745.64
567.42	2755.88
567.619	2706.73
567.818	2641.2
568.016	2716.97
568.215	2549.04
568.414	2575.66
568.612	2508.08
568.811	2344.24
569.01	2415.92
569.208	2417.97
569.407	2321.71
569.605	2284.85
569.804	2311.47
570.002	2338.1
570.201	2213.17
570.4	2153.78
570.598	2217.27
570.797	2200.88
570.995	2016.57
571.193	2024.76
571.392	2051.38
571.59	1836.35
571.789	2168.12
571.987	1977.66
572.186	1979.7
572.384	1858.87
572.582	1822.01
572.781	1977.66
572.979	1746.23
573.177	1840.44
573.376	1760.57
573.574	1762.62
573.772	1613.12
573.971	1584.45
574.169	1543.49
574.367	1598.78
574.565	1637.69
574.763	1508.67
574.962	1584.45
575.16	1463.61
575.358	1381.7
575.556	1451.33
575.754	1467.71
575.952	1387.84
576.151	1432.9
576.349	1504.57
576.547	1326.4
576.745	1477.95
576.943	1256.77
577.141	1262.91
577.339	1189.19
577.537	1187.14
577.735	1248.58
577.933	1273.15
578.131	1156.42
578.329	1299.78
578.527	1117.51
578.725	1187.14
578.923	1049.93
579.121	1123.65
579.319	879.94
579.516	935.24
579.714	1248.58
579.912	1103.17
580.11	939.34
580.308	976.2
580.506	986.44
580.704	851.27
580.901	890.18
581.099	1076.55
581.297	939.34
581.495	1004.87
581.692	875.85
581.89	935.24
582.088	820.55
582.285	865.61
582.483	871.75
582.681	894.28
582.878	767.31
583.076	867.66
583.274	855.37
583.471	884.04
583.669	752.97
583.866	605.52
584.064	656.72
584.262	724.3
584.459	621.9
584.657	734.54
584.854	742.73
585.052	699.72
585.249	714.06
585.447	693.58
585.644	642.38
585.841	669
586.039	691.53
586.236	726.35
586.434	671.05
586.631	671.05
586.828	554.32
587.026	636.24
587.223	494.93
587.42	533.84
587.618	568.65
587.815	695.63
588.012	605.52
588.21	615.76
588.407	576.84
588.604	609.61
588.801	587.08
588.999	560.46
589.196	597.32
589.393	478.54
589.59	591.18
589.787	601.42
589.984	484.69
590.182	607.56
590.379	410.96
590.576	472.4
590.773	544.08
590.97	523.6
591.167	554.32
591.364	408.91
591.561	525.65
591.758	599.37
591.955	582.99
592.152	468.3
592.349	492.88
592.546	453.97
592.743	429.39
592.94	501.07
593.137	499.02
593.334	589.13
593.531	501.07
593.727	453.97
593.924	476.49
594.121	503.12
594.318	392.53
594.515	507.21
594.712	619.85
594.908	550.22
595.105	488.78
595.302	585.04
595.499	456.01
595.696	638.28
595.892	494.93
596.089	554.32
596.286	468.3
596.482	593.23
596.679	544.08
596.876	476.49
597.072	632.14
597.269	564.56
597.466	548.17
597.662	511.31
597.859	558.41
598.055	683.34
598.252	630.09
598.448	740.68
598.645	703.82
598.841	683.34
599.038	834.89
599.234	816.46
599.431	879.94
599.627	927.05
599.824	863.56
600.02	945.48
600.217	916.81
600.413	925
600.609	994.63
600.806	1291.59
601.002	1117.51
601.198	1027.4
601.395	1211.71
601.591	1174.85
601.787	1244.48
601.984	1310.02
602.18	1250.63
602.376	1418.56
602.572	1393.98
602.769	1600.83
602.965	1469.76
603.161	1584.45
603.357	1574.21
603.553	1670.46
603.75	1715.52
603.946	1733.95
604.142	1873.21
604.338	2006.33
604.534	1834.3
604.73	1969.46
604.926	2121.01
605.122	2133.3
605.318	2221.36
605.514	2274.61
605.71	2315.57
605.906	2411.82
606.102	2450.74
606.298	2555.18
606.494	2698.54
606.69	2759.98
606.886	2813.23
607.082	2829.61
607.278	2854.19
607.474	3101.99
607.67	3140.9
607.866	3104.04
608.062	3464.48
608.257	3400.99
608.453	3400.99
608.649	3728.67
608.845	3558.69
609.041	3812.64
609.236	3904.79
609.432	3970.33
609.628	4058.39
609.824	4123.93
610.019	4238.61
610.215	4351.25
610.411	4605.2
610.606	4685.07
610.802	4705.55
610.998	5012.74
611.193	5084.42
611.389	5025.03
611.584	5307.65
611.78	5240.07
611.976	5467.39
612.171	5754.11
612.367	5879.04
612.562	6100.22
612.758	5948.67
612.953	6081.78
613.149	6397.17
613.344	6526.19
613.539	6819.05
613.735	6837.49
613.93	7285.99
614.126	7224.55
614.321	7417.06
614.517	7613.67
614.712	7888.09
614.907	8047.83
615.103	8277.21
615.298	8602.83
615.493	8711.38
615.688	8828.11
615.884	9276.62
616.079	9192.65
616.274	9727.17
616.47	9739.46
616.665	9950.4
616.86	10421.43
617.055	10370.23
617.25	10861.74
617.445	11052.2
617.641	11213.99
617.836	11691.17
618.031	11848.86
618.226	12395.67
618.421	12663.96
618.616	12909.71
618.811	12952.72
619.006	13534.34
619.201	13477
619.396	14132.35
619.591	14029.95
619.786	14707.83
619.981	15002.74
620.176	15395.95
620.371	15182.96
620.566	15733.86
620.761	16221.28
620.956	16743.51
621.151	16950.35
621.346	17394.76
621.541	17185.87
621.735	18175.04
621.93	17869.89
622.125	18291.77
622.32	18816.05
622.515	18975.8
622.709	19426.35
622.904	19958.82
623.099	20255.78
623.294	20538.4
623.488	20575.26
623.683	21216.27
623.878	21349.39
624.072	21924.87
624.267	22043.65
624.462	22557.69
624.656	22764.54
624.851	23184.37
625.046	23530.48
625.24	23913.45
625.435	24114.15
625.629	24712.16
625.824	24595.42
626.018	25404.37
626.213	25162.71
626.407	25730
626.602	25859.02
626.796	26401.73
626.991	27009.98
627.185	26739.65
627.38	27040.7
627.574	27186.1
627.768	27335.6
627.963	27198.39
628.157	27452.34
628.352	27388.85
628.546	27620.27
628.74	28105.64
628.935	27317.17
629.129	27818.92
629.323	27579.31
629.517	27814.83
629.712	27227.06
629.906	27372.47
630.1	26987.45
630.294	26938.3
630.489	26373.06
630.683	26452.93
630.877	25637.84
631.071	25775.05
631.265	24912.86
631.459	24921.05
631.653	24228.84
631.848	23604.21
632.042	23159.8
632.236	22815.74
632.43	21980.17
632.624	21732.36
632.818	20935.7
633.012	20257.82
633.206	19686.44
633.4	18787.38
633.594	18545.72
633.788	17855.56
633.982	17437.77
634.176	16755.8
634.369	15959.14
634.563	15553.64
634.757	14853.23
634.951	14535.8
635.145	13870.21
635.339	13491.34
635.533	12831.89
635.726	12379.29
635.92	11508.9
636.114	11340.97
636.308	10726.58
636.501	10491.06
636.695	10075.32
636.889	9569.48
637.083	9206.98
637.276	8862.93
637.47	8350.93
637.664	8084.7
637.857	7738.59
638.051	7662.82
638.244	7331.05
638.438	6931.69
638.632	6802.67
638.825	6110.46
639.019	6198.52
639.212	5999.87
639.406	5778.69
639.599	5401.86
639.793	5268.74
639.986	5115.14
640.18	4760.84
640.373	4629.77
640.567	4422.93
640.76	4408.59
640.954	4197.65
641.147	3910.94
641.34	3771.68
641.534	3644.7
641.727	3599.65
641.92	3482.91
642.114	3265.83
642.307	3198.24
642.5	3079.46
642.694	2882.86
642.887	2927.91
643.08	2802.99
643.273	2649.39
643.467	2516.27
643.66	2415.92
643.853	2352.43
644.046	2231.6
644.239	2260.27
644.432	2026.81
644.626	1899.83
644.819	1973.56
645.012	1867.06
645.205	1772.86
645.398	1850.68
645.591	1672.51
645.784	1502.53
645.977	1512.77
646.17	1445.18
646.363	1424.7
646.556	1355.07
646.749	1301.83
646.942	1285.44
647.135	1281.35
647.328	1140.04
647.521	1023.3
647.714	1027.4
647.907	1127.75
648.099	916.81
648.292	1064.26
648.485	851.27
648.678	918.86
648.871	847.18
649.064	752.97
649.256	664.91
649.449	722.25
649.642	679.24
649.835	681.29
650.027	693.58
650.22	685.39
650.413	695.63
650.605	617.8
650.798	542.03
650.991	544.08
651.183	605.52
651.376	552.27
651.568	523.6
651.761	521.55
651.954	539.98
652.146	511.31
652.339	486.73
652.531	511.31
652.724	331.09
652.916	347.47
653.109	228.69
653.301	451.92
653.494	437.58
653.686	404.82
653.879	445.77
654.071	363.86
654.263	437.58
654.456	322.9
654.648	427.34
654.84	351.57
655.033	306.51
655.225	388.43
655.417	238.93
655.61	478.54
655.802	322.9
655.994	386.38
656.186	224.59
656.379	329.04
656.571	181.59
656.763	236.88
656.955	216.4
657.148	187.73
657.34	279.89
657.532	200.02
657.724	238.93
657.916	179.54
658.108	343.38
658.3	277.84
658.492	281.94
658.684	163.15
658.876	236.88
659.068	99.67
659.26	34.13
659.452	87.38
659.644	171.35
659.836	304.46
660.028	208.21
660.22	126.29
660.412	103.76
660.604	142.68
660.796	183.63
660.988	236.88
661.18	140.63
661.372	159.06
661.563	142.68
661.755	146.77
661.947	32.08
662.139	105.81
662.331	103.76
662.522	118.1
662.714	111.96
662.906	32.08
663.097	200.02
663.289	48.47
663.481	36.18
663.673	140.63
663.864	126.29
664.056	165.2
664.247	15.7
664.439	240.98
664.631	134.48
664.822	179.54
665.014	83.28
665.205	36.18
665.397	109.91
665.588	163.15
665.78	79.19
665.971	167.25
666.163	71
666.354	118.1
666.546	138.58
666.737	85.33
666.929	64.85
667.12	21.85
667.311	75.09
667.503	132.44
667.694	114
667.885	107.86
668.077	109.91
668.268	-8.87
668.459	118.1
668.651	181.59
668.842	101.72
669.033	27.99
669.224	-37.55
669.416	310.61
669.607	146.77
669.798	81.24
669.989	224.59
670.18	93.52
670.371	167.25
670.563	52.56
670.754	154.96
670.945	146.77
671.136	64.85
671.327	56.66
671.518	179.54
671.709	148.82
671.9	183.63
672.091	169.3
672.282	142.68
672.473	52.56
672.664	19.8
672.855	48.47
673.046	99.67
673.237	161.11
673.428	64.85
673.619	118.1
673.809	48.47
674	238.93
674.191	142.68
674.382	68.95
674.573	107.86
674.764	107.86
674.954	191.83
675.145	52.56
675.336	132.44
675.527	64.85
675.717	148.82
675.908	89.43
676.099	60.76
676.289	93.52
676.48	-0.68
676.671	118.1
676.861	-43.69
677.052	85.33
677.243	118.1
677.433	11.61
677.624	134.48
677.814	114
678.005	114
678.195	193.87
678.386	83.28
678.576	159.06
678.767	75.09
678.957	109.91
679.148	216.4
679.338	255.31
679.529	130.39
679.719	81.24
679.909	66.9
680.1	150.87
680.29	138.58
680.481	128.34
680.671	157.01
680.861	124.24
681.052	144.72
681.242	142.68
681.432	159.06
681.622	159.06
681.813	40.28
682.003	161.11
682.193	75.09
682.383	175.44
682.573	97.62
682.764	144.72
682.954	134.48
683.144	152.91
683.334	163.15
683.524	134.48
683.714	214.35
683.904	259.41
684.094	130.39
684.284	175.44
684.474	232.79
684.664	130.39
684.854	208.21
685.044	97.62
685.234	167.25
685.424	183.63
685.614	179.54
685.804	288.08
685.994	187.73
686.184	220.5
686.374	214.35
686.564	171.35
686.753	200.02
686.943	52.56
687.133	152.91
687.323	40.28
687.513	195.92
687.702	222.55
687.892	146.77
688.082	290.13
688.272	179.54
688.461	91.48
688.651	275.79
688.841	111.96
689.03	157.01
689.22	279.89
689.41	165.2
689.599	159.06
689.789	77.14
689.979	240.98
690.168	169.3
690.358	163.15
690.547	140.63
690.737	142.68
690.926	200.02
691.116	150.87
691.305	159.06
691.495	238.93
691.684	167.25
691.874	163.15
692.063	161.11
692.252	234.83
692.442	169.3
692.631	150.87
692.82	159.06
693.01	179.54
693.199	99.67
693.388	124.24
693.578	152.91
693.767	206.16
693.956	183.63
694.146	146.77
694.335	134.48
694.524	109.91
694.713	157.01
694.902	146.77
695.092	152.91
695.281	236.88
695.47	130.39
695.659	114
695.848	163.15
696.037	81.24
696.226	224.59
696.415	206.16
696.604	200.02
696.793	195.92
696.982	101.72
697.171	255.31
697.36	120.15
697.549	148.82
697.738	23.89
697.927	52.56
698.116	75.09
698.305	114
698.494	136.53
698.683	157.01
698.872	159.06
699.061	103.76
699.25	91.48
699.438	81.24
699.627	93.52
699.816	177.49
700.005	79.19
700.193	150.87
700.382	191.83
700.571	132.44
700.76	109.91
700.948	208.21
701.137	191.83
701.326	175.44
701.514	116.05
701.703	157.01
701.892	152.91
702.08	273.75
702.269	64.85
702.457	46.42
702.646	128.34
702.834	114
703.023	216.4
703.212	167.25
703.4	148.82
703.589	50.52
703.777	183.63
703.965	142.68
704.154	144.72
704.342	-15.02
704.531	118.1
704.719	157.01
704.907	257.36
705.096	142.68
705.284	36.18
705.472	124.24
705.661	130.39
705.849	202.07
706.037	173.39
706.226	154.96
706.414	159.06
706.602	118.1
706.79	181.59
706.979	105.81
707.167	101.72
707.355	34.13
707.543	185.68
707.731	191.83
707.919	89.43
708.107	169.3
708.296	64.85
708.484	48.47
708.672	245.07
708.86	148.82
709.048	134.48
709.236	34.13
709.424	167.25
709.612	167.25
709.8	101.72
709.988	179.54
710.176	191.83
710.364	165.2
710.551	87.38
710.739	75.09
710.927	191.83
711.115	97.62
711.303	220.5
711.491	273.75
711.679	52.56
711.866	118.1
712.054	87.38
712.242	161.11
712.43	216.4
712.617	208.21
712.805	206.16
712.993	152.91
713.181	66.9
713.368	177.49
713.556	107.86
713.744	114
713.931	351.57
714.119	185.68
714.306	103.76
714.494	159.06
714.682	163.15
714.869	62.8
715.057	136.53
715.244	36.18
715.432	122.2
715.619	224.59
715.807	114
715.994	103.76
716.182	154.96
716.369	253.27
716.556	218.45
716.744	93.52
716.931	124.24
717.119	216.4
717.306	122.2
717.493	259.41
717.681	144.72
717.868	134.48
718.055	191.83
718.242	181.59
718.43	118.1
718.617	312.66
718.804	222.55
718.991	273.75
719.179	185.68
719.366	163.15
719.553	224.59
719.74	179.54
719.927	114
720.114	200.02
720.301	150.87
720.488	122.2
720.676	126.29
720.863	189.78
721.05	261.46
721.237	218.45
721.424	210.26
721.611	128.34
721.798	142.68
721.985	163.15
722.172	208.21
722.358	212.31
722.545	283.99
722.732	191.83
722.919	208.21
723.106	157.01
723.293	154.96
723.48	224.59
723.667	195.92
723.853	226.64
724.04	175.44
724.227	181.59
724.414	126.29
724.6	181.59
724.787	267.6
724.974	251.22
725.161	185.68
725.347	58.71
725.534	197.97
725.72	232.79
725.907	171.35
726.094	341.33
726.28	216.4
726.467	189.78
726.653	130.39
726.84	296.27
727.027	224.59
727.213	232.79
727.4	265.55
727.586	240.98
727.773	206.16
727.959	185.68
728.145	222.55
728.332	146.77
728.518	245.07
728.705	195.92
728.891	212.31
729.077	240.98
729.264	167.25
729.45	179.54
729.636	281.94
729.823	163.15
730.009	253.27
730.195	183.63
730.382	253.27
730.568	161.11
730.754	281.94
730.94	265.55
731.126	247.12
731.313	331.09
731.499	243.03
731.685	238.93
731.871	212.31
732.057	261.46
732.243	259.41
732.429	255.31
732.615	370
732.801	294.22
732.987	220.5
733.173	187.73
733.359	249.17
733.545	206.16
733.731	212.31
733.917	273.75
734.103	173.39
734.289	157.01
734.475	140.63
734.661	367.95
734.847	220.5
735.033	226.64
735.219	294.22
735.404	253.27
735.59	177.49
735.776	161.11
735.962	179.54
736.148	263.51
736.333	326.99
736.519	298.32
736.705	279.89
736.89	261.46
737.076	257.36
737.262	179.54
737.447	124.24
737.633	179.54
737.819	351.57
738.004	208.21
738.19	314.7
738.375	283.99
738.561	238.93
738.747	204.11
738.932	152.91
739.118	361.81
739.303	220.5
739.489	253.27
739.674	146.77
739.859	195.92
740.045	279.89
740.23	261.46
740.416	138.58
740.601	316.75
740.786	263.51
740.972	171.35
741.157	195.92
741.342	177.49
741.528	163.15
741.713	361.81
741.898	234.83
742.084	245.07
742.269	279.89
742.454	245.07
742.639	249.17
742.824	193.87
743.01	245.07
743.195	357.71
743.38	271.7
743.565	150.87
743.75	275.79
743.935	292.18
744.12	353.62
744.305	226.64
744.49	177.49
744.675	167.25
744.86	157.01
745.045	257.36
745.23	232.79
745.415	189.78
745.6	296.27
745.785	146.77
745.97	191.83
746.155	240.98
746.34	230.74
746.525	216.4
746.71	300.37
746.895	181.59
747.079	81.24
747.264	187.73
747.449	240.98
747.634	286.03
747.819	281.94
748.003	220.5
748.188	130.39
748.373	232.79
748.557	157.01
748.742	189.78
748.927	265.55
749.111	208.21
749.296	222.55
749.481	283.99
749.665	187.73
749.85	132.44
750.034	216.4
750.219	173.39
750.404	183.63
750.588	185.68
750.773	165.2
750.957	134.48
751.141	169.3
751.326	208.21
751.51	142.68
751.695	206.16
751.879	130.39
752.064	286.03
752.248	126.29
752.432	271.7
752.617	257.36
752.801	304.46
752.985	191.83
753.17	191.83
753.354	169.3
753.538	204.11
753.722	165.2
753.907	267.6
754.091	171.35
754.275	157.01
754.459	165.2
754.643	101.72
754.828	150.87
755.012	167.25
755.196	50.52
755.38	120.15
755.564	114
755.748	75.09
755.932	265.55
756.116	134.48
756.3	277.84
756.484	130.39
756.668	171.35
756.852	73.04
757.036	62.8
757.22	200.02
757.404	93.52
757.588	91.48
757.772	114
757.956	97.62
758.14	169.3
758.323	52.56
758.507	169.3
758.691	93.52
758.875	189.78
759.059	212.31
759.242	91.48
759.426	89.43
759.61	179.54
759.794	89.43
759.977	220.5
760.161	279.89
760.345	306.51
760.528	230.74
760.712	152.91
760.895	152.91
761.079	118.1
761.263	25.94
761.446	40.28
761.63	118.1
761.813	249.17
761.997	19.8
762.18	154.96
762.364	228.69
762.547	36.18
762.731	122.2
762.914	66.9
763.098	60.76
763.281	25.94
763.464	118.1
763.648	73.04
763.831	91.48
764.015	122.2
764.198	228.69
764.381	126.29
764.564	130.39
764.748	152.91
764.931	91.48
765.114	32.08
765.297	68.95
765.481	71
765.664	124.24
765.847	140.63
766.03	212.31
766.213	73.04
766.397	126.29
766.58	15.7
766.763	138.58
766.946	58.71
767.129	73.04
767.312	44.37
767.495	97.62
767.678	21.85
767.861	58.71
768.044	66.9
768.227	99.67
768.41	93.52
768.593	93.52
768.776	85.33
768.959	95.57
769.142	124.24
769.324	103.76
769.507	126.29
769.69	9.56
769.873	118.1
770.056	216.4
770.239	109.91
770.421	122.2
770.604	146.77
770.787	46.42
770.97	42.32
771.152	-6.83
771.335	89.43
771.518	56.66
771.7	200.02
771.883	191.83
772.066	77.14
772.248	66.9
772.431	132.44
772.613	105.81
772.796	56.66
772.978	124.24
773.161	154.96
773.343	48.47
773.526	58.71
773.708	-29.35
773.891	40.28
774.073	107.86
774.256	1.37
774.438	171.35
774.621	68.95
774.803	101.72
774.985	13.65
775.168	136.53
775.35	38.23
775.532	95.57
775.715	66.9
775.897	62.8
776.079	11.61
776.261	54.61
776.444	132.44
776.626	32.08
776.808	42.32
776.99	-21.16
777.173	93.52
777.355	66.9
777.537	25.94
777.719	60.76
777.901	-45.74
778.083	21.85
778.265	-49.83
778.447	75.09
778.629	-23.21
778.811	42.32
778.993	124.24
779.175	134.48
779.357	64.85
779.539	-78.51
779.721	60.76
779.903	134.48
780.085	97.62
780.267	-41.64
780.449	-6.83
780.631	91.48
780.812	128.34
780.994	19.8
781.176	32.08
781.358	36.18
781.54	48.47
781.721	116.05
781.903	85.33
782.085	-64.17
782.267	124.24
782.448	-23.21
782.63	15.7
782.812	58.71
782.993	103.76
783.175	60.76
783.357	5.46
783.538	32.08
783.72	9.56
783.901	68.95
784.083	83.28
784.264	42.32
784.446	-6.83
784.627	36.18
784.809	71
784.99	23.89
785.172	38.23
785.353	-12.97
785.535	89.43
785.716	-6.83
785.897	-12.97
786.079	34.13
786.26	11.61
786.441	122.2
786.623	-47.79
786.804	23.89
786.985	5.46
787.167	89.43
787.348	93.52
787.529	50.52
787.71	75.09
787.891	83.28
788.073	-88.75
788.254	36.18
788.435	79.19
788.616	-43.69
788.797	-4.78
788.978	-21.16
789.159	-64.17
789.34	42.32
789.522	-41.64
789.703	11.61
789.884	9.56
790.065	27.99
790.246	161.11
790.427	32.08
790.607	161.11
790.788	140.63
790.969	-12.97
791.15	58.71
791.331	42.32
791.512	-12.97
791.693	3.41
791.874	-23.21
792.054	189.78
792.235	77.14
792.416	11.61
792.597	-37.55
792.778	95.57
792.958	68.95
793.139	52.56
793.32	111.96
793.5	25.94
793.681	181.59
793.862	11.61
794.042	87.38
794.223	-43.69
794.404	-29.35
794.584	-53.93
794.765	46.42
794.945	58.71
795.126	105.81
795.306	68.95
795.487	52.56
795.667	17.75
795.848	38.23
796.028	32.08
796.209	-0.68
796.389	44.37
796.57	3.41
796.75	-41.64
796.93	-29.35
797.111	-88.75
797.291	-12.97
797.471	-2.73
797.652	-66.22
797.832	1.37
798.012	50.52
798.192	-31.4
798.373	-101.03
798.553	-23.21
798.733	42.32
798.913	-19.11
799.093	11.61
799.274	81.24
799.454	77.14
799.634	142.68
799.814	165.2
799.994	85.33
800.174	38.23
800.354	-0.68
800.534	-119.46
800.714	83.28
800.894	-66.22
801.074	-156.33
801.254	-12.97
801.434	122.2
801.614	44.37
801.794	-39.59
801.974	1680.7
802.154	-8.87
802.334	50.52
802.514	-62.12
802.693	19.8
802.873	3.41
803.053	58.71
803.233	91.48
803.413	9.56
803.592	-29.35
803.772	-53.93
803.952	-27.31
804.131	-17.07
804.311	91.48
804.491	25.94
804.67	-6.83
804.85	-17.07
805.03	19.8
805.209	93.52
805.389	-6.83
805.568	3.41
805.748	-8.87
805.928	3.41
806.107	87.38
806.287	11.61
806.466	64.85
806.646	-55.98
806.825	-64.17
807.004	-45.74
807.184	89.43
807.363	34.13
807.543	-31.4
807.722	-103.08
807.901	75.09
808.081	-12.97
808.26	-119.46
808.439	-53.93
808.619	60.76
808.798	-27.31
808.977	48.47
809.156	-10.92
809.336	-49.83
809.515	93.52
809.694	40.28
809.873	-6.83
810.052	17.75
810.231	109.91
810.411	25.94
810.59	91.48
810.769	68.95
810.948	77.14
811.127	-119.46
811.306	5.46
811.485	23.89
811.664	159.06
811.843	-43.69
812.022	-15.02
812.201	27.99
812.38	3.41
812.559	-0.68
812.737	64.85
812.916	-76.46
813.095	1.37
813.274	40.28
813.453	7.51
813.632	-41.64
813.811	75.09
813.989	-70.31
814.168	13.65
814.347	-47.79
814.526	36.18
814.704	132.44
814.883	101.72
815.062	15.7
815.24	-29.35
815.419	-66.22
815.598	77.14
815.776	-84.65
815.955	38.23
816.133	-121.51
816.312	56.66
816.49	-94.89
816.669	25.94
816.847	54.61
817.026	25.94
817.204	36.18
817.383	-47.79
817.561	-53.93
817.74	118.1
817.918	60.76
818.097	-74.41
818.275	-58.03
818.453	25.94
818.632	46.42
818.81	42.32
818.988	-37.55
819.167	-74.41
819.345	64.85
819.523	-6.83
819.701	71
819.879	48.47
820.058	68.95
820.236	21.85
820.414	-27.31
820.592	-17.07
820.77	7.51
820.948	-37.55
821.127	-60.07
821.305	48.47
821.483	-41.64
821.661	85.33
821.839	-21.16
822.017	-8.87
822.195	-6.83
822.373	11.61
822.551	27.99
822.729	81.24
822.907	-39.59
823.085	11.61
823.262	-0.68
823.44	-72.36
823.618	-49.83
823.796	-15.02
823.974	-15.02
824.152	-49.83
824.329	5.46
824.507	-35.5
824.685	134.48
824.863	15.7
825.04	-4.78
825.218	48.47
825.396	11.61
825.574	-15.02
825.751	56.66
825.929	42.32
826.107	3.41
826.284	-4.78
826.462	48.47
826.639	-41.64
826.817	-111.27
826.994	-17.07
827.172	-103.08
827.349	52.56
827.527	13.65
827.704	-41.64
827.882	56.66
828.059	21.85
828.237	52.56
828.414	-17.07
828.591	-80.55
828.769	1.37
828.946	71
829.124	52.56
829.301	19.8
829.478	-86.7
829.655	-41.64
829.833	68.95
830.01	-148.14
830.187	-8.87
830.364	-25.26
830.542	-19.11
830.719	64.85
830.896	159.06
831.073	1.37
831.25	27.99
831.427	3.41
831.604	-0.68
831.782	-43.69
831.959	-45.74
832.136	32.08
832.313	-19.11
832.49	-12.97
832.667	38.23
832.844	-80.55
833.021	21.85
833.198	-12.97
833.374	27.99
833.551	5.46
833.728	-39.59
833.905	105.81
834.082	-72.36
834.259	11.61
834.436	89.43
834.612	-58.03
834.789	36.18
834.966	-31.4
835.143	52.56
835.319	-92.84
835.496	-10.92
835.673	50.52
835.85	42.32
836.026	52.56
836.203	44.37
836.38	-19.11
836.556	-37.55
836.733	-23.21
836.909	68.95
837.086	-29.35
837.262	-6.83
837.439	-41.64
837.616	-103.08
837.792	-21.16
837.968	-6.83
838.145	-127.66
838.321	46.42
838.498	7.51
838.674	-45.74
838.851	-21.16
839.027	5.46
839.203	-15.02
839.38	-39.59
839.556	-6.83
839.732	75.09
839.909	58.71
840.085	-4.78
840.261	-60.07
840.437	3.41
840.614	-17.07
840.79	58.71
840.966	46.42
841.142	27.99
841.318	-4.78
841.494	44.37
841.671	85.33
841.847	-49.83
842.023	-53.93
842.199	23.89
842.375	58.71
842.551	-107.18
842.727	-172.71
842.903	71
843.079	-90.79
843.255	23.89
843.431	1.37
843.607	109.91
843.783	-111.27
843.959	-15.02
844.134	-19.11
844.31	54.61
844.486	1.37
844.662	-92.84
844.838	-62.12
845.013	-17.07
845.189	93.52
845.365	-23.21
845.541	66.9
845.716	17.75
845.892	38.23
846.068	-55.98
846.244	-35.5
846.419	5.46
846.595	-31.4
846.77	-10.92
846.946	-35.5
847.122	-45.74
847.297	-6.83
847.473	71
847.648	-139.94
847.824	44.37
847.999	-96.94
848.175	-10.92
848.35	19.8
848.526	54.61
848.701	23.89
848.876	40.28
849.052	85.33
849.227	11.61
849.403	-27.31
849.578	-31.4
849.753	11.61
849.929	19.8
850.104	-127.66
850.279	7.51
850.454	27.99
850.63	42.32
850.805	-10.92
850.98	-37.55
851.155	32.08
851.33	11.61
851.505	-86.7
851.681	93.52
851.856	-21.16
852.031	-17.07
852.206	19.8
852.381	-33.45
852.556	-78.51
852.731	34.13
852.906	36.18
853.081	-43.69
853.256	101.72
853.431	-10.92
853.606	-70.31
853.781	-25.26
853.956	-86.7
854.131	-10.92
854.305	-66.22
854.48	-10.92
854.655	-101.03
854.83	56.66
855.005	25.94
855.18	11.61
855.354	-17.07
855.529	40.28
855.704	-25.26
855.879	101.72
856.053	-90.79
856.228	11.61
856.403	-6.83
856.577	1.37
856.752	-80.55
856.926	-4.78
857.101	64.85
857.276	-55.98
857.45	32.08
857.625	-4.78
857.799	-33.45
857.974	-23.21
858.148	-82.6
858.323	-31.4
858.497	-10.92
858.672	25.94
858.846	-53.93
859.02	11.61
859.195	-43.69
859.369	-27.31
859.543	32.08
859.718	15.7
859.892	-19.11
860.066	27.99
860.241	-31.4
860.415	-94.89
860.589	-49.83
860.763	-113.32
860.938	99.67
861.112	-43.69
861.286	1.37
861.46	36.18
861.634	-27.31
861.808	68.95
861.982	21.85
862.157	-64.17
862.331	-35.5
862.505	-21.16
862.679	-103.08
862.853	-29.35
863.027	-37.55
863.201	60.76
863.375	-58.03
863.549	32.08
863.722	23.89
863.896	44.37
864.07	-21.16
864.244	36.18
864.418	23.89
864.592	25.94
864.766	40.28
864.939	-8.87
865.113	-72.36
865.287	87.38
865.461	-21.16
865.634	-37.55
865.808	21.85
865.982	-33.45
866.156	-103.08
866.329	-115.37
866.503	-33.45
866.676	58.71
866.85	34.13
867.024	-47.79
867.197	85.33
867.371	32.08
867.544	27.99
867.718	-101.03
867.891	36.18
868.065	-43.69
868.238	-4.78
868.412	5.46
868.585	1.37
868.759	-39.59
868.932	5.46
869.105	-70.31
869.279	-29.35
869.452	-27.31
869.625	-4.78
869.799	-119.46
869.972	-78.51
870.145	-70.31
870.319	91.48
870.492	-86.7
870.665	-51.88
870.838	-127.66
871.011	-107.18
871.185	-25.26
871.358	11.61
871.531	-0.68
871.704	3.41
871.877	-0.68
872.05	5.46
872.223	-68.27
872.396	81.24
872.569	44.37
872.742	-113.32
872.915	85.33
873.088	-45.74
873.261	-53.93
873.434	44.37
873.607	-29.35
873.78	134.48
873.953	-47.79
874.126	-0.68
874.299	-17.07
874.471	-15.02
874.644	13.65
874.817	-29.35
874.99	56.66
875.163	-94.89
875.335	7.51
875.508	-2.73
875.681	97.62
875.853	-4.78
876.026	15.7
876.199	21.85
876.371	93.52
876.544	-10.92
876.717	-45.74
876.889	-74.41
877.062	36.18
877.234	-66.22
877.407	-29.35
877.579	25.94
877.752	38.23
877.924	19.8
878.097	101.72
878.269	-66.22
878.442	50.52
878.614	19.8
878.786	52.56
878.959	-29.35
879.131	66.9
879.303	-105.13
879.476	-0.68
879.648	48.47
879.82	-17.07
879.993	-92.84
880.165	9.56
880.337	-117.42
880.509	-19.11
880.681	-62.12
880.854	-107.18
881.026	40.28
881.198	138.58
881.37	-2.73
881.542	19.8
881.714	-17.07
881.886	-68.27
882.058	-82.6
882.23	-25.26
882.402	-86.7
882.574	-0.68
882.746	-25.26
882.918	95.57
883.09	-6.83
883.262	-29.35
883.434	-12.97
883.606	-33.45
883.778	23.89
883.95	148.82
884.122	-10.92
884.293	75.09
884.465	-29.35
884.637	118.1
884.809	-45.74
884.98	-82.6
885.152	17.75
885.324	-64.17
885.496	7.51
885.667	9.56
885.839	-55.98
886.011	64.85
886.182	23.89
886.354	-25.26
886.525	-4.78
886.697	-4.78
886.869	-115.37
887.04	-72.36
887.212	27.99
887.383	179.54
887.555	38.23
887.726	-45.74
887.897	9.56
888.069	-35.5
888.24	7.51
888.412	-72.36
888.583	-74.41
888.754	-70.31
888.926	-109.22
889.097	-21.16
889.268	-101.03
889.44	-47.79
889.611	-127.66
889.782	-78.51
889.953	-43.69
890.125	124.24
890.296	-123.56
890.467	-33.45
890.638	-29.35
890.809	-37.55
890.98	-6.83
891.151	-10.92
891.323	32.08
891.494	-47.79
891.665	-49.83
891.836	-12.97
892.007	-4.78
892.178	46.42
892.349	-29.35
892.52	-27.31
892.691	42.32
892.862	-35.5
893.032	-195.24
893.203	-43.69
893.374	-19.11
893.545	73.04
893.716	-19.11
893.887	-12.97
894.057	-53.93
894.228	3.41
894.399	-41.64
894.57	40.28
894.74	-21.16
894.911	71
895.082	5.46
895.253	34.13
895.423	3.41
895.594	85.33
895.764	32.08
895.935	-135.85
896.106	19.8
896.276	-17.07
896.447	40.28
896.617	-64.17
896.788	-49.83
896.958	-53.93
897.129	-111.27
897.299	-68.27
897.47	32.08
897.64	87.38
897.81	-64.17
897.981	36.18
898.151	-131.75
898.322	50.52
898.492	-12.97
898.662	-64.17
898.832	-141.99
899.003	-76.46
899.173	62.8
899.343	-78.51
899.513	-37.55
