Data from USB4F104151__15__10-23-16-448.txt Node

Date: Wed Feb 26 10:23:16 EST 2025
User: louis
Spectrometer: USB4F10415
Trigger mode: 4
Integration Time (sec): 1.000000E-1
Scans to average: 1
Electric dark correction enabled: true
Nonlinearity correction enabled: false
Boxcar width: 0
XAxis mode: Wavelengths
Number of Pixels in Spectrum: 3648
>>>>>Begin Spectral Data<<<<<
178.204	-353.45
178.424	-353.45
178.644	-353.45
178.864	-416.93
179.084	-337.06
179.304	-15.53
179.524	15.19
179.744	19.29
179.964	37.72
180.184	23.38
180.404	99.16
180.624	-21.67
180.844	25.43
181.064	-175.27
181.283	-33.96
181.503	-23.72
181.723	50
181.943	-64.68
182.163	160.59
182.383	45.91
182.602	127.83
182.822	117.59
183.042	140.12
183.262	-19.63
183.482	-36.01
183.701	23.38
183.921	52.05
184.141	23.38
184.361	125.78
184.58	152.4
184.8	82.77
185.02	52.05
185.239	80.72
185.459	90.96
185.679	164.69
185.898	-97.45
186.118	80.72
186.338	86.87
186.557	60.24
186.777	-38.06
186.997	50
187.216	70.48
187.436	111.44
187.655	97.11
187.875	162.64
188.095	62.29
188.314	86.87
188.534	140.12
188.753	31.57
188.973	129.88
189.192	142.16
189.412	86.87
189.631	68.44
189.851	107.35
190.07	269.14
190.29	-15.53
190.509	-13.48
190.729	74.58
190.948	146.26
191.168	244.56
191.387	107.35
191.607	76.63
191.826	103.25
192.045	80.72
192.265	39.76
192.484	117.59
192.704	0.85
192.923	-5.29
193.142	162.64
193.362	115.54
193.581	105.3
193.8	68.44
194.02	103.25
194.239	39.76
194.458	62.29
194.678	-25.77
194.897	29.52
195.116	121.68
195.335	50
195.555	142.16
195.774	9.05
195.993	142.16
196.212	35.67
196.432	74.58
196.651	2.9
196.87	35.67
197.089	238.42
197.308	86.87
197.528	97.11
197.747	-52.39
197.966	35.67
198.185	158.55
198.404	0.85
198.623	136.02
198.842	189.27
199.062	78.68
199.281	99.16
199.5	37.72
199.719	39.76
199.938	82.77
200.157	142.16
200.376	109.4
200.595	95.06
200.814	76.63
201.033	-5.29
201.252	82.77
201.471	56.15
201.69	156.5
201.909	60.24
202.128	68.44
202.347	-7.34
202.566	72.53
202.785	-13.48
203.004	-27.82
203.223	287.57
203.442	119.64
203.661	-19.63
203.879	52.05
204.098	166.74
204.317	-17.58
204.536	168.79
204.755	115.54
204.974	119.64
205.193	-31.91
205.411	101.2
205.63	119.64
205.849	93.01
206.068	107.35
206.287	23.38
206.505	181.07
206.724	13.14
206.943	35.67
207.162	52.05
207.381	17.24
207.599	68.44
207.818	-27.82
208.037	2.9
208.255	21.33
208.474	121.68
208.693	-3.24
208.911	31.57
209.13	113.49
209.349	35.67
209.567	60.24
209.786	105.3
210.005	185.17
210.223	0.85
210.442	-44.2
210.661	66.39
210.879	37.72
211.098	56.15
211.316	109.4
211.535	158.55
211.753	76.63
211.972	66.39
212.191	74.58
212.409	107.35
212.628	68.44
212.846	80.72
213.065	60.24
213.283	60.24
213.502	58.2
213.72	11.09
213.938	144.21
214.157	56.15
214.375	93.01
214.594	35.67
214.812	93.01
215.031	-19.63
215.249	146.26
215.467	103.25
215.686	35.67
215.904	68.44
216.122	37.72
216.341	136.02
216.559	58.2
216.778	131.92
216.996	162.64
217.214	-33.96
217.432	35.67
217.651	-23.72
217.869	21.33
218.087	50
218.306	90.96
218.524	125.78
218.742	66.39
218.96	150.36
219.179	25.43
219.397	86.87
219.615	199.51
219.833	84.82
220.051	37.72
220.27	115.54
220.488	150.36
220.706	95.06
220.924	56.15
221.142	-38.06
221.36	164.69
221.578	78.68
221.796	66.39
222.015	84.82
222.233	56.15
222.451	201.55
222.669	-3.24
222.887	80.72
223.105	25.43
223.323	7
223.541	-9.39
223.759	19.29
223.977	105.3
224.195	234.32
224.413	103.25
224.631	101.2
224.849	107.35
225.067	195.41
225.285	37.72
225.503	-7.34
225.721	-25.77
225.939	97.11
226.157	64.34
226.375	199.51
226.592	-81.07
226.81	129.88
227.028	64.34
227.246	174.93
227.464	76.63
227.682	187.22
227.9	43.86
228.117	68.44
228.335	84.82
228.553	113.49
228.771	-7.34
228.989	47.96
229.206	146.26
229.424	58.2
229.642	58.2
229.86	-33.96
230.077	138.07
230.295	31.57
230.513	138.07
230.731	82.77
230.948	234.32
231.166	174.93
231.384	33.62
231.601	35.67
231.819	181.07
232.037	45.91
232.254	11.09
232.472	45.91
232.689	58.2
232.907	176.98
233.125	74.58
233.342	7
233.56	54.1
233.777	35.67
233.995	37.72
234.213	95.06
234.43	140.12
234.648	74.58
234.865	45.91
235.083	90.96
235.3	97.11
235.518	111.44
235.735	107.35
235.953	86.87
236.17	35.67
236.388	60.24
236.605	66.39
236.822	66.39
237.04	146.26
237.257	88.92
237.475	33.62
237.692	15.19
237.909	107.35
238.127	-21.67
238.344	125.78
238.562	119.64
238.779	-48.3
238.996	-70.83
239.214	39.76
239.431	127.83
239.648	86.87
239.865	47.96
240.083	103.25
240.3	-46.25
240.517	4.95
240.735	52.05
240.952	154.45
241.169	78.68
241.386	86.87
241.603	31.57
241.821	60.24
242.038	76.63
242.255	158.55
242.472	-44.2
242.689	90.96
242.907	93.01
243.124	90.96
243.341	105.3
243.558	50
243.775	-11.43
243.992	-21.67
244.209	140.12
244.426	232.27
244.643	121.68
244.86	45.91
245.078	129.88
245.295	103.25
245.512	35.67
245.729	2.9
245.946	105.3
246.163	31.57
246.38	13.14
246.597	115.54
246.814	101.2
247.031	84.82
247.248	113.49
247.464	187.22
247.681	33.62
247.898	35.67
248.115	86.87
248.332	31.57
248.549	129.88
248.766	133.97
248.983	62.29
249.2	72.53
249.417	172.88
249.633	64.34
249.85	66.39
250.067	82.77
250.284	58.2
250.501	99.16
250.717	146.26
250.934	21.33
251.151	109.4
251.368	84.82
251.585	101.2
251.801	52.05
252.018	23.38
252.235	181.07
252.451	-91.31
252.668	4.95
252.885	156.5
253.102	86.87
253.318	21.33
253.535	41.81
253.752	4.95
253.968	37.72
254.185	7
254.401	95.06
254.618	86.87
254.835	35.67
255.051	166.74
255.268	99.16
255.484	74.58
255.701	17.24
255.917	127.83
256.134	-7.34
256.351	-38.06
256.567	21.33
256.784	80.72
257	-101.55
257.217	154.45
257.433	125.78
257.65	41.81
257.866	176.98
258.082	-58.54
258.299	62.29
258.515	88.92
258.732	60.24
258.948	-5.29
259.165	0.85
259.381	13.14
259.597	84.82
259.814	9.05
260.03	0.85
260.246	78.68
260.463	164.69
260.679	242.51
260.895	115.54
261.112	33.62
261.328	111.44
261.544	31.57
261.761	131.92
261.977	80.72
262.193	-11.43
262.409	144.21
262.626	72.53
262.842	90.96
263.058	2.9
263.274	248.66
263.49	-19.63
263.707	129.88
263.923	136.02
264.139	-85.16
264.355	41.81
264.571	86.87
264.787	181.07
265.004	131.92
265.22	35.67
265.436	17.24
265.652	-15.53
265.868	129.88
266.084	-62.63
266.3	50
266.516	-36.01
266.732	125.78
266.948	-3.24
267.164	21.33
267.38	60.24
267.596	70.48
267.812	154.45
268.028	31.57
268.244	15.19
268.46	50
268.676	39.76
268.892	93.01
269.108	97.11
269.324	-36.01
269.54	-58.54
269.756	125.78
269.972	-15.53
270.188	29.52
270.403	43.86
270.619	74.58
270.835	154.45
271.051	58.2
271.267	23.38
271.483	-7.34
271.698	150.36
271.914	52.05
272.13	78.68
272.346	72.53
272.562	7
272.777	136.02
272.993	25.43
273.209	-23.72
273.425	150.36
273.64	-31.91
273.856	107.35
274.072	60.24
274.287	58.2
274.503	107.35
274.719	158.55
274.934	-19.63
275.15	-89.26
275.366	39.76
275.581	-46.25
275.797	66.39
276.012	74.58
276.228	-31.91
276.444	-15.53
276.659	123.73
276.875	-5.29
277.09	80.72
277.306	101.2
277.521	125.78
277.737	74.58
277.952	152.4
278.168	88.92
278.383	76.63
278.599	56.15
278.814	70.48
279.03	43.86
279.245	136.02
279.461	117.59
279.676	78.68
279.892	-15.53
280.107	-15.53
280.322	70.48
280.538	86.87
280.753	19.29
280.969	68.44
281.184	2.9
281.399	160.59
281.615	41.81
281.83	45.91
282.045	-29.87
282.26	2.9
282.476	29.52
282.691	179.03
282.906	97.11
283.122	66.39
283.337	19.29
283.552	68.44
283.767	43.86
283.983	115.54
284.198	31.57
284.413	90.96
284.628	-66.73
284.843	45.91
285.058	133.97
285.274	64.34
285.489	-1.19
285.704	131.92
285.919	58.2
286.134	-7.34
286.349	50
286.564	54.1
286.779	226.13
286.995	-7.34
287.21	-60.59
287.425	115.54
287.64	17.24
287.855	148.31
288.07	-83.11
288.285	103.25
288.5	179.03
288.715	74.58
288.93	84.82
289.145	13.14
289.36	131.92
289.575	33.62
289.79	84.82
290.004	-9.39
290.219	148.31
290.434	68.44
290.649	-17.58
290.864	9.05
291.079	13.14
291.294	82.77
291.509	127.83
291.724	43.86
291.938	64.34
292.153	64.34
292.368	33.62
292.583	45.91
292.798	84.82
293.012	76.63
293.227	105.3
293.442	11.09
293.657	50
293.871	131.92
294.086	13.14
294.301	197.46
294.516	127.83
294.73	43.86
294.945	11.09
295.16	4.95
295.374	162.64
295.589	90.96
295.804	-1.19
296.018	133.97
296.233	90.96
296.447	144.21
296.662	-52.39
296.877	140.12
297.091	93.01
297.306	66.39
297.52	15.19
297.735	29.52
297.949	58.2
298.164	78.68
298.378	56.15
298.593	-42.15
298.807	19.29
299.022	-13.48
299.236	78.68
299.451	33.62
299.665	17.24
299.88	0.85
300.094	11.09
300.309	15.19
300.523	88.92
300.737	-9.39
300.952	88.92
301.166	84.82
301.381	-13.48
301.595	-11.43
301.809	76.63
302.024	15.19
302.238	-3.24
302.452	117.59
302.667	54.1
302.881	154.45
303.095	164.69
303.309	58.2
303.524	19.29
303.738	-56.49
303.952	58.2
304.166	80.72
304.381	-91.31
304.595	226.13
304.809	25.43
305.023	80.72
305.237	31.57
305.452	17.24
305.666	119.64
305.88	105.3
306.094	144.21
306.308	111.44
306.522	111.44
306.736	136.02
306.95	142.16
307.164	119.64
307.379	56.15
307.593	162.64
307.807	201.55
308.021	119.64
308.235	129.88
308.449	-3.24
308.663	29.52
308.877	271.19
309.091	47.96
309.305	158.55
309.519	15.19
309.733	125.78
309.947	-56.49
310.161	119.64
310.374	111.44
310.588	138.07
310.802	62.29
311.016	64.34
311.23	131.92
311.444	47.96
311.658	39.76
311.872	148.31
312.085	185.17
312.299	97.11
312.513	144.21
312.727	78.68
312.941	-31.91
313.154	15.19
313.368	97.11
313.582	84.82
313.796	29.52
314.009	80.72
314.223	84.82
314.437	70.48
314.651	56.15
314.864	35.67
315.078	-25.77
315.292	35.67
315.505	41.81
315.719	109.4
315.933	97.11
316.146	58.2
316.36	9.05
316.573	189.27
316.787	109.4
317.001	82.77
317.214	-9.39
317.428	115.54
317.641	45.91
317.855	45.91
318.068	144.21
318.282	11.09
318.495	154.45
318.709	93.01
318.922	70.48
319.136	142.16
319.349	140.12
319.563	43.86
319.776	99.16
319.99	-36.01
320.203	111.44
320.417	29.52
320.63	62.29
320.843	127.83
321.057	58.2
321.27	72.53
321.483	58.2
321.697	142.16
321.91	62.29
322.124	37.72
322.337	-29.87
322.55	0.85
322.763	43.86
322.977	58.2
323.19	27.48
323.403	90.96
323.617	97.11
323.83	80.72
324.043	62.29
324.256	52.05
324.469	-7.34
324.683	68.44
324.896	9.05
325.109	90.96
325.322	-56.49
325.535	78.68
325.748	129.88
325.962	19.29
326.175	25.43
326.388	35.67
326.601	95.06
326.814	105.3
327.027	90.96
327.24	185.17
327.453	-54.44
327.666	95.06
327.879	113.49
328.092	84.82
328.305	25.43
328.518	-7.34
328.731	-3.24
328.944	-11.43
329.157	164.69
329.37	21.33
329.583	176.98
329.796	107.35
330.009	-58.54
330.222	170.83
330.435	99.16
330.648	41.81
330.861	60.24
331.073	95.06
331.286	107.35
331.499	68.44
331.712	62.29
331.925	56.15
332.138	25.43
332.35	142.16
332.563	-29.87
332.776	52.05
332.989	60.24
333.202	41.81
333.414	39.76
333.627	29.52
333.84	-42.15
334.053	95.06
334.265	-9.39
334.478	88.92
334.691	88.92
334.903	66.39
335.116	-3.24
335.329	68.44
335.541	86.87
335.754	162.64
335.966	74.58
336.179	84.82
336.392	13.14
336.604	68.44
336.817	119.64
337.029	29.52
337.242	68.44
337.454	127.83
337.667	62.29
337.88	80.72
338.092	64.34
338.305	119.64
338.517	-46.25
338.729	93.01
338.942	131.92
339.154	-70.83
339.367	-33.96
339.579	82.77
339.792	-52.39
340.004	115.54
340.217	47.96
340.429	115.54
340.641	-19.63
340.854	9.05
341.066	45.91
341.278	215.89
341.491	228.18
341.703	103.25
341.915	9.05
342.128	2.9
342.34	64.34
342.552	25.43
342.764	11.09
342.977	74.58
343.189	37.72
343.401	43.86
343.613	-5.29
343.826	58.2
344.038	-42.15
344.25	60.24
344.462	33.62
344.674	41.81
344.886	-9.39
345.099	56.15
345.311	62.29
345.523	52.05
345.735	-64.68
345.947	19.29
346.159	148.31
346.371	97.11
346.583	80.72
346.795	209.75
347.007	4.95
347.219	107.35
347.431	70.48
347.643	146.26
347.855	7
348.067	166.74
348.279	50
348.491	54.1
348.703	54.1
348.915	9.05
349.127	-13.48
349.339	60.24
349.551	29.52
349.763	140.12
349.975	33.62
350.187	193.36
350.399	201.55
350.61	99.16
350.822	15.19
351.034	119.64
351.246	-7.34
351.458	123.73
351.669	33.62
351.881	88.92
352.093	84.82
352.305	189.27
352.517	72.53
352.728	76.63
352.94	-3.24
353.152	117.59
353.363	-79.02
353.575	45.91
353.787	105.3
353.999	127.83
354.21	197.46
354.422	29.52
354.633	4.95
354.845	119.64
355.057	41.81
355.268	41.81
355.48	113.49
355.692	-11.43
355.903	123.73
356.115	-13.48
356.326	-76.97
356.538	197.46
356.749	129.88
356.961	123.73
357.172	35.67
357.384	41.81
357.595	197.46
357.807	41.81
358.018	19.29
358.23	80.72
358.441	138.07
358.653	138.07
358.864	43.86
359.075	-17.58
359.287	99.16
359.498	103.25
359.709	146.26
359.921	68.44
360.132	95.06
360.344	136.02
360.555	29.52
360.766	68.44
360.977	41.81
361.189	162.64
361.4	58.2
361.611	105.3
361.823	172.88
362.034	64.34
362.245	-38.06
362.456	56.15
362.667	117.59
362.879	123.73
363.09	129.88
363.301	103.25
363.512	-62.63
363.723	62.29
363.935	37.72
364.146	60.24
364.357	58.2
364.568	45.91
364.779	70.48
364.99	176.98
365.201	-89.26
365.412	176.98
365.623	-17.58
365.834	41.81
366.045	144.21
366.256	166.74
366.467	95.06
366.678	84.82
366.889	-19.63
367.1	64.34
367.311	160.59
367.522	70.48
367.733	103.25
367.944	72.53
368.155	45.91
368.366	111.44
368.577	133.97
368.788	101.2
368.999	17.24
369.209	117.59
369.42	342.86
369.631	228.18
369.842	54.1
370.053	41.81
370.264	109.4
370.474	-9.39
370.685	103.25
370.896	27.48
371.107	144.21
371.317	146.26
371.528	54.1
371.739	138.07
371.95	125.78
372.16	31.57
372.371	-36.01
372.582	127.83
372.792	109.4
373.003	88.92
373.214	62.29
373.424	125.78
373.635	-56.49
373.846	174.93
374.056	113.49
374.267	64.34
374.477	115.54
374.688	70.48
374.898	82.77
375.109	84.82
375.319	125.78
375.53	127.83
375.74	131.92
375.951	35.67
376.161	136.02
376.372	138.07
376.582	27.48
376.793	90.96
377.003	60.24
377.214	-21.67
377.424	131.92
377.635	33.62
377.845	-19.63
378.055	125.78
378.266	19.29
378.476	-36.01
378.686	90.96
378.897	21.33
379.107	58.2
379.317	156.5
379.528	-27.82
379.738	123.73
379.948	-62.63
380.158	160.59
380.369	95.06
380.579	97.11
380.789	90.96
380.999	172.88
381.21	19.29
381.42	78.68
381.63	54.1
381.84	125.78
382.05	164.69
382.261	115.54
382.471	111.44
382.681	97.11
382.891	107.35
383.101	121.68
383.311	11.09
383.521	99.16
383.731	119.64
383.941	156.5
384.151	127.83
384.361	15.19
384.571	154.45
384.781	95.06
384.991	160.59
385.201	215.89
385.411	168.79
385.621	150.36
385.831	105.3
386.041	68.44
386.251	90.96
386.461	82.77
386.671	68.44
386.881	47.96
387.091	-5.29
387.301	150.36
387.511	11.09
387.72	138.07
387.93	129.88
388.14	-58.54
388.35	23.38
388.56	168.79
388.769	117.59
388.979	105.3
389.189	-7.34
389.399	78.68
389.609	150.36
389.818	90.96
390.028	43.86
390.238	21.33
390.447	-48.3
390.657	142.16
390.867	7
391.076	-68.78
391.286	129.88
391.496	82.77
391.705	136.02
391.915	181.07
392.125	113.49
392.334	-21.67
392.544	125.78
392.753	66.39
392.963	-25.77
393.172	82.77
393.382	21.33
393.591	265.04
393.801	66.39
394.01	90.96
394.22	224.08
394.429	172.88
394.639	4.95
394.848	50
395.058	119.64
395.267	105.3
395.477	64.34
395.686	78.68
395.895	295.76
396.105	191.31
396.314	62.29
396.524	41.81
396.733	99.16
396.942	105.3
397.152	62.29
397.361	170.83
397.57	70.48
397.78	52.05
397.989	105.3
398.198	189.27
398.407	13.14
398.617	72.53
398.826	52.05
399.035	31.57
399.244	86.87
399.453	129.88
399.663	183.12
399.872	115.54
400.081	-31.91
400.29	129.88
400.499	17.24
400.708	133.97
400.917	95.06
401.127	64.34
401.336	25.43
401.545	162.64
401.754	140.12
401.963	93.01
402.172	64.34
402.381	7
402.59	-9.39
402.799	47.96
403.008	199.51
403.217	64.34
403.426	95.06
403.635	21.33
403.844	62.29
404.053	99.16
404.262	45.91
404.471	127.83
404.68	115.54
404.888	60.24
405.097	127.83
405.306	50
405.515	131.92
405.724	45.91
405.933	172.88
406.142	82.77
406.35	152.4
406.559	4.95
406.768	66.39
406.977	166.74
407.185	97.11
407.394	68.44
407.603	-36.01
407.812	39.76
408.02	209.75
408.229	107.35
408.438	47.96
408.646	56.15
408.855	56.15
409.064	19.29
409.272	39.76
409.481	68.44
409.69	-38.06
409.898	-13.48
410.107	72.53
410.315	113.49
410.524	41.81
410.733	78.68
410.941	45.91
411.15	107.35
411.358	54.1
411.567	236.37
411.775	47.96
411.984	80.72
412.192	25.43
412.401	84.82
412.609	179.03
412.818	172.88
413.026	101.2
413.234	0.85
413.443	84.82
413.651	-17.58
413.86	211.79
414.068	88.92
414.276	199.51
414.485	-23.72
414.693	160.59
414.901	166.74
415.11	113.49
415.318	72.53
415.526	78.68
415.734	119.64
415.943	17.24
416.151	142.16
416.359	58.2
416.567	80.72
416.776	82.77
416.984	113.49
417.192	240.47
417.4	35.67
417.608	29.52
417.817	54.1
418.025	172.88
418.233	170.83
418.441	17.24
418.649	-40.11
418.857	72.53
419.065	209.75
419.273	0.85
419.481	107.35
419.689	105.3
419.897	-17.58
420.105	-1.19
420.313	187.22
420.521	191.31
420.729	133.97
420.937	29.52
421.145	25.43
421.353	127.83
421.561	203.6
421.769	52.05
421.977	23.38
422.185	152.4
422.393	62.29
422.601	152.4
422.809	115.54
423.017	64.34
423.224	123.73
423.432	129.88
423.64	101.2
423.848	168.79
424.056	7
424.263	93.01
424.471	64.34
424.679	205.65
424.887	72.53
425.094	201.55
425.302	148.31
425.51	156.5
425.718	86.87
425.925	90.96
426.133	56.15
426.341	129.88
426.548	62.29
426.756	66.39
426.964	123.73
427.171	37.72
427.379	64.34
427.586	78.68
427.794	136.02
428.001	199.51
428.209	111.44
428.417	162.64
428.624	156.5
428.832	-40.11
429.039	56.15
429.247	107.35
429.454	133.97
429.662	224.08
429.869	133.97
430.076	133.97
430.284	197.46
430.491	228.18
430.699	154.45
430.906	267.09
431.114	131.92
431.321	93.01
431.528	136.02
431.736	189.27
431.943	201.55
432.15	197.46
432.358	183.12
432.565	279.38
432.772	60.24
432.979	187.22
433.187	144.21
433.394	195.41
433.601	166.74
433.808	258.9
434.016	238.42
434.223	277.33
434.43	224.08
434.637	260.95
434.844	187.22
435.052	138.07
435.259	281.43
435.466	224.08
435.673	236.37
435.88	232.27
436.087	252.75
436.294	363.34
436.501	314.19
436.708	322.38
436.915	283.47
437.122	398.16
437.329	279.38
437.537	308.05
437.743	361.3
437.95	408.4
438.157	328.53
438.364	320.34
438.571	361.3
438.778	385.87
438.985	404.3
439.192	455.5
439.399	330.58
439.606	416.59
439.813	463.69
440.02	596.81
440.227	605
440.433	533.33
440.64	461.65
440.847	439.12
441.054	551.76
441.261	717.64
441.467	584.52
441.674	555.85
441.881	594.76
442.088	537.42
442.294	637.77
442.501	697.16
442.708	736.07
442.914	670.54
443.121	768.84
443.328	777.03
443.534	805.71
443.741	772.94
443.948	697.16
444.154	807.75
444.361	1059.65
444.568	899.91
444.774	904.01
444.981	795.47
445.187	1059.65
445.394	1082.18
445.6	1006.41
445.807	1200.96
446.013	1170.24
446.22	1139.52
446.426	1174.34
446.633	1291.07
446.839	1393.47
447.046	1276.74
447.252	1516.35
447.459	1432.38
447.665	1473.34
447.871	1467.2
448.078	1739.58
448.284	1684.28
448.491	1790.78
448.697	1770.3
448.903	1923.9
449.11	1975.1
449.316	2003.77
449.522	2120.5
449.728	2190.13
449.935	2321.2
450.141	2241.33
450.347	2482.99
450.553	2470.7
450.76	2356.02
450.966	2646.83
451.172	2609.97
451.378	2816.81
451.584	2865.96
451.791	2945.83
451.997	2986.79
452.203	3146.53
452.409	3500.83
452.615	3545.89
452.821	3502.88
453.027	3390.24
453.233	3873.56
453.44	3787.55
453.646	3748.64
453.852	4141.85
454.058	4195.09
454.264	4442.9
454.47	4676.37
454.676	4545.3
454.882	5038.86
455.088	4813.58
455.294	5073.67
455.5	5464.83
455.705	5606.14
455.911	5901.05
456.117	5782.27
456.323	5966.59
456.529	5896.96
456.735	6589.17
456.941	6861.55
457.147	6994.67
457.352	7230.18
457.558	7498.47
457.764	7985.88
457.97	8198.87
458.176	8422.1
458.381	8905.42
458.587	8938.19
458.793	9312.97
458.999	9274.06
459.204	10826.42
459.41	11035.31
459.616	10967.73
459.821	11526.82
460.027	12028.57
460.233	12479.13
460.438	12642.96
460.644	13027.98
460.85	13365.9
461.055	14088.83
461.261	14451.32
461.466	14264.96
461.672	14461.56
461.878	16400.99
462.083	15983.2
462.289	16255.58
462.494	17148.5
462.7	17117.78
462.905	17416.78
463.111	18842.17
463.316	19960.36
463.522	20021.8
463.727	20775.45
463.932	21535.24
464.138	22256.13
464.343	22919.67
464.549	23632.36
464.754	24846.81
464.959	25346.51
465.165	26163.65
465.37	25754.06
465.575	26038.73
465.781	27457.97
465.986	28406.18
466.191	27943.34
466.397	28133.8
466.602	27347.38
466.807	28924.32
467.012	29415.83
467.218	30083.47
467.423	30478.72
467.628	31170.94
467.833	32635.24
468.038	31852.91
468.244	31539.57
468.449	33059.16
468.654	32246.12
468.859	32375.14
469.064	32514.41
469.269	31451.51
469.474	31682.93
469.679	32696.67
469.885	31615.35
470.09	32213.35
470.295	32334.18
470.5	31816.05
470.705	32067.95
470.91	30828.93
471.115	30708.1
471.32	30957.95
471.525	31000.96
471.73	29923.72
471.935	29389.2
472.139	28918.17
472.344	28826.01
472.549	28420.52
472.754	28174.76
472.959	27460.02
473.164	26708.41
473.369	26286.53
473.574	26855.87
473.778	26483.14
473.983	25752.01
474.188	25567.7
474.393	24353.25
474.598	24105.45
474.802	23290.35
475.007	23388.66
475.212	23187.96
475.417	21889.54
475.621	21697.03
475.826	22045.19
476.031	21078.55
476.235	20918.81
476.44	20849.18
476.645	20138.53
476.849	20062.76
477.054	19882.53
477.259	19434.03
477.463	19343.92
477.668	19008.05
477.872	18674.23
478.077	18238.02
478.282	17910.34
478.486	17590.86
478.691	17343.05
478.895	17367.63
479.1	17107.54
479.304	17078.86
479.509	16450.14
479.713	16632.41
479.918	16321.12
480.122	15979.11
480.326	15979.11
480.531	16030.3
480.735	15659.62
480.94	15528.55
481.144	15907.43
481.348	15002.22
481.553	15235.69
481.757	14879.35
481.961	15147.63
482.166	15329.9
482.37	14887.54
482.574	14606.97
482.778	14463.61
482.983	14770.8
483.187	14645.88
483.391	14434.94
483.595	14201.47
483.8	13871.75
484.004	13855.36
484.208	13752.96
484.412	13793.92
484.616	13814.4
484.821	13597.32
485.025	13105.81
485.229	13187.72
485.433	13034.13
485.637	12735.12
485.841	12704.4
486.045	12472.98
486.249	12145.31
486.453	11834.02
486.657	11958.94
486.861	11700.9
487.065	11530.92
487.269	11465.38
487.473	10988.21
487.677	11201.19
487.881	10939.05
488.085	10760.88
488.289	10601.14
488.493	10263.22
488.697	10334.9
488.901	10052.28
489.105	9824.96
489.309	9861.82
489.512	9669.31
489.716	9339.59
489.92	9167.56
490.124	8981.2
490.328	9044.68
490.531	8817.36
490.735	8723.15
490.939	8411.86
491.143	8131.29
491.346	8145.63
491.55	8221.4
491.754	7934.68
491.958	7942.88
492.161	7664.35
492.365	7531.23
492.569	7291.62
492.772	7375.59
492.976	7359.21
493.18	7164.65
493.383	7236.33
493.587	7221.99
493.79	6949.61
493.994	6673.14
494.197	6638.32
494.401	6740.72
494.605	6722.29
494.808	6720.24
495.012	6480.63
495.215	6585.07
495.419	6642.42
495.622	6365.94
495.825	6449.91
496.029	6404.85
496.232	6486.77
496.436	6331.12
496.639	6517.49
496.843	6306.55
497.046	6165.24
497.249	6527.73
497.453	6349.56
497.656	6376.18
497.859	6324.98
498.063	6449.91
498.266	6560.5
498.469	6388.47
498.673	6257.4
498.876	6167.29
499.079	6451.95
499.282	6646.51
499.485	6787.82
499.689	6599.41
499.892	6791.92
500.095	6712.05
500.298	6785.77
500.501	6591.22
500.705	6769.39
500.908	6777.58
501.111	6839.02
501.314	7002.86
501.517	7123.69
501.72	6925.04
501.923	7111.4
502.126	7203.56
502.329	7422.69
502.532	7430.88
502.735	7363.3
502.938	7613.15
503.141	7623.39
503.344	7486.18
503.547	8045.27
503.75	7920.35
503.953	8135.39
504.156	8114.91
504.359	8375
504.562	8364.76
504.765	8436.44
504.968	8622.8
505.17	8782.54
505.373	8807.12
505.576	9171.66
505.779	9040.59
505.982	9323.21
506.185	9589.44
506.387	9343.69
506.59	9904.83
506.793	9978.56
506.996	10040
507.198	10506.93
507.401	10623.67
507.604	10713.78
507.807	10965.68
508.009	11039.4
508.212	11403.94
508.415	11442.85
508.617	12018.33
508.82	11983.52
509.022	11922.08
509.225	12448.41
509.428	12755.6
509.63	13142.67
509.833	12872.34
510.035	13951.62
510.238	13847.17
510.44	14211.71
510.643	14504.57
510.845	14738.04
511.048	14942.83
511.25	15293.04
511.453	15479.4
511.655	16278.11
511.858	16220.77
512.06	16747.09
512.262	17023.57
512.465	17244.75
512.667	17705.54
512.87	18037.31
513.072	18403.9
513.274	18977.33
513.477	19278.38
513.679	19919.4
513.881	20369.95
514.084	20746.78
514.286	21043.73
514.488	21092.88
514.69	22112.77
514.893	22383.1
515.095	22632.96
515.297	23433.71
515.499	23452.14
515.701	23957.99
515.904	24873.43
516.106	25416.15
516.308	25733.58
516.51	26313.16
516.712	26259.91
516.914	27304.37
517.116	27654.58
517.318	27746.73
517.52	28516.77
517.722	28774.81
517.925	29643.15
518.127	29999.5
518.329	30714.24
518.531	30759.3
518.733	31515
518.935	32147.82
519.136	32303.46
519.338	33022.3
519.54	33366.36
519.742	33796.43
519.944	33931.6
520.146	34765.12
520.348	35223.87
520.55	35672.37
520.752	35686.71
520.954	36559.14
521.155	36649.25
521.357	36960.55
521.559	37402.91
521.761	38689.03
521.963	38000.91
522.164	38424.84
522.366	38852.87
522.568	39366.91
522.77	39241.98
522.971	40030.45
523.173	40130.8
523.375	40251.63
523.576	40280.3
523.778	40177.9
523.98	40667.37
524.181	41261.28
524.383	41146.59
524.584	41322.72
524.786	41062.63
524.988	41095.39
525.189	41703.64
525.391	41840.85
525.592	41494.75
525.794	41474.27
525.995	41492.7
526.197	41232.61
526.398	41056.48
526.6	41138.4
526.801	40685.8
527.003	40843.49
527.204	40720.62
527.406	41185.5
527.607	40280.3
527.808	40591.59
528.01	39334.14
528.211	39696.63
528.412	39938.29
528.614	39379.2
528.815	38869.25
529.016	39106.82
529.218	38582.54
529.419	38224.14
529.62	37437.72
529.822	37646.61
530.023	37181.73
530.224	36860.19
530.425	36587.82
530.626	35504.44
530.828	35508.54
531.029	35811.63
531.23	34736.45
531.431	34484.55
531.632	34203.98
531.833	33937.74
532.035	32979.29
532.236	32696.67
532.437	32987.49
532.638	32088.43
532.839	32051.56
533.04	31369.59
533.241	30876.03
533.442	31068.54
533.643	30325.13
533.844	29815.18
534.045	29686.16
534.246	28617.12
534.447	28535.2
534.648	28381.6
534.849	28141.99
535.05	27482.55
535.251	26995.13
535.451	26700.22
535.652	26589.63
535.853	25903.56
536.054	25735.63
536.255	25354.71
536.456	24967.64
536.657	25096.66
536.857	24046.05
537.058	23857.64
537.259	23716.33
537.46	23359.98
537.66	23103.99
537.861	22745.59
538.062	22526.46
538.263	22159.88
538.463	21805.58
538.664	21522.96
538.865	21482
539.065	21078.55
539.266	20707.87
539.466	20636.19
539.667	19970.6
539.868	19876.39
540.068	19991.08
540.269	19305.01
540.469	19266.1
540.67	18960.95
540.87	18782.77
541.071	18659.9
541.271	18412.09
541.472	18227.78
541.672	17885.76
541.873	17726.02
542.073	17461.83
542.274	17697.35
542.474	17230.41
542.675	17257.04
542.875	16958.03
543.075	16652.89
543.276	16237.15
543.476	16222.81
543.676	16251.49
543.877	16151.13
544.077	16003.68
544.277	15667.81
544.478	15364.71
544.678	15348.33
544.878	15090.29
545.078	15086.19
545.279	14611.06
545.479	14434.94
545.679	14314.11
545.879	14205.56
546.079	14000.77
546.28	13972.1
546.48	13949.57
546.68	13699.72
546.88	13537.93
547.08	13224.59
547.28	13349.51
547.48	12825.23
547.68	12714.64
547.88	12587.67
548.081	12485.27
548.281	12485.27
548.481	12362.39
548.681	12202.65
548.881	12059.29
549.081	11657.89
549.28	11541.16
549.48	11338.41
549.68	11276.97
549.88	11303.59
550.08	10879.66
550.28	10717.87
550.48	10734.26
550.68	10586.8
550.88	10363.58
551.08	10252.98
551.279	10314.42
551.479	9966.27
551.679	10031.8
551.879	9310.92
552.079	9775.81
552.278	9255.62
552.478	9368.26
552.678	9163.47
552.878	9284.3
553.077	8837.84
553.277	8624.85
553.477	8768.21
553.676	8461.01
553.876	8340.18
554.076	8250.07
554.275	8075.99
554.475	7856.86
554.674	7977.69
554.874	7776.99
555.074	7541.47
555.273	7604.96
555.473	7265
555.672	7322.34
555.872	7121.64
556.071	7068.39
556.271	7273.19
556.47	6802.16
556.67	6953.71
556.869	6537.97
557.068	6351.6
557.268	6351.6
557.467	6292.21
557.667	6249.21
557.866	5946.11
558.065	5919.48
558.265	5845.76
558.464	5688.06
558.663	5700.35
558.863	5608.19
559.062	5581.57
559.261	5311.24
559.461	5624.58
559.66	5171.97
559.859	5202.69
560.058	5040.9
560.258	5034.76
560.457	4862.73
560.656	4944.65
560.855	4719.37
561.054	4793.1
561.253	4657.93
561.453	4735.76
561.652	4621.07
561.851	4657.93
562.05	4289.3
562.249	4272.92
562.448	4301.59
562.647	4127.51
562.846	4084.5
563.045	4186.9
563.244	4014.87
563.443	4133.65
563.642	3894.04
563.841	3820.32
564.04	3810.08
564.239	3816.22
564.438	3586.85
564.637	3603.23
564.836	3590.94
565.035	3400.48
565.234	3531.55
565.432	3279.65
565.631	3363.62
565.83	3341.09
566.029	3248.93
566.228	3394.34
566.427	3300.13
566.625	3068.71
566.824	3203.88
567.023	3060.52
567.222	2947.88
567.42	3070.76
567.619	2951.98
567.818	2839.34
568.016	2913.06
568.215	2843.43
568.414	2859.82
568.612	2927.4
568.811	2669.36
569.01	2749.23
569.208	2550.57
569.407	2689.84
569.605	2550.57
569.804	2456.37
570.002	2579.25
570.201	2433.84
570.4	2505.52
570.598	2409.26
570.797	2331.44
570.995	2310.96
571.193	2253.62
571.392	2292.53
571.59	2040.63
571.789	2290.48
571.987	2245.43
572.186	2227
572.384	2036.53
572.582	2095.93
572.781	2155.32
572.979	1938.23
573.177	1995.57
573.376	1983.29
573.574	2054.97
573.772	1946.42
573.971	1622.84
574.169	1688.38
574.367	1825.59
574.565	1731.39
574.763	1768.25
574.962	1745.72
575.16	1678.14
575.358	1606.46
575.556	1721.15
575.754	1588.03
575.952	1717.05
576.151	1612.6
576.349	1506.11
576.547	1377.09
576.745	1499.97
576.943	1528.64
577.141	1379.14
577.339	1321.79
577.537	1391.42
577.735	1528.64
577.933	1395.52
578.131	1311.55
578.329	1387.33
578.527	1340.22
578.725	1350.46
578.923	1250.11
579.121	1352.51
579.319	1229.63
579.516	1254.21
579.714	1430.34
579.912	1141.57
580.11	1117
580.308	1141.57
580.506	1090.37
580.704	1002.31
580.901	1000.26
581.099	1131.33
581.297	1133.38
581.495	1022.79
581.692	1102.66
581.89	1227.59
582.088	1000.26
582.285	947.01
582.483	961.35
582.681	959.3
582.878	971.59
583.076	928.58
583.274	934.73
583.471	1106.76
583.669	906.06
583.866	879.43
584.064	844.62
584.262	799.56
584.459	805.71
584.657	893.77
584.854	926.54
585.052	846.66
585.249	916.3
585.447	811.85
585.644	717.64
585.841	838.47
586.039	846.66
586.236	838.47
586.434	791.37
586.631	717.64
586.828	674.64
587.026	715.59
587.223	656.2
587.42	678.73
587.618	766.79
587.815	797.51
588.012	627.53
588.21	617.29
588.407	705.35
588.604	680.78
588.801	523.09
588.999	648.01
589.196	713.55
589.393	684.87
589.59	668.49
589.787	674.64
589.984	717.64
590.182	602.96
590.379	551.76
590.576	551.76
590.773	588.62
590.97	545.61
591.167	613.2
591.364	527.18
591.561	514.89
591.758	703.31
591.955	666.44
592.152	582.48
592.349	475.98
592.546	594.76
592.743	562
592.94	619.34
593.137	598.86
593.334	684.87
593.531	617.29
593.727	686.92
593.924	633.68
594.121	525.13
594.318	521.04
594.515	580.43
594.712	770.89
594.908	760.65
595.105	521.04
595.302	703.31
595.499	613.2
595.696	756.55
595.892	676.68
596.089	750.41
596.286	621.39
596.482	740.17
596.679	787.27
596.876	582.48
597.072	719.69
597.269	789.32
597.466	678.73
597.662	764.75
597.859	725.83
598.055	817.99
598.252	883.53
598.448	883.53
598.645	922.44
598.841	1030.98
599.038	1055.56
599.234	1131.33
599.431	1102.66
599.627	1184.58
599.824	1041.22
600.02	1030.98
600.217	1172.29
600.413	1286.98
600.609	1284.93
600.806	1674.04
601.002	1420.1
601.198	1385.28
601.395	1577.79
601.591	1469.25
601.787	1682.24
601.984	1659.71
602.18	1772.35
602.376	1768.25
602.572	1983.29
602.769	2044.73
602.965	1899.32
603.161	2100.02
603.357	2202.42
603.553	2337.59
603.75	2159.41
603.946	2292.53
604.142	2435.89
604.338	2558.77
604.534	2478.9
604.73	2669.36
604.926	2763.56
605.122	2888.49
605.318	2896.68
605.514	3169.06
605.71	2935.59
605.906	3277.6
606.102	3199.78
606.298	3578.65
606.494	3488.54
606.69	3453.73
606.886	3730.2
607.082	3816.22
607.278	3842.84
607.474	3947.29
607.67	4066.07
607.866	4021.02
608.062	4442.9
608.257	4537.1
608.453	4576.02
608.649	4690.7
608.845	4721.42
609.041	4860.68
609.236	4977.42
609.432	5131.02
609.628	5327.62
609.824	5432.07
610.019	5610.24
610.215	5722.88
610.411	5976.83
610.606	6046.46
610.802	6122.23
610.998	6314.74
611.193	6796.01
611.389	6570.74
611.584	6961.9
611.78	7119.59
611.976	7226.09
612.171	7594.72
612.367	7727.84
612.562	7901.92
612.758	8114.91
612.953	8045.27
613.149	8372.95
613.344	8768.21
613.539	8985.29
613.735	9394.89
613.93	9390.79
614.126	9550.53
614.321	9923.26
614.517	10289.85
614.712	10498.74
614.907	10797.74
615.103	11084.46
615.298	11164.33
615.493	11459.24
615.688	11838.11
615.884	12219.03
616.079	12403.35
616.274	12575.38
616.47	13114
616.665	13392.52
616.86	13587.08
617.055	14090.88
617.25	14287.48
617.445	14799.48
617.641	14938.74
617.836	15458.92
618.031	15647.33
618.226	16286.3
618.421	16396.89
618.616	16937.55
618.811	16955.99
619.006	17744.45
619.201	17912.39
619.396	18299.45
619.591	18461.24
619.786	19470.89
619.981	19845.67
620.176	20156.96
620.371	20341.28
620.566	20785.69
620.761	21461.52
620.956	21723.66
621.151	22041.09
621.346	22897.14
621.541	22563.33
621.735	23945.7
621.93	23640.56
622.125	24322.53
622.32	24603.1
622.515	25412.05
622.709	25747.92
622.904	26237.38
623.099	26587.58
623.294	27378.1
623.488	27306.42
623.683	28168.62
623.878	28316.07
624.072	29116.83
624.267	29327.77
624.462	29811.09
624.656	29931.92
624.851	30775.68
625.046	31097.21
625.24	31385.97
625.435	31795.57
625.629	32481.64
625.824	32944.48
626.018	33233.24
626.213	33122.65
626.407	33732.95
626.602	33966.42
626.796	34593.09
626.991	35146.05
627.185	35199.29
627.38	35424.57
627.574	35658.04
627.768	35832.11
627.963	35840.31
628.157	35991.86
628.352	36129.07
628.546	35789.11
628.74	36563.24
628.935	35832.11
629.129	36454.7
629.323	35924.27
629.517	36147.5
629.712	35260.73
629.906	35520.82
630.1	34726.21
630.294	34961.73
630.489	34412.87
630.683	34347.34
630.877	33098.08
631.071	32665.95
631.265	32428.39
631.459	31807.86
631.653	31052.16
631.848	30783.87
632.042	29573.52
632.236	29215.13
632.43	28256.68
632.624	27840.94
632.818	26569.15
633.012	25952.71
633.206	25100.76
633.4	24383.97
633.594	23497.2
633.788	22919.67
633.982	22262.27
634.176	21244.43
634.369	20316.7
634.563	19550.76
634.757	18692.66
634.951	18307.65
635.145	17674.82
635.339	16761.43
635.533	16046.69
635.726	15649.38
635.92	14803.57
636.114	14271.1
636.308	13759.11
636.501	13236.88
636.695	12669.59
636.889	12036.77
637.083	11780.77
637.276	11446.95
637.47	10599.09
637.664	10216.12
637.857	10007.23
638.051	9654.98
638.244	8999.63
638.438	8807.12
638.632	8643.28
638.825	7920.35
639.019	7910.11
639.212	7451.36
639.406	7267.05
639.599	6959.85
639.793	6642.42
639.986	6441.72
640.18	6222.58
640.373	5952.25
640.567	5743.36
640.76	5597.95
640.954	5346.05
641.147	5038.86
641.34	4911.88
641.534	4811.53
641.727	4567.82
641.92	4684.56
642.114	4231.96
642.307	3984.15
642.5	3855.13
642.694	3765.02
642.887	3631.9
643.08	3621.66
643.273	3404.58
643.467	3265.32
643.66	3105.57
643.853	2947.88
644.046	2917.16
644.239	2931.5
644.432	2644.78
644.626	2495.28
644.819	2540.33
645.012	2415.41
645.205	2345.78
645.398	2313.01
645.591	2143.03
645.784	2167.6
645.977	1942.33
646.17	1827.64
646.363	1760.06
646.556	1772.35
646.749	1626.94
646.942	1676.09
647.135	1604.41
647.328	1604.41
647.521	1438.53
647.714	1448.77
647.907	1391.42
648.099	1194.82
648.292	1416
648.485	1278.79
648.678	1192.77
648.871	1176.39
649.064	994.12
649.256	985.93
649.449	1014.6
649.642	854.86
649.835	947.01
650.027	844.62
650.22	934.73
650.413	897.86
650.605	910.15
650.798	750.41
650.991	791.37
651.183	738.12
651.376	777.03
651.568	639.82
651.761	650.06
651.954	660.3
652.146	564.04
652.339	740.17
652.531	693.07
652.724	514.89
652.916	453.45
653.109	420.69
653.301	609.1
653.494	617.29
653.686	516.94
653.879	547.66
654.071	539.47
654.263	463.69
654.456	432.97
654.648	490.32
654.84	488.27
655.033	349.01
655.225	492.37
655.417	303.95
655.61	547.66
655.802	465.74
655.994	445.26
656.186	412.5
656.379	406.35
656.571	320.34
656.763	279.38
656.955	301.9
657.148	299.86
657.34	379.73
657.532	320.34
657.724	271.19
657.916	303.95
658.108	375.63
658.3	330.58
658.492	232.27
658.684	310.1
658.876	316.24
659.068	211.79
659.26	187.22
659.452	191.31
659.644	293.71
659.836	385.87
660.028	281.43
660.22	164.69
660.412	248.66
660.604	179.03
660.796	301.9
660.988	289.62
661.18	199.51
661.372	314.19
661.563	236.37
661.755	267.09
661.947	170.83
662.139	152.4
662.331	146.26
662.522	197.46
662.714	152.4
662.906	68.44
663.097	174.93
663.289	125.78
663.481	90.96
663.673	254.8
663.864	193.36
664.056	162.64
664.247	176.98
664.439	222.03
664.631	230.23
664.822	222.03
665.014	168.79
665.205	174.93
665.397	224.08
665.588	203.6
665.78	101.2
665.971	144.21
666.163	131.92
666.354	201.55
666.546	215.89
666.737	109.4
666.929	179.03
667.12	181.07
667.311	168.79
667.503	168.79
667.694	209.75
667.885	117.59
668.077	183.12
668.268	52.05
668.459	166.74
668.651	199.51
668.842	117.59
669.033	99.16
669.224	146.26
669.416	320.34
669.607	97.11
669.798	21.33
669.989	195.41
670.18	97.11
670.371	146.26
670.563	31.57
670.754	183.12
670.945	99.16
671.136	199.51
671.327	97.11
671.518	238.42
671.709	303.95
671.9	209.75
672.091	226.13
672.282	158.55
672.473	88.92
672.664	136.02
672.855	113.49
673.046	158.55
673.237	191.31
673.428	127.83
673.619	185.17
673.809	127.83
674	201.55
674.191	234.32
674.382	133.97
674.573	95.06
674.764	125.78
674.954	174.93
675.145	88.92
675.336	117.59
675.527	88.92
675.717	64.34
675.908	121.68
676.099	76.63
676.289	156.5
676.48	84.82
676.671	90.96
676.861	111.44
677.052	101.2
677.243	99.16
677.433	68.44
677.624	265.04
677.814	183.12
678.005	146.26
678.195	248.66
678.386	90.96
678.576	146.26
678.767	66.39
678.957	164.69
679.148	207.7
679.338	314.19
679.529	144.21
679.719	41.81
679.909	179.03
680.1	201.55
680.29	158.55
680.481	7
680.671	191.31
680.861	142.16
681.052	166.74
681.242	103.25
681.432	166.74
681.622	228.18
681.813	154.45
682.003	93.01
682.193	52.05
682.383	150.36
682.573	82.77
682.764	176.98
682.954	242.51
683.144	189.27
683.334	113.49
683.524	217.94
683.714	187.22
683.904	197.46
684.094	191.31
684.284	213.84
684.474	316.24
684.664	236.37
684.854	176.98
685.044	207.7
685.234	164.69
685.424	205.65
685.614	162.64
685.804	252.75
685.994	228.18
686.184	82.77
686.374	254.8
686.564	150.36
686.753	244.56
686.943	154.45
687.133	170.83
687.323	164.69
687.513	269.14
687.702	162.64
687.892	166.74
688.082	240.47
688.272	303.95
688.461	168.79
688.651	293.71
688.841	271.19
689.03	191.31
689.22	189.27
689.41	219.99
689.599	211.79
689.789	189.27
689.979	262.99
690.168	164.69
690.358	217.94
690.547	222.03
690.737	117.59
690.926	136.02
691.116	230.23
691.305	217.94
691.495	213.84
691.684	133.97
691.874	215.89
692.063	258.9
692.252	287.57
692.442	277.33
692.631	136.02
692.82	197.46
693.01	176.98
693.199	224.08
693.388	226.13
693.578	166.74
693.767	224.08
693.956	244.56
694.146	60.24
694.335	244.56
694.524	144.21
694.713	142.16
694.902	201.55
695.092	244.56
695.281	191.31
695.47	162.64
695.659	179.03
695.848	211.79
696.037	164.69
696.226	230.23
696.415	189.27
696.604	328.53
696.793	252.75
696.982	185.17
697.171	357.2
697.36	205.65
697.549	189.27
697.738	29.52
697.927	115.54
698.116	82.77
698.305	265.04
698.494	279.38
698.683	185.17
698.872	299.86
699.061	97.11
699.25	185.17
699.438	232.27
699.627	129.88
699.816	357.2
700.005	107.35
700.193	99.16
700.382	201.55
700.571	158.55
700.76	142.16
700.948	230.23
701.137	260.95
701.326	252.75
701.514	187.22
701.703	271.19
701.892	111.44
702.08	303.95
702.269	129.88
702.457	138.07
702.646	168.79
702.834	191.31
703.023	256.85
703.212	215.89
703.4	217.94
703.589	133.97
703.777	146.26
703.965	72.53
704.154	150.36
704.342	54.1
704.531	203.6
704.719	146.26
704.907	277.33
705.096	68.44
705.284	148.31
705.472	138.07
705.661	107.35
705.849	183.12
706.037	244.56
706.226	275.28
706.414	142.16
706.602	107.35
706.79	219.99
706.979	123.73
707.167	166.74
707.355	45.91
707.543	150.36
707.731	191.31
707.919	195.41
708.107	140.12
708.296	74.58
708.484	95.06
708.672	185.17
708.86	170.83
709.048	146.26
709.236	117.59
709.424	203.6
709.612	201.55
709.8	90.96
709.988	127.83
710.176	189.27
710.364	232.27
710.551	84.82
710.739	78.68
710.927	197.46
711.115	168.79
711.303	183.12
711.491	254.8
711.679	111.44
711.866	133.97
712.054	174.93
712.242	205.65
712.43	295.76
712.617	105.3
712.805	303.95
712.993	201.55
713.181	109.4
713.368	250.71
713.556	86.87
713.744	179.03
713.931	410.45
714.119	215.89
714.306	140.12
714.494	119.64
714.682	248.66
714.869	164.69
715.057	131.92
715.244	121.68
715.432	185.17
715.619	133.97
715.807	232.27
715.994	131.92
716.182	219.99
716.369	252.75
716.556	260.95
716.744	70.48
716.931	64.34
717.119	207.7
717.306	183.12
717.493	234.32
717.681	176.98
717.868	193.36
718.055	228.18
718.242	222.03
718.43	203.6
718.617	271.19
718.804	131.92
718.991	240.47
719.179	191.31
719.366	277.33
719.553	201.55
719.74	179.03
719.927	236.37
720.114	189.27
720.301	150.36
720.488	107.35
720.676	168.79
720.863	258.9
721.05	396.11
721.237	199.51
721.424	252.75
721.611	301.9
721.798	185.17
721.985	117.59
722.172	203.6
722.358	222.03
722.545	279.38
722.732	254.8
722.919	291.66
723.106	179.03
723.293	228.18
723.48	162.64
723.667	248.66
723.853	293.71
724.04	252.75
724.227	295.76
724.414	240.47
724.6	301.9
724.787	330.58
724.974	402.26
725.161	152.4
725.347	103.25
725.534	248.66
725.72	338.77
725.907	285.52
726.094	267.09
726.28	168.79
726.467	277.33
726.653	191.31
726.84	392.02
727.027	416.59
727.213	162.64
727.4	262.99
727.586	211.79
727.773	205.65
727.959	176.98
728.145	252.75
728.332	301.9
728.518	170.83
728.705	193.36
728.891	262.99
729.077	316.24
729.264	166.74
729.45	232.27
729.636	355.15
729.823	236.37
730.009	285.52
730.195	246.61
730.382	295.76
730.568	287.57
730.754	201.55
730.94	289.62
731.126	277.33
731.313	318.29
731.499	213.84
731.685	340.82
731.871	312.14
732.057	334.67
732.243	320.34
732.429	308.05
732.615	389.97
732.801	308.05
732.987	248.66
733.173	299.86
733.359	219.99
733.545	295.76
733.731	222.03
733.917	363.34
734.103	306
734.289	258.9
734.475	248.66
734.661	361.3
734.847	189.27
735.033	211.79
735.219	351.06
735.404	297.81
735.59	224.08
735.776	232.27
735.962	303.95
736.148	375.63
736.333	310.1
736.519	328.53
736.705	228.18
736.89	357.2
737.076	295.76
737.262	287.57
737.447	287.57
737.633	379.73
737.819	432.97
738.004	293.71
738.19	320.34
738.375	256.85
738.561	414.54
738.747	365.39
738.932	234.32
739.118	496.46
739.303	371.54
739.489	394.06
739.674	275.28
739.859	260.95
740.045	293.71
740.23	281.43
740.416	140.12
740.601	256.85
740.786	318.29
740.972	211.79
741.157	271.19
741.342	291.66
741.528	254.8
741.713	416.59
741.898	287.57
742.084	297.81
742.269	250.71
742.454	283.47
742.639	328.53
742.824	330.58
743.01	443.21
743.195	435.02
743.38	326.48
743.565	291.66
743.75	357.2
743.935	408.4
744.12	312.14
744.305	162.64
744.49	232.27
744.675	252.75
744.86	248.66
745.045	367.44
745.23	349.01
745.415	275.28
745.6	412.5
745.785	322.38
745.97	346.96
746.155	277.33
746.34	361.3
746.525	351.06
746.71	330.58
746.895	156.5
747.079	191.31
747.264	316.24
747.449	377.68
747.634	412.5
747.819	336.72
748.003	260.95
748.188	140.12
748.373	383.82
748.557	254.8
748.742	269.14
748.927	308.05
749.111	308.05
749.296	209.75
749.481	283.47
749.665	359.25
749.85	279.38
750.034	246.61
750.219	238.42
750.404	271.19
750.588	162.64
750.773	256.85
750.957	287.57
751.141	195.41
751.326	320.34
751.51	121.68
751.695	256.85
751.879	285.52
752.064	361.3
752.248	203.6
752.432	373.58
752.617	353.1
752.801	332.62
752.985	207.7
753.17	363.34
753.354	256.85
753.538	283.47
753.722	236.37
753.907	117.59
754.091	234.32
754.275	396.11
754.459	111.44
754.643	207.7
754.828	277.33
755.012	340.82
755.196	138.07
755.38	306
755.564	154.45
755.748	250.71
755.932	285.52
756.116	332.62
756.3	242.51
756.484	252.75
756.668	281.43
756.852	152.4
757.036	207.7
757.22	260.95
757.404	95.06
757.588	205.65
757.772	154.45
757.956	213.84
758.14	353.1
758.323	189.27
758.507	273.23
758.691	105.3
758.875	234.32
759.059	258.9
759.242	183.12
759.426	226.13
759.61	226.13
759.794	170.83
759.977	258.9
760.161	381.78
760.345	209.75
760.528	287.57
760.712	242.51
760.895	215.89
761.079	191.31
761.263	62.29
761.446	146.26
761.63	189.27
761.813	291.66
761.997	142.16
762.18	205.65
762.364	250.71
762.547	68.44
762.731	138.07
762.914	181.07
763.098	146.26
763.281	195.41
763.464	179.03
763.648	127.83
763.831	185.17
764.015	150.36
764.198	242.51
764.381	154.45
764.564	148.31
764.748	156.5
764.931	140.12
765.114	101.2
765.297	203.6
765.481	82.77
765.664	103.25
765.847	138.07
766.03	242.51
766.213	170.83
766.397	179.03
766.58	86.87
766.763	174.93
766.946	109.4
767.129	133.97
767.312	109.4
767.495	131.92
767.678	195.41
767.861	129.88
768.044	187.22
768.227	197.46
768.41	105.3
768.593	226.13
768.776	189.27
768.959	111.44
769.142	219.99
769.324	117.59
769.507	121.68
769.69	113.49
769.873	86.87
770.056	322.38
770.239	158.55
770.421	215.89
770.604	144.21
770.787	138.07
770.97	136.02
771.152	88.92
771.335	205.65
771.518	99.16
771.7	148.31
771.883	314.19
772.066	56.15
772.248	205.65
772.431	176.98
772.613	176.98
772.796	140.12
772.978	148.31
773.161	275.28
773.343	127.83
773.526	107.35
773.708	-56.49
773.891	-40.11
774.073	84.82
774.256	121.68
774.438	279.38
774.621	9.05
774.803	164.69
774.985	107.35
775.168	189.27
775.35	125.78
775.532	170.83
775.715	142.16
775.897	195.41
776.079	117.59
776.261	160.59
776.444	119.64
776.626	84.82
776.808	72.53
776.99	29.52
777.173	88.92
777.355	80.72
777.537	107.35
777.719	148.31
777.901	88.92
778.083	-15.53
778.265	43.86
778.447	146.26
778.629	70.48
778.811	64.34
778.993	209.75
779.175	142.16
779.357	183.12
779.539	7
779.721	172.88
779.903	158.55
780.085	-17.58
780.267	82.77
780.449	150.36
780.631	54.1
780.812	164.69
780.994	66.39
781.176	88.92
781.358	86.87
781.54	41.81
781.721	164.69
781.903	121.68
782.085	72.53
782.267	162.64
782.448	-50.35
782.63	76.63
782.812	43.86
782.993	123.73
783.175	127.83
783.357	82.77
783.538	76.63
783.72	47.96
783.901	80.72
784.083	107.35
784.264	90.96
784.446	11.09
784.627	37.72
784.809	101.2
784.99	64.34
785.172	125.78
785.353	105.3
785.535	76.63
785.716	7
785.897	39.76
786.079	68.44
786.26	99.16
786.441	52.05
786.623	15.19
786.804	0.85
786.985	7
787.167	170.83
787.348	56.15
787.529	60.24
787.71	183.12
787.891	148.31
788.073	2.9
788.254	13.14
788.435	140.12
788.616	47.96
788.797	-7.34
788.978	68.44
789.159	37.72
789.34	74.58
789.522	66.39
789.703	88.92
789.884	76.63
790.065	64.34
790.246	219.99
790.427	54.1
790.607	144.21
790.788	201.55
790.969	-1.19
791.15	103.25
791.331	-15.53
791.512	82.77
791.693	-3.24
791.874	-27.82
792.054	168.79
792.235	201.55
792.416	33.62
792.597	54.1
792.778	76.63
792.958	123.73
793.139	68.44
793.32	33.62
793.5	-31.91
793.681	156.5
793.862	70.48
794.042	45.91
794.223	19.29
794.404	72.53
794.584	-111.78
794.765	-15.53
794.945	54.1
795.126	199.51
795.306	119.64
795.487	11.09
795.667	82.77
795.848	58.2
796.028	54.1
796.209	76.63
796.389	84.82
796.57	-19.63
796.75	-36.01
796.93	29.52
797.111	-9.39
797.291	37.72
797.471	74.58
797.652	-38.06
797.832	-48.3
798.012	127.83
798.192	62.29
798.373	25.43
798.553	45.91
798.733	50
798.913	-25.77
799.093	-21.67
799.274	74.58
799.454	47.96
799.634	170.83
799.814	60.24
799.994	62.29
800.174	76.63
800.354	0.85
800.534	-87.21
800.714	90.96
800.894	-64.68
801.074	-29.87
801.254	33.62
801.434	154.45
801.614	-7.34
801.794	47.96
801.974	1868.6
802.154	84.82
802.334	146.26
802.514	-19.63
802.693	72.53
802.873	78.68
803.053	82.77
803.233	2.9
803.413	-21.67
803.592	33.62
803.772	-5.29
803.952	68.44
804.131	-79.02
804.311	93.01
804.491	95.06
804.67	17.24
804.85	-50.35
805.03	119.64
805.209	107.35
805.389	17.24
805.568	25.43
805.748	25.43
805.928	47.96
806.107	88.92
806.287	148.31
806.466	119.64
806.646	41.81
806.825	-9.39
807.004	-42.15
807.184	111.44
807.363	72.53
807.543	17.24
807.722	-40.11
807.901	133.97
808.081	52.05
808.26	-95.4
808.439	29.52
808.619	27.48
808.798	-17.58
808.977	95.06
809.156	125.78
809.336	56.15
809.515	107.35
809.694	-3.24
809.873	64.34
810.052	103.25
810.231	146.26
810.411	-40.11
810.59	37.72
810.769	72.53
810.948	164.69
811.127	-15.53
811.306	-33.96
811.485	-15.53
811.664	179.03
811.843	25.43
812.022	54.1
812.201	-81.07
812.38	-56.49
812.559	13.14
812.737	74.58
812.916	11.09
813.095	-89.26
813.274	50
813.453	23.38
813.632	103.25
813.811	101.2
813.989	-72.87
814.168	50
814.347	2.9
814.526	-29.87
814.704	217.94
814.883	129.88
815.062	-42.15
815.24	35.67
815.419	-31.91
815.598	88.92
815.776	-44.2
815.955	17.24
816.133	-107.69
816.312	121.68
816.49	29.52
816.669	74.58
816.847	21.33
817.026	99.16
817.204	19.29
817.383	-54.44
817.561	-44.2
817.74	103.25
817.918	-15.53
818.097	-38.06
818.275	-79.02
818.453	33.62
818.632	111.44
818.81	11.09
818.988	-23.72
819.167	-9.39
819.345	-29.87
819.523	-5.29
819.701	25.43
819.879	21.33
820.058	-3.24
820.236	111.44
820.414	33.62
820.592	-23.72
820.77	9.05
820.948	31.57
821.127	39.76
821.305	43.86
821.483	-13.48
821.661	52.05
821.839	84.82
822.017	-1.19
822.195	31.57
822.373	95.06
822.551	-33.96
822.729	7
822.907	99.16
823.085	133.97
823.262	39.76
823.44	-56.49
823.618	-21.67
823.796	-9.39
823.974	31.57
824.152	31.57
824.329	-38.06
824.507	-25.77
824.685	41.81
824.863	17.24
825.04	-70.83
825.218	43.86
825.396	-11.43
825.574	47.96
825.751	27.48
825.929	156.5
826.107	15.19
826.284	66.39
826.462	105.3
826.639	15.19
826.817	-23.72
826.994	56.15
827.172	-60.59
827.349	197.46
827.527	43.86
827.704	47.96
827.882	95.06
828.059	-68.78
828.237	-56.49
828.414	62.29
828.591	-74.92
828.769	7
828.946	-62.63
829.124	76.63
829.301	144.21
829.478	-17.58
829.655	33.62
829.833	-5.29
830.01	-64.68
830.187	39.76
830.364	13.14
830.542	4.95
830.719	127.83
830.896	99.16
831.073	-5.29
831.25	72.53
831.427	138.07
831.604	31.57
831.782	-25.77
831.959	60.24
832.136	21.33
832.313	74.58
832.49	-7.34
832.667	90.96
832.844	-27.82
833.021	66.39
833.198	97.11
833.374	25.43
833.551	76.63
833.728	33.62
833.905	115.54
834.082	-52.39
834.259	50
834.436	64.34
834.612	-25.77
834.789	121.68
834.966	13.14
835.143	-25.77
835.319	-93.35
835.496	66.39
835.673	54.1
835.85	47.96
836.026	70.48
836.203	58.2
836.38	-33.96
836.556	15.19
836.733	72.53
836.909	88.92
837.086	-72.87
837.262	-44.2
837.439	78.68
837.616	-54.44
837.792	0.85
837.968	45.91
838.145	-74.92
838.321	58.2
838.498	138.07
838.674	62.29
838.851	60.24
839.027	-64.68
839.203	25.43
839.38	84.82
839.556	-19.63
839.732	111.44
839.909	52.05
840.085	35.67
840.261	56.15
840.437	-5.29
840.614	-9.39
840.79	86.87
840.966	50
841.142	15.19
841.318	17.24
841.494	25.43
841.671	86.87
841.847	-3.24
842.023	-15.53
842.199	62.29
842.375	82.77
842.551	9.05
842.727	-48.3
842.903	156.5
843.079	-11.43
843.255	76.63
843.431	-52.39
843.607	119.64
843.783	-58.54
843.959	39.76
844.134	-58.54
844.31	99.16
844.486	-54.44
844.662	-40.11
844.838	21.33
845.013	37.72
845.189	99.16
845.365	72.53
845.541	21.33
845.716	101.2
845.892	82.77
846.068	58.2
846.244	-9.39
846.419	27.48
846.595	-54.44
846.77	-33.96
846.946	35.67
847.122	-101.55
847.297	-27.82
847.473	123.73
847.648	-140.46
847.824	-46.25
847.999	-62.63
848.175	-21.67
848.35	-9.39
848.526	109.4
848.701	131.92
848.876	76.63
849.052	170.83
849.227	29.52
849.403	7
849.578	9.05
849.753	-13.48
849.929	35.67
850.104	-54.44
850.279	-11.43
850.454	15.19
850.63	148.31
850.805	74.58
850.98	29.52
851.155	41.81
851.33	29.52
851.505	-19.63
851.681	193.36
851.856	-23.72
852.031	99.16
852.206	11.09
852.381	-72.87
852.556	7
852.731	-3.24
852.906	115.54
853.081	37.72
853.256	121.68
853.431	56.15
853.606	-42.15
853.781	-19.63
853.956	-154.79
854.131	31.57
854.305	-33.96
854.48	-11.43
854.655	-40.11
854.83	19.29
855.005	-42.15
855.18	80.72
855.354	9.05
855.529	0.85
855.704	-25.77
855.879	50
856.053	-56.49
856.228	39.76
856.403	-13.48
856.577	-29.87
856.752	-36.01
856.926	19.29
857.101	50
857.276	-25.77
857.45	72.53
857.625	15.19
857.799	13.14
857.974	15.19
858.148	-111.78
858.323	35.67
858.497	25.43
858.672	-29.87
858.846	21.33
859.02	121.68
859.195	-66.73
859.369	-19.63
859.543	-9.39
859.718	45.91
859.892	-11.43
860.066	52.05
860.241	-7.34
860.415	-56.49
860.589	-11.43
860.763	27.48
860.938	25.43
861.112	80.72
861.286	0.85
861.46	64.34
861.634	19.29
861.808	95.06
861.982	19.29
862.157	-91.31
862.331	0.85
862.505	-119.98
862.679	-91.31
862.853	-23.72
863.027	-5.29
863.201	129.88
863.375	-54.44
863.549	-1.19
863.722	97.11
863.896	154.45
864.07	-74.92
864.244	-15.53
864.418	66.39
864.592	41.81
864.766	37.72
864.939	25.43
865.113	-62.63
865.287	37.72
865.461	-52.39
865.634	68.44
865.808	-3.24
865.982	-27.82
866.156	-81.07
866.329	-36.01
866.503	56.15
866.676	105.3
866.85	13.14
867.024	-11.43
867.197	74.58
867.371	-40.11
867.544	66.39
867.718	-85.16
867.891	181.07
868.065	-105.64
868.238	-9.39
868.412	17.24
868.585	4.95
868.759	-3.24
868.932	33.62
869.105	-40.11
869.279	41.81
869.452	-11.43
869.625	64.34
869.799	-25.77
869.972	-91.31
870.145	-56.49
870.319	111.44
870.492	15.19
870.665	0.85
870.838	-36.01
871.011	-89.26
871.185	-60.59
871.358	-87.21
871.531	33.62
871.704	-132.26
871.877	11.09
872.05	-23.72
872.223	-144.55
872.396	84.82
872.569	74.58
872.742	-68.78
872.915	25.43
873.088	-68.78
873.261	-79.02
873.434	125.78
873.607	4.95
873.78	84.82
873.953	-52.39
874.126	-40.11
874.299	4.95
874.471	-58.54
874.644	31.57
874.817	-11.43
874.99	160.59
875.163	-21.67
875.335	7
875.508	37.72
875.681	76.63
875.853	-40.11
876.026	103.25
876.199	74.58
876.371	113.49
876.544	11.09
876.717	33.62
876.889	-50.35
877.062	7
877.234	-103.59
877.407	-7.34
877.579	19.29
877.752	-3.24
877.924	66.39
878.097	84.82
878.269	50
878.442	82.77
878.614	80.72
878.786	-23.72
878.959	17.24
879.131	68.44
879.303	-134.31
879.476	0.85
879.648	23.38
879.82	-38.06
879.993	-23.72
880.165	-76.97
880.337	25.43
880.509	-23.72
880.681	-66.73
880.854	-107.69
881.026	78.68
881.198	133.97
881.37	27.48
881.542	111.44
881.714	9.05
881.886	64.34
882.058	37.72
882.23	29.52
882.402	-31.91
882.574	-3.24
882.746	62.29
882.918	148.31
883.09	95.06
883.262	23.38
883.434	78.68
883.606	-68.78
883.778	19.29
883.95	121.68
884.122	0.85
884.293	27.48
884.465	29.52
884.637	101.2
884.809	17.24
884.98	35.67
885.152	9.05
885.324	58.2
885.496	-58.54
885.667	-76.97
885.839	39.76
886.011	183.12
886.182	2.9
886.354	107.35
886.525	41.81
886.697	43.86
886.869	-68.78
887.04	-33.96
887.212	60.24
887.383	166.74
887.555	31.57
887.726	-19.63
887.897	33.62
888.069	-21.67
888.24	90.96
888.412	-66.73
888.583	-19.63
888.754	19.29
888.926	-64.68
889.097	17.24
889.268	-27.82
889.44	97.11
889.611	-50.35
889.782	-50.35
889.953	-60.59
890.125	131.92
890.296	-130.22
890.467	-19.63
890.638	95.06
890.809	-17.58
890.98	-89.26
891.151	54.1
891.323	125.78
891.494	0.85
891.665	-36.01
891.836	-23.72
892.007	9.05
892.178	45.91
892.349	-11.43
892.52	-52.39
892.691	107.35
892.862	45.91
893.032	-19.63
893.203	7
893.374	-31.91
893.545	52.05
893.716	-83.11
893.887	54.1
894.057	-1.19
894.228	117.59
894.399	-33.96
894.57	60.24
894.74	23.38
894.911	-9.39
895.082	-1.19
895.253	-17.58
895.423	80.72
895.594	64.34
895.764	35.67
895.935	-124.07
896.106	62.29
896.276	-50.35
896.447	-17.58
896.617	-79.02
896.788	-97.45
896.958	-1.19
897.129	-62.63
897.299	-19.63
897.47	45.91
897.64	119.64
897.81	27.48
897.981	78.68
898.151	-58.54
898.322	-19.63
898.492	29.52
898.662	-42.15
898.832	-23.72
899.003	-3.24
899.173	95.06
899.343	-97.45
899.513	-150.7
