Data from USB4F104151__22__10-23-45-345.txt Node

Date: Wed Feb 26 10:23:45 EST 2025
User: louis
Spectrometer: USB4F10415
Trigger mode: 4
Integration Time (sec): 1.000000E-1
Scans to average: 1
Electric dark correction enabled: true
Nonlinearity correction enabled: false
Boxcar width: 0
XAxis mode: Wavelengths
Number of Pixels in Spectrum: 3648
>>>>>Begin Spectral Data<<<<<
178.204	-418.3
178.424	-418.3
178.644	-418.3
178.864	-438.78
179.084	-457.21
179.304	17.92
179.524	-39.42
179.744	38.4
179.964	3.58
180.184	-25.09
180.404	79.36
180.624	9.73
180.844	-41.47
181.064	-70.14
181.283	3.58
181.503	-16.9
181.723	40.45
181.943	-137.73
182.163	169.47
182.383	32.26
182.602	50.69
182.822	144.89
183.042	85.5
183.262	-8.7
183.482	48.64
183.701	-74.24
183.921	-80.38
184.141	-82.43
184.361	19.97
184.58	32.26
184.8	-16.9
185.02	-59.9
185.239	40.45
185.459	24.06
185.679	114.17
185.898	-156.16
186.118	48.64
186.338	7.68
186.557	112.13
186.777	-14.85
186.997	-23.04
187.216	-6.66
187.436	198.14
187.655	48.64
187.875	87.55
188.095	36.35
188.314	75.26
188.534	89.6
188.753	-113.15
188.973	108.03
189.192	196.09
189.412	15.87
189.631	-10.75
189.851	58.88
190.07	62.98
190.29	-37.38
190.509	46.59
190.729	-10.75
190.948	56.83
191.168	278.01
191.387	73.21
191.607	7.68
191.826	30.21
192.045	50.69
192.265	-49.66
192.484	42.5
192.704	-0.51
192.923	-100.86
193.142	216.57
193.362	42.5
193.581	58.88
193.8	56.83
194.02	110.08
194.239	-39.42
194.458	60.93
194.678	36.35
194.897	-66.05
195.116	52.74
195.335	71.17
195.555	67.07
195.774	-31.23
195.993	87.55
196.212	54.78
196.432	50.69
196.651	1.54
196.87	-8.7
197.089	181.76
197.308	58.88
197.528	52.74
197.747	-45.57
197.966	34.3
198.185	128.51
198.404	-57.86
198.623	17.92
198.842	105.98
199.062	95.74
199.281	128.51
199.5	89.6
199.719	108.03
199.938	48.64
200.157	38.4
200.376	91.65
200.595	159.23
200.814	44.54
201.033	24.06
201.252	99.84
201.471	89.6
201.69	69.12
201.909	1.54
202.128	60.93
202.347	108.03
202.566	30.21
202.785	-131.58
203.004	-74.24
203.223	235
203.442	177.66
203.661	22.02
203.879	46.59
204.098	17.92
204.317	24.06
204.536	87.55
204.755	91.65
204.974	71.17
205.193	-84.48
205.411	95.74
205.63	69.12
205.849	120.32
206.068	30.21
206.287	50.69
206.505	163.33
206.724	73.21
206.943	7.68
207.162	48.64
207.381	42.5
207.599	42.5
207.818	69.12
208.037	65.02
208.255	13.82
208.474	34.3
208.693	34.3
208.911	3.58
209.13	38.4
209.349	99.84
209.567	130.56
209.786	112.13
210.005	95.74
210.223	48.64
210.442	-199.16
210.661	75.26
210.879	77.31
211.098	32.26
211.316	50.69
211.535	110.08
211.753	46.59
211.972	-6.66
212.191	-16.9
212.409	60.93
212.628	52.74
212.846	-31.23
213.065	60.93
213.283	95.74
213.502	50.69
213.72	56.83
213.938	54.78
214.157	-25.09
214.375	42.5
214.594	56.83
214.812	75.26
215.031	24.06
215.249	89.6
215.467	-12.8
215.686	17.92
215.904	136.7
216.122	36.35
216.341	132.61
216.559	77.31
216.778	108.03
216.996	85.5
217.214	-55.81
217.432	-68.09
217.651	-37.38
217.869	138.75
218.087	28.16
218.306	-29.18
218.524	15.87
218.742	71.17
218.96	87.55
219.179	-37.38
219.397	81.41
219.615	192
219.833	73.21
220.051	-4.61
220.27	50.69
220.488	83.45
220.706	69.12
220.924	-27.14
221.142	-61.95
221.36	22.02
221.578	42.5
221.796	-35.33
222.015	30.21
222.233	69.12
222.451	230.91
222.669	-78.33
222.887	91.65
223.105	-20.99
223.323	60.93
223.541	-76.29
223.759	73.21
223.977	32.26
224.195	167.42
224.413	50.69
224.631	32.26
224.849	52.74
225.067	183.81
225.285	-16.9
225.503	-12.8
225.721	-102.91
225.939	52.74
226.157	28.16
226.375	185.85
226.592	-80.38
226.81	36.35
227.028	91.65
227.246	101.89
227.464	17.92
227.682	118.27
227.9	-14.85
228.117	110.08
228.335	24.06
228.553	-25.09
228.771	95.74
228.989	81.41
229.206	69.12
229.424	1.54
229.642	-6.66
229.86	22.02
230.077	97.79
230.295	-41.47
230.513	138.75
230.731	32.26
230.948	198.14
231.166	54.78
231.384	-10.75
231.601	44.54
231.819	97.79
232.037	38.4
232.254	-104.96
232.472	52.74
232.689	-61.95
232.907	46.59
233.125	-66.05
233.342	-82.43
233.56	-4.61
233.777	-33.28
233.995	-33.28
234.213	69.12
234.43	56.83
234.648	99.84
234.865	15.87
235.083	40.45
235.3	28.16
235.518	81.41
235.735	130.56
235.953	48.64
236.17	56.83
236.388	56.83
236.605	36.35
236.822	95.74
237.04	73.21
237.257	28.16
237.475	40.45
237.692	62.98
237.909	89.6
238.127	-25.09
238.344	42.5
238.562	58.88
238.779	-43.52
238.996	3.58
239.214	15.87
239.431	114.17
239.648	9.73
239.865	38.4
240.083	13.82
240.3	-29.18
240.517	-33.28
240.735	40.45
240.952	116.22
241.169	95.74
241.386	124.41
241.603	-33.28
241.821	-41.47
242.038	54.78
242.255	130.56
242.472	-18.94
242.689	71.17
242.907	19.97
243.124	1.54
243.341	40.45
243.558	22.02
243.775	15.87
243.992	-70.14
244.209	24.06
244.426	163.33
244.643	77.31
244.86	-27.14
245.078	124.41
245.295	56.83
245.512	-0.51
245.729	13.82
245.946	-4.61
246.163	30.21
246.38	-23.04
246.597	48.64
246.814	-51.71
247.031	77.31
247.248	-57.86
247.464	67.07
247.681	48.64
247.898	73.21
248.115	11.78
248.332	-27.14
248.549	89.6
248.766	148.99
248.983	99.84
249.2	73.21
249.417	99.84
249.633	-4.61
249.85	81.41
250.067	40.45
250.284	5.63
250.501	36.35
250.717	-41.47
250.934	-6.66
251.151	-29.18
251.368	22.02
251.585	93.69
251.801	91.65
252.018	-47.62
252.235	71.17
252.451	-115.2
252.668	-8.7
252.885	56.83
253.102	-2.56
253.318	-43.52
253.535	-2.56
253.752	-16.9
253.968	34.3
254.185	-74.24
254.401	-23.04
254.618	30.21
254.835	3.58
255.051	112.13
255.268	140.8
255.484	69.12
255.701	-10.75
255.917	28.16
256.134	19.97
256.351	19.97
256.567	42.5
256.784	-2.56
257	-125.44
257.217	93.69
257.433	17.92
257.65	15.87
257.866	132.61
258.082	-41.47
258.299	-12.8
258.515	9.73
258.732	-23.04
258.948	56.83
259.165	-25.09
259.381	-66.05
259.597	50.69
259.814	9.73
260.03	-10.75
260.246	44.54
260.463	163.33
260.679	134.65
260.895	60.93
261.112	24.06
261.328	-29.18
261.544	69.12
261.761	204.28
261.977	-29.18
262.193	-8.7
262.409	93.69
262.626	56.83
262.842	50.69
263.058	22.02
263.274	91.65
263.49	42.5
263.707	93.69
263.923	91.65
264.139	-72.19
264.355	7.68
264.571	85.5
264.787	40.45
265.004	103.93
265.22	-8.7
265.436	-16.9
265.652	-51.71
265.868	77.31
266.084	-61.95
266.3	30.21
266.516	-25.09
266.732	56.83
266.948	24.06
267.164	-31.23
267.38	99.84
267.596	48.64
267.812	122.37
268.028	50.69
268.244	-12.8
268.46	91.65
268.676	13.82
268.892	65.02
269.108	44.54
269.324	-33.28
269.54	-59.9
269.756	132.61
269.972	-8.7
270.188	32.26
270.403	15.87
270.619	-8.7
270.835	93.69
271.051	-27.14
271.267	-8.7
271.483	-12.8
271.698	62.98
271.914	65.02
272.13	28.16
272.346	-0.51
272.562	105.98
272.777	85.5
272.993	89.6
273.209	40.45
273.425	62.98
273.64	-29.18
273.856	30.21
274.072	-43.52
274.287	7.68
274.503	124.41
274.719	122.37
274.934	-33.28
275.15	-100.86
275.366	-29.18
275.581	-76.29
275.797	13.82
276.012	71.17
276.228	-68.09
276.444	52.74
276.659	62.98
276.875	-49.66
277.09	-72.19
277.306	-8.7
277.521	89.6
277.737	32.26
277.952	71.17
278.168	19.97
278.383	42.5
278.599	-47.62
278.814	69.12
279.03	-41.47
279.245	169.47
279.461	48.64
279.676	140.8
279.892	-74.24
280.107	-16.9
280.322	-18.94
280.538	65.02
280.753	-86.53
280.969	-33.28
281.184	46.59
281.399	28.16
281.615	-12.8
281.83	73.21
282.045	-51.71
282.26	-23.04
282.476	-16.9
282.691	38.4
282.906	52.74
283.122	22.02
283.337	-70.14
283.552	110.08
283.767	38.4
283.983	118.27
284.198	-47.62
284.413	69.12
284.628	-80.38
284.843	52.74
285.058	81.41
285.274	9.73
285.489	-12.8
285.704	169.47
285.919	-39.42
286.134	7.68
286.349	-23.04
286.564	-66.05
286.779	138.75
286.995	-8.7
287.21	-33.28
287.425	44.54
287.64	40.45
287.855	-10.75
288.07	-127.49
288.285	146.94
288.5	146.94
288.715	-8.7
288.93	-16.9
289.145	-82.43
289.36	128.51
289.575	-70.14
289.79	11.78
290.004	-57.86
290.219	110.08
290.434	7.68
290.649	-25.09
290.864	-25.09
291.079	-47.62
291.294	95.74
291.509	91.65
291.724	5.63
291.938	-41.47
292.153	75.26
292.368	5.63
292.583	48.64
292.798	99.84
293.012	73.21
293.227	60.93
293.442	15.87
293.657	60.93
293.871	151.04
294.086	58.88
294.301	173.57
294.516	34.3
294.73	11.78
294.945	-16.9
295.16	114.17
295.374	151.04
295.589	91.65
295.804	-29.18
296.018	17.92
296.233	161.28
296.447	69.12
296.662	-33.28
296.877	112.13
297.091	52.74
297.306	28.16
297.52	38.4
297.735	81.41
297.949	13.82
298.164	26.11
298.378	36.35
298.593	-29.18
298.807	17.92
299.022	-51.71
299.236	134.65
299.451	93.69
299.665	-70.14
299.88	40.45
300.094	-0.51
300.309	11.78
300.523	48.64
300.737	3.58
300.952	42.5
301.166	36.35
301.381	-23.04
301.595	28.16
301.809	-6.66
302.024	-53.76
302.238	-0.51
302.452	159.23
302.667	-45.57
302.881	120.32
303.095	122.37
303.309	-18.94
303.524	-45.57
303.738	24.06
303.952	1.54
304.166	60.93
304.381	-92.67
304.595	185.85
304.809	-20.99
305.023	58.88
305.237	-80.38
305.452	32.26
305.666	95.74
305.88	67.07
306.094	124.41
306.308	42.5
306.522	65.02
306.736	-10.75
306.95	151.04
307.164	-57.86
307.379	5.63
307.593	130.56
307.807	126.46
308.021	99.84
308.235	71.17
308.449	-2.56
308.663	9.73
308.877	222.72
309.091	15.87
309.305	58.88
309.519	-14.85
309.733	77.31
309.947	-66.05
310.161	32.26
310.374	62.98
310.588	155.13
310.802	58.88
311.016	-2.56
311.23	-33.28
311.444	-51.71
311.658	36.35
311.872	198.14
312.085	136.7
312.299	153.09
312.513	116.22
312.727	-18.94
312.941	-43.52
313.154	26.11
313.368	-39.42
313.582	40.45
313.796	83.45
314.009	1.54
314.223	148.99
314.437	-10.75
314.651	122.37
314.864	-96.77
315.078	-27.14
315.292	-20.99
315.505	28.16
315.719	128.51
315.933	50.69
316.146	-25.09
316.36	11.78
316.573	85.5
316.787	56.83
317.001	46.59
317.214	-45.57
317.428	34.3
317.641	-88.57
317.855	-10.75
318.068	99.84
318.282	60.93
318.495	159.23
318.709	54.78
318.922	-2.56
319.136	95.74
319.349	103.93
319.563	-14.85
319.776	19.97
319.99	-86.53
320.203	30.21
320.417	-4.61
320.63	71.17
320.843	122.37
321.057	19.97
321.27	36.35
321.483	40.45
321.697	97.79
321.91	15.87
322.124	13.82
322.337	-29.18
322.55	-14.85
322.763	-20.99
322.977	-6.66
323.19	13.82
323.403	34.3
323.617	91.65
323.83	183.81
324.043	67.07
324.256	85.5
324.469	-16.9
324.683	5.63
324.896	-4.61
325.109	36.35
325.322	-94.72
325.535	142.85
325.748	50.69
325.962	-8.7
326.175	50.69
326.388	56.83
326.601	124.41
326.814	24.06
327.027	40.45
327.24	144.89
327.453	-27.14
327.666	73.21
327.879	155.13
328.092	95.74
328.305	79.36
328.518	-20.99
328.731	5.63
328.944	-16.9
329.157	60.93
329.37	7.68
329.583	224.76
329.796	60.93
330.009	-29.18
330.222	99.84
330.435	56.83
330.648	-37.38
330.861	38.4
331.073	34.3
331.286	128.51
331.499	110.08
331.712	7.68
331.925	116.22
332.138	7.68
332.35	208.38
332.563	-55.81
332.776	146.94
332.989	-66.05
333.202	-18.94
333.414	34.3
333.627	-2.56
333.84	15.87
334.053	24.06
334.265	-14.85
334.478	-31.23
334.691	-18.94
334.903	40.45
335.116	-4.61
335.329	-33.28
335.541	122.37
335.754	159.23
335.966	-31.23
336.179	69.12
336.392	19.97
336.604	40.45
336.817	95.74
337.029	11.78
337.242	-41.47
337.454	67.07
337.667	11.78
337.88	192
338.092	3.58
338.305	67.07
338.517	11.78
338.729	24.06
338.942	173.57
339.154	-43.52
339.367	-35.33
339.579	-49.66
339.792	-70.14
340.004	73.21
340.217	89.6
340.429	79.36
340.641	-6.66
340.854	40.45
341.066	28.16
341.278	126.46
341.491	118.27
341.703	144.89
341.915	-18.94
342.128	116.22
342.34	28.16
342.552	-37.38
342.764	54.78
342.977	-43.52
343.189	116.22
343.401	-4.61
343.613	-76.29
343.826	9.73
344.038	-94.72
344.25	52.74
344.462	-39.42
344.674	112.13
344.886	-18.94
345.099	44.54
345.311	67.07
345.523	32.26
345.735	-88.57
345.947	110.08
346.159	67.07
346.371	87.55
346.583	7.68
346.795	202.24
347.007	28.16
347.219	108.03
347.431	19.97
347.643	91.65
347.855	9.73
348.067	134.65
348.279	-57.86
348.491	85.5
348.703	58.88
348.915	54.78
349.127	-66.05
349.339	7.68
349.551	-78.33
349.763	99.84
349.975	34.3
350.187	28.16
350.399	138.75
350.61	95.74
350.822	54.78
351.034	97.79
351.246	-6.66
351.458	60.93
351.669	15.87
351.881	87.55
352.093	161.28
352.305	103.93
352.517	60.93
352.728	99.84
352.94	122.37
353.152	105.98
353.363	5.63
353.575	87.55
353.787	171.52
353.999	89.6
354.21	108.03
354.422	-45.57
354.633	19.97
354.845	-92.67
355.057	1.54
355.268	75.26
355.48	153.09
355.692	-35.33
355.903	3.58
356.115	-82.43
356.326	-57.86
356.538	155.13
356.749	22.02
356.961	130.56
357.172	3.58
357.384	-133.63
357.595	169.47
357.807	-2.56
358.018	-0.51
358.23	-23.04
358.441	159.23
358.653	83.45
358.864	32.26
359.075	-31.23
359.287	67.07
359.498	46.59
359.709	56.83
359.921	81.41
360.132	11.78
360.344	1.54
360.555	85.5
360.766	95.74
360.977	-20.99
361.189	118.27
361.4	-33.28
361.611	116.22
361.823	79.36
362.034	48.64
362.245	-6.66
362.456	-31.23
362.667	58.88
362.879	-82.43
363.09	138.75
363.301	91.65
363.512	13.82
363.723	9.73
363.935	-20.99
364.146	89.6
364.357	52.74
364.568	-29.18
364.779	1.54
364.99	163.33
365.201	-27.14
365.412	157.18
365.623	-33.28
365.834	32.26
366.045	-8.7
366.256	97.79
366.467	108.03
366.678	-6.66
366.889	44.54
367.1	-4.61
367.311	192
367.522	-2.56
367.733	114.17
367.944	93.69
368.155	26.11
368.366	32.26
368.577	46.59
368.788	108.03
368.999	-78.33
369.209	34.3
369.42	235
369.631	183.81
369.842	62.98
370.053	99.84
370.264	169.47
370.474	-39.42
370.685	-2.56
370.896	1.54
371.107	224.76
371.317	22.02
371.528	32.26
371.739	140.8
371.95	101.89
372.16	44.54
372.371	11.78
372.582	3.58
372.792	77.31
373.003	148.99
373.214	-4.61
373.424	40.45
373.635	-64
373.846	134.65
374.056	17.92
374.267	32.26
374.477	87.55
374.688	-18.94
374.898	56.83
375.109	89.6
375.319	19.97
375.53	22.02
375.74	77.31
375.951	58.88
376.161	124.41
376.372	134.65
376.582	19.97
376.793	42.5
377.003	17.92
377.214	44.54
377.424	52.74
377.635	56.83
377.845	85.5
378.055	56.83
378.266	-86.53
378.476	11.78
378.686	52.74
378.897	1.54
379.107	161.28
379.317	26.11
379.528	15.87
379.738	46.59
379.948	-20.99
380.158	116.22
380.369	32.26
380.579	69.12
380.789	-37.38
380.999	34.3
381.21	19.97
381.42	194.05
381.63	28.16
381.84	89.6
382.05	17.92
382.261	77.31
382.471	118.27
382.681	-18.94
382.891	126.46
383.101	91.65
383.311	-111.1
383.521	-6.66
383.731	81.41
383.941	15.87
384.151	89.6
384.361	7.68
384.571	71.17
384.781	-6.66
384.991	241.15
385.201	97.79
385.411	26.11
385.621	44.54
385.831	-47.62
386.041	32.26
386.251	34.3
386.461	110.08
386.671	28.16
386.881	103.93
387.091	-2.56
387.301	126.46
387.511	46.59
387.72	95.74
387.93	73.21
388.14	9.73
388.35	32.26
388.56	112.13
388.769	73.21
388.979	19.97
389.189	54.78
389.399	26.11
389.609	19.97
389.818	5.63
390.028	32.26
390.238	73.21
390.447	-16.9
390.657	62.98
390.867	-55.81
391.076	-98.81
391.286	13.82
391.496	50.69
391.705	32.26
391.915	103.93
392.125	105.98
392.334	7.68
392.544	99.84
392.753	105.98
392.963	30.21
393.172	52.74
393.382	-43.52
393.591	183.81
393.801	-66.05
394.01	189.95
394.22	118.27
394.429	26.11
394.639	54.78
394.848	36.35
395.058	19.97
395.267	87.55
395.477	85.5
395.686	13.82
395.895	177.66
396.105	163.33
396.314	122.37
396.524	48.64
396.733	28.16
396.942	75.26
397.152	65.02
397.361	34.3
397.57	144.89
397.78	32.26
397.989	83.45
398.198	251.39
398.407	17.92
398.617	-41.47
398.826	54.78
399.035	40.45
399.244	103.93
399.453	22.02
399.663	-49.66
399.872	40.45
400.081	11.78
400.29	151.04
400.499	-61.95
400.708	120.32
400.917	28.16
401.127	-88.57
401.336	58.88
401.545	144.89
401.754	81.41
401.963	112.13
402.172	36.35
402.381	-139.77
402.59	-23.04
402.799	50.69
403.008	73.21
403.217	30.21
403.426	40.45
403.635	-39.42
403.844	11.78
404.053	54.78
404.262	24.06
404.471	210.43
404.68	-10.75
404.888	54.78
405.097	60.93
405.306	99.84
405.515	87.55
405.724	-10.75
405.933	118.27
406.142	-18.94
406.35	97.79
406.559	73.21
406.768	-0.51
406.977	138.75
407.185	26.11
407.394	69.12
407.603	-25.09
407.812	44.54
408.02	105.98
408.229	58.88
408.438	155.13
408.646	34.3
408.855	17.92
409.064	122.37
409.272	-16.9
409.481	24.06
409.69	-16.9
409.898	-20.99
410.107	87.55
410.315	148.99
410.524	-78.33
410.733	103.93
410.941	7.68
411.15	89.6
411.358	71.17
411.567	159.23
411.775	101.89
411.984	46.59
412.192	95.74
412.401	7.68
412.609	183.81
412.818	130.56
413.026	69.12
413.234	34.3
413.443	95.74
413.651	-41.47
413.86	50.69
414.068	69.12
414.276	142.85
414.485	52.74
414.693	155.13
414.901	101.89
415.11	75.26
415.318	32.26
415.526	46.59
415.734	62.98
415.943	1.54
416.151	189.95
416.359	-12.8
416.567	67.07
416.776	42.5
416.984	38.4
417.192	259.58
417.4	-96.77
417.608	-16.9
417.817	-6.66
418.025	36.35
418.233	103.93
418.441	-8.7
418.649	-45.57
418.857	79.36
419.065	175.61
419.273	-18.94
419.481	79.36
419.689	91.65
419.897	7.68
420.105	-45.57
420.313	136.7
420.521	173.57
420.729	132.61
420.937	-12.8
421.145	-104.96
421.353	108.03
421.561	99.84
421.769	11.78
421.977	-23.04
422.185	77.31
422.393	54.78
422.601	81.41
422.809	132.61
423.017	46.59
423.224	112.13
423.432	142.85
423.64	65.02
423.848	91.65
424.056	32.26
424.263	146.94
424.471	69.12
424.679	136.7
424.887	-104.96
425.094	192
425.302	62.98
425.51	101.89
425.718	130.56
425.925	48.64
426.133	-14.85
426.341	208.38
426.548	60.93
426.756	28.16
426.964	-14.85
427.171	11.78
427.379	71.17
427.586	120.32
427.794	189.95
428.001	81.41
428.209	81.41
428.417	110.08
428.624	95.74
428.832	105.98
429.039	91.65
429.247	130.56
429.454	62.98
429.662	226.81
429.869	128.51
430.076	105.98
430.284	153.09
430.491	192
430.699	71.17
430.906	216.57
431.114	226.81
431.321	159.23
431.528	83.45
431.736	157.18
431.943	173.57
432.15	146.94
432.358	273.92
432.565	278.01
432.772	62.98
432.979	204.28
433.187	255.48
433.394	212.48
433.601	81.41
433.808	226.81
434.016	306.68
434.223	247.29
434.43	212.48
434.637	247.29
434.844	290.3
435.052	230.91
435.259	304.64
435.466	302.59
435.673	321.02
435.88	331.26
436.087	417.27
436.294	318.97
436.501	335.35
436.708	269.82
436.915	390.65
437.122	411.13
437.329	222.72
437.537	429.56
437.743	378.36
437.95	398.84
438.157	431.61
438.364	419.32
438.571	396.79
438.778	452.09
438.985	423.42
439.192	458.23
439.399	515.58
439.606	472.57
439.813	474.62
440.02	638.45
440.227	763.38
440.433	724.47
440.64	556.54
440.847	552.44
441.054	646.65
441.261	820.72
441.467	673.27
441.674	703.99
441.881	826.87
442.088	667.13
442.294	847.35
442.501	904.69
442.708	882.16
442.914	910.83
443.121	904.69
443.328	962.03
443.534	976.37
443.741	1021.42
443.948	921.07
444.154	1101.3
444.361	1271.28
444.568	1244.65
444.774	1197.55
444.981	1158.64
445.187	1224.17
445.394	1308.14
445.6	1275.37
445.807	1502.7
446.013	1504.75
446.22	1437.16
446.426	1621.48
446.633	1619.43
446.839	1893.86
447.046	1644.01
447.252	1967.59
447.459	1842.66
447.665	1881.57
447.871	2119.14
448.078	2139.62
448.284	2106.85
448.491	2291.17
448.697	2428.38
448.903	2424.28
449.11	2469.34
449.316	2364.89
449.522	2676.18
449.728	2788.82
449.935	2827.73
450.141	2885.08
450.347	3022.29
450.553	3014.1
450.76	3194.32
450.966	3370.44
451.172	3483.08
451.378	3470.8
451.584	3616.2
451.791	3923.4
451.997	4048.32
452.203	4142.53
452.409	4271.55
452.615	4404.67
452.821	4427.2
453.027	4515.26
453.233	5031.35
453.44	4894.13
453.646	5055.92
453.852	5273.01
454.058	5551.53
454.264	5553.58
454.47	6057.38
454.676	6231.46
454.882	6630.81
455.088	6329.76
455.294	6464.93
455.5	7241.11
455.705	7427.47
455.911	7597.45
456.117	7591.31
456.323	8054.15
456.529	8029.57
456.735	8691.07
456.941	8951.16
457.147	9239.92
457.352	9620.85
457.558	9966.95
457.764	10519.9
457.97	10700.12
458.176	10876.25
458.381	11785.55
458.587	11953.48
458.793	12301.64
458.999	12512.58
459.204	14101.8
459.41	14466.34
459.616	14003.5
459.821	15183.13
460.027	15770.9
460.233	16401.67
460.438	16839.94
460.644	17624.31
460.85	17685.75
461.055	18253.03
461.261	19272.92
461.466	18752.74
461.672	19152.09
461.878	21429.43
462.083	21312.7
462.289	21552.31
462.494	22711.46
462.7	22693.03
462.905	22815.91
463.111	24781.96
463.316	26102.9
463.522	26246.26
463.727	27405.41
463.932	28634.19
464.138	29252.67
464.343	30553.13
464.549	30794.79
464.754	32762.89
464.959	33633.28
465.165	34135.03
465.37	33967.1
465.575	33885.18
465.781	36281.3
465.986	37524.42
466.191	36838.35
466.397	37110.73
466.602	36092.89
466.807	38220.73
467.012	39324.58
467.218	39875.49
467.423	39633.83
467.628	40954.77
467.833	42867.57
468.038	41782.15
468.244	41284.49
468.449	43641.7
468.654	42316.67
468.859	42621.81
469.064	42187.64
469.269	41466.76
469.474	41859.97
469.679	42853.23
469.885	41571.21
470.09	42365.82
470.295	42574.71
470.5	41800.58
470.705	41685.89
470.91	40690.58
471.115	40012.7
471.32	40829.84
471.525	40844.18
471.73	39506.85
471.935	39383.98
472.139	37622.72
472.344	38007.74
472.549	37626.82
472.754	36768.72
472.959	35806.17
473.164	34837.48
473.369	34472.95
473.574	34911.21
473.778	34980.84
473.983	33874.94
474.188	33481.73
474.393	31575.07
474.598	31925.27
474.802	30929.96
475.007	30913.58
475.212	30352.43
475.417	29039.68
475.621	28593.23
475.826	28865.61
476.031	27864.15
476.235	27587.68
476.44	27477.08
476.645	26735.72
476.849	26383.47
477.054	26113.14
477.259	25412.73
477.463	25586.81
477.668	24650.89
477.872	24552.59
478.077	24126.61
478.282	23286.94
478.486	23395.48
478.691	22914.21
478.895	22733.99
479.1	22633.64
479.304	22695.08
479.509	21537.98
479.713	21884.08
479.918	21316.79
480.122	20999.36
480.326	21267.64
480.531	21169.34
480.735	20755.65
480.94	20739.27
481.144	21286.08
481.348	19795.15
481.553	20131.02
481.757	19666.13
481.961	20014.29
482.166	19915.98
482.37	19672.28
482.574	19174.62
482.778	19186.91
482.983	19504.34
483.187	18840.8
483.391	18881.76
483.595	18560.23
483.8	18019.57
484.004	18539.75
484.208	18371.82
484.412	18212.07
484.616	17911.02
484.821	17794.29
485.025	17161.47
485.229	17417.46
485.433	16821.5
485.637	16780.54
485.841	16342.28
486.045	16121.1
486.249	16379.14
486.453	15858.96
486.657	15787.28
486.861	15639.83
487.065	14959.9
487.269	15090.97
487.473	14658.85
487.677	14587.17
487.881	14658.85
488.085	14261.54
488.289	13892.91
488.493	13376.82
488.697	13585.71
488.901	13307.19
489.105	12811.58
489.309	12619.07
489.512	12561.73
489.716	12281.16
489.92	12084.55
490.124	12037.45
490.328	11912.52
490.531	11357.52
490.735	11369.81
490.939	11136.34
491.143	10800.48
491.346	10874.2
491.55	10683.74
491.754	10411.36
491.958	10093.93
492.161	10263.91
492.365	9858.41
492.569	9776.49
492.772	9727.34
492.976	9731.44
493.18	9336.18
493.383	9272.69
493.587	9325.94
493.79	9119.09
493.994	8963.45
494.197	8805.75
494.401	9039.22
494.605	8504.7
494.808	8672.64
495.012	8510.85
495.215	8633.72
495.419	8351.1
495.622	8367.49
495.825	8295.81
496.029	8185.22
496.232	8287.62
496.436	8275.33
496.639	8318.34
496.843	8312.19
497.046	8146.31
497.249	8347.01
497.453	8318.34
497.656	8207.75
497.859	8064.39
498.063	8320.39
498.266	8355.2
498.469	7869.83
498.673	8224.13
498.876	8488.32
499.079	8304
499.282	8246.66
499.485	8621.44
499.689	8357.25
499.892	8672.64
500.095	8283.52
500.298	8750.46
500.501	8443.26
500.705	8705.4
500.908	8770.94
501.111	8824.19
501.314	8977.78
501.517	8945.02
501.72	9024.89
501.923	8977.78
502.126	9246.07
502.329	9418.1
502.532	9471.34
502.735	9399.66
502.938	9854.31
503.141	9786.73
503.344	9729.39
503.547	9979.24
503.75	10022.25
503.953	10085.73
504.156	10368.35
504.359	10368.35
504.562	10499.42
504.765	10921.31
504.968	10988.89
505.17	11136.34
505.373	11271.51
505.576	11431.25
505.779	11502.93
505.982	11711.82
506.185	12152.13
506.387	11959.63
506.59	12236.1
506.793	12660.03
506.996	12651.84
507.198	13219.13
507.401	13090.1
507.604	13612.34
507.807	13860.14
508.009	14114.09
508.212	14456.1
508.415	14556.45
508.617	14851.36
508.82	15011.1
509.022	15275.29
509.225	15652.11
509.428	15895.82
509.63	16141.58
509.833	16465.16
510.035	17417.46
510.238	17216.76
510.44	17446.13
510.643	18199.79
510.845	18332.9
511.048	18801.89
511.25	19068.13
511.453	19322.07
511.655	20526.28
511.858	20577.48
512.06	20952.26
512.262	21294.27
512.465	21855.41
512.667	22287.53
512.87	22394.03
513.072	22881.44
513.274	23835.8
513.477	24286.35
513.679	24747.14
513.881	25564.28
514.084	25715.83
514.286	25894
514.488	26700.9
514.69	27872.34
514.893	27823.19
515.095	28744.78
515.297	29051.97
515.499	29434.94
515.701	30299.19
515.904	30995.5
516.106	31845.4
516.308	32111.64
516.51	33010.7
516.712	33088.52
516.914	34042.87
517.116	34575.34
517.318	34767.85
517.52	35888.09
517.722	36078.55
517.925	36996.04
518.127	37473.22
518.329	38257.59
518.531	38259.64
518.733	39414.69
518.935	40104.86
519.136	40287.13
519.338	40901.52
519.54	41657.22
519.742	42406.78
519.944	42740.6
520.146	43813.73
520.348	43697
520.55	44499.8
520.752	44903.25
520.954	45724.49
521.155	45620.04
521.357	46707.51
521.559	46879.54
521.761	47881
521.963	47801.13
522.164	48464.67
522.366	48667.42
522.568	49074.96
522.77	48878.36
522.971	50023.17
523.173	49732.36
523.375	49986.31
523.576	50576.12
523.778	50506.49
523.98	51110.64
524.181	51206.9
524.383	50955
524.584	51303.15
524.786	51630.83
524.988	51163.89
525.189	51725.03
525.391	51944.17
525.592	51526.38
525.794	51665.64
525.995	51729.13
526.197	51630.83
526.398	51331.82
526.6	51757.8
526.801	51286.77
527.003	51063.54
527.204	50819.83
527.406	51065.59
527.607	50508.54
527.808	50840.31
528.01	49269.52
528.211	49339.15
528.412	49609.48
528.614	49232.66
528.815	48925.46
529.016	49025.81
529.218	48175.9
529.419	47829.8
529.62	47100.72
529.822	47149.87
530.023	46764.85
530.224	45912.9
530.425	45699.91
530.626	45097.81
530.828	44501.85
531.029	44706.65
531.23	44041.06
531.431	42828.66
531.632	43006.83
531.833	42873.71
532.035	42222.46
532.236	41343.88
532.437	41110.41
532.638	40588.18
532.839	40231.83
533.04	39472.04
533.241	38773.68
533.442	39017.39
533.643	37983.16
533.844	37405.64
534.045	37004.24
534.246	36406.23
534.447	35992.54
534.648	35357.67
534.849	35140.58
535.05	34464.75
535.251	34198.52
535.451	33602.56
535.652	33131.53
535.853	32613.39
536.054	32246.8
536.255	32015.38
536.456	31231.01
536.657	31202.34
536.857	30469.17
537.058	29684.8
537.259	30035
537.46	29455.42
537.66	28927.05
537.861	28959.81
538.062	28177.49
538.263	28214.35
538.463	27458.65
538.664	27143.27
538.865	26846.31
539.065	26647.66
539.266	25902.2
539.466	25971.83
539.667	25269.37
539.868	25699.45
540.068	24853.64
540.269	24597.64
540.469	24556.68
540.67	24376.46
540.87	23977.11
541.071	23618.71
541.271	23119.01
541.472	22875.3
541.672	22869.16
541.873	22475.95
542.073	22193.33
542.274	22072.5
542.474	21953.71
542.675	21236.92
542.875	21087.42
543.075	21083.33
543.276	20561.09
543.476	20802.75
543.676	20344.01
543.877	20405.45
544.077	19858.64
544.277	19909.84
544.478	19485.91
544.678	19406.04
544.878	19098.84
545.078	18617.57
545.279	18382.06
545.479	18269.42
545.679	18146.54
545.879	17833.2
546.079	17831.15
546.28	17296.63
546.48	17161.47
546.68	17274.1
546.88	16964.86
547.08	16876.8
547.28	16389.38
547.48	16243.98
547.68	16096.52
547.88	15756.56
548.081	15752.46
548.281	15713.55
548.481	15072.54
548.681	15389.97
548.881	15289.62
549.081	14908.7
549.28	14574.88
549.48	14499.11
549.68	14112.04
549.88	14005.55
550.08	13528.37
550.28	13616.43
550.48	13542.71
550.68	13266.23
550.88	13014.33
551.08	13002.04
551.279	12928.31
551.479	12510.53
551.679	12457.28
551.879	12000.58
552.079	12246.34
552.278	11855.18
552.478	11885.9
552.678	11537.74
552.878	11421.01
553.077	11210.07
553.277	10964.31
553.477	10685.79
553.676	10681.69
553.876	10372.45
554.076	10286.44
554.275	10149.22
554.475	9780.59
554.674	10003.82
554.874	9719.15
555.074	9252.21
555.273	9370.99
555.473	8985.97
555.672	9239.92
555.872	9192.82
556.071	8891.77
556.271	8818.04
556.47	8414.59
556.67	8269.19
556.869	8396.16
557.068	8109.44
557.268	7910.79
557.467	7941.51
557.667	7873.93
557.866	7628.17
558.065	7318.93
558.265	7308.69
558.464	7155.09
558.663	7218.58
558.863	7103.89
559.062	6999.45
559.261	6890.9
559.461	6727.07
559.66	6661.53
559.859	6616.48
560.058	6430.11
560.258	6274.46
560.457	6170.02
560.656	6174.11
560.855	5879.21
561.054	6094.24
561.253	5735.85
561.453	5797.29
561.652	5711.27
561.851	5686.7
562.05	5529
562.249	5397.93
562.448	5406.13
562.647	5291.44
562.846	4996.53
563.045	5019.06
563.244	5086.64
563.443	5125.55
563.642	4773.3
563.841	4853.17
564.04	4722.1
564.239	4801.97
564.438	4482.49
564.637	4306.37
564.836	4488.64
565.035	4341.18
565.234	4349.37
565.432	4269.5
565.631	4396.48
565.83	4312.51
566.029	4222.4
566.228	3997.12
566.427	4097.47
566.625	3775.94
566.824	3808.71
567.023	3911.11
567.222	3767.75
567.42	3550.67
567.619	3728.84
567.818	3618.25
568.016	3644.87
568.215	3448.27
568.414	3565
568.612	3446.22
568.811	3364.3
569.01	3188.18
569.208	3261.9
569.407	3409.36
569.605	3204.56
569.804	3044.82
570.002	3251.66
570.201	2848.21
570.4	3003.86
570.598	2997.71
570.797	2913.75
570.995	2754.01
571.193	2956.75
571.392	2876.88
571.59	2551.26
571.789	2782.68
571.987	2770.39
572.186	2678.23
572.384	2567.64
572.582	2559.45
572.781	2641.37
572.979	2399.71
573.177	2428.38
573.376	2475.48
573.574	2440.67
573.772	2291.17
573.971	2272.73
574.169	2182.62
574.367	2272.73
574.565	2151.9
574.763	2139.62
574.962	2194.91
575.16	2178.53
575.358	2092.51
575.556	2057.7
575.754	2020.83
575.952	1971.68
576.151	1932.77
576.349	1963.49
576.547	1838.56
576.745	1994.21
576.943	1869.28
577.141	1766.89
577.339	1678.82
577.537	1885.67
577.735	1828.32
577.933	1707.49
578.131	1678.82
578.329	1766.89
578.527	1607.14
578.725	1693.16
578.923	1426.92
579.121	1605.1
579.319	1306.09
579.516	1412.59
579.714	1592.81
579.912	1615.34
580.11	1443.31
580.308	1371.63
580.506	1373.68
580.704	1359.34
580.901	1275.37
581.099	1506.79
581.297	1275.37
581.495	1379.82
581.692	1232.37
581.89	1308.14
582.088	1267.18
582.285	1226.22
582.483	1207.79
582.681	1099.25
582.878	1056.24
583.076	1105.39
583.274	1134.06
583.471	1162.73
583.669	1144.3
583.866	980.47
584.064	962.03
584.262	1009.14
584.459	1054.19
584.657	908.79
584.854	1023.47
585.052	1037.81
585.249	1107.44
585.447	976.37
585.644	849.4
585.841	1023.47
586.039	1043.95
586.236	1007.09
586.434	998.9
586.631	847.35
586.828	841.2
587.026	876.02
587.223	804.34
587.42	751.09
587.618	888.31
587.815	941.55
588.012	867.83
588.21	900.59
588.407	876.02
588.604	806.39
588.801	826.87
588.999	777.72
589.196	894.45
589.393	835.06
589.59	802.29
589.787	804.34
589.984	775.67
590.182	876.02
590.379	749.04
590.576	699.89
590.773	667.13
590.97	720.37
591.167	792.05
591.364	826.87
591.561	654.84
591.758	857.59
591.955	757.24
592.152	781.81
592.349	660.98
592.546	675.32
592.743	675.32
592.94	620.02
593.137	714.23
593.334	724.47
593.531	755.19
593.727	830.96
593.924	816.63
594.121	656.89
594.318	630.26
594.515	814.58
594.712	816.63
594.908	859.63
595.105	611.83
595.302	779.76
595.499	800.24
595.696	880.11
595.892	781.81
596.089	857.59
596.286	790
596.482	1033.71
596.679	869.87
596.876	777.72
597.072	1009.14
597.269	978.42
597.466	1138.16
597.662	959.99
597.859	908.79
598.055	1107.44
598.252	1074.67
598.448	1250.8
598.645	1121.77
598.841	1095.15
599.038	1385.96
599.234	1412.59
599.431	1363.44
599.627	1392.11
599.824	1553.9
600.02	1564.14
600.217	1517.03
600.413	1551.85
600.609	1746.41
600.806	1883.62
601.002	1783.27
601.198	1811.94
601.395	1918.43
601.591	1953.25
601.787	2047.46
601.984	2209.25
602.18	2145.76
602.376	2254.3
602.572	2461.15
602.769	2500.06
602.965	2485.72
603.161	2698.71
603.357	2842.07
603.553	2878.93
603.75	2891.22
603.946	2989.52
604.142	3128.78
604.338	3280.33
604.534	3208.66
604.73	3397.07
604.926	3483.08
605.122	3806.66
605.318	3882.44
605.514	3986.88
605.71	3982.79
605.906	4224.45
606.102	4277.69
606.298	4523.45
606.494	4568.51
606.69	4867.51
606.886	4804.02
607.082	5019.06
607.278	5068.21
607.474	5150.13
607.67	5576.11
607.866	5522.86
608.062	5838.25
608.257	5815.72
608.453	5883.3
608.649	6294.94
608.845	6301.09
609.041	6360.48
609.236	6729.11
609.432	6878.62
609.628	7173.52
609.824	7308.69
610.019	7507.34
610.215	7658.89
610.411	8056.2
610.606	8119.68
610.802	8166.79
610.998	8402.3
611.193	8871.29
611.389	8834.43
611.584	9241.97
611.78	9321.84
611.976	9735.53
612.171	10083.69
612.367	10175.84
612.562	10509.66
612.758	10489.18
612.953	10771.8
613.149	11406.67
613.344	11625.81
613.539	11918.67
613.735	12385.6
613.93	12694.85
614.126	12660.03
614.321	13473.07
614.517	13565.23
614.712	13929.77
614.907	14359.84
615.103	14886.17
615.298	14992.67
615.493	15678.74
615.688	15537.43
615.884	16426.25
616.079	16338.18
616.274	17005.82
616.47	17161.47
616.665	17966.32
616.86	18072.81
617.055	18697.44
617.25	18980.06
617.445	19698.9
617.641	20018.38
617.836	20716.74
618.031	21101.76
618.226	21812.4
618.421	21980.34
618.616	22781.09
618.811	22944.93
619.006	23860.37
619.201	24212.62
619.396	25083.01
619.591	25302.14
619.786	26008.69
619.981	26166.38
620.176	27122.79
620.371	27237.47
620.566	28318.8
620.761	28521.55
620.956	29377.6
621.151	29688.89
621.346	30426.16
621.541	30682.16
621.735	31802.39
621.93	31958.04
622.125	32805.9
622.32	32783.37
622.515	33805.31
622.709	34485.23
622.904	34769.9
623.099	35873.76
623.294	36273.11
623.488	36774.86
623.683	37794.75
623.878	37733.31
624.072	38941.61
624.267	39371.69
624.462	39664.55
624.656	40317.85
624.851	41214.86
625.046	41634.69
625.24	42468.22
625.435	42476.41
625.629	43010.93
625.824	43774.82
626.018	44383.07
626.213	44563.29
626.407	45519.69
626.602	45493.07
626.796	46017.35
626.991	47029.04
627.185	46846.77
627.38	47555.37
627.574	47856.42
627.768	47665.96
627.963	48071.46
628.157	47962.92
628.352	48763.67
628.546	48241.44
628.74	48816.92
628.935	48194.34
629.129	48444.19
629.323	47858.47
629.517	48075.55
629.712	47518.51
629.906	47235.89
630.1	46465.85
630.294	46414.65
630.489	46488.38
630.683	45691.72
630.877	44618.58
631.071	44256.09
631.265	43496.3
631.459	42730.36
631.653	41839.49
631.848	41098.12
632.042	39682.98
632.236	39756.71
632.43	38165.43
632.624	37270.47
632.818	36389.84
633.012	34980.84
633.206	34044.92
633.4	33295.36
633.594	31478.82
633.788	30698.54
633.982	30084.15
634.176	28900.42
634.369	27690.07
634.563	26829.93
634.757	25351.29
634.951	24769.67
635.145	23901.33
635.339	22887.59
635.533	21998.77
635.726	21673.14
635.92	20307.15
636.114	19653.84
636.308	18808.03
636.501	18265.32
636.695	17478.9
636.889	16542.98
637.083	15879.44
637.276	15361.3
637.47	14447.91
637.664	14044.46
637.857	13411.64
638.051	12999.99
638.244	12225.86
638.438	11926.86
638.632	11576.66
638.825	11119.96
639.019	10591.58
639.212	9987.43
639.406	9823.59
639.599	9370.99
639.793	8897.91
639.986	8426.88
640.18	8613.24
640.373	7918.98
640.567	7693.71
640.76	7468.43
640.954	7011.73
641.147	6624.67
641.34	6536.6
641.534	6350.24
641.727	6176.16
641.92	5811.62
642.114	5615.02
642.307	5518.76
642.5	5393.84
642.694	4818.36
642.887	4865.46
643.08	4767.16
643.273	4441.53
643.467	4404.67
643.66	4195.78
643.853	4001.22
644.046	3872.2
644.239	3728.84
644.432	3507.66
644.626	3470.8
644.819	3333.58
645.012	3259.85
645.205	3067.35
645.398	2981.33
645.591	2762.2
645.784	2702.81
645.977	2649.56
646.17	2487.77
646.363	2278.88
646.556	2227.68
646.749	2182.62
646.942	2139.62
647.135	2223.58
647.328	1857
647.521	2012.64
647.714	1857
647.907	1818.08
648.099	1676.77
648.292	1725.93
648.485	1725.93
648.678	1439.21
648.871	1547.75
649.064	1418.73
649.256	1308.14
649.449	1357.29
649.642	1175.02
649.835	1230.32
650.027	1211.89
650.22	1179.12
650.413	1054.19
650.605	1240.56
650.798	902.64
650.991	1013.23
651.183	959.99
651.376	1070.58
651.568	865.78
651.761	845.3
651.954	863.73
652.146	837.11
652.339	898.55
652.531	863.73
652.724	710.13
652.916	740.85
653.109	550.39
653.301	726.52
653.494	785.91
653.686	677.37
653.879	718.33
654.071	683.51
654.263	552.44
654.456	605.69
654.648	624.12
654.84	560.63
655.033	513.53
655.225	691.7
655.417	447.99
655.61	538.1
655.802	542.2
655.994	562.68
656.186	396.79
656.379	517.62
656.571	351.74
656.763	323.07
656.955	376.31
657.148	419.32
657.34	462.33
657.532	413.18
657.724	345.59
657.916	488.95
658.108	400.89
658.3	312.83
658.492	433.66
658.684	259.58
658.876	445.95
659.068	241.15
659.26	153.09
659.452	243.2
659.644	335.35
659.836	415.23
660.028	331.26
660.22	206.33
660.412	282.11
660.604	218.62
660.796	280.06
660.988	282.11
661.18	269.82
661.372	323.07
661.563	243.2
661.755	263.68
661.947	126.46
662.139	161.28
662.331	304.64
662.522	192
662.714	222.72
662.906	161.28
663.097	239.1
663.289	183.81
663.481	105.98
663.673	181.76
663.864	237.05
664.056	222.72
664.247	194.05
664.439	325.12
664.631	214.52
664.822	288.25
665.014	192
665.205	230.91
665.397	138.75
665.588	177.66
665.78	163.33
665.971	208.38
666.163	189.95
666.354	257.53
666.546	198.14
666.737	228.86
666.929	171.52
667.12	130.56
667.311	138.75
667.503	144.89
667.694	134.65
667.885	216.57
668.077	255.48
668.268	151.04
668.459	148.99
668.651	112.13
668.842	159.23
669.033	83.45
669.224	97.79
669.416	318.97
669.607	69.12
669.798	108.03
669.989	243.2
670.18	110.08
670.371	142.85
670.563	132.61
670.754	208.38
670.945	183.81
671.136	230.91
671.327	130.56
671.518	220.67
671.709	318.97
671.9	214.52
672.091	241.15
672.282	167.42
672.473	142.85
672.664	79.36
672.855	136.7
673.046	216.57
673.237	212.48
673.428	151.04
673.619	179.71
673.809	112.13
674	165.37
674.191	120.32
674.382	194.05
674.573	153.09
674.764	87.55
674.954	247.29
675.145	52.74
675.336	73.21
675.527	99.84
675.717	148.99
675.908	161.28
676.099	136.7
676.289	214.52
676.48	112.13
676.671	196.09
676.861	192
677.052	192
677.243	124.41
677.433	-8.7
677.624	171.52
677.814	202.24
678.005	181.76
678.195	359.93
678.386	144.89
678.576	249.34
678.767	67.07
678.957	183.81
679.148	187.9
679.338	321.02
679.529	200.19
679.719	159.23
679.909	224.76
680.1	226.81
680.29	239.1
680.481	95.74
680.671	239.1
680.861	185.85
681.052	163.33
681.242	163.33
681.432	204.28
681.622	192
681.813	138.75
682.003	142.85
682.193	140.8
682.383	304.64
682.573	187.9
682.764	183.81
682.954	267.77
683.144	230.91
683.334	249.34
683.524	224.76
683.714	282.11
683.904	249.34
684.094	194.05
684.284	232.96
684.474	339.45
684.664	288.25
684.854	206.33
685.044	212.48
685.234	218.62
685.424	239.1
685.614	216.57
685.804	413.18
685.994	280.06
686.184	318.97
686.374	341.5
686.564	155.13
686.753	273.92
686.943	175.61
687.133	251.39
687.323	247.29
687.513	407.03
687.702	206.33
687.892	165.37
688.082	327.16
688.272	351.74
688.461	202.24
688.651	413.18
688.841	220.67
689.03	273.92
689.22	202.24
689.41	280.06
689.599	255.48
689.789	130.56
689.979	394.75
690.168	183.81
690.358	294.4
690.547	228.86
690.737	271.87
690.926	298.49
691.116	148.99
691.305	351.74
691.495	341.5
691.684	171.52
691.874	230.91
692.063	130.56
692.252	316.92
692.442	290.3
692.631	179.71
692.82	294.4
693.01	192
693.199	171.52
693.388	296.44
693.578	290.3
693.767	261.63
693.956	288.25
694.146	181.76
694.335	237.05
694.524	241.15
694.713	292.35
694.902	198.14
695.092	144.89
695.281	288.25
695.47	212.48
695.659	175.61
695.848	179.71
696.037	253.44
696.226	318.97
696.415	194.05
696.604	261.63
696.793	255.48
696.982	202.24
697.171	251.39
697.36	159.23
697.549	153.09
697.738	136.7
697.927	216.57
698.116	126.46
698.305	157.18
698.494	251.39
698.683	136.7
698.872	370.17
699.061	249.34
699.25	165.37
699.438	239.1
699.627	116.22
699.816	312.83
700.005	77.31
700.193	142.85
700.382	208.38
700.571	290.3
700.76	206.33
700.948	216.57
701.137	267.77
701.326	224.76
701.514	169.47
701.703	263.68
701.892	179.71
702.08	402.94
702.269	192
702.457	228.86
702.646	167.42
702.834	253.44
703.023	300.54
703.212	325.12
703.4	155.13
703.589	142.85
703.777	204.28
703.965	161.28
704.154	171.52
704.342	103.93
704.531	181.76
704.719	243.2
704.907	349.69
705.096	220.67
705.284	155.13
705.472	214.52
705.661	222.72
705.849	304.64
706.037	212.48
706.226	294.4
706.414	189.95
706.602	222.72
706.79	192
706.979	83.45
707.167	177.66
707.355	169.47
707.543	280.06
707.731	257.53
707.919	245.24
708.107	253.44
708.296	136.7
708.484	200.19
708.672	200.19
708.86	232.96
709.048	228.86
709.236	136.7
709.424	245.24
709.612	220.67
709.8	79.36
709.988	214.52
710.176	284.16
710.364	300.54
710.551	189.95
710.739	235
710.927	192
711.115	228.86
711.303	294.4
711.491	226.81
711.679	163.33
711.866	255.48
712.054	263.68
712.242	196.09
712.43	343.55
712.617	189.95
712.805	312.83
712.993	220.67
713.181	118.27
713.368	310.78
713.556	218.62
713.744	216.57
713.931	368.12
714.119	224.76
714.306	220.67
714.494	296.44
714.682	235
714.869	194.05
715.057	179.71
715.244	97.79
715.432	253.44
715.619	275.96
715.807	222.72
715.994	148.99
716.182	292.35
716.369	304.64
716.556	222.72
716.744	99.84
716.931	183.81
717.119	286.2
717.306	230.91
717.493	366.07
717.681	206.33
717.868	208.38
718.055	253.44
718.242	278.01
718.43	306.68
718.617	329.21
718.804	271.87
718.991	288.25
719.179	204.28
719.366	341.5
719.553	306.68
719.74	210.43
719.927	200.19
720.114	282.11
720.301	103.93
720.488	284.16
720.676	220.67
720.863	376.31
721.05	396.79
721.237	292.35
721.424	224.76
721.611	243.2
721.798	204.28
721.985	267.77
722.172	259.58
722.358	294.4
722.545	370.17
722.732	257.53
722.919	415.23
723.106	290.3
723.293	282.11
723.48	318.97
723.667	189.95
723.853	372.22
724.04	280.06
724.227	259.58
724.414	263.68
724.6	407.03
724.787	400.89
724.974	374.27
725.161	284.16
725.347	200.19
725.534	351.74
725.72	366.07
725.907	402.94
726.094	351.74
726.28	349.69
726.467	249.34
726.653	312.83
726.84	382.46
727.027	470.52
727.213	318.97
727.4	398.84
727.586	351.74
727.773	359.93
727.959	292.35
728.145	269.82
728.332	323.07
728.518	339.45
728.705	384.51
728.891	380.41
729.077	431.61
729.264	271.87
729.45	335.35
729.636	433.66
729.823	339.45
730.009	349.69
730.195	337.4
730.382	308.73
730.568	241.15
730.754	450.04
730.94	378.36
731.126	364.03
731.313	445.95
731.499	282.11
731.685	349.69
731.871	372.22
732.057	417.27
732.243	372.22
732.429	314.88
732.615	437.75
732.801	415.23
732.987	300.54
733.173	331.26
733.359	261.63
733.545	409.08
733.731	402.94
733.917	478.71
734.103	376.31
734.289	376.31
734.475	345.59
734.661	529.91
734.847	388.6
735.033	337.4
735.219	454.14
735.404	355.83
735.59	294.4
735.776	359.93
735.962	433.66
736.148	398.84
736.333	521.72
736.519	368.12
736.705	441.85
736.89	318.97
737.076	445.95
737.262	339.45
737.447	331.26
737.633	296.44
737.819	458.23
738.004	454.14
738.19	437.75
738.375	536.06
738.561	468.47
738.747	470.52
738.932	351.74
739.118	458.23
739.303	466.42
739.489	417.27
739.674	419.32
739.859	333.31
740.045	499.19
740.23	493.05
740.416	318.97
740.601	423.42
740.786	372.22
740.972	355.83
741.157	294.4
741.342	318.97
741.528	368.12
741.713	482.81
741.898	441.85
742.084	404.99
742.269	419.32
742.454	417.27
742.639	495.1
742.824	421.37
743.01	503.29
743.195	484.86
743.38	419.32
743.565	480.76
743.75	482.81
743.935	427.51
744.12	447.99
744.305	339.45
744.49	441.85
744.675	382.46
744.86	460.28
745.045	433.66
745.23	417.27
745.415	323.07
745.6	435.71
745.785	376.31
745.97	472.57
746.155	454.14
746.34	417.27
746.525	359.93
746.71	558.58
746.895	355.83
747.079	335.35
747.264	349.69
747.449	380.41
747.634	415.23
747.819	402.94
748.003	347.64
748.188	327.16
748.373	368.12
748.557	411.13
748.742	347.64
748.927	398.84
749.111	237.05
749.296	366.07
749.481	402.94
749.665	376.31
749.85	333.31
750.034	400.89
750.219	437.75
750.404	390.65
750.588	355.83
750.773	218.62
750.957	384.51
751.141	306.68
751.326	464.38
751.51	208.38
751.695	310.78
751.879	280.06
752.064	458.23
752.248	337.4
752.432	491
752.617	409.08
752.801	427.51
752.985	321.02
753.17	425.47
753.354	312.83
753.538	364.03
753.722	325.12
753.907	318.97
754.091	300.54
754.275	390.65
754.459	275.96
754.643	286.2
754.828	310.78
755.012	255.48
755.196	192
755.38	300.54
755.564	232.96
755.748	292.35
755.932	318.97
756.116	300.54
756.3	337.4
756.484	261.63
756.668	312.83
756.852	110.08
757.036	200.19
757.22	255.48
757.404	222.72
757.588	290.3
757.772	261.63
757.956	232.96
758.14	409.08
758.323	192
758.507	337.4
758.691	198.14
758.875	327.16
759.059	271.87
759.242	275.96
759.426	267.77
759.61	327.16
759.794	196.09
759.977	286.2
760.161	464.38
760.345	306.68
760.528	263.68
760.712	202.24
760.895	247.29
761.079	202.24
761.263	239.1
761.446	163.33
761.63	206.33
761.813	278.01
761.997	112.13
762.18	214.52
762.364	239.1
762.547	151.04
762.731	159.23
762.914	235
763.098	153.09
763.281	169.47
763.464	108.03
763.648	220.67
763.831	167.42
764.015	187.9
764.198	247.29
764.381	138.75
764.564	271.87
764.748	249.34
764.931	204.28
765.114	122.37
765.297	237.05
765.481	200.19
765.664	212.48
765.847	220.67
766.03	271.87
766.213	124.41
766.397	204.28
766.58	167.42
766.763	202.24
766.946	134.65
767.129	198.14
767.312	132.61
767.495	159.23
767.678	130.56
767.861	192
768.044	185.85
768.227	124.41
768.41	181.76
768.593	165.37
768.776	194.05
768.959	124.41
769.142	321.02
769.324	140.8
769.507	179.71
769.69	99.84
769.873	116.22
770.056	308.73
770.239	128.51
770.421	265.72
770.604	232.96
770.787	161.28
770.97	155.13
771.152	85.5
771.335	167.42
771.518	140.8
771.7	273.92
771.883	271.87
772.066	181.76
772.248	202.24
772.431	265.72
772.613	245.24
772.796	36.35
772.978	163.33
773.161	216.57
773.343	112.13
773.526	97.79
773.708	3.58
773.891	146.94
774.073	87.55
774.256	87.55
774.438	261.63
774.621	69.12
774.803	177.66
774.985	103.93
775.168	235
775.35	128.51
775.532	173.57
775.715	-23.04
775.897	171.52
776.079	112.13
776.261	73.21
776.444	34.3
776.626	132.61
776.808	163.33
776.99	5.63
777.173	93.69
777.355	103.93
777.537	151.04
777.719	73.21
777.901	26.11
778.083	42.5
778.265	5.63
778.447	185.85
778.629	-6.66
778.811	110.08
778.993	136.7
779.175	105.98
779.357	126.46
779.539	-43.52
779.721	122.37
779.903	81.41
780.085	67.07
780.267	132.61
780.449	60.93
780.631	114.17
780.812	208.38
780.994	105.98
781.176	77.31
781.358	60.93
781.54	71.17
781.721	75.26
781.903	257.53
782.085	48.64
782.267	212.48
782.448	-16.9
782.63	26.11
782.812	122.37
782.993	189.95
783.175	95.74
783.357	91.65
783.538	130.56
783.72	-8.7
783.901	38.4
784.083	171.52
784.264	148.99
784.446	52.74
784.627	-23.04
784.809	120.32
784.99	22.02
785.172	144.89
785.353	65.02
785.535	48.64
785.716	40.45
785.897	26.11
786.079	77.31
786.26	46.59
786.441	122.37
786.623	-51.71
786.804	-29.18
786.985	83.45
787.167	73.21
787.348	81.41
787.529	91.65
787.71	181.76
787.891	112.13
788.073	30.21
788.254	-25.09
788.435	167.42
788.616	105.98
788.797	17.92
788.978	62.98
789.159	-27.14
789.34	73.21
789.522	67.07
789.703	91.65
789.884	1.54
790.065	52.74
790.246	267.77
790.427	60.93
790.607	71.17
790.788	120.32
790.969	3.58
791.15	128.51
791.331	32.26
791.512	40.45
791.693	-29.18
791.874	-25.09
792.054	173.57
792.235	198.14
792.416	-27.14
792.597	-29.18
792.778	30.21
792.958	48.64
793.139	110.08
793.32	52.74
793.5	28.16
793.681	122.37
793.862	50.69
794.042	11.78
794.223	-74.24
794.404	-18.94
794.584	-33.28
794.765	-59.9
794.945	34.3
795.126	114.17
795.306	161.28
795.487	87.55
795.667	36.35
795.848	30.21
796.028	-4.61
796.209	7.68
796.389	58.88
796.57	83.45
796.75	-14.85
796.93	22.02
797.111	-47.62
797.291	-18.94
797.471	50.69
797.652	-31.23
797.832	-10.75
798.012	32.26
798.192	36.35
798.373	-78.33
798.553	-2.56
798.733	34.3
798.913	9.73
799.093	-23.04
799.274	30.21
799.454	34.3
799.634	97.79
799.814	11.78
799.994	110.08
800.174	79.36
800.354	17.92
800.534	-39.42
800.714	26.11
800.894	-107.01
801.074	11.78
801.254	-53.76
801.434	99.84
801.614	17.92
801.794	-74.24
801.974	1902.05
802.154	1.54
802.334	67.07
802.514	-80.38
802.693	44.54
802.873	99.84
803.053	146.94
803.233	142.85
803.413	-57.86
803.592	22.02
803.772	-10.75
803.952	3.58
804.131	-96.77
804.311	97.79
804.491	87.55
804.67	62.98
804.85	-76.29
805.03	60.93
805.209	69.12
805.389	-43.52
805.568	32.26
805.748	-43.52
805.928	38.4
806.107	48.64
806.287	144.89
806.466	77.31
806.646	7.68
806.825	-35.33
807.004	-66.05
807.184	-2.56
807.363	110.08
807.543	-25.09
807.722	-80.38
807.901	17.92
808.081	32.26
808.26	-135.68
808.439	28.16
808.619	30.21
808.798	-14.85
808.977	44.54
809.156	71.17
809.336	11.78
809.515	5.63
809.694	54.78
809.873	-35.33
810.052	-4.61
810.231	105.98
810.411	60.93
810.59	71.17
810.769	65.02
810.948	99.84
811.127	-14.85
811.306	-61.95
811.485	-4.61
811.664	171.52
811.843	-41.47
812.022	7.68
812.201	-53.76
812.38	36.35
812.559	-39.42
812.737	58.88
812.916	-41.47
813.095	-94.72
813.274	99.84
813.453	67.07
813.632	34.3
813.811	110.08
813.989	-94.72
814.168	34.3
814.347	-25.09
814.526	40.45
814.704	28.16
814.883	69.12
815.062	-55.81
815.24	77.31
815.419	3.58
815.598	-8.7
815.776	-104.96
815.955	-29.18
816.133	-53.76
816.312	-59.9
816.49	7.68
816.669	48.64
816.847	-18.94
817.026	-29.18
817.204	52.74
817.383	-14.85
817.561	24.06
817.74	48.64
817.918	-2.56
818.097	-33.28
818.275	-29.18
818.453	116.22
818.632	105.98
818.81	-14.85
818.988	-64
819.167	-43.52
819.345	-100.86
819.523	-18.94
819.701	-23.04
819.879	1.54
820.058	22.02
820.236	28.16
820.414	-16.9
820.592	-25.09
820.77	11.78
820.948	-18.94
821.127	-51.71
821.305	1.54
821.483	-25.09
821.661	58.88
821.839	-18.94
822.017	7.68
822.195	-90.62
822.373	28.16
822.551	-8.7
822.729	15.87
822.907	40.45
823.085	62.98
823.262	-31.23
823.44	24.06
823.618	-64
823.796	-33.28
823.974	-94.72
824.152	-6.66
824.329	17.92
824.507	-29.18
824.685	28.16
824.863	-57.86
825.04	71.17
825.218	52.74
825.396	7.68
825.574	36.35
825.751	-39.42
825.929	108.03
826.107	-117.25
826.284	24.06
826.462	3.58
826.639	-55.81
826.817	-174.59
826.994	40.45
827.172	-98.81
827.349	122.37
827.527	118.27
827.704	40.45
827.882	83.45
828.059	-43.52
828.237	-39.42
828.414	116.22
828.591	-150.01
828.769	19.97
828.946	-72.19
829.124	-2.56
829.301	105.98
829.478	24.06
829.655	87.55
829.833	24.06
830.01	-145.92
830.187	24.06
830.364	-61.95
830.542	58.88
830.719	140.8
830.896	101.89
831.073	7.68
831.25	15.87
831.427	17.92
831.604	-39.42
831.782	-64
831.959	28.16
832.136	5.63
832.313	48.64
832.49	-49.66
832.667	5.63
832.844	44.54
833.021	79.36
833.198	28.16
833.374	-45.57
833.551	28.16
833.728	-29.18
833.905	11.78
834.082	-111.1
834.259	105.98
834.436	22.02
834.612	-92.67
834.789	-0.51
834.966	15.87
835.143	34.3
835.319	-25.09
835.496	-2.56
835.673	-33.28
835.85	-6.66
836.026	-20.99
836.203	75.26
836.38	9.73
836.556	-27.14
836.733	-41.47
836.909	87.55
837.086	-57.86
837.262	-125.44
837.439	-33.28
837.616	-6.66
837.792	3.58
837.968	1.54
838.145	-156.16
838.321	42.5
838.498	-0.51
838.674	-20.99
838.851	67.07
839.027	-33.28
839.203	1.54
839.38	1.54
839.556	-84.48
839.732	73.21
839.909	24.06
840.085	-14.85
840.261	-43.52
840.437	15.87
840.614	-139.77
840.79	26.11
840.966	67.07
841.142	40.45
841.318	-72.19
841.494	15.87
841.671	105.98
841.847	-53.76
842.023	-68.09
842.199	-41.47
842.375	54.78
842.551	-88.57
842.727	-70.14
842.903	122.37
843.079	-107.01
843.255	24.06
843.431	-6.66
843.607	89.6
843.783	-119.29
843.959	60.93
844.134	3.58
844.31	87.55
844.486	-29.18
844.662	-61.95
844.838	3.58
845.013	-4.61
845.189	36.35
845.365	-10.75
845.541	-2.56
845.716	126.46
845.892	19.97
846.068	-27.14
846.244	-66.05
846.419	3.58
846.595	-147.97
846.77	-16.9
846.946	44.54
847.122	-55.81
847.297	-70.14
847.473	105.98
847.648	-31.23
847.824	-8.7
847.999	-64
848.175	-74.24
848.35	-23.04
848.526	32.26
848.701	36.35
848.876	13.82
849.052	36.35
849.227	-78.33
849.403	-35.33
849.578	-31.23
849.753	46.59
849.929	13.82
850.104	-78.33
850.279	28.16
850.454	-2.56
850.63	13.82
850.805	38.4
850.98	17.92
851.155	-45.57
851.33	32.26
851.505	-86.53
851.681	136.7
851.856	-94.72
852.031	26.11
852.206	-35.33
852.381	9.73
852.556	54.78
852.731	60.93
852.906	46.59
853.081	28.16
853.256	34.3
853.431	-29.18
853.606	-92.67
853.781	-47.62
853.956	-104.96
854.131	26.11
854.305	-57.86
854.48	-61.95
854.655	3.58
854.83	-59.9
855.005	-39.42
855.18	9.73
855.354	-55.81
855.529	28.16
855.704	-33.28
855.879	-16.9
856.053	-18.94
856.228	17.92
856.403	-90.62
856.577	56.83
856.752	-113.15
856.926	30.21
857.101	-39.42
857.276	-78.33
857.45	-49.66
857.625	62.98
857.799	-27.14
857.974	-47.62
858.148	-107.01
858.323	24.06
858.497	-35.33
858.672	-92.67
858.846	-14.85
859.02	95.74
859.195	-82.43
859.369	-25.09
859.543	-35.33
859.718	-43.52
859.892	-12.8
860.066	26.11
860.241	-61.95
860.415	-80.38
860.589	79.36
860.763	-6.66
860.938	-76.29
861.112	48.64
861.286	-88.57
861.46	-20.99
861.634	-76.29
861.808	112.13
861.982	-59.9
862.157	-68.09
862.331	-127.49
862.505	-145.92
862.679	-115.2
862.853	-86.53
863.027	-25.09
863.201	155.13
863.375	-66.05
863.549	-31.23
863.722	30.21
863.896	101.89
864.07	-86.53
864.244	-51.71
864.418	87.55
864.592	-10.75
864.766	-51.71
864.939	36.35
865.113	-68.09
865.287	130.56
865.461	-16.9
865.634	7.68
865.808	-37.38
865.982	-18.94
866.156	-115.2
866.329	-94.72
866.503	-37.38
866.676	26.11
866.85	28.16
867.024	-39.42
867.197	48.64
867.371	26.11
867.544	-39.42
867.718	-84.48
867.891	99.84
868.065	-80.38
868.238	-14.85
868.412	77.31
868.585	-35.33
868.759	-47.62
868.932	-61.95
869.105	-102.91
869.279	-80.38
869.452	-80.38
869.625	7.68
869.799	-53.76
869.972	-102.91
870.145	-27.14
870.319	24.06
870.492	-6.66
870.665	-51.71
870.838	-94.72
871.011	-190.97
871.185	17.92
871.358	13.82
871.531	52.74
871.704	-70.14
871.877	26.11
872.05	-6.66
872.223	-133.63
872.396	-12.8
872.569	56.83
872.742	-72.19
872.915	-16.9
873.088	-2.56
873.261	-100.86
873.434	7.68
873.607	-43.52
873.78	122.37
873.953	-70.14
874.126	-53.76
874.299	40.45
874.471	-61.95
874.644	-8.7
874.817	44.54
874.99	171.52
875.163	-70.14
875.335	-29.18
875.508	-68.09
875.681	26.11
875.853	-70.14
876.026	-41.47
876.199	22.02
876.371	3.58
876.544	-53.76
876.717	-10.75
876.889	-29.18
877.062	24.06
877.234	-14.85
877.407	-35.33
877.579	-25.09
877.752	-33.28
877.924	5.63
878.097	30.21
878.269	5.63
878.442	-29.18
878.614	11.78
878.786	-6.66
878.959	-43.52
879.131	-53.76
879.303	-115.2
879.476	-20.99
879.648	17.92
879.82	3.58
879.993	-90.62
880.165	-78.33
880.337	-98.81
880.509	-68.09
880.681	-53.76
880.854	-78.33
881.026	-14.85
881.198	54.78
881.37	11.78
881.542	-12.8
881.714	1.54
881.886	-51.71
882.058	38.4
882.23	-39.42
882.402	-29.18
882.574	79.36
882.746	1.54
882.918	69.12
883.09	-18.94
883.262	-12.8
883.434	-16.9
883.606	-113.15
883.778	-41.47
883.95	134.65
884.122	-49.66
884.293	40.45
884.465	-12.8
884.637	44.54
884.809	-127.49
884.98	-10.75
885.152	-72.19
885.324	19.97
885.496	-70.14
885.667	-27.14
885.839	-33.28
886.011	89.6
886.182	-84.48
886.354	-6.66
886.525	-4.61
886.697	7.68
886.869	-57.86
887.04	-45.57
887.212	85.5
887.383	128.51
887.555	62.98
887.726	-39.42
887.897	-72.19
888.069	1.54
888.24	24.06
888.412	32.26
888.583	-74.24
888.754	-25.09
888.926	-109.05
889.097	19.97
889.268	-133.63
889.44	5.63
889.611	-94.72
889.782	-47.62
889.953	-111.1
890.125	105.98
890.296	-47.62
890.467	-111.1
890.638	-39.42
890.809	-57.86
890.98	-23.04
891.151	-66.05
891.323	62.98
891.494	-49.66
891.665	-29.18
891.836	15.87
892.007	-29.18
892.178	-12.8
892.349	32.26
892.52	-123.39
892.691	-47.62
892.862	-37.38
893.032	-182.78
893.203	-16.9
893.374	-74.24
893.545	83.45
893.716	-143.87
893.887	124.41
894.057	-115.2
894.228	34.3
894.399	-100.86
894.57	42.5
894.74	-37.38
894.911	22.02
895.082	-0.51
895.253	-14.85
895.423	11.78
895.594	3.58
895.764	-4.61
895.935	-57.86
896.106	13.82
896.276	-98.81
896.447	-49.66
896.617	-135.68
896.788	-150.01
896.958	17.92
897.129	-10.75
897.299	-53.76
897.47	93.69
897.64	13.82
897.81	9.73
897.981	-2.56
898.151	-27.14
898.322	-4.61
898.492	7.68
898.662	-80.38
898.832	-12.8
899.003	-76.29
899.173	-0.51
899.343	-70.14
899.513	-59.9
