Data from USB4F104151__73__09-29-51-293.txt Node

Date: Wed Feb 26 09:29:51 EST 2025
User: louis
Spectrometer: USB4F10415
Trigger mode: 4
Integration Time (sec): 1.000000E-1
Scans to average: 1
Electric dark correction enabled: true
Nonlinearity correction enabled: false
Boxcar width: 0
XAxis mode: Wavelengths
Number of Pixels in Spectrum: 3648
>>>>>Begin Spectral Data<<<<<
178.204	-339.45
178.424	-339.45
178.644	-339.45
178.864	-394.75
179.084	-384.51
179.304	-38.4
179.524	-89.6
179.744	16.9
179.964	8.7
180.184	66.05
180.404	31.23
180.624	-5.63
180.844	39.42
181.064	-108.03
181.283	12.8
181.503	0.51
181.723	66.05
181.943	-89.6
182.163	190.97
182.383	-56.83
182.602	39.42
182.822	96.77
183.042	127.49
183.262	27.14
183.482	-46.59
183.701	41.47
183.921	25.09
184.141	-24.06
184.361	111.1
184.58	31.23
184.8	43.52
185.02	-7.68
185.239	76.29
185.459	-1.54
185.679	102.91
185.898	-30.21
186.118	33.28
186.338	41.47
186.557	94.72
186.777	-11.78
186.997	43.52
187.216	43.52
187.436	147.97
187.655	100.86
187.875	113.15
188.095	51.71
188.314	92.67
188.534	158.21
188.753	31.23
188.973	98.81
189.192	162.3
189.412	55.81
189.631	33.28
189.851	109.05
190.07	117.25
190.29	-34.3
190.509	41.47
190.729	-15.87
190.948	104.96
191.168	195.07
191.387	92.67
191.607	84.48
191.826	59.9
192.045	53.76
192.265	31.23
192.484	45.57
192.704	-22.02
192.923	-83.45
193.142	178.69
193.362	113.15
193.581	86.53
193.8	78.33
194.02	98.81
194.239	72.19
194.458	107.01
194.678	64
194.897	14.85
195.116	86.53
195.335	0.51
195.555	88.57
195.774	-1.54
195.993	76.29
196.212	-1.54
196.432	16.9
196.651	-7.68
196.87	25.09
197.089	121.34
197.308	84.48
197.528	190.97
197.747	25.09
197.966	143.87
198.185	125.44
198.404	49.66
198.623	125.44
198.842	76.29
199.062	125.44
199.281	88.57
199.5	18.94
199.719	123.39
199.938	166.4
200.157	25.09
200.376	100.86
200.595	176.64
200.814	123.39
201.033	10.75
201.252	115.2
201.471	20.99
201.69	84.48
201.909	78.33
202.128	150.01
202.347	-38.4
202.566	25.09
202.785	-50.69
203.004	-22.02
203.223	219.64
203.442	84.48
203.661	-79.36
203.879	70.14
204.098	94.72
204.317	29.18
204.536	49.66
204.755	14.85
204.974	84.48
205.193	-26.11
205.411	119.29
205.63	68.09
205.849	-30.21
206.068	-24.06
206.287	-77.31
206.505	55.81
206.724	2.56
206.943	-5.63
207.162	-3.58
207.381	68.09
207.599	51.71
207.818	-3.58
208.037	-19.97
208.255	10.75
208.474	90.62
208.693	16.9
208.911	51.71
209.13	-22.02
209.349	45.57
209.567	68.09
209.786	74.24
210.005	147.97
210.223	25.09
210.442	-75.26
210.661	43.52
210.879	41.47
211.098	76.29
211.316	33.28
211.535	90.62
211.753	43.52
211.972	47.62
212.191	23.04
212.409	96.77
212.628	53.76
212.846	-26.11
213.065	29.18
213.283	45.57
213.502	68.09
213.72	25.09
213.938	117.25
214.157	59.9
214.375	70.14
214.594	4.61
214.812	92.67
215.031	0.51
215.249	18.94
215.467	61.95
215.686	59.9
215.904	55.81
216.122	70.14
216.341	156.16
216.559	115.2
216.778	43.52
216.996	55.81
217.214	-5.63
217.432	41.47
217.651	-91.65
217.869	-15.87
218.087	41.47
218.306	25.09
218.524	57.86
218.742	23.04
218.96	121.34
219.179	66.05
219.397	43.52
219.615	125.44
219.833	92.67
220.051	-26.11
220.27	10.75
220.488	66.05
220.706	78.33
220.924	23.04
221.142	2.56
221.36	139.77
221.578	37.38
221.796	64
222.015	-52.74
222.233	55.81
222.451	150.01
222.669	41.47
222.887	51.71
223.105	0.51
223.323	109.05
223.541	-26.11
223.759	47.62
223.977	31.23
224.195	96.77
224.413	109.05
224.631	66.05
224.849	102.91
225.067	229.88
225.285	43.52
225.503	-24.06
225.721	-120.32
225.939	35.33
226.157	37.38
226.375	135.68
226.592	47.62
226.81	47.62
227.028	166.4
227.246	119.29
227.464	0.51
227.682	152.06
227.9	115.2
228.117	18.94
228.335	29.18
228.553	25.09
228.771	-22.02
228.989	68.09
229.206	90.62
229.424	-22.02
229.642	4.61
229.86	-1.54
230.077	127.49
230.295	-26.11
230.513	68.09
230.731	117.25
230.948	125.44
231.166	158.21
231.384	76.29
231.601	23.04
231.819	256.51
232.037	0.51
232.254	-75.26
232.472	-9.73
232.689	-42.5
232.907	209.4
233.125	-3.58
233.342	-26.11
233.56	-22.02
233.777	18.94
233.995	64
234.213	47.62
234.43	33.28
234.648	59.9
234.865	-19.97
235.083	-5.63
235.3	16.9
235.518	78.33
235.735	82.43
235.953	107.01
236.17	25.09
236.388	27.14
236.605	57.86
236.822	188.93
237.04	139.77
237.257	109.05
237.475	-38.4
237.692	-19.97
237.909	78.33
238.127	25.09
238.344	-17.92
238.562	55.81
238.779	-120.32
238.996	-5.63
239.214	53.76
239.431	115.2
239.648	-3.58
239.865	37.38
240.083	45.57
240.3	-34.3
240.517	39.42
240.735	92.67
240.952	125.44
241.169	68.09
241.386	8.7
241.603	10.75
241.821	-30.21
242.038	88.57
242.255	133.63
242.472	-48.64
242.689	2.56
242.907	72.19
243.124	-28.16
243.341	-38.4
243.558	-32.26
243.775	-24.06
243.992	27.14
244.209	-22.02
244.426	156.16
244.643	123.39
244.86	39.42
245.078	88.57
245.295	57.86
245.512	23.04
245.729	-44.54
245.946	98.81
246.163	96.77
246.38	27.14
246.597	2.56
246.814	-34.3
247.031	68.09
247.248	-22.02
247.464	109.05
247.681	-1.54
247.898	66.05
248.115	156.16
248.332	-24.06
248.549	158.21
248.766	205.31
248.983	78.33
249.2	-9.73
249.417	107.01
249.633	-42.5
249.85	129.53
250.067	8.7
250.284	47.62
250.501	133.63
250.717	39.42
250.934	-19.97
251.151	0.51
251.368	66.05
251.585	-15.87
251.801	82.43
252.018	-5.63
252.235	78.33
252.451	-124.41
252.668	-22.02
252.885	115.2
253.102	57.86
253.318	6.66
253.535	61.95
253.752	45.57
253.968	72.19
254.185	-38.4
254.401	53.76
254.618	55.81
254.835	8.7
255.051	90.62
255.268	35.33
255.484	61.95
255.701	76.29
255.917	-9.73
256.134	-24.06
256.351	2.56
256.567	27.14
256.784	59.9
257	-19.97
257.217	86.53
257.433	100.86
257.65	-9.73
257.866	115.2
258.082	-81.41
258.299	-77.31
258.515	27.14
258.732	8.7
258.948	-54.78
259.165	57.86
259.381	-50.69
259.597	23.04
259.814	82.43
260.03	-32.26
260.246	49.66
260.463	88.57
260.679	111.1
260.895	2.56
261.112	35.33
261.328	74.24
261.544	-60.93
261.761	133.63
261.977	29.18
262.193	-34.3
262.409	147.97
262.626	31.23
262.842	41.47
263.058	16.9
263.274	104.96
263.49	35.33
263.707	96.77
263.923	14.85
264.139	-9.73
264.355	35.33
264.571	100.86
264.787	2.56
265.004	84.48
265.22	-15.87
265.436	-48.64
265.652	127.49
265.868	141.82
266.084	-28.16
266.3	76.29
266.516	10.75
266.732	23.04
266.948	100.86
267.164	68.09
267.38	-19.97
267.596	78.33
267.812	190.97
268.028	98.81
268.244	-62.98
268.46	-30.21
268.676	-38.4
268.892	39.42
269.108	-87.55
269.324	-69.12
269.54	-32.26
269.756	123.39
269.972	-30.21
270.188	-30.21
270.403	-91.65
270.619	35.33
270.835	170.49
271.051	66.05
271.267	27.14
271.483	47.62
271.698	45.57
271.914	131.58
272.13	59.9
272.346	-52.74
272.562	90.62
272.777	133.63
272.993	82.43
273.209	12.8
273.425	88.57
273.64	-34.3
273.856	59.9
274.072	37.38
274.287	35.33
274.503	121.34
274.719	98.81
274.934	10.75
275.15	-93.69
275.366	-5.63
275.581	-26.11
275.797	-22.02
276.012	47.62
276.228	-62.98
276.444	-5.63
276.659	88.57
276.875	-30.21
277.09	14.85
277.306	66.05
277.521	-62.98
277.737	66.05
277.952	2.56
278.168	18.94
278.383	47.62
278.599	82.43
278.814	0.51
279.03	35.33
279.245	68.09
279.461	14.85
279.676	57.86
279.892	-5.63
280.107	-97.79
280.322	31.23
280.538	33.28
280.753	23.04
280.969	10.75
281.184	-50.69
281.399	139.77
281.615	12.8
281.83	66.05
282.045	-26.11
282.26	-62.98
282.476	53.76
282.691	43.52
282.906	2.56
283.122	-11.78
283.337	-5.63
283.552	107.01
283.767	-87.55
283.983	109.05
284.198	-1.54
284.413	117.25
284.628	-46.59
284.843	45.57
285.058	92.67
285.274	12.8
285.489	18.94
285.704	113.15
285.919	-38.4
286.134	12.8
286.349	90.62
286.564	78.33
286.779	154.11
286.995	-34.3
287.21	-40.45
287.425	6.66
287.64	76.29
287.855	43.52
288.07	-56.83
288.285	102.91
288.5	49.66
288.715	72.19
288.93	2.56
289.145	-9.73
289.36	74.24
289.575	10.75
289.79	41.47
290.004	-24.06
290.219	119.29
290.434	49.66
290.649	-46.59
290.864	10.75
291.079	55.81
291.294	66.05
291.509	90.62
291.724	131.58
291.938	51.71
292.153	84.48
292.368	14.85
292.583	10.75
292.798	18.94
293.012	45.57
293.227	76.29
293.442	10.75
293.657	10.75
293.871	78.33
294.086	88.57
294.301	133.63
294.516	57.86
294.73	31.23
294.945	-52.74
295.16	86.53
295.374	94.72
295.589	76.29
295.804	-15.87
296.018	51.71
296.233	111.1
296.447	18.94
296.662	-62.98
296.877	23.04
297.091	109.05
297.306	57.86
297.52	2.56
297.735	78.33
297.949	-15.87
298.164	98.81
298.378	-34.3
298.593	-13.82
298.807	10.75
299.022	23.04
299.236	147.97
299.451	-9.73
299.665	-60.93
299.88	35.33
300.094	0.51
300.309	-30.21
300.523	55.81
300.737	-26.11
300.952	25.09
301.166	70.14
301.381	-5.63
301.595	6.66
301.809	125.44
302.024	61.95
302.238	-24.06
302.452	35.33
302.667	-1.54
302.881	90.62
303.095	82.43
303.309	10.75
303.524	-22.02
303.738	27.14
303.952	57.86
304.166	43.52
304.381	-91.65
304.595	76.29
304.809	-26.11
305.023	-19.97
305.237	70.14
305.452	16.9
305.666	57.86
305.88	104.96
306.094	86.53
306.308	119.29
306.522	80.38
306.736	33.28
306.95	100.86
307.164	-1.54
307.379	0.51
307.593	57.86
307.807	135.68
308.021	143.87
308.235	137.73
308.449	-11.78
308.663	16.9
308.877	162.3
309.091	125.44
309.305	74.24
309.519	-56.83
309.733	129.53
309.947	-44.54
310.161	133.63
310.374	43.52
310.588	76.29
310.802	-46.59
311.016	2.56
311.23	35.33
311.444	33.28
311.658	-26.11
311.872	166.4
312.085	59.9
312.299	68.09
312.513	121.34
312.727	141.82
312.941	-1.54
313.154	20.99
313.368	113.15
313.582	51.71
313.796	12.8
314.009	31.23
314.223	86.53
314.437	14.85
314.651	10.75
314.864	14.85
315.078	-54.78
315.292	-5.63
315.505	23.04
315.719	90.62
315.933	47.62
316.146	57.86
316.36	-38.4
316.573	184.83
316.787	31.23
317.001	8.7
317.214	-19.97
317.428	41.47
317.641	-15.87
317.855	-32.26
318.068	102.91
318.282	41.47
318.495	260.6
318.709	18.94
318.922	10.75
319.136	74.24
319.349	51.71
319.563	-50.69
319.776	80.38
319.99	-52.74
320.203	166.4
320.417	14.85
320.63	47.62
320.843	152.06
321.057	59.9
321.27	10.75
321.483	47.62
321.697	145.92
321.91	102.91
322.124	25.09
322.337	100.86
322.55	45.57
322.763	16.9
322.977	-9.73
323.19	-1.54
323.403	80.38
323.617	14.85
323.83	100.86
324.043	10.75
324.256	39.42
324.469	-87.55
324.683	16.9
324.896	27.14
325.109	47.62
325.322	-13.82
325.535	25.09
325.748	131.58
325.962	10.75
326.175	47.62
326.388	47.62
326.601	68.09
326.814	90.62
327.027	35.33
327.24	90.62
327.453	-40.45
327.666	80.38
327.879	158.21
328.092	61.95
328.305	4.61
328.518	2.56
328.731	-5.63
328.944	47.62
329.157	39.42
329.37	-1.54
329.583	223.74
329.796	70.14
330.009	-48.64
330.222	72.19
330.435	59.9
330.648	133.63
330.861	-30.21
331.073	82.43
331.286	131.58
331.499	92.67
331.712	-71.17
331.925	61.95
332.138	29.18
332.35	107.01
332.563	31.23
332.776	25.09
332.989	-77.31
333.202	23.04
333.414	45.57
333.627	-11.78
333.84	-54.78
334.053	76.29
334.265	8.7
334.478	-15.87
334.691	-38.4
334.903	-1.54
335.116	-34.3
335.329	35.33
335.541	123.39
335.754	158.21
335.966	10.75
336.179	25.09
336.392	109.05
336.604	-77.31
336.817	49.66
337.029	68.09
337.242	37.38
337.454	55.81
337.667	-48.64
337.88	131.58
338.092	20.99
338.305	74.24
338.517	10.75
338.729	90.62
338.942	64
339.154	84.48
339.367	-87.55
339.579	31.23
339.792	-19.97
340.004	29.18
340.217	49.66
340.429	51.71
340.641	-46.59
340.854	-26.11
341.066	76.29
341.278	119.29
341.491	188.93
341.703	-5.63
341.915	4.61
342.128	35.33
342.34	25.09
342.552	-9.73
342.764	18.94
342.977	10.75
343.189	2.56
343.401	98.81
343.613	41.47
343.826	143.87
344.038	-54.78
344.25	76.29
344.462	-28.16
344.674	25.09
344.886	8.7
345.099	47.62
345.311	72.19
345.523	33.28
345.735	-81.41
345.947	43.52
346.159	25.09
346.371	31.23
346.583	41.47
346.795	166.4
347.007	27.14
347.219	158.21
347.431	76.29
347.643	80.38
347.855	37.38
348.067	147.97
348.279	-13.82
348.491	43.52
348.703	123.39
348.915	6.66
349.127	-46.59
349.339	47.62
349.551	66.05
349.763	20.99
349.975	-3.58
350.187	129.53
350.399	113.15
350.61	72.19
350.822	2.56
351.034	94.72
351.246	61.95
351.458	84.48
351.669	80.38
351.881	143.87
352.093	154.11
352.305	104.96
352.517	51.71
352.728	84.48
352.94	45.57
353.152	-11.78
353.363	-95.74
353.575	-1.54
353.787	211.45
353.999	41.47
354.21	113.15
354.422	53.76
354.633	45.57
354.845	35.33
355.057	25.09
355.268	55.81
355.48	74.24
355.692	-40.45
355.903	-13.82
356.115	-11.78
356.326	-30.21
356.538	141.82
356.749	53.76
356.961	92.67
357.172	-28.16
357.384	33.28
357.595	156.16
357.807	-50.69
358.018	-11.78
358.23	70.14
358.441	113.15
358.653	92.67
358.864	-11.78
359.075	20.99
359.287	27.14
359.498	39.42
359.709	47.62
359.921	92.67
360.132	68.09
360.344	35.33
360.555	-26.11
360.766	84.48
360.977	27.14
361.189	117.25
361.4	-24.06
361.611	129.53
361.823	33.28
362.034	8.7
362.245	-40.45
362.456	55.81
362.667	76.29
362.879	-77.31
363.09	12.8
363.301	37.38
363.512	74.24
363.723	43.52
363.935	55.81
364.146	41.47
364.357	74.24
364.568	49.66
364.779	-93.69
364.99	147.97
365.201	47.62
365.412	133.63
365.623	-122.37
365.834	51.71
366.045	6.66
366.256	100.86
366.467	49.66
366.678	37.38
366.889	2.56
367.1	-19.97
367.311	133.63
367.522	10.75
367.733	92.67
367.944	74.24
368.155	35.33
368.366	59.9
368.577	121.34
368.788	123.39
368.999	-83.45
369.209	39.42
369.42	213.5
369.631	162.3
369.842	68.09
370.053	18.94
370.264	139.77
370.474	6.66
370.685	98.81
370.896	18.94
371.107	158.21
371.317	80.38
371.528	-19.97
371.739	37.38
371.95	43.52
372.16	2.56
372.371	-1.54
372.582	-26.11
372.792	104.96
373.003	10.75
373.214	43.52
373.424	100.86
373.635	-30.21
373.846	55.81
374.056	-5.63
374.267	-1.54
374.477	72.19
374.688	0.51
374.898	23.04
375.109	57.86
375.319	23.04
375.53	59.9
375.74	117.25
375.951	51.71
376.161	125.44
376.372	111.1
376.582	-19.97
376.793	64
377.003	-77.31
377.214	-50.69
377.424	59.9
377.635	45.57
377.845	-26.11
378.055	160.25
378.266	-19.97
378.476	-19.97
378.686	29.18
378.897	43.52
379.107	27.14
379.317	145.92
379.528	2.56
379.738	35.33
379.948	-73.21
380.158	104.96
380.369	49.66
380.579	39.42
380.789	55.81
380.999	127.49
381.21	37.38
381.42	166.4
381.63	-7.68
381.84	37.38
382.05	51.71
382.261	80.38
382.471	86.53
382.681	-65.02
382.891	186.88
383.101	59.9
383.311	45.57
383.521	-17.92
383.731	115.2
383.941	72.19
384.151	49.66
384.361	55.81
384.571	8.7
384.781	55.81
384.991	188.93
385.201	139.77
385.411	66.05
385.621	57.86
385.831	25.09
386.041	137.73
386.251	18.94
386.461	147.97
386.671	-34.3
386.881	104.96
387.091	-56.83
387.301	117.25
387.511	41.47
387.72	43.52
387.93	23.04
388.14	-17.92
388.35	23.04
388.56	107.01
388.769	111.1
388.979	88.57
389.189	18.94
389.399	43.52
389.609	166.4
389.818	61.95
390.028	-34.3
390.238	88.57
390.447	6.66
390.657	-17.92
390.867	20.99
391.076	-22.02
391.286	18.94
391.496	43.52
391.705	68.09
391.915	76.29
392.125	109.05
392.334	35.33
392.544	74.24
392.753	-17.92
392.963	43.52
393.172	57.86
393.382	27.14
393.591	68.09
393.801	8.7
394.01	84.48
394.22	14.85
394.429	35.33
394.639	-1.54
394.848	96.77
395.058	107.01
395.267	64
395.477	135.68
395.686	72.19
395.895	125.44
396.105	190.97
396.314	76.29
396.524	-30.21
396.733	64
396.942	100.86
397.152	41.47
397.361	47.62
397.57	51.71
397.78	86.53
397.989	49.66
398.198	217.6
398.407	80.38
398.617	-30.21
398.826	94.72
399.035	74.24
399.244	45.57
399.453	10.75
399.663	14.85
399.872	31.23
400.081	-5.63
400.29	86.53
400.499	-62.98
400.708	129.53
400.917	14.85
401.127	51.71
401.336	16.9
401.545	219.64
401.754	55.81
401.963	45.57
402.172	-3.58
402.381	-73.21
402.59	100.86
402.799	-1.54
403.008	143.87
403.217	14.85
403.426	90.62
403.635	27.14
403.844	55.81
404.053	82.43
404.262	53.76
404.471	47.62
404.68	35.33
404.888	-17.92
405.097	82.43
405.306	25.09
405.515	119.29
405.724	25.09
405.933	143.87
406.142	27.14
406.35	76.29
406.559	-1.54
406.768	-26.11
406.977	131.58
407.185	51.71
407.394	55.81
407.603	-30.21
407.812	25.09
408.02	186.88
408.229	43.52
408.438	10.75
408.646	-28.16
408.855	-36.35
409.064	-11.78
409.272	-15.87
409.481	125.44
409.69	27.14
409.898	20.99
410.107	27.14
410.315	10.75
410.524	-34.3
410.733	23.04
410.941	76.29
411.15	37.38
411.358	145.92
411.567	68.09
411.775	66.05
411.984	64
412.192	78.33
412.401	43.52
412.609	94.72
412.818	135.68
413.026	113.15
413.234	6.66
413.443	2.56
413.651	-9.73
413.86	2.56
414.068	76.29
414.276	137.73
414.485	23.04
414.693	78.33
414.901	143.87
415.11	10.75
415.318	80.38
415.526	6.66
415.734	84.48
415.943	59.9
416.151	133.63
416.359	47.62
416.567	-7.68
416.776	76.29
416.984	137.73
417.192	178.69
417.4	-13.82
417.608	43.52
417.817	-13.82
418.025	117.25
418.233	164.35
418.441	-3.58
418.649	66.05
418.857	55.81
419.065	170.49
419.273	-13.82
419.481	121.34
419.689	23.04
419.897	29.18
420.105	-24.06
420.313	29.18
420.521	92.67
420.729	107.01
420.937	31.23
421.145	-112.13
421.353	64
421.561	156.16
421.769	14.85
421.977	-15.87
422.185	31.23
422.393	39.42
422.601	94.72
422.809	119.29
423.017	37.38
423.224	121.34
423.432	76.29
423.64	51.71
423.848	197.12
424.056	-7.68
424.263	92.67
424.471	43.52
424.679	113.15
424.887	-22.02
425.094	88.57
425.302	76.29
425.51	43.52
425.718	49.66
425.925	20.99
426.133	14.85
426.341	248.32
426.548	4.61
426.756	74.24
426.964	84.48
427.171	-48.64
427.379	35.33
427.586	51.71
427.794	143.87
428.001	180.73
428.209	68.09
428.417	147.97
428.624	35.33
428.832	51.71
429.039	-34.3
429.247	16.9
429.454	176.64
429.662	190.97
429.869	133.63
430.076	102.91
430.284	143.87
430.491	317.95
430.699	131.58
430.906	139.77
431.114	182.78
431.321	123.39
431.528	109.05
431.736	98.81
431.943	49.66
432.15	88.57
432.358	113.15
432.565	215.55
432.772	76.29
432.979	199.16
433.187	96.77
433.394	279.04
433.601	98.81
433.808	162.3
434.016	98.81
434.223	270.84
434.43	231.93
434.637	283.13
434.844	174.59
435.052	174.59
435.259	260.6
435.466	332.28
435.673	199.16
435.88	264.7
436.087	295.42
436.294	334.33
436.501	240.12
436.708	213.5
436.915	215.55
437.122	287.23
437.329	178.69
437.537	317.95
437.743	313.85
437.95	389.63
438.157	297.47
438.364	309.76
438.571	264.7
438.778	320
438.985	371.19
439.192	444.92
439.399	422.39
439.606	453.11
439.813	444.92
440.02	440.83
440.227	649.72
440.433	494.07
440.64	496.12
440.847	438.78
441.054	504.31
441.261	633.33
441.467	492.02
441.674	424.44
441.881	680.44
442.088	516.6
442.294	729.59
442.501	705.01
442.708	760.31
442.914	670.2
443.121	729.59
443.328	729.59
443.534	795.12
443.741	795.12
443.948	739.83
444.154	862.71
444.361	1004.02
444.568	913.91
444.774	938.48
444.981	797.17
445.187	1010.16
445.394	999.92
445.6	1020.4
445.807	1139.18
446.013	1118.7
446.22	1085.94
446.426	1239.53
446.633	1239.53
446.839	1415.66
447.046	1206.77
447.252	1364.46
447.459	1378.79
447.665	1386.99
447.871	1565.16
448.078	1706.47
448.284	1604.07
448.491	1626.6
448.697	1731.05
448.903	1804.77
449.11	1845.73
449.316	1747.43
449.522	1925.6
449.728	2157.02
449.935	2103.78
450.141	2204.13
450.347	2249.18
450.553	2277.85
450.76	2316.76
450.966	2376.16
451.172	2533.85
451.378	2673.11
451.584	2738.65
451.791	2890.2
451.997	2935.25
452.203	2976.21
452.409	3164.62
452.615	3353.04
452.821	3285.45
453.027	3283.41
453.233	3793.35
453.44	3512.78
453.646	3695.05
453.852	3748.29
454.058	4026.82
454.264	4139.46
454.47	4483.52
454.676	4387.26
454.882	4835.77
455.088	4481.47
455.294	4987.32
455.5	5106.1
455.705	5532.08
455.911	5353.9
456.117	5691.82
456.323	5812.65
456.529	5822.89
456.735	6326.69
456.941	6494.62
457.147	6781.34
457.352	7082.39
457.558	7137.68
457.764	7735.69
457.97	7694.73
458.176	8085.89
458.381	8618.36
458.587	8731
458.793	9316.72
458.999	8909.18
459.204	10340.71
459.41	10600.8
459.616	10240.36
459.821	10953.05
460.027	11393.36
460.233	11950.41
460.438	12097.86
460.644	12759.36
460.85	13072.7
461.055	13285.69
461.261	14063.91
461.466	13703.47
461.672	13986.09
461.878	15507.73
462.083	15243.54
462.289	15816.97
462.494	16505.09
462.7	16580.87
462.905	16699.65
463.111	18141.42
463.316	19095.77
463.522	19208.41
463.727	19718.36
463.932	20672.71
464.138	21377.21
464.343	22354.09
464.549	22243.5
464.754	24168.59
464.959	24637.58
465.165	25012.35
465.37	24869
465.575	25061.51
465.781	26796.14
465.986	27258.98
466.191	26878.05
466.397	27086.95
466.602	26478.7
466.807	27863.13
467.012	28616.78
467.218	28876.87
467.423	28973.13
467.628	30163
467.833	31330.34
468.038	31115.3
468.244	30337.07
468.449	32241.68
468.654	31410.21
468.859	31250.47
469.064	31385.63
469.269	30548.01
469.474	30775.34
469.679	31557.66
469.885	30808.11
470.09	31162.4
470.295	31326.24
470.5	30527.53
470.705	30871.59
470.91	29995.06
471.115	29421.63
471.32	30552.11
471.525	30113.84
471.73	29235.27
471.935	28827.72
472.139	27797.59
472.344	27986
472.549	27238.5
472.754	26904.68
472.959	26611.82
473.164	25729.14
473.369	25514.11
473.574	26075.25
473.778	25413.76
473.983	25026.69
474.188	24678.54
474.393	23357.6
474.598	23724.18
474.802	23111.84
475.007	22663.33
475.212	22276.27
475.417	21504.18
475.621	21420.22
475.826	21006.53
476.031	20457.67
476.235	20037.84
476.44	20328.65
476.645	19613.91
476.849	19362.01
477.054	19058.91
477.259	18639.08
477.463	18530.53
477.668	18245.87
477.872	18186.47
478.077	17848.56
478.282	17088.76
478.486	16982.27
478.691	16658.69
478.895	16630.02
479.1	16591.11
479.304	16404.74
479.509	15737.1
479.713	16044.3
479.918	15649.04
480.122	15405.33
480.326	15458.58
480.531	15474.96
480.735	15192.34
480.94	15014.17
481.144	15298.84
481.348	14483.75
481.553	14797.09
481.757	14547.23
481.961	14272.81
482.166	14684.45
482.37	14344.49
482.574	13951.28
482.778	14133.54
482.983	14164.26
483.187	13842.73
483.391	13867.31
483.595	13629.74
483.8	13369.65
484.004	13576.5
484.208	13396.28
484.412	13070.65
484.616	13343.03
484.821	12994.87
485.025	12638.53
485.229	12691.77
485.433	12366.15
485.637	12278.08
485.841	12169.54
486.045	12026.18
486.249	12083.53
486.453	11735.37
486.657	11647.31
486.861	11413.84
487.065	10957.14
487.269	11039.06
487.473	10774.88
487.677	10733.92
487.881	10733.92
488.085	10439.01
488.289	10180.96
488.493	10043.75
488.697	10094.95
488.901	9734.51
489.105	9591.15
489.309	9564.53
489.512	9384.3
489.716	9054.58
489.92	8931.7
490.124	8878.46
490.328	8692.09
490.531	8388.99
490.735	8526.21
490.939	8130.95
491.143	7889.29
491.346	7915.91
491.55	7813.51
491.754	7743.88
491.958	7563.66
492.161	7512.46
492.365	7555.47
492.569	7217.55
492.772	7086.48
492.976	7195.03
493.18	6969.75
493.383	7031.19
493.587	6957.46
493.79	6799.77
493.994	6472.09
494.197	6541.72
494.401	6605.21
494.605	6207.91
494.808	6445.47
495.012	6457.76
495.215	6541.72
495.419	6609.31
495.622	6099.36
495.825	6171.04
496.029	6214.05
496.232	6226.34
496.436	6298.02
496.639	6205.86
496.843	6195.62
497.046	6199.71
497.249	6330.78
497.453	6099.36
497.656	6144.42
497.859	6050.21
498.063	6246.82
498.266	6273.44
498.469	6109.6
498.673	6160.8
498.876	6351.26
499.079	6248.86
499.282	5992.87
499.485	6662.55
499.689	6349.22
499.892	6502.81
500.095	6545.82
500.298	6470.05
500.501	6384.03
500.705	6637.98
500.908	6527.39
501.111	6807.96
501.314	6875.54
501.517	6979.99
501.72	6967.7
501.923	7031.19
502.126	7018.9
502.329	7465.36
502.532	7365.01
502.735	7408.01
502.938	7475.6
503.141	7436.69
503.344	7508.37
503.547	7891.34
503.75	7709.07
503.953	7973.25
504.156	7877
504.359	8112.52
504.562	8210.82
504.765	8319.36
504.968	8552.83
505.17	8436.1
505.373	8644.99
505.576	8771.96
505.779	8960.38
505.982	9120.12
506.185	9222.52
506.387	9380.21
506.59	9562.48
506.793	9668.97
506.996	9847.15
507.198	10371.43
507.401	10418.53
507.604	10506.59
507.807	10738.01
508.009	11032.92
508.212	11000.15
508.415	11397.46
508.617	11766.09
508.82	11606.35
509.022	11858.25
509.225	12253.51
509.428	12607.81
509.63	12716.35
509.833	13193.53
510.035	13736.24
510.238	13502.77
510.44	13969.71
510.643	14184.74
510.845	14315.81
511.048	14735.65
511.25	14852.38
511.453	15184.15
511.655	16132.36
511.858	16083.21
512.06	16365.83
512.262	16791.81
512.465	17228.03
512.667	17721.59
512.87	17914.09
513.072	18321.64
513.274	18702.56
513.477	19101.92
513.679	19327.19
513.881	20222.16
514.084	20531.4
514.286	20883.65
514.488	21377.21
514.69	21977.26
514.893	22436.01
515.095	22982.82
515.297	23353.5
515.499	23597.21
515.701	24465.55
515.904	24793.22
516.106	25161.86
516.308	25745.53
516.51	26421.36
516.712	26550.38
516.914	27279.46
517.116	27867.22
517.318	28352.59
517.52	28762.19
517.722	29220.93
517.925	29671.48
518.127	30273.59
518.329	30973.99
518.531	31178.79
518.733	32090.13
518.935	32456.72
519.136	32974.86
519.338	33460.23
519.54	33984.51
519.742	34635.76
519.944	34895.85
520.146	35733.47
520.348	36020.19
520.55	36612.05
520.752	36673.49
520.954	37642.18
521.155	37816.25
521.357	38266.81
521.559	38584.24
521.761	39583.65
521.963	39401.38
522.164	40017.82
522.366	40265.63
522.568	40769.43
522.77	40564.63
522.971	41195.4
523.173	41166.73
523.375	41793.41
523.576	42200.96
523.778	41987.97
523.98	42446.71
524.181	42510.2
524.383	42377.08
524.584	42841.97
524.786	42897.27
524.988	42913.65
525.189	43421.55
525.391	42942.32
525.592	43114.35
525.794	43569
525.995	43444.07
526.197	43122.54
526.398	43370.35
526.6	43415.4
526.801	43306.86
527.003	43057.01
527.204	42841.97
527.406	43079.53
527.607	42315.64
527.808	42737.52
528.01	41942.91
528.211	42121.09
528.412	42362.75
528.614	41740.16
528.815	41297.8
529.016	41467.78
529.218	40038.3
529.419	40449.94
529.62	40187.8
529.822	40007.58
530.023	39389.09
530.224	39483.3
530.425	38557.62
530.626	38166.46
530.828	37539.78
531.029	37832.64
531.23	37253.06
531.431	36880.33
531.632	36581.33
531.833	36270.04
532.035	35622.88
532.236	35313.64
532.437	35037.16
532.638	34181.11
532.839	33822.72
533.04	33802.24
533.241	33071.11
533.442	33161.22
533.643	32315.41
533.844	31914.01
534.045	31576.09
534.246	30619.69
534.447	30756.91
534.648	30357.55
534.849	29976.63
535.05	29603.9
535.251	28995.65
535.451	28751.95
535.652	28303.44
535.853	27883.61
536.054	27680.86
536.255	27465.82
536.456	26572.91
536.657	26845.29
536.857	26349.68
537.058	25755.77
537.259	25475.2
537.46	25151.62
537.66	24903.81
537.861	24584.33
538.062	24293.52
538.263	23740.57
538.463	23468.19
538.664	23189.66
538.865	23044.26
539.065	22775.97
539.266	22290.6
539.466	22395.05
539.667	21876.91
539.868	22010.03
540.068	21414.07
540.269	20924.61
540.469	21002.43
540.67	20623.56
540.87	20545.73
541.071	20467.91
541.271	20312.27
541.472	19949.78
541.672	19531.99
541.873	19253.47
542.073	18622.69
542.274	18888.93
542.474	18587.88
542.675	18118.89
542.875	18165.99
543.075	17809.65
543.276	17533.17
543.476	17764.59
543.676	17346.81
543.877	17352.95
544.077	17195.26
544.277	16949.5
544.478	16742.66
544.678	16451.84
544.878	16589.06
545.078	15991.05
545.279	15843.6
545.479	15778.06
545.679	15620.37
545.879	15358.23
546.079	15345.94
546.28	14856.48
546.48	14774.56
546.68	14743.84
546.88	14379.3
547.08	14520.61
547.28	14287.14
547.48	13807.92
547.68	13883.69
547.88	13531.44
548.081	13496.63
548.281	13365.56
548.481	13164.86
548.681	12953.91
548.881	12650.81
549.081	12732.73
549.28	12345.67
549.48	12296.52
549.68	12196.17
549.88	12417.35
550.08	11841.87
550.28	11733.32
550.48	11780.43
550.68	11422.03
550.88	11254.1
551.08	10889.56
551.279	11129.17
551.479	10684.76
551.679	10715.48
551.879	10496.35
552.079	10422.62
552.278	10039.65
552.478	9961.83
552.678	9894.25
552.878	9728.36
553.077	9544.05
553.277	9347.44
553.477	9339.25
553.676	9113.97
553.876	8972.66
554.076	8661.37
554.275	8669.56
554.475	8288.64
554.674	8444.29
554.874	8366.46
555.074	8108.42
555.273	7999.88
555.473	7971.21
555.672	7750.03
555.872	7520.65
556.071	7557.52
556.271	7571.85
556.47	7350.67
556.67	7170.45
556.869	7201.17
557.068	6996.37
557.268	6660.51
557.467	6597.02
557.667	6637.98
557.866	6621.59
558.065	6418.85
558.265	6201.76
558.464	6134.18
558.663	6150.56
558.863	6066.6
559.062	6056.36
559.261	5865.89
559.461	5783.98
559.66	5444.01
559.859	5464.49
560.058	5388.72
560.258	5421.49
560.457	5228.98
560.656	5376.43
560.855	5015.99
561.054	5077.43
561.253	4807.09
561.453	4862.39
561.652	4766.14
561.851	4819.38
562.05	4639.16
562.249	4575.67
562.448	4475.32
562.647	4317.63
562.846	4385.21
563.045	4358.59
563.244	4389.31
563.443	4149.7
563.642	4020.67
563.841	4082.11
564.04	4000.19
564.239	3957.19
564.438	4002.24
564.637	3699.14
564.836	3797.45
565.035	3756.49
565.234	3645.9
565.432	3652.04
565.631	3455.44
565.83	3578.31
566.029	3455.44
566.228	3371.47
566.427	3514.83
566.625	3193.3
566.824	3264.97
567.023	3172.82
567.222	3129.81
567.42	3115.47
567.619	2914.77
567.818	2959.83
568.016	3281.36
568.215	2953.68
568.414	2925.01
568.612	2892.24
568.811	2742.74
569.01	2752.98
569.208	2660.82
569.407	2630.1
569.605	2679.26
569.804	2568.66
570.002	2615.77
570.201	2599.38
570.4	2587.1
570.598	2415.07
570.797	2566.62
570.995	2458.07
571.193	2361.82
571.392	2410.97
571.59	2220.51
571.789	2269.66
571.987	2236.89
572.186	2234.85
572.384	2107.87
572.582	2097.63
572.781	2247.13
572.979	2064.86
573.177	2042.34
573.376	1882.6
573.574	1995.23
573.772	1972.71
573.971	1763.81
574.169	1843.68
574.367	1821.16
574.565	1673.7
574.763	1821.16
574.962	1796.58
575.16	1579.5
575.358	1583.59
575.556	1681.89
575.754	1653.22
575.952	1612.26
576.151	1634.79
576.349	1663.46
576.547	1362.41
576.745	1595.88
576.943	1444.33
577.141	1407.47
577.339	1378.79
577.537	1386.99
577.735	1425.9
577.933	1518.06
578.131	1325.55
578.329	1374.7
578.527	1223.15
578.725	1321.45
578.923	1130.99
579.121	1370.6
579.319	1102.32
579.516	1153.52
579.714	1374.7
579.912	1237.49
580.11	1087.98
580.308	1098.22
580.506	1143.28
580.704	1006.06
580.901	1067.5
581.099	1223.15
581.297	1034.74
581.495	971.25
581.692	1034.74
581.89	1108.46
582.088	1038.83
582.285	1061.36
582.483	918
582.681	893.43
582.878	899.57
583.076	932.34
583.274	952.82
583.471	969.2
583.669	903.67
583.866	838.13
584.064	854.51
584.262	920.05
584.459	868.85
584.657	825.84
584.854	842.23
585.052	780.79
585.249	899.57
585.447	854.51
585.644	674.29
585.841	901.62
586.039	846.32
586.236	823.8
586.434	725.49
586.631	643.57
586.828	733.68
587.026	678.39
587.223	631.29
587.42	571.9
587.618	754.16
587.815	727.54
588.012	598.52
588.21	711.16
588.407	653.81
588.604	750.07
588.801	565.75
588.999	612.85
589.196	688.63
589.393	483.83
589.59	608.76
589.787	575.99
589.984	575.99
590.182	594.42
590.379	571.9
590.576	559.61
590.773	555.51
590.97	543.22
591.167	651.77
591.364	623.09
591.561	600.57
591.758	647.67
591.955	604.66
592.152	565.75
592.349	553.46
592.546	530.94
592.743	487.93
592.94	559.61
593.137	606.71
593.334	664.05
593.531	547.32
593.727	647.67
593.924	547.32
594.121	549.37
594.318	522.74
594.515	625.14
594.712	666.1
594.908	629.24
595.105	498.17
595.302	643.57
595.499	557.56
595.696	766.45
595.892	473.59
596.089	702.97
596.286	719.35
596.482	700.92
596.679	707.06
596.876	647.67
597.072	764.4
597.269	672.25
597.466	811.51
597.662	643.57
597.859	696.82
598.055	764.4
598.252	854.51
598.448	831.99
598.645	860.66
598.841	899.57
599.038	956.91
599.234	1055.22
599.431	1130.99
599.627	1026.54
599.824	1145.33
600.02	967.15
600.217	1169.9
600.413	1169.9
600.609	1253.87
600.806	1397.23
601.002	1280.49
601.198	1180.14
601.395	1487.34
601.591	1384.94
601.787	1620.46
601.984	1640.93
602.18	1657.32
602.376	1710.57
602.572	1837.54
602.769	1915.36
602.965	1890.79
603.161	2038.24
603.357	2114.02
603.553	2249.18
603.75	2075.1
603.946	2259.42
604.142	2261.47
604.338	2509.27
604.534	2515.42
604.73	2556.38
604.926	2488.79
605.122	2937.3
605.318	2898.39
605.514	2931.16
605.71	2863.57
605.906	3088.85
606.102	3203.54
606.298	3353.04
606.494	3365.32
606.69	3609.03
606.886	3600.84
607.082	3510.73
607.278	3688.9
607.474	3791.3
607.67	3989.96
607.866	3971.52
608.062	4309.44
608.257	4362.69
608.453	4323.77
608.649	4725.18
608.845	4581.82
609.041	4745.66
609.236	4970.93
609.432	5120.43
609.628	5171.63
609.824	5534.12
610.019	5425.58
610.215	5607.85
610.411	5771.69
610.606	5855.65
610.802	6027.68
610.998	6416.8
611.193	6353.31
611.389	6431.13
611.584	6699.42
611.78	6621.59
611.976	7141.78
612.171	7334.29
612.367	7494.03
612.562	7715.21
612.758	7741.83
612.953	7944.58
613.149	8196.48
613.344	8278.4
613.539	8741.24
613.735	8825.21
613.93	9283.95
614.126	9210.23
614.321	9632.11
614.517	9765.23
614.712	10185.06
614.907	10123.62
615.103	10477.92
615.298	10852.7
615.493	11065.69
615.688	11340.11
615.884	11755.85
616.079	11661.65
616.274	12237.13
616.47	12394.82
616.665	12931.39
616.86	12994.87
617.055	13437.23
617.25	13906.22
617.445	14424.36
617.641	14278.95
617.836	14987.55
618.031	15075.61
618.226	15579.41
618.421	15733.01
618.616	16308.49
618.811	16363.78
619.006	16847.1
619.201	17359.1
619.396	17797.36
619.591	17903.85
619.786	18845.92
619.981	18909.41
620.176	19562.71
620.371	19663.06
620.566	20695.24
620.761	20451.53
620.956	21041.34
621.151	21141.69
621.346	21983.41
621.541	22139.05
621.735	23029.92
621.93	23101.6
622.125	23253.15
622.32	23455.9
622.515	24137.87
622.709	24639.62
622.904	25268.35
623.099	25397.37
623.294	26169.46
623.488	26239.09
623.683	26982.5
623.878	26908.77
624.072	27908.18
624.267	28010.58
624.462	28850.25
624.656	28897.35
624.851	29569.08
625.046	29710.39
625.24	30505.01
625.435	30425.14
625.629	31289.38
625.824	31492.13
626.018	32268.31
626.213	31522.85
626.407	32759.82
626.602	32798.73
626.796	33476.61
626.991	33722.37
627.185	33849.34
627.38	34142.2
627.574	34684.91
627.768	34394.1
627.963	34467.83
628.157	34504.69
628.352	35131.37
628.546	34326.52
628.74	35205.09
628.935	34598.9
629.129	35215.33
629.323	34592.75
629.517	34779.12
629.712	34439.15
629.906	34127.86
630.1	34111.48
630.294	33726.46
630.489	33142.79
630.683	33198.09
630.877	31911.96
631.071	31485.98
631.265	31494.18
631.459	30642.22
631.653	29943.86
631.848	29638.72
632.042	29005.89
632.236	28330.06
632.43	27332.7
632.624	26763.37
632.818	25684.09
633.012	25483.39
633.206	24428.68
633.4	23787.67
633.594	22884.51
633.788	22239.4
633.982	21653.69
634.176	20949.18
634.369	19638.48
634.563	19220.7
634.757	18282.73
634.951	17830.13
635.145	17230.07
635.339	16523.52
635.533	15999.24
635.726	15464.72
635.92	14426.4
636.114	14025
636.308	13408.56
636.501	13199.67
636.695	12491.07
636.889	11786.57
637.083	11581.78
637.276	10856.79
637.47	10381.67
637.664	10017.13
637.857	9640.3
638.051	9376.11
638.244	8964.47
638.438	8663.42
638.632	8407.42
638.825	7704.97
639.019	7629.2
639.212	7227.79
639.406	7002.52
639.599	6721.95
639.793	6543.77
639.986	6060.45
640.18	6062.5
640.373	5718.44
640.567	5392.81
640.76	5380.53
640.954	5048.75
641.147	4792.76
641.34	4870.58
641.534	4518.33
641.727	4436.41
641.92	4252.1
642.114	4024.77
642.307	3959.24
642.5	3744.2
642.694	3586.51
642.887	3492.3
643.08	3467.72
643.273	3336.65
643.467	2994.64
643.66	3043.79
643.853	2812.37
644.046	2767.32
644.239	2705.88
644.432	2621.91
644.626	2337.24
644.819	2353.63
645.012	2220.51
645.205	2243.04
645.398	2245.09
645.591	2054.62
645.784	1843.68
645.977	1905.12
646.17	1831.4
646.363	1694.18
646.556	1620.46
646.749	1550.82
646.942	1620.46
647.135	1536.49
647.328	1544.68
647.521	1268.2
647.714	1329.64
647.907	1329.64
648.099	1178.09
648.292	1286.64
648.485	1196.53
648.678	1100.27
648.871	1073.65
649.064	989.68
649.256	924.15
649.449	985.58
649.642	936.43
649.835	948.72
650.027	770.55
650.22	911.86
650.413	735.73
650.605	727.54
650.798	715.25
650.991	682.49
651.183	690.68
651.376	723.44
651.568	707.06
651.761	588.28
651.954	600.57
652.146	625.14
652.339	676.34
652.531	637.43
652.724	500.22
652.916	598.52
653.109	336.38
653.301	520.7
653.494	477.69
653.686	436.73
653.879	569.85
654.071	375.29
654.263	420.35
654.456	406.01
654.648	459.26
654.84	375.29
655.033	338.43
655.225	498.17
655.417	283.13
655.61	420.35
655.802	393.72
655.994	442.87
656.186	311.8
656.379	408.06
656.571	244.22
656.763	311.8
656.955	365.05
657.148	248.32
657.34	360.95
657.532	254.46
657.724	274.94
657.916	303.61
658.108	387.58
658.3	238.08
658.492	281.08
658.684	211.45
658.876	299.52
659.068	129.53
659.26	107.01
659.452	125.44
659.644	272.89
659.836	281.08
660.028	195.07
660.22	184.83
660.412	244.22
660.604	205.31
660.796	240.12
660.988	252.41
661.18	143.87
661.372	248.32
661.563	164.35
661.755	121.34
661.947	131.58
662.139	109.05
662.331	154.11
662.522	133.63
662.714	217.6
662.906	88.57
663.097	188.93
663.289	78.33
663.481	78.33
663.673	184.83
663.864	156.16
664.056	197.12
664.247	117.25
664.439	287.23
664.631	195.07
664.822	225.79
665.014	90.62
665.205	72.19
665.397	78.33
665.588	156.16
665.78	47.62
665.971	221.69
666.163	127.49
666.354	119.29
666.546	98.81
666.737	141.82
666.929	90.62
667.12	139.77
667.311	162.3
667.503	139.77
667.694	240.12
667.885	121.34
668.077	174.59
668.268	27.14
668.459	31.23
668.651	109.05
668.842	90.62
669.033	55.81
669.224	8.7
669.416	258.56
669.607	121.34
669.798	16.9
669.989	211.45
670.18	150.01
670.371	156.16
670.563	-79.36
670.754	252.41
670.945	125.44
671.136	201.21
671.327	-22.02
671.518	127.49
671.709	221.69
671.9	172.54
672.091	219.64
672.282	145.92
672.473	156.16
672.664	72.19
672.855	113.15
673.046	107.01
673.237	188.93
673.428	33.28
673.619	170.49
673.809	141.82
674	315.9
674.191	133.63
674.382	111.1
674.573	55.81
674.764	133.63
674.954	145.92
675.145	31.23
675.336	172.54
675.527	162.3
675.717	92.67
675.908	82.43
676.099	82.43
676.289	154.11
676.48	-46.59
676.671	252.41
676.861	111.1
677.052	59.9
677.243	147.97
677.433	66.05
677.624	188.93
677.814	207.36
678.005	156.16
678.195	215.55
678.386	160.25
678.576	162.3
678.767	43.52
678.957	92.67
679.148	182.78
679.338	281.08
679.529	207.36
679.719	111.1
679.909	186.88
680.1	293.37
680.29	176.64
680.481	156.16
680.671	190.97
680.861	199.16
681.052	150.01
681.242	100.86
681.432	217.6
681.622	141.82
681.813	59.9
682.003	178.69
682.193	92.67
682.383	240.12
682.573	190.97
682.764	160.25
682.954	203.26
683.144	260.6
683.334	166.4
683.524	174.59
683.714	184.83
683.904	213.5
684.094	154.11
684.284	188.93
684.474	334.33
684.664	287.23
684.854	164.35
685.044	201.21
685.234	223.74
685.424	182.78
685.614	205.31
685.804	279.04
685.994	174.59
686.184	162.3
686.374	238.08
686.564	211.45
686.753	158.21
686.943	129.53
687.133	178.69
687.323	80.38
687.513	274.94
687.702	150.01
687.892	199.16
688.082	223.74
688.272	252.41
688.461	252.41
688.651	281.08
688.841	264.7
689.03	186.88
689.22	109.05
689.41	285.18
689.599	258.56
689.789	113.15
689.979	270.84
690.168	145.92
690.358	184.83
690.547	195.07
690.737	231.93
690.926	240.12
691.116	168.45
691.305	244.22
691.495	197.12
691.684	145.92
691.874	166.4
692.063	143.87
692.252	180.73
692.442	195.07
692.631	70.14
692.82	96.77
693.01	260.6
693.199	111.1
693.388	227.84
693.578	86.53
693.767	209.4
693.956	188.93
694.146	172.54
694.335	209.4
694.524	143.87
694.713	233.98
694.902	150.01
695.092	119.29
695.281	162.3
695.47	186.88
695.659	78.33
695.848	180.73
696.037	90.62
696.226	233.98
696.415	170.49
696.604	184.83
696.793	211.45
696.982	127.49
697.171	209.4
697.36	84.48
697.549	209.4
697.738	2.56
697.927	186.88
698.116	174.59
698.305	190.97
698.494	203.26
698.683	154.11
698.872	229.88
699.061	174.59
699.25	209.4
699.438	172.54
699.627	129.53
699.816	313.85
700.005	164.35
700.193	123.39
700.382	223.74
700.571	236.03
700.76	221.69
700.948	207.36
701.137	141.82
701.326	270.84
701.514	129.53
701.703	178.69
701.892	170.49
702.08	236.03
702.269	113.15
702.457	90.62
702.646	166.4
702.834	109.05
703.023	229.88
703.212	266.75
703.4	166.4
703.589	92.67
703.777	164.35
703.965	109.05
704.154	98.81
704.342	154.11
704.531	94.72
704.719	137.73
704.907	283.13
705.096	96.77
705.284	92.67
705.472	201.21
705.661	225.79
705.849	199.16
706.037	207.36
706.226	176.64
706.414	227.84
706.602	41.47
706.79	215.55
706.979	156.16
707.167	133.63
707.355	162.3
707.543	109.05
707.731	178.69
707.919	129.53
708.107	170.49
708.296	18.94
708.484	150.01
708.672	236.03
708.86	182.78
709.048	166.4
709.236	199.16
709.424	199.16
709.612	121.34
709.8	78.33
709.988	166.4
710.176	211.45
710.364	309.76
710.551	109.05
710.739	111.1
710.927	125.44
711.115	147.97
711.303	229.88
711.491	246.27
711.679	188.93
711.866	326.14
712.054	115.2
712.242	207.36
712.43	254.46
712.617	115.2
712.805	252.41
712.993	164.35
713.181	84.48
713.368	221.69
713.556	150.01
713.744	121.34
713.931	391.67
714.119	236.03
714.306	162.3
714.494	123.39
714.682	166.4
714.869	96.77
715.057	184.83
715.244	133.63
715.432	186.88
715.619	150.01
715.807	141.82
715.994	145.92
716.182	223.74
716.369	221.69
716.556	252.41
716.744	121.34
716.931	158.21
717.119	274.94
717.306	174.59
717.493	227.84
717.681	88.57
717.868	107.01
718.055	242.17
718.242	203.26
718.43	240.12
718.617	244.22
718.804	223.74
718.991	246.27
719.179	188.93
719.366	276.99
719.553	236.03
719.74	184.83
719.927	229.88
720.114	170.49
720.301	221.69
720.488	186.88
720.676	117.25
720.863	289.28
721.05	238.08
721.237	260.6
721.424	264.7
721.611	188.93
721.798	193.02
721.985	207.36
722.172	213.5
722.358	186.88
722.545	270.84
722.732	272.89
722.919	334.33
723.106	281.08
723.293	147.97
723.48	254.46
723.667	209.4
723.853	258.56
724.04	160.25
724.227	262.65
724.414	221.69
724.6	266.75
724.787	301.56
724.974	256.51
725.161	205.31
725.347	125.44
725.534	207.36
725.72	264.7
725.907	287.23
726.094	268.8
726.28	199.16
726.467	252.41
726.653	104.96
726.84	307.71
727.027	418.3
727.213	195.07
727.4	193.02
727.586	217.6
727.773	256.51
727.959	256.51
728.145	246.27
728.332	272.89
728.518	229.88
728.705	260.6
728.891	219.64
729.077	258.56
729.264	201.21
729.45	344.57
729.636	260.6
729.823	248.32
730.009	320
730.195	299.52
730.382	279.04
730.568	260.6
730.754	254.46
730.94	279.04
731.126	231.93
731.313	248.32
731.499	231.93
731.685	311.8
731.871	219.64
732.057	223.74
732.243	285.18
732.429	299.52
732.615	385.53
732.801	369.15
732.987	176.64
733.173	203.26
733.359	240.12
733.545	279.04
733.731	176.64
733.917	373.24
734.103	299.52
734.289	283.13
734.475	248.32
734.661	414.2
734.847	336.38
735.033	274.94
735.219	397.82
735.404	246.27
735.59	242.17
735.776	285.18
735.962	309.76
736.148	256.51
736.333	315.9
736.519	293.37
736.705	258.56
736.89	264.7
737.076	256.51
737.262	178.69
737.447	229.88
737.633	221.69
737.819	340.47
738.004	260.6
738.19	313.85
738.375	287.23
738.561	365.05
738.747	307.71
738.932	199.16
739.118	487.93
739.303	383.48
739.489	352.76
739.674	223.74
739.859	244.22
740.045	297.47
740.23	334.33
740.416	61.95
740.601	274.94
740.786	346.62
740.972	117.25
741.157	205.31
741.342	227.84
741.528	207.36
741.713	307.71
741.898	217.6
742.084	219.64
742.269	215.55
742.454	264.7
742.639	330.23
742.824	231.93
743.01	365.05
743.195	369.15
743.38	305.66
743.565	260.6
743.75	303.61
743.935	225.79
744.12	352.76
744.305	184.83
744.49	178.69
744.675	285.18
744.86	207.36
745.045	240.12
745.23	223.74
745.415	240.12
745.6	326.14
745.785	281.08
745.97	289.28
746.155	313.85
746.34	236.03
746.525	256.51
746.71	406.01
746.895	238.08
747.079	201.21
747.264	248.32
747.449	320
747.634	373.24
747.819	254.46
748.003	221.69
748.188	182.78
748.373	297.47
748.557	262.65
748.742	160.25
748.927	289.28
749.111	219.64
749.296	211.45
749.481	260.6
749.665	182.78
749.85	242.17
750.034	270.84
750.219	229.88
750.404	203.26
750.588	313.85
750.773	182.78
750.957	229.88
751.141	184.83
751.326	330.23
751.51	92.67
751.695	145.92
751.879	246.27
752.064	205.31
752.248	207.36
752.432	360.95
752.617	262.65
752.801	236.03
752.985	225.79
753.17	264.7
753.354	272.89
753.538	236.03
753.722	195.07
753.907	137.73
754.091	109.05
754.275	242.17
754.459	168.45
754.643	168.45
754.828	190.97
755.012	170.49
755.196	143.87
755.38	197.12
755.564	213.5
755.748	244.22
755.932	197.12
756.116	154.11
756.3	238.08
756.484	182.78
756.668	254.46
756.852	35.33
757.036	147.97
757.22	172.54
757.404	154.11
757.588	82.43
757.772	240.12
757.956	174.59
758.14	287.23
758.323	125.44
758.507	270.84
758.691	119.29
758.875	221.69
759.059	299.52
759.242	137.73
759.426	102.91
759.61	117.25
759.794	92.67
759.977	238.08
760.161	410.11
760.345	166.4
760.528	238.08
760.712	141.82
760.895	170.49
761.079	268.8
761.263	104.96
761.446	145.92
761.63	49.66
761.813	162.3
761.997	205.31
762.18	154.11
762.364	156.16
762.547	88.57
762.731	84.48
762.914	133.63
763.098	143.87
763.281	121.34
763.464	139.77
763.648	41.47
763.831	123.39
764.015	74.24
764.198	172.54
764.381	107.01
764.564	203.26
764.748	84.48
764.931	90.62
765.114	111.1
765.297	190.97
765.481	72.19
765.664	154.11
765.847	133.63
766.03	215.55
766.213	102.91
766.397	137.73
766.58	14.85
766.763	236.03
766.946	76.29
767.129	55.81
767.312	94.72
767.495	55.81
767.678	8.7
767.861	131.58
768.044	246.27
768.227	150.01
768.41	107.01
768.593	113.15
768.776	121.34
768.959	29.18
769.142	182.78
769.324	141.82
769.507	57.86
769.69	66.05
769.873	64
770.056	250.36
770.239	84.48
770.421	178.69
770.604	172.54
770.787	109.05
770.97	162.3
771.152	53.76
771.335	92.67
771.518	-9.73
771.7	141.82
771.883	137.73
772.066	25.09
772.248	115.2
772.431	231.93
772.613	137.73
772.796	66.05
772.978	35.33
773.161	184.83
773.343	-22.02
773.526	2.56
773.708	-38.4
773.891	-22.02
774.073	25.09
774.256	102.91
774.438	174.59
774.621	70.14
774.803	129.53
774.985	49.66
775.168	113.15
775.35	45.57
775.532	92.67
775.715	57.86
775.897	170.49
776.079	84.48
776.261	90.62
776.444	64
776.626	78.33
776.808	100.86
776.99	0.51
777.173	137.73
777.355	74.24
777.537	4.61
777.719	152.06
777.901	27.14
778.083	35.33
778.265	57.86
778.447	147.97
778.629	100.86
778.811	57.86
778.993	145.92
779.175	111.1
779.357	127.49
779.539	6.66
779.721	41.47
779.903	92.67
780.085	76.29
780.267	92.67
780.449	35.33
780.631	111.1
780.812	184.83
780.994	20.99
781.176	111.1
781.358	-5.63
781.54	59.9
781.721	104.96
781.903	84.48
782.085	66.05
782.267	74.24
782.448	12.8
782.63	27.14
782.812	59.9
782.993	100.86
783.175	109.05
783.357	8.7
783.538	90.62
783.72	8.7
783.901	55.81
784.083	113.15
784.264	66.05
784.446	49.66
784.627	-79.36
784.809	53.76
784.99	-22.02
785.172	76.29
785.353	82.43
785.535	55.81
785.716	6.66
785.897	-52.74
786.079	135.68
786.26	51.71
786.441	0.51
786.623	-17.92
786.804	4.61
786.985	92.67
787.167	104.96
787.348	25.09
787.529	16.9
787.71	172.54
787.891	-13.82
788.073	-11.78
788.254	-7.68
788.435	174.59
788.616	41.47
788.797	-9.73
788.978	57.86
789.159	-67.07
789.34	109.05
789.522	59.9
789.703	43.52
789.884	49.66
790.065	27.14
790.246	211.45
790.427	-38.4
790.607	145.92
790.788	137.73
790.969	2.56
791.15	-17.92
791.331	14.85
791.512	0.51
791.693	-30.21
791.874	-44.54
792.054	182.78
792.235	141.82
792.416	-91.65
792.597	14.85
792.778	78.33
792.958	96.77
793.139	-5.63
793.32	-22.02
793.5	107.01
793.681	102.91
793.862	33.28
794.042	53.76
794.223	-17.92
794.404	49.66
794.584	-62.98
794.765	76.29
794.945	51.71
795.126	86.53
795.306	76.29
795.487	47.62
795.667	41.47
795.848	92.67
796.028	27.14
796.209	-60.93
796.389	64
796.57	-13.82
796.75	-22.02
796.93	53.76
797.111	-7.68
797.291	31.23
797.471	6.66
797.652	25.09
797.832	-38.4
798.012	88.57
798.192	0.51
798.373	23.04
798.553	66.05
798.733	14.85
798.913	-36.35
799.093	-24.06
799.274	88.57
799.454	92.67
799.634	41.47
799.814	64
799.994	64
800.174	-46.59
800.354	55.81
800.534	-54.78
800.714	31.23
800.894	-40.45
801.074	-95.74
801.254	-48.64
801.434	131.58
801.614	-15.87
801.794	-38.4
801.974	1485.29
802.154	-24.06
802.334	104.96
802.514	-60.93
802.693	23.04
802.873	10.75
803.053	72.19
803.233	47.62
803.413	-26.11
803.592	-48.64
803.772	10.75
803.952	70.14
804.131	-50.69
804.311	88.57
804.491	27.14
804.67	-38.4
804.85	10.75
805.03	-36.35
805.209	16.9
805.389	-26.11
805.568	-38.4
805.748	-3.58
805.928	2.56
806.107	6.66
806.287	59.9
806.466	102.91
806.646	-22.02
806.825	25.09
807.004	-65.02
807.184	2.56
807.363	53.76
807.543	27.14
807.722	-46.59
807.901	82.43
808.081	102.91
808.26	-173.57
808.439	0.51
808.619	27.14
808.798	-17.92
808.977	-19.97
809.156	125.44
809.336	4.61
809.515	57.86
809.694	-75.26
809.873	-60.93
810.052	68.09
810.231	74.24
810.411	70.14
810.59	131.58
810.769	-28.16
810.948	129.53
811.127	-108.03
811.306	29.18
811.485	-5.63
811.664	88.57
811.843	-30.21
812.022	55.81
812.201	8.7
812.38	88.57
812.559	35.33
812.737	37.38
812.916	-52.74
813.095	-26.11
813.274	-46.59
813.453	49.66
813.632	68.09
813.811	68.09
813.989	14.85
814.168	4.61
814.347	-83.45
814.526	29.18
814.704	141.82
814.883	78.33
815.062	-38.4
815.24	-7.68
815.419	-87.55
815.598	68.09
815.776	-73.21
815.955	-38.4
816.133	-89.6
816.312	59.9
816.49	-69.12
816.669	18.94
816.847	-7.68
817.026	59.9
817.204	-9.73
817.383	41.47
817.561	-30.21
817.74	18.94
817.918	55.81
818.097	-15.87
818.275	-36.35
818.453	80.38
818.632	6.66
818.81	-26.11
818.988	18.94
819.167	10.75
819.345	43.52
819.523	-9.73
819.701	55.81
819.879	74.24
820.058	-24.06
820.236	37.38
820.414	-24.06
820.592	-56.83
820.77	37.38
820.948	-52.74
821.127	-26.11
821.305	8.7
821.483	-24.06
821.661	61.95
821.839	-1.54
822.017	-30.21
822.195	-9.73
822.373	92.67
822.551	0.51
822.729	6.66
822.907	-13.82
823.085	57.86
823.262	-7.68
823.44	-54.78
823.618	-58.88
823.796	-5.63
823.974	4.61
824.152	-9.73
824.329	39.42
824.507	70.14
824.685	-30.21
824.863	25.09
825.04	18.94
825.218	27.14
825.396	14.85
825.574	8.7
825.751	72.19
825.929	35.33
826.107	-65.02
826.284	-7.68
826.462	-13.82
826.639	-3.58
826.817	-114.17
826.994	53.76
827.172	-103.93
827.349	82.43
827.527	2.56
827.704	-36.35
827.882	57.86
828.059	-30.21
828.237	-26.11
828.414	80.38
828.591	-85.5
828.769	31.23
828.946	-34.3
829.124	43.52
829.301	0.51
829.478	-85.5
829.655	45.57
829.833	-3.58
830.01	-112.13
830.187	10.75
830.364	88.57
830.542	10.75
830.719	107.01
830.896	25.09
831.073	31.23
831.25	-22.02
831.427	49.66
831.604	-13.82
831.782	-54.78
831.959	-22.02
832.136	-15.87
832.313	-9.73
832.49	-62.98
832.667	-26.11
832.844	-50.69
833.021	20.99
833.198	-22.02
833.374	8.7
833.551	66.05
833.728	27.14
833.905	49.66
834.082	-67.07
834.259	-73.21
834.436	86.53
834.612	-7.68
834.789	14.85
834.966	41.47
835.143	2.56
835.319	-58.88
835.496	25.09
835.673	66.05
835.85	82.43
836.026	59.9
836.203	66.05
836.38	-62.98
836.556	47.62
836.733	-58.88
836.909	160.25
837.086	-19.97
837.262	-30.21
837.439	-1.54
837.616	-5.63
837.792	35.33
837.968	-36.35
838.145	-112.13
838.321	55.81
838.498	6.66
838.674	-11.78
838.851	-42.5
839.027	-114.17
839.203	-1.54
839.38	-7.68
839.556	-81.41
839.732	4.61
839.909	-77.31
840.085	25.09
840.261	-81.41
840.437	-48.64
840.614	-130.56
840.79	31.23
840.966	84.48
841.142	-1.54
841.318	-50.69
841.494	55.81
841.671	23.04
841.847	-71.17
842.023	-34.3
842.199	53.76
842.375	70.14
842.551	-62.98
842.727	-13.82
842.903	109.05
843.079	-48.64
843.255	150.01
843.431	29.18
843.607	57.86
843.783	-144.89
843.959	-52.74
844.134	-77.31
844.31	57.86
844.486	-62.98
844.662	2.56
844.838	-15.87
845.013	41.47
845.189	68.09
845.365	51.71
845.541	-30.21
845.716	23.04
845.892	129.53
846.068	23.04
846.244	-58.88
846.419	-32.26
846.595	-42.5
846.77	-73.21
846.946	107.01
847.122	-56.83
847.297	-93.69
847.473	59.9
847.648	-89.6
847.824	25.09
847.999	-54.78
848.175	35.33
848.35	12.8
848.526	-22.02
848.701	59.9
848.876	-24.06
849.052	-13.82
849.227	-30.21
849.403	43.52
849.578	27.14
849.753	-42.5
849.929	92.67
850.104	-83.45
850.279	10.75
850.454	-1.54
850.63	82.43
850.805	51.71
850.98	14.85
851.155	-44.54
851.33	59.9
851.505	-105.98
851.681	27.14
851.856	-58.88
852.031	57.86
852.206	133.63
852.381	-118.27
852.556	-17.92
852.731	8.7
852.906	35.33
853.081	33.28
853.256	121.34
853.431	-1.54
853.606	-71.17
853.781	-9.73
853.956	-67.07
854.131	-1.54
854.305	-19.97
854.48	-73.21
854.655	-60.93
854.83	-93.69
855.005	-5.63
855.18	-26.11
855.354	-26.11
855.529	-42.5
855.704	-15.87
855.879	84.48
856.053	-56.83
856.228	-22.02
856.403	-60.93
856.577	10.75
856.752	-34.3
856.926	-9.73
857.101	113.15
857.276	-38.4
857.45	-42.5
857.625	35.33
857.799	-15.87
857.974	49.66
858.148	-132.61
858.323	27.14
858.497	-1.54
858.672	-42.5
858.846	-22.02
859.02	61.95
859.195	-24.06
859.369	-54.78
859.543	-83.45
859.718	27.14
859.892	10.75
860.066	39.42
860.241	10.75
860.415	-38.4
860.589	-44.54
860.763	-54.78
860.938	-60.93
861.112	27.14
861.286	-67.07
861.46	78.33
861.634	-48.64
861.808	12.8
861.982	-13.82
862.157	-110.08
862.331	-54.78
862.505	-71.17
862.679	-75.26
862.853	10.75
863.027	25.09
863.201	104.96
863.375	23.04
863.549	4.61
863.722	14.85
863.896	64
864.07	-34.3
864.244	-15.87
864.418	23.04
864.592	74.24
864.766	-7.68
864.939	66.05
865.113	-28.16
865.287	37.38
865.461	-50.69
865.634	-44.54
865.808	-62.98
865.982	-62.98
866.156	-79.36
866.329	-46.59
866.503	51.71
866.676	-7.68
866.85	39.42
867.024	6.66
867.197	59.9
867.371	27.14
867.544	4.61
867.718	-122.37
867.891	23.04
868.065	-34.3
868.238	25.09
868.412	35.33
868.585	61.95
868.759	-40.45
868.932	-105.98
869.105	-91.65
869.279	20.99
869.452	-87.55
869.625	39.42
869.799	-38.4
869.972	-42.5
870.145	-7.68
870.319	59.9
870.492	-118.27
870.665	-54.78
870.838	-50.69
871.011	-83.45
871.185	-1.54
871.358	-1.54
871.531	49.66
871.704	68.09
871.877	33.28
872.05	-50.69
872.223	-22.02
872.396	47.62
872.569	2.56
872.742	-114.17
872.915	18.94
873.088	-69.12
873.261	-144.89
873.434	33.28
873.607	6.66
873.78	2.56
873.953	-40.45
874.126	-46.59
874.299	6.66
874.471	8.7
874.644	29.18
874.817	45.57
874.99	80.38
875.163	-75.26
875.335	-46.59
875.508	8.7
875.681	41.47
875.853	-50.69
876.026	-3.58
876.199	45.57
876.371	74.24
876.544	-153.09
876.717	12.8
876.889	31.23
877.062	0.51
877.234	-52.74
877.407	-46.59
877.579	-15.87
877.752	37.38
877.924	18.94
878.097	33.28
878.269	25.09
878.442	-5.63
878.614	104.96
878.786	12.8
878.959	27.14
879.131	39.42
879.303	-103.93
879.476	51.71
879.648	68.09
879.82	23.04
879.993	-9.73
880.165	59.9
880.337	-62.98
880.509	-38.4
880.681	-91.65
880.854	-60.93
881.026	82.43
881.198	117.25
881.37	-44.54
881.542	-44.54
881.714	-38.4
881.886	35.33
882.058	16.9
882.23	-83.45
882.402	-24.06
882.574	-11.78
882.746	102.91
882.918	-1.54
883.09	45.57
883.262	-19.97
883.434	35.33
883.606	-56.83
883.778	-5.63
883.95	68.09
884.122	-9.73
884.293	94.72
884.465	29.18
884.637	14.85
884.809	18.94
884.98	2.56
885.152	51.71
885.324	10.75
885.496	-73.21
885.667	-46.59
885.839	-15.87
886.011	61.95
886.182	-26.11
886.354	27.14
886.525	16.9
886.697	-50.69
886.869	-85.5
887.04	-38.4
887.212	141.82
887.383	160.25
887.555	12.8
887.726	-42.5
887.897	-13.82
888.069	10.75
888.24	-32.26
888.412	-52.74
888.583	16.9
888.754	-9.73
888.926	-83.45
889.097	-9.73
889.268	-112.13
889.44	98.81
889.611	-30.21
889.782	-62.98
889.953	-62.98
890.125	119.29
890.296	-58.88
890.467	-48.64
890.638	-79.36
890.809	-52.74
890.98	-103.93
891.151	-22.02
891.323	109.05
891.494	-77.31
891.665	-28.16
891.836	-17.92
892.007	-17.92
892.178	80.38
892.349	10.75
892.52	-116.22
892.691	-34.3
892.862	-114.17
893.032	-42.5
893.203	18.94
893.374	47.62
893.545	47.62
893.716	-65.02
893.887	55.81
894.057	-89.6
894.228	-38.4
894.399	-105.98
894.57	131.58
894.74	-1.54
894.911	39.42
895.082	8.7
895.253	-73.21
895.423	51.71
895.594	31.23
895.764	8.7
895.935	-112.13
896.106	16.9
896.276	-11.78
896.447	-50.69
896.617	-116.22
896.788	-67.07
896.958	-71.17
897.129	-36.35
897.299	-32.26
897.47	29.18
897.64	70.14
897.81	29.18
897.981	-50.69
898.151	-48.64
898.322	29.18
898.492	25.09
898.662	-126.46
898.832	-38.4
899.003	-15.87
899.173	-36.35
899.343	-11.78
899.513	-58.88
