Data from USB4F104151__20__10-23-37-945.txt Node

Date: Wed Feb 26 10:23:37 EST 2025
User: louis
Spectrometer: USB4F10415
Trigger mode: 4
Integration Time (sec): 1.000000E-1
Scans to average: 1
Electric dark correction enabled: true
Nonlinearity correction enabled: false
Boxcar width: 0
XAxis mode: Wavelengths
Number of Pixels in Spectrum: 3648
>>>>>Begin Spectral Data<<<<<
178.204	-406.18
178.424	-406.18
178.644	-406.18
178.864	-418.47
179.084	-336.55
179.304	-2.73
179.524	11.61
179.744	-10.92
179.964	17.75
180.184	25.94
180.404	19.8
180.624	19.8
180.844	-23.21
181.064	-82.6
181.283	40.28
181.503	-66.22
181.723	50.52
181.943	-55.98
182.163	157.01
182.383	17.75
182.602	83.28
182.822	208.21
183.042	75.09
183.262	-4.78
183.482	56.66
183.701	-19.11
183.921	56.66
184.141	-68.27
184.361	62.8
184.58	109.91
184.8	60.76
185.02	27.99
185.239	85.33
185.459	71
185.679	138.58
185.898	-111.27
186.118	64.85
186.338	71
186.557	66.9
186.777	-21.16
186.997	44.37
187.216	64.85
187.436	138.58
187.655	118.1
187.875	58.71
188.095	40.28
188.314	77.14
188.534	132.44
188.753	5.46
188.973	140.63
189.192	202.07
189.412	23.89
189.631	73.04
189.851	126.29
190.07	193.87
190.29	-41.64
190.509	73.04
190.729	38.23
190.948	105.81
191.168	255.31
191.387	136.53
191.607	44.37
191.826	17.75
192.045	-17.07
192.265	48.47
192.484	99.67
192.704	105.81
192.923	-55.98
193.142	253.27
193.362	38.23
193.581	105.81
193.8	81.24
194.02	116.05
194.239	140.63
194.458	32.08
194.678	-51.88
194.897	56.66
195.116	83.28
195.335	54.61
195.555	77.14
195.774	-6.83
195.993	163.15
196.212	42.32
196.432	9.56
196.651	-10.92
196.87	58.71
197.089	206.16
197.308	118.1
197.528	130.39
197.747	-27.31
197.966	89.43
198.185	177.49
198.404	3.41
198.623	136.53
198.842	167.25
199.062	79.19
199.281	111.96
199.5	54.61
199.719	73.04
199.938	58.71
200.157	111.96
200.376	173.39
200.595	120.15
200.814	56.66
201.033	9.56
201.252	146.77
201.471	68.95
201.69	118.1
201.909	21.84
202.128	73.04
202.347	107.86
202.566	77.14
202.785	-82.6
203.004	46.42
203.223	181.59
203.442	30.04
203.661	-37.55
203.879	56.66
204.098	136.53
204.317	38.23
204.536	116.05
204.755	50.52
204.974	111.96
205.193	9.56
205.411	169.3
205.63	118.1
205.849	73.04
206.068	21.84
206.287	-10.92
206.505	79.19
206.724	83.28
206.943	-23.21
207.162	-39.59
207.381	77.14
207.599	56.66
207.818	42.32
208.037	15.7
208.255	93.52
208.474	130.39
208.693	46.42
208.911	42.32
209.13	132.44
209.349	101.72
209.567	44.37
209.786	46.42
210.005	195.92
210.223	79.19
210.442	-129.7
210.661	25.94
210.879	126.29
211.098	52.56
211.316	77.14
211.535	109.91
211.753	13.65
211.972	83.28
212.191	-41.64
212.409	62.8
212.628	171.35
212.846	54.61
213.065	79.19
213.283	42.32
213.502	21.84
213.72	48.47
213.938	89.43
214.157	30.04
214.375	179.54
214.594	-8.87
214.812	85.33
215.031	71
215.249	34.13
215.467	-58.03
215.686	-8.87
215.904	152.91
216.122	87.38
216.341	107.86
216.559	71
216.778	140.63
216.996	132.44
217.214	71
217.432	38.23
217.651	-58.03
217.869	19.8
218.087	130.39
218.306	52.56
218.524	9.56
218.742	1.37
218.96	71
219.179	54.61
219.397	58.71
219.615	193.87
219.833	126.29
220.051	54.61
220.27	136.53
220.488	114
220.706	140.63
220.924	56.66
221.142	23.89
221.36	148.82
221.578	87.38
221.796	34.13
222.015	40.28
222.233	128.34
222.451	136.53
222.669	9.56
222.887	150.87
223.105	50.52
223.323	46.42
223.541	9.56
223.759	62.8
223.977	58.71
224.195	216.4
224.413	152.91
224.631	116.05
224.849	105.81
225.067	265.55
225.285	77.14
225.503	52.56
225.721	-35.5
225.939	118.1
226.157	7.51
226.375	193.87
226.592	44.37
226.81	46.42
227.028	122.2
227.246	50.52
227.464	107.86
227.682	126.29
227.9	103.76
228.117	157.01
228.335	85.33
228.553	62.8
228.771	30.04
228.989	1.37
229.206	85.33
229.424	-35.5
229.642	66.9
229.86	-8.87
230.077	126.29
230.295	68.95
230.513	193.87
230.731	99.67
230.948	240.98
231.166	120.15
231.384	75.09
231.601	97.62
231.819	197.97
232.037	114
232.254	-33.45
232.472	5.46
232.689	1.37
232.907	134.48
233.125	-15.02
233.342	-21.16
233.56	-19.11
233.777	9.56
233.995	-17.07
234.213	150.87
234.43	54.61
234.648	-2.73
234.865	42.32
235.083	58.71
235.3	46.42
235.518	114
235.735	157.01
235.953	38.23
236.17	87.38
236.388	27.99
236.605	40.28
236.822	48.47
237.04	95.57
237.257	120.15
237.475	-12.97
237.692	64.85
237.909	81.24
238.127	-6.83
238.344	111.96
238.562	25.94
238.779	-10.92
238.996	-41.64
239.214	93.52
239.431	62.8
239.648	23.89
239.865	40.28
240.083	68.95
240.3	5.46
240.517	1.37
240.735	62.8
240.952	105.81
241.169	25.94
241.386	120.15
241.603	79.19
241.821	-27.31
242.038	124.24
242.255	95.57
242.472	23.89
242.689	68.95
242.907	136.53
243.124	152.91
243.341	75.09
243.558	23.89
243.775	-35.5
243.992	-39.59
244.209	83.28
244.426	118.1
244.643	163.15
244.86	71
245.078	66.9
245.295	56.66
245.512	54.61
245.729	13.65
245.946	124.24
246.163	34.13
246.38	68.95
246.597	46.42
246.814	11.61
247.031	118.1
247.248	48.47
247.464	249.17
247.681	19.8
247.898	114
248.115	128.34
248.332	-6.83
248.549	173.39
248.766	118.1
248.983	154.96
249.2	93.52
249.417	-21.16
249.633	30.04
249.85	91.48
250.067	11.61
250.284	52.56
250.501	150.87
250.717	34.13
250.934	21.84
251.151	-2.73
251.368	21.84
251.585	32.08
251.801	103.76
252.018	17.75
252.235	79.19
252.451	-2.73
252.668	32.08
252.885	181.59
253.102	36.18
253.318	-31.4
253.535	95.57
253.752	89.43
253.968	44.37
254.185	-15.02
254.401	75.09
254.618	105.81
254.835	68.95
255.051	181.59
255.268	40.28
255.484	42.32
255.701	89.43
255.917	75.09
256.134	-25.26
256.351	58.71
256.567	3.41
256.784	56.66
257	-23.21
257.217	124.24
257.433	81.24
257.65	17.75
257.866	97.62
258.082	36.18
258.299	-8.87
258.515	75.09
258.732	-21.16
258.948	71
259.165	68.95
259.381	-17.07
259.597	52.56
259.814	23.89
260.03	-25.26
260.246	99.67
260.463	136.53
260.679	159.06
260.895	42.32
261.112	161.11
261.328	103.76
261.544	-64.17
261.761	197.97
261.977	9.56
262.193	15.7
262.409	130.39
262.626	9.56
262.842	1.37
263.058	25.94
263.274	89.43
263.49	50.52
263.707	87.38
263.923	97.62
264.139	-2.73
264.355	44.37
264.571	60.76
264.787	134.48
265.004	122.2
265.22	-2.73
265.436	-29.35
265.652	32.08
265.868	62.8
266.084	-6.83
266.3	77.14
266.516	-80.55
266.732	114
266.948	97.62
267.164	73.04
267.38	109.91
267.596	34.13
267.812	177.49
268.028	77.14
268.244	83.28
268.46	97.62
268.676	7.51
268.892	114
269.108	-53.93
269.324	-15.02
269.54	-47.79
269.756	157.01
269.972	-17.07
270.188	101.72
270.403	-27.31
270.619	54.61
270.835	120.15
271.051	-0.68
271.267	-10.92
271.483	109.91
271.698	152.91
271.914	91.48
272.13	128.34
272.346	42.32
272.562	75.09
272.777	132.44
272.993	75.09
273.209	15.7
273.425	138.58
273.64	-68.27
273.856	128.34
274.072	42.32
274.287	-39.59
274.503	105.81
274.719	81.24
274.934	19.8
275.15	23.89
275.366	-70.31
275.581	-31.4
275.797	99.67
276.012	30.04
276.228	-12.97
276.444	107.86
276.659	163.15
276.875	-39.59
277.09	5.46
277.306	52.56
277.521	103.76
277.737	36.18
277.952	120.15
278.168	21.84
278.383	73.04
278.599	68.95
278.814	50.52
279.03	56.66
279.245	148.82
279.461	75.09
279.676	165.2
279.892	-23.21
280.107	7.51
280.322	-45.74
280.538	38.23
280.753	52.56
280.969	85.33
281.184	93.52
281.399	83.28
281.615	128.34
281.83	27.99
282.045	-6.83
282.26	-21.16
282.476	79.19
282.691	148.82
282.906	118.1
283.122	103.76
283.337	73.04
283.552	89.43
283.767	54.61
283.983	124.24
284.198	-0.68
284.413	109.91
284.628	-15.02
284.843	99.67
285.058	132.44
285.274	81.24
285.489	54.61
285.704	175.44
285.919	13.65
286.134	54.61
286.349	95.57
286.564	30.04
286.779	167.25
286.995	30.04
287.21	3.41
287.425	81.24
287.64	36.18
287.855	40.28
288.07	-64.17
288.285	187.73
288.5	167.25
288.715	109.91
288.93	66.9
289.145	32.08
289.36	124.24
289.575	46.42
289.79	167.25
290.004	54.61
290.219	159.06
290.434	1.37
290.649	58.71
290.864	105.81
291.079	54.61
291.294	56.66
291.509	77.14
291.724	58.71
291.938	11.61
292.153	42.32
292.368	79.19
292.583	73.04
292.798	99.67
293.012	93.52
293.227	44.37
293.442	56.66
293.657	60.76
293.871	163.15
294.086	130.39
294.301	159.06
294.516	189.78
294.73	13.65
294.945	64.85
295.16	68.95
295.374	165.2
295.589	150.87
295.804	99.67
296.018	32.08
296.233	126.29
296.447	66.9
296.662	44.37
296.877	193.87
297.091	36.18
297.306	111.96
297.52	19.8
297.735	75.09
297.949	85.33
298.164	97.62
298.378	48.47
298.593	13.65
298.807	91.48
299.022	17.75
299.236	243.03
299.451	81.24
299.665	34.13
299.88	23.89
300.094	83.28
300.309	60.76
300.523	42.32
300.737	52.56
300.952	48.47
301.166	79.19
301.381	30.04
301.595	40.28
301.809	58.71
302.024	9.56
302.238	50.52
302.452	208.21
302.667	62.8
302.881	169.3
303.095	122.2
303.309	64.85
303.524	3.41
303.738	-8.87
303.952	3.41
304.166	122.2
304.381	-68.27
304.595	152.91
304.809	87.38
305.023	101.72
305.237	93.52
305.452	64.85
305.666	73.04
305.88	91.48
306.094	154.96
306.308	132.44
306.522	97.62
306.736	144.72
306.95	111.96
307.164	34.13
307.379	11.61
307.593	89.43
307.807	85.33
308.021	62.8
308.235	95.57
308.449	-27.31
308.663	58.71
308.877	232.79
309.091	118.1
309.305	91.48
309.519	-29.35
309.733	181.59
309.947	-82.6
310.161	81.24
310.374	107.86
310.588	148.82
310.802	-78.51
311.016	-15.02
311.23	138.58
311.444	-2.73
311.658	79.19
311.872	144.72
312.085	128.34
312.299	58.71
312.513	140.63
312.727	3.41
312.941	30.04
313.154	19.8
313.368	58.71
313.582	62.8
313.796	85.33
314.009	21.84
314.223	93.52
314.437	54.61
314.651	75.09
314.864	-43.69
315.078	-35.5
315.292	23.89
315.505	17.75
315.719	116.05
315.933	75.09
316.146	85.33
316.36	-60.07
316.573	161.11
316.787	89.43
317.001	68.95
317.214	-45.74
317.428	44.37
317.641	-55.98
317.855	21.84
318.068	73.04
318.282	130.39
318.495	152.91
318.709	54.61
318.922	-0.68
319.136	177.49
319.349	122.2
319.563	11.61
319.776	99.67
319.99	-31.4
320.203	118.1
320.417	66.9
320.63	187.73
320.843	195.92
321.057	152.91
321.27	-25.26
321.483	101.72
321.697	128.34
321.91	111.96
322.124	68.95
322.337	105.81
322.55	64.85
322.763	66.9
322.977	107.86
323.19	-27.31
323.403	109.91
323.617	54.61
323.83	169.3
324.043	48.47
324.256	62.8
324.469	25.94
324.683	19.8
324.896	36.18
325.109	46.42
325.322	-8.87
325.535	103.76
325.748	97.62
325.962	23.89
326.175	38.23
326.388	109.91
326.601	107.86
326.814	25.94
327.027	44.37
327.24	136.53
327.453	15.7
327.666	124.24
327.879	171.35
328.092	77.14
328.305	13.65
328.518	42.32
328.731	64.85
328.944	-2.73
329.157	91.48
329.37	99.67
329.583	187.73
329.796	54.61
330.009	-80.55
330.222	111.96
330.435	185.68
330.648	54.61
330.861	148.82
331.073	27.99
331.286	75.09
331.499	85.33
331.712	56.66
331.925	60.76
332.138	7.51
332.35	116.05
332.563	38.23
332.776	146.77
332.989	1.37
333.202	107.86
333.414	66.9
333.627	27.99
333.84	89.43
334.053	-53.93
334.265	-66.22
334.478	21.84
334.691	-19.11
334.903	122.2
335.116	-17.07
335.329	73.04
335.541	52.56
335.754	152.91
335.966	54.61
336.179	62.8
336.392	83.28
336.604	64.85
336.817	109.91
337.029	118.1
337.242	36.18
337.454	77.14
337.667	44.37
337.88	101.72
338.092	111.96
338.305	142.68
338.517	58.71
338.729	111.96
338.942	134.48
339.154	-41.64
339.367	-45.74
339.579	73.04
339.792	36.18
340.004	13.65
340.217	-21.16
340.429	83.28
340.641	42.32
340.854	42.32
341.066	44.37
341.278	187.73
341.491	157.01
341.703	91.48
341.915	17.75
342.128	118.1
342.34	91.48
342.552	3.41
342.764	56.66
342.977	105.81
343.189	52.56
343.401	56.66
343.613	-12.97
343.826	30.04
344.038	-39.59
344.25	62.8
344.462	17.75
344.674	91.48
344.886	60.76
345.099	60.76
345.311	71
345.523	25.94
345.735	-68.27
345.947	48.47
346.159	75.09
346.371	58.71
346.583	34.13
346.795	179.54
347.007	68.95
347.219	130.39
347.431	15.7
347.643	157.01
347.855	13.65
348.067	111.96
348.279	-23.21
348.491	21.84
348.703	103.76
348.915	25.94
349.127	83.28
349.339	138.58
349.551	87.38
349.763	34.13
349.975	46.42
350.187	73.04
350.399	150.87
350.61	50.52
350.822	95.57
351.034	38.23
351.246	120.15
351.458	107.86
351.669	124.24
351.881	124.24
352.093	97.62
352.305	140.63
352.517	109.91
352.728	111.96
352.94	54.61
353.152	109.91
353.363	17.75
353.575	114
353.787	138.58
353.999	1.37
354.21	204.11
354.422	-19.11
354.633	21.84
354.845	17.75
355.057	101.72
355.268	116.05
355.48	130.39
355.692	32.08
355.903	77.14
356.115	1.37
356.326	-27.31
356.538	146.77
356.749	103.76
356.961	124.24
357.172	9.56
357.384	11.61
357.595	159.06
357.807	-68.27
358.018	7.51
358.23	81.24
358.441	193.87
358.653	101.72
358.864	58.71
359.075	68.95
359.287	83.28
359.498	165.2
359.709	124.24
359.921	144.72
360.132	46.42
360.344	40.28
360.555	79.19
360.766	58.71
360.977	-25.26
361.189	142.68
361.4	15.7
361.611	171.35
361.823	157.01
362.034	87.38
362.245	-23.21
362.456	81.24
362.667	154.96
362.879	9.56
363.09	114
363.301	56.66
363.512	56.66
363.723	75.09
363.935	56.66
364.146	111.96
364.357	40.28
364.568	64.85
364.779	-45.74
364.99	177.49
365.201	7.51
365.412	120.15
365.623	-66.22
365.834	81.24
366.045	44.37
366.256	64.85
366.467	103.76
366.678	56.66
366.889	81.24
367.1	48.47
367.311	120.15
367.522	-8.87
367.733	161.11
367.944	120.15
368.155	93.52
368.366	126.29
368.577	132.44
368.788	146.77
368.999	68.95
369.209	71
369.42	204.11
369.631	216.4
369.842	150.87
370.053	48.47
370.264	77.14
370.474	-25.26
370.685	173.39
370.896	75.09
371.107	161.11
371.317	50.52
371.528	19.8
371.739	159.06
371.95	134.48
372.16	99.67
372.371	-6.83
372.582	-2.73
372.792	19.8
373.003	25.94
373.214	81.24
373.424	140.63
373.635	46.42
373.846	126.29
374.056	62.8
374.267	79.19
374.477	91.48
374.688	50.52
374.898	130.39
375.109	15.7
375.319	111.96
375.53	161.11
375.74	111.96
375.951	99.67
376.161	68.95
376.372	148.82
376.582	54.61
376.793	109.91
377.003	-55.98
377.214	11.61
377.424	44.37
377.635	-19.11
377.845	15.7
378.055	114
378.266	9.56
378.476	-43.69
378.686	89.43
378.897	81.24
379.107	132.44
379.317	99.67
379.528	1.37
379.738	42.32
379.948	38.23
380.158	120.15
380.369	21.84
380.579	83.28
380.789	-0.68
380.999	79.19
381.21	103.76
381.42	204.11
381.63	52.56
381.84	46.42
382.05	93.52
382.261	60.76
382.471	152.91
382.681	36.18
382.891	157.01
383.101	62.8
383.311	-43.69
383.521	60.76
383.731	60.76
383.941	122.2
384.151	42.32
384.361	54.61
384.571	34.13
384.781	169.3
384.991	226.64
385.201	204.11
385.411	148.82
385.621	73.04
385.831	89.43
386.041	68.95
386.251	52.56
386.461	134.48
386.671	19.8
386.881	54.61
387.091	83.28
387.301	93.52
387.511	7.51
387.72	62.8
387.93	114
388.14	9.56
388.35	75.09
388.56	171.35
388.769	185.68
388.979	93.52
389.189	-53.93
389.399	15.7
389.609	30.04
389.818	107.86
390.028	116.05
390.238	75.09
390.447	-6.83
390.657	62.8
390.867	60.76
391.076	-49.83
391.286	150.87
391.496	1.37
391.705	-2.73
391.915	138.58
392.125	79.19
392.334	9.56
392.544	173.39
392.753	107.86
392.963	-10.92
393.172	81.24
393.382	-49.83
393.591	132.44
393.801	-25.26
394.01	175.44
394.22	60.76
394.429	87.38
394.639	48.47
394.848	140.63
395.058	124.24
395.267	58.71
395.477	71
395.686	75.09
395.895	232.79
396.105	222.55
396.314	77.14
396.524	79.19
396.733	77.14
396.942	91.48
397.152	89.43
397.361	132.44
397.57	73.04
397.78	122.2
397.989	42.32
398.198	200.02
398.407	118.1
398.617	23.89
398.826	23.89
399.035	64.85
399.244	60.76
399.453	52.56
399.663	46.42
399.872	107.86
400.081	3.41
400.29	183.63
400.499	62.8
400.708	97.62
400.917	103.76
401.127	19.8
401.336	75.09
401.545	191.83
401.754	130.39
401.963	105.81
402.172	-6.83
402.381	85.33
402.59	77.14
402.799	21.84
403.008	56.66
403.217	-4.78
403.426	130.39
403.635	-35.5
403.844	46.42
404.053	-35.5
404.262	50.52
404.471	191.83
404.68	140.63
404.888	52.56
405.097	68.95
405.306	109.91
405.515	134.48
405.724	56.66
405.933	83.28
406.142	142.68
406.35	177.49
406.559	44.37
406.768	48.47
406.977	195.92
407.185	38.23
407.394	52.56
407.603	48.47
407.812	120.15
408.02	175.44
408.229	73.04
408.438	120.15
408.646	5.46
408.855	144.72
409.064	66.9
409.272	87.38
409.481	101.72
409.69	1.37
409.898	-8.87
410.107	111.96
410.315	157.01
410.524	44.37
410.733	38.23
410.941	77.14
411.15	124.24
411.358	50.52
411.567	122.2
411.775	32.08
411.984	116.05
412.192	132.44
412.401	27.99
412.609	187.73
412.818	175.44
413.026	154.96
413.234	34.13
413.443	89.43
413.651	-23.21
413.86	81.24
414.068	173.39
414.276	159.06
414.485	17.75
414.693	179.54
414.901	222.55
415.11	38.23
415.318	60.76
415.526	99.67
415.734	109.91
415.943	107.86
416.151	138.58
416.359	85.33
416.567	154.96
416.776	120.15
416.984	152.91
417.192	122.2
417.4	32.08
417.608	64.85
417.817	44.37
418.025	122.2
418.233	154.96
418.441	93.52
418.649	5.46
418.857	97.62
419.065	75.09
419.273	-6.83
419.481	97.62
419.689	54.61
419.897	91.48
420.105	-51.88
420.313	107.86
420.521	142.68
420.729	206.16
420.937	-31.4
421.145	19.8
421.353	140.63
421.561	238.93
421.769	79.19
421.977	17.75
422.185	81.24
422.393	97.62
422.601	134.48
422.809	93.52
423.017	99.67
423.224	25.94
423.432	83.28
423.64	32.08
423.848	230.74
424.056	38.23
424.263	191.83
424.471	46.42
424.679	157.01
424.887	-2.73
425.094	140.63
425.302	3.41
425.51	97.62
425.718	134.48
425.925	1.37
426.133	68.95
426.341	197.97
426.548	134.48
426.756	71
426.964	136.53
427.171	77.14
427.379	144.72
427.586	66.9
427.794	46.42
428.001	200.02
428.209	165.2
428.417	165.2
428.624	163.15
428.832	122.2
429.039	101.72
429.247	116.05
429.454	154.96
429.662	165.2
429.869	169.3
430.076	128.34
430.284	105.81
430.491	224.59
430.699	126.29
430.906	226.64
431.114	204.11
431.321	163.15
431.528	44.37
431.736	208.21
431.943	173.39
432.15	107.86
432.358	118.1
432.565	296.27
432.772	68.95
432.979	152.91
433.187	169.3
433.394	193.87
433.601	126.29
433.808	247.12
434.016	177.49
434.223	232.79
434.43	249.17
434.637	255.31
434.844	267.6
435.052	200.02
435.259	271.7
435.466	292.18
435.673	177.49
435.88	283.98
436.087	312.66
436.294	361.81
436.501	312.66
436.708	236.88
436.915	404.82
437.122	396.62
437.329	281.94
437.537	249.17
437.743	382.29
437.95	507.21
438.157	339.28
438.364	308.56
438.571	429.39
438.778	456.01
438.985	410.96
439.192	421.2
439.399	439.63
439.606	496.97
439.813	501.07
440.02	591.18
440.227	603.47
440.433	593.23
440.64	476.49
440.847	527.69
441.054	572.75
441.261	673.1
441.467	666.96
441.674	456.01
441.881	681.29
442.088	675.15
442.294	705.87
442.501	755.02
442.708	828.74
442.914	738.63
443.121	759.11
443.328	861.51
443.534	961.86
443.741	845.13
443.948	775.5
444.154	1002.82
444.361	1084.74
444.568	963.91
444.774	965.96
444.981	925
445.187	1224
445.394	1133.89
445.6	1082.69
445.807	1160.52
446.013	1201.47
446.22	1193.28
446.426	1330.5
446.633	1389.89
446.839	1600.83
447.046	1404.22
447.252	1594.68
447.459	1467.71
447.665	1609.02
447.871	1643.84
448.078	1858.87
448.284	1774.91
448.491	1987.89
448.697	1998.13
448.903	2063.67
449.11	2063.67
449.316	1996.09
449.522	2207.03
449.728	2286.9
449.935	2487.6
450.141	2377.01
450.347	2635.05
450.553	2579.76
450.76	2678.06
450.966	2817.32
451.172	2866.47
451.378	2909.48
451.584	2868.52
451.791	3298.59
451.997	3235.11
452.203	3374.37
452.409	3374.37
452.615	3622.17
452.821	3517.73
453.027	3681.57
453.233	4140.31
453.44	4025.62
453.646	4166.93
453.852	4445.46
454.058	4478.22
454.264	4545.81
454.47	5004.55
454.676	4871.43
454.882	5383.43
455.088	5078.28
455.294	5346.56
455.5	5817.6
455.705	6188.28
455.911	6053.11
456.117	6354.16
456.323	6634.74
456.529	6585.58
456.735	7181.54
456.941	7525.6
457.147	7546.08
457.352	7830.75
457.558	7884
457.764	8598.74
457.97	8768.72
458.176	9041.1
458.381	9383.11
458.587	9444.55
458.793	10298.55
458.999	10097.85
459.204	11381.93
459.41	11824.29
459.616	11652.26
459.821	12108.96
460.027	12747.92
460.233	13450.38
460.438	13444.23
460.644	14312.57
460.85	14253.18
461.055	14769.27
461.261	15905.89
461.466	15357.03
461.672	15707.24
461.878	17574.99
462.083	17194.06
462.289	17681.48
462.494	18297.92
462.7	18433.08
462.905	18730.04
463.111	20149.28
463.316	21056.53
463.522	21580.81
463.727	22215.68
463.932	23122.93
464.138	23933.93
464.343	24843.23
464.549	24878.04
464.754	26469.31
464.959	27331.51
465.165	27730.86
465.37	27397.04
465.575	27405.24
465.781	29225.88
465.986	30067.59
466.191	29506.45
466.397	29737.87
466.602	29719.44
466.807	31142.78
467.012	31480.69
467.218	31992.69
467.423	32527.21
467.628	33317.72
467.833	34816.83
468.038	34001.74
468.244	33717.07
468.449	34933.57
468.654	34425.67
468.859	34061.13
469.064	34802.5
469.269	33622.87
469.474	33880.91
469.679	34667.33
469.885	33577.81
470.09	34480.97
470.295	34155.34
470.5	33459.03
470.705	33811.28
470.91	32568.16
471.115	32734.05
471.32	32930.65
471.525	32944.99
471.73	31931.25
471.935	31681.39
472.139	30704.51
472.344	30536.58
472.549	30413.7
472.754	29711.25
472.959	28760.99
473.164	27890.6
473.369	27655.09
473.574	28545.95
473.778	27820.97
473.983	27423.67
474.188	26887.1
474.393	25881.55
474.598	25689.04
474.802	24990.68
475.007	24626.14
475.212	24435.68
475.417	23538.67
475.621	23094.26
475.826	23075.83
476.031	22365.18
476.235	22250.5
476.44	21967.88
476.645	21500.94
476.849	21335.06
477.054	20872.21
477.259	20210.72
477.463	20161.57
477.668	19743.78
477.872	19792.94
478.077	19223.6
478.282	18932.79
478.486	18658.36
478.691	18517.05
478.895	18304.06
479.1	18209.86
479.304	18230.34
479.509	17286.22
479.713	17734.73
479.918	17083.47
480.122	16936.02
480.326	17040.47
480.531	16968.79
480.735	16675.93
480.94	16505.95
481.144	16950.35
481.348	15959.14
481.553	16358.49
481.757	15813.73
481.961	15955.04
482.166	16155.74
482.37	15744.1
482.574	15510.63
482.778	15473.77
482.983	15580.26
483.187	15068.27
483.391	15574.12
483.595	14937.2
483.8	14853.23
484.004	14935.15
484.208	14580.85
484.412	14367.87
484.616	14517.37
484.821	14310.52
485.025	13948.03
485.229	13788.29
485.433	13765.76
485.637	13407.37
485.841	13276.3
486.045	13130.89
486.249	12938.38
486.453	12711.06
486.657	12737.68
486.861	12440.73
487.065	11924.64
487.269	12035.23
487.473	11615.4
487.677	11758.75
487.881	11658.4
488.085	11095.21
488.289	11191.47
488.493	10865.84
488.697	10831.02
488.901	10583.22
489.105	10325.18
489.309	9942.21
489.512	10085.56
489.716	9862.33
489.92	9663.68
490.124	9454.79
490.328	9592
490.531	9092.3
490.735	9000.14
490.939	8955.08
491.143	8660.18
491.346	8592.59
491.55	8350.93
491.754	8070.36
491.958	8131.8
492.161	8023.26
492.365	7830.75
492.569	7763.17
492.772	7617.76
492.976	7718.11
493.18	7152.87
493.383	7615.71
493.587	7361.76
493.79	7277.8
493.994	6892.78
494.197	6993.13
494.401	7060.71
494.605	6855.92
494.808	6759.66
495.012	6739.18
495.215	6804.72
495.419	6825.2
495.622	6497.52
495.825	6556.91
496.029	6644.98
496.232	6669.55
496.436	6294.77
496.639	6544.63
496.843	6350.07
497.046	6335.73
497.249	6548.72
497.453	6499.57
497.656	6593.78
497.859	6472.95
498.063	6212.85
498.266	6489.33
498.469	6401.27
498.673	6364.4
498.876	6556.91
499.079	6450.42
499.282	6339.83
499.485	6626.54
499.689	6493.43
499.892	6794.48
500.095	6509.81
500.298	6718.7
500.501	6530.29
500.705	6782.19
500.908	6847.72
501.111	6835.44
501.314	7044.33
501.517	7103.72
501.72	7083.24
501.923	7333.09
502.126	7138.54
502.329	7265.51
502.532	7324.9
502.735	7343.33
502.938	7605.47
503.141	7476.45
503.344	7679.2
503.547	7802.08
503.75	7724.26
503.953	7982.3
504.156	8105.18
504.359	8154.33
504.562	8281.3
504.765	8381.65
504.968	8297.69
505.17	8320.21
505.373	8645.84
505.576	8963.28
505.779	8973.52
505.982	9075.91
506.185	9428.17
506.387	9280.71
506.59	9508.04
506.793	9831.62
506.996	9637.06
507.198	10302.65
507.401	10122.43
507.604	10351.8
507.807	10462.39
508.009	10624.18
508.212	11025.58
508.415	11082.92
508.617	11429.03
508.82	11433.13
509.022	11523.24
509.225	11875.49
509.428	12199.07
509.63	12346.52
509.833	12424.34
510.035	13214.86
510.238	13089.93
510.44	13436.04
510.643	13644.93
510.845	13984.9
511.048	14244.99
511.25	14623.86
511.453	14711.92
511.655	15651.94
511.858	15740.01
512.06	16008.29
512.262	16311.39
512.465	16548.95
512.667	16938.07
512.87	17189.97
513.072	17572.94
513.274	18037.83
513.477	18748.47
513.679	18955.32
513.881	19436.59
514.084	19541.04
514.286	20007.97
514.488	20536.35
514.69	21175.31
514.893	21310.48
515.095	21578.76
515.297	22516.73
515.499	22459.39
515.701	23133.17
515.904	23845.87
516.106	24310.75
516.308	24585.18
516.51	24630.24
516.712	25240.53
516.914	25856.97
517.116	26418.11
517.318	26481.6
517.52	27253.69
517.722	27415.47
517.925	28185.51
518.127	28662.69
518.329	29211.54
518.531	29074.33
518.733	30411.65
518.935	30376.84
519.136	31089.53
519.338	31726.45
519.54	31957.87
519.742	32281.45
519.944	32770.91
520.146	33397.59
520.348	33727.31
520.55	34079.57
520.752	34235.21
520.954	35191.61
521.155	34945.86
521.357	35576.63
521.559	36043.57
521.761	36780.84
521.963	36692.77
522.164	36956.96
522.366	37329.69
522.568	37563.16
522.77	37706.52
522.971	38296.33
523.173	38077.2
523.375	38683.4
523.576	38380.3
523.778	38769.41
523.98	39262.97
524.181	38939.4
524.383	39234.3
524.584	39701.24
524.786	39545.59
524.988	39336.7
525.189	39277.31
525.391	39789.3
525.592	39811.83
525.794	39525.11
525.995	39383.8
526.197	39262.97
526.398	39742.2
526.6	39672.57
526.801	39445.24
527.003	39197.44
527.204	38642.44
527.406	38793.99
527.607	39049.99
527.808	38634.25
528.01	38126.35
528.211	37964.56
528.412	38345.48
528.614	37931.79
528.815	37563.16
529.016	37491.48
529.218	36965.15
529.419	36375.34
529.62	36057.9
529.822	35642.17
530.023	35838.77
530.224	35072.83
530.425	34966.34
530.626	34425.67
530.828	33940.3
531.029	34413.38
531.23	33377.11
531.431	33049.44
531.632	33213.27
531.833	32547.68
532.035	32000.88
532.236	31814.51
532.437	31220.6
532.638	30720.9
532.839	30716.8
533.04	30278.54
533.241	29567.89
533.442	30012.3
533.643	29275.03
533.844	28820.38
534.045	28402.6
534.246	28052.39
534.447	27679.66
534.648	27141.05
534.849	26762.17
535.05	26661.82
535.251	26276.8
535.451	25957.32
535.652	25402.32
535.853	24994.78
536.054	25091.03
536.255	24343.52
536.456	23757.8
536.657	23733.23
536.857	23292.91
537.058	23034.87
537.259	23114.74
537.46	22629.37
537.66	22373.38
537.861	22250.5
538.062	21505.04
538.263	21257.23
538.463	21015.57
538.664	20663.32
538.865	20384.8
539.065	20522.01
539.266	19633.19
539.466	20063.27
539.667	19430.44
539.868	19534.89
540.068	18926.64
540.269	18807.86
540.469	19076.15
540.67	18566.2
540.87	18222.14
541.071	17867.84
541.271	17931.33
541.472	17882.18
541.672	17220.69
541.873	16905.3
542.073	16870.48
542.274	16858.2
542.474	16698.45
542.675	16393.31
542.875	16348.25
543.075	15875.17
543.276	15574.12
543.476	15770.72
543.676	15723.62
543.877	15301.74
544.077	15275.12
544.277	15004.78
544.478	14740.6
544.678	14902.39
544.878	14609.53
545.078	14154.88
545.279	14097.53
545.479	13995.14
545.679	13919.36
545.879	13876.35
546.079	13735.04
546.28	13182.09
546.48	13235.34
546.68	13229.2
546.88	13032.59
547.08	12797.07
547.28	12551.32
547.48	12338.33
547.68	12434.58
547.88	12098.72
548.081	12065.95
548.281	11771.04
548.481	11580.58
548.681	11607.2
548.881	11355.3
549.081	11275.43
549.28	10894.51
549.48	11023.53
549.68	10761.39
549.88	10777.78
550.08	10196.15
550.28	10478.77
550.48	10507.44
550.68	10134.71
550.88	10058.94
551.08	9786.56
551.279	9905.34
551.479	9745.6
551.679	9589.95
551.879	9319.62
552.079	9309.38
552.278	9110.73
552.478	9026.76
552.678	9098.44
552.878	8834.25
553.077	8465.62
553.277	8400.09
553.477	8254.68
553.676	8230.1
553.876	8017.11
554.076	8013.02
554.275	7906.52
554.475	7668.96
554.674	7673.06
554.874	7539.94
555.074	7165.16
555.273	7146.73
555.473	6870.25
555.672	6827.25
555.872	6991.08
556.071	6855.92
556.271	6532.34
556.47	6585.58
556.67	6405.36
556.869	6399.22
557.068	6161.66
557.268	6089.98
557.467	6071.54
557.667	5860.6
557.866	5799.16
558.065	5674.24
558.265	5496.07
558.464	5502.21
558.663	5481.73
558.863	5358.85
559.062	5324.04
559.261	5059.85
559.461	5180.68
559.66	5012.74
559.859	4984.07
560.058	4846.86
560.258	4803.85
560.457	4619.53
560.656	4883.72
560.855	4533.52
561.054	4562.19
561.253	4402.45
561.453	4560.14
561.652	4449.55
561.851	4310.29
562.05	4289.81
562.249	3931.42
562.448	4097.3
562.647	3982.62
562.846	3837.21
563.045	3771.68
563.244	3888.41
563.443	3900.7
563.642	3702.04
563.841	3607.84
564.04	3611.93
564.239	3700
564.438	3495.2
564.637	3333.41
564.836	3478.82
565.035	3196.2
565.234	3212.58
565.432	3355.94
565.631	3173.67
565.83	3067.17
566.029	3140.9
566.228	3020.07
566.427	3024.17
566.625	2981.16
566.824	2944.3
567.023	2958.63
567.222	2929.96
567.42	2757.93
567.619	2850.09
567.818	2792.75
568.016	2860.33
568.215	2710.83
568.414	2635.05
568.612	2712.88
568.811	2575.66
569.01	2516.27
569.208	2467.12
569.407	2565.42
569.605	2559.28
569.804	2401.58
570.002	2366.77
570.201	2229.56
570.4	2295.09
570.598	2272.56
570.797	2213.17
570.995	2161.97
571.193	2145.59
571.392	2123.06
571.59	2051.38
571.789	2121.01
571.987	2106.68
572.186	2078.01
572.384	1887.54
572.582	1996.09
572.781	1889.59
572.979	1795.39
573.177	1905.98
573.376	1924.41
573.574	1867.06
573.772	1779
573.971	1789.24
574.169	1690.94
574.367	1760.57
574.565	1662.27
574.763	1635.64
574.962	1654.08
575.16	1631.55
575.358	1529.15
575.556	1533.25
575.754	1572.16
575.952	1543.49
576.151	1514.81
576.349	1434.94
576.547	1336.64
576.745	1391.94
576.943	1406.27
577.141	1344.83
577.339	1348.93
577.537	1391.94
577.735	1387.84
577.933	1346.88
578.131	1244.48
578.329	1348.93
578.527	1254.72
578.725	1281.35
578.923	1142.08
579.121	1267.01
579.319	980.29
579.516	1008.97
579.714	1297.73
579.912	1027.4
580.11	1013.06
580.308	1072.45
580.506	1039.69
580.704	931.14
580.901	996.68
581.099	1068.36
581.297	1000.77
581.495	1021.25
581.692	1043.78
581.89	1008.97
582.088	1015.11
582.285	976.2
582.483	941.38
582.681	863.56
582.878	873.8
583.076	851.27
583.274	955.72
583.471	933.19
583.669	820.55
583.866	777.55
584.064	769.35
584.262	714.06
584.459	734.54
584.657	857.42
584.854	763.21
585.052	865.61
585.249	931.14
585.447	765.26
585.644	566.6
585.841	793.93
586.039	798.03
586.236	812.36
586.434	697.67
586.631	626
586.828	664.91
587.026	679.24
587.223	576.84
587.42	599.37
587.618	675.15
587.815	750.92
588.012	589.13
588.21	707.91
588.407	656.72
588.604	574.8
588.801	638.28
588.999	705.87
589.196	636.24
589.393	544.08
589.59	644.43
589.787	673.1
589.984	666.96
590.182	564.56
590.379	523.6
590.576	574.8
590.773	611.66
590.97	601.42
591.167	630.09
591.364	595.28
591.561	535.89
591.758	605.52
591.955	628.04
592.152	546.12
592.349	570.7
592.546	535.89
592.743	462.16
592.94	554.32
593.137	628.04
593.334	603.47
593.531	601.42
593.727	611.66
593.924	611.66
594.121	570.7
594.318	507.21
594.515	595.28
594.712	664.91
594.908	714.06
595.105	466.25
595.302	646.48
595.499	578.89
595.696	607.56
595.892	525.65
596.089	615.76
596.286	568.65
596.482	716.11
596.679	730.44
596.876	611.66
597.072	783.69
597.269	771.4
597.466	709.96
597.662	720.2
597.859	767.31
598.055	787.79
598.252	769.35
598.448	886.09
598.645	871.75
598.841	810.31
599.038	959.81
599.234	1013.06
599.431	1074.5
599.627	1092.93
599.824	953.67
600.02	1119.56
600.217	1113.41
600.413	1224
600.609	1123.65
600.806	1490.24
601.002	1328.45
601.198	1244.48
601.395	1398.08
601.591	1523.01
601.787	1572.16
601.984	1606.97
602.18	1709.37
602.376	1830.2
602.572	1856.82
602.769	1994.04
602.965	1869.11
603.161	1822.01
603.357	2080.05
603.553	2139.44
603.75	2069.81
603.946	2323.76
604.142	2403.63
604.338	2417.97
604.534	2420.02
604.73	2479.41
604.926	2622.77
605.122	2872.62
605.318	2721.07
605.514	2999.59
605.71	2993.45
605.906	3073.32
606.102	3147.05
606.298	3280.16
606.494	3509.54
606.69	3538.21
606.886	3452.19
607.082	3562.78
607.278	3755.29
607.474	4011.29
607.67	4001.05
607.866	3937.56
608.062	4300.05
608.257	4484.37
608.453	4437.27
608.649	4504.85
608.845	4527.38
609.041	4705.55
609.236	4975.88
609.432	5225.73
609.628	5172.49
609.824	5418.24
610.019	5313.8
610.215	5651.71
610.411	5719.29
610.606	6055.16
610.802	6173.94
610.998	6229.24
611.193	6546.67
611.389	6427.89
611.584	6741.23
611.78	6923.5
611.976	6986.99
612.171	7410.92
612.367	7478.5
612.562	7613.67
612.758	7857.37
612.953	7740.64
613.149	8109.27
613.344	8537.3
613.539	8836.3
613.735	8926.41
613.93	9041.1
614.126	9297.1
614.321	9692.35
614.517	9909.44
614.712	10011.84
614.907	10468.53
615.103	10777.78
615.298	10788.02
615.493	11015.34
615.688	11228.33
615.884	11787.43
616.079	11900.06
616.274	12367
616.47	12606.61
616.665	13014.16
616.86	13087.89
617.055	13575.3
617.25	13681.8
617.445	14349.43
617.641	14378.11
617.836	15211.63
618.031	15123.57
618.226	15748.2
618.421	16000.1
618.616	16551
618.811	16628.82
619.006	17267.79
619.201	17282.13
619.396	18148.42
619.591	18035.78
619.786	18586.68
619.981	18652.22
620.176	19414.06
620.371	19674.15
620.566	20186.15
620.761	20352.03
620.956	21290
621.151	21330.96
621.346	22084.61
621.541	22305.79
621.735	22922.23
621.93	22782.97
622.125	23616.49
622.32	23469.04
622.515	24419.3
622.709	24595.42
622.904	25183.19
623.099	25680.85
623.294	26184.65
623.488	26467.27
623.683	26944.44
623.878	27151.29
624.072	28050.35
624.267	28216.23
624.462	28412.84
624.656	28791.71
624.851	29531.03
625.046	30034.83
625.24	30329.73
625.435	30413.7
625.629	30927.74
625.824	31497.08
626.018	32162.67
626.213	31773.55
626.407	32506.73
626.602	32586.6
626.796	33258.33
626.991	33755.99
627.185	33864.53
627.38	34018.13
627.574	34243.4
627.768	34421.58
627.963	34349.9
628.157	34548.55
628.352	35060.54
628.546	34636.61
628.74	35056.45
628.935	34575.17
629.129	34775.87
629.323	34446.15
629.517	34663.24
629.712	33997.65
629.906	34251.59
630.1	33274.71
630.294	33438.55
630.489	32832.35
630.683	32899.94
630.877	31730.55
631.071	31359.86
631.265	31241.08
631.459	30141.32
631.653	29653.9
631.848	29123.48
632.042	28251.05
632.236	27595.7
632.43	26995.64
632.624	26385.35
632.818	25359.31
633.012	24529.89
633.206	23903.21
633.4	23274.48
633.594	22248.45
633.788	21763.08
633.982	21144.59
634.176	20306.98
634.369	19678.25
634.563	18744.38
634.757	18115.65
634.951	17458.25
635.145	16954.45
635.339	16155.74
635.533	15035.5
635.726	15049.84
635.92	14341.24
636.114	13765.76
636.308	13003.92
636.501	12616.85
636.695	12223.64
636.889	11449.51
637.083	10992.81
637.276	10831.02
637.47	10028.22
637.664	9698.5
637.857	9553.09
638.051	9114.83
638.244	8606.93
638.438	8254.68
638.632	8197.34
638.825	7601.38
639.019	7496.93
639.212	6943.98
639.406	6847.72
639.599	6530.29
639.793	6417.65
639.986	6014.2
640.18	5989.63
640.373	5598.46
640.567	5381.38
640.76	5244.17
640.954	4932.87
641.147	4713.74
641.34	4619.53
641.534	4439.31
641.727	4377.87
641.92	4097.3
642.114	4093.21
642.307	3740.96
642.5	3634.46
642.694	3575.07
642.887	3517.73
643.08	3437.86
643.273	3083.56
643.467	2950.44
643.66	2749.74
643.853	2770.22
644.046	2835.75
644.239	2585.9
644.432	2479.41
644.626	2344.24
644.819	2231.6
645.012	2352.43
645.205	2174.26
645.398	2157.88
645.591	1934.65
645.784	1901.88
645.977	1787.19
646.17	1774.91
646.363	1664.32
646.556	1510.72
646.749	1439.04
646.942	1547.58
647.135	1518.91
647.328	1412.42
647.521	1457.47
647.714	1307.97
647.907	1236.29
648.099	1154.37
648.292	1221.95
648.485	1121.6
648.678	1041.73
648.871	1011.01
649.064	1103.17
649.256	906.57
649.449	841.03
649.642	857.42
649.835	869.7
650.027	773.45
650.22	859.46
650.413	867.66
650.605	861.51
650.798	671.05
650.991	818.5
651.183	769.35
651.376	759.11
651.568	759.11
651.761	669
651.954	677.19
652.146	589.13
652.339	675.15
652.531	607.56
652.724	480.59
652.916	443.73
653.109	376.14
653.301	589.13
653.494	601.42
653.686	519.5
653.879	466.25
654.071	472.4
654.263	470.35
654.456	298.32
654.648	499.02
654.84	511.31
655.033	359.76
655.225	499.02
655.417	326.99
655.61	468.3
655.802	415.05
655.994	410.96
656.186	302.42
656.379	435.53
656.571	347.47
656.763	271.7
656.955	283.98
657.148	318.8
657.34	390.48
657.532	261.46
657.724	331.09
657.916	261.46
658.108	271.7
658.3	326.99
658.492	226.64
658.684	177.49
658.876	345.42
659.068	116.05
659.26	91.48
659.452	159.06
659.644	277.84
659.836	335.18
660.028	259.41
660.22	202.07
660.412	193.87
660.604	214.35
660.796	189.78
660.988	255.31
661.18	163.15
661.372	288.08
661.563	210.26
661.755	138.58
661.947	73.04
662.139	165.2
662.331	185.68
662.522	210.26
662.714	179.54
662.906	101.72
663.097	161.11
663.289	163.15
663.481	109.91
663.673	228.69
663.864	85.33
664.056	171.35
664.247	124.24
664.439	251.22
664.631	259.41
664.822	238.93
665.014	101.72
665.205	159.06
665.397	116.05
665.588	226.64
665.78	56.66
665.971	247.12
666.163	144.72
666.354	247.12
666.546	46.42
666.737	165.2
666.929	68.95
667.12	105.81
667.311	132.44
667.503	116.05
667.694	179.54
667.885	154.96
668.077	216.4
668.268	9.56
668.459	58.71
668.651	116.05
668.842	179.54
669.033	91.48
669.224	-35.5
669.416	308.56
669.607	87.38
669.798	-4.78
669.989	290.13
670.18	48.47
670.371	157.01
670.563	38.23
670.754	234.83
670.945	245.07
671.136	210.26
671.327	134.48
671.518	232.79
671.709	245.07
671.9	234.83
672.091	206.16
672.282	142.68
672.473	97.62
672.664	60.76
672.855	195.92
673.046	173.39
673.237	185.68
673.428	128.34
673.619	200.02
673.809	134.48
674	226.64
674.191	150.87
674.382	175.44
674.573	136.53
674.764	130.39
674.954	134.48
675.145	87.38
675.336	75.09
675.527	56.66
675.717	25.94
675.908	64.85
676.099	87.38
676.289	140.63
676.48	64.85
676.671	126.29
676.861	95.57
677.052	99.67
677.243	140.63
677.433	116.05
677.624	208.21
677.814	114
678.005	66.9
678.195	243.03
678.386	95.57
678.576	79.19
678.767	7.51
678.957	107.86
679.148	247.12
679.338	222.55
679.529	134.48
679.719	120.15
679.909	173.39
680.1	269.65
680.29	179.54
680.481	103.76
680.671	263.51
680.861	204.11
681.052	130.39
681.242	144.72
681.432	165.2
681.622	208.21
681.813	105.81
682.003	175.44
682.193	66.9
682.383	146.77
682.573	177.49
682.764	101.72
682.954	62.8
683.144	232.79
683.334	111.96
683.524	157.01
683.714	230.74
683.904	206.16
684.094	161.11
684.284	185.68
684.474	214.35
684.664	220.5
684.854	183.63
685.044	197.97
685.234	185.68
685.424	206.16
685.614	95.57
685.804	267.6
685.994	197.97
686.184	144.72
686.374	243.03
686.564	222.55
686.753	144.72
686.943	173.39
687.133	95.57
687.323	132.44
687.513	124.24
687.702	210.26
687.892	245.07
688.082	218.45
688.272	146.77
688.461	232.79
688.651	374.1
688.841	191.83
689.03	103.76
689.22	154.96
689.41	177.49
689.599	228.69
689.789	185.68
689.979	294.22
690.168	189.78
690.358	165.2
690.547	206.16
690.737	216.4
690.926	222.55
691.116	177.49
691.305	240.98
691.495	228.69
691.684	144.72
691.874	95.57
692.063	175.44
692.252	290.13
692.442	275.79
692.631	146.77
692.82	189.78
693.01	193.87
693.199	195.92
693.388	230.74
693.578	193.87
693.767	134.48
693.956	169.3
694.146	105.81
694.335	230.74
694.524	249.17
694.713	195.92
694.902	159.06
695.092	118.1
695.281	226.64
695.47	95.57
695.659	189.78
695.848	234.83
696.037	167.25
696.226	335.18
696.415	234.83
696.604	230.74
696.793	259.41
696.982	132.44
697.171	326.99
697.36	130.39
697.549	204.11
697.738	60.76
697.927	191.83
698.116	95.57
698.305	163.15
698.494	161.11
698.683	58.71
698.872	261.46
699.061	243.03
699.25	146.77
699.438	144.72
699.627	138.58
699.816	378.19
700.005	48.47
700.193	114
700.382	181.59
700.571	163.15
700.76	210.26
700.948	191.83
701.137	114
701.326	277.84
701.514	157.01
701.703	210.26
701.892	132.44
702.08	265.55
702.269	181.59
702.457	91.48
702.646	128.34
702.834	114
703.023	251.22
703.212	310.61
703.4	210.26
703.589	56.66
703.777	169.3
703.965	-15.02
704.154	75.09
704.342	148.82
704.531	152.91
704.719	83.28
704.907	257.36
705.096	148.82
705.284	62.8
705.472	189.78
705.661	163.15
705.849	189.78
706.037	275.79
706.226	183.63
706.414	247.12
706.602	105.81
706.79	173.39
706.979	71
707.167	206.16
707.355	105.81
707.543	175.44
707.731	193.87
707.919	181.59
708.107	126.29
708.296	32.08
708.484	134.48
708.672	152.91
708.86	150.87
709.048	124.24
709.236	193.87
709.424	169.3
709.612	193.87
709.8	-17.07
709.988	159.06
710.176	271.7
710.364	214.35
710.551	206.16
710.739	138.58
710.927	105.81
711.115	177.49
711.303	169.3
711.491	249.17
711.679	157.01
711.866	257.36
712.054	161.11
712.242	173.39
712.43	251.22
712.617	64.85
712.805	181.59
712.993	130.39
713.181	134.48
713.368	273.75
713.556	185.68
713.744	144.72
713.931	365.9
714.119	189.78
714.306	173.39
714.494	191.83
714.682	95.57
714.869	132.44
715.057	154.96
715.244	136.53
715.432	245.07
715.619	134.48
715.807	200.02
715.994	111.96
716.182	216.4
716.369	273.75
716.556	185.68
716.744	40.28
716.931	202.07
717.119	273.75
717.306	230.74
717.493	212.31
717.681	109.91
717.868	154.96
718.055	175.44
718.242	179.54
718.43	200.02
718.617	296.27
718.804	193.87
718.991	290.13
719.179	249.17
719.366	302.42
719.553	210.26
719.74	161.11
719.927	197.97
720.114	226.64
720.301	120.15
720.488	169.3
720.676	171.35
720.863	277.84
721.05	404.82
721.237	238.93
721.424	226.64
721.611	228.69
721.798	173.39
721.985	183.63
722.172	226.64
722.358	195.92
722.545	283.98
722.732	214.35
722.919	306.51
723.106	286.03
723.293	226.64
723.48	181.59
723.667	128.34
723.853	349.52
724.04	273.75
724.227	269.65
724.414	206.16
724.6	189.78
724.787	234.83
724.974	322.9
725.161	204.11
725.347	152.91
725.534	314.7
725.72	257.36
725.907	304.46
726.094	245.07
726.28	152.91
726.467	236.88
726.653	230.74
726.84	322.9
727.027	402.77
727.213	212.31
727.4	271.7
727.586	331.09
727.773	255.31
727.959	206.16
728.145	279.89
728.332	245.07
728.518	238.93
728.705	339.28
728.891	261.46
729.077	240.98
729.264	161.11
729.45	281.94
729.636	302.42
729.823	308.56
730.009	388.43
730.195	304.46
730.382	326.99
730.568	173.39
730.754	355.66
730.94	267.6
731.126	302.42
731.313	351.57
731.499	275.79
731.685	269.65
731.871	355.66
732.057	318.8
732.243	345.42
732.429	345.42
732.615	423.25
732.801	329.04
732.987	226.64
733.173	271.7
733.359	212.31
733.545	333.14
733.731	243.03
733.917	384.34
734.103	345.42
734.289	232.79
734.475	226.64
734.661	351.57
734.847	302.42
735.033	236.88
735.219	335.18
735.404	310.61
735.59	232.79
735.776	247.12
735.962	281.94
736.148	259.41
736.333	419.15
736.519	349.52
736.705	269.65
736.89	236.88
737.076	257.36
737.262	243.03
737.447	267.6
737.633	318.8
737.819	267.6
738.004	343.38
738.19	277.84
738.375	271.7
738.561	392.53
738.747	290.13
738.932	202.07
739.118	433.49
739.303	374.1
739.489	302.42
739.674	288.08
739.859	206.16
740.045	314.7
740.23	308.56
740.416	177.49
740.601	335.18
740.786	353.62
740.972	263.51
741.157	302.42
741.342	251.22
741.528	126.29
741.713	425.29
741.898	290.13
742.084	300.37
742.269	283.98
742.454	279.89
742.639	318.8
742.824	224.59
743.01	388.43
743.195	417.1
743.38	382.29
743.565	271.7
743.75	343.38
743.935	367.95
744.12	361.81
744.305	300.37
744.49	240.98
744.675	292.18
744.86	177.49
745.045	304.46
745.23	331.09
745.415	279.89
745.6	322.9
745.785	259.41
745.97	308.56
746.155	341.33
746.34	417.1
746.525	298.32
746.71	322.9
746.895	238.93
747.079	222.55
747.264	261.46
747.449	298.32
747.634	372.05
747.819	337.23
748.003	212.31
748.188	165.2
748.373	273.75
748.557	370
748.742	279.89
748.927	257.36
749.111	212.31
749.296	302.42
749.481	353.62
749.665	267.6
749.85	224.59
750.034	306.51
750.219	345.42
750.404	214.35
750.588	308.56
750.773	236.88
750.957	273.75
751.141	314.7
751.326	271.7
751.51	238.93
751.695	238.93
751.879	236.88
752.064	353.62
752.248	140.63
752.432	359.76
752.617	296.27
752.801	255.31
752.985	214.35
753.17	339.28
753.354	208.21
753.538	210.26
753.722	261.46
753.907	167.25
754.091	134.48
754.275	226.64
754.459	177.49
754.643	138.58
754.828	273.75
755.012	292.18
755.196	101.72
755.38	181.59
755.564	175.44
755.748	146.77
755.932	333.14
756.116	320.85
756.3	324.94
756.484	165.2
756.668	230.74
756.852	185.68
757.036	183.63
757.22	187.73
757.404	159.06
757.588	161.11
757.772	208.21
757.956	204.11
758.14	404.82
758.323	128.34
758.507	238.93
758.691	189.78
758.875	238.93
759.059	263.51
759.242	187.73
759.426	283.98
759.61	179.54
759.794	214.35
759.977	228.69
760.161	388.43
760.345	290.13
760.528	253.27
760.712	200.02
760.895	171.35
761.079	200.02
761.263	126.29
761.446	128.34
761.63	169.3
761.813	257.36
761.997	146.77
762.18	185.68
762.364	234.83
762.547	21.84
762.731	157.01
762.914	197.97
763.098	171.35
763.281	105.81
763.464	140.63
763.648	222.55
763.831	120.15
764.015	83.28
764.198	212.31
764.381	202.07
764.564	132.44
764.748	214.35
764.931	126.29
765.114	128.34
765.297	163.15
765.481	157.01
765.664	150.87
765.847	144.72
766.03	181.59
766.213	87.38
766.397	206.16
766.58	32.08
766.763	238.93
766.946	150.87
767.129	154.96
767.312	140.63
767.495	150.87
767.678	68.95
767.861	124.24
768.044	161.11
768.227	99.67
768.41	97.62
768.593	120.15
768.776	159.06
768.959	97.62
769.142	138.58
769.324	159.06
769.507	185.68
769.69	71
769.873	138.58
770.056	308.56
770.239	157.01
770.421	240.98
770.604	187.73
770.787	99.67
770.97	193.87
771.152	38.23
771.335	87.38
771.518	97.62
771.7	212.31
771.883	243.03
772.066	62.8
772.248	130.39
772.431	138.58
772.613	226.64
772.796	142.68
772.978	234.83
773.161	165.2
773.343	38.23
773.526	130.39
773.708	52.56
773.891	21.84
774.073	58.71
774.256	195.92
774.438	261.46
774.621	71
774.803	148.82
774.985	89.43
775.168	118.1
775.35	46.42
775.532	120.15
775.715	64.85
775.897	157.01
776.079	46.42
776.261	99.67
776.444	105.81
776.626	150.87
776.808	148.82
776.99	9.56
777.173	165.2
777.355	95.57
777.537	136.53
777.719	87.38
777.901	150.87
778.083	97.62
778.265	46.42
778.447	197.97
778.629	23.89
778.811	97.62
778.993	60.76
779.175	140.63
779.357	85.33
779.539	11.61
779.721	58.71
779.903	212.31
780.085	105.81
780.267	109.91
780.449	42.32
780.631	183.63
780.812	253.27
780.994	32.08
781.176	7.51
781.358	54.61
781.54	42.32
781.721	109.91
781.903	134.48
782.085	19.8
782.267	200.02
782.448	56.66
782.63	44.37
782.812	89.43
782.993	105.81
783.175	79.19
783.357	30.04
783.538	185.68
783.72	54.61
783.901	62.8
784.083	138.58
784.264	85.33
784.446	34.13
784.627	34.13
784.809	13.65
784.99	122.2
785.172	122.2
785.353	75.09
785.535	13.65
785.716	50.52
785.897	79.19
786.079	25.94
786.26	54.61
786.441	68.95
786.623	-55.98
786.804	25.94
786.985	64.85
787.167	161.11
787.348	62.8
787.529	-31.4
787.71	230.74
787.891	85.33
788.073	42.32
788.254	-35.5
788.435	206.16
788.616	25.94
788.797	5.46
788.978	62.8
789.159	73.04
789.34	54.61
789.522	50.52
789.703	19.8
789.884	58.71
790.065	150.87
790.246	165.2
790.427	85.33
790.607	87.38
790.788	62.8
790.969	60.76
791.15	140.63
791.331	-74.41
791.512	17.75
791.693	25.94
791.874	-29.35
792.054	109.91
792.235	68.95
792.416	21.84
792.597	54.61
792.778	75.09
792.958	111.96
793.139	91.48
793.32	93.52
793.5	-33.45
793.681	144.72
793.862	85.33
794.042	44.37
794.223	-25.26
794.404	87.38
794.584	-33.45
794.765	-23.21
794.945	42.32
795.126	109.91
795.306	85.33
795.487	58.71
795.667	3.41
795.848	34.13
796.028	23.89
796.209	99.67
796.389	107.86
796.57	27.99
796.75	3.41
796.93	-17.07
797.111	-19.11
797.291	-17.07
797.471	114
797.652	7.51
797.832	-21.16
798.012	75.09
798.192	-60.07
798.373	13.65
798.553	58.71
798.733	75.09
798.913	19.8
799.093	-6.83
799.274	75.09
799.454	75.09
799.634	111.96
799.814	157.01
799.994	77.14
800.174	58.71
800.354	5.46
800.534	-39.59
800.714	173.39
800.894	11.61
801.074	-12.97
801.254	1.37
801.434	157.01
801.614	9.56
801.794	-8.87
801.974	1862.97
802.154	11.61
802.334	109.91
802.514	-35.5
802.693	-39.59
802.873	68.95
803.053	130.39
803.233	68.95
803.413	52.56
803.592	-84.65
803.772	-21.16
803.952	101.72
804.131	-2.73
804.311	46.42
804.491	157.01
804.67	-6.83
804.85	5.46
805.03	95.57
805.209	114
805.389	66.9
805.568	1.37
805.748	-10.92
805.928	27.99
806.107	105.81
806.287	3.41
806.466	95.57
806.646	1.37
806.825	3.41
807.004	-10.92
807.184	64.85
807.363	50.52
807.543	54.61
807.722	-37.55
807.901	120.15
808.081	99.67
808.26	-70.31
808.439	58.71
808.619	87.38
808.798	30.04
808.977	5.46
809.156	107.86
809.336	48.47
809.515	81.24
809.694	-37.55
809.873	-8.87
810.052	32.08
810.231	200.02
810.411	52.56
810.59	75.09
810.769	46.42
810.948	68.95
811.127	-68.27
811.306	-10.92
811.485	25.94
811.664	138.58
811.843	23.89
812.022	66.9
812.201	-49.83
812.38	30.04
812.559	30.04
812.737	107.86
812.916	-25.26
813.095	-66.22
813.274	54.61
813.453	30.04
813.632	40.28
813.811	103.76
813.989	-68.27
814.168	3.41
814.347	-94.89
814.526	-10.92
814.704	83.28
814.883	142.68
815.062	-31.4
815.24	50.52
815.419	-2.73
815.598	42.32
815.776	-21.16
815.955	105.81
816.133	-62.12
816.312	44.37
816.49	3.41
816.669	58.71
816.847	68.95
817.026	42.32
817.204	17.75
817.383	-19.11
817.561	21.84
817.74	-10.92
817.918	58.71
818.097	-29.35
818.275	-70.31
818.453	21.84
818.632	25.94
818.81	15.7
818.988	36.18
819.167	-39.59
819.345	56.66
819.523	-29.35
819.701	23.89
819.879	9.56
820.058	-2.73
820.236	60.76
820.414	5.46
820.592	30.04
820.77	-0.68
820.948	-51.88
821.127	15.7
821.305	32.08
821.483	-37.55
821.661	87.38
821.839	68.95
822.017	-55.98
822.195	-29.35
822.373	73.04
822.551	42.32
822.729	118.1
822.907	-15.02
823.085	54.61
823.262	44.37
823.44	-60.07
823.618	9.56
823.796	1.37
823.974	-10.92
824.152	-41.64
824.329	-4.78
824.507	40.28
824.685	56.66
824.863	32.08
825.04	97.62
825.218	64.85
825.396	1.37
825.574	-31.4
825.751	89.43
825.929	-29.35
826.107	-72.36
826.284	60.76
826.462	85.33
826.639	-70.31
826.817	-101.03
826.994	1.37
827.172	-27.31
827.349	175.44
827.527	60.76
827.704	-10.92
827.882	120.15
828.059	56.66
828.237	7.51
828.414	73.04
828.591	-113.32
828.769	77.14
828.946	-35.5
829.124	56.66
829.301	87.38
829.478	34.13
829.655	52.56
829.833	46.42
830.01	-109.23
830.187	30.04
830.364	40.28
830.542	15.7
830.719	68.95
830.896	44.37
831.073	109.91
831.25	62.8
831.427	138.58
831.604	1.37
831.782	-121.51
831.959	152.91
832.136	-2.73
832.313	-4.78
832.49	40.28
832.667	50.52
832.844	-53.93
833.021	122.2
833.198	120.15
833.374	7.51
833.551	23.89
833.728	27.99
833.905	93.52
834.082	-80.55
834.259	17.75
834.436	140.63
834.612	-4.78
834.789	77.14
834.966	13.65
835.143	73.04
835.319	-68.27
835.496	23.89
835.673	62.8
835.85	148.82
836.026	91.48
836.203	126.29
836.38	-23.21
836.556	-62.12
836.733	-62.12
836.909	183.63
837.086	46.42
837.262	-111.27
837.439	21.84
837.616	-43.69
837.792	85.33
837.968	64.85
838.145	-113.32
838.321	34.13
838.498	40.28
838.674	58.71
838.851	50.52
839.027	-55.98
839.203	60.76
839.38	19.8
839.556	-64.17
839.732	101.72
839.909	-29.35
840.085	77.14
840.261	-8.87
840.437	-33.45
840.614	-17.07
840.79	25.94
840.966	105.81
841.142	66.9
841.318	13.65
841.494	48.47
841.671	107.86
841.847	-58.03
842.023	-27.31
842.199	60.76
842.375	107.86
842.551	-80.55
842.727	-17.07
842.903	66.9
843.079	-31.4
843.255	148.82
843.431	23.89
843.607	64.85
843.783	-33.45
843.959	30.04
844.134	-74.41
844.31	132.44
844.486	-94.89
844.662	-27.31
844.838	13.65
845.013	68.95
845.189	111.96
845.365	114
845.541	42.32
845.716	56.66
845.892	146.77
846.068	-2.73
846.244	-29.35
846.419	68.95
846.595	-55.98
846.77	-10.92
846.946	30.04
847.122	-90.79
847.297	-33.45
847.473	21.84
847.648	-125.61
847.824	-47.79
847.999	-150.18
848.175	23.89
848.35	34.13
848.526	15.7
848.701	52.56
848.876	64.85
849.052	99.67
849.227	52.56
849.403	91.48
849.578	-12.97
849.753	25.94
849.929	109.91
850.104	-41.64
850.279	1.37
850.454	97.62
850.63	68.95
850.805	27.99
850.98	-35.5
851.155	-10.92
851.33	-12.97
851.505	-4.78
851.681	138.58
851.856	38.23
852.031	-10.92
852.206	81.24
852.381	-55.98
852.556	3.41
852.731	32.08
852.906	68.95
853.081	62.8
853.256	73.04
853.431	-15.02
853.606	-4.78
853.781	-21.16
853.956	-115.37
854.131	-15.02
854.305	-90.79
854.48	-43.69
854.655	-62.12
854.83	-8.87
855.005	36.18
855.18	-12.97
855.354	19.8
855.529	36.18
855.704	-2.73
855.879	-2.73
856.053	-21.16
856.228	75.09
856.403	-105.13
856.577	11.61
856.752	-119.46
856.926	34.13
857.101	-10.92
857.276	-66.22
857.45	-31.4
857.625	71
857.799	34.13
857.974	27.99
858.148	-37.55
858.323	3.41
858.497	27.99
858.672	-17.07
858.846	-49.83
859.02	75.09
859.195	-21.16
859.369	-4.78
859.543	5.46
859.718	9.56
859.892	38.23
860.066	-15.02
860.241	-23.21
860.415	-19.11
860.589	-33.45
860.763	1.37
860.938	-43.69
861.112	64.85
861.286	1.37
861.46	114
861.634	25.94
861.808	-45.74
861.982	-64.17
862.157	-92.84
862.331	32.08
862.505	-41.64
862.679	-121.51
862.853	-4.78
863.027	30.04
863.201	132.44
863.375	-0.68
863.549	46.42
863.722	-10.92
863.896	46.42
864.07	-45.74
864.244	19.8
864.418	-4.78
864.592	30.04
864.766	54.61
864.939	91.48
865.113	40.28
865.287	124.24
865.461	-4.78
865.634	-60.07
865.808	17.75
865.982	3.41
866.156	-64.17
866.329	-43.69
866.503	107.86
866.676	52.56
866.85	34.13
867.024	7.51
867.197	109.91
867.371	9.56
867.544	15.7
867.718	-127.66
867.891	120.15
868.065	-70.31
868.238	87.38
868.412	50.52
868.585	-4.78
868.759	-88.75
868.932	56.66
869.105	-55.98
869.279	23.89
869.452	-60.07
869.625	79.19
869.799	7.51
869.972	-121.51
870.145	-10.92
870.319	85.33
870.492	-31.4
870.665	1.37
870.838	-49.83
871.011	-35.5
871.185	-33.45
871.358	-43.69
871.531	-12.97
871.704	52.56
871.877	17.75
872.05	-37.55
872.223	-111.27
872.396	130.39
872.569	60.76
872.742	-43.69
872.915	75.09
873.088	-4.78
873.261	-15.02
873.434	17.75
873.607	25.94
873.78	152.91
873.953	-47.79
874.126	89.43
874.299	56.66
874.471	7.51
874.644	48.47
874.817	120.15
874.99	116.05
875.163	-29.35
875.335	-31.4
875.508	-27.31
875.681	91.48
875.853	-12.97
876.026	13.65
876.199	77.14
876.371	116.05
876.544	-25.26
876.717	7.51
876.889	-2.73
877.062	79.19
877.234	-131.75
877.407	-17.07
877.579	11.61
877.752	68.95
877.924	15.7
878.097	44.37
878.269	-6.83
878.442	58.71
878.614	68.95
878.786	48.47
878.959	75.09
879.131	11.61
879.303	-119.46
879.476	9.56
879.648	52.56
879.82	30.04
879.993	-10.92
880.165	25.94
880.337	-88.75
880.509	-2.73
880.681	-68.27
880.854	19.8
881.026	38.23
881.198	195.92
881.37	-19.11
881.542	-2.73
881.714	3.41
881.886	-29.35
882.058	-47.79
882.23	25.94
882.402	-2.73
882.574	56.66
882.746	36.18
882.918	60.76
883.09	40.28
883.262	-37.55
883.434	50.52
883.606	-29.35
883.778	30.04
883.95	140.63
884.122	11.61
884.293	25.94
884.465	64.85
884.637	87.38
884.809	-6.83
884.98	17.75
885.152	85.33
885.324	64.85
885.496	-45.74
885.667	-35.5
885.839	-62.12
886.011	103.76
886.182	46.42
886.354	130.39
886.525	77.14
886.697	3.41
886.869	-72.36
887.04	-17.07
887.212	111.96
887.383	152.91
887.555	38.23
887.726	58.71
887.897	1.37
888.069	7.51
888.24	99.67
888.412	-33.45
888.583	11.61
888.754	54.61
888.926	-96.94
889.097	-23.21
889.268	-101.03
889.44	-2.73
889.611	-60.07
889.782	-8.87
889.953	-82.6
890.125	93.52
890.296	-88.75
890.467	40.28
890.638	-35.5
890.809	9.56
890.98	-51.88
891.151	32.08
891.323	103.76
891.494	27.99
891.665	3.41
891.836	-53.93
892.007	32.08
892.178	15.7
892.349	68.95
892.52	-107.18
892.691	83.28
892.862	-47.79
893.032	-92.84
893.203	-10.92
893.374	-23.21
893.545	140.63
893.716	-0.68
893.887	48.47
894.057	-78.51
894.228	52.56
894.399	-45.74
894.57	97.62
894.74	-31.4
894.911	17.75
895.082	-47.79
895.253	27.99
895.423	34.13
895.594	50.52
895.764	46.42
895.935	-109.23
896.106	48.47
896.276	-64.17
896.447	77.14
896.617	42.32
896.788	-31.4
896.958	23.89
897.129	-15.02
897.299	-17.07
897.47	136.53
897.64	17.75
897.81	-43.69
897.981	15.7
898.151	-23.21
898.322	56.66
898.492	-6.83
898.662	34.13
898.832	-6.83
899.003	46.42
899.173	5.46
899.343	-45.74
899.513	-23.21
