Data from USB4F104151__78__10-33-13-943.txt Node

Date: Wed Feb 26 10:33:13 EST 2025
User: louis
Spectrometer: USB4F10415
Trigger mode: 4
Integration Time (sec): 1.000000E-1
Scans to average: 1
Electric dark correction enabled: true
Nonlinearity correction enabled: false
Boxcar width: 0
XAxis mode: Wavelengths
Number of Pixels in Spectrum: 3648
>>>>>Begin Spectral Data<<<<<
178.204	-355.32
178.424	-355.32
178.644	-355.32
178.864	-406.52
179.084	-424.95
179.304	-17.41
179.524	-5.12
179.744	-82.94
179.964	56.32
180.184	17.41
180.404	62.46
180.624	-23.55
180.844	-33.79
181.064	3.07
181.283	33.79
181.503	-72.7
181.723	62.46
181.943	-70.65
182.163	218.11
182.383	23.55
182.602	44.03
182.822	125.95
183.042	19.46
183.262	31.74
183.482	7.17
183.701	3.07
183.921	68.61
184.141	-70.65
184.361	99.33
184.58	48.13
184.8	29.7
185.02	-15.36
185.239	125.95
185.459	62.46
185.679	115.71
185.898	-123.9
186.118	66.56
186.338	117.76
186.557	68.61
186.777	7.17
186.997	-13.31
187.216	13.31
187.436	185.34
187.655	82.94
187.875	111.61
188.095	54.27
188.314	160.77
188.534	181.25
188.753	-64.51
188.973	183.29
189.192	156.67
189.412	39.94
189.631	68.61
189.851	19.46
190.07	201.72
190.29	-13.31
190.509	29.7
190.729	35.84
190.948	236.54
191.168	279.55
191.387	50.18
191.607	91.13
191.826	148.48
192.045	-23.55
192.265	25.6
192.484	44.03
192.704	15.36
192.923	29.7
193.142	193.53
193.362	72.7
193.581	89.09
193.8	72.7
194.02	72.7
194.239	39.94
194.458	35.84
194.678	35.84
194.897	-3.07
195.116	23.55
195.335	78.85
195.555	111.61
195.774	-33.79
195.993	123.9
196.212	46.08
196.432	21.5
196.651	58.37
196.87	-56.32
197.089	244.73
197.308	82.94
197.528	130.05
197.747	68.61
197.966	58.37
198.185	115.71
198.404	-13.31
198.623	54.27
198.842	150.53
199.062	115.71
199.281	168.96
199.5	41.98
199.719	95.23
199.938	41.98
200.157	-1.02
200.376	130.05
200.595	105.47
200.814	46.08
201.033	-33.79
201.252	177.15
201.471	78.85
201.69	72.7
201.909	-7.17
202.128	154.62
202.347	111.61
202.566	13.31
202.785	-11.26
203.004	-1.02
203.223	238.59
203.442	15.36
203.661	19.46
203.879	99.33
204.098	80.89
204.317	-37.89
204.536	146.43
204.755	97.28
204.974	199.68
205.193	7.17
205.411	95.23
205.63	97.28
205.849	68.61
206.068	-44.03
206.287	-60.42
206.505	181.25
206.724	33.79
206.943	-48.13
207.162	1.02
207.381	101.37
207.599	52.22
207.818	89.09
208.037	-9.22
208.255	60.42
208.474	113.66
208.693	125.95
208.911	21.5
209.13	121.85
209.349	21.5
209.567	58.37
209.786	82.94
210.005	91.13
210.223	101.37
210.442	-52.22
210.661	35.84
210.879	84.99
211.098	115.71
211.316	17.41
211.535	13.31
211.753	62.46
211.972	87.04
212.191	-7.17
212.409	35.84
212.628	72.7
212.846	23.55
213.065	-1.02
213.283	74.75
213.502	-17.41
213.72	70.65
213.938	5.12
214.157	15.36
214.375	97.28
214.594	35.84
214.812	76.8
215.031	-41.98
215.249	23.55
215.467	117.76
215.686	70.65
215.904	142.33
216.122	39.94
216.341	185.34
216.559	68.61
216.778	171.01
216.996	134.14
217.214	31.74
217.432	3.07
217.651	15.36
217.869	74.75
218.087	91.13
218.306	80.89
218.524	11.26
218.742	80.89
218.96	113.66
219.179	37.89
219.397	33.79
219.615	300.03
219.833	64.51
220.051	15.36
220.27	80.89
220.488	87.04
220.706	29.7
220.924	31.74
221.142	-70.65
221.36	107.52
221.578	17.41
221.796	37.89
222.015	105.47
222.233	87.04
222.451	168.96
222.669	-48.13
222.887	101.37
223.105	58.37
223.323	-62.46
223.541	46.08
223.759	64.51
223.977	31.74
224.195	181.25
224.413	123.9
224.631	29.7
224.849	128
225.067	214.01
225.285	31.74
225.503	60.42
225.721	-115.71
225.939	121.85
226.157	125.95
226.375	291.84
226.592	25.6
226.81	80.89
227.028	101.37
227.246	109.57
227.464	23.55
227.682	156.67
227.9	91.13
228.117	70.65
228.335	111.61
228.553	91.13
228.771	39.94
228.989	80.89
229.206	48.13
229.424	17.41
229.642	3.07
229.86	-29.7
230.077	189.44
230.295	52.22
230.513	46.08
230.731	105.47
230.948	209.92
231.166	134.14
231.384	54.27
231.601	-99.33
231.819	312.32
232.037	29.7
232.254	15.36
232.472	17.41
232.689	37.89
232.907	146.43
233.125	35.84
233.342	23.55
233.56	56.32
233.777	15.36
233.995	44.03
234.213	173.05
234.43	72.7
234.648	64.51
234.865	-1.02
235.083	177.15
235.3	70.65
235.518	191.49
235.735	109.57
235.953	93.18
236.17	158.72
236.388	21.5
236.605	64.51
236.822	27.65
237.04	70.65
237.257	87.04
237.475	-54.27
237.692	93.18
237.909	74.75
238.127	1.02
238.344	125.95
238.562	84.99
238.779	11.26
238.996	-101.37
239.214	58.37
239.431	44.03
239.648	111.61
239.865	19.46
240.083	80.89
240.3	-44.03
240.517	3.07
240.735	-15.36
240.952	80.89
241.169	99.33
241.386	101.37
241.603	56.32
241.821	-3.07
242.038	-37.89
242.255	136.19
242.472	23.55
242.689	5.12
242.907	115.71
243.124	-9.22
243.341	50.18
243.558	9.22
243.775	-52.22
243.992	-29.7
244.209	113.66
244.426	144.38
244.643	76.8
244.86	78.85
245.078	99.33
245.295	82.94
245.512	9.22
245.729	11.26
245.946	39.94
246.163	54.27
246.38	23.55
246.597	97.28
246.814	48.13
247.031	80.89
247.248	78.85
247.464	31.74
247.681	64.51
247.898	87.04
248.115	66.56
248.332	15.36
248.549	117.76
248.766	211.96
248.983	103.42
249.2	125.95
249.417	107.52
249.633	9.22
249.85	156.67
250.067	-19.46
250.284	60.42
250.501	121.85
250.717	58.37
250.934	-21.5
251.151	-33.79
251.368	72.7
251.585	101.37
251.801	48.13
252.018	-39.94
252.235	103.42
252.451	-7.17
252.668	62.46
252.885	78.85
253.102	72.7
253.318	50.18
253.535	41.98
253.752	50.18
253.968	93.18
254.185	15.36
254.401	70.65
254.618	93.18
254.835	7.17
255.051	199.68
255.268	70.65
255.484	109.57
255.701	-39.94
255.917	27.65
256.134	13.31
256.351	25.6
256.567	-19.46
256.784	70.65
257	7.17
257.217	103.42
257.433	115.71
257.65	31.74
257.866	244.73
258.082	-19.46
258.299	-1.02
258.515	62.46
258.732	5.12
258.948	29.7
259.165	46.08
259.381	3.07
259.597	128
259.814	-7.17
260.03	-1.02
260.246	29.7
260.463	99.33
260.679	150.53
260.895	29.7
261.112	152.57
261.328	37.89
261.544	72.7
261.761	175.1
261.977	-33.79
262.193	-91.13
262.409	74.75
262.626	72.7
262.842	31.74
263.058	-21.5
263.274	177.15
263.49	146.43
263.707	111.61
263.923	185.34
264.139	13.31
264.355	35.84
264.571	84.99
264.787	89.09
265.004	183.29
265.22	13.31
265.436	13.31
265.652	-11.26
265.868	138.24
266.084	-44.03
266.3	152.57
266.516	-29.7
266.732	21.5
266.948	35.84
267.164	-50.18
267.38	138.24
267.596	123.9
267.812	166.91
268.028	52.22
268.244	99.33
268.46	105.47
268.676	5.12
268.892	105.47
269.108	103.42
269.324	-27.65
269.54	-33.79
269.756	158.72
269.972	46.08
270.188	33.79
270.403	15.36
270.619	3.07
270.835	150.53
271.051	154.62
271.267	33.79
271.483	-13.31
271.698	207.87
271.914	41.98
272.13	70.65
272.346	11.26
272.562	70.65
272.777	154.62
272.993	39.94
273.209	58.37
273.425	111.61
273.64	-27.65
273.856	111.61
274.072	9.22
274.287	7.17
274.503	80.89
274.719	105.47
274.934	-115.71
275.15	-70.65
275.366	35.84
275.581	-15.36
275.797	27.65
276.012	35.84
276.228	7.17
276.444	35.84
276.659	101.37
276.875	11.26
277.09	132.09
277.306	33.79
277.521	125.95
277.737	82.94
277.952	29.7
278.168	-13.31
278.383	56.32
278.599	17.41
278.814	54.27
279.03	-9.22
279.245	140.29
279.461	72.7
279.676	148.48
279.892	-58.37
280.107	44.03
280.322	19.46
280.538	54.27
280.753	91.13
280.969	62.46
281.184	78.85
281.399	156.67
281.615	9.22
281.83	50.18
282.045	-11.26
282.26	19.46
282.476	46.08
282.691	52.22
282.906	101.37
283.122	29.7
283.337	1.02
283.552	89.09
283.767	33.79
283.983	66.56
284.198	76.8
284.413	158.72
284.628	-25.6
284.843	58.37
285.058	78.85
285.274	29.7
285.489	-9.22
285.704	111.61
285.919	35.84
286.134	7.17
286.349	35.84
286.564	-70.65
286.779	154.62
286.995	72.7
287.21	-3.07
287.425	62.46
287.64	48.13
287.855	142.33
288.07	-74.75
288.285	142.33
288.5	66.56
288.715	138.24
288.93	48.13
289.145	37.89
289.36	56.32
289.575	9.22
289.79	132.09
290.004	-3.07
290.219	123.9
290.434	97.28
290.649	-27.65
290.864	66.56
291.079	60.42
291.294	44.03
291.509	84.99
291.724	35.84
291.938	31.74
292.153	39.94
292.368	17.41
292.583	78.85
292.798	148.48
293.012	41.98
293.227	89.09
293.442	-27.65
293.657	160.77
293.871	146.43
294.086	76.8
294.301	164.86
294.516	64.51
294.73	37.89
294.945	-5.12
295.16	-31.74
295.374	181.25
295.589	152.57
295.804	-11.26
296.018	62.46
296.233	95.23
296.447	103.42
296.662	-15.36
296.877	214.01
297.091	62.46
297.306	97.28
297.52	105.47
297.735	140.29
297.949	76.8
298.164	144.38
298.378	84.99
298.593	-70.65
298.807	17.41
299.022	41.98
299.236	125.95
299.451	19.46
299.665	39.94
299.88	-13.31
300.094	80.89
300.309	140.29
300.523	113.66
300.737	117.76
300.952	78.85
301.166	119.81
301.381	-5.12
301.595	78.85
301.809	33.79
302.024	15.36
302.238	-9.22
302.452	187.39
302.667	72.7
302.881	119.81
303.095	46.08
303.309	25.6
303.524	23.55
303.738	-9.22
303.952	68.61
304.166	70.65
304.381	-123.9
304.595	115.71
304.809	-1.02
305.023	35.84
305.237	-54.27
305.452	-21.5
305.666	33.79
305.88	84.99
306.094	80.89
306.308	33.79
306.522	148.48
306.736	97.28
306.95	117.76
307.164	-29.7
307.379	-9.22
307.593	128
307.807	123.9
308.021	84.99
308.235	46.08
308.449	13.31
308.663	-7.17
308.877	187.39
309.091	52.22
309.305	175.1
309.519	-105.47
309.733	3.07
309.947	33.79
310.161	25.6
310.374	89.09
310.588	138.24
310.802	33.79
311.016	29.7
311.23	113.66
311.444	17.41
311.658	56.32
311.872	93.18
312.085	195.58
312.299	125.95
312.513	128
312.727	1.02
312.941	-97.28
313.154	46.08
313.368	84.99
313.582	-9.22
313.796	103.42
314.009	66.56
314.223	152.57
314.437	66.56
314.651	136.19
314.864	-76.8
315.078	19.46
315.292	31.74
315.505	-33.79
315.719	93.18
315.933	115.71
316.146	72.7
316.36	48.13
316.573	138.24
316.787	134.14
317.001	125.95
317.214	13.31
317.428	33.79
317.641	-29.7
317.855	-19.46
318.068	21.5
318.282	66.56
318.495	211.96
318.709	80.89
318.922	107.52
319.136	193.53
319.349	140.29
319.563	58.37
319.776	138.24
319.99	-17.41
320.203	107.52
320.417	25.6
320.63	70.65
320.843	150.53
321.057	68.61
321.27	52.22
321.483	146.43
321.697	99.33
321.91	9.22
322.124	109.57
322.337	84.99
322.55	-52.22
322.763	-13.31
322.977	7.17
323.19	-21.5
323.403	140.29
323.617	103.42
323.83	123.9
324.043	68.61
324.256	68.61
324.469	7.17
324.683	162.81
324.896	82.94
325.109	107.52
325.322	-54.27
325.535	87.04
325.748	72.7
325.962	7.17
326.175	97.28
326.388	70.65
326.601	76.8
326.814	72.7
327.027	50.18
327.24	156.67
327.453	-27.65
327.666	132.09
327.879	130.05
328.092	107.52
328.305	142.33
328.518	44.03
328.731	17.41
328.944	-11.26
329.157	84.99
329.37	1.02
329.583	144.38
329.796	179.2
330.009	13.31
330.222	35.84
330.435	54.27
330.648	82.94
330.861	89.09
331.073	101.37
331.286	152.57
331.499	-3.07
331.712	-19.46
331.925	46.08
332.138	70.65
332.35	138.24
332.563	-1.02
332.776	93.18
332.989	70.65
333.202	31.74
333.414	113.66
333.627	9.22
333.84	54.27
334.053	123.9
334.265	62.46
334.478	-15.36
334.691	35.84
334.903	39.94
335.116	-15.36
335.329	72.7
335.541	162.81
335.754	162.81
335.966	-31.74
336.179	66.56
336.392	-5.12
336.604	39.94
336.817	171.01
337.029	205.82
337.242	-11.26
337.454	101.37
337.667	13.31
337.88	156.67
338.092	54.27
338.305	117.76
338.517	-13.31
338.729	84.99
338.942	107.52
339.154	-23.55
339.367	52.22
339.579	185.34
339.792	25.6
340.004	76.8
340.217	54.27
340.429	58.37
340.641	-44.03
340.854	15.36
341.066	56.32
341.278	125.95
341.491	164.86
341.703	5.12
341.915	15.36
342.128	179.2
342.34	48.13
342.552	-54.27
342.764	25.6
342.977	-5.12
343.189	113.66
343.401	41.98
343.613	-109.57
343.826	56.32
344.038	54.27
344.25	31.74
344.462	23.55
344.674	119.81
344.886	-13.31
345.099	76.8
345.311	80.89
345.523	21.5
345.735	-21.5
345.947	93.18
346.159	54.27
346.371	62.46
346.583	-54.27
346.795	246.78
347.007	70.65
347.219	76.8
347.431	35.84
347.643	68.61
347.855	-29.7
348.067	173.05
348.279	11.26
348.491	74.75
348.703	70.65
348.915	70.65
349.127	7.17
349.339	31.74
349.551	5.12
349.763	84.99
349.975	48.13
350.187	82.94
350.399	91.13
350.61	142.33
350.822	76.8
351.034	54.27
351.246	66.56
351.458	113.66
351.669	162.81
351.881	162.81
352.093	183.29
352.305	82.94
352.517	7.17
352.728	162.81
352.94	62.46
353.152	105.47
353.363	-117.76
353.575	138.24
353.787	123.9
353.999	64.51
354.21	134.14
354.422	-60.42
354.633	111.61
354.845	52.22
355.057	60.42
355.268	66.56
355.48	62.46
355.692	15.36
355.903	99.33
356.115	-21.5
356.326	-72.7
356.538	109.57
356.749	44.03
356.961	177.15
357.172	25.6
357.384	-17.41
357.595	277.5
357.807	25.6
358.018	-25.6
358.23	117.76
358.441	136.19
358.653	87.04
358.864	9.22
359.075	-39.94
359.287	66.56
359.498	158.72
359.709	117.76
359.921	68.61
360.132	72.7
360.344	35.84
360.555	54.27
360.766	58.37
360.977	119.81
361.189	82.94
361.4	3.07
361.611	142.33
361.823	156.67
362.034	115.71
362.245	-35.84
362.456	82.94
362.667	91.13
362.879	-105.47
363.09	-9.22
363.301	54.27
363.512	58.37
363.723	-50.18
363.935	48.13
364.146	91.13
364.357	19.46
364.568	62.46
364.779	-46.08
364.99	132.09
365.201	31.74
365.412	150.53
365.623	-50.18
365.834	84.99
366.045	17.41
366.256	48.13
366.467	64.51
366.678	52.22
366.889	62.46
367.1	-1.02
367.311	64.51
367.522	25.6
367.733	41.98
367.944	123.9
368.155	64.51
368.366	101.37
368.577	115.71
368.788	142.33
368.999	35.84
369.209	93.18
369.42	234.49
369.631	289.79
369.842	119.81
370.053	-11.26
370.264	99.33
370.474	25.6
370.685	41.98
370.896	97.28
371.107	132.09
371.317	175.1
371.528	39.94
371.739	144.38
371.95	132.09
372.16	164.86
372.371	-27.65
372.582	31.74
372.792	113.66
373.003	72.7
373.214	78.85
373.424	123.9
373.635	-39.94
373.846	58.37
374.056	-23.55
374.267	76.8
374.477	60.42
374.688	-54.27
374.898	70.65
375.109	35.84
375.319	-15.36
375.53	48.13
375.74	119.81
375.951	5.12
376.161	46.08
376.372	105.47
376.582	-19.46
376.793	82.94
377.003	95.23
377.214	23.55
377.424	152.57
377.635	33.79
377.845	1.02
378.055	128
378.266	-23.55
378.476	48.13
378.686	48.13
378.897	19.46
379.107	128
379.317	89.09
379.528	62.46
379.738	87.04
379.948	-25.6
380.158	82.94
380.369	3.07
380.579	117.76
380.789	113.66
380.999	56.32
381.21	119.81
381.42	236.54
381.63	17.41
381.84	52.22
382.05	125.95
382.261	175.1
382.471	148.48
382.681	21.5
382.891	199.68
383.101	35.84
383.311	-48.13
383.521	84.99
383.731	146.43
383.941	146.43
384.151	68.61
384.361	72.7
384.571	1.02
384.781	74.75
384.991	209.92
385.201	234.49
385.411	115.71
385.621	99.33
385.831	76.8
386.041	128
386.251	21.5
386.461	109.57
386.671	15.36
386.881	44.03
387.091	17.41
387.301	109.57
387.511	46.08
387.72	89.09
387.93	130.05
388.14	-15.36
388.35	117.76
388.56	142.33
388.769	99.33
388.979	17.41
389.189	1.02
389.399	35.84
389.609	121.85
389.818	123.9
390.028	115.71
390.238	89.09
390.447	11.26
390.657	132.09
390.867	13.31
391.076	7.17
391.286	80.89
391.496	27.65
391.705	46.08
391.915	140.29
392.125	54.27
392.334	7.17
392.544	144.38
392.753	11.26
392.963	-13.31
393.172	68.61
393.382	31.74
393.591	158.72
393.801	31.74
394.01	154.62
394.22	46.08
394.429	-3.07
394.639	31.74
394.848	99.33
395.058	123.9
395.267	11.26
395.477	89.09
395.686	82.94
395.895	222.2
396.105	197.63
396.314	80.89
396.524	62.46
396.733	1.02
396.942	107.52
397.152	140.29
397.361	87.04
397.57	44.03
397.78	105.47
397.989	166.91
398.198	199.68
398.407	17.41
398.617	31.74
398.826	15.36
399.035	74.75
399.244	164.86
399.453	82.94
399.663	35.84
399.872	80.89
400.081	-17.41
400.29	150.53
400.499	-19.46
400.708	109.57
400.917	64.51
401.127	31.74
401.336	-11.26
401.545	197.63
401.754	140.29
401.963	156.67
402.172	39.94
402.381	41.98
402.59	54.27
402.799	64.51
403.008	74.75
403.217	39.94
403.426	138.24
403.635	-74.75
403.844	70.65
404.053	25.6
404.262	39.94
404.471	166.91
404.68	64.51
404.888	-58.37
405.097	66.56
405.306	48.13
405.515	82.94
405.724	78.85
405.933	93.18
406.142	130.05
406.35	158.72
406.559	52.22
406.768	41.98
406.977	232.44
407.185	37.89
407.394	125.95
407.603	-50.18
407.812	44.03
408.02	175.1
408.229	-76.8
408.438	78.85
408.646	44.03
408.855	72.7
409.064	84.99
409.272	62.46
409.481	54.27
409.69	-27.65
409.898	-93.18
410.107	64.51
410.315	89.09
410.524	19.46
410.733	52.22
410.941	58.37
411.15	134.14
411.358	128
411.567	183.29
411.775	11.26
411.984	95.23
412.192	113.66
412.401	-56.32
412.609	209.92
412.818	193.53
413.026	89.09
413.234	72.7
413.443	23.55
413.651	46.08
413.86	97.28
414.068	70.65
414.276	115.71
414.485	5.12
414.693	160.77
414.901	218.11
415.11	39.94
415.318	52.22
415.526	87.04
415.734	123.9
415.943	78.85
416.151	150.53
416.359	46.08
416.567	125.95
416.776	91.13
416.984	140.29
417.192	160.77
417.4	27.65
417.608	5.12
417.817	-39.94
418.025	150.53
418.233	123.9
418.441	56.32
418.649	25.6
418.857	97.28
419.065	44.03
419.273	37.89
419.481	44.03
419.689	29.7
419.897	66.56
420.105	31.74
420.313	146.43
420.521	179.2
420.729	144.38
420.937	105.47
421.145	68.61
421.353	160.77
421.561	205.82
421.769	205.82
421.977	62.46
422.185	101.37
422.393	11.26
422.601	132.09
422.809	168.96
423.017	87.04
423.224	78.85
423.432	128
423.64	95.23
423.848	171.01
424.056	-11.26
424.263	80.89
424.471	93.18
424.679	195.58
424.887	-1.02
425.094	162.81
425.302	72.7
425.51	80.89
425.718	91.13
425.925	50.18
426.133	29.7
426.341	220.16
426.548	3.07
426.756	60.42
426.964	93.18
427.171	-9.22
427.379	64.51
427.586	95.23
427.794	158.72
428.001	191.49
428.209	99.33
428.417	209.92
428.624	89.09
428.832	130.05
429.039	76.8
429.247	130.05
429.454	115.71
429.662	195.58
429.869	115.71
430.076	109.57
430.284	197.63
430.491	224.25
430.699	123.9
430.906	283.64
431.114	123.9
431.321	101.37
431.528	93.18
431.736	132.09
431.943	183.29
432.15	95.23
432.358	142.33
432.565	283.64
432.772	72.7
432.979	160.77
433.187	142.33
433.394	232.44
433.601	93.18
433.808	183.29
434.016	197.63
434.223	232.44
434.43	128
434.637	265.21
434.844	201.72
435.052	211.96
435.259	279.55
435.466	304.12
435.673	238.59
435.88	314.36
436.087	338.94
436.294	416.76
436.501	349.18
436.708	261.12
436.915	324.6
437.122	336.89
437.329	220.16
437.537	267.26
437.743	326.65
437.95	474.1
438.157	351.23
438.364	355.32
438.571	295.93
438.778	396.28
438.985	410.62
439.192	506.87
439.399	367.61
439.606	463.86
439.813	367.61
440.02	543.74
440.227	592.89
440.433	416.76
440.64	451.58
440.847	459.77
441.054	613.37
441.261	631.8
441.467	635.89
441.674	443.39
441.881	701.43
442.088	605.17
442.294	633.85
442.501	695.29
442.708	740.34
442.914	746.48
443.121	850.93
443.328	721.91
443.534	791.54
443.741	758.77
443.948	672.76
444.154	846.84
444.361	984.05
444.568	889.84
444.774	881.65
444.981	881.65
445.187	1082.35
445.394	1025.01
445.6	1111.02
445.807	1154.03
446.013	1154.03
446.22	1086.45
446.426	1254.38
446.633	1326.06
446.839	1438.7
447.046	1211.37
447.252	1461.23
447.459	1510.38
447.665	1483.75
447.871	1637.35
448.078	1874.92
448.284	1659.88
448.491	1903.59
448.697	1846.24
448.903	2059.23
449.11	1967.07
449.316	1965.03
449.522	2137.06
449.728	2223.07
449.935	2317.28
450.141	2261.98
450.347	2503.64
450.553	2487.26
450.76	2458.59
450.966	2530.27
451.172	2733.01
451.378	2769.88
451.584	2730.97
451.791	3042.26
451.997	3122.13
452.203	3275.73
452.409	3251.15
452.615	3546.06
452.821	3460.04
453.027	3394.51
453.233	3924.93
453.44	3716.04
453.646	3908.55
453.852	4006.85
454.058	4299.71
454.264	4324.29
454.47	4637.63
454.676	4850.61
454.882	5041.08
455.088	4965.3
455.294	5245.87
455.5	5376.94
455.705	5890.98
455.911	5798.82
456.117	5985.19
456.323	6130.59
456.529	6325.15
456.735	6665.11
456.941	6824.86
457.147	6964.12
457.352	7332.75
457.558	7627.66
457.764	8049.54
457.97	8184.71
458.176	8645.5
458.381	9005.94
458.587	9143.16
458.793	9618.29
458.999	9638.76
459.204	10974.04
459.41	11129.69
459.616	10992.47
459.821	11782.99
460.027	12272.45
460.233	12749.63
460.438	12796.73
460.644	13513.52
460.85	13499.19
461.055	14156.58
461.261	14967.58
461.466	14613.28
461.672	14697.25
461.878	16741.12
462.083	16407.3
462.289	16622.34
462.494	17564.4
462.7	17543.92
462.905	17830.64
463.111	19321.56
463.316	20120.27
463.522	20640.45
463.727	20945.6
463.932	22067.89
464.138	22674.09
464.343	23753.37
464.549	23650.97
464.754	25436.8
464.959	26157.68
465.165	26495.6
465.37	26387.05
465.575	26530.41
465.781	28068.44
465.986	28949.06
466.191	28394.06
466.397	28887.62
466.602	28265.04
466.807	29921.85
467.012	30257.71
467.218	30448.18
467.423	31056.42
467.628	31629.85
467.833	33184.26
468.038	32442.9
468.244	32211.48
468.449	34040.31
468.654	33425.92
468.859	32858.63
469.064	32895.5
469.269	32305.68
469.474	32297.49
469.679	33616.38
469.885	32451.09
470.09	32938.51
470.295	33200.65
470.5	32666.13
470.705	32430.61
470.91	31484.45
471.115	31533.6
471.32	31967.77
471.525	31740.44
471.73	30790.19
471.935	30460.46
472.139	29200.96
472.344	29516.35
472.549	29420.1
472.754	28518.99
472.959	27984.47
473.164	27234.91
473.369	26741.35
473.574	27419.23
473.778	26966.63
473.983	26374.77
474.188	26237.55
474.393	24863.36
474.598	24644.23
474.802	23888.53
475.007	23673.49
475.212	23900.82
475.417	22794.92
475.621	22463.15
475.826	22321.84
476.031	21473.98
476.235	21078.72
476.44	21349.05
476.645	20912.83
476.849	20382.41
477.054	20226.76
477.259	19464.92
477.463	19456.73
477.668	19139.29
477.872	18846.43
478.077	18635.49
478.282	18174.7
478.486	17701.62
478.691	17636.08
478.895	17267.45
479.1	17529.59
479.304	17224.44
479.509	16311.05
479.713	16974.59
479.918	16395.01
480.122	16020.24
480.326	16253.7
480.531	16378.63
480.735	15801.1
480.94	15784.72
481.144	16362.25
481.348	15532.82
481.553	15383.32
481.757	14715.68
481.961	15162.14
482.166	15448.85
482.37	14975.77
482.574	14797.6
482.778	14758.69
482.983	15170.33
483.187	14611.23
483.391	14732.06
483.595	14531.36
483.8	14132.01
484.004	14152.49
484.208	14226.21
484.412	13828.91
484.616	13714.22
484.821	13663.02
485.025	13247.29
485.229	13206.33
485.433	13175.61
485.637	12903.23
485.841	12747.58
486.045	12591.94
486.249	12569.41
486.453	12165.96
486.657	12090.18
486.861	11973.45
487.065	11531.09
487.269	11354.96
487.473	11008.86
487.677	11152.21
487.881	11303.76
488.085	10779.48
488.289	10713.95
488.493	10367.84
488.697	10455.9
488.901	10097.51
489.105	9841.51
489.309	9798.51
489.512	9653.1
489.716	9466.74
489.92	9251.7
490.124	9051
490.328	9112.44
490.531	8698.75
490.735	8557.44
490.939	8407.94
491.143	8188.8
491.346	7959.43
491.55	7998.34
491.754	7764.87
491.958	7719.82
492.161	7502.73
492.365	7723.91
492.569	7078.8
492.772	7134.1
492.976	7322.51
493.18	6966.17
493.383	6888.34
493.587	6765.46
493.79	6732.7
493.994	6513.56
494.197	6572.96
494.401	6376.35
494.605	6280.1
494.808	6378.4
495.012	6292.38
495.215	6253.47
495.419	6265.76
495.622	6011.81
495.825	6009.76
496.029	5833.64
496.232	5938.09
496.436	6015.91
496.639	6232.99
496.843	6026.15
497.046	5856.17
497.249	5991.33
497.453	5893.03
497.656	5878.69
497.859	5944.23
498.063	5747.62
498.266	5985.19
498.469	5884.84
498.673	5821.35
498.876	5983.14
499.079	5854.12
499.282	5813.16
499.485	6093.73
499.689	6026.15
499.892	6097.83
500.095	5858.21
500.298	6128.55
500.501	5993.38
500.705	6024.1
500.908	6159.27
501.111	6120.35
501.314	6255.52
501.517	6280.1
501.72	6251.42
501.923	6396.83
502.126	6372.25
502.329	6427.55
502.532	6622.11
502.735	6568.86
502.938	6726.55
503.141	6738.84
503.344	6695.83
503.547	6900.63
503.75	6878.1
503.953	6945.69
504.156	7007.13
504.359	7205.78
504.562	7250.83
504.765	7299.98
504.968	7474.06
505.17	7562.12
505.373	7703.43
505.576	7959.43
505.779	7879.56
505.982	8002.44
506.185	8137.6
506.387	8190.85
506.59	8373.12
506.793	8348.54
506.996	8493.95
507.198	9071.48
507.401	8950.65
507.604	9007.99
507.807	9306.99
508.009	9376.62
508.212	9730.92
508.415	9704.3
508.617	10091.37
508.82	10097.51
509.022	10220.39
509.225	10580.83
509.428	10851.16
509.63	10918.75
509.833	10986.33
510.035	11731.79
510.238	11621.2
510.44	11635.53
510.643	12204.87
510.845	12407.62
511.048	12575.55
511.25	12841.79
511.453	13165.37
511.655	13740.85
511.858	13906.73
512.06	14299.94
512.262	14357.28
512.465	14498.59
512.667	15092.51
512.87	15235.86
513.072	15739.66
513.274	16120.59
513.477	16573.19
513.679	16771.84
513.881	17054.46
514.084	17640.18
514.286	17904.37
514.488	18227.95
514.69	19116.76
514.893	19114.72
515.095	19561.17
515.297	20003.53
515.499	20304.59
515.701	21021.38
515.904	21256.89
516.106	21897.91
516.308	22571.69
516.51	22583.98
516.712	22850.21
516.914	23450.27
517.116	24052.37
517.318	24150.67
517.52	24967.81
517.722	25047.68
517.925	25733.75
518.127	26274.42
518.329	26780.26
518.531	26638.95
518.733	28078.68
518.935	28394.06
519.136	28791.37
519.338	29182.53
519.54	30155.32
519.742	30356.02
519.944	30517.81
520.146	31322.66
520.348	31443.49
520.55	32008.73
520.752	32203.28
520.954	32631.31
521.155	33141.25
521.357	33413.63
521.559	34036.22
521.761	34834.92
521.963	34497.01
522.164	35138.02
522.366	35381.73
522.568	35951.07
522.77	36139.48
522.971	36676.05
523.173	36563.41
523.375	36870.61
523.576	37290.44
523.778	37018.06
523.98	38021.56
524.181	38277.56
524.383	38046.14
524.584	38244.79
524.786	38285.75
524.988	37642.69
525.189	38740.4
525.391	38625.71
525.592	38551.99
525.794	38830.51
525.995	38891.95
526.197	38480.31
526.398	38912.43
526.6	38896.05
526.801	38744.5
527.003	38689.2
527.204	38459.83
527.406	38508.98
527.607	38224.31
527.808	38179.26
528.01	37835.2
528.211	37675.46
528.412	37878.21
528.614	37448.13
528.815	37593.54
529.016	37605.83
529.218	36760.02
529.419	36561.36
529.62	36184.54
529.822	35930.59
530.023	35873.24
530.224	35234.28
530.425	35019.24
530.626	34691.57
530.828	34144.76
531.029	34724.33
531.23	33821.18
531.431	33235.46
531.632	33233.41
531.833	32469.52
532.035	32334.35
532.236	31894.04
532.437	31935
532.638	31121.96
532.839	30734.89
533.04	30665.26
533.241	29612.6
533.442	30093.88
533.643	29379.14
533.844	28875.34
534.045	28750.41
534.246	28359.25
534.447	28035.67
534.648	27386.46
534.849	27402.85
535.05	26321.52
535.251	26608.23
535.451	25965.17
535.652	25934.45
535.853	25764.47
536.054	25256.57
536.255	24824.45
536.456	24236.69
536.657	24484.49
536.857	23720.6
537.058	23366.3
537.259	23331.48
537.46	22995.62
537.66	22594.22
537.861	22481.58
538.062	22131.37
538.263	21807.8
538.463	21586.61
538.664	21203.64
538.865	20992.7
539.065	21041.85
539.266	20443.85
539.466	20462.28
539.667	19923.66
539.868	19804.88
540.068	19860.18
540.269	19337.94
540.469	19233.5
540.67	18658.02
540.87	18830.05
541.071	18490.09
541.271	18180.84
541.472	18160.36
541.672	17531.64
541.873	17505.01
542.073	17228.54
542.274	17060.6
542.474	17056.51
542.675	16669.44
542.875	16612.1
543.075	16478.98
543.276	16079.63
543.476	16323.33
543.676	15837.97
543.877	15649.55
544.077	15631.12
544.277	15315.73
544.478	15094.55
544.678	14981.92
544.878	14785.31
545.078	14586.66
545.279	14222.12
545.479	14191.4
545.679	14308.13
545.879	14109.48
546.079	13968.17
546.28	13605.68
546.48	13513.52
546.68	13542.19
546.88	13308.72
547.08	13112.12
547.28	13075.26
547.48	12794.68
547.68	12571.46
547.88	12323.65
548.081	12510.02
548.281	12008.26
548.481	11805.52
548.681	11928.39
548.881	11531.09
549.081	11494.22
549.28	11469.65
549.48	11332.44
549.68	11191.13
549.88	11141.97
550.08	10859.35
550.28	10560.35
550.48	10697.56
550.68	10386.27
550.88	10238.82
551.08	10074.98
551.279	10062.69
551.479	9671.53
551.679	9722.73
551.879	9411.44
552.079	9384.82
552.278	9356.15
552.478	9259.89
552.678	9030.52
552.878	8809.34
553.077	8649.6
553.277	8526.72
553.477	8287.11
553.676	8584.06
553.876	8264.58
554.076	8049.54
554.275	7771.02
554.475	7668.62
554.674	7764.87
554.874	7492.49
555.074	7525.26
555.273	7351.18
555.473	7353.23
555.672	6931.35
555.872	7027.6
556.071	6865.82
556.271	7068.56
556.47	6515.61
556.67	6429.6
556.869	6493.08
557.068	6163.36
557.268	6286.24
557.467	6020
557.667	6101.92
557.866	5925.8
558.065	5721
558.265	5825.45
558.464	5733.29
558.663	5663.66
558.863	5516.2
559.062	5514.16
559.261	5319.6
559.461	5258.16
559.66	4993.97
559.859	4934.58
560.058	4977.59
560.258	4746.17
560.457	4694.97
560.656	4877.24
560.855	4658.1
561.054	4803.51
561.253	4557.75
561.453	4363.2
561.652	4492.22
561.851	4383.68
562.05	4283.33
562.249	4041.67
562.448	4275.13
562.647	3959.75
562.846	3947.46
563.045	4070.34
563.244	3881.92
563.443	3955.65
563.642	3673.03
563.841	3695.56
564.04	3703.75
564.239	3554.25
564.438	3548.11
564.637	3435.47
564.836	3417.04
565.035	3419.08
565.234	3318.73
565.432	3290.06
565.631	3306.45
565.83	3165.14
566.029	3070.93
566.228	3120.08
566.427	3115.98
566.625	2890.71
566.824	2911.19
567.023	2937.81
567.222	2825.17
567.42	2835.41
567.619	2827.22
567.818	2636.76
568.016	2925.52
568.215	2696.15
568.414	2628.57
568.612	2626.52
568.811	2491.35
569.01	2499.55
569.208	2354.14
569.407	2593.75
569.605	2548.7
569.804	2292.7
570.002	2333.66
570.201	2331.61
570.4	2231.26
570.598	2255.84
570.797	2221.02
570.995	2094.05
571.193	2116.58
571.392	2089.95
571.59	2010.08
571.789	2108.38
571.987	2057.18
572.186	2196.45
572.384	1764.33
572.582	1858.53
572.781	1917.92
572.979	1729.51
573.177	1766.37
573.376	1709.03
573.574	1788.9
573.772	1692.65
573.971	1672.17
574.169	1618.92
574.367	1741.8
574.565	1604.58
574.763	1610.73
574.962	1641.45
575.16	1526.76
575.358	1530.86
575.556	1514.47
575.754	1510.38
575.952	1432.55
576.151	1526.76
576.349	1457.13
576.547	1289.2
576.745	1401.83
576.943	1299.44
577.141	1360.88
577.339	1219.57
577.537	1295.34
577.735	1254.38
577.933	1321.96
578.131	1199.09
578.329	1362.92
578.527	1117.17
578.725	1172.46
578.923	982
579.121	1274.86
579.319	1010.67
579.516	1033.2
579.714	1233.9
579.912	1100.78
580.11	938.99
580.308	953.33
580.506	1029.1
580.704	953.33
580.901	904.18
581.099	1084.4
581.297	959.47
581.495	961.52
581.692	865.27
581.89	945.14
582.088	959.47
582.285	885.75
582.483	865.27
582.681	848.88
582.878	859.12
583.076	758.77
583.274	832.5
583.471	975.86
583.669	840.69
583.866	611.32
584.064	654.33
584.262	758.77
584.459	691.19
584.657	789.49
584.854	795.64
585.052	736.24
585.249	738.29
585.447	773.11
585.644	674.81
585.841	732.15
586.039	764.92
586.236	793.59
586.434	683
586.631	558.07
586.828	517.11
587.026	609.27
587.223	531.45
587.42	562.17
587.618	621.56
587.815	685.05
588.012	566.26
588.21	586.74
588.407	596.98
588.604	582.65
588.801	553.98
588.999	500.73
589.196	707.57
589.393	529.4
589.59	531.45
589.787	560.12
589.984	470.01
590.182	506.87
590.379	455.67
590.576	545.78
590.773	574.46
590.97	482.3
591.167	605.17
591.364	531.45
591.561	506.87
591.758	697.33
591.955	556.02
592.152	445.43
592.349	398.33
592.546	498.68
592.743	449.53
592.94	558.07
593.137	549.88
593.334	623.61
593.531	576.5
593.727	580.6
593.924	556.02
594.121	537.59
594.318	535.54
594.515	523.26
594.712	605.17
594.908	539.64
595.105	500.73
595.302	609.27
595.499	629.75
595.696	734.2
595.892	504.82
596.089	703.48
596.286	535.54
596.482	666.61
596.679	670.71
596.876	592.89
597.072	685.05
597.269	658.42
597.466	625.65
597.662	707.57
597.859	654.33
598.055	738.29
598.252	846.84
598.448	838.64
598.645	963.57
598.841	852.98
599.038	971.76
599.234	1041.39
599.431	1051.63
599.627	953.33
599.824	1092.59
600.02	1074.16
600.217	1006.58
600.413	1133.55
600.609	1199.09
600.806	1477.61
601.002	1364.97
601.198	1326.06
601.395	1412.07
601.591	1440.75
601.787	1448.94
601.984	1524.71
602.18	1684.45
602.376	1606.63
602.572	1795.04
602.769	1821.67
602.965	1856.48
603.161	1985.51
603.357	2030.56
603.553	2149.34
603.75	2071.52
603.946	2116.58
604.142	2188.25
604.338	2388.96
604.534	2350.04
604.73	2507.74
604.926	2503.64
605.122	2747.35
605.318	2644.95
605.514	2823.12
605.71	2986.96
605.906	2980.82
606.102	2958.29
606.298	3226.57
606.494	3290.06
606.69	3509.19
606.886	3470.28
607.082	3580.87
607.278	3640.26
607.474	3687.37
607.67	3922.88
607.866	3638.22
608.062	3976.13
608.257	4213.7
608.453	4238.27
608.649	4369.34
608.845	4428.73
609.041	4414.4
609.236	4766.65
609.432	4780.98
609.628	4977.59
609.824	5186.48
610.019	5082.03
610.215	5301.17
610.411	5575.59
610.606	5741.48
610.802	5727.14
610.998	6005.67
611.193	6132.64
611.389	6232.99
611.584	6450.08
611.78	6523.8
611.976	6628.25
612.171	7103.38
612.367	7130
612.562	7283.6
612.758	7461.77
612.953	7547.79
613.149	7756.68
613.344	7904.14
613.539	8256.39
613.735	8461.18
613.93	8696.7
614.126	8731.51
614.321	9446.26
614.517	9503.6
614.712	9626.48
614.907	9902.95
615.103	10312.55
615.298	10120.04
615.493	10582.88
615.688	10761.05
615.884	11373.39
616.079	11266.9
616.274	11772.75
616.47	12020.55
616.665	12155.72
616.86	12575.55
617.055	12712.77
617.25	13105.98
617.445	13550.39
617.641	13613.87
617.836	14560.03
618.031	14254.89
618.226	14856.99
618.421	15155.99
618.616	15721.23
618.811	15821.58
619.006	16366.34
619.201	16552.71
619.396	17253.11
619.591	17101.56
619.786	17767.15
619.981	18121.45
620.176	18610.92
620.371	18858.72
620.566	19450.58
620.761	19632.85
620.956	20202.19
621.151	20132.56
621.346	20843.2
621.541	21080.77
621.735	21867.19
621.93	21703.35
622.125	22418.09
622.32	22454.95
622.515	23124.64
622.709	23644.82
622.904	24138.38
623.099	24203.92
623.294	25105.02
623.488	25377.4
623.683	25856.63
623.878	25985.65
624.072	26704.49
624.267	26958.44
624.462	27349.6
624.656	27310.69
624.851	28136.02
625.046	28449.36
625.24	29143.62
625.435	29000.26
625.629	29811.26
625.824	30067.25
626.018	30462.51
626.213	30575.15
626.407	31130.15
626.602	31232.55
626.796	31961.62
626.991	32549.39
627.185	32387.6
627.38	32418.32
627.574	32805.39
627.768	32868.87
627.963	33008.14
628.157	33210.89
628.352	33243.65
628.546	32938.51
628.74	33636.86
628.935	33274.37
629.129	33571.33
629.323	32809.48
629.517	32881.16
629.712	32731.66
629.906	32514.58
630.1	31668.76
630.294	31857.18
630.489	31345.19
630.683	31398.43
630.877	30630.44
631.071	30204.47
631.265	29655.61
631.459	29299.26
631.653	28334.67
631.848	27744.86
632.042	27212.38
632.236	26393.2
632.43	25678.46
632.624	25064.07
632.818	24236.69
633.012	23698.07
633.206	22981.28
633.4	22268.59
633.594	21275.32
633.788	21117.63
633.982	20163.28
634.176	19624.66
634.369	18670.31
634.563	17969.9
634.757	17140.47
634.951	16636.67
635.145	16413.45
635.339	15457.04
635.533	14756.64
635.726	14304.04
635.92	13568.82
636.114	12948.28
636.308	12493.63
636.501	12077.9
636.695	11594.58
636.889	11154.26
637.083	10527.58
637.276	9960.3
637.47	9556.85
637.664	9259.89
637.857	9038.71
638.051	8539.01
638.244	8452.99
638.438	7912.33
638.632	7865.22
638.825	7281.55
639.019	7263.12
639.212	6798.23
639.406	6605.72
639.599	6228.9
639.793	5944.23
639.986	5663.66
640.18	5573.55
640.373	5315.5
640.567	5055.41
640.76	4989.88
640.954	4680.63
641.147	4502.46
641.34	4318.14
641.534	4148.16
641.727	4209.6
641.92	3937.22
642.114	3855.3
642.307	3638.22
642.5	3589.07
642.694	3437.52
642.887	3226.57
643.08	3265.49
643.273	3001.3
643.467	2851.8
643.66	2773.97
643.853	2599.9
644.046	2538.46
644.239	2411.48
644.432	2259.93
644.626	2233.31
644.819	2124.77
645.012	2218.97
645.205	2122.72
645.398	1995.75
645.591	1956.83
645.784	1713.13
645.977	1764.33
646.17	1567.72
646.363	1670.12
646.556	1498.09
646.749	1375.21
646.942	1389.55
647.135	1393.64
647.328	1319.92
647.521	1242.09
647.714	1276.91
647.907	1248.24
648.099	1096.69
648.292	1119.21
648.485	1113.07
648.678	1049.58
648.871	912.37
649.064	986.1
649.256	830.45
649.449	893.94
649.642	709.62
649.835	846.84
650.027	807.92
650.22	822.26
650.413	795.64
650.605	728.05
650.798	654.33
650.991	588.79
651.183	592.89
651.376	648.18
651.568	627.7
651.761	558.07
651.954	683
652.146	553.98
652.339	642.04
652.531	611.32
652.724	470.01
652.916	494.58
653.109	424.95
653.301	570.36
653.494	574.46
653.686	429.05
653.879	576.5
654.071	422.91
654.263	302.08
654.456	400.38
654.648	496.63
654.84	474.1
655.033	320.51
655.225	496.63
655.417	222.2
655.61	437.24
655.802	332.79
655.994	457.72
656.186	300.03
656.379	343.03
656.571	271.36
656.763	271.36
656.955	236.54
657.148	279.55
657.34	416.76
657.532	287.74
657.724	220.16
657.916	349.18
658.108	353.27
658.3	250.88
658.492	363.51
658.684	205.82
658.876	357.37
659.068	183.29
659.26	134.14
659.452	195.58
659.644	195.58
659.836	291.84
660.028	236.54
660.22	175.1
660.412	250.88
660.604	166.91
660.796	193.53
660.988	302.08
661.18	234.49
661.372	234.49
661.563	191.49
661.755	257.02
661.947	82.94
662.139	168.96
662.331	156.67
662.522	179.2
662.714	119.81
662.906	130.05
663.097	234.49
663.289	109.57
663.481	99.33
663.673	160.77
663.864	99.33
664.056	134.14
664.247	171.01
664.439	226.3
664.631	195.58
664.822	183.29
665.014	105.47
665.205	99.33
665.397	160.77
665.588	189.44
665.78	164.86
665.971	230.4
666.163	50.18
666.354	211.96
666.546	52.22
666.737	74.75
666.929	103.42
667.12	56.32
667.311	254.97
667.503	113.66
667.694	168.96
667.885	183.29
668.077	158.72
668.268	-1.02
668.459	105.47
668.651	128
668.842	173.05
669.033	119.81
669.224	107.52
669.416	252.92
669.607	23.55
669.798	41.98
669.989	201.72
670.18	125.95
670.371	144.38
670.563	136.19
670.754	158.72
670.945	156.67
671.136	148.48
671.327	144.38
671.518	224.25
671.709	199.68
671.9	179.2
672.091	226.3
672.282	132.09
672.473	164.86
672.664	136.19
672.855	109.57
673.046	203.77
673.237	209.92
673.428	175.1
673.619	164.86
673.809	154.62
674	185.34
674.191	218.11
674.382	128
674.573	201.72
674.764	146.43
674.954	275.45
675.145	87.04
675.336	89.09
675.527	91.13
675.717	130.05
675.908	152.57
676.099	146.43
676.289	164.86
676.48	87.04
676.671	164.86
676.861	148.48
677.052	201.72
677.243	123.9
677.433	132.09
677.624	199.68
677.814	181.25
678.005	140.29
678.195	281.6
678.386	52.22
678.576	171.01
678.767	125.95
678.957	216.06
679.148	214.01
679.338	285.69
679.529	216.06
679.719	207.87
679.909	207.87
680.1	240.64
680.29	252.92
680.481	115.71
680.671	265.21
680.861	279.55
681.052	189.44
681.242	134.14
681.432	351.23
681.622	150.53
681.813	97.28
682.003	175.1
682.193	109.57
682.383	236.54
682.573	185.34
682.764	166.91
682.954	216.06
683.144	287.74
683.334	203.77
683.524	216.06
683.714	166.91
683.904	214.01
684.094	181.25
684.284	166.91
684.474	363.51
684.664	289.79
684.854	310.27
685.044	187.39
685.234	193.53
685.424	230.4
685.614	193.53
685.804	312.32
685.994	218.11
686.184	261.12
686.374	205.82
686.564	205.82
686.753	199.68
686.943	125.95
687.133	201.72
687.323	224.25
687.513	216.06
687.702	283.64
687.892	179.2
688.082	314.36
688.272	222.2
688.461	216.06
688.651	326.65
688.841	244.73
689.03	246.78
689.22	197.63
689.41	267.26
689.599	267.26
689.789	166.91
689.979	304.12
690.168	168.96
690.358	332.79
690.547	173.05
690.737	248.83
690.926	236.54
691.116	232.44
691.305	295.93
691.495	216.06
691.684	181.25
691.874	158.72
692.063	246.78
692.252	334.84
692.442	267.26
692.631	156.67
692.82	203.77
693.01	183.29
693.199	216.06
693.388	279.55
693.578	191.49
693.767	314.36
693.956	242.68
694.146	191.49
694.335	283.64
694.524	156.67
694.713	300.03
694.902	171.01
695.092	171.01
695.281	228.35
695.47	179.2
695.659	168.96
695.848	259.07
696.037	101.37
696.226	273.4
696.415	234.49
696.604	150.53
696.793	220.16
696.982	136.19
697.171	340.99
697.36	148.48
697.549	197.63
697.738	44.03
697.927	160.77
698.116	101.37
698.305	320.51
698.494	250.88
698.683	197.63
698.872	236.54
699.061	193.53
699.25	199.68
699.438	207.87
699.627	207.87
699.816	359.42
700.005	154.62
700.193	279.55
700.382	242.68
700.571	195.58
700.76	128
700.948	263.16
701.137	207.87
701.326	209.92
701.514	132.09
701.703	218.11
701.892	222.2
702.08	302.08
702.269	91.13
702.457	132.09
702.646	216.06
702.834	189.44
703.023	293.88
703.212	218.11
703.4	197.63
703.589	121.85
703.777	128
703.965	166.91
704.154	152.57
704.342	164.86
704.531	218.11
704.719	234.49
704.907	261.12
705.096	130.05
705.284	52.22
705.472	232.44
705.661	205.82
705.849	304.12
706.037	310.27
706.226	252.92
706.414	156.67
706.602	142.33
706.79	214.01
706.979	183.29
707.167	146.43
707.355	105.47
707.543	166.91
707.731	197.63
707.919	205.82
708.107	257.02
708.296	183.29
708.484	207.87
708.672	187.39
708.86	236.54
709.048	205.82
709.236	175.1
709.424	244.73
709.612	207.87
709.8	121.85
709.988	183.29
710.176	224.25
710.364	236.54
710.551	181.25
710.739	224.25
710.927	148.48
711.115	252.92
711.303	244.73
711.491	273.4
711.679	162.81
711.866	209.92
712.054	197.63
712.242	246.78
712.43	336.89
712.617	271.36
712.805	252.92
712.993	203.77
713.181	72.7
713.368	166.91
713.556	224.25
713.744	142.33
713.931	433.15
714.119	248.83
714.306	197.63
714.494	216.06
714.682	181.25
714.869	70.65
715.057	171.01
715.244	128
715.432	171.01
715.619	166.91
715.807	207.87
715.994	230.4
716.182	175.1
716.369	201.72
716.556	297.98
716.744	97.28
716.931	117.76
717.119	244.73
717.306	254.97
717.493	134.14
717.681	179.2
717.868	183.29
718.055	271.36
718.242	166.91
718.43	211.96
718.617	222.2
718.804	289.79
718.991	320.51
719.179	273.4
719.366	283.64
719.553	295.93
719.74	205.82
719.927	201.72
720.114	236.54
720.301	144.38
720.488	134.14
720.676	191.49
720.863	201.72
721.05	365.56
721.237	267.26
721.424	267.26
721.611	267.26
721.798	158.72
721.985	254.97
722.172	218.11
722.358	226.3
722.545	332.79
722.732	254.97
722.919	297.98
723.106	203.77
723.293	189.44
723.48	244.73
723.667	160.77
723.853	351.23
724.04	246.78
724.227	281.6
724.414	232.44
724.6	349.18
724.787	414.71
724.974	402.43
725.161	281.6
725.347	152.57
725.534	312.32
725.72	193.53
725.907	351.23
726.094	244.73
726.28	306.17
726.467	277.5
726.653	175.1
726.84	271.36
727.027	396.28
727.213	218.11
727.4	263.16
727.586	318.46
727.773	336.89
727.959	310.27
728.145	265.21
728.332	322.56
728.518	205.82
728.705	388.09
728.891	224.25
729.077	310.27
729.264	269.31
729.45	201.72
729.636	211.96
729.823	312.32
730.009	383.99
730.195	308.22
730.382	312.32
730.568	191.49
730.754	259.07
730.94	193.53
731.126	355.32
731.313	246.78
731.499	173.05
731.685	340.99
731.871	310.27
732.057	275.45
732.243	383.99
732.429	355.32
732.615	361.47
732.801	257.02
732.987	257.02
733.173	343.03
733.359	203.77
733.545	322.56
733.731	297.98
733.917	363.51
734.103	322.56
734.289	330.75
734.475	199.68
734.661	439.29
734.847	324.6
735.033	293.88
735.219	287.74
735.404	320.51
735.59	183.29
735.776	279.55
735.962	295.93
736.148	328.7
736.333	424.95
736.519	295.93
736.705	338.94
736.89	300.03
737.076	361.47
737.262	265.21
737.447	283.64
737.633	242.68
737.819	293.88
738.004	355.32
738.19	289.79
738.375	379.9
738.561	306.17
738.747	277.5
738.932	236.54
739.118	392.19
739.303	420.86
739.489	336.89
739.674	318.46
739.859	281.6
740.045	412.67
740.23	308.22
740.416	197.63
740.601	238.59
740.786	300.03
740.972	271.36
741.157	248.83
741.342	261.12
741.528	207.87
741.713	424.95
741.898	283.64
742.084	338.94
742.269	263.16
742.454	396.28
742.639	404.47
742.824	314.36
743.01	392.19
743.195	371.71
743.38	214.01
743.565	330.75
743.75	347.13
743.935	330.75
744.12	326.65
744.305	230.4
744.49	158.72
744.675	281.6
744.86	228.35
745.045	373.75
745.23	287.74
745.415	224.25
745.6	402.43
745.785	179.2
745.97	437.24
746.155	412.67
746.34	334.84
746.525	316.41
746.71	416.76
746.895	228.35
747.079	222.2
747.264	211.96
747.449	285.69
747.634	326.65
747.819	300.03
748.003	279.55
748.188	207.87
748.373	310.27
748.557	310.27
748.742	310.27
748.927	254.97
749.111	222.2
749.296	263.16
749.481	302.08
749.665	285.69
749.85	242.68
750.034	265.21
750.219	246.78
750.404	232.44
750.588	183.29
750.773	214.01
750.957	275.45
751.141	293.88
751.326	287.74
751.51	201.72
751.695	199.68
751.879	242.68
752.064	295.93
752.248	244.73
752.432	361.47
752.617	273.4
752.801	254.97
752.985	269.31
753.17	291.84
753.354	224.25
753.538	230.4
753.722	121.85
753.907	187.39
754.091	209.92
754.275	275.45
754.459	101.37
754.643	244.73
754.828	261.12
755.012	238.59
755.196	140.29
755.38	197.63
755.564	136.19
755.748	261.12
755.932	187.39
756.116	259.07
756.3	238.59
756.484	140.29
756.668	285.69
756.852	164.86
757.036	224.25
757.22	209.92
757.404	156.67
757.588	164.86
757.772	232.44
757.956	154.62
758.14	320.51
758.323	216.06
758.507	236.54
758.691	146.43
758.875	216.06
759.059	263.16
759.242	183.29
759.426	191.49
759.61	224.25
759.794	107.52
759.977	252.92
760.161	394.23
760.345	211.96
760.528	222.2
760.712	195.58
760.895	199.68
761.079	144.38
761.263	46.08
761.446	117.76
761.63	175.1
761.813	322.56
761.997	123.9
762.18	111.61
762.364	205.82
762.547	111.61
762.731	128
762.914	154.62
763.098	121.85
763.281	156.67
763.464	138.24
763.648	173.05
763.831	142.33
764.015	121.85
764.198	199.68
764.381	226.3
764.564	179.2
764.748	211.96
764.931	158.72
765.114	111.61
765.297	175.1
765.481	60.42
765.664	84.99
765.847	58.37
766.03	244.73
766.213	97.28
766.397	173.05
766.58	11.26
766.763	80.89
766.946	128
767.129	93.18
767.312	105.47
767.495	123.9
767.678	113.66
767.861	173.05
768.044	136.19
768.227	66.56
768.41	134.14
768.593	76.8
768.776	115.71
768.959	113.66
769.142	158.72
769.324	99.33
769.507	166.91
769.69	15.36
769.873	119.81
770.056	224.25
770.239	123.9
770.421	152.57
770.604	152.57
770.787	138.24
770.97	173.05
771.152	72.7
771.335	160.77
771.518	93.18
771.7	236.54
771.883	216.06
772.066	13.31
772.248	173.05
772.431	171.01
772.613	187.39
772.796	46.08
772.978	95.23
773.161	228.35
773.343	87.04
773.526	60.42
773.708	-60.42
773.891	-19.46
774.073	107.52
774.256	93.18
774.438	211.96
774.621	93.18
774.803	130.05
774.985	58.37
775.168	166.91
775.35	64.51
775.532	107.52
775.715	-5.12
775.897	109.57
776.079	64.51
776.261	142.33
776.444	87.04
776.626	66.56
776.808	87.04
776.99	52.22
777.173	162.81
777.355	56.32
777.537	134.14
777.719	97.28
777.901	74.75
778.083	31.74
778.265	-5.12
778.447	134.14
778.629	35.84
778.811	107.52
778.993	140.29
779.175	187.39
779.357	119.81
779.539	17.41
779.721	48.13
779.903	95.23
780.085	41.98
780.267	105.47
780.449	109.57
780.631	160.77
780.812	183.29
780.994	121.85
781.176	58.37
781.358	52.22
781.54	117.76
781.721	97.28
781.903	109.57
782.085	60.42
782.267	125.95
782.448	39.94
782.63	15.36
782.812	33.79
782.993	160.77
783.175	99.33
783.357	72.7
783.538	89.09
783.72	-9.22
783.901	-1.02
784.083	93.18
784.264	91.13
784.446	-13.31
784.627	64.51
784.809	162.81
784.99	66.56
785.172	156.67
785.353	64.51
785.535	93.18
785.716	-25.6
785.897	29.7
786.079	35.84
786.26	84.99
786.441	66.56
786.623	-15.36
786.804	41.98
786.985	99.33
787.167	97.28
787.348	23.55
787.529	78.85
787.71	166.91
787.891	132.09
788.073	52.22
788.254	-64.51
788.435	148.48
788.616	62.46
788.797	-7.17
788.978	25.6
789.159	64.51
789.34	58.37
789.522	29.7
789.703	27.65
789.884	27.65
790.065	132.09
790.246	240.64
790.427	103.42
790.607	113.66
790.788	173.05
790.969	1.02
791.15	171.01
791.331	-17.41
791.512	46.08
791.693	33.79
791.874	-62.46
792.054	220.16
792.235	134.14
792.416	-25.6
792.597	-56.32
792.778	87.04
792.958	60.42
793.139	64.51
793.32	95.23
793.5	-46.08
793.681	171.01
793.862	58.37
794.042	-15.36
794.223	-39.94
794.404	44.03
794.584	-46.08
794.765	-13.31
794.945	46.08
795.126	117.76
795.306	113.66
795.487	-37.89
795.667	-11.26
795.848	154.62
796.028	3.07
796.209	72.7
796.389	64.51
796.57	29.7
796.75	41.98
796.93	3.07
797.111	-15.36
797.291	68.61
797.471	33.79
797.652	62.46
797.832	54.27
798.012	113.66
798.192	11.26
798.373	39.94
798.553	48.13
798.733	37.89
798.913	-31.74
799.093	25.6
799.274	48.13
799.454	113.66
799.634	171.01
799.814	17.41
799.994	44.03
800.174	48.13
800.354	68.61
800.534	-37.89
800.714	93.18
800.894	-58.37
801.074	-5.12
801.254	-70.65
801.434	146.43
801.614	-17.41
801.794	25.6
801.974	1643.49
802.154	19.46
802.334	160.77
802.514	13.31
802.693	13.31
802.873	35.84
803.053	89.09
803.233	64.51
803.413	64.51
803.592	-62.46
803.772	3.07
803.952	54.27
804.131	-50.18
804.311	78.85
804.491	166.91
804.67	9.22
804.85	-41.98
805.03	84.99
805.209	64.51
805.389	70.65
805.568	37.89
805.748	11.26
805.928	25.6
806.107	80.89
806.287	56.32
806.466	-5.12
806.646	-39.94
806.825	21.5
807.004	50.18
807.184	-15.36
807.363	128
807.543	119.81
807.722	-39.94
807.901	105.47
808.081	64.51
808.26	-148.48
808.439	97.28
808.619	87.04
808.798	-70.65
808.977	37.89
809.156	185.34
809.336	62.46
809.515	97.28
809.694	-82.94
809.873	19.46
810.052	35.84
810.231	80.89
810.411	121.85
810.59	37.89
810.769	33.79
810.948	68.61
811.127	19.46
811.306	41.98
811.485	-54.27
811.664	197.63
811.843	23.55
812.022	3.07
812.201	5.12
812.38	-23.55
812.559	-17.41
812.737	62.46
812.916	3.07
813.095	-3.07
813.274	93.18
813.453	-3.07
813.632	46.08
813.811	13.31
813.989	-72.7
814.168	64.51
814.347	21.5
814.526	87.04
814.704	132.09
814.883	105.47
815.062	-7.17
815.24	46.08
815.419	-21.5
815.598	7.17
815.776	-15.36
815.955	-7.17
816.133	-62.46
816.312	44.03
816.49	-17.41
816.669	31.74
816.847	-9.22
817.026	99.33
817.204	66.56
817.383	11.26
817.561	-3.07
817.74	72.7
817.918	78.85
818.097	-60.42
818.275	-25.6
818.453	66.56
818.632	97.28
818.81	29.7
818.988	-7.17
819.167	-52.22
819.345	-9.22
819.523	-31.74
819.701	33.79
819.879	109.57
820.058	46.08
820.236	105.47
820.414	52.22
820.592	52.22
820.77	52.22
820.948	-23.55
821.127	27.65
821.305	35.84
821.483	25.6
821.661	101.37
821.839	3.07
822.017	-11.26
822.195	31.74
822.373	115.71
822.551	56.32
822.729	-33.79
822.907	21.5
823.085	48.13
823.262	46.08
823.44	-44.03
823.618	1.02
823.796	62.46
823.974	-23.55
824.152	1.02
824.329	-19.46
824.507	123.9
824.685	70.65
824.863	21.5
825.04	-27.65
825.218	80.89
825.396	56.32
825.574	41.98
825.751	17.41
825.929	37.89
826.107	-44.03
826.284	58.37
826.462	-33.79
826.639	-93.18
826.817	-66.56
826.994	-9.22
827.172	-68.61
827.349	107.52
827.527	-9.22
827.704	-15.36
827.882	111.61
828.059	-60.42
828.237	-31.74
828.414	91.13
828.591	-125.95
828.769	52.22
828.946	-41.98
829.124	46.08
829.301	35.84
829.478	-13.31
829.655	72.7
829.833	64.51
830.01	-164.86
830.187	33.79
830.364	-33.79
830.542	19.46
830.719	113.66
830.896	76.8
831.073	66.56
831.25	107.52
831.427	46.08
831.604	52.22
831.782	7.17
831.959	52.22
832.136	44.03
832.313	1.02
832.49	-5.12
832.667	13.31
832.844	-62.46
833.021	35.84
833.198	-46.08
833.374	25.6
833.551	44.03
833.728	13.31
833.905	66.56
834.082	-97.28
834.259	35.84
834.436	164.86
834.612	-54.27
834.789	31.74
834.966	50.18
835.143	64.51
835.319	-76.8
835.496	25.6
835.673	31.74
835.85	37.89
836.026	60.42
836.203	60.42
836.38	-27.65
836.556	46.08
836.733	-64.51
836.909	97.28
837.086	-95.23
837.262	-37.89
837.439	23.55
837.616	-29.7
837.792	27.65
837.968	35.84
838.145	-62.46
838.321	25.6
838.498	17.41
838.674	21.5
838.851	21.5
839.027	-37.89
839.203	-58.37
839.38	41.98
839.556	-21.5
839.732	105.47
839.909	3.07
840.085	29.7
840.261	-39.94
840.437	-7.17
840.614	-25.6
840.79	121.85
840.966	87.04
841.142	82.94
841.318	25.6
841.494	35.84
841.671	56.32
841.847	-89.09
842.023	-68.61
842.199	52.22
842.375	144.38
842.551	-44.03
842.727	-117.76
842.903	189.44
843.079	23.55
843.255	62.46
843.431	52.22
843.607	70.65
843.783	-123.9
843.959	17.41
844.134	5.12
844.31	37.89
844.486	56.32
844.662	-80.89
844.838	17.41
845.013	60.42
845.189	17.41
845.365	89.09
845.541	-1.02
845.716	31.74
845.892	107.52
846.068	-35.84
846.244	-41.98
846.419	80.89
846.595	-13.31
846.77	-50.18
846.946	125.95
847.122	-31.74
847.297	62.46
847.473	99.33
847.648	-37.89
847.824	33.79
847.999	-109.57
848.175	3.07
848.35	-25.6
848.526	128
848.701	54.27
848.876	37.89
849.052	39.94
849.227	13.31
849.403	46.08
849.578	-11.26
849.753	72.7
849.929	58.37
850.104	-68.61
850.279	11.26
850.454	48.13
850.63	99.33
850.805	-37.89
850.98	48.13
851.155	17.41
851.33	130.05
851.505	-17.41
851.681	121.85
851.856	-23.55
852.031	60.42
852.206	31.74
852.381	-119.81
852.556	-25.6
852.731	97.28
852.906	46.08
853.081	89.09
853.256	179.2
853.431	39.94
853.606	-76.8
853.781	-130.05
853.956	-117.76
854.131	-13.31
854.305	-74.75
854.48	-35.84
854.655	-56.32
854.83	-21.5
855.005	58.37
855.18	25.6
855.354	-27.65
855.529	15.36
855.704	-25.6
855.879	97.28
856.053	-29.7
856.228	80.89
856.403	19.46
856.577	99.33
856.752	-44.03
856.926	-3.07
857.101	-11.26
857.276	-140.29
857.45	17.41
857.625	107.52
857.799	68.61
857.974	-9.22
858.148	-103.42
858.323	46.08
858.497	54.27
858.672	-48.13
858.846	-39.94
859.02	44.03
859.195	-113.66
859.369	-17.41
859.543	37.89
859.718	19.46
859.892	29.7
860.066	15.36
860.241	-27.65
860.415	-97.28
860.589	-25.6
860.763	44.03
860.938	-39.94
861.112	31.74
861.286	3.07
861.46	33.79
861.634	-25.6
861.808	105.47
861.982	-9.22
862.157	-78.85
862.331	-103.42
862.505	-37.89
862.679	-164.86
862.853	-78.85
863.027	-33.79
863.201	103.42
863.375	-25.6
863.549	52.22
863.722	52.22
863.896	68.61
864.07	-1.02
864.244	29.7
864.418	66.56
864.592	48.13
864.766	17.41
864.939	23.55
865.113	-23.55
865.287	134.14
865.461	3.07
865.634	-21.5
865.808	-7.17
865.982	-37.89
866.156	-72.7
866.329	-97.28
866.503	-46.08
866.676	70.65
866.85	-50.18
867.024	-44.03
867.197	115.71
867.371	76.8
867.544	64.51
867.718	-80.89
867.891	132.09
868.065	-29.7
868.238	-9.22
868.412	101.37
868.585	3.07
868.759	-13.31
868.932	-29.7
869.105	-138.24
869.279	-56.32
869.452	56.32
869.625	21.5
869.799	15.36
869.972	-78.85
870.145	-13.31
870.319	1.02
870.492	-41.98
870.665	-84.99
870.838	-68.61
871.011	-76.8
871.185	-7.17
871.358	-52.22
871.531	52.22
871.704	-74.75
871.877	19.46
872.05	-25.6
872.223	-76.8
872.396	48.13
872.569	72.7
872.742	-132.09
872.915	1.02
873.088	-13.31
873.261	-84.99
873.434	66.56
873.607	-13.31
873.78	64.51
873.953	27.65
874.126	15.36
874.299	19.46
874.471	-46.08
874.644	39.94
874.817	76.8
874.99	91.13
875.163	31.74
875.335	50.18
875.508	13.31
875.681	89.09
875.853	-56.32
876.026	13.31
876.199	52.22
876.371	-25.6
876.544	54.27
876.717	46.08
876.889	-3.07
877.062	80.89
877.234	-146.43
877.407	-31.74
877.579	-25.6
877.752	-3.07
877.924	60.42
878.097	107.52
878.269	25.6
878.442	-15.36
878.614	29.7
878.786	7.17
878.959	50.18
879.131	-15.36
879.303	-87.04
879.476	111.61
879.648	95.23
879.82	41.98
879.993	-35.84
880.165	17.41
880.337	-113.66
880.509	56.32
880.681	-123.9
880.854	-21.5
881.026	109.57
881.198	205.82
881.37	-5.12
881.542	48.13
881.714	-1.02
881.886	-54.27
882.058	56.32
882.23	44.03
882.402	37.89
882.574	35.84
882.746	35.84
882.918	125.95
883.09	58.37
883.262	-7.17
883.434	7.17
883.606	-46.08
883.778	17.41
883.95	220.16
884.122	25.6
884.293	209.92
884.465	-21.5
884.637	80.89
884.809	-37.89
884.98	-7.17
885.152	64.51
885.324	58.37
885.496	-15.36
885.667	44.03
885.839	13.31
886.011	148.48
886.182	111.61
886.354	60.42
886.525	11.26
886.697	-31.74
886.869	-72.7
887.04	35.84
887.212	183.29
887.383	99.33
887.555	54.27
887.726	-66.56
887.897	56.32
888.069	21.5
888.24	72.7
888.412	54.27
888.583	-87.04
888.754	23.55
888.926	-78.85
889.097	-29.7
889.268	-39.94
889.44	1.02
889.611	-58.37
889.782	5.12
889.953	-95.23
890.125	78.85
890.296	-44.03
890.467	-33.79
890.638	-21.5
890.809	-3.07
890.98	-115.71
891.151	35.84
891.323	70.65
891.494	-50.18
891.665	35.84
891.836	-17.41
892.007	19.46
892.178	89.09
892.349	-7.17
892.52	-35.84
892.691	-13.31
892.862	-7.17
893.032	-113.66
893.203	19.46
893.374	23.55
893.545	93.18
893.716	-19.46
893.887	152.57
894.057	-17.41
894.228	17.41
894.399	72.7
894.57	111.61
894.74	13.31
894.911	97.28
895.082	35.84
895.253	-66.56
895.423	-56.32
895.594	54.27
895.764	7.17
895.935	-33.79
896.106	19.46
896.276	9.22
896.447	25.6
896.617	-29.7
896.788	9.22
896.958	11.26
897.129	-17.41
897.299	-5.12
897.47	123.9
897.64	-13.31
897.81	-62.46
897.981	74.75
898.151	-29.7
898.322	17.41
898.492	87.04
898.662	-99.33
898.832	-99.33
899.003	-68.61
899.173	54.27
899.343	-46.08
899.513	-80.89
