Data from USB4F104151__10__10-23-01-850.txt Node

Date: Wed Feb 26 10:23:01 EST 2025
User: louis
Spectrometer: USB4F10415
Trigger mode: 4
Integration Time (sec): 1.000000E-1
Scans to average: 1
Electric dark correction enabled: true
Nonlinearity correction enabled: false
Boxcar width: 0
XAxis mode: Wavelengths
Number of Pixels in Spectrum: 3648
>>>>>Begin Spectral Data<<<<<
178.204	-338.43
178.424	-338.43
178.644	-338.43
178.864	-387.58
179.084	-406.01
179.304	-10.75
179.524	38.4
179.744	26.11
179.964	-31.23
180.184	9.73
180.404	77.31
180.624	-35.33
180.844	-33.28
181.064	-92.67
181.283	19.97
181.503	-2.56
181.723	34.3
181.943	-80.38
182.163	237.05
182.383	-27.14
182.602	50.69
182.822	144.89
183.042	85.5
183.262	-72.19
183.482	-61.95
183.701	-31.23
183.921	60.93
184.141	-37.38
184.361	40.45
184.58	56.83
184.8	50.69
185.02	-4.61
185.239	42.5
185.459	97.79
185.679	93.69
185.898	-80.38
186.118	46.59
186.338	34.3
186.557	146.94
186.777	-82.43
186.997	-86.53
187.216	62.98
187.436	194.05
187.655	58.88
187.875	144.89
188.095	44.54
188.314	77.31
188.534	93.69
188.753	-59.9
188.973	138.75
189.192	173.57
189.412	5.63
189.631	60.93
189.851	77.31
190.07	175.61
190.29	-4.61
190.509	-10.75
190.729	44.54
190.948	126.46
191.168	253.44
191.387	44.54
191.607	-70.14
191.826	19.97
192.045	71.17
192.265	-23.04
192.484	19.97
192.704	54.78
192.923	-55.81
193.142	204.28
193.362	75.26
193.581	108.03
193.8	58.88
194.02	91.65
194.239	50.69
194.458	65.02
194.678	-25.09
194.897	-23.04
195.116	50.69
195.335	71.17
195.555	40.45
195.774	-102.91
195.993	73.21
196.212	54.78
196.432	77.31
196.651	89.6
196.87	3.58
197.089	163.33
197.308	62.98
197.528	28.16
197.747	-27.14
197.966	24.06
198.185	95.74
198.404	-49.66
198.623	73.21
198.842	163.33
199.062	97.79
199.281	192
199.5	17.92
199.719	105.98
199.938	65.02
200.157	40.45
200.376	71.17
200.595	179.71
200.814	22.02
201.033	-41.47
201.252	62.98
201.471	38.4
201.69	62.98
201.909	28.16
202.128	118.27
202.347	62.98
202.566	-35.33
202.785	-76.29
203.004	19.97
203.223	204.28
203.442	1.54
203.661	-68.09
203.879	26.11
204.098	114.17
204.317	-41.47
204.536	128.51
204.755	62.98
204.974	40.45
205.193	24.06
205.411	132.61
205.63	95.74
205.849	60.93
206.068	-29.18
206.287	-35.33
206.505	198.14
206.724	54.78
206.943	-41.47
207.162	19.97
207.381	99.84
207.599	11.78
207.818	36.35
208.037	7.68
208.255	44.54
208.474	28.16
208.693	83.45
208.911	26.11
209.13	108.03
209.349	69.12
209.567	71.17
209.786	144.89
210.005	120.32
210.223	52.74
210.442	-100.86
210.661	9.73
210.879	-33.28
211.098	15.87
211.316	62.98
211.535	40.45
211.753	56.83
211.972	44.54
212.191	-33.28
212.409	3.58
212.628	93.69
212.846	1.54
213.065	24.06
213.283	177.66
213.502	13.82
213.72	142.85
213.938	-25.09
214.157	19.97
214.375	110.08
214.594	1.54
214.812	81.41
215.031	11.78
215.249	-25.09
215.467	77.31
215.686	28.16
215.904	65.02
216.122	-0.51
216.341	216.57
216.559	17.92
216.778	79.36
216.996	108.03
217.214	54.78
217.432	-70.14
217.651	-23.04
217.869	-39.42
218.087	-25.09
218.306	-20.99
218.524	60.93
218.742	-29.18
218.96	22.02
219.179	28.16
219.397	32.26
219.615	230.91
219.833	77.31
220.051	-0.51
220.27	75.26
220.488	108.03
220.706	93.69
220.924	34.3
221.142	-0.51
221.36	50.69
221.578	75.26
221.796	52.74
222.015	44.54
222.233	-4.61
222.451	136.7
222.669	-123.39
222.887	24.06
223.105	-8.7
223.323	79.36
223.541	67.07
223.759	-35.33
223.977	40.45
224.195	167.42
224.413	19.97
224.631	71.17
224.849	-4.61
225.067	183.81
225.285	42.5
225.503	3.58
225.721	-92.67
225.939	60.93
226.157	13.82
226.375	257.53
226.592	101.89
226.81	-29.18
227.028	97.79
227.246	138.75
227.464	118.27
227.682	44.54
227.9	73.21
228.117	40.45
228.335	30.21
228.553	120.32
228.771	-51.71
228.989	-10.75
229.206	85.5
229.424	17.92
229.642	81.41
229.86	-53.76
230.077	62.98
230.295	95.74
230.513	75.26
230.731	36.35
230.948	192
231.166	116.22
231.384	-47.62
231.601	-39.42
231.819	187.9
232.037	-14.85
232.254	-18.94
232.472	58.88
232.689	22.02
232.907	101.89
233.125	-2.56
233.342	-31.23
233.56	54.78
233.777	36.35
233.995	77.31
234.213	97.79
234.43	87.55
234.648	3.58
234.865	-53.76
235.083	-0.51
235.3	28.16
235.518	50.69
235.735	128.51
235.953	128.51
236.17	-27.14
236.388	-16.9
236.605	-29.18
236.822	77.31
237.04	155.13
237.257	-74.24
237.475	1.54
237.692	5.63
237.909	26.11
238.127	9.73
238.344	108.03
238.562	-23.04
238.779	-33.28
238.996	-45.57
239.214	75.26
239.431	81.41
239.648	-41.47
239.865	77.31
240.083	114.17
240.3	-41.47
240.517	22.02
240.735	42.5
240.952	67.07
241.169	34.3
241.386	3.58
241.603	91.65
241.821	-53.76
242.038	87.55
242.255	62.98
242.472	-82.43
242.689	71.17
242.907	71.17
243.124	75.26
243.341	-23.04
243.558	24.06
243.775	-35.33
243.992	-0.51
244.209	99.84
244.426	157.18
244.643	93.69
244.86	-12.8
245.078	56.83
245.295	54.78
245.512	44.54
245.729	-0.51
245.946	67.07
246.163	93.69
246.38	19.97
246.597	83.45
246.814	52.74
247.031	-23.04
247.248	28.16
247.464	50.69
247.681	9.73
247.898	105.98
248.115	69.12
248.332	-66.05
248.549	105.98
248.766	181.76
248.983	56.83
249.2	108.03
249.417	30.21
249.633	13.82
249.85	69.12
250.067	77.31
250.284	5.63
250.501	95.74
250.717	77.31
250.934	-39.42
251.151	-4.61
251.368	3.58
251.585	17.92
251.801	-14.85
252.018	-25.09
252.235	179.71
252.451	-61.95
252.668	-0.51
252.885	132.61
253.102	91.65
253.318	124.41
253.535	73.21
253.752	-25.09
253.968	-2.56
254.185	-66.05
254.401	17.92
254.618	75.26
254.835	17.92
255.051	128.51
255.268	95.74
255.484	17.92
255.701	-4.61
255.917	101.89
256.134	3.58
256.351	-6.66
256.567	-74.24
256.784	-16.9
257	-111.1
257.217	142.85
257.433	69.12
257.65	38.4
257.866	136.7
258.082	-27.14
258.299	1.54
258.515	-0.51
258.732	54.78
258.948	-49.66
259.165	91.65
259.381	-10.75
259.597	28.16
259.814	9.73
260.03	65.02
260.246	24.06
260.463	153.09
260.679	112.13
260.895	40.45
261.112	50.69
261.328	69.12
261.544	-25.09
261.761	75.26
261.977	42.5
262.193	-66.05
262.409	99.84
262.626	50.69
262.842	-10.75
263.058	-29.18
263.274	79.36
263.49	9.73
263.707	91.65
263.923	79.36
264.139	-82.43
264.355	36.35
264.571	122.37
264.787	62.98
265.004	112.13
265.22	42.5
265.436	-35.33
265.652	-25.09
265.868	65.02
266.084	-80.38
266.3	79.36
266.516	46.59
266.732	155.13
266.948	-59.9
267.164	9.73
267.38	144.89
267.596	79.36
267.812	97.79
268.028	-6.66
268.244	-49.66
268.46	67.07
268.676	-4.61
268.892	71.17
269.108	-37.38
269.324	17.92
269.54	-4.61
269.756	22.02
269.972	-82.43
270.188	89.6
270.403	46.59
270.619	52.74
270.835	32.26
271.051	32.26
271.267	1.54
271.483	46.59
271.698	85.5
271.914	32.26
272.13	34.3
272.346	54.78
272.562	15.87
272.777	112.13
272.993	79.36
273.209	30.21
273.425	32.26
273.64	-18.94
273.856	13.82
274.072	-43.52
274.287	-41.47
274.503	62.98
274.719	50.69
274.934	-10.75
275.15	-129.53
275.366	-23.04
275.581	56.83
275.797	48.64
276.012	54.78
276.228	-41.47
276.444	79.36
276.659	140.8
276.875	-43.52
277.09	-18.94
277.306	-53.76
277.521	-53.76
277.737	58.88
277.952	157.18
278.168	58.88
278.383	108.03
278.599	67.07
278.814	46.59
279.03	-31.23
279.245	140.8
279.461	48.64
279.676	112.13
279.892	-74.24
280.107	-70.14
280.322	-125.44
280.538	75.26
280.753	-20.99
280.969	-2.56
281.184	-45.57
281.399	79.36
281.615	67.07
281.83	60.93
282.045	-49.66
282.26	1.54
282.476	120.32
282.691	73.21
282.906	34.3
283.122	17.92
283.337	-6.66
283.552	99.84
283.767	40.45
283.983	112.13
284.198	-10.75
284.413	22.02
284.628	-16.9
284.843	-12.8
285.058	24.06
285.274	-37.38
285.489	-41.47
285.704	75.26
285.919	30.21
286.134	-29.18
286.349	-25.09
286.564	-49.66
286.779	118.27
286.995	71.17
287.21	-107.01
287.425	50.69
287.64	-29.18
287.855	54.78
288.07	-41.47
288.285	46.59
288.5	122.37
288.715	60.93
288.93	36.35
289.145	-53.76
289.36	91.65
289.575	-16.9
289.79	95.74
290.004	-31.23
290.219	120.32
290.434	-61.95
290.649	-29.18
290.864	-39.42
291.079	7.68
291.294	30.21
291.509	112.13
291.724	52.74
291.938	5.63
292.153	34.3
292.368	28.16
292.583	26.11
292.798	73.21
293.012	85.5
293.227	52.74
293.442	46.59
293.657	118.27
293.871	87.55
294.086	122.37
294.301	189.95
294.516	116.22
294.73	65.02
294.945	19.97
295.16	-23.04
295.374	212.48
295.589	155.13
295.804	-29.18
296.018	-14.85
296.233	165.37
296.447	48.64
296.662	-53.76
296.877	122.37
297.091	71.17
297.306	-4.61
297.52	71.17
297.735	32.26
297.949	50.69
298.164	22.02
298.378	87.55
298.593	-0.51
298.807	-0.51
299.022	-23.04
299.236	65.02
299.451	32.26
299.665	15.87
299.88	114.17
300.094	54.78
300.309	30.21
300.523	22.02
300.737	19.97
300.952	42.5
301.166	97.79
301.381	-20.99
301.595	-10.75
301.809	103.93
302.024	36.35
302.238	-8.7
302.452	110.08
302.667	11.78
302.881	116.22
303.095	99.84
303.309	34.3
303.524	-29.18
303.738	91.65
303.952	5.63
304.166	140.8
304.381	-168.45
304.595	165.37
304.809	5.63
305.023	34.3
305.237	13.82
305.452	3.58
305.666	171.52
305.88	124.41
306.094	52.74
306.308	97.79
306.522	108.03
306.736	62.98
306.95	71.17
307.164	-18.94
307.379	75.26
307.593	142.85
307.807	116.22
308.021	120.32
308.235	9.73
308.449	-33.28
308.663	-23.04
308.877	226.81
309.091	67.07
309.305	101.89
309.519	-37.38
309.733	83.45
309.947	-10.75
310.161	116.22
310.374	85.5
310.588	1.54
310.802	-2.56
311.016	-12.8
311.23	56.83
311.444	9.73
311.658	46.59
311.872	128.51
312.085	120.32
312.299	97.79
312.513	148.99
312.727	48.64
312.941	24.06
313.154	-6.66
313.368	52.74
313.582	73.21
313.796	42.5
314.009	15.87
314.223	124.41
314.437	118.27
314.651	114.17
314.864	81.41
315.078	3.58
315.292	-47.62
315.505	24.06
315.719	54.78
315.933	83.45
316.146	1.54
316.36	-27.14
316.573	77.31
316.787	71.17
317.001	3.58
317.214	-66.05
317.428	-53.76
317.641	5.63
317.855	32.26
318.068	9.73
318.282	50.69
318.495	157.18
318.709	85.5
318.922	-4.61
319.136	173.57
319.349	120.32
319.563	-35.33
319.776	28.16
319.99	-61.95
320.203	93.69
320.417	-25.09
320.63	105.98
320.843	126.46
321.057	50.69
321.27	44.54
321.483	75.26
321.697	99.84
321.91	-27.14
322.124	-4.61
322.337	38.4
322.55	-18.94
322.763	56.83
322.977	28.16
323.19	-33.28
323.403	89.6
323.617	40.45
323.83	148.99
324.043	32.26
324.256	93.69
324.469	-39.42
324.683	99.84
324.896	-2.56
325.109	56.83
325.322	-16.9
325.535	200.19
325.748	73.21
325.962	-16.9
326.175	48.64
326.388	99.84
326.601	60.93
326.814	36.35
327.027	136.7
327.24	163.33
327.453	-96.77
327.666	151.04
327.879	101.89
328.092	46.59
328.305	-29.18
328.518	-20.99
328.731	34.3
328.944	3.58
329.157	67.07
329.37	46.59
329.583	124.41
329.796	118.27
330.009	-4.61
330.222	65.02
330.435	83.45
330.648	34.3
330.861	118.27
331.073	56.83
331.286	56.83
331.499	91.65
331.712	11.78
331.925	77.31
332.138	58.88
332.35	22.02
332.563	-100.86
332.776	112.13
332.989	-51.71
333.202	1.54
333.414	69.12
333.627	-49.66
333.84	62.98
334.053	36.35
334.265	-41.47
334.478	46.59
334.691	-35.33
334.903	60.93
335.116	-33.28
335.329	60.93
335.541	81.41
335.754	157.18
335.966	38.4
336.179	65.02
336.392	-59.9
336.604	30.21
336.817	79.36
337.029	58.88
337.242	89.6
337.454	99.84
337.667	79.36
337.88	67.07
338.092	95.74
338.305	40.45
338.517	-68.09
338.729	108.03
338.942	120.32
339.154	-72.19
339.367	-4.61
339.579	48.64
339.792	9.73
340.004	108.03
340.217	7.68
340.429	46.59
340.641	-68.09
340.854	11.78
341.066	67.07
341.278	146.94
341.491	146.94
341.703	36.35
341.915	1.54
342.128	112.13
342.34	65.02
342.552	-43.52
342.764	24.06
342.977	22.02
343.189	50.69
343.401	24.06
343.613	-94.72
343.826	30.21
344.038	5.63
344.25	-45.57
344.462	-88.57
344.674	26.11
344.886	-64
345.099	62.98
345.311	75.26
345.523	40.45
345.735	-41.47
345.947	116.22
346.159	124.41
346.371	50.69
346.583	71.17
346.795	175.61
347.007	-16.9
347.219	67.07
347.431	5.63
347.643	54.78
347.855	22.02
348.067	167.42
348.279	-72.19
348.491	44.54
348.703	138.75
348.915	85.5
349.127	-43.52
349.339	-29.18
349.551	15.87
349.763	153.09
349.975	30.21
350.187	99.84
350.399	136.7
350.61	114.17
350.822	99.84
351.034	118.27
351.246	28.16
351.458	34.3
351.669	62.98
351.881	54.78
352.093	62.98
352.305	142.85
352.517	9.73
352.728	136.7
352.94	-35.33
353.152	46.59
353.363	-8.7
353.575	65.02
353.787	165.37
353.999	24.06
354.21	151.04
354.422	32.26
354.633	19.97
354.845	122.37
355.057	36.35
355.268	73.21
355.48	42.5
355.692	-12.8
355.903	75.26
356.115	5.63
356.326	-41.47
356.538	120.32
356.749	116.22
356.961	153.09
357.172	52.74
357.384	-80.38
357.595	241.15
357.807	24.06
358.018	22.02
358.23	7.68
358.441	138.75
358.653	24.06
358.864	-18.94
359.075	-37.38
359.287	103.93
359.498	40.45
359.709	26.11
359.921	46.59
360.132	34.3
360.344	22.02
360.555	19.97
360.766	81.41
360.977	-14.85
361.189	146.94
361.4	58.88
361.611	134.65
361.823	67.07
362.034	56.83
362.245	-55.81
362.456	40.45
362.667	40.45
362.879	-51.71
363.09	38.4
363.301	62.98
363.512	32.26
363.723	34.3
363.935	32.26
364.146	38.4
364.357	60.93
364.568	73.21
364.779	-76.29
364.99	105.98
365.201	-12.8
365.412	108.03
365.623	-74.24
365.834	34.3
366.045	-88.57
366.256	65.02
366.467	108.03
366.678	54.78
366.889	65.02
367.1	-6.66
367.311	120.32
367.522	-12.8
367.733	-6.66
367.944	101.89
368.155	-4.61
368.366	19.97
368.577	85.5
368.788	52.74
368.999	-25.09
369.209	22.02
369.42	118.27
369.631	237.05
369.842	116.22
370.053	-20.99
370.264	40.45
370.474	-37.38
370.685	75.26
370.896	22.02
371.107	200.19
371.317	58.88
371.528	97.79
371.739	108.03
371.95	103.93
372.16	54.78
372.371	-55.81
372.582	-47.62
372.792	24.06
373.003	22.02
373.214	110.08
373.424	73.21
373.635	-23.04
373.846	116.22
374.056	50.69
374.267	79.36
374.477	69.12
374.688	17.92
374.898	30.21
375.109	38.4
375.319	91.65
375.53	48.64
375.74	105.98
375.951	15.87
376.161	101.89
376.372	144.89
376.582	-43.52
376.793	126.46
377.003	-27.14
377.214	-37.38
377.424	122.37
377.635	-29.18
377.845	24.06
378.055	212.48
378.266	-154.11
378.476	69.12
378.686	116.22
378.897	85.5
379.107	93.69
379.317	99.84
379.528	50.69
379.738	79.36
379.948	-16.9
380.158	136.7
380.369	-0.51
380.579	46.59
380.789	-41.47
380.999	134.65
381.21	114.17
381.42	126.46
381.63	52.74
381.84	85.5
382.05	136.7
382.261	58.88
382.471	77.31
382.681	60.93
382.891	136.7
383.101	36.35
383.311	-49.66
383.521	46.59
383.731	112.13
383.941	101.89
384.151	169.47
384.361	-64
384.571	38.4
384.781	-2.56
384.991	146.94
385.201	181.76
385.411	15.87
385.621	40.45
385.831	118.27
386.041	46.59
386.251	17.92
386.461	-12.8
386.671	15.87
386.881	-10.75
387.091	-23.04
387.301	46.59
387.511	122.37
387.72	91.65
387.93	118.27
388.14	-102.91
388.35	71.17
388.56	185.85
388.769	124.41
388.979	42.5
389.189	-29.18
389.399	85.5
389.609	62.98
389.818	95.74
390.028	15.87
390.238	136.7
390.447	-10.75
390.657	83.45
390.867	60.93
391.076	-31.23
391.286	67.07
391.496	-0.51
391.705	24.06
391.915	112.13
392.125	65.02
392.334	24.06
392.544	124.41
392.753	122.37
392.963	-53.76
393.172	60.93
393.382	1.54
393.591	79.36
393.801	-43.52
394.01	173.57
394.22	95.74
394.429	-20.99
394.639	62.98
394.848	130.56
395.058	157.18
395.267	19.97
395.477	71.17
395.686	52.74
395.895	142.85
396.105	177.66
396.314	65.02
396.524	75.26
396.733	11.78
396.942	122.37
397.152	58.88
397.361	46.59
397.57	108.03
397.78	87.55
397.989	52.74
398.198	230.91
398.407	-4.61
398.617	65.02
398.826	34.3
399.035	7.68
399.244	146.94
399.453	87.55
399.663	48.64
399.872	65.02
400.081	11.78
400.29	120.32
400.499	-37.38
400.708	116.22
400.917	-31.23
401.127	85.5
401.336	44.54
401.545	241.15
401.754	56.83
401.963	93.69
402.172	-10.75
402.381	3.58
402.59	-66.05
402.799	44.54
403.008	120.32
403.217	17.92
403.426	28.16
403.635	56.83
403.844	48.64
404.053	58.88
404.262	-4.61
404.471	110.08
404.68	138.75
404.888	38.4
405.097	-25.09
405.306	1.54
405.515	46.59
405.724	40.45
405.933	77.31
406.142	91.65
406.35	62.98
406.559	7.68
406.768	34.3
406.977	153.09
407.185	54.78
407.394	116.22
407.603	-29.18
407.812	58.88
408.02	103.93
408.229	46.59
408.438	-43.52
408.646	-147.97
408.855	40.45
409.064	194.05
409.272	75.26
409.481	124.41
409.69	7.68
409.898	-39.42
410.107	56.83
410.315	40.45
410.524	42.5
410.733	60.93
410.941	17.92
411.15	69.12
411.358	71.17
411.567	122.37
411.775	71.17
411.984	77.31
412.192	122.37
412.401	-111.1
412.609	159.23
412.818	134.65
413.026	97.79
413.234	9.73
413.443	9.73
413.651	-16.9
413.86	56.83
414.068	73.21
414.276	157.18
414.485	13.82
414.693	114.17
414.901	153.09
415.11	13.82
415.318	65.02
415.526	42.5
415.734	116.22
415.943	97.79
416.151	75.26
416.359	-8.7
416.567	79.36
416.776	91.65
416.984	140.8
417.192	173.57
417.4	-6.66
417.608	-6.66
417.817	-12.8
418.025	142.85
418.233	69.12
418.441	-53.76
418.649	-29.18
418.857	118.27
419.065	194.05
419.273	19.97
419.481	83.45
419.689	32.26
419.897	-16.9
420.105	26.11
420.313	126.46
420.521	185.85
420.729	126.46
420.937	28.16
421.145	-20.99
421.353	75.26
421.561	103.93
421.769	-6.66
421.977	-8.7
422.185	93.69
422.393	48.64
422.601	177.66
422.809	120.32
423.017	-4.61
423.224	30.21
423.432	130.56
423.64	48.64
423.848	169.47
424.056	-47.62
424.263	95.74
424.471	11.78
424.679	200.19
424.887	11.78
425.094	183.81
425.302	99.84
425.51	112.13
425.718	103.93
425.925	122.37
426.133	36.35
426.341	140.8
426.548	30.21
426.756	9.73
426.964	40.45
427.171	42.5
427.379	105.98
427.586	15.87
427.794	146.94
428.001	130.56
428.209	112.13
428.417	175.61
428.624	163.33
428.832	112.13
429.039	77.31
429.247	122.37
429.454	110.08
429.662	237.05
429.869	208.38
430.076	151.04
430.284	210.43
430.491	175.61
430.699	206.33
430.906	183.81
431.114	181.76
431.321	146.94
431.528	171.52
431.736	167.42
431.943	216.57
432.15	95.74
432.358	241.15
432.565	269.82
432.772	-10.75
432.979	226.81
433.187	110.08
433.394	259.58
433.601	144.89
433.808	271.87
434.016	187.9
434.223	226.81
434.43	206.33
434.637	247.29
434.844	386.55
435.052	241.15
435.259	294.4
435.466	341.5
435.673	304.64
435.88	243.2
436.087	376.31
436.294	366.07
436.501	361.98
436.708	331.26
436.915	294.4
437.122	437.75
437.329	267.77
437.537	335.35
437.743	314.88
437.95	429.56
438.157	493.05
438.364	523.77
438.571	527.86
438.778	452.09
438.985	499.19
439.192	572.92
439.399	538.1
439.606	540.15
439.813	544.25
440.02	736.76
440.227	738.8
440.433	656.89
440.64	617.97
440.847	599.54
441.054	663.03
441.261	722.42
441.467	660.98
441.674	736.76
441.881	865.78
442.088	671.22
442.294	847.35
442.501	914.93
442.708	951.79
442.914	964.08
443.121	1005.04
443.328	998.9
443.534	1095.15
443.741	1113.58
443.948	1039.86
444.154	1072.62
444.361	1234.41
444.568	1238.51
444.774	1242.61
444.981	1150.45
445.187	1324.52
445.394	1447.4
445.6	1254.89
445.807	1541.61
446.013	1557.99
446.22	1488.36
446.426	1654.25
446.633	1744.36
446.839	2051.55
447.046	1699.3
447.252	2006.5
447.459	1963.49
447.665	1891.81
447.871	2162.14
448.078	2328.03
448.284	2190.81
448.491	2375.13
448.697	2389.47
448.903	2565.59
449.11	2579.93
449.316	2602.46
449.522	2938.32
449.728	2817.49
449.935	3073.49
450.141	3050.96
450.347	3200.46
450.553	3251.66
450.76	3286.48
450.966	3403.21
451.172	3583.43
451.378	3734.98
451.584	3734.98
451.791	4101.57
451.997	4292.03
452.203	4312.51
452.409	4490.68
452.615	4677.05
452.821	4605.37
453.027	4519.36
453.233	5254.58
453.44	4931
453.646	5322.16
453.852	5463.47
454.058	5741.99
454.264	5871.01
454.47	6237.6
454.676	6288.8
454.882	6782.36
455.088	6538.65
455.294	6895
455.5	7353.74
455.705	7787.91
455.911	7732.62
456.117	8113.54
456.323	8265.09
456.529	8226.18
456.735	9045.37
456.941	9424.24
457.147	9629.04
457.352	9751.92
457.558	10085.73
457.764	10847.58
457.97	10976.6
458.176	11750.73
458.381	11892.04
458.587	12211.53
458.793	12739.9
458.999	12938.55
459.204	14458.15
459.41	14890.27
459.616	14781.73
459.821	15500.56
460.027	16317.7
460.233	16999.68
460.438	17069.31
460.644	18132.2
460.85	18654.44
461.055	18945.25
461.261	19723.48
461.466	19559.64
461.672	20143.31
461.878	22215.85
462.083	21949.62
462.289	22424.75
462.494	23211.17
462.7	23407.77
462.905	23932.05
463.111	25615.48
463.316	26948.71
463.522	27579.48
463.727	28431.44
463.932	29580.35
464.138	30452.78
464.343	31286.31
464.549	31546.4
464.754	33874.94
464.959	35009.51
465.165	35294.18
465.37	35245.03
465.575	35193.83
465.781	37571.52
465.986	38712.24
466.191	38345.65
466.397	38257.59
466.602	37594.05
466.807	39750.56
467.012	40377.24
467.218	40651.67
467.423	41163.66
467.628	42283.9
467.833	44030.82
468.038	43604.84
468.244	42560.37
468.449	44634.97
468.654	43522.92
468.859	43602.79
469.064	43834.21
469.269	42713.97
469.474	43006.83
469.679	43944.8
469.885	42799.99
470.09	43856.74
470.295	44098.4
470.5	42941.3
470.705	43088.75
470.91	42025.85
471.115	41329.55
471.32	42126.21
471.525	41595.78
471.73	40840.08
471.935	40506.26
472.139	39170.99
472.344	38718.39
472.549	38802.35
472.754	37868.48
472.959	37280.71
473.164	35779.55
473.369	35316.71
473.574	36400.08
473.778	35595.23
473.983	34976.75
474.188	34429.94
474.393	32402.45
474.598	32883.72
474.802	32232.47
475.007	31613.98
475.212	31632.41
475.417	29936.7
475.621	29635.64
475.826	29506.62
476.031	28875.85
476.235	28120.15
476.44	28050.52
476.645	27415.65
476.849	27472.99
477.054	26635.37
477.259	26051.7
477.463	25965.68
477.668	25283.71
477.872	25283.71
478.077	24728.71
478.282	24132.75
478.486	23700.63
478.691	23608.47
478.895	23622.81
479.1	23239.84
479.304	22942.88
479.509	22285.48
479.713	22752.42
479.918	21732.53
480.122	21503.16
480.326	21959.86
480.531	22013.1
480.735	21716.15
480.94	20935.87
481.144	21599.41
481.348	20774.08
481.553	20659.4
481.757	19934.42
481.961	20628.68
482.166	20460.74
482.37	19985.62
482.574	19662.04
482.778	20040.91
482.983	19911.89
483.187	19723.48
483.391	19389.66
483.595	18947.29
483.8	18750.69
484.004	18875.62
484.208	19219.67
484.412	18490.6
484.616	18390.25
484.821	18308.33
485.025	17562.87
485.229	17786.1
485.433	17386.74
485.637	17319.16
485.841	16897.28
486.045	16717.06
486.249	16639.23
486.453	16037.13
486.657	16022.8
486.861	16084.23
487.065	15369.49
487.269	15359.25
487.473	14640.42
487.677	15050.01
487.881	14867.74
488.085	14351.65
488.289	14048.55
488.493	13636.91
488.697	13942.06
488.901	13501.75
489.105	13208.89
489.309	13020.47
489.512	12854.59
489.716	12451.14
489.92	12406.08
490.124	11756.88
490.328	11783.5
490.531	11621.71
490.735	11611.47
490.939	11210.07
491.143	10802.52
491.346	10841.43
491.55	10771.8
491.754	10378.59
491.958	10118.5
492.161	10048.87
492.365	9903.46
492.569	9583.98
492.772	9407.86
492.976	9635.18
493.18	9309.55
493.383	9422.19
493.587	9262.45
493.79	9160.05
493.994	8682.88
494.197	8603
494.401	8600.96
494.605	8418.69
494.808	8480.13
495.012	8332.67
495.215	8310.15
495.419	8291.71
495.622	8025.48
495.825	7792.01
496.029	8058.25
496.232	8123.78
496.436	7683.47
496.639	7927.18
496.843	7847.3
497.046	7685.51
497.249	7855.5
497.453	7878.02
497.656	7878.02
497.859	7744.91
498.063	7660.94
498.266	7796.11
498.469	7736.71
498.673	7646.6
498.876	7779.72
499.079	7888.26
499.282	7736.71
499.485	8123.78
499.689	7712.14
499.892	8000.9
500.095	7708.04
500.298	7859.59
500.501	7697.8
500.705	8109.44
500.908	8025.48
501.111	8017.29
501.314	8086.92
501.517	8545.66
501.72	8385.92
501.923	8486.27
502.126	8529.28
502.329	8609.15
502.532	8394.11
502.735	8418.69
502.938	8598.91
503.141	8953.21
503.344	8811.9
503.547	8988.02
503.75	8871.29
503.953	9047.41
504.156	9186.68
504.359	9047.41
504.562	9180.53
504.765	9450.86
504.968	9819.5
505.17	9911.66
505.373	9989.48
505.576	10091.88
505.779	10118.5
505.982	10190.18
506.185	10538.34
506.387	10638.69
506.59	10546.53
506.793	10808.67
506.996	11027.8
507.198	11423.06
507.401	11558.22
507.604	11556.18
507.807	11863.37
508.009	12123.46
508.212	12217.67
508.415	12522.82
508.617	12725.57
508.82	12911.93
509.022	13178.17
509.225	13593.9
509.428	13669.68
509.63	13749.55
509.833	14220.58
510.035	14507.3
510.238	14830.88
510.44	14902.56
510.643	15430.93
510.845	15834.38
511.048	15615.25
511.25	16289.03
511.453	16557.32
511.655	17468.66
511.858	17620.21
512.06	17825.01
512.262	18007.28
512.465	18175.21
512.667	18851.04
512.87	19293.4
513.072	19586.26
513.274	20309.19
513.477	20303.05
513.679	21009.6
513.881	21308.6
514.084	21769.4
514.286	22191.28
514.488	22510.76
514.69	23149.73
514.893	23415.96
515.095	23930
515.297	24566.92
515.499	24958.08
515.701	25851
515.904	25896.05
516.106	26827.88
516.308	27057.25
516.51	27262.05
516.712	28120.15
516.914	28548.17
517.116	29373.5
517.318	29692.99
517.52	30116.92
517.722	30600.24
517.925	31231.01
518.127	31843.35
518.329	32103.45
518.531	32324.63
518.733	33317.89
518.935	33721.34
519.136	34288.63
519.338	34419.7
519.54	34870.25
519.742	35871.71
519.944	36096.99
520.146	36883.41
520.348	37315.53
520.55	37610.43
520.752	37807.04
520.954	38601.65
521.155	38484.92
521.357	39439.27
521.559	39832.48
521.761	40168.35
521.963	40395.67
522.164	40850.32
522.366	40934.29
522.568	41612.17
522.77	41671.56
522.971	42120.06
523.173	41888.64
523.375	42492.79
523.576	42371.96
523.778	42044.29
523.98	42703.73
524.181	43340.65
524.383	43318.12
524.584	43817.83
524.786	43592.55
524.988	43289.45
525.189	43514.73
525.391	43492.2
525.592	43754.34
525.794	43465.58
525.995	42982.26
526.197	43318.12
526.398	43400.04
526.6	43434.86
526.801	43285.36
527.003	43299.69
527.204	42859.38
527.406	43096.94
527.607	42752.88
527.808	42353.53
528.01	41429.9
528.211	41722.76
528.412	41802.63
528.614	41466.76
528.815	41380.74
529.016	41126.8
529.218	40391.58
529.419	40111
529.62	39984.03
529.822	39314.34
530.023	39136.17
530.224	38679.47
530.425	38349.75
530.626	37620.67
530.828	37014.48
531.029	37428.16
531.23	36482
531.431	36168.66
531.632	35863.52
531.833	35591.14
532.035	35535.84
532.236	34552.82
532.437	34345.97
532.638	33629.18
532.839	33645.57
533.04	32812.04
533.241	32480.27
533.442	32574.48
533.643	32099.35
533.844	31595.55
534.045	31214.63
534.246	30059.57
534.447	29944.89
534.648	29539.39
534.849	29484.09
535.05	28728.39
535.251	28167.25
535.451	27833.43
535.652	27706.46
535.853	27223.14
536.054	27098.21
536.255	26631.27
536.456	26150
536.657	26199.15
536.857	25427.07
537.058	24949.89
537.259	25044.1
537.46	24530.06
537.66	23973.01
537.861	23610.52
538.062	23547.03
538.263	23295.13
538.463	22824.1
538.664	22783.14
538.865	22615.21
539.065	22373.55
539.266	21763.25
539.466	21802.16
539.667	21105.85
539.868	21019.84
540.068	20939.97
540.269	20378.83
540.469	20493.51
540.67	20045.01
540.87	19731.67
541.071	19688.66
541.271	19514.58
541.472	19064.03
541.672	19215.58
541.873	18324.71
542.073	18351.34
542.274	18173.16
542.474	17986.8
542.675	17941.74
542.875	17861.87
543.075	17132.79
543.276	17085.69
543.476	17247.48
543.676	16956.67
543.877	16739.58
544.077	16669.95
544.277	16184.59
544.478	16211.21
544.678	16155.91
544.878	15609.11
545.078	15605.01
545.279	15322.39
545.479	15109.4
545.679	14964
545.879	14966.04
546.079	14783.77
546.28	14411.04
546.48	14306.6
546.68	14302.5
546.88	13927.72
547.08	13792.56
547.28	13991.21
547.48	13409.59
547.68	13364.53
547.88	13221.17
548.081	13157.69
548.281	12735.81
548.481	12711.23
548.681	12633.41
548.881	12469.57
549.081	12264.77
549.28	12047.69
549.48	12055.88
549.68	11992.39
549.88	11760.97
550.08	11427.15
550.28	11427.15
550.48	11335
550.68	10880.35
550.88	10687.84
551.08	10552.67
551.279	10552.67
551.479	10214.76
551.679	10153.32
551.879	10003.82
552.079	10024.3
552.278	9891.18
552.478	9729.39
552.678	9600.37
552.878	9432.43
553.077	9248.11
553.277	8873.34
553.477	9100.66
553.676	8826.23
553.876	8738.17
554.076	8447.36
554.275	8379.78
554.475	8394.11
554.674	8140.16
554.874	8148.36
555.074	7693.71
555.273	7863.69
555.473	7775.63
555.672	7429.52
555.872	7353.74
556.071	7220.63
556.271	7335.31
556.47	7069.08
556.67	6858.14
556.869	6686.11
557.068	6706.59
557.268	6841.75
557.467	6569.37
557.667	6383.01
557.866	6288.8
558.065	6260.13
558.265	5948.84
558.464	6010.28
558.663	5930.41
558.863	5879.21
559.062	5793.19
559.261	5670.31
559.461	5567.92
559.66	5389.74
559.859	5303.73
560.058	5318.06
560.258	5088.69
560.457	5119.41
560.656	5166.51
560.855	4890.04
561.054	5086.64
561.253	4873.65
561.453	4808.12
561.652	4601.27
561.851	4685.24
562.05	4543.93
562.249	4419
562.448	4466.11
562.647	4392.38
562.846	4257.22
563.045	4312.51
563.244	4152.77
563.443	4148.67
563.642	3945.92
563.841	4052.42
564.04	3888.58
564.239	3847.62
564.438	3743.17
564.637	3661.26
564.836	3753.41
565.035	3511.75
565.234	3532.23
565.432	3605.96
565.631	3591.63
565.83	3489.23
566.029	3419.6
566.228	3311.05
566.427	3233.23
566.625	3210.7
566.824	3206.61
567.023	3100.11
567.222	3022.29
567.42	3071.44
567.619	3042.77
567.818	3028.43
568.016	3218.89
568.215	3022.29
568.414	3050.96
568.612	2868.69
568.811	2909.65
569.01	2833.88
569.208	2665.94
569.407	2817.49
569.605	2667.99
569.804	2534.87
570.002	2618.84
570.201	2407.9
570.4	2360.8
570.598	2495.96
570.797	2493.91
570.995	2209.25
571.193	2405.85
571.392	2401.76
571.59	2217.44
571.789	2295.26
571.987	2190.81
572.186	2229.73
572.384	2110.94
572.582	2119.14
572.781	2158.05
572.979	2080.22
573.177	1971.68
573.376	1910.24
573.574	2065.89
573.772	1920.48
573.971	1881.57
574.169	1844.71
574.367	1871.33
574.565	1775.08
574.763	1820.13
574.962	1807.84
575.16	1689.06
575.358	1619.43
575.556	1615.34
575.754	1648.1
575.952	1635.82
576.151	1596.9
576.349	1695.21
576.547	1500.65
576.745	1543.66
576.943	1576.42
577.141	1504.75
577.339	1357.29
577.537	1439.21
577.735	1445.35
577.933	1390.06
578.131	1205.74
578.329	1443.31
578.527	1265.13
578.725	1351.15
578.923	1289.71
579.121	1342.96
579.319	1172.97
579.516	1213.93
579.714	1392.11
579.912	1152.49
580.11	1134.06
580.308	1156.59
580.506	1078.77
580.704	1064.43
580.901	1019.38
581.099	1291.76
581.297	1052.14
581.495	1074.67
581.692	1060.34
581.89	1179.12
582.088	1048.05
582.285	982.51
582.483	947.7
582.681	1046
582.878	835.06
583.076	986.61
583.274	1033.71
583.471	1103.34
583.669	937.46
583.866	833.01
584.064	869.87
584.262	802.29
584.459	796.15
584.657	880.11
584.854	847.35
585.052	808.44
585.249	824.82
585.447	853.49
585.644	755.19
585.841	916.98
586.039	775.67
586.236	833.01
586.434	751.09
586.631	749.04
586.828	703.99
587.026	671.22
587.223	638.45
587.42	714.23
587.618	738.8
587.815	798.2
588.012	617.97
588.21	644.6
588.407	734.71
588.604	706.04
588.801	648.69
588.999	687.61
589.196	714.23
589.393	669.17
589.59	628.21
589.787	660.98
589.984	624.12
590.182	632.31
590.379	519.67
590.576	630.26
590.773	519.67
590.97	560.63
591.167	660.98
591.364	669.17
591.561	548.34
591.758	691.7
591.955	646.65
592.152	628.21
592.349	470.52
592.546	529.91
592.743	595.45
592.94	527.86
593.137	579.06
593.334	663.03
593.531	601.59
593.727	583.16
593.924	599.54
594.121	515.58
594.318	529.91
594.515	572.92
594.712	701.94
594.908	732.66
595.105	531.96
595.302	685.56
595.499	710.13
595.696	701.94
595.892	613.88
596.089	726.52
596.286	656.89
596.482	828.92
596.679	759.28
596.876	763.38
597.072	792.05
597.269	736.76
597.466	824.82
597.662	763.38
597.859	814.58
598.055	873.97
598.252	1015.28
598.448	1023.47
598.645	1015.28
598.841	1074.67
599.038	1119.73
599.234	1138.16
599.431	1287.66
599.627	1179.12
599.824	1232.37
600.02	1269.23
600.217	1347.05
600.413	1455.59
600.609	1402.35
600.806	1734.12
601.002	1684.97
601.198	1570.28
601.395	1754.6
601.591	1854.95
601.787	1727.97
601.984	1938.91
602.18	1930.72
602.376	1891.81
602.572	2117.09
602.769	2254.3
602.965	2270.69
603.161	2403.8
603.357	2414.04
603.553	2457.05
603.75	2469.34
603.946	2520.54
604.142	2776.53
604.338	2903.51
604.534	2864.6
604.73	2915.8
604.926	3046.87
605.122	3341.77
605.318	3319.25
605.514	3444.17
605.71	3423.69
605.906	3661.26
606.102	3730.89
606.298	3952.07
606.494	4001.22
606.69	4089.28
606.886	4230.59
607.082	4421.05
607.278	4445.63
607.474	4804.02
607.67	4705.72
607.866	4636.09
608.062	5060.02
608.257	5004.72
608.453	5199.28
608.649	5289.39
608.845	5502.38
609.041	5660.07
609.236	5975.46
609.432	5944.74
609.628	6247.84
609.824	6509.98
610.019	6432.16
610.215	6464.93
610.411	6837.66
610.606	7097.75
610.802	7372.18
610.998	7527.82
611.193	7517.58
611.389	7507.34
611.584	7947.65
611.78	7976.33
611.976	8392.06
612.171	8951.16
612.367	8781.18
612.562	9074.04
612.758	9313.65
612.953	9377.14
613.149	9846.12
613.344	10026.34
613.539	10526.05
613.735	10620.25
613.93	10913.11
614.126	11013.46
614.321	11648.33
614.517	11834.7
614.712	12084.55
614.907	12199.24
615.103	12803.39
615.298	12987.71
615.493	13575.47
615.688	13438.26
615.884	14339.37
616.079	14107.94
616.274	15062.3
616.47	15047.96
616.665	15465.75
616.86	15951.12
617.055	16256.26
617.25	16637.19
617.445	17292.54
617.641	17353.98
617.836	17683.7
618.031	18005.23
618.226	19043.55
618.421	19117.28
618.616	19664.08
618.811	19813.59
619.006	20774.08
619.201	20843.71
619.396	21517.5
619.591	21464.25
619.786	22799.52
619.981	22654.12
620.176	23594.14
620.371	23852.18
620.566	24054.93
620.761	24921.22
620.956	25422.97
621.151	25437.31
621.346	26623.08
621.541	26158.19
621.735	27384.93
621.93	27479.13
622.125	28146.77
622.32	28431.44
622.515	29486.14
622.709	29510.72
622.904	30200.88
623.099	30819.37
623.294	31337.51
623.488	31628.32
623.683	32203.8
623.878	32719.88
624.072	33362.95
624.267	33522.69
624.462	34561.01
624.656	34513.91
624.851	35535.84
625.046	35871.71
625.24	36447.19
625.435	36826.06
625.629	37624.77
625.824	37913.53
626.018	38523.83
626.213	38130.62
626.407	39320.49
626.602	39168.94
626.796	39639.97
626.991	40240.03
627.185	39977.89
627.38	40330.14
627.574	40995.73
627.768	41102.22
627.963	41532.29
628.157	41448.33
628.352	42265.47
628.546	41530.25
628.74	42208.12
628.935	41651.08
629.129	41788.29
629.323	41321.35
629.517	40930.19
629.712	41134.99
629.906	40301.47
630.1	39930.78
630.294	40119.2
630.489	39353.26
630.683	39207.85
630.877	38306.74
631.071	37622.72
631.265	37528.52
631.459	36398.04
631.653	35732.45
631.848	34966.51
632.042	34270.2
632.236	33606.66
632.43	32551.95
632.624	31890.46
632.818	30952.49
633.012	29457.47
633.206	28906.57
633.4	28324.94
633.594	26745.96
633.788	26233.97
633.982	25441.4
634.176	24689.8
634.369	23489.69
634.563	22523.05
634.757	21494.97
634.951	21126.33
635.145	20128.97
635.339	19516.63
635.533	18666.72
635.726	18224.36
635.92	16889.09
636.114	16522.5
636.308	15750.42
636.501	15150.36
636.695	14507.3
636.889	13749.55
637.083	13317.43
637.276	12842.3
637.47	12168.52
637.664	11711.82
637.857	11298.13
638.051	10859.87
638.244	10401.12
638.438	9856.36
638.632	9829.74
638.825	9139.57
639.019	8883.58
639.212	8605.05
639.406	8422.78
639.599	7701.9
639.793	7556.49
639.986	7306.64
640.18	6985.11
640.373	6444.45
640.567	6446.49
640.76	6223.27
640.954	6014.37
641.147	5813.67
641.34	5516.72
641.534	5408.17
641.727	5326.25
641.92	5094.83
642.114	4787.64
642.307	4441.53
642.5	4412.86
642.694	4173.25
642.887	3988.93
643.08	4074.95
643.273	3812.81
643.467	3603.91
643.66	3354.06
643.853	3376.59
644.046	3257.81
644.239	3106.26
644.432	3177.94
644.626	2776.53
644.819	2805.21
645.012	2711
645.205	2635.22
645.398	2590.17
645.591	2471.39
645.784	2295.26
645.977	2162.14
646.17	2061.79
646.363	2080.22
646.556	1949.15
646.749	1809.89
646.942	1781.22
647.135	1805.8
647.328	1678.82
647.521	1607.14
647.714	1617.38
647.907	1484.27
648.099	1412.59
648.292	1549.8
648.485	1345
648.678	1295.85
648.871	1291.76
649.064	1209.84
649.256	1070.58
649.449	1029.62
649.642	1043.95
649.835	945.65
650.027	1019.38
650.22	933.36
650.413	890.35
650.605	986.61
650.798	869.87
650.991	712.18
651.183	716.28
651.376	822.77
651.568	871.92
651.761	667.13
651.954	806.39
652.146	566.78
652.339	726.52
652.531	775.67
652.724	581.11
652.916	597.49
653.109	505.34
653.301	628.21
653.494	570.87
653.686	531.96
653.879	515.58
654.071	527.86
654.263	400.89
654.456	421.37
654.648	517.62
654.84	519.67
655.033	429.56
655.225	499.19
655.417	310.78
655.61	525.82
655.802	507.38
655.994	525.82
656.186	345.59
656.379	474.62
656.571	271.87
656.763	308.73
656.955	284.16
657.148	318.97
657.34	398.84
657.532	325.12
657.724	292.35
657.916	394.75
658.108	384.51
658.3	273.92
658.492	349.69
658.684	249.34
658.876	302.59
659.068	165.37
659.26	183.81
659.452	187.9
659.644	308.73
659.836	388.6
660.028	235
660.22	161.28
660.412	171.52
660.604	187.9
660.796	185.85
660.988	286.2
661.18	292.35
661.372	251.39
661.563	171.52
661.755	151.04
661.947	148.99
662.139	99.84
662.331	177.66
662.522	200.19
662.714	161.28
662.906	99.84
663.097	183.81
663.289	110.08
663.481	85.5
663.673	208.38
663.864	140.8
664.056	257.53
664.247	67.07
664.439	239.1
664.631	206.33
664.822	251.39
665.014	214.52
665.205	101.89
665.397	136.7
665.588	101.89
665.78	108.03
665.971	228.86
666.163	108.03
666.354	200.19
666.546	108.03
666.737	99.84
666.929	138.75
667.12	110.08
667.311	73.21
667.503	87.55
667.694	67.07
667.885	89.6
668.077	130.56
668.268	44.54
668.459	105.98
668.651	187.9
668.842	132.61
669.033	13.82
669.224	93.69
669.416	292.35
669.607	85.5
669.798	38.4
669.989	235
670.18	91.65
670.371	181.76
670.563	-20.99
670.754	177.66
670.945	140.8
671.136	118.27
671.327	91.65
671.518	136.7
671.709	196.09
671.9	110.08
672.091	183.81
672.282	163.33
672.473	153.09
672.664	13.82
672.855	89.6
673.046	167.42
673.237	153.09
673.428	103.93
673.619	177.66
673.809	77.31
674	151.04
674.191	161.28
674.382	75.26
674.573	118.27
674.764	136.7
674.954	247.29
675.145	28.16
675.336	99.84
675.527	140.8
675.717	28.16
675.908	30.21
676.099	75.26
676.289	48.64
676.48	9.73
676.671	130.56
676.861	101.89
677.052	140.8
677.243	11.78
677.433	120.32
677.624	212.48
677.814	202.24
678.005	163.33
678.195	206.33
678.386	42.5
678.576	165.37
678.767	91.65
678.957	91.65
679.148	157.18
679.338	271.87
679.529	128.51
679.719	114.17
679.909	161.28
680.1	157.18
680.29	144.89
680.481	83.45
680.671	185.85
680.861	112.13
681.052	165.37
681.242	93.69
681.432	161.28
681.622	138.75
681.813	101.89
682.003	56.83
682.193	87.55
682.383	71.17
682.573	105.98
682.764	71.17
682.954	155.13
683.144	116.22
683.334	116.22
683.524	87.55
683.714	146.94
683.904	194.05
684.094	77.31
684.284	216.57
684.474	206.33
684.664	249.34
684.854	206.33
685.044	165.37
685.234	173.57
685.424	159.23
685.614	216.57
685.804	151.04
685.994	194.05
686.184	148.99
686.374	226.81
686.564	165.37
686.753	116.22
686.943	99.84
687.133	165.37
687.323	99.84
687.513	181.76
687.702	112.13
687.892	93.69
688.082	198.14
688.272	282.11
688.461	220.67
688.651	343.55
688.841	171.52
689.03	153.09
689.22	183.81
689.41	251.39
689.599	171.52
689.789	103.93
689.979	304.64
690.168	75.26
690.358	165.37
690.547	142.85
690.737	232.96
690.926	161.28
691.116	189.95
691.305	173.57
691.495	235
691.684	11.78
691.874	142.85
692.063	118.27
692.252	151.04
692.442	284.16
692.631	91.65
692.82	65.02
693.01	202.24
693.199	146.94
693.388	171.52
693.578	165.37
693.767	142.85
693.956	177.66
694.146	163.33
694.335	251.39
694.524	153.09
694.713	167.42
694.902	155.13
695.092	65.02
695.281	132.61
695.47	99.84
695.659	34.3
695.848	87.55
696.037	81.41
696.226	192
696.415	214.52
696.604	245.24
696.793	239.1
696.982	146.94
697.171	314.88
697.36	151.04
697.549	163.33
697.738	-35.33
697.927	134.65
698.116	138.75
698.305	183.81
698.494	142.85
698.683	177.66
698.872	257.53
699.061	116.22
699.25	101.89
699.438	75.26
699.627	87.55
699.816	220.67
700.005	79.36
700.193	101.89
700.382	144.89
700.571	194.05
700.76	151.04
700.948	181.76
701.137	183.81
701.326	181.76
701.514	65.02
701.703	200.19
701.892	161.28
702.08	214.52
702.269	134.65
702.457	130.56
702.646	114.17
702.834	95.74
703.023	130.56
703.212	169.47
703.4	167.42
703.589	38.4
703.777	148.99
703.965	112.13
704.154	97.79
704.342	38.4
704.531	40.45
704.719	122.37
704.907	247.29
705.096	-2.56
705.284	122.37
705.472	157.18
705.661	153.09
705.849	179.71
706.037	208.38
706.226	153.09
706.414	126.46
706.602	36.35
706.79	230.91
706.979	120.32
707.167	192
707.355	87.55
707.543	159.23
707.731	93.69
707.919	155.13
708.107	60.93
708.296	50.69
708.484	110.08
708.672	175.61
708.86	177.66
709.048	151.04
709.236	48.64
709.424	200.19
709.612	112.13
709.8	24.06
709.988	97.79
710.176	253.44
710.364	167.42
710.551	196.09
710.739	148.99
710.927	79.36
711.115	132.61
711.303	200.19
711.491	157.18
711.679	38.4
711.866	284.16
712.054	71.17
712.242	114.17
712.43	292.35
712.617	114.17
712.805	228.86
712.993	95.74
713.181	124.41
713.368	185.85
713.556	128.51
713.744	56.83
713.931	290.3
714.119	173.57
714.306	122.37
714.494	71.17
714.682	138.75
714.869	122.37
715.057	134.65
715.244	52.74
715.432	153.09
715.619	48.64
715.807	192
715.994	124.41
716.182	204.28
716.369	146.94
716.556	224.76
716.744	120.32
716.931	97.79
717.119	175.61
717.306	204.28
717.493	208.38
717.681	153.09
717.868	151.04
718.055	224.76
718.242	144.89
718.43	132.61
718.617	237.05
718.804	17.92
718.991	128.51
719.179	173.57
719.366	144.89
719.553	167.42
719.74	91.65
719.927	185.85
720.114	171.52
720.301	87.55
720.488	75.26
720.676	120.32
720.863	194.05
721.05	298.49
721.237	235
721.424	222.72
721.611	224.76
721.798	60.93
721.985	95.74
722.172	110.08
722.358	194.05
722.545	89.6
722.732	218.62
722.919	259.58
723.106	247.29
723.293	128.51
723.48	251.39
723.667	146.94
723.853	220.67
724.04	214.52
724.227	255.48
724.414	144.89
724.6	290.3
724.787	325.12
724.974	232.96
725.161	194.05
725.347	65.02
725.534	142.85
725.72	318.97
725.907	253.44
726.094	249.34
726.28	183.81
726.467	208.38
726.653	120.32
726.84	257.53
727.027	366.07
727.213	157.18
727.4	253.44
727.586	179.71
727.773	206.33
727.959	144.89
728.145	216.57
728.332	218.62
728.518	210.43
728.705	177.66
728.891	275.96
729.077	288.25
729.264	110.08
729.45	275.96
729.636	253.44
729.823	226.81
730.009	257.53
730.195	222.72
730.382	267.77
730.568	118.27
730.754	271.87
730.94	202.24
731.126	239.1
731.313	210.43
731.499	196.09
731.685	267.77
731.871	208.38
732.057	259.58
732.243	345.59
732.429	275.96
732.615	271.87
732.801	185.85
732.987	222.72
733.173	196.09
733.359	253.44
733.545	339.45
733.731	175.61
733.917	355.83
734.103	337.4
734.289	216.57
734.475	222.72
734.661	353.79
734.847	286.2
735.033	253.44
735.219	351.74
735.404	206.33
735.59	292.35
735.776	204.28
735.962	222.72
736.148	245.24
736.333	384.51
736.519	337.4
736.705	167.42
736.89	241.15
737.076	239.1
737.262	243.2
737.447	278.01
737.633	230.91
737.819	335.35
738.004	271.87
738.19	259.58
738.375	237.05
738.561	247.29
738.747	241.15
738.932	237.05
739.118	474.62
739.303	249.34
739.489	306.68
739.674	288.25
739.859	222.72
740.045	321.02
740.23	214.52
740.416	101.89
740.601	255.48
740.786	298.49
740.972	267.77
741.157	251.39
741.342	210.43
741.528	200.19
741.713	292.35
741.898	202.24
742.084	224.76
742.269	253.44
742.454	384.51
742.639	239.1
742.824	212.48
743.01	333.31
743.195	341.5
743.38	249.34
743.565	210.43
743.75	220.67
743.935	226.81
744.12	224.76
744.305	226.81
744.49	245.24
744.675	294.4
744.86	220.67
745.045	329.21
745.23	282.11
745.415	237.05
745.6	337.4
745.785	177.66
745.97	245.24
746.155	292.35
746.34	343.55
746.525	273.92
746.71	392.7
746.895	122.37
747.079	89.6
747.264	216.57
747.449	345.59
747.634	263.68
747.819	280.06
748.003	210.43
748.188	161.28
748.373	294.4
748.557	304.64
748.742	210.43
748.927	265.72
749.111	290.3
749.296	222.72
749.481	273.92
749.665	253.44
749.85	255.48
750.034	163.33
750.219	251.39
750.404	171.52
750.588	243.2
750.773	218.62
750.957	216.57
751.141	230.91
751.326	247.29
751.51	85.5
751.695	245.24
751.879	122.37
752.064	323.07
752.248	206.33
752.432	351.74
752.617	251.39
752.801	284.16
752.985	118.27
753.17	282.11
753.354	296.44
753.538	273.92
753.722	157.18
753.907	87.55
754.091	185.85
754.275	228.86
754.459	112.13
754.643	71.17
754.828	259.58
755.012	204.28
755.196	187.9
755.38	112.13
755.564	130.56
755.748	198.14
755.932	245.24
756.116	253.44
756.3	196.09
756.484	151.04
756.668	208.38
756.852	85.5
757.036	103.93
757.22	148.99
757.404	108.03
757.588	159.23
757.772	216.57
757.956	232.96
758.14	255.48
758.323	163.33
758.507	232.96
758.691	171.52
758.875	194.05
759.059	253.44
759.242	136.7
759.426	118.27
759.61	159.23
759.794	77.31
759.977	228.86
760.161	302.59
760.345	153.09
760.528	216.57
760.712	230.91
760.895	222.72
761.079	198.14
761.263	38.4
761.446	91.65
761.63	165.37
761.813	202.24
761.997	95.74
762.18	222.72
762.364	130.56
762.547	-41.47
762.731	122.37
762.914	189.95
763.098	108.03
763.281	79.36
763.464	122.37
763.648	124.41
763.831	83.45
764.015	75.26
764.198	181.76
764.381	99.84
764.564	122.37
764.748	161.28
764.931	159.23
765.114	118.27
765.297	165.37
765.481	85.5
765.664	179.71
765.847	42.5
766.03	235
766.213	24.06
766.397	196.09
766.58	-49.66
766.763	124.41
766.946	161.28
767.129	79.36
767.312	75.26
767.495	105.98
767.678	-14.85
767.861	54.78
768.044	120.32
768.227	9.73
768.41	126.46
768.593	159.23
768.776	155.13
768.959	124.41
769.142	171.52
769.324	116.22
769.507	105.98
769.69	122.37
769.873	81.41
770.056	390.65
770.239	105.98
770.421	275.96
770.604	159.23
770.787	40.45
770.97	67.07
771.152	24.06
771.335	144.89
771.518	110.08
771.7	161.28
771.883	181.76
772.066	79.36
772.248	126.46
772.431	112.13
772.613	130.56
772.796	83.45
772.978	194.05
773.161	202.24
773.343	11.78
773.526	3.58
773.708	-86.53
773.891	-37.38
774.073	60.93
774.256	97.79
774.438	161.28
774.621	77.31
774.803	148.99
774.985	34.3
775.168	134.65
775.35	42.5
775.532	79.36
775.715	44.54
775.897	44.54
776.079	65.02
776.261	110.08
776.444	9.73
776.626	114.17
776.808	52.74
776.99	1.54
777.173	101.89
777.355	91.65
777.537	54.78
777.719	142.85
777.901	69.12
778.083	73.21
778.265	-66.05
778.447	87.55
778.629	32.26
778.811	38.4
778.993	134.65
779.175	105.98
779.357	120.32
779.539	-41.47
779.721	34.3
779.903	128.51
780.085	26.11
780.267	3.58
780.449	24.06
780.631	128.51
780.812	185.85
780.994	36.35
781.176	52.74
781.358	58.88
781.54	101.89
781.721	132.61
781.903	151.04
782.085	54.78
782.267	169.47
782.448	42.5
782.63	26.11
782.812	67.07
782.993	60.93
783.175	85.5
783.357	-12.8
783.538	120.32
783.72	-27.14
783.901	71.17
784.083	105.98
784.264	77.31
784.446	-47.62
784.627	40.45
784.809	165.37
784.99	-57.86
785.172	85.5
785.353	38.4
785.535	-2.56
785.716	28.16
785.897	-6.66
786.079	19.97
786.26	75.26
786.441	95.74
786.623	-125.44
786.804	13.82
786.985	101.89
787.167	112.13
787.348	-16.9
787.529	50.69
787.71	173.57
787.891	120.32
788.073	-68.09
788.254	-29.18
788.435	144.89
788.616	108.03
788.797	7.68
788.978	-2.56
789.159	-4.61
789.34	79.36
789.522	85.5
789.703	-61.95
789.884	22.02
790.065	118.27
790.246	124.41
790.427	105.98
790.607	124.41
790.788	71.17
790.969	-20.99
791.15	7.68
791.331	11.78
791.512	-47.62
791.693	-72.19
791.874	118.27
792.054	173.57
792.235	97.79
792.416	-82.43
792.597	5.63
792.778	114.17
792.958	-18.94
793.139	1.54
793.32	87.55
793.5	-39.42
793.681	128.51
793.862	24.06
794.042	65.02
794.223	-107.01
794.404	85.5
794.584	19.97
794.765	-29.18
794.945	65.02
795.126	118.27
795.306	99.84
795.487	-18.94
795.667	5.63
795.848	89.6
796.028	22.02
796.209	11.78
796.389	-33.28
796.57	32.26
796.75	-23.04
796.93	-14.85
797.111	-4.61
797.291	75.26
797.471	30.21
797.652	3.58
797.832	-86.53
798.012	69.12
798.192	-29.18
798.373	-55.81
798.553	1.54
798.733	28.16
798.913	-23.04
799.093	58.88
799.274	-6.66
799.454	108.03
799.634	93.69
799.814	71.17
799.994	93.69
800.174	36.35
800.354	-14.85
800.534	-25.09
800.714	112.13
800.894	-182.78
801.074	-78.33
801.254	5.63
801.434	75.26
801.614	13.82
801.794	-68.09
801.974	1945.06
802.154	-29.18
802.334	120.32
802.514	7.68
802.693	9.73
802.873	-47.62
803.053	108.03
803.233	-0.51
803.413	28.16
803.592	-33.28
803.772	-25.09
803.952	65.02
804.131	-39.42
804.311	101.89
804.491	79.36
804.67	-55.81
804.85	-55.81
805.03	24.06
805.209	26.11
805.389	32.26
805.568	-29.18
805.748	-14.85
805.928	-49.66
806.107	26.11
806.287	60.93
806.466	93.69
806.646	17.92
806.825	5.63
807.004	-2.56
807.184	42.5
807.363	24.06
807.543	99.84
807.722	-86.53
807.901	71.17
808.081	52.74
808.26	-68.09
808.439	46.59
808.619	-6.66
808.798	54.78
808.977	89.6
809.156	69.12
809.336	17.92
809.515	48.64
809.694	-82.43
809.873	-45.57
810.052	-27.14
810.231	65.02
810.411	-16.9
810.59	95.74
810.769	30.21
810.948	38.4
811.127	-76.29
811.306	17.92
811.485	48.64
811.664	93.69
811.843	34.3
812.022	-49.66
812.201	-59.9
812.38	-100.86
812.559	-45.57
812.737	83.45
812.916	-133.63
813.095	26.11
813.274	69.12
813.453	-4.61
813.632	65.02
813.811	114.17
813.989	-51.71
814.168	1.54
814.347	-57.86
814.526	87.55
814.704	155.13
814.883	85.5
815.062	-92.67
815.24	-29.18
815.419	-37.38
815.598	83.45
815.776	-107.01
815.955	54.78
816.133	-74.24
816.312	17.92
816.49	-86.53
816.669	-61.95
816.847	-49.66
817.026	44.54
817.204	-18.94
817.383	-102.91
817.561	-23.04
817.74	26.11
817.918	87.55
818.097	-8.7
818.275	19.97
818.453	110.08
818.632	-0.51
818.81	-12.8
818.988	-39.42
819.167	-37.38
819.345	44.54
819.523	-10.75
819.701	-23.04
819.879	71.17
820.058	-43.52
820.236	42.5
820.414	46.59
820.592	3.58
820.77	-78.33
820.948	-59.9
821.127	-43.52
821.305	56.83
821.483	-76.29
821.661	50.69
821.839	-29.18
822.017	-14.85
822.195	71.17
822.373	15.87
822.551	44.54
822.729	28.16
822.907	-16.9
823.085	-0.51
823.262	58.88
823.44	30.21
823.618	-0.51
823.796	5.63
823.974	-6.66
824.152	-86.53
824.329	-59.9
824.507	-33.28
824.685	9.73
824.863	26.11
825.04	24.06
825.218	62.98
825.396	13.82
825.574	50.69
825.751	-66.05
825.929	-12.8
826.107	-49.66
826.284	-10.75
826.462	58.88
826.639	-59.9
826.817	-92.67
826.994	-0.51
827.172	-88.57
827.349	128.51
827.527	130.56
827.704	-27.14
827.882	136.7
828.059	11.78
828.237	-80.38
828.414	87.55
828.591	-217.6
828.769	69.12
828.946	-41.47
829.124	83.45
829.301	58.88
829.478	22.02
829.655	58.88
829.833	11.78
830.01	-57.86
830.187	-68.09
830.364	1.54
830.542	36.35
830.719	126.46
830.896	-6.66
831.073	56.83
831.25	38.4
831.427	62.98
831.604	-25.09
831.782	-86.53
831.959	5.63
832.136	32.26
832.313	42.5
832.49	-88.57
832.667	-84.48
832.844	-20.99
833.021	75.26
833.198	38.4
833.374	11.78
833.551	24.06
833.728	-31.23
833.905	65.02
834.082	-53.76
834.259	52.74
834.436	89.6
834.612	-76.29
834.789	30.21
834.966	-35.33
835.143	19.97
835.319	-117.25
835.496	36.35
835.673	58.88
835.85	-18.94
836.026	73.21
836.203	136.7
836.38	-80.38
836.556	-14.85
836.733	-72.19
836.909	46.59
837.086	-139.77
837.262	-29.18
837.439	-6.66
837.616	-55.81
837.792	48.64
837.968	-10.75
838.145	-135.68
838.321	-45.57
838.498	52.74
838.674	85.5
838.851	9.73
839.027	5.63
839.203	5.63
839.38	30.21
839.556	-78.33
839.732	108.03
839.909	-61.95
840.085	-2.56
840.261	-20.99
840.437	-8.7
840.614	-47.62
840.79	40.45
840.966	28.16
841.142	-20.99
841.318	-51.71
841.494	-10.75
841.671	-6.66
841.847	-12.8
842.023	-86.53
842.199	30.21
842.375	24.06
842.551	-123.39
842.727	-59.9
842.903	67.07
843.079	-113.15
843.255	-14.85
843.431	-51.71
843.607	9.73
843.783	-86.53
843.959	-18.94
844.134	-66.05
844.31	118.27
844.486	-72.19
844.662	-80.38
844.838	15.87
845.013	-27.14
845.189	81.41
845.365	110.08
845.541	-4.61
845.716	54.78
845.892	-4.61
846.068	-117.25
846.244	-39.42
846.419	24.06
846.595	-16.9
846.77	-90.62
846.946	60.93
847.122	-53.76
847.297	-8.7
847.473	128.51
847.648	-119.29
847.824	-23.04
847.999	-115.2
848.175	40.45
848.35	1.54
848.526	146.94
848.701	97.79
848.876	99.84
849.052	17.92
849.227	-2.56
849.403	-64
849.578	-27.14
849.753	32.26
849.929	11.78
850.104	-92.67
850.279	-31.23
850.454	126.46
850.63	22.02
850.805	73.21
850.98	54.78
851.155	-10.75
851.33	32.26
851.505	-117.25
851.681	69.12
851.856	-100.86
852.031	52.74
852.206	3.58
852.381	-4.61
852.556	9.73
852.731	3.58
852.906	32.26
853.081	-25.09
853.256	73.21
853.431	-43.52
853.606	-39.42
853.781	-74.24
853.956	-29.18
854.131	-27.14
854.305	-80.38
854.48	-25.09
854.655	-33.28
854.83	-66.05
855.005	-6.66
855.18	-104.96
855.354	-4.61
855.529	-39.42
855.704	-84.48
855.879	-6.66
856.053	-66.05
856.228	36.35
856.403	-64
856.577	17.92
856.752	-47.62
856.926	-20.99
857.101	73.21
857.276	-94.72
857.45	34.3
857.625	17.92
857.799	-66.05
857.974	5.63
858.148	-47.62
858.323	-18.94
858.497	-10.75
858.672	-123.39
858.846	24.06
859.02	22.02
859.195	-66.05
859.369	-64
859.543	-18.94
859.718	-55.81
859.892	-45.57
860.066	5.63
860.241	-55.81
860.415	-51.71
860.589	46.59
860.763	-10.75
860.938	-31.23
861.112	3.58
861.286	1.54
861.46	50.69
861.634	-41.47
861.808	65.02
861.982	-33.28
862.157	-137.73
862.331	-12.8
862.505	-104.96
862.679	-100.86
862.853	-53.76
863.027	17.92
863.201	69.12
863.375	-25.09
863.549	44.54
863.722	-39.42
863.896	69.12
864.07	-162.3
864.244	50.69
864.418	19.97
864.592	-37.38
864.766	-14.85
864.939	44.54
865.113	7.68
865.287	89.6
865.461	-66.05
865.634	38.4
865.808	1.54
865.982	-27.14
866.156	-117.25
866.329	-133.63
866.503	-10.75
866.676	5.63
866.85	71.17
867.024	-66.05
867.197	28.16
867.371	-16.9
867.544	65.02
867.718	-133.63
867.891	71.17
868.065	-84.48
868.238	-18.94
868.412	73.21
868.585	71.17
868.759	11.78
868.932	-8.7
869.105	-100.86
869.279	50.69
869.452	-111.1
869.625	30.21
869.799	11.78
869.972	-90.62
870.145	13.82
870.319	34.3
870.492	-61.95
870.665	-68.09
870.838	-45.57
871.011	-57.86
871.185	-20.99
871.358	-20.99
871.531	42.5
871.704	-39.42
871.877	-10.75
872.05	-41.47
872.223	-70.14
872.396	30.21
872.569	-6.66
872.742	-29.18
872.915	-31.23
873.088	-55.81
873.261	-70.14
873.434	52.74
873.607	-98.81
873.78	71.17
873.953	-59.9
874.126	-37.38
874.299	54.78
874.471	-111.1
874.644	-18.94
874.817	-14.85
874.99	73.21
875.163	-10.75
875.335	-12.8
875.508	-8.7
875.681	-55.81
875.853	-27.14
876.026	-20.99
876.199	19.97
876.371	-76.29
876.544	-43.52
876.717	-53.76
876.889	26.11
877.062	-16.9
877.234	-84.48
877.407	-127.49
877.579	-23.04
877.752	9.73
877.924	95.74
878.097	30.21
878.269	15.87
878.442	7.68
878.614	-8.7
878.786	79.36
878.959	-33.28
879.131	-51.71
879.303	-84.48
879.476	-8.7
879.648	30.21
879.82	-27.14
879.993	-90.62
880.165	-59.9
880.337	-70.14
880.509	-14.85
880.681	-53.76
880.854	7.68
881.026	9.73
881.198	97.79
881.37	19.97
881.542	44.54
881.714	-57.86
881.886	-47.62
882.058	-66.05
882.23	11.78
882.402	-18.94
882.574	32.26
882.746	58.88
882.918	79.36
883.09	71.17
883.262	-18.94
883.434	-64
883.606	-86.53
883.778	-12.8
883.95	91.65
884.122	-57.86
884.293	54.78
884.465	46.59
884.637	75.26
884.809	-78.33
884.98	-16.9
885.152	93.69
885.324	56.83
885.496	-80.38
885.667	-78.33
885.839	-66.05
886.011	48.64
886.182	60.93
886.354	9.73
886.525	44.54
886.697	-18.94
886.869	-98.81
887.04	-78.33
887.212	26.11
887.383	19.97
887.555	-37.38
887.726	-76.29
887.897	-29.18
888.069	-10.75
888.24	17.92
888.412	7.68
888.583	-53.76
888.754	9.73
888.926	-123.39
889.097	-113.15
889.268	-137.73
889.44	30.21
889.611	-59.9
889.782	-152.06
889.953	-129.53
890.125	62.98
890.296	-90.62
890.467	-51.71
890.638	9.73
890.809	-10.75
890.98	-125.44
891.151	-8.7
891.323	108.03
891.494	-61.95
891.665	17.92
891.836	28.16
892.007	-66.05
892.178	-18.94
892.349	-57.86
892.52	-82.43
892.691	-14.85
892.862	-61.95
893.032	-154.11
893.203	-2.56
893.374	11.78
893.545	26.11
893.716	-20.99
893.887	87.55
894.057	-41.47
894.228	-51.71
894.399	-35.33
894.57	112.13
894.74	50.69
894.911	40.45
895.082	42.5
895.253	-102.91
895.423	34.3
895.594	5.63
895.764	34.3
895.935	-57.86
896.106	48.64
896.276	-102.91
896.447	17.92
896.617	-41.47
896.788	-43.52
896.958	-57.86
897.129	-57.86
897.299	-49.66
897.47	118.27
897.64	-12.8
897.81	52.74
897.981	13.82
898.151	-61.95
898.322	-20.99
898.492	-18.94
898.662	-125.44
898.832	-31.23
899.003	-33.28
899.173	65.02
899.343	-123.39
899.513	3.58
