Data from USB4F104151__57__11-30-47-165.txt Node

Date: Wed Feb 26 11:30:47 EST 2025
User: louis
Spectrometer: USB4F10415
Trigger mode: 4
Integration Time (sec): 1.000000E-1
Scans to average: 1
Electric dark correction enabled: true
Nonlinearity correction enabled: false
Boxcar width: 0
XAxis mode: Wavelengths
Number of Pixels in Spectrum: 3648
>>>>>Begin Spectral Data<<<<<
178.204	-450.55
178.424	-450.55
178.644	-450.55
178.864	-342.01
179.084	-387.07
179.304	-36.86
179.524	24.58
179.744	24.58
179.964	-10.24
180.184	-4.1
180.404	79.87
180.624	-59.39
180.844	-24.58
181.064	-71.68
181.283	59.39
181.503	-43.01
181.723	61.44
181.943	-71.68
182.163	194.56
182.383	-53.25
182.602	81.92
182.822	102.4
183.042	90.11
183.262	57.34
183.482	55.3
183.701	36.86
183.921	20.48
184.141	-77.82
184.361	106.49
184.58	40.96
184.8	12.29
185.02	-51.2
185.239	122.88
185.459	151.55
185.679	120.83
185.898	-57.34
186.118	36.86
186.338	57.34
186.557	79.87
186.777	-116.73
186.997	-63.49
187.216	12.29
187.436	163.84
187.655	104.45
187.875	77.82
188.095	-4.1
188.314	94.21
188.534	118.78
188.753	-18.43
188.973	108.54
189.192	233.47
189.412	28.67
189.631	20.48
189.851	100.35
190.07	215.04
190.29	-90.11
190.509	65.54
190.729	36.86
190.948	118.78
191.168	260.09
191.387	96.25
191.607	28.67
191.826	114.69
192.045	77.82
192.265	28.67
192.484	40.96
192.704	16.38
192.923	-81.92
193.142	202.75
193.362	108.54
193.581	212.99
193.8	67.58
194.02	145.41
194.239	57.34
194.458	98.3
194.678	4.1
194.897	-38.91
195.116	36.86
195.335	55.3
195.555	98.3
195.774	22.53
195.993	104.45
196.212	69.63
196.432	-20.48
196.651	28.67
196.87	51.2
197.089	266.24
197.308	55.3
197.528	36.86
197.747	-12.29
197.966	57.34
198.185	114.69
198.404	0
198.623	118.78
198.842	135.17
199.062	139.26
199.281	92.16
199.5	18.43
199.719	106.49
199.938	100.35
200.157	40.96
200.376	124.93
200.595	131.07
200.814	118.78
201.033	-8.19
201.252	137.21
201.471	137.21
201.69	34.82
201.909	145.41
202.128	77.82
202.347	122.88
202.566	2.05
202.785	-65.53
203.004	-18.43
203.223	280.57
203.442	20.48
203.661	-79.87
203.879	131.07
204.098	116.73
204.317	18.43
204.536	81.92
204.755	153.6
204.974	124.93
205.193	-16.38
205.411	131.07
205.63	69.63
205.849	114.69
206.068	77.82
206.287	4.1
206.505	38.91
206.724	73.73
206.943	24.58
207.162	0
207.381	59.39
207.599	61.44
207.818	-38.91
208.037	22.53
208.255	-28.67
208.474	24.58
208.693	43.01
208.911	53.25
209.13	92.16
209.349	135.17
209.567	110.59
209.786	79.87
210.005	133.12
210.223	65.54
210.442	-61.44
210.661	14.34
210.879	0
211.098	28.67
211.316	49.15
211.535	114.69
211.753	100.35
211.972	174.08
212.191	-8.19
212.409	55.3
212.628	161.79
212.846	22.53
213.065	53.25
213.283	131.07
213.502	38.91
213.72	-2.05
213.938	63.49
214.157	61.44
214.375	102.4
214.594	-12.29
214.812	129.02
215.031	45.06
215.249	77.82
215.467	94.21
215.686	47.1
215.904	63.49
216.122	139.26
216.341	135.17
216.559	40.96
216.778	116.73
216.996	147.45
217.214	20.48
217.432	30.72
217.651	-43.01
217.869	16.38
218.087	20.48
218.306	77.82
218.524	12.29
218.742	28.67
218.96	45.06
219.179	-10.24
219.397	98.3
219.615	176.13
219.833	108.54
220.051	-6.14
220.27	57.34
220.488	120.83
220.706	69.63
220.924	-8.19
221.142	49.15
221.36	65.54
221.578	120.83
221.796	40.96
222.015	77.82
222.233	40.96
222.451	61.44
222.669	-81.92
222.887	120.83
223.105	-18.43
223.323	61.44
223.541	2.05
223.759	-4.1
223.977	34.82
224.195	143.36
224.413	67.58
224.631	36.86
224.849	94.21
225.067	251.9
225.285	22.53
225.503	0
225.721	-59.39
225.939	40.96
226.157	69.63
226.375	290.81
226.592	-71.68
226.81	26.62
227.028	81.92
227.246	96.25
227.464	22.53
227.682	81.92
227.9	172.03
228.117	79.87
228.335	151.55
228.553	38.91
228.771	53.25
228.989	90.11
229.206	45.06
229.424	-71.68
229.642	55.3
229.86	22.53
230.077	147.45
230.295	-36.86
230.513	196.61
230.731	106.49
230.948	163.84
231.166	153.6
231.384	38.91
231.601	2.05
231.819	186.37
232.037	65.54
232.254	-45.06
232.472	20.48
232.689	-30.72
232.907	102.4
233.125	22.53
233.342	28.67
233.56	34.82
233.777	32.77
233.995	-49.15
234.213	135.17
234.43	8.19
234.648	45.06
234.865	79.87
235.083	61.44
235.3	0
235.518	53.25
235.735	124.93
235.953	47.1
236.17	57.34
236.388	57.34
236.605	110.59
236.822	126.97
237.04	176.13
237.257	83.97
237.475	20.48
237.692	22.53
237.909	65.54
238.127	4.1
238.344	102.4
238.562	126.97
238.779	-14.34
238.996	-4.1
239.214	67.58
239.431	57.34
239.648	-40.96
239.865	100.35
240.083	92.16
240.3	-2.05
240.517	-53.25
240.735	32.77
240.952	137.21
241.169	53.25
241.386	53.25
241.603	57.34
241.821	28.67
242.038	126.97
242.255	139.26
242.472	-45.06
242.689	43.01
242.907	153.6
243.124	79.87
243.341	36.86
243.558	-28.67
243.775	-47.1
243.992	-90.11
244.209	-30.72
244.426	149.5
244.643	10.24
244.86	43.01
245.078	190.46
245.295	24.58
245.512	30.72
245.729	-43.01
245.946	65.54
246.163	73.73
246.38	81.92
246.597	40.96
246.814	-2.05
247.031	-65.53
247.248	32.77
247.464	61.44
247.681	20.48
247.898	106.49
248.115	92.16
248.332	-63.49
248.549	122.88
248.766	165.89
248.983	112.64
249.2	90.11
249.417	227.32
249.633	51.2
249.85	104.45
250.067	92.16
250.284	57.34
250.501	149.5
250.717	-6.14
250.934	28.67
251.151	43.01
251.368	-2.05
251.585	83.97
251.801	71.68
252.018	16.38
252.235	124.93
252.451	-24.58
252.668	30.72
252.885	79.87
253.102	36.86
253.318	49.15
253.535	22.53
253.752	51.2
253.968	45.06
254.185	24.58
254.401	18.43
254.618	20.48
254.835	59.39
255.051	182.27
255.268	43.01
255.484	67.58
255.701	18.43
255.917	18.43
256.134	-86.01
256.351	24.58
256.567	-75.77
256.784	65.54
257	-38.91
257.217	129.02
257.433	2.05
257.65	57.34
257.866	110.59
258.082	-38.91
258.299	-6.14
258.515	102.4
258.732	24.58
258.948	32.77
259.165	73.73
259.381	16.38
259.597	77.82
259.814	51.2
260.03	55.3
260.246	-26.62
260.463	106.49
260.679	165.89
260.895	65.54
261.112	124.93
261.328	16.38
261.544	16.38
261.761	239.61
261.977	45.06
262.193	-55.3
262.409	126.97
262.626	67.58
262.842	-4.1
263.058	-40.96
263.274	190.46
263.49	49.15
263.707	51.2
263.923	55.3
264.139	-71.68
264.355	65.54
264.571	94.21
264.787	81.92
265.004	75.77
265.22	81.92
265.436	-43.01
265.652	18.43
265.868	98.3
266.084	36.86
266.3	8.19
266.516	53.25
266.732	30.72
266.948	79.87
267.164	16.38
267.38	98.3
267.596	57.34
267.812	131.07
268.028	32.77
268.244	28.67
268.46	51.2
268.676	47.1
268.892	94.21
269.108	2.05
269.324	-77.82
269.54	55.3
269.756	94.21
269.972	-26.62
270.188	0
270.403	4.1
270.619	26.62
270.835	94.21
271.051	36.86
271.267	-24.58
271.483	75.77
271.698	96.25
271.914	38.91
272.13	61.44
272.346	0
272.562	106.49
272.777	98.3
272.993	118.78
273.209	8.19
273.425	77.82
273.64	-65.53
273.856	90.11
274.072	-49.15
274.287	10.24
274.503	102.4
274.719	77.82
274.934	10.24
275.15	-18.43
275.366	14.34
275.581	63.49
275.797	34.82
276.012	122.88
276.228	51.2
276.444	102.4
276.659	184.32
276.875	2.05
277.09	4.1
277.306	75.77
277.521	34.82
277.737	47.1
277.952	120.83
278.168	10.24
278.383	57.34
278.599	92.16
278.814	79.87
279.03	26.62
279.245	161.79
279.461	55.3
279.676	137.21
279.892	-47.1
280.107	-4.1
280.322	-71.68
280.538	108.54
280.753	-18.43
280.969	49.15
281.184	137.21
281.399	104.45
281.615	45.06
281.83	67.58
282.045	-77.82
282.26	-32.77
282.476	81.92
282.691	126.97
282.906	141.31
283.122	-8.19
283.337	-26.62
283.552	6.14
283.767	-16.38
283.983	133.12
284.198	16.38
284.413	65.54
284.628	20.48
284.843	22.53
285.058	88.06
285.274	53.25
285.489	32.77
285.704	186.37
285.919	12.29
286.134	4.1
286.349	30.72
286.564	100.35
286.779	120.83
286.995	20.48
287.21	-18.43
287.425	30.72
287.64	-22.53
287.855	88.06
288.07	30.72
288.285	67.58
288.5	143.36
288.715	67.58
288.93	67.58
289.145	34.82
289.36	77.82
289.575	22.53
289.79	135.17
290.004	-12.29
290.219	83.97
290.434	12.29
290.649	-14.34
290.864	-6.14
291.079	65.54
291.294	63.49
291.509	118.78
291.724	75.77
291.938	16.38
292.153	49.15
292.368	55.3
292.583	47.1
292.798	43.01
293.012	28.67
293.227	96.25
293.442	49.15
293.657	28.67
293.871	122.88
294.086	153.6
294.301	305.15
294.516	124.93
294.73	47.1
294.945	-28.67
295.16	98.3
295.374	94.21
295.589	120.83
295.804	-47.1
296.018	49.15
296.233	98.3
296.447	51.2
296.662	47.1
296.877	63.49
297.091	90.11
297.306	16.38
297.52	51.2
297.735	67.58
297.949	59.39
298.164	88.06
298.378	86.01
298.593	-2.05
298.807	24.58
299.022	22.53
299.236	206.84
299.451	-22.53
299.665	12.29
299.88	-12.29
300.094	92.16
300.309	38.91
300.523	143.36
300.737	-14.34
300.952	112.64
301.166	57.34
301.381	12.29
301.595	32.77
301.809	86.01
302.024	-28.67
302.238	81.92
302.452	110.59
302.667	65.54
302.881	120.83
303.095	141.31
303.309	32.77
303.524	45.06
303.738	81.92
303.952	0
304.166	20.48
304.381	-40.96
304.595	151.55
304.809	28.67
305.023	51.2
305.237	69.63
305.452	-26.62
305.666	114.69
305.88	40.96
306.094	120.83
306.308	65.54
306.522	112.64
306.736	133.12
306.95	104.45
307.164	20.48
307.379	-6.14
307.593	194.56
307.807	81.92
308.021	139.26
308.235	104.45
308.449	-40.96
308.663	61.44
308.877	223.23
309.091	98.3
309.305	75.77
309.519	-79.87
309.733	81.92
309.947	-40.96
310.161	94.21
310.374	67.58
310.588	174.08
310.802	6.14
311.016	8.19
311.23	73.73
311.444	47.1
311.658	26.62
311.872	124.93
312.085	159.74
312.299	63.49
312.513	124.93
312.727	45.06
312.941	-8.19
313.154	90.11
313.368	45.06
313.582	73.73
313.796	83.97
314.009	143.36
314.223	122.88
314.437	38.91
314.651	57.34
314.864	-40.96
315.078	20.48
315.292	-18.43
315.505	32.77
315.719	94.21
315.933	40.96
316.146	2.05
316.36	20.48
316.573	151.55
316.787	102.4
317.001	67.58
317.214	28.67
317.428	36.86
317.641	-18.43
317.855	32.77
318.068	20.48
318.282	32.77
318.495	145.41
318.709	47.1
318.922	40.96
319.136	88.06
319.349	102.4
319.563	65.54
319.776	92.16
319.99	-34.82
320.203	108.54
320.417	71.68
320.63	122.88
320.843	147.45
321.057	32.77
321.27	14.34
321.483	32.77
321.697	172.03
321.91	67.58
322.124	40.96
322.337	45.06
322.55	22.53
322.763	100.35
322.977	0
323.19	16.38
323.403	49.15
323.617	10.24
323.83	126.97
324.043	-75.77
324.256	110.59
324.469	-10.24
324.683	155.65
324.896	4.1
325.109	-36.86
325.322	0
325.535	90.11
325.748	116.73
325.962	12.29
326.175	104.45
326.388	71.68
326.601	53.25
326.814	24.58
327.027	51.2
327.24	92.16
327.453	-45.06
327.666	73.73
327.879	143.36
328.092	92.16
328.305	53.25
328.518	-47.1
328.731	-28.67
328.944	26.62
329.157	83.97
329.37	-30.72
329.583	176.13
329.796	149.5
330.009	16.38
330.222	96.25
330.435	55.3
330.648	108.54
330.861	40.96
331.073	47.1
331.286	57.34
331.499	94.21
331.712	-12.29
331.925	124.93
332.138	12.29
332.35	124.93
332.563	53.25
332.776	176.13
332.989	-8.19
333.202	32.77
333.414	49.15
333.627	102.4
333.84	71.68
334.053	20.48
334.265	-71.68
334.478	-32.77
334.691	75.77
334.903	32.77
335.116	69.63
335.329	38.91
335.541	8.19
335.754	88.06
335.966	12.29
336.179	75.77
336.392	22.53
336.604	10.24
336.817	12.29
337.029	40.96
337.242	24.58
337.454	129.02
337.667	18.43
337.88	215.04
338.092	92.16
338.305	118.78
338.517	77.82
338.729	71.68
338.942	219.13
339.154	26.62
339.367	-65.53
339.579	30.72
339.792	-32.77
340.004	24.58
340.217	-36.86
340.429	-26.62
340.641	-24.58
340.854	-8.19
341.066	135.17
341.278	57.34
341.491	153.6
341.703	69.63
341.915	30.72
342.128	137.21
342.34	75.77
342.552	24.58
342.764	30.72
342.977	8.19
343.189	22.53
343.401	36.86
343.613	-49.15
343.826	53.25
344.038	43.01
344.25	57.34
344.462	45.06
344.674	45.06
344.886	-32.77
345.099	55.3
345.311	108.54
345.523	81.92
345.735	-65.53
345.947	79.87
346.159	-2.05
346.371	32.77
346.583	47.1
346.795	235.52
347.007	26.62
347.219	98.3
347.431	-51.2
347.643	112.64
347.855	-8.19
348.067	114.69
348.279	-116.73
348.491	16.38
348.703	53.25
348.915	10.24
349.127	8.19
349.339	22.53
349.551	126.97
349.763	98.3
349.975	2.05
350.187	124.93
350.399	131.07
350.61	96.25
350.822	-4.1
351.034	133.12
351.246	-14.34
351.458	96.25
351.669	40.96
351.881	75.77
352.093	135.17
352.305	219.13
352.517	12.29
352.728	155.65
352.94	45.06
353.152	57.34
353.363	-18.43
353.575	83.97
353.787	196.61
353.999	196.61
354.21	178.17
354.422	16.38
354.633	40.96
354.845	63.49
355.057	77.82
355.268	63.49
355.48	96.25
355.692	-73.73
355.903	34.82
356.115	-49.15
356.326	-59.39
356.538	122.88
356.749	88.06
356.961	143.36
357.172	53.25
357.384	-57.34
357.595	126.97
357.807	51.2
358.018	73.73
358.23	0
358.441	204.8
358.653	153.6
358.864	12.29
359.075	-24.58
359.287	61.44
359.498	122.88
359.709	196.61
359.921	2.05
360.132	86.01
360.344	8.19
360.555	114.69
360.766	65.54
360.977	20.48
361.189	88.06
361.4	-10.24
361.611	180.22
361.823	120.83
362.034	51.2
362.245	-16.38
362.456	20.48
362.667	161.79
362.879	-30.72
363.09	18.43
363.301	86.01
363.512	96.25
363.723	-26.62
363.935	47.1
364.146	112.64
364.357	57.34
364.568	98.3
364.779	-43.01
364.99	169.98
365.201	36.86
365.412	75.77
365.623	-28.67
365.834	100.35
366.045	16.38
366.256	71.68
366.467	28.67
366.678	40.96
366.889	77.82
367.1	8.19
367.311	112.64
367.522	-18.43
367.733	86.01
367.944	141.31
368.155	53.25
368.366	81.92
368.577	110.59
368.788	57.34
368.999	-14.34
369.209	-55.3
369.42	247.8
369.631	212.99
369.842	94.21
370.053	45.06
370.264	98.3
370.474	-47.1
370.685	102.4
370.896	92.16
371.107	98.3
371.317	163.84
371.528	-30.72
371.739	163.84
371.95	83.97
372.16	49.15
372.371	-24.58
372.582	2.05
372.792	16.38
373.003	26.62
373.214	20.48
373.424	90.11
373.635	-36.86
373.846	77.82
374.056	69.63
374.267	131.07
374.477	92.16
374.688	-16.38
374.898	104.45
375.109	65.54
375.319	47.1
375.53	118.78
375.74	114.69
375.951	28.67
376.161	96.25
376.372	141.31
376.582	8.19
376.793	53.25
377.003	26.62
377.214	71.68
377.424	90.11
377.635	131.07
377.845	-24.58
378.055	18.43
378.266	-40.96
378.476	-8.19
378.686	118.78
378.897	92.16
379.107	124.93
379.317	98.3
379.528	16.38
379.738	118.78
379.948	18.43
380.158	92.16
380.369	81.92
380.579	104.45
380.789	-14.34
380.999	114.69
381.21	94.21
381.42	145.41
381.63	28.67
381.84	96.25
382.05	176.13
382.261	141.31
382.471	180.22
382.681	92.16
382.891	178.17
383.101	61.44
383.311	-38.91
383.521	-8.19
383.731	129.02
383.941	161.79
384.151	126.97
384.361	36.86
384.571	92.16
384.781	67.58
384.991	233.47
385.201	73.73
385.411	49.15
385.621	71.68
385.831	63.49
386.041	47.1
386.251	16.38
386.461	92.16
386.671	53.25
386.881	126.97
387.091	75.77
387.301	79.87
387.511	104.45
387.72	47.1
387.93	92.16
388.14	-16.38
388.35	34.82
388.56	88.06
388.769	188.41
388.979	28.67
389.189	38.91
389.399	47.1
389.609	61.44
389.818	129.02
390.028	18.43
390.238	92.16
390.447	36.86
390.657	69.63
390.867	43.01
391.076	-34.82
391.286	8.19
391.496	22.53
391.705	65.54
391.915	75.77
392.125	102.4
392.334	-8.19
392.544	126.97
392.753	49.15
392.963	-10.24
393.172	30.72
393.382	100.35
393.591	176.13
393.801	-2.05
394.01	190.46
394.22	137.21
394.429	51.2
394.639	77.82
394.848	55.3
395.058	63.49
395.267	-14.34
395.477	77.82
395.686	32.77
395.895	184.32
396.105	88.06
396.314	106.49
396.524	36.86
396.733	73.73
396.942	81.92
397.152	104.45
397.361	194.56
397.57	106.49
397.78	45.06
397.989	47.1
398.198	225.28
398.407	28.67
398.617	43.01
398.826	110.59
399.035	49.15
399.244	169.98
399.453	-22.53
399.663	47.1
399.872	94.21
400.081	-38.91
400.29	182.27
400.499	10.24
400.708	188.41
400.917	14.34
401.127	88.06
401.336	143.36
401.545	161.79
401.754	167.93
401.963	34.82
402.172	-4.1
402.381	-81.92
402.59	22.53
402.799	38.91
403.008	147.45
403.217	83.97
403.426	94.21
403.635	-20.48
403.844	-2.05
404.053	32.77
404.262	16.38
404.471	223.23
404.68	28.67
404.888	79.87
405.097	8.19
405.306	30.72
405.515	75.77
405.724	22.53
405.933	98.3
406.142	16.38
406.35	116.73
406.559	47.1
406.768	110.59
406.977	206.84
407.185	55.3
407.394	51.2
407.603	-28.67
407.812	81.92
408.02	147.45
408.229	67.58
408.438	49.15
408.646	-79.87
408.855	-14.34
409.064	137.21
409.272	-2.05
409.481	71.68
409.69	16.38
409.898	26.62
410.107	53.25
410.315	135.17
410.524	-18.43
410.733	71.68
410.941	-36.86
411.15	96.25
411.358	129.02
411.567	137.21
411.775	47.1
411.984	67.58
412.192	79.87
412.401	45.06
412.609	178.17
412.818	163.84
413.026	-12.29
413.234	4.1
413.443	6.14
413.651	-30.72
413.86	34.82
414.068	212.99
414.276	126.97
414.485	-4.1
414.693	143.36
414.901	182.27
415.11	135.17
415.318	43.01
415.526	139.26
415.734	102.4
415.943	71.68
416.151	147.45
416.359	20.48
416.567	38.91
416.776	141.31
416.984	116.73
417.192	155.65
417.4	16.38
417.608	10.24
417.817	94.21
418.025	83.97
418.233	210.94
418.441	-47.1
418.649	0
418.857	100.35
419.065	165.89
419.273	-18.43
419.481	110.59
419.689	53.25
419.897	20.48
420.105	6.14
420.313	55.3
420.521	178.17
420.729	200.7
420.937	10.24
421.145	55.3
421.353	63.49
421.561	188.41
421.769	112.64
421.977	20.48
422.185	102.4
422.393	81.92
422.601	139.26
422.809	106.49
423.017	-43.01
423.224	71.68
423.432	184.32
423.64	16.38
423.848	161.79
424.056	-4.1
424.263	188.41
424.471	65.54
424.679	126.97
424.887	-8.19
425.094	137.21
425.302	106.49
425.51	98.3
425.718	122.88
425.925	53.25
426.133	4.1
426.341	229.37
426.548	65.54
426.756	112.64
426.964	94.21
427.171	86.01
427.379	77.82
427.586	26.62
427.794	161.79
428.001	159.74
428.209	69.63
428.417	186.37
428.624	135.17
428.832	165.89
429.039	116.73
429.247	94.21
429.454	110.59
429.662	282.62
429.869	129.02
430.076	161.79
430.284	184.32
430.491	153.6
430.699	210.94
430.906	286.72
431.114	118.78
431.321	131.07
431.528	59.39
431.736	192.51
431.943	169.98
432.15	202.75
432.358	180.22
432.565	253.95
432.772	59.39
432.979	262.14
433.187	90.11
433.394	247.8
433.601	102.4
433.808	155.65
434.016	225.28
434.223	208.89
434.43	194.56
434.637	374.78
434.844	212.99
435.052	251.9
435.259	260.09
435.466	223.23
435.673	278.52
435.88	303.1
436.087	337.91
436.294	225.28
436.501	360.44
436.708	290.81
436.915	337.91
437.122	303.1
437.329	229.37
437.537	360.44
437.743	378.87
437.95	401.4
438.157	286.72
438.364	305.15
438.571	327.67
438.778	452.6
438.985	385.02
439.192	440.31
439.399	360.44
439.606	481.27
439.813	573.43
440.02	616.44
440.227	555
440.433	569.34
440.64	471.03
440.847	503.8
441.054	624.63
441.261	657.4
441.467	497.66
441.674	583.67
441.881	686.07
442.088	583.67
442.294	692.21
442.501	655.35
442.708	845.81
442.914	600.05
443.121	800.76
443.328	835.57
443.534	921.59
443.741	1013.74
443.948	788.47
444.154	974.83
444.361	1089.52
444.568	974.83
444.774	1007.6
444.981	950.26
445.187	1026.03
445.394	1054.7
445.6	1003.5
445.807	1257.45
446.013	1249.26
446.22	1167.34
446.426	1384.43
446.633	1443.82
446.839	1626.09
447.046	1392.62
447.252	1583.08
447.459	1540.07
447.665	1607.66
447.871	1845.22
448.078	1808.36
448.284	1869.8
448.491	1888.23
448.697	1982.43
448.903	2174.94
449.11	2107.36
449.316	2113.5
449.522	2256.86
449.728	2435.03
449.935	2461.66
450.141	2465.75
450.347	2691.03
450.553	2588.63
450.76	2752.47
450.966	2725.85
451.172	2858.96
451.378	3104.72
451.584	3059.67
451.791	3405.77
451.997	3317.71
452.203	3516.36
452.409	3637.19
452.615	3960.77
452.821	3712.97
453.027	3719.11
453.233	4251.58
453.44	4024.26
453.646	4329.41
453.852	4530.11
454.058	4638.65
454.264	4812.73
454.47	5214.13
454.676	5191.6
454.882	5506.99
455.088	5402.54
455.294	5590.95
455.5	6039.46
455.705	6297.5
455.911	6537.12
456.117	6430.62
456.323	6840.22
456.529	6897.56
456.735	7499.66
456.941	7737.23
457.147	7987.08
457.352	8073.09
457.558	8288.13
457.764	8908.66
457.97	9148.28
458.176	9561.97
458.381	9918.31
458.587	10153.83
458.793	10837.85
458.999	10686.3
459.204	11910.99
459.41	12414.79
459.616	12222.28
459.821	12986.17
460.027	13647.66
460.233	14235.43
460.438	14173.99
460.644	15091.48
460.85	15091.48
461.055	15775.5
461.261	16451.33
461.466	16170.76
461.672	16295.69
461.878	18290.41
462.083	18308.84
462.289	18444.01
462.494	19435.22
462.7	19504.85
462.905	19838.67
463.111	21264.06
463.316	22611.62
463.522	22830.76
463.727	23574.17
463.932	24571.53
464.138	25101.95
464.343	26433.13
464.549	26203.76
464.754	28395.09
464.959	29032
465.165	29795.9
465.37	29331.01
465.575	29257.28
465.781	31165.99
465.986	32370.19
466.191	31655.45
466.397	31987.22
466.602	31321.63
466.807	33080.84
467.012	33342.98
467.218	33961.47
467.423	34465.27
467.628	35089.9
467.833	36832.72
468.038	36169.18
468.244	35507.68
468.449	37477.83
468.654	36765.13
468.859	36279.77
469.064	36908.49
469.269	35773.92
469.474	36011.48
469.679	37027.27
469.885	36203.99
470.09	36228.57
470.295	36552.15
470.5	36226.52
470.705	35976.67
470.91	35311.08
471.115	35075.56
471.32	35110.38
471.525	34883.05
471.73	34244.09
471.935	33596.93
472.139	32636.43
472.344	32892.43
472.549	32450.06
472.754	31546.91
472.959	30887.46
473.164	29732.41
473.369	29603.39
473.574	30367.28
473.778	29570.62
473.983	29169.22
474.188	28661.32
474.393	27397.73
474.598	27000.42
474.802	26783.34
475.007	26082.93
475.212	26011.25
475.417	24927.88
475.621	24692.36
475.826	24450.7
476.031	24168.08
476.235	23563.93
476.44	23350.94
476.645	22900.39
476.849	22763.17
477.054	22398.63
477.259	21599.93
477.463	21671.61
477.668	20838.08
477.872	21120.7
478.077	20790.98
478.282	19889.87
478.486	19891.92
478.691	19480.28
478.895	19484.37
479.1	19267.29
479.304	19429.08
479.509	18532.07
479.713	18874.08
479.918	18366.18
480.122	17596.15
480.326	18056.94
480.531	18034.41
480.735	17639.15
480.94	17362.68
481.144	18206.44
481.348	17383.16
481.553	17237.75
481.757	16776.96
481.961	16930.56
482.166	17182.46
482.37	16672.51
482.574	16377.61
482.778	16580.35
482.983	16543.49
483.187	16453.38
483.391	16148.23
483.595	16017.16
483.8	15716.11
484.004	15724.3
484.208	15703.82
484.412	15582.99
484.616	15372.05
484.821	15054.62
485.025	14898.97
485.229	14853.92
485.433	14473
485.637	14561.06
485.841	14257.96
486.045	14182.18
486.249	13924.14
486.453	13602.61
486.657	13627.18
486.861	13174.58
487.065	12791.61
487.269	12762.94
487.473	12662.59
487.677	12789.56
487.881	12787.52
488.085	12015.43
488.289	11988.81
488.493	11745.1
488.697	11888.46
488.901	11439.95
489.105	11116.37
489.309	10913.63
489.512	10866.52
489.716	10813.27
489.92	10397.54
490.124	10096.49
490.328	10106.73
490.531	9971.56
490.735	9803.63
490.939	9645.93
491.143	9246.58
491.346	9129.84
491.55	9049.97
491.754	8996.73
491.958	8806.27
492.161	8935.29
492.365	8482.69
492.569	8286.08
492.772	8298.37
492.976	8339.33
493.18	8050.57
493.383	8124.29
493.587	8030.09
493.79	7747.47
493.994	7559.05
494.197	7647.12
494.401	7667.59
494.605	7530.38
494.808	7415.69
495.012	7384.98
495.215	7411.6
495.419	7362.45
495.622	7350.16
495.825	7040.92
496.029	7133.08
496.232	7260.05
496.436	7116.69
496.639	7274.39
496.843	7108.5
497.046	6999.96
497.249	7174.03
497.453	7030.68
497.656	7065.49
497.859	6944.66
498.063	7200.66
498.266	7229.33
498.469	7028.63
498.673	7120.79
498.876	7278.48
499.079	7200.66
499.282	7057.3
499.485	7538.57
499.689	7421.84
499.892	7538.57
500.095	7241.62
500.298	7530.38
500.501	7264.15
500.705	7841.67
500.908	7557
501.111	7767.95
501.314	7956.36
501.517	7767.95
501.72	7929.74
501.923	8085.38
502.126	8023.94
502.329	8382.34
502.532	8441.73
502.735	8238.98
502.938	8517.5
503.141	8677.24
503.344	8642.43
503.547	8859.51
503.75	8939.38
503.953	9019.25
504.156	9299.83
504.359	9215.86
504.562	9449.33
504.765	9611.12
504.968	9826.15
505.17	10094.44
505.373	10055.53
505.576	10252.13
505.779	10510.18
505.982	10526.56
506.185	10741.6
506.387	10792.8
506.59	11183.96
506.793	11407.19
506.996	11329.36
507.198	11984.71
507.401	11902.79
507.604	12101.45
507.807	12543.81
508.009	12832.57
508.212	12904.25
508.415	13012.79
508.617	13518.64
508.82	13614.9
509.022	13756.21
509.225	14415.65
509.428	14700.32
509.63	14776.09
509.833	15030.04
510.035	16086.79
510.238	15730.45
510.44	16193.29
510.643	16762.62
510.845	17297.14
511.048	17420.02
511.25	17938.16
511.453	17979.12
511.655	18970.33
511.858	18857.7
512.06	19459.8
512.262	19740.37
512.465	20180.68
512.667	20764.36
512.87	21145.28
513.072	21817.01
513.274	22388.39
513.477	22879.91
513.679	23191.2
513.881	23744.15
514.084	24505.99
514.286	24702.6
514.488	25409.15
514.69	25953.91
514.893	26488.43
515.095	27035.24
515.297	27795.03
515.499	28235.35
515.701	28909.13
515.904	29644.35
516.106	30461.49
516.308	30584.37
516.51	31510.05
516.712	31745.56
516.914	32687.63
517.116	33791.48
517.318	33607.17
517.52	34283
517.722	34780.65
517.925	35546.59
518.127	36660.69
518.329	37662.15
518.531	37236.17
518.733	38387.13
518.935	39165.35
519.136	39499.17
519.338	40375.7
519.54	41135.5
519.742	41610.63
519.944	41969.02
520.146	42671.48
520.348	43494.76
520.55	44148.06
520.752	44047.71
520.954	45200.72
521.155	45366.6
521.357	46024
521.559	46701.88
521.761	47578.41
521.963	47469.87
522.164	47988
522.366	48129.31
522.568	49540.36
522.77	49329.42
522.971	50212.1
523.173	49865.99
523.375	50918.65
523.576	50638.08
523.778	50609.4
523.98	51363.06
524.181	51795.18
524.383	51512.56
524.584	52110.56
524.786	52270.31
524.988	51506.41
525.189	52540.64
525.391	52620.51
525.592	52544.73
525.794	52514.01
525.995	52458.72
526.197	52466.91
526.398	52110.56
526.6	52434.14
526.801	52753.63
527.003	52444.38
527.204	51786.99
527.406	52331.75
527.607	51938.54
527.808	51858.66
528.01	50984.18
528.211	51242.23
528.412	51356.91
528.614	50719.99
528.815	50488.57
529.016	50408.7
529.218	49452.3
529.419	49446.16
529.62	48784.66
529.822	48452.89
530.023	48080.16
530.224	47781.16
530.425	47318.32
530.626	46366.01
530.828	45927.75
531.029	46564.67
531.23	45317.45
531.431	44717.4
531.632	44756.31
531.833	44404.06
532.035	43816.29
532.236	43357.55
532.437	42964.34
532.638	42222.97
532.839	41561.48
533.04	41442.7
533.241	40213.91
533.442	40408.47
533.643	39798.18
533.844	38817.2
534.045	38886.83
534.246	37868.99
534.447	38288.82
534.648	37109.19
534.849	36738.51
535.05	35898.84
535.251	35841.5
535.451	35266.02
535.652	34596.34
535.853	34215.41
536.054	33926.65
536.255	33580.54
536.456	32941.58
536.657	33021.45
536.857	32177.69
537.058	31833.63
537.259	31790.62
537.46	31211.04
537.66	30576.17
537.861	30354.99
538.062	29449.79
538.263	29541.95
538.463	28929.61
538.664	28663.37
538.865	28005.97
539.065	28300.88
539.266	27620.95
539.466	27453.02
539.667	27055.72
539.868	26746.47
540.068	26531.44
540.269	26127.99
540.469	25833.08
540.67	25529.98
540.87	25179.78
541.071	24909.44
541.271	24919.68
541.472	24346.25
541.672	24266.38
541.873	23740.05
542.073	23455.39
542.274	23555.74
542.474	23258.78
542.675	22630.05
542.875	22668.97
543.075	22216.36
543.276	21493.43
543.476	21999.28
543.676	21550.78
543.877	21429.94
544.077	21290.68
544.277	21085.89
544.478	20534.98
544.678	20623.05
544.878	20358.86
545.078	20274.89
545.279	19687.12
545.479	19398.36
545.679	19365.59
545.879	19078.88
546.079	19293.91
546.28	18687.71
546.48	18421.48
546.68	18554.6
546.88	18124.52
547.08	17905.39
547.28	17651.44
547.48	17207.03
547.68	17420.02
547.88	16989.95
548.081	17143.55
548.281	16400.13
548.481	16686.85
548.681	16424.71
548.881	16183.05
549.081	16008.97
549.28	15533.84
549.48	15355.67
549.68	15099.67
549.88	15267.61
550.08	14982.94
550.28	14575.39
550.48	14485.28
550.68	14104.36
550.88	14096.17
551.08	13702.96
551.279	13758.25
551.479	13309.75
551.679	13303.6
551.879	13037.37
552.079	12971.83
552.278	12398.4
552.478	12713.79
552.678	12418.88
552.878	12003.14
553.077	12062.54
553.277	11704.14
553.477	11652.94
553.676	11599.69
553.876	11157.33
554.076	11161.43
554.275	10843.99
554.475	10762.08
554.674	10694.49
554.874	10243.94
555.074	10270.56
555.273	10133.35
555.473	10004.33
555.672	9774.95
555.872	9684.84
556.071	9328.5
556.271	9383.79
556.47	9209.72
556.67	8943.48
556.869	8920.95
557.068	8746.87
557.268	8515.45
557.467	8292.23
557.667	8327.04
557.866	8302.47
558.065	8071.04
558.265	7778.19
558.464	7739.27
558.663	7780.23
558.863	7495.57
559.062	7747.47
559.261	7360.4
559.461	7219.09
559.66	7051.16
559.859	7028.63
560.058	6836.12
560.258	6614.94
560.457	6610.84
560.656	6598.56
560.855	6338.46
561.054	6453.15
561.253	6352.8
561.453	6127.52
561.652	5955.49
561.851	6123.43
562.05	5877.67
562.249	5681.07
562.448	5939.11
562.647	5593
562.846	5427.12
563.045	5490.6
563.244	5388.21
563.443	5414.83
563.642	5183.41
563.841	5064.63
564.04	5066.67
564.239	5140.4
564.438	4906.93
564.637	4745.14
564.836	4820.92
565.035	4706.23
565.234	4612.03
565.432	4599.74
565.631	4622.27
565.83	4503.48
566.029	4306.88
566.228	4319.17
566.427	4347.84
566.625	4192.19
566.824	4034.5
567.023	4091.84
567.222	3837.89
567.42	3993.54
567.619	3936.2
567.818	3731.4
568.016	4044.74
568.215	3688.39
568.414	3606.47
568.612	3606.47
568.811	3516.36
569.01	3549.13
569.208	3438.54
569.407	3459.02
569.605	3375.05
569.804	3338.19
570.002	3266.51
570.201	3215.31
570.4	3200.98
570.598	3108.82
570.797	3051.47
570.995	2969.55
571.193	2987.99
571.392	2836.44
571.59	2797.53
571.789	2785.24
571.987	2947.03
572.186	2879.44
572.384	2764.76
572.582	2684.89
572.781	2785.24
572.979	2559.96
573.177	2645.98
573.376	2459.61
573.574	2629.59
573.772	2379.74
573.971	2484.19
574.169	2232.29
574.367	2357.21
574.565	2287.58
574.763	2224.09
574.962	2199.52
575.16	2133.98
575.358	2162.65
575.556	2101.22
575.754	2037.73
575.952	2050.02
576.151	1957.86
576.349	2066.4
576.547	1855.46
576.745	1984.48
576.943	1974.24
577.141	1851.36
577.339	1763.3
577.537	1802.21
577.735	1783.78
577.933	1728.49
578.131	1638.38
578.329	1810.4
578.527	1744.87
578.725	1759.21
578.923	1589.22
579.121	1628.14
579.319	1425.39
579.516	1654.76
579.714	1685.48
579.912	1542.12
580.11	1357.8
580.308	1404.91
580.506	1470.44
580.704	1228.78
580.901	1277.93
581.099	1411.05
581.297	1349.61
581.495	1316.84
581.692	1292.27
581.89	1382.38
582.088	1296.36
582.285	1384.43
582.483	1204.21
582.681	1241.07
582.878	1095.66
583.076	1300.46
583.274	1239.02
583.471	1259.5
583.669	1169.39
583.866	1011.7
584.064	1050.61
584.262	1060.85
584.459	1062.9
584.657	1134.57
584.854	1103.86
585.052	1097.71
585.249	1060.85
585.447	993.26
585.644	970.74
585.841	999.41
586.039	1036.27
586.236	1077.23
586.434	794.61
586.631	868.34
586.828	831.48
587.026	950.26
587.223	837.62
587.42	839.67
587.618	886.77
587.815	952.31
588.012	862.19
588.21	778.23
588.407	937.97
588.604	784.37
588.801	759.8
588.999	874.48
589.196	823.28
589.393	673.78
589.59	772.08
589.787	792.56
589.984	837.62
590.182	790.52
590.379	780.28
590.576	774.13
590.773	757.75
590.97	753.65
591.167	632.82
591.364	870.39
591.561	622.58
591.758	831.48
591.955	806.9
592.152	755.7
592.349	708.6
592.546	690.17
592.743	675.83
592.94	608.25
593.137	806.9
593.334	815.09
593.531	696.31
593.727	692.21
593.924	692.21
594.121	696.31
594.318	733.17
594.515	770.04
594.712	808.95
594.908	868.34
595.105	671.73
595.302	765.94
595.499	788.47
595.696	868.34
595.892	753.65
596.089	935.92
596.286	870.39
596.482	948.21
596.679	886.77
596.876	798.71
597.072	962.55
597.269	972.79
597.466	1044.46
597.662	1052.66
597.859	890.87
598.055	1066.99
598.252	1118.19
598.448	1120.24
598.645	1120.24
598.841	1239.02
599.038	1277.93
599.234	1320.94
599.431	1380.33
599.627	1339.37
599.824	1378.28
600.02	1355.76
600.217	1482.73
600.413	1626.09
600.609	1605.61
600.806	1877.99
601.002	1867.75
601.198	1726.44
601.395	2076.64
601.591	1976.29
601.787	2076.64
601.984	2117.6
602.18	2220
602.376	2215.9
602.572	2408.41
602.769	2381.79
602.965	2402.27
603.161	2650.07
603.357	2815.96
603.553	2899.92
603.75	2875.35
603.946	2992.08
604.142	3067.86
604.338	3194.83
604.534	3225.55
604.73	3426.25
604.926	3270.61
605.122	3694.54
605.318	3661.77
605.514	3839.94
605.71	3827.65
605.906	4257.73
606.102	4067.27
606.298	4321.21
606.494	4415.42
606.69	4632.51
606.886	4466.62
607.082	4620.22
607.278	4853.69
607.474	5021.62
607.67	5013.43
607.866	5232.56
608.062	5509.04
608.257	5439.4
608.453	5697.45
608.649	6002.6
608.845	5869.48
609.041	6102.95
609.236	6438.81
609.432	6385.57
609.628	6877.08
609.824	6952.85
610.019	7016.34
610.215	7065.49
610.411	7413.65
610.606	7655.31
610.802	7618.44
610.998	7954.31
611.193	8279.94
611.389	8443.78
611.584	8544.13
611.78	8796.03
611.976	9113.46
612.171	9400.18
612.367	9617.26
612.562	9887.59
612.758	10035.05
612.953	10086.25
613.149	10387.3
613.344	10624.86
613.539	11089.75
613.735	11319.12
613.93	11771.72
614.126	12029.77
614.321	12658.49
614.517	12705.6
614.712	13006.65
614.907	13465.39
615.103	13690.67
615.298	13895.47
615.493	14473
615.688	14497.57
615.884	15185.69
616.079	15177.5
616.274	15869.71
616.47	15882
616.665	16514.82
616.86	17233.66
617.055	17520.37
617.25	17852.14
617.445	18341.61
617.641	18341.61
617.836	19173.08
618.031	19349.21
618.226	20164.3
618.421	20700.87
618.616	20948.67
618.811	21069.5
619.006	21954.22
619.201	22347.43
619.396	23113.38
619.591	23299.74
619.786	23944.85
619.981	24254.09
620.176	25314.94
620.371	24903.3
620.566	26113.65
620.761	26463.85
620.956	27401.82
621.151	27197.02
621.346	28089.94
621.541	28417.61
621.735	28907.08
621.93	29451.84
622.125	30469.68
622.32	30381.62
622.515	31176.23
622.709	31706.65
622.904	32239.12
623.099	32876.04
623.294	33576.45
623.488	33789.44
623.683	34471.41
623.878	34919.92
624.072	35118.57
624.267	35984.86
624.462	36644.3
624.656	36783.57
624.851	37942.72
625.046	37965.24
625.24	38618.55
625.435	39067.05
625.629	39886.24
625.824	39904.67
626.018	40811.92
626.213	40392.09
626.407	41407.88
626.602	41475.46
626.796	42304.89
626.991	42481.02
627.185	43171.18
627.38	43244.91
627.574	42888.56
627.768	43431.27
627.963	43611.49
628.157	43851.11
628.352	44055.9
628.546	42993.01
628.74	43978.08
628.935	43185.52
629.129	43496.81
629.323	42718.58
629.517	42661.24
629.712	42605.94
629.906	42206.59
630.1	41301.39
630.294	41334.15
630.489	40783.25
630.683	40469.91
630.877	39087.53
631.071	38639.03
631.265	38684.08
631.459	37361.09
631.653	36517.33
631.848	35722.72
632.042	34567.66
632.236	34006.52
632.43	33015.3
632.624	32118.29
632.818	30977.58
633.012	29857.34
633.206	29072.96
633.4	28376.65
633.594	27213.41
633.788	26046.07
633.982	25501.31
634.176	24598.15
634.369	23166.62
634.563	22455.98
634.757	21606.07
634.951	20928.19
635.145	20188.88
635.339	19371.74
635.533	18341.61
635.726	18050.8
635.92	17030.91
636.114	16353.03
636.308	15529.75
636.501	14806.81
636.695	14597.92
636.889	13748.01
637.083	13295.41
637.276	12812.09
637.47	12105.54
637.664	11867.98
637.857	11206.49
638.051	10966.87
638.244	10207.08
638.438	9811.82
638.632	9572.21
638.825	8894.33
639.019	8955.77
639.212	8378.24
639.406	8228.74
639.599	7802.76
639.793	7509.9
639.986	7337.87
640.18	6920.09
640.373	6647.71
640.567	6354.85
640.76	6199.2
640.954	5973.92
641.147	5633.96
641.34	5339.05
641.534	5298.1
641.727	5060.53
641.92	4802.49
642.114	4728.76
642.307	4462.52
642.5	4288.45
642.694	4128.7
642.887	3895.24
643.08	3934.15
643.273	3815.37
643.467	3481.55
643.66	3293.13
643.853	3323.85
644.046	3123.15
644.239	3100.62
644.432	2918.36
644.626	2746.33
644.819	2670.55
645.012	2615.26
645.205	2480.09
645.398	2453.47
645.591	2273.25
645.784	2168.8
645.977	2060.26
646.17	2093.02
646.363	1916.9
646.556	1841.12
646.749	1787.88
646.942	1753.06
647.135	1830.88
647.328	1628.14
647.521	1531.88
647.714	1521.64
647.907	1456.11
648.099	1300.46
648.292	1490.92
648.485	1396.71
648.678	1191.92
648.871	1198.06
649.064	1200.11
649.256	1103.86
649.449	1144.81
649.642	1011.7
649.835	1040.37
650.027	917.49
650.22	985.07
650.413	819.19
650.605	872.43
650.798	819.19
650.991	772.08
651.183	753.65
651.376	722.93
651.568	751.6
651.761	759.8
651.954	745.46
652.146	583.67
652.339	696.31
652.531	692.21
652.724	612.34
652.916	610.29
653.109	559.1
653.301	653.3
653.494	571.38
653.686	475.13
653.879	589.82
654.071	518.14
654.263	448.51
654.456	468.98
654.648	534.52
654.84	499.7
655.033	479.22
655.225	538.62
655.417	344.06
655.61	516.09
655.802	477.18
655.994	507.9
656.186	313.34
656.379	524.28
656.571	413.69
656.763	325.63
656.955	348.15
657.148	309.24
657.34	462.84
657.532	274.43
657.724	325.63
657.916	399.35
658.108	419.83
658.3	430.07
658.492	370.68
658.684	237.56
658.876	284.67
659.068	165.89
659.26	182.27
659.452	225.28
659.644	241.66
659.836	276.48
660.028	231.42
660.22	247.8
660.412	208.89
660.604	278.52
660.796	243.71
660.988	356.35
661.18	143.36
661.372	286.72
661.563	159.74
661.755	264.19
661.947	155.65
662.139	133.12
662.331	258.04
662.522	237.56
662.714	184.32
662.906	167.93
663.097	219.13
663.289	90.11
663.481	139.26
663.673	196.61
663.864	192.51
664.056	280.57
664.247	63.49
664.439	276.48
664.631	270.33
664.822	262.14
665.014	186.37
665.205	147.45
665.397	145.41
665.588	225.28
665.78	116.73
665.971	114.69
666.163	112.64
666.354	280.57
666.546	63.49
666.737	77.82
666.929	53.25
667.12	178.17
667.311	153.6
667.503	143.36
667.694	178.17
667.885	174.08
668.077	194.56
668.268	61.44
668.459	118.78
668.651	161.79
668.842	165.89
669.033	98.3
669.224	88.06
669.416	346.11
669.607	133.12
669.798	79.87
669.989	256
670.18	126.97
670.371	180.22
670.563	-8.19
670.754	194.56
670.945	159.74
671.136	188.41
671.327	147.45
671.518	247.8
671.709	309.24
671.9	198.65
672.091	212.99
672.282	165.89
672.473	141.31
672.664	53.25
672.855	86.01
673.046	167.93
673.237	202.75
673.428	153.6
673.619	311.29
673.809	73.73
674	282.62
674.191	108.54
674.382	83.97
674.573	126.97
674.764	126.97
674.954	198.65
675.145	75.77
675.336	67.58
675.527	59.39
675.717	151.55
675.908	153.6
676.099	55.3
676.289	165.89
676.48	59.39
676.671	176.13
676.861	43.01
677.052	180.22
677.243	45.06
677.433	176.13
677.624	198.65
677.814	200.7
678.005	34.82
678.195	190.46
678.386	108.54
678.576	180.22
678.767	67.58
678.957	139.26
679.148	149.5
679.338	182.27
679.529	215.04
679.719	176.13
679.909	217.08
680.1	241.66
680.29	227.32
680.481	53.25
680.671	276.48
680.861	81.92
681.052	217.08
681.242	143.36
681.432	223.23
681.622	135.17
681.813	126.97
682.003	206.84
682.193	59.39
682.383	258.04
682.573	75.77
682.764	129.02
682.954	253.95
683.144	260.09
683.334	126.97
683.524	129.02
683.714	202.75
683.904	208.89
684.094	192.51
684.284	165.89
684.474	294.91
684.664	229.37
684.854	235.52
685.044	145.41
685.234	180.22
685.424	251.9
685.614	126.97
685.804	305.15
685.994	147.45
686.184	147.45
686.374	251.9
686.564	108.54
686.753	294.91
686.943	180.22
687.133	260.09
687.323	153.6
687.513	268.28
687.702	182.27
687.892	221.18
688.082	280.57
688.272	258.04
688.461	231.42
688.651	366.59
688.841	210.94
689.03	178.17
689.22	176.13
689.41	217.08
689.599	202.75
689.789	165.89
689.979	280.57
690.168	237.56
690.358	229.37
690.547	186.37
690.737	204.8
690.926	163.84
691.116	280.57
691.305	278.52
691.495	245.76
691.684	163.84
691.874	186.37
692.063	210.94
692.252	346.11
692.442	235.52
692.631	190.46
692.82	239.61
693.01	210.94
693.199	120.83
693.388	333.82
693.578	256
693.767	278.52
693.956	221.18
694.146	262.14
694.335	219.13
694.524	178.17
694.713	356.35
694.902	122.88
695.092	206.84
695.281	190.46
695.47	180.22
695.659	196.61
695.848	161.79
696.037	192.51
696.226	296.96
696.415	215.04
696.604	274.43
696.793	223.23
696.982	184.32
697.171	296.96
697.36	262.14
697.549	194.56
697.738	137.21
697.927	163.84
698.116	172.03
698.305	282.62
698.494	133.12
698.683	188.41
698.872	342.01
699.061	196.61
699.25	247.8
699.438	280.57
699.627	153.6
699.816	286.72
700.005	155.65
700.193	192.51
700.382	256
700.571	243.71
700.76	288.76
700.948	348.15
701.137	247.8
701.326	282.62
701.514	169.98
701.703	305.15
701.892	256
702.08	403.45
702.269	307.2
702.457	149.5
702.646	200.7
702.834	190.46
703.023	294.91
703.212	376.83
703.4	241.66
703.589	231.42
703.777	151.55
703.965	260.09
704.154	192.51
704.342	153.6
704.531	182.27
704.719	223.23
704.907	292.86
705.096	198.65
705.284	159.74
705.472	231.42
705.661	196.61
705.849	217.08
706.037	296.96
706.226	210.94
706.414	210.94
706.602	149.5
706.79	212.99
706.979	122.88
707.167	235.52
707.355	149.5
707.543	249.85
707.731	233.47
707.919	167.93
708.107	155.65
708.296	208.89
708.484	98.3
708.672	172.03
708.86	233.47
709.048	233.47
709.236	176.13
709.424	292.86
709.612	223.23
709.8	225.28
709.988	258.04
710.176	272.38
710.364	327.67
710.551	233.47
710.739	245.76
710.927	219.13
711.115	253.95
711.303	229.37
711.491	292.86
711.679	143.36
711.866	284.67
712.054	221.18
712.242	184.32
712.43	278.52
712.617	194.56
712.805	348.15
712.993	202.75
713.181	147.45
713.368	333.82
713.556	182.27
713.744	178.17
713.931	313.34
714.119	245.76
714.306	233.47
714.494	256
714.682	221.18
714.869	110.59
715.057	233.47
715.244	90.11
715.432	176.13
715.619	131.07
715.807	200.7
715.994	202.75
716.182	147.45
716.369	286.72
716.556	346.11
716.744	159.74
716.931	165.89
717.119	270.33
717.306	184.32
717.493	262.14
717.681	202.75
717.868	188.41
718.055	256
718.242	215.04
718.43	262.14
718.617	270.33
718.804	210.94
718.991	325.63
719.179	307.2
719.366	225.28
719.553	251.9
719.74	282.62
719.927	215.04
720.114	251.9
720.301	188.41
720.488	184.32
720.676	126.97
720.863	350.2
721.05	327.67
721.237	346.11
721.424	307.2
721.611	321.53
721.798	194.56
721.985	202.75
722.172	196.61
722.358	245.76
722.545	319.48
722.732	288.76
722.919	258.04
723.106	321.53
723.293	294.91
723.48	264.19
723.667	223.23
723.853	389.11
724.04	284.67
724.227	409.59
724.414	303.1
724.6	245.76
724.787	393.21
724.974	382.97
725.161	272.38
725.347	200.7
725.534	282.62
725.72	251.9
725.907	348.15
726.094	309.24
726.28	282.62
726.467	260.09
726.653	262.14
726.84	294.91
727.027	380.92
727.213	303.1
727.4	346.11
727.586	307.2
727.773	253.95
727.959	174.08
728.145	292.86
728.332	253.95
728.518	186.37
728.705	311.29
728.891	272.38
729.077	243.71
729.264	184.32
729.45	237.56
729.636	352.25
729.823	241.66
730.009	303.1
730.195	313.34
730.382	364.54
730.568	198.65
730.754	278.52
730.94	268.28
731.126	346.11
731.313	311.29
731.499	241.66
731.685	382.97
731.871	382.97
732.057	286.72
732.243	301.05
732.429	315.39
732.615	440.31
732.801	311.29
732.987	264.19
733.173	323.58
733.359	215.04
733.545	288.76
733.731	296.96
733.917	323.58
734.103	229.37
734.289	315.39
734.475	210.94
734.661	475.13
734.847	309.24
735.033	372.73
735.219	333.82
735.404	206.84
735.59	303.1
735.776	235.52
735.962	278.52
736.148	352.25
736.333	452.6
736.519	325.63
736.705	245.76
736.89	292.86
737.076	333.82
737.262	270.33
737.447	317.44
737.633	266.24
737.819	395.26
738.004	266.24
738.19	272.38
738.375	339.96
738.561	403.45
738.747	319.48
738.932	231.42
739.118	389.11
739.303	393.21
739.489	370.68
739.674	192.51
739.859	204.8
740.045	346.11
740.23	272.38
740.416	180.22
740.601	364.54
740.786	270.33
740.972	159.74
741.157	215.04
741.342	251.9
741.528	174.08
741.713	389.11
741.898	344.06
742.084	323.58
742.269	239.61
742.454	276.48
742.639	352.25
742.824	249.85
743.01	374.78
743.195	430.07
743.38	284.67
743.565	227.32
743.75	360.44
743.935	311.29
744.12	280.57
744.305	163.84
744.49	233.47
744.675	290.81
744.86	319.48
745.045	335.87
745.23	262.14
745.415	200.7
745.6	319.48
745.785	294.91
745.97	372.73
746.155	247.8
746.34	325.63
746.525	247.8
746.71	385.02
746.895	194.56
747.079	151.55
747.264	212.99
747.449	311.29
747.634	333.82
747.819	260.09
748.003	307.2
748.188	247.8
748.373	307.2
748.557	247.8
748.742	270.33
748.927	329.72
749.111	305.15
749.296	317.44
749.481	194.56
749.665	329.72
749.85	194.56
750.034	299
750.219	262.14
750.404	229.37
750.588	239.61
750.773	262.14
750.957	284.67
751.141	247.8
751.326	231.42
751.51	178.17
751.695	196.61
751.879	184.32
752.064	344.06
752.248	219.13
752.432	335.87
752.617	249.85
752.801	235.52
752.985	227.32
753.17	280.57
753.354	223.23
753.538	235.52
753.722	192.51
753.907	206.84
754.091	165.89
754.275	249.85
754.459	206.84
754.643	159.74
754.828	245.76
755.012	251.9
755.196	167.93
755.38	221.18
755.564	180.22
755.748	290.81
755.932	303.1
756.116	264.19
756.3	212.99
756.484	137.21
756.668	260.09
756.852	118.78
757.036	137.21
757.22	219.13
757.404	161.79
757.588	200.7
757.772	251.9
757.956	186.37
758.14	268.28
758.323	122.88
758.507	231.42
758.691	165.89
758.875	266.24
759.059	272.38
759.242	167.93
759.426	223.23
759.61	153.6
759.794	86.01
759.977	223.23
760.161	362.49
760.345	317.44
760.528	245.76
760.712	143.36
760.895	165.89
761.079	172.03
761.263	92.16
761.446	73.73
761.63	208.89
761.813	249.85
761.997	79.87
762.18	135.17
762.364	184.32
762.547	36.86
762.731	110.59
762.914	172.03
763.098	118.78
763.281	149.5
763.464	133.12
763.648	145.41
763.831	186.37
764.015	-26.62
764.198	186.37
764.381	116.73
764.564	120.83
764.748	98.3
764.931	192.51
765.114	129.02
765.297	221.18
765.481	77.82
765.664	122.88
765.847	59.39
766.03	210.94
766.213	81.92
766.397	169.98
766.58	-24.58
766.763	180.22
766.946	124.93
767.129	118.78
767.312	102.4
767.495	69.63
767.678	55.3
767.861	104.45
768.044	114.69
768.227	137.21
768.41	57.34
768.593	155.65
768.776	122.88
768.959	69.63
769.142	157.69
769.324	69.63
769.507	153.6
769.69	90.11
769.873	176.13
770.056	266.24
770.239	49.15
770.421	118.78
770.604	167.93
770.787	86.01
770.97	145.41
771.152	-18.43
771.335	147.45
771.518	30.72
771.7	219.13
771.883	284.67
772.066	112.64
772.248	77.82
772.431	174.08
772.613	196.61
772.796	14.34
772.978	129.02
773.161	225.28
773.343	71.68
773.526	178.17
773.708	10.24
773.891	-26.62
774.073	18.43
774.256	28.67
774.438	192.51
774.621	102.4
774.803	145.41
774.985	88.06
775.168	137.21
775.35	92.16
775.532	151.55
775.715	4.1
775.897	122.88
776.079	53.25
776.261	137.21
776.444	79.87
776.626	155.65
776.808	155.65
776.99	36.86
777.173	30.72
777.355	79.87
777.537	57.34
777.719	43.01
777.901	61.44
778.083	-10.24
778.265	28.67
778.447	114.69
778.629	59.39
778.811	55.3
778.993	102.4
779.175	124.93
779.357	57.34
779.539	6.14
779.721	100.35
779.903	53.25
780.085	-38.91
780.267	133.12
780.449	104.45
780.631	108.54
780.812	190.46
780.994	122.88
781.176	81.92
781.358	71.68
781.54	-10.24
781.721	102.4
781.903	100.35
782.085	-6.14
782.267	147.45
782.448	-16.38
782.63	126.97
782.812	100.35
782.993	77.82
783.175	77.82
783.357	6.14
783.538	57.34
783.72	10.24
783.901	49.15
784.083	63.49
784.264	59.39
784.446	34.82
784.627	106.49
784.809	129.02
784.99	-38.91
785.172	133.12
785.353	77.82
785.535	65.54
785.716	32.77
785.897	-47.1
786.079	-16.38
786.26	69.63
786.441	65.54
786.623	-53.25
786.804	-36.86
786.985	24.58
787.167	49.15
787.348	40.96
787.529	20.48
787.71	196.61
787.891	61.44
788.073	-53.25
788.254	-43.01
788.435	143.36
788.616	2.05
788.797	2.05
788.978	18.43
789.159	-28.67
789.34	108.54
789.522	40.96
789.703	20.48
789.884	47.1
790.065	108.54
790.246	139.26
790.427	18.43
790.607	163.84
790.788	96.25
790.969	10.24
791.15	45.06
791.331	-20.48
791.512	-75.77
791.693	-12.29
791.874	18.43
792.054	165.89
792.235	43.01
792.416	-30.72
792.597	6.14
792.778	22.53
792.958	124.93
793.139	-18.43
793.32	65.54
793.5	26.62
793.681	106.49
793.862	106.49
794.042	30.72
794.223	-77.82
794.404	-24.58
794.584	-98.3
794.765	116.73
794.945	43.01
795.126	100.35
795.306	69.63
795.487	-20.48
795.667	30.72
795.848	151.55
796.028	26.62
796.209	69.63
796.389	100.35
796.57	65.54
796.75	-65.53
796.93	67.58
797.111	-57.34
797.291	2.05
797.471	131.07
797.652	-16.38
797.832	-24.58
798.012	40.96
798.192	-59.39
798.373	-45.06
798.553	10.24
798.733	67.58
798.913	-45.06
799.093	-34.82
799.274	34.82
799.454	182.27
799.634	49.15
799.814	92.16
799.994	88.06
800.174	92.16
800.354	43.01
800.534	20.48
800.714	135.17
800.894	-34.82
801.074	-102.4
801.254	2.05
801.434	206.84
801.614	28.67
801.794	-28.67
801.974	1847.27
802.154	-49.15
802.334	178.17
802.514	-86.01
802.693	73.73
802.873	61.44
803.053	67.58
803.233	32.77
803.413	8.19
803.592	16.38
803.772	-20.48
803.952	77.82
804.131	-36.86
804.311	83.97
804.491	120.83
804.67	-47.1
804.85	-36.86
805.03	77.82
805.209	30.72
805.389	12.29
805.568	-4.1
805.748	2.05
805.928	98.3
806.107	108.54
806.287	49.15
806.466	16.38
806.646	-69.63
806.825	30.72
807.004	14.34
807.184	38.91
807.363	57.34
807.543	0
807.722	-20.48
807.901	129.02
808.081	106.49
808.26	-139.26
808.439	77.82
808.619	16.38
808.798	28.67
808.977	53.25
809.156	131.07
809.336	38.91
809.515	159.74
809.694	-4.1
809.873	-96.25
810.052	57.34
810.231	176.13
810.411	38.91
810.59	59.39
810.769	55.3
810.948	118.78
811.127	-96.25
811.306	36.86
811.485	-45.06
811.664	161.79
811.843	22.53
812.022	14.34
812.201	-65.53
812.38	0
812.559	-55.3
812.737	122.88
812.916	-94.21
813.095	-24.58
813.274	83.97
813.453	-30.72
813.632	47.1
813.811	88.06
813.989	-110.59
814.168	12.29
814.347	47.1
814.526	-22.53
814.704	143.36
814.883	129.02
815.062	-73.73
815.24	88.06
815.419	-32.77
815.598	98.3
815.776	-155.65
815.955	4.1
816.133	-94.21
816.312	77.82
816.49	14.34
816.669	36.86
816.847	-38.91
817.026	59.39
817.204	-18.43
817.383	24.58
817.561	-32.77
817.74	81.92
817.918	16.38
818.097	-18.43
818.275	16.38
818.453	96.25
818.632	77.82
818.81	-36.86
818.988	36.86
819.167	-98.3
819.345	88.06
819.523	-12.29
819.701	-14.34
819.879	32.77
820.058	12.29
820.236	28.67
820.414	0
820.592	47.1
820.77	-12.29
820.948	20.48
821.127	-14.34
821.305	96.25
821.483	-45.06
821.661	90.11
821.839	6.14
822.017	-73.73
822.195	8.19
822.373	73.73
822.551	4.1
822.729	65.54
822.907	-2.05
823.085	79.87
823.262	108.54
823.44	-49.15
823.618	53.25
823.796	16.38
823.974	6.14
824.152	-96.25
824.329	45.06
824.507	83.97
824.685	32.77
824.863	43.01
825.04	22.53
825.218	2.05
825.396	30.72
825.574	18.43
825.751	51.2
825.929	30.72
826.107	-51.2
826.284	43.01
826.462	49.15
826.639	-55.3
826.817	-6.14
826.994	-12.29
827.172	-63.49
827.349	24.58
827.527	-24.58
827.704	28.67
827.882	20.48
828.059	61.44
828.237	-2.05
828.414	131.07
828.591	-139.26
828.769	49.15
828.946	-14.34
829.124	65.54
829.301	-2.05
829.478	-18.43
829.655	8.19
829.833	16.38
830.01	-126.97
830.187	2.05
830.364	2.05
830.542	18.43
830.719	155.65
830.896	67.58
831.073	55.3
831.25	-36.86
831.427	18.43
831.604	55.3
831.782	-100.35
831.959	10.24
832.136	2.05
832.313	-28.67
832.49	-59.39
832.667	-28.67
832.844	2.05
833.021	65.54
833.198	32.77
833.374	49.15
833.551	-94.21
833.728	-26.62
833.905	155.65
834.082	-116.73
834.259	0
834.436	120.83
834.612	-57.34
834.789	12.29
834.966	-45.06
835.143	122.88
835.319	-96.25
835.496	-45.06
835.673	75.77
835.85	-6.14
836.026	40.96
836.203	26.62
836.38	-30.72
836.556	-18.43
836.733	-49.15
836.909	69.63
837.086	-34.82
837.262	-83.97
837.439	92.16
837.616	4.1
837.792	-34.82
837.968	47.1
838.145	-90.11
838.321	65.54
838.498	122.88
838.674	104.45
838.851	-12.29
839.027	-55.3
839.203	43.01
839.38	47.1
839.556	36.86
839.732	63.49
839.909	55.3
840.085	12.29
840.261	8.19
840.437	-28.67
840.614	-22.53
840.79	94.21
840.966	6.14
841.142	-14.34
841.318	2.05
841.494	38.91
841.671	40.96
841.847	-16.38
842.023	-149.5
842.199	81.92
842.375	124.93
842.551	-47.1
842.727	-104.45
842.903	161.79
843.079	-61.44
843.255	51.2
843.431	40.96
843.607	-26.62
843.783	-153.6
843.959	2.05
844.134	-45.06
844.31	14.34
844.486	32.77
844.662	8.19
844.838	49.15
845.013	43.01
845.189	4.1
845.365	22.53
845.541	75.77
845.716	-8.19
845.892	40.96
846.068	-53.25
846.244	-49.15
846.419	12.29
846.595	20.48
846.77	-100.35
846.946	28.67
847.122	-22.53
847.297	-6.14
847.473	161.79
847.648	-40.96
847.824	40.96
847.999	-86.01
848.175	-2.05
848.35	71.68
848.526	100.35
848.701	49.15
848.876	55.3
849.052	92.16
849.227	-65.53
849.403	-2.05
849.578	8.19
849.753	-40.96
849.929	14.34
850.104	-26.62
850.279	-2.05
850.454	-32.77
850.63	88.06
850.805	-32.77
850.98	-18.43
851.155	6.14
851.33	10.24
851.505	-6.14
851.681	55.3
851.856	-43.01
852.031	77.82
852.206	45.06
852.381	10.24
852.556	32.77
852.731	45.06
852.906	59.39
853.081	-20.48
853.256	137.21
853.431	-63.49
853.606	-24.58
853.781	-86.01
853.956	-16.38
854.131	59.39
854.305	-20.48
854.48	-98.3
854.655	-20.48
854.83	0
855.005	-14.34
855.18	10.24
855.354	-83.97
855.529	36.86
855.704	28.67
855.879	120.83
856.053	-96.25
856.228	18.43
856.403	-94.21
856.577	2.05
856.752	-57.34
856.926	26.62
857.101	8.19
857.276	-24.58
857.45	-6.14
857.625	133.12
857.799	38.91
857.974	81.92
858.148	-118.78
858.323	-10.24
858.497	-67.58
858.672	-90.11
858.846	4.1
859.02	55.3
859.195	-88.06
859.369	14.34
859.543	18.43
859.718	-51.2
859.892	43.01
860.066	81.92
860.241	-34.82
860.415	2.05
860.589	40.96
860.763	22.53
860.938	-26.62
861.112	73.73
861.286	45.06
861.46	-2.05
861.634	-6.14
861.808	49.15
861.982	-63.49
862.157	-49.15
862.331	-24.58
862.505	-116.73
862.679	-59.39
862.853	-38.91
863.027	-57.34
863.201	81.92
863.375	-45.06
863.549	-4.1
863.722	75.77
863.896	180.22
864.07	22.53
864.244	30.72
864.418	137.21
864.592	30.72
864.766	112.64
864.939	-14.34
865.113	14.34
865.287	159.74
865.461	-53.25
865.634	49.15
865.808	-6.14
865.982	-53.25
866.156	-59.39
866.329	-59.39
866.503	26.62
866.676	116.73
866.85	2.05
867.024	-49.15
867.197	77.82
867.371	47.1
867.544	69.63
867.718	-67.58
867.891	184.32
868.065	-38.91
868.238	-51.2
868.412	53.25
868.585	36.86
868.759	-57.34
868.932	24.58
869.105	-57.34
869.279	49.15
869.452	-73.73
869.625	16.38
869.799	-63.49
869.972	-126.97
870.145	-102.4
870.319	194.56
870.492	-90.11
870.665	-43.01
870.838	-98.3
871.011	-208.89
871.185	32.77
871.358	-114.69
871.531	73.73
871.704	38.91
871.877	18.43
872.05	-49.15
872.223	-12.29
872.396	88.06
872.569	79.87
872.742	-79.87
872.915	57.34
873.088	-63.49
873.261	-34.82
873.434	98.3
873.607	-24.58
873.78	71.68
873.953	-40.96
874.126	-22.53
874.299	12.29
874.471	-116.73
874.644	-6.14
874.817	61.44
874.99	163.84
875.163	-6.14
875.335	32.77
875.508	30.72
875.681	47.1
875.853	-12.29
876.026	6.14
876.199	8.19
876.371	55.3
876.544	-18.43
876.717	55.3
876.889	-26.62
877.062	34.82
877.234	-59.39
877.407	-77.82
877.579	16.38
877.752	-69.63
877.924	61.44
878.097	-61.44
878.269	0
878.442	16.38
878.614	2.05
878.786	24.58
878.959	-38.91
879.131	18.43
879.303	-143.36
879.476	-34.82
879.648	34.82
879.82	0
879.993	47.1
880.165	12.29
880.337	-34.82
880.509	-47.1
880.681	-126.97
880.854	-139.26
881.026	20.48
881.198	131.07
881.37	-34.82
881.542	36.86
881.714	0
881.886	-36.86
882.058	-22.53
882.23	8.19
882.402	14.34
882.574	77.82
882.746	10.24
882.918	94.21
883.09	-2.05
883.262	-47.1
883.434	26.62
883.606	-14.34
883.778	-24.58
883.95	120.83
884.122	0
884.293	98.3
884.465	12.29
884.637	77.82
884.809	8.19
884.98	67.58
885.152	65.54
885.324	59.39
885.496	-6.14
885.667	-20.48
885.839	-51.2
886.011	145.41
886.182	51.2
886.354	63.49
886.525	51.2
886.697	30.72
886.869	-18.43
887.04	-55.3
887.212	69.63
887.383	176.13
887.555	-16.38
887.726	0
887.897	-38.91
888.069	24.58
888.24	81.92
888.412	-40.96
888.583	34.82
888.754	-28.67
888.926	-108.54
889.097	-49.15
889.268	-65.53
889.44	32.77
889.611	-61.44
889.782	8.19
889.953	-24.58
890.125	172.03
890.296	0
890.467	59.39
890.638	-104.45
890.809	-30.72
890.98	-49.15
891.151	18.43
891.323	147.45
891.494	-86.01
891.665	-18.43
891.836	40.96
892.007	16.38
892.178	45.06
892.349	-38.91
892.52	-73.73
892.691	-2.05
892.862	-47.1
893.032	-98.3
893.203	16.38
893.374	30.72
893.545	90.11
893.716	-86.01
893.887	20.48
894.057	-32.77
894.228	-2.05
894.399	4.1
894.57	81.92
894.74	-32.77
894.911	-38.91
895.082	-4.1
895.253	-57.34
895.423	32.77
895.594	22.53
895.764	65.54
895.935	-79.87
896.106	94.21
896.276	-26.62
896.447	63.49
896.617	-8.19
896.788	-133.12
896.958	-40.96
897.129	-30.72
897.299	-106.49
897.47	122.88
897.64	24.58
897.81	0
897.981	16.38
898.151	-36.86
898.322	67.58
898.492	43.01
898.662	-94.21
898.832	-47.1
899.003	-61.44
899.173	59.39
899.343	-36.86
899.513	-102.4
