Data from USB4F104151__56__09-28-28-001.txt Node

Date: Wed Feb 26 09:28:28 EST 2025
User: louis
Spectrometer: USB4F10415
Trigger mode: 4
Integration Time (sec): 1.000000E-1
Scans to average: 1
Electric dark correction enabled: true
Nonlinearity correction enabled: false
Boxcar width: 0
XAxis mode: Wavelengths
Number of Pixels in Spectrum: 3648
>>>>>Begin Spectral Data<<<<<
178.204	-362.83
178.424	-362.83
178.644	-362.83
178.864	-371.02
179.084	-350.54
179.304	-6.49
179.524	-29.01
179.744	28.33
179.964	118.44
180.184	22.19
180.404	7.85
180.624	-72.02
180.844	5.8
181.064	-22.87
181.283	9.9
181.503	-88.4
181.723	26.28
181.943	-39.25
182.163	155.3
182.383	-63.83
182.602	136.87
182.822	163.5
183.042	24.23
183.262	-37.2
183.482	52.91
183.701	61.1
183.921	1.71
184.141	-20.82
184.361	116.39
184.58	30.38
184.8	7.85
185.02	3.75
185.239	85.67
185.459	7.85
185.679	91.82
185.898	-112.98
186.118	3.75
186.338	52.91
186.557	106.15
186.777	-45.4
186.997	-49.49
187.216	-37.2
187.436	89.77
187.655	-20.82
187.875	13.99
188.095	44.71
188.314	81.58
188.534	138.92
188.753	-8.53
188.973	83.63
189.192	132.78
189.412	9.9
189.631	28.33
189.851	85.67
190.07	179.88
190.29	-10.58
190.509	1.71
190.729	85.67
190.948	159.4
191.168	306.85
191.387	151.21
191.607	42.67
191.826	75.43
192.045	7.85
192.265	-49.49
192.484	134.82
192.704	44.71
192.923	-20.82
193.142	143.02
193.362	77.48
193.581	116.39
193.8	118.44
194.02	73.39
194.239	95.91
194.458	32.43
194.678	44.71
194.897	26.28
195.116	118.44
195.335	97.96
195.555	77.48
195.774	-33.11
195.993	83.63
196.212	-8.53
196.432	-31.06
196.651	-49.49
196.87	-4.44
197.089	188.07
197.308	73.39
197.528	75.43
197.747	-53.59
197.966	-2.39
198.185	95.91
198.404	-63.83
198.623	122.54
198.842	100.01
199.062	89.77
199.281	110.25
199.5	50.86
199.719	40.62
199.938	61.1
200.157	130.73
200.376	102.06
200.595	155.3
200.814	36.52
201.033	-4.44
201.252	138.92
201.471	28.33
201.69	106.15
201.909	50.86
202.128	124.58
202.347	69.29
202.566	114.34
202.785	-57.68
203.004	32.43
203.223	265.89
203.442	28.33
203.661	-45.4
203.879	-31.06
204.098	179.88
204.317	-37.2
204.536	83.63
204.755	165.54
204.974	77.48
205.193	26.28
205.411	124.58
205.63	13.99
205.849	106.15
206.068	26.28
206.287	-20.82
206.505	130.73
206.724	-33.11
206.943	22.19
207.162	24.23
207.381	91.82
207.599	26.28
207.818	91.82
208.037	-22.87
208.255	3.75
208.474	83.63
208.693	30.38
208.911	-35.16
209.13	57
209.349	63.15
209.567	126.63
209.786	104.11
210.005	151.21
210.223	48.81
210.442	-131.41
210.661	30.38
210.879	-10.58
211.098	42.67
211.316	36.52
211.535	67.24
211.753	75.43
211.972	28.33
212.191	44.71
212.409	102.06
212.628	110.25
212.846	52.91
213.065	42.67
213.283	67.24
213.502	-8.53
213.72	9.9
213.938	24.23
214.157	-14.68
214.375	65.19
214.594	-4.44
214.812	106.15
215.031	48.81
215.249	85.67
215.467	48.81
215.686	48.81
215.904	153.26
216.122	89.77
216.341	114.34
216.559	75.43
216.778	114.34
216.996	85.67
217.214	11.95
217.432	50.86
217.651	1.71
217.869	7.85
218.087	-39.25
218.306	-51.54
218.524	65.19
218.742	34.47
218.96	44.71
219.179	38.57
219.397	38.57
219.615	163.5
219.833	11.95
220.051	24.23
220.27	95.91
220.488	24.23
220.706	-2.39
220.924	28.33
221.142	34.47
221.36	36.52
221.578	38.57
221.796	61.1
222.015	-12.63
222.233	7.85
222.451	157.35
222.669	-12.63
222.887	136.87
223.105	-20.82
223.323	-20.82
223.541	-57.68
223.759	67.24
223.977	77.48
224.195	143.02
224.413	26.28
224.631	95.91
224.849	69.29
225.067	110.25
225.285	-0.34
225.503	-2.39
225.721	-74.07
225.939	71.34
226.157	22.19
226.375	177.83
226.592	73.39
226.81	57
227.028	34.47
227.246	69.29
227.464	50.86
227.682	122.54
227.9	91.82
228.117	-8.53
228.335	102.06
228.553	63.15
228.771	59.05
228.989	69.29
229.206	110.25
229.424	-72.02
229.642	-41.3
229.86	3.75
230.077	118.44
230.295	52.91
230.513	124.58
230.731	42.67
230.948	118.44
231.166	183.98
231.384	77.48
231.601	-10.58
231.819	118.44
232.037	50.86
232.254	-106.84
232.472	63.15
232.689	-16.73
232.907	165.54
233.125	-41.3
233.342	-49.49
233.56	-41.3
233.777	5.8
233.995	13.99
234.213	151.21
234.43	77.48
234.648	13.99
234.865	-6.49
235.083	118.44
235.3	50.86
235.518	143.02
235.735	87.72
235.953	93.87
236.17	-10.58
236.388	34.47
236.605	52.91
236.822	124.58
237.04	42.67
237.257	73.39
237.475	34.47
237.692	65.19
237.909	65.19
238.127	3.75
238.344	100.01
238.562	13.99
238.779	-6.49
238.996	28.33
239.214	24.23
239.431	134.82
239.648	13.99
239.865	147.11
240.083	77.48
240.3	-4.44
240.517	32.43
240.735	-80.21
240.952	188.07
241.169	-20.82
241.386	61.1
241.603	-33.11
241.821	-29.01
242.038	79.53
242.255	69.29
242.472	-65.88
242.689	65.19
242.907	69.29
243.124	71.34
243.341	38.57
243.558	28.33
243.775	-4.44
243.992	-10.58
244.209	100.01
244.426	179.88
244.643	44.71
244.86	65.19
245.078	-12.63
245.295	16.04
245.512	36.52
245.729	34.47
245.946	-0.34
246.163	-20.82
246.38	-67.92
246.597	110.25
246.814	22.19
247.031	20.14
247.248	81.58
247.464	24.23
247.681	67.24
247.898	-53.59
248.115	61.1
248.332	-39.25
248.549	112.3
248.766	130.73
248.983	71.34
249.2	79.53
249.417	75.43
249.633	73.39
249.85	85.67
250.067	-37.2
250.284	77.48
250.501	81.58
250.717	132.78
250.934	-4.44
251.151	3.75
251.368	1.71
251.585	147.11
251.801	110.25
252.018	3.75
252.235	11.95
252.451	-20.82
252.668	-45.4
252.885	143.02
253.102	87.72
253.318	24.23
253.535	69.29
253.752	22.19
253.968	42.67
254.185	-76.12
254.401	73.39
254.618	112.3
254.835	-55.64
255.051	77.48
255.268	106.15
255.484	73.39
255.701	30.38
255.917	36.52
256.134	77.48
256.351	22.19
256.567	-29.01
256.784	-8.53
257	11.95
257.217	26.28
257.433	108.2
257.65	-43.35
257.866	46.76
258.082	-131.41
258.299	-61.78
258.515	-20.82
258.732	13.99
258.948	-12.63
259.165	83.63
259.381	-37.2
259.597	95.91
259.814	114.34
260.03	-16.73
260.246	77.48
260.463	120.49
260.679	104.11
260.895	67.24
261.112	50.86
261.328	-10.58
261.544	20.14
261.761	159.4
261.977	-6.49
262.193	-63.83
262.409	61.1
262.626	54.95
262.842	13.99
263.058	-24.92
263.274	83.63
263.49	18.09
263.707	-0.34
263.923	118.44
264.139	-37.2
264.355	-12.63
264.571	50.86
264.787	77.48
265.004	77.48
265.22	-6.49
265.436	-0.34
265.652	-0.34
265.868	24.23
266.084	-76.12
266.3	54.95
266.516	-20.82
266.732	46.76
266.948	28.33
267.164	69.29
267.38	81.58
267.596	40.62
267.812	212.65
268.028	134.82
268.244	52.91
268.46	40.62
268.676	75.43
268.892	-0.34
269.108	-72.02
269.324	1.71
269.54	-82.26
269.756	87.72
269.972	-82.26
270.188	-121.17
270.403	-24.92
270.619	52.91
270.835	79.53
271.051	77.48
271.267	57
271.483	-16.73
271.698	81.58
271.914	24.23
272.13	77.48
272.346	16.04
272.562	52.91
272.777	132.78
272.993	-22.87
273.209	-61.78
273.425	50.86
273.64	-82.26
273.856	85.67
274.072	-20.82
274.287	-51.54
274.503	110.25
274.719	132.78
274.934	-16.73
275.15	-37.2
275.366	32.43
275.581	-4.44
275.797	93.87
276.012	73.39
276.228	100.01
276.444	38.57
276.659	104.11
276.875	-102.74
277.09	24.23
277.306	9.9
277.521	28.33
277.737	32.43
277.952	-8.53
278.168	50.86
278.383	36.52
278.599	-4.44
278.814	48.81
279.03	67.24
279.245	93.87
279.461	-24.92
279.676	122.54
279.892	-72.02
280.107	-78.16
280.322	-51.54
280.538	89.77
280.753	67.24
280.969	89.77
281.184	57
281.399	85.67
281.615	7.85
281.83	79.53
282.045	-31.06
282.26	-12.63
282.476	-6.49
282.691	143.02
282.906	83.63
283.122	57
283.337	44.71
283.552	85.67
283.767	-20.82
283.983	95.91
284.198	20.14
284.413	95.91
284.628	-53.59
284.843	77.48
285.058	26.28
285.274	36.52
285.489	-82.26
285.704	-33.11
285.919	-4.44
286.134	-37.2
286.349	48.81
286.564	61.1
286.779	198.31
286.995	-22.87
287.21	36.52
287.425	106.15
287.64	1.71
287.855	81.58
288.07	-43.35
288.285	140.97
288.5	171.69
288.715	122.54
288.93	102.06
289.145	22.19
289.36	57
289.575	22.19
289.79	128.68
290.004	-43.35
290.219	69.29
290.434	-69.97
290.649	-72.02
290.864	-35.16
291.079	30.38
291.294	42.67
291.509	77.48
291.724	-69.97
291.938	26.28
292.153	89.77
292.368	44.71
292.583	153.26
292.798	9.9
293.012	73.39
293.227	59.05
293.442	-24.92
293.657	102.06
293.871	85.67
294.086	42.67
294.301	206.5
294.516	151.21
294.73	44.71
294.945	-2.39
295.16	59.05
295.374	97.96
295.589	77.48
295.804	-29.01
296.018	69.29
296.233	69.29
296.447	134.82
296.662	28.33
296.877	100.01
297.091	77.48
297.306	-49.49
297.52	110.25
297.735	-12.63
297.949	57
298.164	112.3
298.378	110.25
298.593	40.62
298.807	85.67
299.022	73.39
299.236	198.31
299.451	93.87
299.665	26.28
299.88	13.99
300.094	44.71
300.309	46.76
300.523	-20.82
300.737	79.53
300.952	26.28
301.166	126.63
301.381	-31.06
301.595	-69.97
301.809	69.29
302.024	13.99
302.238	-53.59
302.452	149.16
302.667	-16.73
302.881	100.01
303.095	89.77
303.309	102.06
303.524	-4.44
303.738	-4.44
303.952	9.9
304.166	22.19
304.381	-88.4
304.595	151.21
304.809	-45.4
305.023	44.71
305.237	16.04
305.452	-53.59
305.666	83.63
305.88	91.82
306.094	104.11
306.308	42.67
306.522	110.25
306.736	85.67
306.95	89.77
307.164	-22.87
307.379	-2.39
307.593	147.11
307.807	130.73
308.021	69.29
308.235	136.87
308.449	7.85
308.663	24.23
308.877	100.01
309.091	89.77
309.305	32.43
309.519	-94.55
309.733	67.24
309.947	-69.97
310.161	114.34
310.374	18.09
310.588	116.39
310.802	-22.87
311.016	-37.2
311.23	61.1
311.444	73.39
311.658	44.71
311.872	102.06
312.085	91.82
312.299	169.64
312.513	95.91
312.727	36.52
312.941	-24.92
313.154	95.91
313.368	-39.25
313.582	44.71
313.796	-24.92
314.009	44.71
314.223	83.63
314.437	5.8
314.651	77.48
314.864	-41.3
315.078	-53.59
315.292	-112.98
315.505	24.23
315.719	95.91
315.933	40.62
316.146	20.14
316.36	18.09
316.573	122.54
316.787	32.43
317.001	20.14
317.214	36.52
317.428	59.05
317.641	-112.98
317.855	26.28
318.068	28.33
318.282	13.99
318.495	175.78
318.709	40.62
318.922	-37.2
319.136	100.01
319.349	52.91
319.563	-45.4
319.776	132.78
319.99	-55.64
320.203	83.63
320.417	57
320.63	108.2
320.843	163.5
321.057	32.43
321.27	85.67
321.483	91.82
321.697	114.34
321.91	44.71
322.124	48.81
322.337	28.33
322.55	-8.53
322.763	132.78
322.977	89.77
323.19	-12.63
323.403	69.29
323.617	77.48
323.83	100.01
324.043	-22.87
324.256	-22.87
324.469	-16.73
324.683	73.39
324.896	116.39
325.109	16.04
325.322	-45.4
325.535	157.35
325.748	59.05
325.962	-8.53
326.175	5.8
326.388	110.25
326.601	91.82
326.814	-10.58
327.027	1.71
327.24	75.43
327.453	-18.77
327.666	67.24
327.879	61.1
328.092	132.78
328.305	48.81
328.518	-45.4
328.731	-31.06
328.944	11.95
329.157	7.85
329.37	22.19
329.583	175.78
329.796	97.96
330.009	-94.55
330.222	61.1
330.435	-37.2
330.648	-14.68
330.861	67.24
331.073	11.95
331.286	202.41
331.499	7.85
331.712	-24.92
331.925	-24.92
332.138	67.24
332.35	106.15
332.563	-43.35
332.776	120.49
332.989	-8.53
333.202	26.28
333.414	40.62
333.627	20.14
333.84	57
334.053	126.63
334.265	-47.44
334.478	20.14
334.691	89.77
334.903	67.24
335.116	-24.92
335.329	65.19
335.541	87.72
335.754	155.3
335.966	-37.2
336.179	28.33
336.392	28.33
336.604	1.71
336.817	97.96
337.029	79.53
337.242	3.75
337.454	69.29
337.667	1.71
337.88	132.78
338.092	97.96
338.305	143.02
338.517	-65.88
338.729	69.29
338.942	138.92
339.154	-33.11
339.367	-55.64
339.579	116.39
339.792	24.23
340.004	89.77
340.217	38.57
340.429	89.77
340.641	9.9
340.854	30.38
341.066	44.71
341.278	126.63
341.491	130.73
341.703	38.57
341.915	-8.53
342.128	110.25
342.34	57
342.552	-14.68
342.764	11.95
342.977	24.23
343.189	11.95
343.401	67.24
343.613	-88.4
343.826	54.95
344.038	24.23
344.25	36.52
344.462	-22.87
344.674	73.39
344.886	26.28
345.099	77.48
345.311	81.58
345.523	-10.58
345.735	-94.55
345.947	106.15
346.159	97.96
346.371	44.71
346.583	-0.34
346.795	151.21
347.007	42.67
347.219	57
347.431	42.67
347.643	81.58
347.855	46.76
348.067	143.02
348.279	-63.83
348.491	73.39
348.703	114.34
348.915	85.67
349.127	-18.77
349.339	18.09
349.551	-20.82
349.763	95.91
349.975	11.95
350.187	61.1
350.399	100.01
350.61	79.53
350.822	7.85
351.034	69.29
351.246	16.04
351.458	57
351.669	97.96
351.881	165.54
352.093	116.39
352.305	134.82
352.517	-14.68
352.728	145.06
352.94	11.95
353.152	63.15
353.363	9.9
353.575	59.05
353.787	134.82
353.999	52.91
354.21	153.26
354.422	-45.4
354.633	50.86
354.845	30.38
355.057	32.43
355.268	69.29
355.48	83.63
355.692	22.19
355.903	3.75
356.115	65.19
356.326	3.75
356.538	116.39
356.749	61.1
356.961	138.92
357.172	1.71
357.384	9.9
357.595	243.37
357.807	5.8
358.018	-22.87
358.23	44.71
358.441	104.11
358.653	97.96
358.864	36.52
359.075	11.95
359.287	112.3
359.498	102.06
359.709	59.05
359.921	40.62
360.132	28.33
360.344	-49.49
360.555	-57.68
360.766	46.76
360.977	-8.53
361.189	81.58
361.4	16.04
361.611	114.34
361.823	151.21
362.034	28.33
362.245	-31.06
362.456	36.52
362.667	65.19
362.879	-31.06
363.09	52.91
363.301	73.39
363.512	-6.49
363.723	-41.3
363.935	61.1
364.146	85.67
364.357	3.75
364.568	42.67
364.779	-35.16
364.99	161.45
365.201	36.52
365.412	85.67
365.623	-39.25
365.834	77.48
366.045	61.1
366.256	198.31
366.467	67.24
366.678	52.91
366.889	65.19
367.1	13.99
367.311	97.96
367.522	-20.82
367.733	67.24
367.944	57
368.155	-8.53
368.366	50.86
368.577	116.39
368.788	26.28
368.999	11.95
369.209	34.47
369.42	147.11
369.631	313
369.842	71.34
370.053	-6.49
370.264	97.96
370.474	-96.6
370.685	-14.68
370.896	87.72
371.107	108.2
371.317	52.91
371.528	-61.78
371.739	85.67
371.95	120.49
372.16	108.2
372.371	-84.31
372.582	-39.25
372.792	57
373.003	52.91
373.214	110.25
373.424	16.04
373.635	-74.07
373.846	114.34
374.056	11.95
374.267	48.81
374.477	128.68
374.688	9.9
374.898	5.8
375.109	-35.16
375.319	24.23
375.53	130.73
375.74	85.67
375.951	26.28
376.161	42.67
376.372	67.24
376.582	-31.06
376.793	59.05
377.003	-0.34
377.214	-49.49
377.424	50.86
377.635	11.95
377.845	-2.39
378.055	85.67
378.266	-67.92
378.476	50.86
378.686	100.01
378.897	83.63
379.107	44.71
379.317	57
379.528	-4.44
379.738	163.5
379.948	-20.82
380.158	87.72
380.369	69.29
380.579	32.43
380.789	54.95
380.999	95.91
381.21	77.48
381.42	161.45
381.63	13.99
381.84	145.06
382.05	30.38
382.261	169.64
382.471	128.68
382.681	16.04
382.891	126.63
383.101	63.15
383.311	-8.53
383.521	1.71
383.731	20.14
383.941	128.68
384.151	100.01
384.361	-20.82
384.571	48.81
384.781	59.05
384.991	134.82
385.201	175.78
385.411	83.63
385.621	69.29
385.831	57
386.041	75.43
386.251	57
386.461	147.11
386.671	-20.82
386.881	34.47
387.091	118.44
387.301	81.58
387.511	83.63
387.72	9.9
387.93	83.63
388.14	-12.63
388.35	3.75
388.56	118.44
388.769	157.35
388.979	34.47
389.189	-33.11
389.399	40.62
389.609	85.67
389.818	110.25
390.028	61.1
390.238	175.78
390.447	-6.49
390.657	163.5
390.867	-39.25
391.076	-43.35
391.286	77.48
391.496	-14.68
391.705	24.23
391.915	93.87
392.125	145.06
392.334	-10.58
392.544	120.49
392.753	52.91
392.963	-8.53
393.172	52.91
393.382	-4.44
393.591	122.54
393.801	18.09
394.01	155.3
394.22	57
394.429	93.87
394.639	28.33
394.848	81.58
395.058	22.19
395.267	28.33
395.477	85.67
395.686	95.91
395.895	163.5
396.105	143.02
396.314	44.71
396.524	50.86
396.733	28.33
396.942	93.87
397.152	50.86
397.361	104.11
397.57	44.71
397.78	11.95
397.989	52.91
398.198	229.03
398.407	42.67
398.617	46.76
398.826	-10.58
399.035	16.04
399.244	81.58
399.453	61.1
399.663	52.91
399.872	85.67
400.081	-61.78
400.29	69.29
400.499	40.62
400.708	118.44
400.917	-16.73
401.127	-12.63
401.336	50.86
401.545	188.07
401.754	83.63
401.963	79.53
402.172	44.71
402.381	-24.92
402.59	54.95
402.799	5.8
403.008	75.43
403.217	50.86
403.426	61.1
403.635	-145.75
403.844	11.95
404.053	30.38
404.262	85.67
404.471	198.31
404.68	77.48
404.888	42.67
405.097	83.63
405.306	11.95
405.515	100.01
405.724	44.71
405.933	108.2
406.142	97.96
406.35	155.3
406.559	-24.92
406.768	-4.44
406.977	63.15
407.185	140.97
407.394	83.63
407.603	-8.53
407.812	61.1
408.02	110.25
408.229	13.99
408.438	50.86
408.646	-24.92
408.855	-4.44
409.064	114.34
409.272	-8.53
409.481	16.04
409.69	-45.4
409.898	-100.69
410.107	18.09
410.315	100.01
410.524	-20.82
410.733	38.57
410.941	54.95
411.15	40.62
411.358	65.19
411.567	145.06
411.775	52.91
411.984	97.96
412.192	34.47
412.401	-4.44
412.609	110.25
412.818	59.05
413.026	112.3
413.234	100.01
413.443	77.48
413.651	52.91
413.86	65.19
414.068	112.3
414.276	138.92
414.485	-22.87
414.693	157.35
414.901	143.02
415.11	130.73
415.318	-4.44
415.526	38.57
415.734	143.02
415.943	1.71
416.151	169.64
416.359	-10.58
416.567	42.67
416.776	73.39
416.984	112.3
417.192	177.83
417.4	22.19
417.608	26.28
417.817	-63.83
418.025	132.78
418.233	132.78
418.441	11.95
418.649	-8.53
418.857	89.77
419.065	140.97
419.273	-29.01
419.481	50.86
419.689	50.86
419.897	-12.63
420.105	-43.35
420.313	130.73
420.521	93.87
420.729	200.36
420.937	13.99
421.145	11.95
421.353	97.96
421.561	30.38
421.769	59.05
421.977	-8.53
422.185	50.86
422.393	13.99
422.601	157.35
422.809	91.82
423.017	59.05
423.224	97.96
423.432	188.07
423.64	26.28
423.848	183.98
424.056	77.48
424.263	83.63
424.471	-8.53
424.679	151.21
424.887	26.28
425.094	110.25
425.302	61.1
425.51	83.63
425.718	85.67
425.925	106.15
426.133	3.75
426.341	175.78
426.548	13.99
426.756	44.71
426.964	157.35
427.171	13.99
427.379	73.39
427.586	77.48
427.794	38.57
428.001	132.78
428.209	204.46
428.417	132.78
428.624	126.63
428.832	106.15
429.039	52.91
429.247	134.82
429.454	93.87
429.662	257.7
429.869	106.15
430.076	44.71
430.284	138.92
430.491	122.54
430.699	208.55
430.906	130.73
431.114	147.11
431.321	206.5
431.528	188.07
431.736	143.02
431.943	69.29
432.15	163.5
432.358	161.45
432.565	292.52
432.772	7.85
432.979	181.93
433.187	153.26
433.394	200.36
433.601	128.68
433.808	206.5
434.016	298.66
434.223	208.55
434.43	235.18
434.637	216.74
434.844	218.79
435.052	102.06
435.259	241.32
435.466	243.37
435.673	224.94
435.88	272.04
436.087	302.76
436.294	241.32
436.501	302.76
436.708	294.57
436.915	329.38
437.122	396.96
437.329	300.71
437.537	310.95
437.743	294.57
437.95	384.68
438.157	308.9
438.364	274.09
438.571	351.91
438.778	470.69
438.985	454.31
439.192	411.3
439.399	374.44
439.606	456.36
439.813	466.6
440.02	532.13
440.227	566.95
440.433	519.84
440.64	448.16
440.847	480.93
441.054	552.61
441.261	652.96
441.467	562.85
441.674	593.57
441.881	710.3
442.088	655.01
442.294	695.97
442.501	695.97
442.708	777.89
442.914	667.3
443.121	759.46
443.328	849.57
443.534	872.09
443.741	859.81
443.948	769.69
444.154	894.62
444.361	1093.27
444.568	1011.36
444.774	1070.75
444.981	956.06
445.187	1056.41
445.394	1138.33
445.6	1056.41
445.807	1277.59
446.013	1191.58
446.22	1140.38
446.426	1388.18
446.633	1437.33
446.839	1527.44
447.046	1277.59
447.252	1459.86
447.459	1592.98
447.665	1654.42
447.871	1709.71
448.078	1822.35
448.284	1746.58
448.491	1875.6
448.697	1922.7
448.903	2074.25
449.11	2180.75
449.316	1980.04
449.522	2188.94
449.728	2320.01
449.935	2356.87
450.141	2424.45
450.347	2541.19
450.553	2553.48
450.76	2547.33
450.966	2856.58
451.172	2836.1
451.378	2899.58
451.584	2989.69
451.791	3188.35
451.997	3174.01
452.203	3450.49
452.409	3610.23
452.615	3796.59
452.821	3567.22
453.027	3696.24
453.233	4120.17
453.44	3997.29
453.646	4050.54
453.852	4277.87
454.058	4439.65
454.264	4763.23
454.47	5181.02
454.676	4863.58
454.882	5336.67
455.088	5111.39
455.294	5494.36
455.5	5750.35
455.705	6049.36
455.911	6202.96
456.117	6368.84
456.323	6633.03
456.529	6727.24
456.735	7171.65
456.941	7349.82
457.147	7554.62
457.352	7908.91
457.558	8109.61
457.764	8580.65
457.97	8826.4
458.176	8932.9
458.381	9535
458.587	9885.2
458.793	10104.34
458.999	10149.39
459.204	11347.45
459.41	11890.17
459.616	11800.05
459.821	12365.29
460.027	12879.33
460.233	13467.1
460.438	13557.21
460.644	14241.23
460.85	14312.91
461.055	15089.09
461.261	15797.69
461.466	15254.98
461.672	15672.76
461.878	17548.7
462.083	17374.63
462.289	17714.59
462.494	18513.3
462.7	18374.03
462.905	18851.21
463.111	20282.74
463.316	21271.91
463.522	21755.23
463.727	22547.79
463.932	23360.84
464.138	23858.49
464.343	25025.84
464.549	24751.41
464.754	26696.98
464.959	27407.62
465.165	28228.86
465.37	27940.1
465.575	27997.44
465.781	29820.13
465.986	30543.06
466.191	30405.85
466.397	30549.21
466.602	29891.81
466.807	31591.62
467.012	32195.78
467.218	32339.13
467.423	32847.03
467.628	33739.94
467.833	35372.17
468.038	34552.99
468.244	33887.4
468.449	35759.24
468.654	35419.28
468.859	35083.41
469.064	35351.7
469.269	34612.38
469.474	34534.56
469.679	35421.33
469.885	34423.97
470.09	35183.76
470.295	34946.2
470.5	34610.33
470.705	34589.85
470.91	33920.17
471.115	33330.35
471.32	34049.19
471.525	33805.48
471.73	32920.76
471.935	32486.59
472.139	31323.34
472.344	31579.34
472.549	31573.19
472.754	30952.66
472.959	30344.41
473.164	29056.24
473.369	28552.44
473.574	29596.9
473.778	29113.58
473.983	28564.73
474.188	28157.18
474.393	26692.88
474.598	26496.28
474.802	25863.46
475.007	25500.97
475.212	25347.37
475.417	24327.48
475.621	24180.03
475.826	23805.25
476.031	22924.62
476.235	22777.17
476.44	22750.54
476.645	22222.17
476.849	22048.09
477.054	21546.34
477.259	21114.22
477.463	21040.49
477.668	20434.29
477.872	20688.24
478.077	19879.29
478.282	19211.65
478.486	19197.32
478.691	18951.56
478.895	18795.92
479.1	18564.5
479.304	18427.28
479.509	17683.87
479.713	18326.93
479.918	17618.33
480.122	17526.18
480.326	17610.14
480.531	17597.85
480.735	17151.4
480.94	17012.14
481.144	17776.03
481.348	16522.67
481.553	16805.29
481.757	16182.71
481.961	16577.97
482.166	16434.61
482.37	16299.44
482.574	15834.55
482.778	15719.87
482.983	16139.7
483.187	15744.44
483.391	15302.08
483.595	15009.22
483.8	15189.44
484.004	15207.87
484.208	15248.83
484.412	15062.47
484.616	14806.47
484.821	14609.87
485.025	14140.88
485.229	14034.39
485.433	14044.63
485.637	13909.46
485.841	13663.71
486.045	13739.48
486.249	13284.83
486.453	13057.51
486.657	13180.39
486.861	13059.56
487.065	12441.07
487.269	12408.3
487.473	11959.8
487.677	12242.42
487.881	11953.65
488.085	11605.5
488.289	11591.16
488.493	11259.39
488.697	11224.58
488.901	10905.09
489.105	10642.95
489.309	10513.93
489.512	10444.3
489.716	10073.62
489.92	9950.74
490.124	9844.24
490.328	9684.5
490.531	9524.76
490.735	9410.08
490.939	9182.75
491.143	9041.44
491.346	8820.26
491.55	8771.11
491.754	8635.94
491.958	8549.93
492.161	8312.36
492.365	8236.59
492.569	8046.13
492.772	7874.1
492.976	7996.98
493.18	7689.78
493.383	7700.02
493.587	7532.09
493.79	7439.93
493.994	7052.86
494.197	7233.08
494.401	7194.17
494.605	7020.1
494.808	7126.59
495.012	7003.71
495.215	6966.85
495.419	6899.27
495.622	6639.17
495.825	6743.62
496.029	6649.41
496.232	6790.72
496.436	6434.38
496.639	6768.2
496.843	6612.55
497.046	6551.11
497.249	6657.61
497.453	6598.21
497.656	6520.39
497.859	6381.13
498.063	6583.88
498.266	6757.96
498.469	6426.18
498.673	6741.57
498.876	6557.25
499.079	6504.01
499.282	6440.52
499.485	6719.04
499.689	6751.81
499.892	7003.71
500.095	6723.14
500.298	6880.83
500.501	6696.52
500.705	6919.75
500.908	6991.42
501.111	7063.1
501.314	7122.49
501.517	7132.73
501.72	7353.91
501.923	7325.24
502.126	7216.7
502.329	7507.51
502.532	7538.23
502.735	7511.61
502.938	7695.93
503.141	7888.43
503.344	7675.45
503.547	7829.04
503.75	7945.78
503.953	7974.45
504.156	7937.59
504.359	8359.47
504.562	8355.37
504.765	8683.05
504.968	8746.53
505.17	8789.54
505.373	8748.58
505.576	9098.78
505.779	9127.46
505.982	9217.57
506.185	9418.27
506.387	9375.26
506.59	9719.32
506.793	9956.88
506.996	9960.98
507.198	10292.75
507.401	10313.23
507.604	10526.22
507.807	10812.93
508.009	10882.56
508.212	11349.5
508.415	11386.36
508.617	11830.77
508.82	11873.78
509.022	11970.04
509.225	12475.88
509.428	12830.18
509.63	12905.96
509.833	13028.84
510.035	13368.8
510.238	13651.42
510.44	13596.12
510.643	14220.75
510.845	14804.42
511.048	14839.24
511.25	15246.79
511.453	15527.36
511.655	16256.43
511.858	16432.56
512.06	16768.43
512.262	16864.68
512.465	17073.57
512.667	17790.36
512.87	18062.74
513.072	18257.3
513.274	19215.75
513.477	19377.54
513.679	19983.74
513.881	20118.9
514.084	20422
514.286	20979.05
514.488	21218.66
514.69	22330.71
514.893	22420.82
515.095	22775.12
515.297	23422.28
515.499	23586.11
515.701	24390.97
515.904	25050.41
516.106	25337.13
516.308	25898.27
516.51	26473.75
516.712	27182.35
516.914	27301.13
517.116	28505.34
517.318	28460.28
517.52	29070.58
517.722	29465.83
517.925	30262.49
518.127	31057.1
518.329	31431.88
518.531	31503.56
518.733	32253.12
518.935	33037.49
519.136	33422.51
519.338	34151.59
519.54	34313.38
519.742	35165.33
519.944	35230.87
520.146	36420.73
520.348	36619.39
520.55	37094.52
520.752	37287.03
520.954	38286.43
521.155	38118.5
521.357	39046.23
521.559	39355.47
521.761	40113.22
521.963	40002.63
522.164	40598.59
522.366	40842.3
522.568	41403.44
522.77	41659.44
522.971	42333.22
523.173	41759.79
523.375	42677.28
523.576	42886.17
523.778	42804.25
523.98	43332.63
524.181	43449.36
524.383	43906.06
524.584	44059.66
524.786	44243.98
524.988	43947.02
525.189	44180.49
525.391	44733.44
525.592	44790.78
525.794	44790.78
525.995	44721.15
526.197	44375.05
526.398	44811.26
526.6	44538.88
526.801	44860.41
527.003	44418.05
527.204	44299.27
527.406	44127.24
527.607	43660.3
527.808	44151.82
528.01	43371.54
528.211	43140.12
528.412	43709.46
528.614	43142.17
528.815	43117.59
529.016	42949.66
529.218	42120.23
529.419	42128.42
529.62	41260.09
529.822	40956.99
530.023	40721.47
530.224	40555.58
530.425	40225.86
530.626	39093.33
530.828	38806.62
531.029	39107.67
531.23	38569.05
531.431	37928.04
531.632	37911.66
531.833	37504.11
532.035	37155.96
532.236	36682.87
532.437	36398.21
532.638	35556.49
532.839	35597.45
533.04	35222.67
533.241	34071.71
533.442	33731.75
533.643	33684.65
533.844	33166.51
534.045	33008.82
534.246	31923.4
534.447	32197.82
534.648	31405.26
534.849	31237.33
535.05	30538.97
535.251	30459.1
535.451	29770.98
535.652	29662.44
535.853	29170.93
536.054	28777.72
536.255	28515.58
536.456	27829.51
536.657	27864.32
536.857	27196.68
537.058	26985.74
537.259	27059.47
537.46	26141.98
537.66	25761.06
537.861	25189.67
538.062	25257.26
538.263	24956.21
538.463	24493.36
538.664	24139.07
538.865	24046.91
539.065	23684.42
539.266	23487.81
539.466	23625.03
539.667	22373.72
539.868	22779.22
540.068	22338.9
540.269	21822.81
540.469	22048.09
540.67	21517.67
540.87	21431.65
541.071	21052.78
541.271	20729.2
541.472	20634.99
541.672	20204.92
541.873	19975.55
542.073	19465.6
542.274	19686.78
542.474	19162.5
542.675	19043.72
542.875	19125.64
543.075	18445.71
543.276	18511.25
543.476	18537.87
543.676	17827.23
543.877	17982.87
544.077	17667.49
544.277	17485.22
544.478	17331.62
544.678	17286.56
544.878	16860.59
545.078	16668.08
545.279	16426.42
545.479	16328.11
545.679	16254.39
545.879	15898.04
546.079	15687.1
546.28	15619.52
546.48	15353.28
546.68	15490.49
546.88	14951.88
547.08	15009.22
547.28	14833.1
547.48	14454.22
547.68	14499.28
547.88	13919.7
548.081	13888.98
548.281	13675.99
548.481	13557.21
548.681	13610.46
548.881	13344.22
549.081	13125.09
549.28	12830.18
549.48	13004.26
549.68	12516.84
549.88	12676.59
550.08	12049.91
550.28	11935.22
550.48	11931.12
550.68	11859.45
550.88	11576.83
551.08	11456
551.279	11468.28
551.479	11191.81
551.679	11197.95
551.879	10806.79
552.079	10776.07
552.278	10698.25
552.478	10485.26
552.678	10302.99
552.878	10020.37
553.077	9717.27
553.277	9795.09
553.477	9729.56
553.676	9481.75
553.876	9240.09
554.076	9297.44
554.275	9014.82
554.475	8803.88
554.674	8810.02
554.874	8625.7
555.074	8275.5
555.273	8275.5
555.473	8078.9
555.672	7984.69
555.872	7949.87
556.071	7890.48
556.271	7845.43
556.47	7487.03
556.67	7349.82
556.869	7071.29
557.068	7239.23
557.268	6925.89
557.467	6983.23
557.667	6972.99
557.866	6893.12
558.065	6618.69
558.265	6620.74
558.464	6239.82
558.663	6438.47
558.863	6127.18
559.062	6276.68
559.261	5967.44
559.461	6118.99
559.66	5834.32
559.859	5776.98
560.058	5592.66
560.258	5492.31
560.457	5475.93
560.656	5494.36
560.855	5162.59
561.054	5185.12
561.253	5070.43
561.453	5092.96
561.652	4890.21
561.851	5019.23
562.05	4730.47
562.249	4603.49
562.448	4857.44
562.647	4490.85
562.846	4367.98
563.045	4533.86
563.244	4376.17
563.443	4365.93
563.642	4114.03
563.841	4222.57
564.04	4212.33
564.239	4134.51
564.438	3946.09
564.637	3890.8
564.836	3841.65
565.035	3876.46
565.234	3933.81
565.432	3677.81
565.631	3645.04
565.83	3659.38
566.029	3331.7
566.228	3374.71
566.427	3368.57
566.625	3458.68
566.824	3282.55
567.023	3237.5
567.222	3161.72
567.42	3112.57
567.619	3135.1
567.818	3065.47
568.016	3257.98
568.215	3063.42
568.414	3040.89
568.612	2956.93
568.811	2879.1
569.01	2776.7
569.208	2750.08
569.407	2713.22
569.605	2688.64
569.804	2576
570.002	2850.43
570.201	2600.58
570.4	2571.91
570.598	2459.27
570.797	2487.94
570.995	2412.17
571.193	2426.5
571.392	2381.45
571.59	2258.57
571.789	2330.25
571.987	2274.95
572.186	2383.49
572.384	2074.25
572.582	2190.99
572.781	2240.14
572.979	2125.45
573.177	1973.9
573.376	2107.02
573.574	2143.88
573.772	1961.61
573.971	1887.89
574.169	1805.97
574.367	1848.97
574.565	1785.49
574.763	1789.58
574.962	1760.91
575.16	1752.72
575.358	1678.99
575.556	1740.43
575.754	1754.77
575.952	1654.42
576.151	1658.51
576.349	1570.45
576.547	1482.39
576.745	1568.4
576.943	1556.11
577.141	1457.81
577.339	1402.52
577.537	1382.04
577.735	1480.34
577.933	1302.17
578.131	1402.52
578.329	1414.81
578.527	1330.84
578.725	1318.55
578.923	1336.98
579.121	1240.73
579.319	1158.81
579.516	1261.21
579.714	1414.81
579.912	1283.74
580.11	1123.99
580.308	1244.82
580.506	1152.67
580.704	968.35
580.901	1048.22
581.099	1109.66
581.297	1031.83
581.495	1017.5
581.692	1035.93
581.89	1056.41
582.088	1050.27
582.285	1011.36
582.483	931.48
582.681	820.89
582.878	859.81
583.076	929.44
583.274	954.01
583.471	1158.81
583.669	868
583.866	804.51
584.064	917.15
584.262	769.69
584.459	804.51
584.657	894.62
584.854	880.29
585.052	751.26
585.249	769.69
585.447	792.22
585.644	732.83
585.841	872.09
586.039	855.71
586.236	818.85
586.434	773.79
586.631	714.4
586.828	671.39
587.026	730.78
587.223	700.06
587.42	620.19
587.618	700.06
587.815	810.65
588.012	657.06
588.21	710.3
588.407	671.39
588.604	642.72
588.801	579.23
588.999	614.05
589.196	695.97
589.393	650.91
589.59	632.48
589.787	734.88
589.984	655.01
590.182	683.68
590.379	519.84
590.576	534.18
590.773	597.67
590.97	554.66
591.167	593.57
591.364	669.34
591.561	607.91
591.758	618.15
591.955	603.81
592.152	528.03
592.349	581.28
592.546	525.99
592.743	577.19
592.94	556.71
593.137	663.2
593.334	614.05
593.531	546.47
593.727	626.34
593.924	609.95
594.121	622.24
594.318	560.8
594.515	581.28
594.712	732.83
594.908	683.68
595.105	507.55
595.302	665.25
595.499	509.6
595.696	695.97
595.892	683.68
596.089	796.32
596.286	675.49
596.482	777.89
596.679	720.54
596.876	706.21
597.072	663.2
597.269	722.59
597.466	798.37
597.662	829.09
597.859	712.35
598.055	806.56
598.252	831.13
598.448	857.76
598.645	954.01
598.841	872.09
599.038	1072.79
599.234	1060.51
599.431	1035.93
599.627	1091.23
599.824	1134.23
600.02	1242.78
600.217	1105.56
600.413	1304.21
600.609	1298.07
600.806	1558.16
601.002	1470.1
601.198	1461.91
601.395	1535.64
601.591	1466
601.787	1586.83
601.984	1648.27
602.18	1611.41
602.376	1724.05
602.572	1906.32
602.769	1990.28
602.965	1953.42
603.161	2053.77
603.357	2127.5
603.553	2322.06
603.75	2160.27
603.946	2317.96
604.142	2313.86
604.338	2610.82
604.534	2600.58
604.73	2743.94
604.926	2797.18
605.122	2899.58
605.318	2901.63
605.514	2995.84
605.71	3051.13
605.906	3288.7
606.102	3178.11
606.298	3454.58
606.494	3554.93
606.69	3681.91
606.886	3739.25
607.082	3712.63
607.278	4021.87
607.474	4075.12
607.67	4202.09
607.866	4114.03
608.062	4492.9
608.257	4593.25
608.453	4445.8
608.649	4707.94
608.845	4933.22
609.041	4875.87
609.236	5281.37
609.432	5359.19
609.628	5482.07
609.824	5506.65
610.019	5670.48
610.215	5842.51
610.411	6233.68
610.606	6280.78
610.802	6377.03
610.998	6508.1
611.193	6858.31
611.389	6776.39
611.584	6997.57
611.78	7167.55
611.976	7278.14
612.171	7820.85
612.367	7837.24
612.562	8140.33
612.758	7947.83
612.953	8169.01
613.149	8681
613.344	8623.66
613.539	9068.06
613.735	9393.69
613.93	9711.13
614.126	9518.62
614.321	10210.83
614.517	10350.09
614.712	10642.95
614.907	10814.98
615.103	10995.2
615.298	11308.54
615.493	11668.98
615.688	11898.36
615.884	12264.94
616.079	12242.42
616.274	12715.5
616.47	13182.43
616.665	13512.16
616.86	13886.93
617.055	14415.31
617.25	14427.6
617.445	15093.19
617.641	15166.92
617.836	15701.44
618.031	16018.87
618.226	16555.44
618.421	16723.37
618.616	17403.3
618.811	17421.73
619.006	18066.84
619.201	18341.27
619.396	18976.14
619.591	19068.3
619.786	19746.17
619.981	19654.01
620.176	20536.69
620.371	20610.42
620.566	21153.13
620.761	21826.91
620.956	21978.46
621.151	22148.44
621.346	23160.14
621.541	23225.67
621.735	24259.9
621.93	24040.76
622.125	24900.91
622.32	24778.03
622.515	25437.48
622.709	25666.85
622.904	26619.16
623.099	26359.06
623.294	27485.45
623.488	27575.56
623.683	28423.42
623.878	28634.36
624.072	29078.77
624.267	29754.6
624.462	30186.72
624.656	30156
624.851	30983.38
625.046	31433.93
625.24	31659.21
625.435	31921.35
625.629	32619.7
625.824	32842.93
626.018	33610.92
626.213	33793.19
626.407	34344.09
626.602	34430.11
626.796	35239.06
626.991	35351.7
627.185	35630.22
627.38	35970.18
627.574	35869.83
627.768	35957.89
627.963	35673.23
628.157	36525.18
628.352	36967.54
628.546	36273.28
628.74	36985.97
628.935	36854.9
629.129	36863.1
629.323	36486.27
629.517	36369.54
629.712	36492.41
629.906	36514.94
630.1	35640.46
630.294	35699.85
630.489	34978.96
630.683	35122.32
630.877	34071.71
631.071	33524.91
631.265	33041.59
631.459	32654.52
631.653	31780.04
631.848	31171.79
632.042	30837.97
632.236	30024.93
632.43	29039.86
632.624	28359.93
632.818	27727.11
633.012	26703.12
633.206	25883.94
633.4	25333.03
633.594	24065.34
633.788	23725.38
633.982	22779.22
634.176	22121.82
634.369	21146.98
634.563	20454.77
634.757	19686.78
634.951	19320.2
635.145	18476.43
635.339	17470.88
635.533	16637.36
635.726	16221.62
635.92	15381.95
636.114	14986.69
636.308	14466.51
636.501	13798.87
636.695	13055.46
636.889	12535.28
637.083	12121.59
637.276	11599.35
637.47	11087.36
637.664	10794.5
637.857	10108.43
638.051	9907.73
638.244	9473.56
638.438	9227.81
638.632	8902.18
638.825	8338.99
639.019	8263.21
639.212	7765.56
639.406	7452.22
639.599	7130.69
639.793	6977.09
639.986	6639.17
640.18	6413.9
640.373	6092.37
640.567	5887.57
640.76	5680.72
640.954	5555.8
641.147	5148.25
641.34	4992.61
641.534	4816.48
641.727	4720.23
641.92	4617.83
642.114	4320.87
642.307	4146.8
642.5	4019.82
642.694	3796.59
642.887	3774.07
643.08	3839.6
643.273	3448.44
643.467	3380.86
643.66	3098.24
643.853	2907.77
644.046	2932.35
644.239	2934.4
644.432	2625.15
644.626	2588.29
644.819	2440.84
645.012	2428.55
645.205	2408.07
645.398	2326.15
645.591	2309.77
645.784	2115.21
645.977	1971.85
646.17	1846.93
646.363	1799.82
646.556	1762.96
646.749	1687.18
646.942	1678.99
647.135	1554.07
647.328	1537.68
647.521	1478.29
647.714	1414.81
647.907	1283.74
648.099	1332.89
648.292	1394.33
648.485	1347.22
648.678	1255.06
648.871	1050.27
649.064	1121.95
649.256	954.01
649.449	921.24
649.642	884.38
649.835	947.87
650.027	880.29
650.22	894.62
650.413	794.27
650.605	833.18
650.798	765.6
650.991	837.28
651.183	681.63
651.376	761.5
651.568	741.02
651.761	624.29
651.954	700.06
652.146	614.05
652.339	638.62
652.531	548.51
652.724	497.32
652.916	554.66
653.109	499.36
653.301	534.18
653.494	593.57
653.686	478.88
653.879	564.9
654.071	462.5
654.263	343.72
654.456	435.88
654.648	487.08
654.84	474.79
655.033	380.58
655.225	556.71
655.417	321.19
655.61	433.83
655.802	431.78
655.994	507.55
656.186	335.53
656.379	360.1
656.571	263.85
656.763	286.37
656.955	329.38
657.148	282.28
657.34	376.48
657.532	239.27
657.724	278.18
657.916	265.89
658.108	288.42
658.3	378.53
658.492	315.05
658.684	257.7
658.876	319.14
659.068	143.02
659.26	149.16
659.452	210.6
659.644	233.13
659.836	224.94
660.028	216.74
660.22	200.36
660.412	216.74
660.604	284.33
660.796	216.74
660.988	269.99
661.18	237.22
661.372	216.74
661.563	153.26
661.755	194.22
661.947	183.98
662.139	167.59
662.331	186.02
662.522	214.7
662.714	216.74
662.906	196.26
663.097	222.89
663.289	91.82
663.481	52.91
663.673	175.78
663.864	175.78
664.056	145.06
664.247	34.47
664.439	274.09
664.631	190.12
664.822	237.22
665.014	241.32
665.205	126.63
665.397	97.96
665.588	192.17
665.78	85.67
665.971	100.01
666.163	122.54
666.354	95.91
666.546	151.21
666.737	163.5
666.929	188.07
667.12	20.14
667.311	89.77
667.503	143.02
667.694	120.49
667.885	118.44
668.077	192.17
668.268	44.71
668.459	95.91
668.651	181.93
668.842	206.5
669.033	11.95
669.224	79.53
669.416	257.7
669.607	69.29
669.798	44.71
669.989	167.59
670.18	97.96
670.371	175.78
670.563	7.85
670.754	216.74
670.945	81.58
671.136	163.5
671.327	89.77
671.518	218.79
671.709	231.08
671.9	212.65
672.091	276.13
672.282	110.25
672.473	50.86
672.664	81.58
672.855	52.91
673.046	83.63
673.237	247.46
673.428	83.63
673.619	218.79
673.809	106.15
674	216.74
674.191	171.69
674.382	122.54
674.573	140.97
674.764	124.58
674.954	200.36
675.145	5.8
675.336	175.78
675.527	110.25
675.717	136.87
675.908	161.45
676.099	89.77
676.289	163.5
676.48	59.05
676.671	149.16
676.861	155.3
677.052	212.65
677.243	85.67
677.433	89.77
677.624	224.94
677.814	229.03
678.005	165.54
678.195	315.05
678.386	118.44
678.576	128.68
678.767	110.25
678.957	151.21
679.148	239.27
679.338	224.94
679.529	261.8
679.719	120.49
679.909	229.03
680.1	224.94
680.29	153.26
680.481	112.3
680.671	173.74
680.861	124.58
681.052	200.36
681.242	167.59
681.432	280.23
681.622	198.31
681.813	138.92
682.003	241.32
682.193	147.11
682.383	200.36
682.573	157.35
682.764	188.07
682.954	257.7
683.144	239.27
683.334	194.22
683.524	118.44
683.714	194.22
683.904	181.93
684.094	153.26
684.284	196.26
684.474	278.18
684.664	257.7
684.854	249.51
685.044	163.5
685.234	157.35
685.424	214.7
685.614	169.64
685.804	224.94
685.994	233.13
686.184	183.98
686.374	212.65
686.564	192.17
686.753	226.98
686.943	143.02
687.133	114.34
687.323	241.32
687.513	224.94
687.702	247.46
687.892	112.3
688.082	220.84
688.272	198.31
688.461	235.18
688.651	274.09
688.841	290.47
689.03	93.87
689.22	124.58
689.41	290.47
689.599	212.65
689.789	183.98
689.979	253.61
690.168	198.31
690.358	220.84
690.547	251.56
690.737	210.6
690.926	218.79
691.116	229.03
691.305	255.65
691.495	190.12
691.684	32.43
691.874	108.2
692.063	134.82
692.252	138.92
692.442	179.88
692.631	112.3
692.82	151.21
693.01	253.61
693.199	155.3
693.388	114.34
693.578	132.78
693.767	190.12
693.956	261.8
694.146	171.69
694.335	206.5
694.524	151.21
694.713	272.04
694.902	175.78
695.092	114.34
695.281	224.94
695.47	143.02
695.659	190.12
695.848	212.65
696.037	120.49
696.226	241.32
696.415	200.36
696.604	235.18
696.793	229.03
696.982	134.82
697.171	306.85
697.36	108.2
697.549	243.37
697.738	75.43
697.927	122.54
698.116	134.82
698.305	237.22
698.494	218.79
698.683	175.78
698.872	298.66
699.061	229.03
699.25	130.73
699.438	161.45
699.627	155.3
699.816	298.66
700.005	93.87
700.193	130.73
700.382	282.28
700.571	253.61
700.76	171.69
700.948	200.36
701.137	306.85
701.326	241.32
701.514	116.39
701.703	179.88
701.892	138.92
702.08	315.05
702.269	102.06
702.457	159.4
702.646	241.32
702.834	128.68
703.023	241.32
703.212	196.26
703.4	186.02
703.589	143.02
703.777	167.59
703.965	106.15
704.154	71.34
704.342	118.44
704.531	165.54
704.719	190.12
704.907	136.87
705.096	155.3
705.284	50.86
705.472	214.7
705.661	202.41
705.849	157.35
706.037	241.32
706.226	216.74
706.414	116.39
706.602	143.02
706.79	200.36
706.979	186.02
707.167	214.7
707.355	91.82
707.543	214.7
707.731	241.32
707.919	224.94
708.107	151.21
708.296	155.3
708.484	163.5
708.672	247.46
708.86	204.46
709.048	159.4
709.236	57
709.424	216.74
709.612	198.31
709.8	85.67
709.988	192.17
710.176	233.13
710.364	245.41
710.551	140.97
710.739	102.06
710.927	122.54
711.115	243.37
711.303	239.27
711.491	272.04
711.679	167.59
711.866	163.5
712.054	100.01
712.242	188.07
712.43	208.55
712.617	132.78
712.805	224.94
712.993	173.74
713.181	106.15
713.368	212.65
713.556	206.5
713.744	134.82
713.931	392.87
714.119	241.32
714.306	218.79
714.494	145.06
714.682	210.6
714.869	128.68
715.057	106.15
715.244	114.34
715.432	276.13
715.619	177.83
715.807	151.21
715.994	208.55
716.182	175.78
716.369	196.26
716.556	251.56
716.744	61.1
716.931	179.88
717.119	194.22
717.306	118.44
717.493	274.09
717.681	231.08
717.868	181.93
718.055	143.02
718.242	181.93
718.43	204.46
718.617	241.32
718.804	216.74
718.991	222.89
719.179	151.21
719.366	263.85
719.553	208.55
719.74	147.11
719.927	204.46
720.114	183.98
720.301	140.97
720.488	163.5
720.676	155.3
720.863	294.57
721.05	325.29
721.237	229.03
721.424	224.94
721.611	177.83
721.798	147.11
721.985	171.69
722.172	171.69
722.358	190.12
722.545	233.13
722.732	198.31
722.919	269.99
723.106	218.79
723.293	102.06
723.48	327.33
723.667	216.74
723.853	278.18
724.04	196.26
724.227	282.28
724.414	218.79
724.6	274.09
724.787	343.72
724.974	335.53
725.161	257.7
725.347	202.41
725.534	302.76
725.72	251.56
725.907	306.85
726.094	241.32
726.28	196.26
726.467	175.78
726.653	149.16
726.84	339.62
727.027	339.62
727.213	196.26
727.4	290.47
727.586	208.55
727.773	253.61
727.959	208.55
728.145	267.94
728.332	286.37
728.518	159.4
728.705	282.28
728.891	171.69
729.077	276.13
729.264	247.46
729.45	149.16
729.636	306.85
729.823	243.37
730.009	276.13
730.195	265.89
730.382	306.85
730.568	247.46
730.754	274.09
730.94	190.12
731.126	214.7
731.313	308.9
731.499	296.61
731.685	339.62
731.871	302.76
732.057	292.52
732.243	300.71
732.429	276.13
732.615	345.77
732.801	321.19
732.987	210.6
733.173	315.05
733.359	263.85
733.545	245.41
733.731	222.89
733.917	411.3
734.103	229.03
734.289	280.23
734.475	282.28
734.661	327.33
734.847	364.2
735.033	288.42
735.219	265.89
735.404	247.46
735.59	243.37
735.776	181.93
735.962	239.27
736.148	335.53
736.333	345.77
736.519	335.53
736.705	290.47
736.89	310.95
737.076	313
737.262	235.18
737.447	265.89
737.633	253.61
737.819	405.16
738.004	315.05
738.19	267.94
738.375	290.47
738.561	405.16
738.747	321.19
738.932	274.09
739.118	394.92
739.303	351.91
739.489	327.33
739.674	259.75
739.859	263.85
740.045	341.67
740.23	216.74
740.416	100.01
740.601	362.15
740.786	331.43
740.972	151.21
741.157	204.46
741.342	163.5
741.528	190.12
741.713	364.2
741.898	249.51
742.084	310.95
742.269	222.89
742.454	298.66
742.639	302.76
742.824	315.05
743.01	347.81
743.195	442.02
743.38	306.85
743.565	265.89
743.75	313
743.935	278.18
744.12	347.81
744.305	140.97
744.49	253.61
744.675	302.76
744.86	317.09
745.045	294.57
745.23	282.28
745.415	253.61
745.6	298.66
745.785	257.7
745.97	368.29
746.155	296.61
746.34	288.42
746.525	325.29
746.71	345.77
746.895	192.17
747.079	132.78
747.264	304.81
747.449	313
747.634	204.46
747.819	272.04
748.003	241.32
748.188	265.89
748.373	313
748.557	319.14
748.742	317.09
748.927	280.23
749.111	239.27
749.296	241.32
749.481	274.09
749.665	292.52
749.85	267.94
750.034	282.28
750.219	272.04
750.404	214.7
750.588	280.23
750.773	216.74
750.957	188.07
751.141	179.88
751.326	233.13
751.51	208.55
751.695	181.93
751.879	181.93
752.064	249.51
752.248	220.84
752.432	347.81
752.617	304.81
752.801	241.32
752.985	241.32
753.17	274.09
753.354	263.85
753.538	208.55
753.722	147.11
753.907	278.18
754.091	200.36
754.275	272.04
754.459	192.17
754.643	183.98
754.828	251.56
755.012	177.83
755.196	116.39
755.38	91.82
755.564	188.07
755.748	202.41
755.932	196.26
756.116	233.13
756.3	183.98
756.484	186.02
756.668	284.33
756.852	93.87
757.036	143.02
757.22	237.22
757.404	132.78
757.588	200.36
757.772	171.69
757.956	171.69
758.14	335.53
758.323	85.67
758.507	200.36
758.691	216.74
758.875	208.55
759.059	186.02
759.242	85.67
759.426	110.25
759.61	194.22
759.794	61.1
759.977	216.74
760.161	446.12
760.345	222.89
760.528	186.02
760.712	149.16
760.895	116.39
761.079	138.92
761.263	104.11
761.446	175.78
761.63	167.59
761.813	220.84
761.997	132.78
762.18	89.77
762.364	149.16
762.547	77.48
762.731	81.58
762.914	71.34
763.098	102.06
763.281	93.87
763.464	108.2
763.648	159.4
763.831	163.5
764.015	100.01
764.198	165.54
764.381	145.06
764.564	216.74
764.748	89.77
764.931	188.07
765.114	57
765.297	269.99
765.481	81.58
765.664	124.58
765.847	192.17
766.03	161.45
766.213	77.48
766.397	110.25
766.58	69.29
766.763	186.02
766.946	196.26
767.129	83.63
767.312	143.02
767.495	85.67
767.678	61.1
767.861	114.34
768.044	143.02
768.227	134.82
768.41	93.87
768.593	153.26
768.776	192.17
768.959	65.19
769.142	175.78
769.324	163.5
769.507	97.96
769.69	61.1
769.873	44.71
770.056	190.12
770.239	77.48
770.421	165.54
770.604	97.96
770.787	95.91
770.97	110.25
771.152	93.87
771.335	132.78
771.518	61.1
771.7	169.64
771.883	128.68
772.066	100.01
772.248	200.36
772.431	175.78
772.613	190.12
772.796	83.63
772.978	208.55
773.161	210.6
773.343	57
773.526	38.57
773.708	40.62
773.891	-61.78
774.073	145.06
774.256	24.23
774.438	261.8
774.621	32.43
774.803	93.87
774.985	36.52
775.168	85.67
775.35	138.92
775.532	61.1
775.715	9.9
775.897	171.69
776.079	20.14
776.261	108.2
776.444	77.48
776.626	110.25
776.808	52.91
776.99	114.34
777.173	100.01
777.355	61.1
777.537	110.25
777.719	122.54
777.901	-0.34
778.083	30.38
778.265	13.99
778.447	153.26
778.629	28.33
778.811	44.71
778.993	81.58
779.175	138.92
779.357	36.52
779.539	-80.21
779.721	73.39
779.903	130.73
780.085	61.1
780.267	50.86
780.449	54.95
780.631	161.45
780.812	132.78
780.994	95.91
781.176	112.3
781.358	-117.08
781.54	89.77
781.721	138.92
781.903	108.2
782.085	3.75
782.267	116.39
782.448	13.99
782.63	1.71
782.812	110.25
782.993	79.53
783.175	85.67
783.357	52.91
783.538	91.82
783.72	-16.73
783.901	46.76
784.083	69.29
784.264	48.81
784.446	-18.77
784.627	-35.16
784.809	95.91
784.99	69.29
785.172	69.29
785.353	67.24
785.535	32.43
785.716	26.28
785.897	-63.83
786.079	59.05
786.26	-20.82
786.441	81.58
786.623	-74.07
786.804	-8.53
786.985	24.23
787.167	97.96
787.348	93.87
787.529	71.34
787.71	145.06
787.891	69.29
788.073	77.48
788.254	-8.53
788.435	136.87
788.616	63.15
788.797	-29.01
788.978	54.95
789.159	1.71
789.34	81.58
789.522	-31.06
789.703	71.34
789.884	97.96
790.065	89.77
790.246	108.2
790.427	28.33
790.607	204.46
790.788	79.53
790.969	-10.58
791.15	77.48
791.331	40.62
791.512	24.23
791.693	24.23
791.874	-10.58
792.054	181.93
792.235	89.77
792.416	34.47
792.597	-59.73
792.778	61.1
792.958	108.2
793.139	102.06
793.32	122.54
793.5	-14.68
793.681	87.72
793.862	-4.44
794.042	-29.01
794.223	-6.49
794.404	-65.88
794.584	-39.25
794.765	-16.73
794.945	-22.87
795.126	61.1
795.306	128.68
795.487	28.33
795.667	11.95
795.848	93.87
796.028	-24.92
796.209	26.28
796.389	42.67
796.57	16.04
796.75	-12.63
796.93	42.67
797.111	-43.35
797.291	16.04
797.471	83.63
797.652	-16.73
797.832	-22.87
798.012	22.19
798.192	40.62
798.373	-45.4
798.553	-8.53
798.733	67.24
798.913	18.09
799.093	-4.44
799.274	104.11
799.454	73.39
799.634	20.14
799.814	79.53
799.994	36.52
800.174	-29.01
800.354	-80.21
800.534	-69.97
800.714	-2.39
800.894	-86.36
801.074	-41.3
801.254	-47.44
801.434	54.95
801.614	1.71
801.794	-37.2
801.974	1656.47
802.154	93.87
802.334	93.87
802.514	-78.16
802.693	1.71
802.873	-69.97
803.053	85.67
803.233	100.01
803.413	16.04
803.592	-51.54
803.772	18.09
803.952	120.49
804.131	-108.88
804.311	-31.06
804.491	52.91
804.67	-69.97
804.85	-16.73
805.03	126.63
805.209	97.96
805.389	-22.87
805.568	-33.11
805.748	20.14
805.928	-24.92
806.107	34.47
806.287	69.29
806.466	26.28
806.646	44.71
806.825	69.29
807.004	69.29
807.184	-4.44
807.363	34.47
807.543	-14.68
807.722	-90.45
807.901	134.82
808.081	1.71
808.26	-98.64
808.439	-2.39
808.619	75.43
808.798	-6.49
808.977	13.99
809.156	44.71
809.336	63.15
809.515	77.48
809.694	-12.63
809.873	24.23
810.052	-8.53
810.231	61.1
810.411	57
810.59	44.71
810.769	3.75
810.948	63.15
811.127	-43.35
811.306	85.67
811.485	-53.59
811.664	79.53
811.843	-14.68
812.022	-41.3
812.201	-43.35
812.38	16.04
812.559	-69.97
812.737	77.48
812.916	-155.99
813.095	-90.45
813.274	100.01
813.453	63.15
813.632	13.99
813.811	85.67
813.989	-33.11
814.168	-14.68
814.347	-22.87
814.526	-29.01
814.704	110.25
814.883	36.52
815.062	-45.4
815.24	22.19
815.419	-86.36
815.598	40.62
815.776	-98.64
815.955	3.75
816.133	-76.12
816.312	20.14
816.49	1.71
816.669	-39.25
816.847	-45.4
817.026	61.1
817.204	-10.58
817.383	-18.77
817.561	-110.93
817.74	44.71
817.918	44.71
818.097	20.14
818.275	-39.25
818.453	46.76
818.632	-20.82
818.81	73.39
818.988	20.14
819.167	-67.92
819.345	9.9
819.523	7.85
819.701	77.48
819.879	34.47
820.058	7.85
820.236	40.62
820.414	59.05
820.592	-16.73
820.77	-59.73
820.948	-24.92
821.127	-4.44
821.305	20.14
821.483	-61.78
821.661	59.05
821.839	28.33
822.017	-12.63
822.195	-57.68
822.373	81.58
822.551	61.1
822.729	89.77
822.907	20.14
823.085	36.52
823.262	16.04
823.44	-14.68
823.618	-53.59
823.796	32.43
823.974	32.43
824.152	-29.01
824.329	46.76
824.507	61.1
824.685	52.91
824.863	44.71
825.04	40.62
825.218	89.77
825.396	3.75
825.574	7.85
825.751	9.9
825.929	32.43
826.107	-51.54
826.284	-41.3
826.462	38.57
826.639	-49.49
826.817	-61.78
826.994	54.95
827.172	-63.83
827.349	120.49
827.527	65.19
827.704	9.9
827.882	40.62
828.059	-47.44
828.237	-53.59
828.414	81.58
828.591	-102.74
828.769	26.28
828.946	-18.77
829.124	118.44
829.301	24.23
829.478	-29.01
829.655	24.23
829.833	36.52
830.01	-69.97
830.187	69.29
830.364	89.77
830.542	108.2
830.719	81.58
830.896	-0.34
831.073	-12.63
831.25	42.67
831.427	1.71
831.604	-78.16
831.782	-43.35
831.959	20.14
832.136	-26.96
832.313	28.33
832.49	-76.12
832.667	9.9
832.844	11.95
833.021	65.19
833.198	9.9
833.374	32.43
833.551	-4.44
833.728	26.28
833.905	32.43
834.082	11.95
834.259	42.67
834.436	44.71
834.612	-78.16
834.789	95.91
834.966	28.33
835.143	36.52
835.319	-61.78
835.496	85.67
835.673	20.14
835.85	57
836.026	126.63
836.203	155.3
836.38	-24.92
836.556	9.9
836.733	-37.2
836.909	65.19
837.086	36.52
837.262	-63.83
837.439	-26.96
837.616	16.04
837.792	13.99
837.968	-0.34
838.145	-82.26
838.321	18.09
838.498	11.95
838.674	11.95
838.851	57
839.027	-49.49
839.203	-20.82
839.38	50.86
839.556	-84.31
839.732	97.96
839.909	-76.12
840.085	54.95
840.261	-69.97
840.437	54.95
840.614	-14.68
840.79	40.62
840.966	-57.68
841.142	1.71
841.318	-14.68
841.494	24.23
841.671	42.67
841.847	-108.88
842.023	-90.45
842.199	44.71
842.375	91.82
842.551	-176.47
842.727	-78.16
842.903	11.95
843.079	-39.25
843.255	100.01
843.431	-45.4
843.607	48.81
843.783	-41.3
843.959	20.14
844.134	-98.64
844.31	93.87
844.486	-10.58
844.662	-65.88
844.838	67.24
845.013	-33.11
845.189	102.06
845.365	-37.2
845.541	61.1
845.716	-4.44
845.892	81.58
846.068	11.95
846.244	-26.96
846.419	-20.82
846.595	-37.2
846.77	-8.53
846.946	-14.68
847.122	-45.4
847.297	-2.39
847.473	147.11
847.648	-29.01
847.824	34.47
847.999	-63.83
848.175	-35.16
848.35	-39.25
848.526	61.1
848.701	-26.96
848.876	138.92
849.052	63.15
849.227	-24.92
849.403	-67.92
849.578	-39.25
849.753	16.04
849.929	24.23
850.104	-18.77
850.279	-37.2
850.454	-49.49
850.63	36.52
850.805	48.81
850.98	-6.49
851.155	46.76
851.33	-2.39
851.505	-80.21
851.681	126.63
851.856	-16.73
852.031	44.71
852.206	-14.68
852.381	-80.21
852.556	-59.73
852.731	-12.63
852.906	38.57
853.081	-10.58
853.256	93.87
853.431	-35.16
853.606	-43.35
853.781	26.28
853.956	-184.66
854.131	44.71
854.305	-16.73
854.48	-102.74
854.655	-61.78
854.83	-57.68
855.005	11.95
855.18	91.82
855.354	-53.59
855.529	-8.53
855.704	-31.06
855.879	77.48
856.053	-49.49
856.228	18.09
856.403	-92.5
856.577	20.14
856.752	-41.3
856.926	-0.34
857.101	-37.2
857.276	-53.59
857.45	7.85
857.625	179.88
857.799	61.1
857.974	11.95
858.148	-61.78
858.323	1.71
858.497	20.14
858.672	-47.44
858.846	-16.73
859.02	42.67
859.195	-102.74
859.369	-53.59
859.543	-78.16
859.718	13.99
859.892	-10.58
860.066	20.14
860.241	-35.16
860.415	-69.97
860.589	-69.97
860.763	-90.45
860.938	7.85
861.112	57
861.286	11.95
861.46	13.99
861.634	-67.92
861.808	38.57
861.982	-39.25
862.157	-20.82
862.331	-45.4
862.505	-84.31
862.679	-115.03
862.853	-69.97
863.027	-20.82
863.201	138.92
863.375	-14.68
863.549	44.71
863.722	-29.01
863.896	87.72
864.07	-82.26
864.244	9.9
864.418	3.75
864.592	-33.11
864.766	-45.4
864.939	-55.64
865.113	-119.12
865.287	85.67
865.461	-108.88
865.634	5.8
865.808	-35.16
865.982	-18.77
866.156	-86.36
866.329	-53.59
866.503	9.9
866.676	57
866.85	11.95
867.024	-61.78
867.197	-26.96
867.371	42.67
867.544	24.23
867.718	-106.84
867.891	26.28
868.065	-69.97
868.238	-31.06
868.412	85.67
868.585	24.23
868.759	-45.4
868.932	1.71
869.105	-86.36
869.279	26.28
869.452	34.47
869.625	-53.59
869.799	-53.59
869.972	-12.63
870.145	-20.82
870.319	44.71
870.492	-53.59
870.665	-6.49
870.838	-69.97
871.011	-119.12
871.185	-49.49
871.358	-26.96
871.531	-20.82
871.704	-55.64
871.877	-0.34
872.05	-41.3
872.223	-63.83
872.396	7.85
872.569	26.28
872.742	-96.6
872.915	9.9
873.088	-55.64
873.261	-78.16
873.434	116.39
873.607	-61.78
873.78	118.44
873.953	-61.78
874.126	26.28
874.299	149.16
874.471	11.95
874.644	-16.73
874.817	24.23
874.99	48.81
875.163	-4.44
875.335	-12.63
875.508	-78.16
875.681	77.48
875.853	-18.77
876.026	-43.35
876.199	52.91
876.371	-88.4
876.544	11.95
876.717	26.28
876.889	-16.73
877.062	32.43
877.234	-31.06
877.407	-26.96
877.579	-35.16
877.752	79.53
877.924	34.47
878.097	-4.44
878.269	67.24
878.442	3.75
878.614	20.14
878.786	42.67
878.959	44.71
879.131	40.62
879.303	-102.74
879.476	-12.63
879.648	85.67
879.82	-6.49
879.993	-102.74
880.165	-14.68
880.337	-104.79
880.509	24.23
880.681	-121.17
880.854	-104.79
881.026	134.82
881.198	77.48
881.37	-78.16
881.542	-16.73
881.714	-59.73
881.886	18.09
882.058	36.52
882.23	44.71
882.402	-33.11
882.574	1.71
882.746	89.77
882.918	122.54
883.09	-8.53
883.262	3.75
883.434	-47.44
883.606	-94.55
883.778	-31.06
883.95	130.73
884.122	-82.26
884.293	102.06
884.465	-2.39
884.637	171.69
884.809	-53.59
884.98	-84.31
885.152	61.1
885.324	44.71
885.496	-123.22
885.667	-33.11
885.839	-14.68
886.011	97.96
886.182	44.71
886.354	3.75
886.525	16.04
886.697	7.85
886.869	-67.92
887.04	-35.16
887.212	44.71
887.383	165.54
887.555	-18.77
887.726	-86.36
887.897	-31.06
888.069	-2.39
888.24	116.39
888.412	-78.16
888.583	-0.34
888.754	44.71
888.926	-117.08
889.097	-4.44
889.268	-37.2
889.44	100.01
889.611	-78.16
889.782	-41.3
889.953	-110.93
890.125	126.63
890.296	-31.06
890.467	7.85
890.638	5.8
890.809	11.95
890.98	3.75
891.151	40.62
891.323	106.15
891.494	-20.82
891.665	-39.25
891.836	-20.82
892.007	30.38
892.178	65.19
892.349	11.95
892.52	-86.36
892.691	11.95
892.862	-53.59
893.032	-94.55
893.203	-18.77
893.374	69.29
893.545	57
893.716	-20.82
893.887	30.38
894.057	-4.44
894.228	-37.2
894.399	1.71
894.57	30.38
894.74	5.8
894.911	22.19
895.082	-24.92
895.253	11.95
895.423	26.28
895.594	22.19
895.764	-14.68
895.935	-53.59
896.106	-47.44
896.276	11.95
896.447	-22.87
896.617	-61.78
896.788	-16.73
896.958	-22.87
897.129	-29.01
897.299	-86.36
897.47	102.06
897.64	42.67
897.81	-65.88
897.981	-22.87
898.151	-76.12
898.322	-14.68
898.492	87.72
898.662	-129.36
898.832	-45.4
899.003	-45.4
899.173	24.23
899.343	-14.68
899.513	-10.58
