Data from USB4F104151__26__09-26-22-215.txt Node

Date: Wed Feb 26 09:26:22 EST 2025
User: louis
Spectrometer: USB4F10415
Trigger mode: 4
Integration Time (sec): 1.000000E-1
Scans to average: 1
Electric dark correction enabled: true
Nonlinearity correction enabled: false
Boxcar width: 0
XAxis mode: Wavelengths
Number of Pixels in Spectrum: 3648
>>>>>Begin Spectral Data<<<<<
178.204	-309.07
178.424	-309.07
178.644	-309.07
178.864	-350.03
179.084	-259.92
179.304	-61.27
179.524	16.55
179.744	26.79
179.964	121
180.184	14.51
180.404	2.22
180.624	-8.02
180.844	6.31
181.064	-67.41
181.283	10.41
181.503	-96.08
181.723	34.99
181.943	-75.6
182.163	164.01
182.383	-3.93
182.602	75.95
182.822	114.86
183.042	37.03
183.262	43.18
183.482	49.32
183.701	16.55
183.921	59.56
184.141	-59.22
184.361	-8.02
184.58	100.52
184.8	2.22
185.02	32.94
185.239	65.71
185.459	51.37
185.679	131.24
185.898	-42.84
186.118	67.75
186.338	49.32
186.557	92.33
186.777	20.65
186.997	24.75
187.216	133.29
187.436	121
187.655	45.23
187.875	108.71
188.095	37.03
188.314	51.37
188.534	98.47
188.753	8.36
188.973	88.23
189.192	223.4
189.412	24.75
189.631	143.53
189.851	55.47
190.07	184.49
190.29	-40.79
190.509	-8.02
190.729	73.9
190.948	139.43
191.168	280.74
191.387	131.24
191.607	127.14
191.826	59.56
192.045	8.36
192.265	-30.55
192.484	65.71
192.704	80.04
192.923	-20.31
193.142	159.91
193.362	155.82
193.581	108.71
193.8	98.47
194.02	84.14
194.239	26.79
194.458	32.94
194.678	80.04
194.897	-3.93
195.116	69.8
195.335	4.27
195.555	80.04
195.774	98.47
195.993	102.57
196.212	49.32
196.432	6.31
196.651	10.41
196.87	-3.93
197.089	227.5
197.308	92.33
197.528	61.61
197.747	6.31
197.966	82.09
198.185	104.62
198.404	-46.93
198.623	112.81
198.842	137.38
199.062	116.9
199.281	188.58
199.5	141.48
199.719	104.62
199.938	57.51
200.157	77.99
200.376	82.09
200.595	145.58
200.814	41.13
201.033	34.99
201.252	202.92
201.471	127.14
201.69	153.77
201.909	131.24
202.128	84.14
202.347	108.71
202.566	116.9
202.785	-38.74
203.004	32.94
203.223	188.58
203.442	73.9
203.661	4.27
203.879	100.52
204.098	86.19
204.317	-22.36
204.536	121
204.755	57.51
204.974	88.23
205.193	8.36
205.411	139.43
205.63	135.34
205.849	104.62
206.068	59.56
206.287	-22.36
206.505	176.3
206.724	12.46
206.943	18.6
207.162	45.23
207.381	73.9
207.599	26.79
207.818	22.7
208.037	12.46
208.255	49.32
208.474	121
208.693	90.28
208.911	-26.45
209.13	80.04
209.349	49.32
209.567	139.43
209.786	127.14
210.005	34.99
210.223	114.86
210.442	-114.52
210.661	133.29
210.879	104.62
211.098	41.13
211.316	28.84
211.535	49.32
211.753	39.08
211.972	59.56
212.191	-18.26
212.409	34.99
212.628	49.32
212.846	-24.4
213.065	43.18
213.283	164.01
213.502	55.47
213.72	45.23
213.938	59.56
214.157	-14.17
214.375	172.2
214.594	10.41
214.812	116.9
215.031	55.47
215.249	2.22
215.467	92.33
215.686	61.61
215.904	149.67
216.122	67.75
216.341	159.91
216.559	12.46
216.778	98.47
216.996	61.61
217.214	-65.36
217.432	-12.12
217.651	12.46
217.869	94.38
218.087	14.51
218.306	53.42
218.524	104.62
218.742	30.89
218.96	100.52
219.179	41.13
219.397	16.55
219.615	186.54
219.833	151.72
220.051	-16.21
220.27	49.32
220.488	34.99
220.706	63.66
220.924	-18.26
221.142	57.51
221.36	57.51
221.578	71.85
221.796	18.6
222.015	86.19
222.233	41.13
222.451	157.86
222.669	-81.75
222.887	88.23
223.105	47.27
223.323	14.51
223.541	26.79
223.759	98.47
223.977	28.84
224.195	213.16
224.413	88.23
224.631	92.33
224.849	141.48
225.067	141.48
225.285	82.09
225.503	6.31
225.721	-16.21
225.939	61.61
226.157	55.47
226.375	233.64
226.592	4.27
226.81	98.47
227.028	159.91
227.246	166.06
227.464	108.71
227.682	71.85
227.9	104.62
228.117	100.52
228.335	86.19
228.553	106.67
228.771	10.41
228.989	53.42
229.206	114.86
229.424	26.79
229.642	-5.97
229.86	-32.6
230.077	198.82
230.295	53.42
230.513	32.94
230.731	37.03
230.948	186.54
231.166	215.21
231.384	43.18
231.601	-14.17
231.819	116.9
232.037	32.94
232.254	20.65
232.472	34.99
232.689	32.94
232.907	100.52
233.125	-10.07
233.342	10.41
233.56	49.32
233.777	75.95
233.995	22.7
234.213	47.27
234.43	141.48
234.648	69.8
234.865	65.71
235.083	84.14
235.3	41.13
235.518	57.51
235.735	129.19
235.953	112.81
236.17	43.18
236.388	69.8
236.605	26.79
236.822	96.43
237.04	61.61
237.257	102.57
237.475	0.17
237.692	26.79
237.909	71.85
238.127	32.94
238.344	80.04
238.562	61.61
238.779	0.17
238.996	-36.69
239.214	108.71
239.431	65.71
239.648	24.75
239.865	73.9
240.083	43.18
240.3	26.79
240.517	82.09
240.735	102.57
240.952	139.43
241.169	108.71
241.386	65.71
241.603	63.66
241.821	-46.93
242.038	84.14
242.255	108.71
242.472	2.22
242.689	121
242.907	67.75
243.124	98.47
243.341	-28.5
243.558	6.31
243.775	28.84
243.992	-75.6
244.209	131.24
244.426	139.43
244.643	139.43
244.86	4.27
245.078	75.95
245.295	26.79
245.512	16.55
245.729	41.13
245.946	18.6
246.163	96.43
246.38	39.08
246.597	86.19
246.814	104.62
247.031	88.23
247.248	30.89
247.464	34.99
247.681	63.66
247.898	127.14
248.115	104.62
248.332	-30.55
248.549	71.85
248.766	153.77
248.983	45.23
249.2	47.27
249.417	159.91
249.633	-46.93
249.85	125.1
250.067	59.56
250.284	71.85
250.501	69.8
250.717	153.77
250.934	-32.6
251.151	-5.97
251.368	24.75
251.585	145.58
251.801	73.9
252.018	57.51
252.235	129.19
252.451	-32.6
252.668	43.18
252.885	157.86
253.102	49.32
253.318	8.36
253.535	-38.74
253.752	-30.55
253.968	6.31
254.185	-87.89
254.401	75.95
254.618	129.19
254.835	-8.02
255.051	182.44
255.268	59.56
255.484	55.47
255.701	26.79
255.917	94.38
256.134	-1.88
256.351	-10.07
256.567	6.31
256.784	32.94
257	-53.08
257.217	155.82
257.433	110.76
257.65	102.57
257.866	192.68
258.082	6.31
258.299	26.79
258.515	65.71
258.732	18.6
258.948	-69.46
259.165	2.22
259.381	-42.84
259.597	80.04
259.814	-22.36
260.03	30.89
260.246	65.71
260.463	41.13
260.679	180.39
260.895	73.9
261.112	75.95
261.328	26.79
261.544	-8.02
261.761	153.77
261.977	-12.12
262.193	-57.17
262.409	108.71
262.626	108.71
262.842	65.71
263.058	6.31
263.274	37.03
263.49	63.66
263.707	141.48
263.923	82.09
264.139	-22.36
264.355	34.99
264.571	51.37
264.787	59.56
265.004	121
265.22	53.42
265.436	22.7
265.652	71.85
265.868	65.71
266.084	-55.12
266.3	43.18
266.516	43.18
266.732	39.08
266.948	116.9
267.164	28.84
267.38	112.81
267.596	63.66
267.812	131.24
268.028	55.47
268.244	-32.6
268.46	39.08
268.676	106.67
268.892	16.55
269.108	14.51
269.324	-55.12
269.54	-5.97
269.756	-3.93
269.972	-3.93
270.188	8.36
270.403	24.75
270.619	10.41
270.835	125.1
271.051	20.65
271.267	-24.4
271.483	-5.97
271.698	98.47
271.914	69.8
272.13	61.61
272.346	69.8
272.562	22.7
272.777	166.06
272.993	41.13
273.209	26.79
273.425	94.38
273.64	0.17
273.856	90.28
274.072	-24.4
274.287	39.08
274.503	106.67
274.719	94.38
274.934	86.19
275.15	-110.42
275.366	-1.88
275.581	41.13
275.797	49.32
276.012	90.28
276.228	-57.17
276.444	71.85
276.659	59.56
276.875	-75.6
277.09	24.75
277.306	43.18
277.521	32.94
277.737	18.6
277.952	123.05
278.168	75.95
278.383	116.9
278.599	51.37
278.814	127.14
279.03	22.7
279.245	98.47
279.461	57.51
279.676	49.32
279.892	12.46
280.107	-55.12
280.322	39.08
280.538	63.66
280.753	28.84
280.969	22.7
281.184	59.56
281.399	202.92
281.615	53.42
281.83	30.89
282.045	4.27
282.26	45.23
282.476	22.7
282.691	145.58
282.906	22.7
283.122	43.18
283.337	-26.45
283.552	73.9
283.767	-22.36
283.983	67.75
284.198	34.99
284.413	125.1
284.628	-30.55
284.843	73.9
285.058	75.95
285.274	43.18
285.489	32.94
285.704	129.19
285.919	8.36
286.134	-1.88
286.349	8.36
286.564	-3.93
286.779	96.43
286.995	43.18
287.21	-59.22
287.425	131.24
287.64	41.13
287.855	57.51
288.07	-46.93
288.285	67.75
288.5	153.77
288.715	86.19
288.93	39.08
289.145	55.47
289.36	84.14
289.575	-73.56
289.79	223.4
290.004	-14.17
290.219	118.95
290.434	73.9
290.649	34.99
290.864	-5.97
291.079	51.37
291.294	129.19
291.509	67.75
291.724	34.99
291.938	-14.17
292.153	80.04
292.368	65.71
292.583	51.37
292.798	71.85
293.012	67.75
293.227	-24.4
293.442	6.31
293.657	55.47
293.871	139.43
294.086	108.71
294.301	204.97
294.516	141.48
294.73	106.67
294.945	28.84
295.16	141.48
295.374	116.9
295.589	90.28
295.804	45.23
296.018	-24.4
296.233	123.05
296.447	24.75
296.662	10.41
296.877	178.34
297.091	43.18
297.306	116.9
297.52	26.79
297.735	59.56
297.949	65.71
298.164	84.14
298.378	96.43
298.593	-55.12
298.807	14.51
299.022	75.95
299.236	207.02
299.451	67.75
299.665	24.75
299.88	-3.93
300.094	65.71
300.309	16.55
300.523	59.56
300.737	39.08
300.952	53.42
301.166	88.23
301.381	57.51
301.595	-30.55
301.809	94.38
302.024	59.56
302.238	6.31
302.452	188.58
302.667	59.56
302.881	170.15
303.095	67.75
303.309	100.52
303.524	-22.36
303.738	10.41
303.952	43.18
304.166	39.08
304.381	-36.69
304.595	86.19
304.809	10.41
305.023	170.15
305.237	67.75
305.452	67.75
305.666	34.99
305.88	127.14
306.094	92.33
306.308	18.6
306.522	149.67
306.736	112.81
306.95	149.67
307.164	30.89
307.379	41.13
307.593	219.3
307.807	141.48
308.021	49.32
308.235	-1.88
308.449	-10.07
308.663	88.23
308.877	202.92
309.091	14.51
309.305	137.38
309.519	-85.84
309.733	135.34
309.947	-48.98
310.161	112.81
310.374	139.43
310.588	96.43
310.802	-22.36
311.016	88.23
311.23	102.57
311.444	14.51
311.658	22.7
311.872	123.05
312.085	141.48
312.299	114.86
312.513	153.77
312.727	34.99
312.941	-30.55
313.154	139.43
313.368	121
313.582	8.36
313.796	65.71
314.009	71.85
314.223	98.47
314.437	114.86
314.651	55.47
314.864	16.55
315.078	24.75
315.292	-26.45
315.505	-48.98
315.719	92.33
315.933	127.14
316.146	49.32
316.36	4.27
316.573	96.43
316.787	-3.93
317.001	80.04
317.214	14.51
317.428	34.99
317.641	63.66
317.855	0.17
318.068	32.94
318.282	80.04
318.495	178.34
318.709	102.57
318.922	10.41
319.136	164.01
319.349	92.33
319.563	43.18
319.776	88.23
319.99	-44.88
320.203	32.94
320.417	49.32
320.63	131.24
320.843	221.35
321.057	73.9
321.27	57.51
321.483	10.41
321.697	88.23
321.91	-8.02
322.124	149.67
322.337	73.9
322.55	-16.21
322.763	45.23
322.977	4.27
323.19	41.13
323.403	77.99
323.617	55.47
323.83	65.71
324.043	67.75
324.256	61.61
324.469	-22.36
324.683	104.62
324.896	63.66
325.109	73.9
325.322	14.51
325.535	131.24
325.748	73.9
325.962	161.96
326.175	-28.5
326.388	96.43
326.601	100.52
326.814	71.85
327.027	96.43
327.24	145.58
327.453	18.6
327.666	55.47
327.879	112.81
328.092	108.71
328.305	133.29
328.518	-40.79
328.731	43.18
328.944	125.1
329.157	84.14
329.37	20.65
329.583	159.91
329.796	196.78
330.009	-32.6
330.222	114.86
330.435	88.23
330.648	92.33
330.861	112.81
331.073	133.29
331.286	161.96
331.499	55.47
331.712	49.32
331.925	92.33
332.138	71.85
332.35	151.72
332.563	51.37
332.776	102.57
332.989	2.22
333.202	28.84
333.414	6.31
333.627	41.13
333.84	32.94
334.053	121
334.265	8.36
334.478	39.08
334.691	14.51
334.903	59.56
335.116	8.36
335.329	80.04
335.541	71.85
335.754	159.91
335.966	14.51
336.179	82.09
336.392	39.08
336.604	24.75
336.817	159.91
337.029	69.8
337.242	22.7
337.454	153.77
337.667	39.08
337.88	135.34
338.092	82.09
338.305	157.86
338.517	24.75
338.729	30.89
338.942	192.68
339.154	-30.55
339.367	-3.93
339.579	22.7
339.792	-16.21
340.004	51.37
340.217	-3.93
340.429	41.13
340.641	2.22
340.854	6.31
341.066	98.47
341.278	121
341.491	172.2
341.703	49.32
341.915	14.51
342.128	24.75
342.34	88.23
342.552	-16.21
342.764	-12.12
342.977	30.89
343.189	65.71
343.401	73.9
343.613	-5.97
343.826	75.95
344.038	-34.64
344.25	73.9
344.462	0.17
344.674	-12.12
344.886	100.52
345.099	123.05
345.311	133.29
345.523	61.61
345.735	-51.03
345.947	104.62
346.159	108.71
346.371	57.51
346.583	12.46
346.795	104.62
347.007	28.84
347.219	104.62
347.431	129.19
347.643	112.81
347.855	67.75
348.067	65.71
348.279	-40.79
348.491	32.94
348.703	73.9
348.915	-5.97
349.127	34.99
349.339	43.18
349.551	2.22
349.763	118.95
349.975	41.13
350.187	26.79
350.399	96.43
350.61	2.22
350.822	-63.32
351.034	80.04
351.246	-20.31
351.458	100.52
351.669	10.41
351.881	149.67
352.093	161.96
352.305	57.51
352.517	61.61
352.728	32.94
352.94	106.67
353.152	90.28
353.363	34.99
353.575	114.86
353.787	149.67
353.999	75.95
354.21	155.82
354.422	-22.36
354.633	51.37
354.845	96.43
355.057	41.13
355.268	108.71
355.48	149.67
355.692	-65.36
355.903	104.62
356.115	-5.97
356.326	-16.21
356.538	129.19
356.749	84.14
356.961	100.52
357.172	43.18
357.384	39.08
357.595	231.59
357.807	6.31
358.018	104.62
358.23	57.51
358.441	145.58
358.653	104.62
358.864	26.79
359.075	-34.64
359.287	108.71
359.498	155.82
359.709	96.43
359.921	-14.17
360.132	166.06
360.344	45.23
360.555	51.37
360.766	75.95
360.977	67.75
361.189	141.48
361.4	59.56
361.611	164.01
361.823	108.71
362.034	166.06
362.245	-57.17
362.456	75.95
362.667	41.13
362.879	14.51
363.09	61.61
363.301	92.33
363.512	61.61
363.723	-8.02
363.935	37.03
364.146	90.28
364.357	108.71
364.568	37.03
364.779	8.36
364.99	108.71
365.201	10.41
365.412	116.9
365.623	-42.84
365.834	37.03
366.045	47.27
366.256	141.48
366.467	102.57
366.678	26.79
366.889	6.31
367.1	37.03
367.311	88.23
367.522	22.7
367.733	57.51
367.944	65.71
368.155	98.47
368.366	172.2
368.577	121
368.788	90.28
368.999	-63.32
369.209	57.51
369.42	147.62
369.631	243.88
369.842	57.51
370.053	104.62
370.264	114.86
370.474	41.13
370.685	104.62
370.896	-18.26
371.107	157.86
371.317	47.27
371.528	-10.07
371.739	143.53
371.95	39.08
372.16	116.9
372.371	-18.26
372.582	47.27
372.792	98.47
373.003	53.42
373.214	98.47
373.424	73.9
373.635	14.51
373.846	88.23
374.056	49.32
374.267	80.04
374.477	65.71
374.688	-38.74
374.898	121
375.109	121
375.319	84.14
375.53	141.48
375.74	82.09
375.951	63.66
376.161	61.61
376.372	141.48
376.582	10.41
376.793	102.57
377.003	22.7
377.214	-1.88
377.424	116.9
377.635	75.95
377.845	75.95
378.055	116.9
378.266	18.6
378.476	6.31
378.686	73.9
378.897	135.34
379.107	133.29
379.317	143.53
379.528	65.71
379.738	51.37
379.948	20.65
380.158	55.47
380.369	77.99
380.579	121
380.789	-5.97
380.999	92.33
381.21	90.28
381.42	233.64
381.63	71.85
381.84	159.91
382.05	157.86
382.261	155.82
382.471	153.77
382.681	47.27
382.891	153.77
383.101	-30.55
383.311	-34.64
383.521	51.37
383.731	88.23
383.941	100.52
384.151	116.9
384.361	16.55
384.571	116.9
384.781	88.23
384.991	151.72
385.201	121
385.411	114.86
385.621	92.33
385.831	37.03
386.041	112.81
386.251	114.86
386.461	125.1
386.671	71.85
386.881	80.04
387.091	59.56
387.301	106.67
387.511	96.43
387.72	43.18
387.93	80.04
388.14	10.41
388.35	2.22
388.56	178.34
388.769	102.57
388.979	10.41
389.189	8.36
389.399	26.79
389.609	84.14
389.818	131.24
390.028	43.18
390.238	112.81
390.447	41.13
390.657	118.95
390.867	57.51
391.076	61.61
391.286	104.62
391.496	84.14
391.705	22.7
391.915	55.47
392.125	151.72
392.334	18.6
392.544	157.86
392.753	8.36
392.963	20.65
393.172	213.16
393.382	-26.45
393.591	164.01
393.801	112.81
394.01	172.2
394.22	26.79
394.429	92.33
394.639	-3.93
394.848	116.9
395.058	164.01
395.267	22.7
395.477	69.8
395.686	174.25
395.895	112.81
396.105	143.53
396.314	110.76
396.524	98.47
396.733	14.51
396.942	145.58
397.152	104.62
397.361	86.19
397.57	63.66
397.78	43.18
397.989	114.86
398.198	241.83
398.407	34.99
398.617	32.94
398.826	59.56
399.035	14.51
399.244	114.86
399.453	71.85
399.663	67.75
399.872	110.76
400.081	133.29
400.29	155.82
400.499	32.94
400.708	45.23
400.917	-30.55
401.127	80.04
401.336	-1.88
401.545	207.02
401.754	104.62
401.963	153.77
402.172	18.6
402.381	-1.88
402.59	43.18
402.799	-24.4
403.008	141.48
403.217	57.51
403.426	100.52
403.635	6.31
403.844	43.18
404.053	2.22
404.262	57.51
404.471	149.67
404.68	71.85
404.888	86.19
405.097	39.08
405.306	75.95
405.515	104.62
405.724	86.19
405.933	77.99
406.142	59.56
406.35	75.95
406.559	10.41
406.768	4.27
406.977	194.73
407.185	77.99
407.394	102.57
407.603	-24.4
407.812	116.9
408.02	92.33
408.229	57.51
408.438	-5.97
408.646	-5.97
408.855	39.08
409.064	71.85
409.272	51.37
409.481	139.43
409.69	-10.07
409.898	-18.26
410.107	67.75
410.315	207.02
410.524	61.61
410.733	30.89
410.941	49.32
411.15	92.33
411.358	98.47
411.567	172.2
411.775	92.33
411.984	39.08
412.192	125.1
412.401	45.23
412.609	114.86
412.818	108.71
413.026	43.18
413.234	104.62
413.443	8.36
413.651	-5.97
413.86	100.52
414.068	131.24
414.276	135.34
414.485	26.79
414.693	149.67
414.901	202.92
415.11	92.33
415.318	121
415.526	108.71
415.734	92.33
415.943	143.53
416.151	161.96
416.359	114.86
416.567	53.42
416.776	110.76
416.984	67.75
417.192	223.4
417.4	133.29
417.608	45.23
417.817	55.47
418.025	92.33
418.233	170.15
418.441	45.23
418.649	-44.88
418.857	100.52
419.065	129.19
419.273	-38.74
419.481	84.14
419.689	57.51
419.897	49.32
420.105	-51.03
420.313	166.06
420.521	98.47
420.729	176.3
420.937	55.47
421.145	24.75
421.353	80.04
421.561	159.91
421.769	57.51
421.977	82.09
422.185	131.24
422.393	55.47
422.601	84.14
422.809	34.99
423.017	73.9
423.224	59.56
423.432	90.28
423.64	0.17
423.848	100.52
424.056	63.66
424.263	188.58
424.471	49.32
424.679	180.39
424.887	47.27
425.094	143.53
425.302	67.75
425.51	0.17
425.718	106.67
425.925	116.9
426.133	73.9
426.341	270.5
426.548	77.99
426.756	51.37
426.964	88.23
427.171	69.8
427.379	75.95
427.586	145.58
427.794	104.62
428.001	49.32
428.209	145.58
428.417	145.58
428.624	219.3
428.832	100.52
429.039	82.09
429.247	161.96
429.454	182.44
429.662	161.96
429.869	112.81
430.076	155.82
430.284	143.53
430.491	227.5
430.699	131.24
430.906	207.02
431.114	207.02
431.321	106.67
431.528	131.24
431.736	141.48
431.943	182.44
432.15	215.21
432.358	256.17
432.565	305.32
432.772	49.32
432.979	233.64
433.187	215.21
433.394	100.52
433.601	155.82
433.808	215.21
434.016	274.6
434.223	262.31
434.43	139.43
434.637	231.59
434.844	243.88
435.052	164.01
435.259	229.54
435.466	270.5
435.673	200.87
435.88	301.22
436.087	276.65
436.294	348.33
436.501	284.84
436.708	260.26
436.915	293.03
437.122	325.8
437.329	245.93
437.537	352.42
437.743	354.47
437.95	350.37
438.157	323.75
438.364	395.43
438.571	409.76
438.778	407.72
438.985	430.24
439.192	450.72
439.399	354.47
439.606	434.34
439.813	497.83
440.02	602.27
440.227	639.14
440.433	530.59
440.64	518.31
440.847	540.83
441.054	567.46
441.261	653.47
441.467	723.1
441.674	602.27
441.881	708.77
442.088	678.05
442.294	710.82
442.501	739.49
442.708	819.36
442.914	676
443.121	821.41
443.328	901.28
443.534	989.34
443.741	886.94
443.948	788.64
444.154	956.57
444.361	1222.81
444.568	1077.4
444.774	1022.11
444.981	936.09
445.187	1190.04
445.394	1237.14
445.6	1128.6
445.807	1339.54
446.013	1243.29
446.22	1181.85
446.426	1396.89
446.633	1468.56
446.839	1579.15
447.046	1423.51
447.252	1468.56
447.459	1507.48
447.665	1648.79
447.871	1773.71
448.078	1915.02
448.284	1804.43
448.491	1968.27
448.697	2058.38
448.903	2119.82
449.11	2144.39
449.316	2015.37
449.522	2297.99
449.728	2457.73
449.935	2361.48
450.141	2498.69
450.347	2766.98
450.553	2697.35
450.76	2592.9
450.966	2850.94
451.172	2953.34
451.378	3108.99
451.584	2959.49
451.791	3217.53
451.997	3344.5
452.203	3383.42
452.409	3735.67
452.615	3827.82
452.821	3547.25
453.027	3811.44
453.233	4253.8
453.44	4024.43
453.646	4198.51
453.852	4479.08
454.058	4745.31
454.264	4882.53
454.47	5060.7
454.676	5199.96
454.882	5466.2
455.088	5398.62
455.294	5752.91
455.5	6008.91
455.705	6230.09
455.911	6264.91
456.117	6555.72
456.323	6682.69
456.529	6717.51
456.735	7143.49
456.941	7546.94
457.147	7888.95
457.352	7954.48
457.558	8097.84
457.764	8808.48
457.97	8910.88
458.176	9437.21
458.381	9785.37
458.587	9818.13
458.793	10461.2
458.999	10373.13
459.204	11642.87
459.41	12134.39
459.616	11831.29
459.821	12619.75
460.027	13303.78
460.233	13965.27
460.438	13975.51
460.644	14469.07
460.85	14862.28
461.055	15390.66
461.261	16076.73
461.466	15921.08
461.672	16025.53
461.878	18149.27
462.083	17901.47
462.289	18067.35
462.494	19146.63
462.7	19158.92
462.905	19582.85
463.111	20688.75
463.316	21940.06
463.522	22179.67
463.727	23404.36
463.932	24067.9
464.138	24710.96
464.343	25579.3
464.549	26193.69
464.754	27533.06
464.959	28360.44
465.165	29228.78
465.37	28897.01
465.575	28536.57
465.781	31039.19
465.986	31690.44
466.191	31121.1
466.397	31749.83
466.602	30760.66
466.807	32540.35
467.012	32880.31
467.218	33560.23
467.423	33437.36
467.628	34602.65
467.833	36175.49
468.038	35565.2
468.244	35270.29
468.449	37076.6
468.654	36126.34
468.859	36290.18
469.064	36314.75
469.269	34963.09
469.474	35847.82
469.679	36431.49
469.885	35221.14
470.09	36097.67
470.295	36054.66
470.5	35294.86
470.705	35686.03
470.91	34416.29
471.115	34651.8
471.32	34801.3
471.525	34674.33
471.73	33642.15
471.935	33312.43
472.139	32308.93
472.344	32394.94
472.549	32122.56
472.754	31635.14
472.959	31014.61
473.164	29972.19
473.369	29439.72
473.574	30068.45
473.778	29654.76
473.983	29005.55
474.188	28630.77
474.393	27174.67
474.598	27119.37
474.802	26789.65
475.007	26197.79
475.212	25956.13
475.417	24850.22
475.621	24555.32
475.826	24407.86
476.031	23883.58
476.235	23422.79
476.44	23502.66
476.645	22667.09
476.849	22499.16
477.054	22116.19
477.259	21837.66
477.463	21784.41
477.668	20957.03
477.872	21000.04
478.077	20424.56
478.282	19949.43
478.486	19711.87
478.691	19445.63
478.895	19337.09
479.1	19357.57
479.304	19201.93
479.509	18366.35
479.713	18710.41
479.918	18685.84
480.122	18167.7
480.326	18091.93
480.531	17885.08
480.735	17575.84
480.94	17575.84
481.144	18046.87
481.348	17127.33
481.553	17151.91
481.757	16461.74
481.961	17194.92
482.166	16859.05
482.37	16861.1
482.574	16328.63
482.778	16375.73
482.983	16662.44
483.187	16418.74
483.391	16353.2
483.595	16125.88
483.8	15611.84
484.004	15798.2
484.208	15851.45
484.412	15603.64
484.616	15296.45
484.821	15155.14
485.025	14567.37
485.229	14657.48
485.433	14520.27
485.637	14444.49
485.841	14219.22
486.045	14096.34
486.249	14022.61
486.453	13529.05
486.657	13463.52
486.861	13369.31
487.065	12988.39
487.269	12808.17
487.473	12554.22
487.677	12642.28
487.881	12726.25
488.085	12021.75
488.289	11995.12
488.493	11663.35
488.697	11556.86
488.901	11511.8
489.105	11163.65
489.309	11063.3
489.512	10895.36
489.716	10801.16
489.92	10547.21
490.124	10358.8
490.328	10381.32
490.531	9994.26
490.735	9748.5
490.939	9758.74
491.143	9349.15
491.346	9390.11
491.55	9130.02
491.754	8984.61
491.958	8831.01
492.161	8761.38
492.365	8642.6
492.569	8347.69
492.772	8243.24
492.976	8230.96
493.18	8022.06
493.383	8239.15
493.587	8091.7
493.79	8013.87
493.994	7718.96
494.197	7702.58
494.401	7811.12
494.605	7444.54
494.808	7501.88
495.012	7508.02
495.215	7389.24
495.419	7444.54
495.622	7323.71
495.825	7206.97
496.029	7080
496.232	7180.35
496.436	7045.18
496.639	7192.64
496.843	7161.92
497.046	7143.49
497.249	7309.37
497.453	7163.97
497.656	6936.64
497.859	7170.11
498.063	6991.94
498.266	7155.77
498.469	7102.53
498.673	7055.42
498.876	7129.15
499.079	7180.35
499.282	7129.15
499.485	7620.66
499.689	7299.13
499.892	7467.06
500.095	7268.41
500.298	7444.54
500.501	7454.78
500.705	7663.67
500.908	7684.15
501.111	7874.61
501.314	7823.41
501.517	7970.87
501.72	8024.11
501.923	8028.21
502.126	8046.64
502.329	8140.85
502.532	8165.42
502.735	8390.7
502.938	8349.74
503.141	8513.58
503.344	8736.81
503.547	8783.91
503.75	8880.16
503.953	9125.92
504.156	9099.3
504.359	9082.91
504.562	9373.72
504.765	9508.89
504.968	9689.11
505.17	9877.52
505.373	9652.25
505.576	9961.49
505.779	10125.33
505.982	10287.12
506.185	10745.86
506.387	10715.14
506.59	10872.84
506.793	10993.67
506.996	11165.7
507.198	11507.71
507.401	11552.76
507.604	12009.46
507.807	12232.69
508.009	12351.47
508.212	12478.44
508.415	12799.98
508.617	12842.98
508.82	13516.76
509.022	13254.62
509.225	14012.37
509.428	14319.57
509.63	14479.31
509.833	14649.29
510.035	15486.91
510.238	15359.94
510.44	15650.75
510.643	16138.16
510.845	16531.37
511.048	16555.95
511.25	17321.89
511.453	17270.69
511.655	18292.63
511.858	18444.18
512.06	18728.84
512.262	19044.23
512.465	19136.39
512.667	20127.61
512.87	19998.59
513.072	20750.19
513.274	21462.88
513.477	21808.99
513.679	22386.52
513.881	22769.49
514.084	23201.61
514.286	23719.74
514.488	24080.19
514.69	24876.85
514.893	25122.6
515.095	25851.68
515.297	26130.2
515.499	26605.33
515.701	27182.86
515.904	27772.67
516.106	28569.33
516.308	29075.18
516.51	30142.17
516.712	29705.96
516.914	30529.24
517.116	31741.64
517.318	31782.6
517.52	32493.24
517.722	33193.65
517.925	33658.54
518.127	34721.43
518.329	35294.86
518.531	34975.38
518.733	36114.05
518.935	37039.73
519.136	37060.21
519.338	38094.44
519.54	38485.6
519.742	39044.69
519.944	39712.33
520.146	40474.18
520.348	41047.61
520.55	41006.65
520.752	41561.65
520.954	42520.1
521.155	42694.18
521.357	43220.5
521.559	43470.36
521.761	44674.56
521.963	44301.83
522.164	44781.06
522.366	45047.29
522.568	45825.52
522.77	46061.04
522.971	46683.62
523.173	46675.43
523.375	47429.08
523.576	47103.45
523.778	47447.51
523.98	47472.09
524.181	48125.39
524.383	48129.48
524.584	48604.61
524.786	48508.36
524.988	48426.44
525.189	48582.09
525.391	48688.58
525.592	48969.15
525.794	48993.73
525.995	48885.18
526.197	48723.4
526.398	48874.94
526.6	48838.08
526.801	48647.62
527.003	48270.79
527.204	48274.89
527.406	48516.55
527.607	48156.11
527.808	48647.62
528.01	47037.92
528.211	47521.24
528.412	47836.62
528.614	47451.61
528.815	46773.73
529.016	46872.03
529.218	45977.07
529.419	45886.96
529.62	45469.17
529.822	45063.68
530.023	45043.2
530.224	44617.22
530.425	43642.38
530.626	43109.91
530.828	42882.59
531.029	43142.68
531.23	41999.91
531.431	41416.24
531.632	41287.22
531.833	40728.13
532.035	40488.51
532.236	40171.08
532.437	39714.38
532.638	38821.47
532.839	38491.74
533.04	38559.33
533.241	37719.66
533.442	37486.19
533.643	36943.48
533.844	36163.2
534.045	35559.05
534.246	35200.66
534.447	34672.28
534.648	34356.89
534.849	34008.74
535.05	33582.76
535.251	33187.5
535.451	32691.9
535.652	32353.98
535.853	31780.55
536.054	31303.37
536.255	31184.59
536.456	30275.29
536.657	30291.68
536.857	29628.13
537.058	29316.84
537.259	29193.97
537.46	28765.94
537.66	28026.62
537.861	27932.42
538.062	27651.84
538.263	26834.71
538.463	26664.72
538.664	26634
538.865	25956.13
539.065	25995.04
539.266	25476.9
539.466	25532.2
539.667	24960.81
539.868	24831.79
540.068	24461.11
540.269	24231.74
540.469	24004.41
540.67	23297.86
540.87	23551.81
541.071	23240.52
541.271	22990.67
541.472	22658.9
541.672	22228.82
541.873	22060.89
542.073	21636.96
542.274	21704.54
542.474	21147.5
542.675	20916.08
542.875	20930.41
543.075	20375.41
543.276	20107.13
543.476	20072.31
543.676	19906.43
543.877	19752.83
544.077	19732.35
544.277	19007.37
544.478	18853.77
544.678	18855.82
544.878	18425.75
545.078	18616.21
545.279	18075.54
545.479	18050.97
545.679	18014.1
545.879	17594.27
546.079	17176.48
546.28	17135.53
546.48	17061.8
546.68	16867.24
546.88	16865.19
547.08	16328.63
547.28	16232.37
547.48	15947.7
547.68	15941.56
547.88	15781.82
548.081	15421.38
548.281	15175.62
548.481	15087.56
548.681	14831.56
548.881	14823.37
549.081	14397.39
549.28	14376.91
549.48	14292.94
549.68	13971.41
549.88	13891.54
550.08	13545.44
550.28	13359.07
550.48	13230.05
550.68	13400.03
550.88	12867.56
551.08	12638.19
551.279	12484.59
551.479	12228.59
551.679	12134.39
551.879	11929.59
552.079	11890.68
552.278	11649.02
552.478	11773.94
552.678	11315.2
552.878	11354.11
553.077	10743.81
553.277	10754.05
553.477	10811.4
553.676	10328.08
553.876	10297.36
554.076	10254.35
554.275	10039.31
554.475	9742.36
554.674	9877.52
554.874	9476.12
555.074	9211.93
555.273	9357.34
555.473	9054.24
555.672	8824.87
555.872	8837.16
556.071	8665.13
556.271	8720.42
556.47	8357.93
556.67	8175.66
556.869	8095.79
557.068	8212.53
557.268	7706.68
557.467	7792.69
557.667	7673.91
557.866	7555.13
558.065	7383.1
558.265	7080
558.464	7016.51
558.663	7094.33
558.863	6885.44
559.062	7014.46
559.261	6504.52
559.461	6615.11
559.66	6377.55
559.859	6318.15
560.058	6154.32
560.258	6146.12
560.457	6111.31
560.656	6148.17
560.855	5865.55
561.054	5875.79
561.253	5720.15
561.453	5650.52
561.652	5539.93
561.851	5466.2
562.05	5433.43
562.249	5253.21
562.448	5214.3
562.647	5075.04
562.846	4937.82
563.045	5068.89
563.244	4917.34
563.443	5019.74
563.642	4706.4
563.841	4706.4
564.04	4509.8
564.239	4593.76
564.438	4581.48
564.637	4245.61
564.836	4427.88
565.035	4241.51
565.234	4155.5
565.432	4206.7
565.631	4229.23
565.83	4053.1
566.029	3872.88
566.228	3950.7
566.427	3962.99
566.625	3788.91
566.824	3868.78
567.023	3598.45
567.222	3713.14
567.42	3649.65
567.619	3483.77
567.818	3614.84
568.016	3670.13
568.215	3491.96
568.414	3395.7
568.612	3385.46
568.811	3219.58
569.01	3238.01
569.208	3033.21
569.407	3074.17
569.605	3041.4
569.804	3033.21
570.002	3125.37
570.201	2953.34
570.4	2945.15
570.598	2769.02
570.797	2766.98
570.995	2801.79
571.193	2709.63
571.392	2709.63
571.59	2640
571.789	2697.35
571.987	2635.91
572.186	2637.95
572.384	2539.65
572.582	2535.56
572.781	2474.12
572.979	2236.55
573.177	2351.24
573.376	2310.28
573.574	2394.25
573.772	2244.74
573.971	2132.11
574.169	2148.49
574.367	2177.16
574.565	2195.59
574.763	1951.88
574.962	2074.76
575.16	2013.32
575.358	1939.6
575.556	1915.02
575.754	1968.27
575.952	1919.12
576.151	1910.93
576.349	1964.17
576.547	1835.15
576.745	1769.62
576.943	1853.58
577.141	1589.39
577.339	1632.4
577.537	1718.42
577.735	1699.98
577.933	1671.31
578.131	1579.15
578.329	1656.98
578.527	1538.2
578.725	1702.03
578.923	1349.78
579.121	1458.32
579.319	1370.26
579.516	1364.12
579.714	1546.39
579.912	1394.84
580.11	1337.49
580.308	1413.27
580.506	1261.72
580.704	1253.53
580.901	1300.63
581.099	1403.03
581.297	1292.44
581.495	1224.86
581.692	1210.52
581.89	1218.71
582.088	1265.82
582.285	1196.18
582.483	1114.27
582.681	1069.21
582.878	1214.62
583.076	1132.7
583.274	1108.12
583.471	1161.37
583.669	1013.92
583.866	981.15
584.064	1032.35
584.262	948.38
584.459	1018.01
584.657	1022.11
584.854	1056.92
585.052	985.24
585.249	981.15
585.447	970.91
585.644	880.8
585.841	905.37
586.039	936.09
586.236	1054.87
586.434	815.26
586.631	837.79
586.828	768.16
587.026	917.66
587.223	723.1
587.42	815.26
587.618	837.79
587.815	985.24
588.012	829.6
588.21	782.49
588.407	839.84
588.604	770.21
588.801	710.82
588.999	886.94
589.196	829.6
589.393	712.86
589.59	827.55
589.787	845.98
589.984	762.02
590.182	833.69
590.379	762.02
590.576	737.44
590.773	747.68
590.97	639.14
591.167	739.49
591.364	733.34
591.561	688.29
591.758	755.87
591.955	780.45
592.152	694.43
592.349	704.67
592.546	710.82
592.743	657.57
592.94	682.14
593.137	667.81
593.334	671.9
593.531	669.86
593.727	673.95
593.924	665.76
594.121	712.86
594.318	682.14
594.515	676
594.712	829.6
594.908	870.56
595.105	637.09
595.302	743.58
595.499	802.97
595.696	815.26
595.892	747.68
596.089	858.27
596.286	837.79
596.482	938.14
596.679	979.1
596.876	768.16
597.072	948.38
597.269	895.13
597.466	1005.72
597.662	923.8
597.859	934.04
598.055	956.57
598.252	1052.83
598.448	1134.75
598.645	1169.56
598.841	1177.75
599.038	1288.34
599.234	1271.96
599.431	1333.4
599.627	1409.17
599.824	1310.87
600.02	1409.17
600.217	1425.56
600.413	1599.63
600.609	1722.51
600.806	1927.31
601.002	1786
601.198	1722.51
601.395	1943.69
601.591	2001.04
601.787	2062.48
601.984	2232.46
602.18	2250.89
602.376	2214.02
602.572	2322.57
602.769	2402.44
602.965	2476.16
603.161	2603.14
603.357	2793.6
603.553	2896
603.75	2904.19
603.946	3055.74
604.142	3106.94
604.338	3289.21
604.534	3293.3
604.73	3264.63
604.926	3647.6
605.122	3842.16
605.318	3760.24
605.514	3989.61
605.71	3899.5
605.906	4128.88
606.102	4284.52
606.298	4466.79
606.494	4683.88
606.69	4730.98
606.886	4747.36
607.082	4821.09
607.278	5195.87
607.474	5124.19
607.67	5611.61
607.866	5384.28
608.062	5822.55
608.257	5802.07
608.453	5847.12
608.649	6191.18
608.845	6338.63
609.041	6422.6
609.236	6606.92
609.432	6907.97
609.628	7092.29
609.824	7182.4
610.019	7430.2
610.215	7542.84
610.411	7698.49
610.606	8017.97
610.802	8183.85
610.998	8409.13
611.193	8861.73
611.389	8798.24
611.584	9189.41
611.78	9300
611.976	9748.5
612.171	9924.63
612.367	10315.79
612.562	10240.01
612.758	10676.23
612.953	10985.48
613.149	11372.54
613.344	11421.69
613.539	11790.33
613.735	12091.38
613.93	12470.25
614.126	12500.97
614.321	13242.34
614.517	13408.22
614.712	13832.15
614.907	14118.87
615.103	14528.46
615.298	14841.8
615.493	15437.76
615.688	15409.09
615.884	16242.61
616.079	16269.23
616.274	16893.86
616.47	17149.86
616.665	17889.18
616.86	18179.99
617.055	18401.17
617.25	18876.3
617.445	19586.94
617.641	19832.7
617.836	20447.09
618.031	20529.01
618.226	21522.27
618.421	21661.54
618.616	22636.37
618.811	23043.92
619.006	23715.65
619.201	23637.83
619.396	24414.01
619.591	24825.65
619.786	25929.5
619.981	25732.9
620.176	26998.54
620.371	26988.3
620.566	27723.52
620.761	28167.93
620.956	29185.77
621.151	29322.99
621.346	30344.92
621.541	30408.41
621.735	31588.04
621.93	31545.03
622.125	32249.53
622.32	32595.64
622.515	33775.27
622.709	33924.77
622.904	34991.76
623.099	35346.06
623.294	36224.64
623.488	36419.2
623.683	37166.71
623.878	37187.19
624.072	38530.65
624.267	38760.03
624.462	39663.18
624.656	40091.21
624.851	40521.28
625.046	40914.49
625.24	41641.52
625.435	42047.02
625.629	43216.41
625.824	43257.37
626.018	44056.07
626.213	43732.5
626.407	44609.03
626.602	44946.94
626.796	45673.97
626.991	46312.94
627.185	46937.57
627.38	46650.85
627.574	47246.81
627.768	47402.46
627.963	47474.13
628.157	47629.78
628.352	48315.85
628.546	47719.89
628.74	48078.29
628.935	47979.98
629.129	48520.65
629.323	47932.88
629.517	47910.35
629.712	47533.53
629.906	47429.08
630.1	46648.8
630.294	46573.03
630.489	45583.86
630.683	45886.96
630.877	44219.91
631.071	43882
631.265	43544.08
631.459	42272.29
631.653	41467.44
631.848	40828.48
632.042	39485.01
632.236	39644.75
632.43	38229.6
632.624	37172.85
632.818	36013.7
633.012	34842.26
633.206	33879.72
633.4	32908.98
633.594	31346.38
633.788	30588.63
633.982	30015.2
634.176	28548.86
634.369	27281.16
634.563	26951.44
634.757	25485.09
634.951	24913.71
635.145	23922.49
635.339	23131.98
635.533	22165.34
635.726	21305.19
635.92	20035.45
636.114	19455.87
636.308	18405.27
636.501	18012.06
636.695	17375.14
636.889	16566.19
637.083	15925.18
637.276	15202.24
637.47	14456.78
637.664	14092.24
637.857	13481.95
638.051	12732.39
638.244	12408.81
638.438	11943.92
638.632	11509.76
638.825	10973.19
639.019	10496.01
639.212	10168.34
639.406	9928.72
639.599	9261.09
639.793	9005.09
639.986	8620.07
640.18	8310.83
640.373	7907.38
640.567	7561.27
640.76	7432.25
640.954	7112.77
641.147	6926.4
641.34	6512.71
641.534	6457.42
641.727	6172.75
641.92	6015.05
642.114	5595.22
642.307	5498.97
642.5	5236.83
642.694	4888.67
642.887	4767.84
643.08	4642.92
643.273	4655.2
643.467	4440.17
643.66	3985.52
643.853	3893.36
644.046	3954.8
644.239	3651.7
644.432	3592.31
644.626	3295.35
644.819	3328.12
645.012	3197.05
645.205	3188.86
645.398	3000.44
645.591	2943.1
645.784	2674.82
645.977	2656.39
646.17	2527.36
646.363	2400.39
646.556	2269.32
646.749	2279.56
646.942	2138.25
647.135	2146.44
647.328	2027.66
647.521	2035.85
647.714	1747.09
647.907	1847.44
648.099	1628.31
648.292	1867.92
648.485	1706.13
648.678	1521.81
648.871	1505.43
649.064	1396.89
649.256	1413.27
649.449	1339.54
649.642	1233.05
649.835	1214.62
650.027	1163.42
650.22	1163.42
650.413	1140.89
650.605	1034.39
650.798	1091.74
650.991	1054.87
651.183	997.53
651.376	952.48
651.568	880.8
651.761	819.36
651.954	907.42
652.146	927.9
652.339	819.36
652.531	886.94
652.724	778.4
652.916	727.2
653.109	600.23
653.301	727.2
653.494	770.21
653.686	692.38
653.879	770.21
654.071	649.38
654.263	493.73
654.456	551.07
654.648	645.28
654.84	680.1
655.033	501.92
655.225	698.53
655.417	409.76
655.61	616.61
655.802	626.85
655.994	581.79
656.186	432.29
656.379	555.17
656.571	381.09
656.763	430.24
656.955	434.34
657.148	436.39
657.34	483.49
657.532	450.72
657.724	450.72
657.916	374.95
658.108	385.19
658.3	409.76
658.492	377
658.684	309.41
658.876	393.38
659.068	290.98
659.26	272.55
659.452	346.28
659.644	354.47
659.836	403.62
660.028	325.8
660.22	313.51
660.412	372.9
660.604	358.57
660.796	215.21
660.988	317.61
661.18	223.4
661.372	262.31
661.563	299.17
661.755	409.76
661.947	266.41
662.139	252.07
662.331	293.03
662.522	266.41
662.714	252.07
662.906	172.2
663.097	184.49
663.289	166.06
663.481	129.19
663.673	362.66
663.864	268.45
664.056	264.36
664.247	194.73
664.439	387.24
664.631	221.35
664.822	307.37
665.014	231.59
665.205	198.82
665.397	178.34
665.588	264.36
665.78	274.6
665.971	211.11
666.163	174.25
666.354	264.36
666.546	190.63
666.737	135.34
666.929	221.35
667.12	225.45
667.311	237.74
667.503	231.59
667.694	245.93
667.885	272.55
668.077	293.03
668.268	141.48
668.459	186.54
668.651	264.36
668.842	196.78
669.033	137.38
669.224	100.52
669.416	436.39
669.607	127.14
669.798	262.31
669.989	284.84
670.18	202.92
670.371	215.21
670.563	166.06
670.754	301.22
670.945	231.59
671.136	307.37
671.327	198.82
671.518	313.51
671.709	270.5
671.9	258.21
672.091	370.85
672.282	303.27
672.473	272.55
672.664	225.45
672.855	231.59
673.046	327.85
673.237	317.61
673.428	204.97
673.619	239.78
673.809	256.17
674	370.85
674.191	288.93
674.382	270.5
674.573	280.74
674.764	356.52
674.954	336.04
675.145	145.58
675.336	213.16
675.527	241.83
675.717	252.07
675.908	211.11
676.099	284.84
676.289	250.02
676.48	219.3
676.671	344.23
676.861	247.97
677.052	229.54
677.243	233.64
677.433	247.97
677.624	403.62
677.814	356.52
678.005	290.98
678.195	456.87
678.386	237.74
678.576	309.41
678.767	288.93
678.957	405.67
679.148	370.85
679.338	436.39
679.529	399.52
679.719	311.46
679.909	430.24
680.1	469.16
680.29	370.85
680.481	342.18
680.671	426.15
680.861	358.57
681.052	436.39
681.242	340.13
681.432	370.85
681.622	415.91
681.813	293.03
682.003	301.22
682.193	317.61
682.383	415.91
682.573	379.04
682.764	342.18
682.954	420
683.144	481.44
683.334	313.51
683.524	454.82
683.714	448.68
683.904	417.96
684.094	489.64
684.284	428.2
684.474	581.79
684.664	428.2
684.854	438.44
685.044	510.11
685.234	426.15
685.424	393.38
685.614	452.77
685.804	536.74
685.994	491.68
686.184	501.92
686.374	524.45
686.564	434.34
686.753	434.34
686.943	338.09
687.133	424.1
687.323	452.77
687.513	450.72
687.702	534.69
687.892	440.48
688.082	516.26
688.272	538.79
688.461	508.07
688.651	508.07
688.841	469.16
689.03	473.25
689.22	532.64
689.41	422.05
689.599	544.93
689.789	417.96
689.979	534.69
690.168	454.82
690.358	506.02
690.547	491.68
690.737	397.48
690.926	495.78
691.116	489.64
691.305	506.02
691.495	471.2
691.684	403.62
691.874	360.61
692.063	473.25
692.252	510.11
692.442	479.4
692.631	346.28
692.82	434.34
693.01	473.25
693.199	446.63
693.388	456.87
693.578	442.53
693.767	424.1
693.956	493.73
694.146	370.85
694.335	452.77
694.524	438.44
694.713	493.73
694.902	346.28
695.092	440.48
695.281	370.85
695.47	420
695.659	315.56
695.848	401.57
696.037	452.77
696.226	411.81
696.415	428.2
696.604	471.2
696.793	485.54
696.982	368.81
697.171	489.64
697.36	350.37
697.549	377
697.738	319.65
697.927	440.48
698.116	319.65
698.305	467.11
698.494	368.81
698.683	368.81
698.872	594.08
699.061	440.48
699.25	454.82
699.438	420
699.627	370.85
699.816	503.97
700.005	344.23
700.193	354.47
700.382	446.63
700.571	450.72
700.76	452.77
700.948	460.96
701.137	348.33
701.326	446.63
701.514	350.37
701.703	403.62
701.892	448.68
702.08	546.98
702.269	362.66
702.457	444.58
702.646	432.29
702.834	356.52
703.023	440.48
703.212	465.06
703.4	420
703.589	401.57
703.777	317.61
703.965	362.66
704.154	442.53
704.342	284.84
704.531	338.09
704.719	460.96
704.907	569.51
705.096	303.27
705.284	393.38
705.472	420
705.661	407.72
705.849	432.29
706.037	460.96
706.226	485.54
706.414	477.35
706.602	391.33
706.79	436.39
706.979	348.33
707.167	358.57
707.355	250.02
707.543	501.92
707.731	383.14
707.919	338.09
708.107	448.68
708.296	389.28
708.484	374.95
708.672	426.15
708.86	460.96
709.048	333.99
709.236	303.27
709.424	487.59
709.612	405.67
709.8	346.28
709.988	420
710.176	424.1
710.364	422.05
710.551	336.04
710.739	460.96
710.927	336.04
711.115	432.29
711.303	368.81
711.491	428.2
711.679	379.04
711.866	495.78
712.054	405.67
712.242	442.53
712.43	526.5
712.617	370.85
712.805	555.17
712.993	383.14
713.181	282.79
713.368	442.53
713.556	477.35
713.744	354.47
713.931	473.25
714.119	444.58
714.306	428.2
714.494	377
714.682	399.52
714.869	370.85
715.057	506.02
715.244	368.81
715.432	448.68
715.619	383.14
715.807	411.81
715.994	413.86
716.182	356.52
716.369	563.36
716.556	467.11
716.744	362.66
716.931	360.61
717.119	575.65
717.306	495.78
717.493	387.24
717.681	407.72
717.868	479.4
718.055	469.16
718.242	440.48
718.43	467.11
718.617	508.07
718.804	407.72
718.991	440.48
719.179	477.35
719.366	491.68
719.553	467.11
719.74	424.1
719.927	387.24
720.114	518.31
720.301	321.7
720.488	385.19
720.676	442.53
720.863	518.31
721.05	563.36
721.237	467.11
721.424	520.35
721.611	436.39
721.798	377
721.985	487.59
722.172	463.01
722.358	428.2
722.545	551.07
722.732	546.98
722.919	551.07
723.106	571.55
723.293	475.3
723.48	436.39
723.667	469.16
723.853	540.83
724.04	583.84
724.227	530.59
724.414	432.29
724.6	567.46
724.787	628.9
724.974	604.32
725.161	499.88
725.347	495.78
725.534	497.83
725.72	460.96
725.907	614.56
726.094	649.38
726.28	530.59
726.467	528.55
726.653	506.02
726.84	714.91
727.027	540.83
727.213	424.1
727.4	534.69
727.586	534.69
727.773	559.27
727.959	565.41
728.145	565.41
728.332	567.46
728.518	501.92
728.705	573.6
728.891	522.4
729.077	530.59
729.264	434.34
729.45	514.21
729.636	589.99
729.823	540.83
730.009	612.51
730.195	514.21
730.382	540.83
730.568	452.77
730.754	518.31
730.94	583.84
731.126	465.06
731.313	612.51
731.499	575.65
731.685	575.65
731.871	637.09
732.057	616.61
732.243	594.08
732.429	645.28
732.615	657.57
732.801	592.03
732.987	608.42
733.173	530.59
733.359	534.69
733.545	526.5
733.731	649.38
733.917	647.33
734.103	614.56
734.289	635.04
734.475	579.75
734.661	714.91
734.847	632.99
735.033	645.28
735.219	688.29
735.404	585.89
735.59	561.31
735.776	579.75
735.962	628.9
736.148	616.61
736.333	579.75
736.519	557.22
736.705	608.42
736.89	534.69
737.076	596.13
737.262	526.5
737.447	544.93
737.633	598.18
737.819	581.79
738.004	581.79
738.19	501.92
738.375	618.66
738.561	700.58
738.747	573.6
738.932	489.64
739.118	704.67
739.303	645.28
739.489	589.99
739.674	573.6
739.859	565.41
740.045	596.13
740.23	622.75
740.416	538.79
740.601	692.38
740.786	555.17
740.972	587.94
741.157	589.99
741.342	475.3
741.528	575.65
741.713	712.86
741.898	561.31
742.084	690.34
742.269	641.18
742.454	589.99
742.639	643.23
742.824	524.45
743.01	690.34
743.195	692.38
743.38	622.75
743.565	583.84
743.75	641.18
743.935	632.99
744.12	614.56
744.305	485.54
744.49	467.11
744.675	573.6
744.86	522.4
745.045	561.31
745.23	559.27
745.415	553.12
745.6	655.52
745.785	600.23
745.97	643.23
746.155	624.8
746.34	532.64
746.525	530.59
746.71	614.56
746.895	512.16
747.079	524.45
747.264	577.7
747.449	592.03
747.634	626.85
747.819	575.65
748.003	516.26
748.188	444.58
748.373	555.17
748.557	538.79
748.742	440.48
748.927	594.08
749.111	518.31
749.296	510.11
749.481	540.83
749.665	555.17
749.85	536.74
750.034	571.55
750.219	516.26
750.404	530.59
750.588	485.54
750.773	520.35
750.957	499.88
751.141	434.34
751.326	624.8
751.51	331.94
751.695	405.67
751.879	426.15
752.064	544.93
752.248	471.2
752.432	528.55
752.617	510.11
752.801	495.78
752.985	411.81
753.17	524.45
753.354	374.95
753.538	411.81
753.722	391.33
753.907	350.37
754.091	340.13
754.275	403.62
754.459	420
754.643	424.1
754.828	446.63
755.012	508.07
755.196	366.76
755.38	411.81
755.564	383.14
755.748	424.1
755.932	366.76
756.116	508.07
756.3	411.81
756.484	336.04
756.668	438.44
756.852	239.78
757.036	368.81
757.22	393.38
757.404	329.89
757.588	307.37
757.772	497.83
757.956	336.04
758.14	440.48
758.323	311.46
758.507	366.76
758.691	352.42
758.875	506.02
759.059	379.04
759.242	282.79
759.426	403.62
759.61	385.19
759.794	297.13
759.977	465.06
760.161	594.08
760.345	399.52
760.528	450.72
760.712	379.04
760.895	327.85
761.079	346.28
761.263	256.17
761.446	311.46
761.63	344.23
761.813	434.34
761.997	288.93
762.18	239.78
762.364	364.71
762.547	217.26
762.731	305.32
762.914	364.71
763.098	254.12
763.281	317.61
763.464	268.45
763.648	329.89
763.831	243.88
764.015	264.36
764.198	401.57
764.381	262.31
764.564	254.12
764.748	297.13
764.931	327.85
765.114	252.07
765.297	358.57
765.481	135.34
765.664	358.57
765.847	329.89
766.03	288.93
766.213	280.74
766.397	235.69
766.58	270.5
766.763	293.03
766.946	239.78
767.129	264.36
767.312	182.44
767.495	223.4
767.678	223.4
767.861	229.54
768.044	215.21
768.227	252.07
768.41	262.31
768.593	284.84
768.776	221.35
768.959	172.2
769.142	329.89
769.324	143.53
769.507	239.78
769.69	166.06
769.873	178.34
770.056	364.71
770.239	237.74
770.421	254.12
770.604	204.97
770.787	149.67
770.97	245.93
771.152	65.71
771.335	268.45
771.518	223.4
771.7	329.89
771.883	311.46
772.066	176.3
772.248	256.17
772.431	284.84
772.613	192.68
772.796	186.54
772.978	202.92
773.161	219.3
773.343	241.83
773.526	133.29
773.708	151.72
773.891	84.14
774.073	186.54
774.256	131.24
774.438	315.56
774.621	147.62
774.803	161.96
774.985	123.05
775.168	198.82
775.35	90.28
775.532	221.35
775.715	180.39
775.897	178.34
776.079	215.21
776.261	170.15
776.444	190.63
776.626	174.25
776.808	157.86
776.99	116.9
777.173	213.16
777.355	170.15
777.537	209.06
777.719	194.73
777.901	161.96
778.083	125.1
778.265	88.23
778.447	133.29
778.629	77.99
778.811	147.62
778.993	184.49
779.175	178.34
779.357	166.06
779.539	-16.21
779.721	129.19
779.903	159.91
780.085	90.28
780.267	178.34
780.449	106.67
780.631	157.86
780.812	258.21
780.994	168.1
781.176	112.81
781.358	92.33
781.54	92.33
781.721	186.54
781.903	272.55
782.085	75.95
782.267	182.44
782.448	34.99
782.63	174.25
782.812	106.67
782.993	157.86
783.175	114.86
783.357	100.52
783.538	176.3
783.72	92.33
783.901	98.47
784.083	174.25
784.264	73.9
784.446	67.75
784.627	6.31
784.809	108.71
784.99	0.17
785.172	161.96
785.353	112.81
785.535	88.23
785.716	6.31
785.897	57.51
786.079	73.9
786.26	180.39
786.441	110.76
786.623	82.09
786.804	159.91
786.985	43.18
787.167	104.62
787.348	106.67
787.529	18.6
787.71	164.01
787.891	116.9
788.073	37.03
788.254	34.99
788.435	157.86
788.616	137.38
788.797	47.27
788.978	4.27
789.159	65.71
789.34	131.24
789.522	141.48
789.703	75.95
789.884	131.24
790.065	143.53
790.246	159.91
790.427	-18.26
790.607	196.78
790.788	207.02
790.969	26.79
791.15	84.14
791.331	92.33
791.512	10.41
791.693	-18.26
791.874	-30.55
792.054	209.06
792.235	198.82
792.416	4.27
792.597	14.51
792.778	100.52
792.958	84.14
793.139	30.89
793.32	86.19
793.5	41.13
793.681	153.77
793.862	112.81
794.042	166.06
794.223	-10.07
794.404	94.38
794.584	6.31
794.765	116.9
794.945	88.23
795.126	121
795.306	65.71
795.487	84.14
795.667	18.6
795.848	75.95
796.028	59.56
796.209	71.85
796.389	90.28
796.57	90.28
796.75	8.36
796.93	61.61
797.111	-5.97
797.291	73.9
797.471	43.18
797.652	0.17
797.832	65.71
798.012	73.9
798.192	53.42
798.373	34.99
798.553	82.09
798.733	90.28
798.913	2.22
799.093	18.6
799.274	51.37
799.454	116.9
799.634	157.86
799.814	65.71
799.994	80.04
800.174	153.77
800.354	96.43
800.534	22.7
800.714	172.2
800.894	96.43
801.074	-1.88
801.254	43.18
801.434	118.95
801.614	-16.21
801.794	43.18
801.974	1640.59
802.154	47.27
802.334	90.28
802.514	-1.88
802.693	41.13
802.873	59.56
803.053	200.87
803.233	100.52
803.413	34.99
803.592	22.7
803.772	55.47
803.952	149.67
804.131	-24.4
804.311	129.19
804.491	157.86
804.67	43.18
804.85	30.89
805.03	168.1
805.209	151.72
805.389	98.47
805.568	-18.26
805.748	-24.4
805.928	-5.97
806.107	131.24
806.287	77.99
806.466	96.43
806.646	65.71
806.825	82.09
807.004	2.22
807.184	82.09
807.363	112.81
807.543	71.85
807.722	39.08
807.901	131.24
808.081	114.86
808.26	-38.74
808.439	98.47
808.619	34.99
808.798	10.41
808.977	26.79
809.156	67.75
809.336	65.71
809.515	51.37
809.694	82.09
809.873	-1.88
810.052	92.33
810.231	116.9
810.411	65.71
810.59	121
810.769	47.27
810.948	141.48
811.127	-87.89
811.306	-3.93
811.485	30.89
811.664	116.9
811.843	-36.69
812.022	73.9
812.201	-40.79
812.38	108.71
812.559	-67.41
812.737	108.71
812.916	-122.71
813.095	16.55
813.274	49.32
813.453	63.66
813.632	159.91
813.811	116.9
813.989	-42.84
814.168	32.94
814.347	-32.6
814.526	12.46
814.704	135.34
814.883	157.86
815.062	34.99
815.24	18.6
815.419	-36.69
815.598	10.41
815.776	-55.12
815.955	118.95
816.133	-145.24
816.312	14.51
816.49	-22.36
816.669	16.55
816.847	84.14
817.026	106.67
817.204	-46.93
817.383	67.75
817.561	-30.55
817.74	170.15
817.918	118.95
818.097	-36.69
818.275	-22.36
818.453	157.86
818.632	90.28
818.81	18.6
818.988	18.6
819.167	-14.17
819.345	22.7
819.523	24.75
819.701	96.43
819.879	30.89
820.058	-8.02
820.236	57.51
820.414	100.52
820.592	-28.5
820.77	84.14
820.948	16.55
821.127	26.79
821.305	71.85
821.483	63.66
821.661	116.9
821.839	-32.6
822.017	-20.31
822.195	-22.36
822.373	57.51
822.551	96.43
822.729	47.27
822.907	59.56
823.085	94.38
823.262	34.99
823.44	-79.7
823.618	26.79
823.796	2.22
823.974	32.94
824.152	-10.07
824.329	-5.97
824.507	32.94
824.685	65.71
824.863	51.37
825.04	-14.17
825.218	102.57
825.396	18.6
825.574	34.99
825.751	41.13
825.929	88.23
826.107	24.75
826.284	18.6
826.462	94.38
826.639	-118.61
826.817	12.46
826.994	26.79
827.172	-36.69
827.349	49.32
827.527	41.13
827.704	32.94
827.882	30.89
828.059	10.41
828.237	-71.51
828.414	69.8
828.591	-20.31
828.769	61.61
828.946	-81.75
829.124	28.84
829.301	127.14
829.478	2.22
829.655	100.52
829.833	75.95
830.01	-77.65
830.187	51.37
830.364	32.94
830.542	80.04
830.719	129.19
830.896	18.6
831.073	88.23
831.25	98.47
831.427	116.9
831.604	51.37
831.782	-26.45
831.959	94.38
832.136	47.27
832.313	34.99
832.49	18.6
832.667	6.31
832.844	-32.6
833.021	127.14
833.198	12.46
833.374	71.85
833.551	6.31
833.728	49.32
833.905	75.95
834.082	-110.42
834.259	26.79
834.436	104.62
834.612	-46.93
834.789	55.47
834.966	57.51
835.143	84.14
835.319	-87.89
835.496	0.17
835.673	153.77
835.85	166.06
836.026	59.56
836.203	69.8
836.38	12.46
836.556	6.31
836.733	53.42
836.909	88.23
837.086	22.7
837.262	-63.32
837.439	34.99
837.616	-14.17
837.792	106.67
837.968	45.23
838.145	-12.12
838.321	14.51
838.498	51.37
838.674	59.56
838.851	59.56
839.027	-51.03
839.203	-22.36
839.38	47.27
839.556	-24.4
839.732	106.67
839.909	16.55
840.085	65.71
840.261	-22.36
840.437	30.89
840.614	-1.88
840.79	133.29
840.966	51.37
841.142	39.08
841.318	-14.17
841.494	34.99
841.671	65.71
841.847	6.31
842.023	-40.79
842.199	63.66
842.375	188.58
842.551	-77.65
842.727	-42.84
842.903	116.9
843.079	-32.6
843.255	75.95
843.431	55.47
843.607	20.65
843.783	-83.8
843.959	47.27
844.134	47.27
844.31	82.09
844.486	-40.79
844.662	-57.17
844.838	-3.93
845.013	14.51
845.189	106.67
845.365	47.27
845.541	39.08
845.716	28.84
845.892	61.61
846.068	-100.18
846.244	-48.98
846.419	86.19
846.595	-32.6
846.77	-51.03
846.946	57.51
847.122	24.75
847.297	10.41
847.473	123.05
847.648	-108.37
847.824	39.08
847.999	-114.52
848.175	16.55
848.35	-34.64
848.526	57.51
848.701	51.37
848.876	116.9
849.052	157.86
849.227	-51.03
849.403	30.89
849.578	-51.03
849.753	75.95
849.929	10.41
850.104	-28.5
850.279	-5.97
850.454	26.79
850.63	82.09
850.805	73.9
850.98	-46.93
851.155	59.56
851.33	57.51
851.505	-81.75
851.681	49.32
851.856	-55.12
852.031	12.46
852.206	92.33
852.381	-59.22
852.556	2.22
852.731	8.36
852.906	77.99
853.081	20.65
853.256	141.48
853.431	47.27
853.606	-1.88
853.781	-8.02
853.956	10.41
854.131	10.41
854.305	-28.5
854.48	0.17
854.655	-44.88
854.83	4.27
855.005	-48.98
855.18	-14.17
855.354	6.31
855.529	12.46
855.704	-32.6
855.879	121
856.053	-42.84
856.228	12.46
856.403	20.65
856.577	59.56
856.752	-81.75
856.926	39.08
857.101	-12.12
857.276	-40.79
857.45	34.99
857.625	55.47
857.799	71.85
857.974	94.38
858.148	-46.93
858.323	39.08
858.497	-8.02
858.672	-32.6
858.846	-10.07
859.02	37.03
859.195	-22.36
859.369	0.17
859.543	41.13
859.718	32.94
859.892	24.75
860.066	24.75
860.241	-55.12
860.415	-30.55
860.589	-22.36
860.763	0.17
860.938	-46.93
861.112	67.75
861.286	22.7
861.46	10.41
861.634	12.46
861.808	67.75
861.982	10.41
862.157	49.32
862.331	20.65
862.505	6.31
862.679	-48.98
862.853	2.22
863.027	-79.7
863.201	190.63
863.375	-20.31
863.549	41.13
863.722	108.71
863.896	51.37
864.07	-57.17
864.244	-22.36
864.418	8.36
864.592	6.31
864.766	12.46
864.939	18.6
865.113	-24.4
865.287	100.52
865.461	-12.12
865.634	-3.93
865.808	26.79
865.982	-85.84
866.156	10.41
866.329	-18.26
866.503	47.27
866.676	67.75
866.85	22.7
867.024	-24.4
867.197	55.47
867.371	82.09
867.544	39.08
867.718	-32.6
867.891	75.95
868.065	-98.13
868.238	14.51
868.412	-20.31
868.585	-18.26
868.759	-8.02
868.932	4.27
869.105	-24.4
869.279	30.89
869.452	-48.98
869.625	114.86
869.799	43.18
869.972	-20.31
870.145	-42.84
870.319	10.41
870.492	49.32
870.665	-65.36
870.838	-61.27
871.011	-30.55
871.185	28.84
871.358	-79.7
871.531	37.03
871.704	-30.55
871.877	-16.21
872.05	-14.17
872.223	-59.22
872.396	14.51
872.569	37.03
872.742	-38.74
872.915	4.27
873.088	-55.12
873.261	-5.97
873.434	100.52
873.607	-12.12
873.78	22.7
873.953	-18.26
874.126	-5.97
874.299	-42.84
874.471	-96.08
874.644	22.7
874.817	55.47
874.99	71.85
875.163	-1.88
875.335	41.13
875.508	-30.55
875.681	129.19
875.853	-38.74
876.026	-26.45
876.199	100.52
876.371	26.79
876.544	-55.12
876.717	-12.12
876.889	59.56
877.062	39.08
877.234	-24.4
877.407	-63.32
877.579	-44.88
877.752	-32.6
877.924	0.17
878.097	65.71
878.269	-67.41
878.442	47.27
878.614	65.71
878.786	30.89
878.959	6.31
879.131	2.22
879.303	-34.64
879.476	-30.55
879.648	51.37
879.82	37.03
879.993	-14.17
880.165	-3.93
880.337	-112.47
880.509	22.7
880.681	-85.84
880.854	-145.24
881.026	73.9
881.198	184.49
881.37	16.55
881.542	-8.02
881.714	-46.93
881.886	-32.6
882.058	-65.36
882.23	18.6
882.402	16.55
882.574	-8.02
882.746	57.51
882.918	55.47
883.09	59.56
883.262	10.41
883.434	-30.55
883.606	-36.69
883.778	80.04
883.95	90.28
884.122	-44.88
884.293	37.03
884.465	6.31
884.637	141.48
884.809	49.32
884.98	6.31
885.152	57.51
885.324	123.05
885.496	-40.79
885.667	-57.17
885.839	24.75
886.011	182.44
886.182	2.22
886.354	75.95
886.525	-14.17
886.697	4.27
886.869	-55.12
887.04	16.55
887.212	51.37
887.383	65.71
887.555	69.8
887.726	-42.84
887.897	-22.36
888.069	65.71
888.24	63.66
888.412	-55.12
888.583	-30.55
888.754	-20.31
888.926	-102.23
889.097	6.31
889.268	-122.71
889.44	-14.17
889.611	22.7
889.782	-108.37
889.953	-10.07
890.125	84.14
890.296	-38.74
890.467	8.36
890.638	-36.69
890.809	20.65
890.98	-32.6
891.151	6.31
891.323	116.9
891.494	-63.32
891.665	-18.26
891.836	-40.79
892.007	98.47
892.178	-1.88
892.349	6.31
892.52	26.79
892.691	-8.02
892.862	-28.5
893.032	-128.85
893.203	-63.32
893.374	-38.74
893.545	24.75
893.716	43.18
893.887	55.47
894.057	10.41
894.228	-3.93
894.399	-46.93
894.57	67.75
894.74	-16.21
894.911	51.37
895.082	57.51
895.253	-55.12
895.423	-1.88
895.594	71.85
895.764	82.09
895.935	16.55
896.106	-1.88
896.276	8.36
896.447	43.18
896.617	-30.55
896.788	18.6
896.958	-46.93
897.129	-22.36
897.299	0.17
897.47	147.62
897.64	53.42
897.81	10.41
897.981	34.99
898.151	-20.31
898.322	63.66
898.492	-22.36
898.662	39.08
898.832	-44.88
899.003	-8.02
899.173	69.8
899.343	-28.5
899.513	-55.12
