Data from USB4F104151__63__11-30-53-764.txt Node

Date: Wed Feb 26 11:30:53 EST 2025
User: louis
Spectrometer: USB4F10415
Trigger mode: 4
Integration Time (sec): 1.000000E-1
Scans to average: 1
Electric dark correction enabled: true
Nonlinearity correction enabled: false
Boxcar width: 0
XAxis mode: Wavelengths
Number of Pixels in Spectrum: 3648
>>>>>Begin Spectral Data<<<<<
178.204	-387.92
178.424	-387.92
178.644	-387.92
178.864	-367.44
179.084	-449.36
179.304	-11.09
179.524	9.39
179.744	58.54
179.964	64.68
180.184	-17.24
180.404	-4.95
180.624	-43.86
180.844	-19.29
181.064	-66.39
181.283	11.43
181.503	-47.96
181.723	66.73
181.943	-33.62
182.163	181.42
182.383	-43.86
182.602	17.58
182.822	144.55
183.042	142.5
183.262	40.11
183.482	130.22
183.701	21.67
183.921	48.3
184.141	-0.85
184.361	95.4
184.58	68.78
184.8	36.01
185.02	60.59
185.239	115.88
185.459	101.55
185.679	191.66
185.898	-90.96
186.118	122.02
186.338	146.6
186.557	191.66
186.777	-31.57
186.997	111.78
187.216	54.44
187.436	199.85
187.655	140.46
187.875	85.16
188.095	58.54
188.314	136.36
188.534	101.55
188.753	-31.57
188.973	99.5
189.192	140.46
189.412	-11.09
189.631	-0.85
189.851	115.88
190.07	218.28
190.29	-43.86
190.509	58.54
190.729	29.87
190.948	72.87
191.168	208.04
191.387	85.16
191.607	44.2
191.826	56.49
192.045	29.87
192.265	79.02
192.484	105.64
192.704	74.92
192.923	-64.34
193.142	246.95
193.362	72.87
193.581	122.02
193.8	58.54
194.02	81.07
194.239	40.11
194.458	64.68
194.678	-62.29
194.897	11.43
195.116	42.15
195.335	162.98
195.555	52.39
195.774	25.77
195.993	99.5
196.212	160.94
196.432	11.43
196.651	19.63
196.87	31.91
197.089	267.43
197.308	81.07
197.528	83.11
197.747	-54.1
197.966	46.25
198.185	160.94
198.404	19.63
198.623	152.74
198.842	175.27
199.062	201.9
199.281	93.35
199.5	-37.72
199.719	97.45
199.938	83.11
200.157	130.22
200.376	124.07
200.595	107.69
200.814	74.92
201.033	23.72
201.252	142.5
201.471	87.21
201.69	48.3
201.909	54.44
202.128	142.5
202.347	119.98
202.566	46.25
202.785	-72.53
203.004	-31.57
203.223	251.05
203.442	64.68
203.661	-21.33
203.879	70.83
204.098	60.59
204.317	17.58
204.536	138.41
204.755	87.21
204.974	158.89
205.193	87.21
205.411	117.93
205.63	87.21
205.849	87.21
206.068	-9.05
206.287	-29.52
206.505	183.46
206.724	48.3
206.943	-4.95
207.162	25.77
207.381	111.78
207.599	62.63
207.818	44.2
208.037	-47.96
208.255	40.11
208.474	58.54
208.693	105.64
208.911	38.06
209.13	132.26
209.349	165.03
209.567	130.22
209.786	97.45
210.005	173.22
210.223	74.92
210.442	-33.62
210.661	44.2
210.879	101.55
211.098	60.59
211.316	179.37
211.535	115.88
211.753	95.4
211.972	156.84
212.191	76.97
212.409	48.3
212.628	68.78
212.846	-54.1
213.065	50.35
213.283	128.17
213.502	122.02
213.72	33.96
213.938	70.83
214.157	40.11
214.375	122.02
214.594	-23.38
214.812	140.46
215.031	60.59
215.249	109.74
215.467	101.55
215.686	23.72
215.904	56.49
216.122	56.49
216.341	156.84
216.559	81.07
216.778	189.61
216.996	140.46
217.214	54.44
217.432	52.39
217.651	-33.62
217.869	31.91
218.087	95.4
218.306	13.48
218.524	54.44
218.742	17.58
218.96	119.98
219.179	-13.14
219.397	91.31
219.615	169.13
219.833	70.83
220.051	-35.67
220.27	113.83
220.488	152.74
220.706	107.69
220.924	21.67
221.142	33.96
221.36	189.61
221.578	99.5
221.796	95.4
222.015	66.73
222.233	48.3
222.451	132.26
222.669	-37.72
222.887	138.41
223.105	19.63
223.323	89.26
223.541	95.4
223.759	-37.72
223.977	83.11
224.195	165.03
224.413	76.97
224.631	150.7
224.849	85.16
225.067	226.47
225.285	-0.85
225.503	56.49
225.721	-13.14
225.939	27.82
226.157	68.78
226.375	294.05
226.592	13.48
226.81	42.15
227.028	66.73
227.246	140.46
227.464	105.64
227.682	154.79
227.9	81.07
228.117	58.54
228.335	179.37
228.553	64.68
228.771	-35.67
228.989	140.46
229.206	93.35
229.424	7.34
229.642	-15.19
229.86	-27.48
230.077	146.6
230.295	81.07
230.513	122.02
230.731	130.22
230.948	224.42
231.166	138.41
231.384	5.29
231.601	-19.29
231.819	273.57
232.037	-4.95
232.254	-47.96
232.472	33.96
232.689	33.96
232.907	126.12
233.125	-2.9
233.342	-27.48
233.56	1.19
233.777	19.63
233.995	81.07
234.213	95.4
234.43	122.02
234.648	15.53
234.865	-7
235.083	48.3
235.3	103.59
235.518	99.5
235.735	130.22
235.953	91.31
236.17	11.43
236.388	85.16
236.605	97.45
236.822	122.02
237.04	146.6
237.257	76.97
237.475	-7
237.692	31.91
237.909	107.69
238.127	107.69
238.344	93.35
238.562	3.24
238.779	-54.1
238.996	-43.86
239.214	158.89
239.431	81.07
239.648	-17.24
239.865	167.08
240.083	136.36
240.3	21.67
240.517	58.54
240.735	44.2
240.952	156.84
241.169	54.44
241.386	150.7
241.603	15.53
241.821	36.01
242.038	60.59
242.255	74.92
242.472	-17.24
242.689	72.87
242.907	111.78
243.124	83.11
243.341	15.53
243.558	11.43
243.775	-15.19
243.992	17.58
244.209	154.79
244.426	218.28
244.643	122.02
244.86	31.91
245.078	165.03
245.295	89.26
245.512	25.77
245.729	27.82
245.946	103.59
246.163	29.87
246.38	44.2
246.597	46.25
246.814	91.31
247.031	48.3
247.248	113.83
247.464	165.03
247.681	25.77
247.898	58.54
248.115	89.26
248.332	44.2
248.549	74.92
248.766	142.5
248.983	89.26
249.2	111.78
249.417	208.04
249.633	-21.33
249.85	85.16
250.067	-76.63
250.284	58.54
250.501	138.41
250.717	126.12
250.934	44.2
251.151	-39.76
251.368	36.01
251.585	103.59
251.801	72.87
252.018	-50
252.235	76.97
252.451	-4.95
252.668	23.72
252.885	183.46
253.102	97.45
253.318	97.45
253.535	46.25
253.752	27.82
253.968	33.96
254.185	-11.09
254.401	79.02
254.618	109.74
254.835	-47.96
255.051	95.4
255.268	97.45
255.484	64.68
255.701	-19.29
255.917	62.63
256.134	42.15
256.351	130.22
256.567	-50
256.784	25.77
257	23.72
257.217	101.55
257.433	138.41
257.65	54.44
257.866	134.31
258.082	-37.72
258.299	9.39
258.515	132.26
258.732	68.78
258.948	-54.1
259.165	56.49
259.381	33.96
259.597	169.13
259.814	76.97
260.03	-39.76
260.246	9.39
260.463	205.99
260.679	148.65
260.895	111.78
261.112	46.25
261.328	79.02
261.544	-25.43
261.761	193.7
261.977	11.43
262.193	25.77
262.409	138.41
262.626	38.06
262.842	79.02
263.058	-54.1
263.274	66.73
263.49	74.92
263.707	115.88
263.923	111.78
264.139	-107.35
264.355	17.58
264.571	132.26
264.787	87.21
265.004	64.68
265.22	50.35
265.436	-70.48
265.652	-4.95
265.868	74.92
266.084	25.77
266.3	64.68
266.516	-4.95
266.732	95.4
266.948	105.64
267.164	-2.9
267.38	128.17
267.596	25.77
267.812	210.09
268.028	130.22
268.244	29.87
268.46	79.02
268.676	93.35
268.892	109.74
269.108	-13.14
269.324	11.43
269.54	-37.72
269.756	154.79
269.972	-21.33
270.188	56.49
270.403	17.58
270.619	13.48
270.835	93.35
271.051	126.12
271.267	17.58
271.483	27.82
271.698	66.73
271.914	74.92
272.13	19.63
272.346	62.63
272.562	101.55
272.777	113.83
272.993	109.74
273.209	-15.19
273.425	87.21
273.64	1.19
273.856	81.07
274.072	-64.34
274.287	31.91
274.503	128.17
274.719	52.39
274.934	1.19
275.15	-58.2
275.366	91.31
275.581	-86.87
275.797	27.82
276.012	11.43
276.228	48.3
276.444	113.83
276.659	167.08
276.875	-15.19
277.09	33.96
277.306	52.39
277.521	179.37
277.737	66.73
277.952	101.55
278.168	27.82
278.383	101.55
278.599	60.59
278.814	97.45
279.03	54.44
279.245	181.42
279.461	11.43
279.676	97.45
279.892	19.63
280.107	27.82
280.322	15.53
280.538	68.78
280.753	29.87
280.969	83.11
281.184	99.5
281.399	142.5
281.615	56.49
281.83	101.55
282.045	-21.33
282.26	11.43
282.476	46.25
282.691	105.64
282.906	56.49
283.122	91.31
283.337	-7
283.552	124.07
283.767	-13.14
283.983	70.83
284.198	91.31
284.413	115.88
284.628	-35.67
284.843	33.96
285.058	128.17
285.274	29.87
285.489	-54.1
285.704	58.54
285.919	91.31
286.134	38.06
286.349	21.67
286.564	-29.52
286.779	175.27
286.995	-45.91
287.21	-0.85
287.425	81.07
287.64	-37.72
287.855	60.59
288.07	-88.92
288.285	89.26
288.5	115.88
288.715	95.4
288.93	119.98
289.145	-39.76
289.36	19.63
289.575	38.06
289.79	173.22
290.004	81.07
290.219	85.16
290.434	-2.9
290.649	62.63
290.864	105.64
291.079	56.49
291.294	46.25
291.509	89.26
291.724	33.96
291.938	105.64
292.153	101.55
292.368	74.92
292.583	105.64
292.798	50.35
293.012	105.64
293.227	66.73
293.442	70.83
293.657	189.61
293.871	109.74
294.086	62.63
294.301	246.95
294.516	115.88
294.73	115.88
294.945	-25.43
295.16	83.11
295.374	134.31
295.589	146.6
295.804	-19.29
296.018	56.49
296.233	136.36
296.447	76.97
296.662	27.82
296.877	109.74
297.091	79.02
297.306	66.73
297.52	17.58
297.735	72.87
297.949	38.06
298.164	81.07
298.378	-33.62
298.593	31.91
298.807	58.54
299.022	56.49
299.236	89.26
299.451	7.34
299.665	7.34
299.88	70.83
300.094	40.11
300.309	44.2
300.523	-4.95
300.737	-11.09
300.952	103.59
301.166	103.59
301.381	7.34
301.595	-45.91
301.809	87.21
302.024	62.63
302.238	-13.14
302.452	173.22
302.667	46.25
302.881	208.04
303.095	56.49
303.309	115.88
303.524	-2.9
303.738	97.45
303.952	48.3
304.166	40.11
304.381	-33.62
304.595	208.04
304.809	107.69
305.023	19.63
305.237	-2.9
305.452	31.91
305.666	117.93
305.88	44.2
306.094	138.41
306.308	74.92
306.522	58.54
306.736	52.39
306.95	40.11
307.164	76.97
307.379	54.44
307.593	142.5
307.807	175.27
308.021	167.08
308.235	68.78
308.449	-15.19
308.663	154.79
308.877	261.29
309.091	87.21
309.305	62.63
309.519	-62.29
309.733	142.5
309.947	76.97
310.161	79.02
310.374	87.21
310.588	113.83
310.802	-33.62
311.016	50.35
311.23	87.21
311.444	-70.48
311.658	-29.52
311.872	136.36
312.085	134.31
312.299	152.74
312.513	238.76
312.727	103.59
312.941	-19.29
313.154	74.92
313.368	85.16
313.582	95.4
313.796	79.02
314.009	85.16
314.223	144.55
314.437	76.97
314.651	105.64
314.864	-11.09
315.078	64.68
315.292	25.77
315.505	36.01
315.719	119.98
315.933	91.31
316.146	-11.09
316.36	38.06
316.573	152.74
316.787	140.46
317.001	54.44
317.214	-70.48
317.428	29.87
317.641	7.34
317.855	-13.14
318.068	89.26
318.282	85.16
318.495	187.56
318.709	111.78
318.922	44.2
319.136	203.94
319.349	70.83
319.563	3.24
319.776	197.8
319.99	9.39
320.203	68.78
320.417	15.53
320.63	74.92
320.843	249
321.057	113.83
321.27	89.26
321.483	87.21
321.697	111.78
321.91	31.91
322.124	87.21
322.337	154.79
322.55	58.54
322.763	101.55
322.977	17.58
323.19	36.01
323.403	36.01
323.617	103.59
323.83	169.13
324.043	-45.91
324.256	81.07
324.469	38.06
324.683	107.69
324.896	56.49
325.109	40.11
325.322	-66.39
325.535	152.74
325.748	134.31
325.962	89.26
326.175	15.53
326.388	111.78
326.601	99.5
326.814	3.24
327.027	134.31
327.24	107.69
327.453	-39.76
327.666	87.21
327.879	169.13
328.092	76.97
328.305	113.83
328.518	85.16
328.731	-4.95
328.944	-39.76
329.157	54.44
329.37	48.3
329.583	160.94
329.796	148.65
330.009	7.34
330.222	165.03
330.435	95.4
330.648	105.64
330.861	126.12
331.073	107.69
331.286	185.51
331.499	111.78
331.712	-7
331.925	83.11
332.138	72.87
332.35	134.31
332.563	107.69
332.776	103.59
332.989	-9.05
333.202	-11.09
333.414	11.43
333.627	9.39
333.84	27.82
334.053	56.49
334.265	36.01
334.478	-7
334.691	66.73
334.903	23.72
335.116	81.07
335.329	46.25
335.541	134.31
335.754	171.18
335.966	13.48
336.179	17.58
336.392	-0.85
336.604	50.35
336.817	54.44
337.029	64.68
337.242	111.78
337.454	89.26
337.667	56.49
337.88	201.9
338.092	126.12
338.305	109.74
338.517	70.83
338.729	74.92
338.942	201.9
339.154	-29.52
339.367	-15.19
339.579	33.96
339.792	38.06
340.004	132.26
340.217	85.16
340.429	58.54
340.641	70.83
340.854	-13.14
341.066	81.07
341.278	93.35
341.491	208.04
341.703	60.59
341.915	7.34
342.128	193.7
342.34	68.78
342.552	-7
342.764	111.78
342.977	-25.43
343.189	85.16
343.401	64.68
343.613	-39.76
343.826	111.78
344.038	54.44
344.25	160.94
344.462	56.49
344.674	99.5
344.886	19.63
345.099	13.48
345.311	23.72
345.523	27.82
345.735	-21.33
345.947	50.35
346.159	142.5
346.371	33.96
346.583	64.68
346.795	218.28
347.007	-25.43
347.219	124.07
347.431	87.21
347.643	109.74
347.855	62.63
348.067	136.36
348.279	-113.49
348.491	29.87
348.703	107.69
348.915	15.53
349.127	15.53
349.339	19.63
349.551	66.73
349.763	140.46
349.975	40.11
350.187	79.02
350.399	181.42
350.61	56.49
350.822	-47.96
351.034	136.36
351.246	-2.9
351.458	95.4
351.669	87.21
351.881	142.5
352.093	169.13
352.305	128.17
352.517	72.87
352.728	130.22
352.94	162.98
353.152	185.51
353.363	-54.1
353.575	115.88
353.787	101.55
353.999	36.01
354.21	177.32
354.422	33.96
354.633	13.48
354.845	25.77
355.057	42.15
355.268	154.79
355.48	171.18
355.692	-54.1
355.903	60.59
356.115	-21.33
356.326	-138.07
356.538	152.74
356.749	48.3
356.961	255.14
357.172	21.67
357.384	-17.24
357.595	259.24
357.807	-2.9
358.018	74.92
358.23	31.91
358.441	126.12
358.653	105.64
358.864	87.21
359.075	-31.57
359.287	50.35
359.498	222.38
359.709	74.92
359.921	46.25
360.132	64.68
360.344	64.68
360.555	-15.19
360.766	54.44
360.977	-4.95
361.189	191.66
361.4	83.11
361.611	150.7
361.823	97.45
362.034	33.96
362.245	-39.76
362.456	25.77
362.667	140.46
362.879	42.15
363.09	62.63
363.301	74.92
363.512	66.73
363.723	23.72
363.935	36.01
364.146	169.13
364.357	38.06
364.568	119.98
364.779	-21.33
364.99	181.42
365.201	31.91
365.412	58.54
365.623	42.15
365.834	93.35
366.045	76.97
366.256	93.35
366.467	134.31
366.678	58.54
366.889	81.07
367.1	58.54
367.311	119.98
367.522	64.68
367.733	56.49
367.944	87.21
368.155	101.55
368.366	101.55
368.577	113.83
368.788	70.83
368.999	36.01
369.209	70.83
369.42	261.29
369.631	189.61
369.842	83.11
370.053	-0.85
370.264	126.12
370.474	-7
370.685	89.26
370.896	66.73
371.107	138.41
371.317	74.92
371.528	122.02
371.739	146.6
371.95	101.55
372.16	66.73
372.371	1.19
372.582	64.68
372.792	109.74
373.003	54.44
373.214	148.65
373.424	56.49
373.635	38.06
373.846	142.5
374.056	19.63
374.267	97.45
374.477	44.2
374.688	11.43
374.898	109.74
375.109	105.64
375.319	122.02
375.53	185.51
375.74	107.69
375.951	27.82
376.161	81.07
376.372	126.12
376.582	76.97
376.793	134.31
377.003	-29.52
377.214	25.77
377.424	25.77
377.635	72.87
377.845	38.06
378.055	179.37
378.266	11.43
378.476	68.78
378.686	87.21
378.897	66.73
379.107	105.64
379.317	83.11
379.528	42.15
379.738	85.16
379.948	-7
380.158	171.18
380.369	117.93
380.579	50.35
380.789	38.06
380.999	103.59
381.21	97.45
381.42	197.8
381.63	48.3
381.84	154.79
382.05	81.07
382.261	173.22
382.471	109.74
382.681	-35.67
382.891	212.14
383.101	83.11
383.311	23.72
383.521	17.58
383.731	136.36
383.941	138.41
384.151	152.74
384.361	7.34
384.571	126.12
384.781	54.44
384.991	144.55
385.201	230.57
385.411	76.97
385.621	74.92
385.831	136.36
386.041	66.73
386.251	113.83
386.461	136.36
386.671	-4.95
386.881	150.7
387.091	48.3
387.301	93.35
387.511	115.88
387.72	76.97
387.93	171.18
388.14	-11.09
388.35	124.07
388.56	101.55
388.769	107.69
388.979	3.24
389.189	-4.95
389.399	52.39
389.609	134.31
389.818	101.55
390.028	72.87
390.238	134.31
390.447	74.92
390.657	91.31
390.867	87.21
391.076	1.19
391.286	89.26
391.496	70.83
391.705	134.31
391.915	97.45
392.125	140.46
392.334	66.73
392.544	124.07
392.753	126.12
392.963	19.63
393.172	54.44
393.382	38.06
393.591	158.89
393.801	33.96
394.01	150.7
394.22	89.26
394.429	89.26
394.639	-47.96
394.848	128.17
395.058	119.98
395.267	89.26
395.477	130.22
395.686	7.34
395.895	234.66
396.105	144.55
396.314	93.35
396.524	33.96
396.733	119.98
396.942	132.26
397.152	160.94
397.361	154.79
397.57	70.83
397.78	11.43
397.989	107.69
398.198	185.51
398.407	62.63
398.617	83.11
398.826	109.74
399.035	64.68
399.244	132.26
399.453	36.01
399.663	33.96
399.872	19.63
400.081	-19.29
400.29	162.98
400.499	-45.91
400.708	124.07
400.917	-0.85
401.127	111.78
401.336	27.82
401.545	326.82
401.754	115.88
401.963	83.11
402.172	58.54
402.381	-54.1
402.59	107.69
402.799	76.97
403.008	232.62
403.217	117.93
403.426	152.74
403.635	-62.29
403.844	48.3
404.053	23.72
404.262	58.54
404.471	238.76
404.68	122.02
404.888	21.67
405.097	115.88
405.306	109.74
405.515	193.7
405.724	17.58
405.933	113.83
406.142	111.78
406.35	126.12
406.559	74.92
406.768	19.63
406.977	230.57
407.185	81.07
407.394	85.16
407.603	-23.38
407.812	46.25
408.02	140.46
408.229	74.92
408.438	101.55
408.646	11.43
408.855	117.93
409.064	99.5
409.272	-9.05
409.481	119.98
409.69	66.73
409.898	58.54
410.107	31.91
410.315	111.78
410.524	42.15
410.733	97.45
410.941	101.55
411.15	105.64
411.358	87.21
411.567	136.36
411.775	60.59
411.984	70.83
412.192	136.36
412.401	44.2
412.609	263.33
412.818	162.98
413.026	122.02
413.234	44.2
413.443	142.5
413.651	97.45
413.86	132.26
414.068	214.18
414.276	218.28
414.485	130.22
414.693	162.98
414.901	246.95
415.11	48.3
415.318	74.92
415.526	111.78
415.734	126.12
415.943	7.34
416.151	95.4
416.359	42.15
416.567	126.12
416.776	93.35
416.984	132.26
417.192	277.67
417.4	87.21
417.608	66.73
417.817	-29.52
418.025	128.17
418.233	162.98
418.441	56.49
418.649	17.58
418.857	142.5
419.065	111.78
419.273	25.77
419.481	83.11
419.689	64.68
419.897	13.48
420.105	-78.68
420.313	105.64
420.521	175.27
420.729	134.31
420.937	56.49
421.145	-2.9
421.353	103.59
421.561	269.48
421.769	119.98
421.977	66.73
422.185	79.02
422.393	66.73
422.601	144.55
422.809	76.97
423.017	97.45
423.224	58.54
423.432	109.74
423.64	58.54
423.848	199.85
424.056	27.82
424.263	72.87
424.471	-41.81
424.679	208.04
424.887	21.67
425.094	175.27
425.302	111.78
425.51	60.59
425.718	134.31
425.925	105.64
426.133	97.45
426.341	220.33
426.548	91.31
426.756	66.73
426.964	173.22
427.171	119.98
427.379	183.46
427.586	103.59
427.794	165.03
428.001	261.29
428.209	134.31
428.417	263.33
428.624	138.41
428.832	181.42
429.039	208.04
429.247	107.69
429.454	154.79
429.662	324.77
429.869	165.03
430.076	144.55
430.284	214.18
430.491	273.57
430.699	181.42
430.906	220.33
431.114	193.7
431.321	132.26
431.528	183.46
431.736	183.46
431.943	228.52
432.15	214.18
432.358	205.99
432.565	255.14
432.772	66.73
432.979	249
433.187	156.84
433.394	253.09
433.601	238.76
433.808	242.85
434.016	283.81
434.223	304.29
434.43	320.68
434.637	251.05
434.844	316.58
435.052	328.87
435.259	279.72
435.466	298.15
435.673	298.15
435.88	343.21
436.087	378.02
436.294	371.88
436.501	337.06
436.708	351.4
436.915	343.21
437.122	451.75
437.329	273.57
437.537	392.36
437.743	433.32
437.95	507.04
438.157	433.32
438.364	429.22
438.571	394.4
438.778	486.56
438.985	607.39
439.192	548
439.399	502.95
439.606	609.44
439.813	593.06
440.02	625.83
440.227	779.42
440.433	664.74
440.64	601.25
440.847	674.98
441.054	687.26
441.261	844.96
441.467	760.99
441.674	797.85
441.881	773.28
442.088	760.99
442.294	842.91
442.501	973.98
442.708	998.56
442.914	912.54
443.121	920.73
443.328	1000.6
443.534	1084.57
443.741	1014.94
443.948	1019.04
444.154	1223.83
444.361	1281.18
444.568	1143.96
444.774	1248.41
444.981	1139.87
445.187	1311.89
445.394	1373.33
445.6	1250.46
445.807	1574.03
446.013	1522.84
446.22	1442.96
446.426	1672.34
446.633	1766.54
446.839	1922.19
447.046	1660.05
447.252	1840.27
447.459	1928.33
447.665	1879.18
447.871	2188.43
448.078	2378.89
448.284	2118.79
448.491	2301.06
448.697	2409.61
448.903	2618.5
449.11	2440.33
449.316	2571.4
449.522	2763.9
449.728	2923.65
449.935	2886.78
450.141	2911.36
450.347	3179.64
450.553	3187.83
450.76	3165.31
450.966	3429.49
451.172	3535.99
451.378	3669.11
451.584	3837.04
451.791	3904.62
451.997	4058.22
452.203	4238.44
452.409	4543.59
452.615	4607.08
452.821	4457.57
453.027	4510.82
453.233	5137.5
453.44	4947.04
453.646	5305.43
453.852	5313.63
454.058	5377.11
454.264	5743.7
454.47	6116.43
454.676	5952.59
454.882	6988.86
455.088	6542.41
455.294	6900.8
455.5	7203.9
455.705	7816.24
455.911	7844.91
456.117	7916.59
456.323	8238.12
456.529	8291.37
456.735	9047.07
456.941	9327.64
457.147	9583.64
457.352	9890.84
457.558	10032.15
457.764	10820.61
457.97	10904.58
458.176	11488.25
458.381	12084.21
458.587	12413.93
458.793	12860.39
458.999	12774.38
459.204	14351.31
459.41	15043.53
459.616	14617.55
459.821	15532.99
460.027	16262.07
460.233	16974.76
460.438	17193.89
460.644	18215.83
460.85	18295.7
461.055	19037.06
461.261	20077.43
461.466	19602.3
461.672	19979.13
461.878	22276.95
462.083	22035.29
462.289	22637.39
462.494	23270.22
462.7	23587.65
462.905	23792.45
463.111	25699.11
463.316	27056.91
463.522	27323.15
463.727	28545.78
463.932	29594.34
464.138	30329.56
464.343	31597.26
464.549	31763.14
464.754	33669.8
464.959	35168.91
465.165	35439.25
465.37	35326.61
465.575	35484.3
465.781	37626.48
465.986	38607.45
466.191	38472.29
466.397	38416.99
466.602	37745.26
466.807	39799.37
467.012	40510.02
467.218	41138.74
467.423	40907.32
467.628	42101.29
467.833	44624.39
468.038	43432.47
468.244	42678.82
468.449	44995.07
468.654	44208.65
468.859	43938.32
469.064	44003.85
469.269	43063.83
469.474	43289.11
469.679	44524.04
469.885	42809.89
470.09	44173.83
470.295	44071.43
470.5	42791.45
470.705	43395.6
470.91	42119.72
471.115	41587.25
471.32	42189.35
471.525	41896.49
471.73	40952.38
471.935	40413.76
472.139	38955.61
472.344	38976.09
472.549	38484.58
472.754	37763.69
472.959	37300.85
473.164	35844.74
473.369	35304.08
473.574	36272.77
473.778	35242.64
473.983	35027.6
474.188	34480.8
474.393	33065.65
474.598	32592.57
474.802	31824.58
475.007	31810.25
475.212	31257.29
475.417	30061.28
475.621	29793
475.826	29182.7
476.031	28732.15
476.235	27878.15
476.44	28369.66
476.645	27605.77
476.849	26929.94
477.054	26735.38
477.259	26145.56
477.463	26178.33
477.668	24978.22
477.872	25283.37
478.077	24691.51
478.282	23806.78
478.486	24005.44
478.691	23761.73
478.895	23452.48
479.1	23034.7
479.304	23372.61
479.509	22313.81
479.713	22772.56
479.918	21855.07
480.122	21640.03
480.326	21939.04
480.531	21603.17
480.735	21441.38
480.94	21199.72
481.144	22033.24
481.348	20665.2
481.553	20931.44
481.757	20296.56
481.961	20212.6
482.166	20628.34
482.37	20226.93
482.574	20083.58
482.778	19895.16
482.983	19948.41
483.187	19573.63
483.391	19311.49
483.595	19172.23
483.8	18858.89
484.004	19006.34
484.208	18914.19
484.412	18611.09
484.616	18363.28
484.821	18582.42
485.025	17806.23
485.229	18064.28
485.433	17660.83
485.637	17525.66
485.841	17298.34
486.045	16905.13
486.249	16833.45
486.453	16622.51
486.657	16180.15
486.861	16112.56
487.065	15733.69
487.269	15432.64
487.473	15051.72
487.677	15207.36
487.881	15186.88
488.085	14592.97
488.289	14400.46
488.493	14058.45
488.697	13962.2
488.901	13681.63
489.105	13640.67
489.309	13063.14
489.512	13145.06
489.716	12827.62
489.92	12741.61
490.124	12098.55
490.328	12159.99
490.531	11838.45
490.735	11934.71
490.939	11412.48
491.143	11375.61
491.346	11228.16
491.55	11127.81
491.754	10945.54
491.958	10619.91
492.161	10458.12
492.365	10361.87
492.569	10159.12
492.772	9939.99
492.976	9929.75
493.18	9782.29
493.383	9776.15
493.587	9591.83
493.79	9446.43
493.994	9391.13
494.197	9143.33
494.401	9151.52
494.605	9128.99
494.808	9114.66
495.012	8934.43
495.215	8836.13
495.419	8895.52
495.622	8647.72
495.825	8817.7
496.029	8385.58
496.232	8842.28
496.436	8533.03
496.639	8909.86
496.843	8483.88
497.046	8649.77
497.249	8670.25
497.453	8610.86
497.656	8506.41
497.859	8727.59
498.063	8670.25
498.266	8516.65
498.469	8547.37
498.673	8514.6
498.876	8668.2
499.079	8647.72
499.282	8688.68
499.485	9063.46
499.689	8858.66
499.892	9028.64
500.095	9006.11
500.298	8881.19
500.501	8997.92
500.705	9280.54
500.908	9311.26
501.111	9376.8
501.314	9636.89
501.517	9700.37
501.72	9573.4
501.923	9640.98
502.126	9806.87
502.329	10054.67
502.532	10238.99
502.735	10105.87
502.938	10320.91
503.141	10525.71
503.344	10411.02
503.547	10683.4
503.75	10609.67
503.953	10978.31
504.156	11236.35
504.359	11211.78
504.562	11303.93
504.765	11658.23
504.968	11928.56
505.17	12076.02
505.373	12127.22
505.576	12426.22
505.779	12561.39
505.982	12510.19
506.185	12952.55
506.387	13161.44
506.59	13358.05
506.793	13726.68
506.996	14011.35
507.198	14273.49
507.401	14341.07
507.604	14709.71
507.807	15190.98
508.009	15416.26
508.212	15475.65
508.415	15831.99
508.617	16262.07
508.82	16473.01
509.022	16802.73
509.225	17486.75
509.428	17507.23
509.63	17941.4
509.833	18152.34
510.035	19035.02
510.238	19180.42
510.44	19483.52
510.643	20188.02
510.845	20415.35
511.048	20556.66
511.25	21074.79
511.453	21629.79
511.655	22604.63
511.858	22821.71
512.06	23470.92
512.262	24003.39
512.465	23935.81
512.667	24910.64
512.87	25264.94
513.072	25733.92
513.274	26352.41
513.477	27157.26
513.679	27224.84
513.881	28078.85
514.084	28848.88
514.286	29348.59
514.488	30005.98
514.69	31306.44
514.893	31587.02
515.095	31935.17
515.297	32692.92
515.499	33366.7
515.701	34087.59
515.904	35154.58
516.106	35719.82
516.308	36297.34
516.51	37171.83
516.712	37409.39
516.914	38423.14
517.116	39047.77
517.318	39854.67
517.52	40723.01
517.722	40929.85
517.925	42148.39
518.127	43315.73
518.329	43594.26
518.531	43651.6
518.733	44921.34
518.935	45765.1
519.136	46277.1
519.338	47358.42
519.54	47776.21
519.742	48538.05
519.944	48837.06
520.146	49996.21
520.348	50012.59
520.55	50954.66
520.752	51493.27
520.954	52459.91
521.155	52691.33
521.357	53389.69
521.559	53811.57
521.761	55005.54
521.963	54983.01
522.164	55540.06
522.366	55904.6
522.568	56590.67
522.77	56838.47
522.971	57977.14
523.173	57647.42
523.375	58192.18
523.576	58059.06
523.778	58413.36
523.98	59189.54
524.181	59355.42
524.383	59107.62
524.584	59859.23
524.786	59623.71
524.988	59666.72
525.189	60297.49
525.391	60152.08
525.592	60156.18
525.794	60330.26
525.995	60104.98
526.197	59891.99
526.398	59965.72
526.6	59891.99
526.801	59791.64
527.003	59599.13
527.204	59560.22
527.406	59765.02
527.607	59091.24
527.808	58947.88
528.01	58243.38
528.211	58417.46
528.412	58933.54
528.614	57958.71
528.815	57143.62
529.016	57340.22
529.218	56738.12
529.419	56658.25
529.62	55421.28
529.822	55038.31
530.023	54544.75
530.224	54518.12
530.425	53895.54
530.626	53086.59
530.828	52664.71
531.029	52883.84
531.23	51634.58
531.431	50844.07
531.632	50760.1
531.833	50500.01
532.035	49637.81
532.236	49162.68
532.437	48507.33
532.638	47776.21
532.839	47413.72
533.04	47020.51
533.241	46053.87
533.442	46393.83
533.643	45408.76
533.844	44569.09
534.045	44296.71
534.246	43237.91
534.447	43239.96
534.648	42076.71
534.849	42099.24
535.05	41294.39
535.251	40614.46
535.451	39873.1
535.652	39594.57
535.853	38908.5
536.054	38685.28
536.255	38416.99
536.456	37067.38
536.657	37595.76
536.857	36747.9
537.058	35902.09
537.259	36020.87
537.46	35457.68
537.66	34859.67
537.861	34337.44
538.062	34232.99
538.263	33391.28
538.463	32934.58
538.664	32641.72
538.865	32404.16
539.065	32010.95
539.266	31439.56
539.466	31251.15
539.667	30517.98
539.868	30542.55
540.068	29899.49
540.269	29805.28
540.469	29545.19
540.67	29125.36
540.87	28893.94
541.071	28457.72
541.271	28289.79
541.472	27880.19
541.672	27519.75
541.873	27276.04
542.073	26649.36
542.274	26514.2
542.474	26166.04
542.675	25774.88
542.875	25508.65
543.075	25013.04
543.276	25119.53
543.476	25189.16
543.676	24476.47
543.877	24746.8
544.077	24132.41
544.277	23739.2
544.478	23587.65
544.678	23479.11
544.878	23042.89
545.078	22766.42
545.279	22342.49
545.479	22264.66
545.679	22020.95
545.879	21730.14
546.079	21627.74
546.28	21023.59
546.48	20851.56
546.68	20929.39
546.88	20525.94
547.08	20497.27
547.28	20102.01
547.48	19479.43
547.68	19647.36
547.88	19155.85
548.081	19110.79
548.281	18594.7
548.481	18561.94
548.681	18555.79
548.881	18205.59
549.081	17988.5
549.28	17630.11
549.48	17376.16
549.68	17197.99
549.88	17253.28
550.08	16751.53
550.28	16759.72
550.48	16356.27
550.68	16288.69
550.88	16020.41
551.08	15645.63
551.279	15485.89
551.479	15111.11
551.679	15258.56
551.879	14631.88
552.079	14592.97
552.278	14367.7
552.478	14390.22
552.678	13919.19
552.878	13779.93
553.077	13687.77
553.277	12938.21
553.477	13276.13
553.676	12934.12
553.876	12690.41
554.076	12729.32
554.275	12418.03
554.475	12096.5
554.674	11971.57
554.874	11686.9
555.074	11332.61
555.273	11521.02
555.473	11236.35
555.672	10951.68
555.872	11064.32
556.071	11009.03
556.271	10675.21
556.47	10325.01
556.67	10193.94
556.869	9917.46
557.068	9794.58
557.268	9688.09
557.467	9468.95
557.667	9409.56
557.866	9128.99
558.065	9059.36
558.265	8885.28
558.464	8756.26
558.663	8836.13
558.863	8496.17
559.062	8526.89
559.261	8277.04
559.461	8274.99
559.66	8090.67
559.859	7806
560.058	7695.41
560.258	7582.77
560.457	7371.83
560.656	7568.44
560.855	7089.21
561.054	7181.37
561.253	7148.61
561.453	6857.79
561.652	6822.98
561.851	6634.57
562.05	6530.12
562.249	6499.4
562.448	6622.28
562.647	6243.4
562.846	6425.67
563.045	6192.2
563.244	6149.2
563.443	5968.98
563.642	5784.66
563.841	5735.51
564.04	5637.2
564.239	5717.08
564.438	5536.85
564.637	5438.55
564.836	5575.77
565.035	5108.83
565.234	5248.09
565.432	5129.31
565.631	5114.97
565.83	5006.43
566.029	5008.48
566.228	4934.75
566.427	4899.94
566.625	4719.71
566.824	4672.61
567.023	4580.45
567.222	4627.56
567.42	4580.45
567.619	4349.03
567.818	4324.46
568.016	4351.08
568.215	4254.83
568.414	4074.6
568.612	4080.75
568.811	4099.18
569.01	3966.06
569.208	3916.91
569.407	3814.51
569.605	3867.76
569.804	3748.98
570.002	3740.79
570.201	3691.63
570.4	3574.9
570.598	3507.32
570.797	3497.08
570.995	3421.3
571.193	3323
571.392	3320.95
571.59	3196.03
571.789	3191.93
571.987	3378.3
572.186	3267.7
572.384	3036.28
572.582	3079.29
572.781	2999.42
572.979	2884.73
573.177	2880.64
573.376	2905.21
573.574	2886.78
573.772	2694.27
573.971	2649.22
574.169	2552.96
574.367	2638.98
574.565	2649.22
574.763	2671.75
574.962	2509.96
575.16	2514.05
575.358	2475.14
575.556	2370.69
575.754	2364.55
575.952	2440.33
576.151	2245.77
576.349	2380.93
576.547	2235.53
576.745	2167.95
576.943	2305.16
577.141	2159.75
577.339	2088.07
577.537	1985.68
577.735	2100.36
577.933	2081.93
578.131	1975.44
578.329	2067.6
578.527	1987.72
578.725	1914
578.923	1782.93
579.121	1846.41
579.319	1684.62
579.516	1682.58
579.714	1985.68
579.912	1690.77
580.11	1633.43
580.308	1692.82
580.506	1610.9
580.704	1506.45
580.901	1547.41
581.099	1748.11
581.297	1496.21
581.495	1555.6
581.692	1449.11
581.89	1612.95
582.088	1471.64
582.285	1440.92
582.483	1459.35
582.681	1385.62
582.878	1406.1
583.076	1342.61
583.274	1451.16
583.471	1442.96
583.669	1330.33
583.866	1197.21
584.064	1197.21
584.262	1154.2
584.459	1088.67
584.657	1285.27
584.854	1402.01
585.052	1207.45
585.249	1209.5
585.447	1205.4
585.644	1035.42
585.841	1268.89
586.039	1066.14
586.236	1158.3
586.434	1059.99
586.631	933.02
586.828	1117.34
587.026	1088.67
587.223	924.83
587.42	996.51
587.618	1096.86
587.815	1166.49
588.012	998.56
588.21	844.96
588.407	945.31
588.604	939.16
588.801	877.73
588.999	973.98
589.196	1010.84
589.393	937.12
589.59	906.4
589.787	978.08
589.984	918.68
590.182	912.54
590.379	838.81
590.576	853.15
590.773	855.2
590.97	804
591.167	883.87
591.364	867.49
591.561	906.4
591.758	965.79
591.955	969.88
592.152	851.1
592.349	760.99
592.546	877.73
592.743	804
592.94	914.59
593.137	859.29
593.334	861.34
593.531	971.93
593.727	849.05
593.924	804
594.121	834.72
594.318	765.09
594.515	953.5
594.712	980.12
594.908	1012.89
595.105	797.85
595.302	906.4
595.499	828.57
595.696	1092.76
595.892	924.83
596.089	1004.7
596.286	1064.09
596.482	1062.04
596.679	1008.8
596.876	1004.7
597.072	1207.45
597.269	1064.09
597.466	1227.93
597.662	1199.26
597.859	1160.34
598.055	1240.22
598.252	1340.57
598.448	1277.08
598.645	1393.81
598.841	1348.76
599.038	1610.9
599.234	1567.89
599.431	1586.32
599.627	1674.39
599.824	1647.76
600.02	1660.05
600.217	1782.93
600.413	1975.44
600.609	1862.8
600.806	2311.3
601.002	2172.04
601.198	2018.44
601.395	2327.69
601.591	2565.25
601.787	2503.81
601.984	2610.31
602.18	2571.4
602.376	2858.11
602.572	2899.07
602.769	3103.87
602.965	3169.4
603.161	3255.42
603.357	3357.82
603.553	3415.16
603.75	3447.93
603.946	3656.82
604.142	3755.12
604.338	3927.15
604.534	3955.82
604.73	4080.75
604.926	4220.01
605.122	4416.62
605.318	4504.68
605.514	4711.52
605.71	4590.69
605.906	4822.11
606.102	5012.57
606.298	5305.43
606.494	5477.46
606.69	5573.72
606.886	5567.57
607.082	5729.36
607.278	6050.89
607.474	6104.14
607.67	6401.1
607.866	6513.74
608.062	6769.73
608.257	6790.21
608.453	6921.28
608.649	7187.52
608.845	7308.35
609.041	7513.14
609.236	7701.56
609.432	8139.82
609.628	8471.59
609.824	8573.99
610.019	8555.56
610.215	8999.97
610.411	9376.8
610.606	9567.26
610.802	9640.98
610.998	9937.94
611.193	10398.73
611.389	10310.67
611.584	10884.1
611.78	10865.67
611.976	11228.16
612.171	11858.93
612.367	11856.89
612.562	12237.81
612.758	12305.39
612.953	12463.08
613.149	13239.26
613.344	13452.25
613.539	14246.87
613.735	14158.8
613.93	14543.82
614.126	15092.68
614.321	15596.48
614.517	15795.13
614.712	16159.67
614.907	16409.52
615.103	17177.51
615.298	17277.86
615.493	17970.07
615.688	18295.7
615.884	19078.02
616.079	19094.41
616.274	20009.85
616.47	20466.55
616.665	20591.47
616.86	21361.51
617.055	21853.02
617.25	22479.7
617.445	23028.56
617.641	23089.99
617.836	24281.91
618.031	24347.45
618.226	25199.4
618.421	25955.1
618.616	26376.98
618.811	26798.87
619.006	28011.26
619.201	28185.34
619.396	29004.53
619.591	29113.07
619.786	30114.53
619.981	30450.39
620.176	31273.68
620.371	31611.59
620.566	32586.43
620.761	33442.48
620.956	34329.25
621.151	34169.51
621.346	35504.78
621.541	35644.04
621.735	37126.77
621.93	37220.98
622.125	38074.98
622.32	38402.66
622.515	39139.93
622.709	39473.74
622.904	40723.01
623.099	41151.03
623.294	42144.3
623.488	42240.55
623.683	43299.35
623.878	43602.45
624.072	44560.9
624.267	45292.02
624.462	45920.75
624.656	46498.28
624.851	47489.49
625.046	47505.88
625.24	48495.05
625.435	48914.88
625.629	49979.82
625.824	50434.47
626.018	51157.41
626.213	50839.97
626.407	52124.05
626.602	52095.38
626.796	53021.06
626.991	53363.07
627.185	54110.58
627.38	54004.08
627.574	53993.84
627.768	54212.98
627.963	54296.94
628.157	54600.04
628.352	55230.82
628.546	54505.83
628.74	54888.81
628.935	54628.71
629.129	54767.97
629.323	53993.84
629.517	54276.46
629.712	53780.85
629.906	53141.89
630.1	52492.68
630.294	52728.2
630.489	50962.85
630.683	51556.76
630.877	49559.99
631.071	48980.42
631.265	48153.04
631.459	47501.78
631.653	45971.95
631.848	44958.2
632.042	44071.43
632.236	42717.73
632.43	41650.74
632.624	40714.81
632.818	39207.51
633.012	38351.46
633.206	36948.6
633.4	36008.58
633.594	34298.53
633.788	33338.03
633.982	32166.59
634.176	31216.33
634.369	29782.76
634.563	28496.63
634.757	27544.33
634.951	26624.79
635.145	25580.32
635.339	24449.85
635.533	23546.69
635.726	22840.14
635.92	21603.17
636.114	20812.65
636.308	19938.17
636.501	19094.41
636.695	18320.28
636.889	17337.25
637.083	16700.33
637.276	15922.1
637.47	15365.06
637.664	14826.44
637.857	14308.3
638.051	13745.11
638.244	13208.55
638.438	12549.1
638.632	12420.08
638.825	11654.14
639.019	11379.71
639.212	10648.58
639.406	10206.22
639.599	10040.34
639.793	9843.73
639.986	9231.39
640.18	9012.26
640.373	8492.07
640.567	8193.07
640.76	7947.31
640.954	7625.78
641.147	7244.86
641.34	6956.1
641.534	6765.64
641.727	6675.52
641.92	6198.35
642.114	6159.44
642.307	5842
642.5	5583.96
642.694	5233.75
642.887	5123.16
643.08	5203.04
643.273	4856.93
643.467	4504.68
643.66	4328.55
643.853	4291.69
644.046	4052.08
644.239	4068.46
644.432	3726.45
644.626	3433.59
644.819	3531.89
645.012	3329.14
645.205	3388.53
645.398	3169.4
645.591	2976.89
645.784	2894.97
645.977	2702.47
646.17	2677.89
646.363	2593.92
646.556	2444.42
646.749	2307.21
646.942	2169.99
647.135	2174.09
647.328	2100.36
647.521	2069.64
647.714	2026.64
647.907	1893.52
648.099	1922.19
648.292	1899.66
648.485	1711.25
648.678	1580.18
648.871	1633.43
649.064	1617.04
649.256	1457.3
649.449	1387.67
649.642	1268.89
649.835	1338.52
650.027	1250.46
650.22	1232.02
650.413	1168.54
650.605	1258.65
650.798	1066.14
650.991	1043.61
651.183	1047.71
651.376	1080.47
651.568	986.27
651.761	961.69
651.954	1031.32
652.146	836.77
652.339	947.36
652.531	842.91
652.724	724.13
652.916	752.8
653.109	634.02
653.301	914.59
653.494	744.61
653.686	654.5
653.879	781.47
654.071	734.37
654.263	562.34
654.456	677.02
654.648	660.64
654.84	660.64
655.033	507.04
655.225	656.54
655.417	482.47
655.61	715.94
655.802	605.35
655.994	722.08
656.186	478.37
656.379	572.58
656.571	402.6
656.763	396.45
656.955	423.08
657.148	437.41
657.34	556.19
657.532	447.65
657.724	378.02
657.916	433.32
658.108	380.07
658.3	324.77
658.492	390.31
658.684	330.92
658.876	466.08
659.068	310.44
659.26	255.14
659.452	310.44
659.644	347.3
659.836	441.51
660.028	414.88
660.22	269.48
660.412	292.01
660.604	232.62
660.796	431.27
660.988	488.61
661.18	363.69
661.372	353.45
661.563	246.95
661.755	222.38
661.947	150.7
662.139	240.81
662.331	330.92
662.522	310.44
662.714	197.8
662.906	177.32
663.097	238.76
663.289	226.47
663.481	113.83
663.673	253.09
663.864	335.01
664.056	242.85
664.247	115.88
664.439	353.45
664.631	228.52
664.822	298.15
665.014	177.32
665.205	79.02
665.397	199.85
665.588	128.17
665.78	263.33
665.971	335.01
666.163	205.99
666.354	205.99
666.546	66.73
666.737	119.98
666.929	126.12
667.12	111.78
667.311	148.65
667.503	171.18
667.694	189.61
667.885	218.28
668.077	152.74
668.268	103.59
668.459	171.18
668.651	246.95
668.842	134.31
669.033	105.64
669.224	56.49
669.416	326.82
669.607	132.26
669.798	89.26
669.989	292.01
670.18	124.07
670.371	238.76
670.563	85.16
670.754	195.75
670.945	208.04
671.136	203.94
671.327	93.35
671.518	281.77
671.709	306.34
671.9	271.53
672.091	251.05
672.282	117.93
672.473	175.27
672.664	132.26
672.855	191.66
673.046	169.13
673.237	259.24
673.428	175.27
673.619	193.7
673.809	93.35
674	232.62
674.191	242.85
674.382	117.93
674.573	195.75
674.764	181.42
674.954	302.25
675.145	99.5
675.336	167.08
675.527	124.07
675.717	113.83
675.908	115.88
676.099	160.94
676.289	79.02
676.48	23.72
676.671	128.17
676.861	140.46
677.052	160.94
677.243	138.41
677.433	126.12
677.624	236.71
677.814	210.09
678.005	181.42
678.195	273.57
678.386	97.45
678.576	128.17
678.767	99.5
678.957	179.37
679.148	230.57
679.338	242.85
679.529	171.18
679.719	173.22
679.909	277.67
680.1	242.85
680.29	218.28
680.481	70.83
680.671	216.23
680.861	218.28
681.052	173.22
681.242	167.08
681.432	269.48
681.622	128.17
681.813	68.78
682.003	238.76
682.193	97.45
682.383	242.85
682.573	158.89
682.764	140.46
682.954	150.7
683.144	289.96
683.334	183.46
683.524	144.55
683.714	210.09
683.904	267.43
684.094	167.08
684.284	179.37
684.474	253.09
684.664	294.05
684.854	259.24
685.044	246.95
685.234	195.75
685.424	232.62
685.614	236.71
685.804	365.73
685.994	259.24
686.184	214.18
686.374	212.14
686.564	173.22
686.753	212.14
686.943	191.66
687.133	232.62
687.323	244.9
687.513	193.7
687.702	154.79
687.892	203.94
688.082	281.77
688.272	289.96
688.461	193.7
688.651	316.58
688.841	318.63
689.03	195.75
689.22	261.29
689.41	285.86
689.599	265.38
689.789	197.8
689.979	339.11
690.168	265.38
690.358	294.05
690.547	249
690.737	228.52
690.926	246.95
691.116	269.48
691.305	279.72
691.495	253.09
691.684	162.98
691.874	199.85
692.063	222.38
692.252	294.05
692.442	316.58
692.631	169.13
692.82	203.94
693.01	275.62
693.199	212.14
693.388	320.68
693.578	263.33
693.767	232.62
693.956	234.66
694.146	257.19
694.335	197.8
694.524	185.51
694.713	294.05
694.902	169.13
695.092	210.09
695.281	244.9
695.47	175.27
695.659	216.23
695.848	146.6
696.037	173.22
696.226	332.97
696.415	289.96
696.604	337.06
696.793	294.05
696.982	212.14
697.171	349.35
697.36	228.52
697.549	232.62
697.738	126.12
697.927	214.18
698.116	185.51
698.305	205.99
698.494	257.19
698.683	183.46
698.872	394.4
699.061	220.33
699.25	224.42
699.438	224.42
699.627	154.79
699.816	314.53
700.005	42.15
700.193	148.65
700.382	228.52
700.571	289.96
700.76	214.18
700.948	298.15
701.137	242.85
701.326	380.07
701.514	95.4
701.703	271.53
701.892	273.57
702.08	371.88
702.269	203.94
702.457	187.56
702.646	277.67
702.834	191.66
703.023	310.44
703.212	269.48
703.4	203.94
703.589	201.9
703.777	220.33
703.965	134.31
704.154	177.32
704.342	136.36
704.531	205.99
704.719	199.85
704.907	326.82
705.096	142.5
705.284	179.37
705.472	171.18
705.661	148.65
705.849	339.11
706.037	269.48
706.226	267.43
706.414	267.43
706.602	191.66
706.79	271.53
706.979	83.11
707.167	122.02
707.355	54.44
707.543	273.57
707.731	242.85
707.919	261.29
708.107	220.33
708.296	89.26
708.484	162.98
708.672	242.85
708.86	197.8
709.048	238.76
709.236	169.13
709.424	296.1
709.612	271.53
709.8	158.89
709.988	165.03
710.176	300.2
710.364	304.29
710.551	187.56
710.739	267.43
710.927	216.23
711.115	253.09
711.303	253.09
711.491	392.36
711.679	132.26
711.866	322.73
712.054	212.14
712.242	261.29
712.43	332.97
712.617	251.05
712.805	322.73
712.993	205.99
713.181	210.09
713.368	355.49
713.556	183.46
713.744	201.9
713.931	392.36
714.119	310.44
714.306	199.85
714.494	181.42
714.682	220.33
714.869	109.74
715.057	246.95
715.244	105.64
715.432	326.82
715.619	148.65
715.807	273.57
715.994	220.33
716.182	187.56
716.369	322.73
716.556	283.81
716.744	107.69
716.931	187.56
717.119	283.81
717.306	238.76
717.493	285.86
717.681	177.32
717.868	181.42
718.055	285.86
718.242	296.1
718.43	249
718.617	304.29
718.804	148.65
718.991	310.44
719.179	294.05
719.366	300.2
719.553	228.52
719.74	285.86
719.927	232.62
720.114	312.49
720.301	216.23
720.488	177.32
720.676	175.27
720.863	363.69
721.05	406.69
721.237	335.01
721.424	253.09
721.611	246.95
721.798	212.14
721.985	234.66
722.172	179.37
722.358	181.42
722.545	431.27
722.732	279.72
722.919	292.01
723.106	308.39
723.293	205.99
723.48	289.96
723.667	224.42
723.853	298.15
724.04	296.1
724.227	318.63
724.414	236.71
724.6	279.72
724.787	404.64
724.974	392.36
725.161	353.45
725.347	197.8
725.534	302.25
725.72	230.57
725.907	335.01
726.094	330.92
726.28	281.77
726.467	257.19
726.653	189.61
726.84	380.07
727.027	330.92
727.213	322.73
727.4	335.01
727.586	304.29
727.773	267.43
727.959	230.57
728.145	322.73
728.332	253.09
728.518	271.53
728.705	328.87
728.891	285.86
729.077	357.54
729.264	289.96
729.45	253.09
729.636	330.92
729.823	281.77
730.009	382.12
730.195	281.77
730.382	279.72
730.568	179.37
730.754	257.19
730.94	253.09
731.126	320.68
731.313	294.05
731.499	367.78
731.685	337.06
731.871	396.45
732.057	310.44
732.243	384.16
732.429	328.87
732.615	447.65
732.801	271.53
732.987	332.97
733.173	337.06
733.359	257.19
733.545	318.63
733.731	279.72
733.917	461.99
734.103	353.45
734.289	349.35
734.475	275.62
734.661	418.98
734.847	341.16
735.033	314.53
735.219	353.45
735.404	320.68
735.59	277.67
735.776	324.77
735.962	304.29
736.148	361.64
736.333	373.92
736.519	294.05
736.705	332.97
736.89	373.92
737.076	330.92
737.262	244.9
737.447	279.72
737.633	316.58
737.819	386.21
738.004	279.72
738.19	332.97
738.375	361.64
738.561	431.27
738.747	310.44
738.932	269.48
739.118	535.71
739.303	476.32
739.489	320.68
739.674	359.59
739.859	296.1
740.045	378.02
740.23	373.92
740.416	228.52
740.601	283.81
740.786	386.21
740.972	240.81
741.157	300.2
741.342	234.66
741.528	212.14
741.713	375.97
741.898	208.04
742.084	332.97
742.269	224.42
742.454	337.06
742.639	437.41
742.824	306.34
743.01	464.04
743.195	478.37
743.38	253.09
743.565	361.64
743.75	326.82
743.935	357.54
744.12	404.64
744.305	222.38
744.49	167.08
744.675	318.63
744.86	193.7
745.045	361.64
745.23	365.73
745.415	255.14
745.6	486.56
745.785	224.42
745.97	302.25
746.155	378.02
746.34	353.45
746.525	320.68
746.71	435.36
746.895	251.05
747.079	273.57
747.264	296.1
747.449	337.06
747.634	294.05
747.819	380.07
748.003	222.38
748.188	232.62
748.373	425.12
748.557	328.87
748.742	316.58
748.927	261.29
749.111	181.42
749.296	224.42
749.481	330.92
749.665	289.96
749.85	326.82
750.034	281.77
750.219	332.97
750.404	220.33
750.588	281.77
750.773	226.47
750.957	214.18
751.141	226.47
751.326	253.09
751.51	177.32
751.695	285.86
751.879	240.81
752.064	365.73
752.248	218.28
752.432	322.73
752.617	289.96
752.801	300.2
752.985	255.14
753.17	337.06
753.354	249
753.538	203.94
753.722	185.51
753.907	162.98
754.091	130.22
754.275	316.58
754.459	177.32
754.643	126.12
754.828	193.7
755.012	253.09
755.196	189.61
755.38	261.29
755.564	138.41
755.748	185.51
755.932	261.29
756.116	289.96
756.3	285.86
756.484	177.32
756.668	210.09
756.852	169.13
757.036	181.42
757.22	261.29
757.404	193.7
757.588	220.33
757.772	244.9
757.956	232.62
758.14	328.87
758.323	175.27
758.507	179.37
758.691	148.65
758.875	234.66
759.059	226.47
759.242	128.17
759.426	162.98
759.61	222.38
759.794	126.12
759.977	185.51
760.161	468.13
760.345	289.96
760.528	212.14
760.712	259.24
760.895	234.66
761.079	218.28
761.263	109.74
761.446	156.84
761.63	193.7
761.813	267.43
761.997	91.31
762.18	99.5
762.364	228.52
762.547	66.73
762.731	183.46
762.914	251.05
763.098	201.9
763.281	50.35
763.464	191.66
763.648	181.42
763.831	126.12
764.015	124.07
764.198	249
764.381	138.41
764.564	158.89
764.748	111.78
764.931	148.65
765.114	115.88
765.297	253.09
765.481	134.31
765.664	109.74
765.847	134.31
766.03	271.53
766.213	101.55
766.397	134.31
766.58	97.45
766.763	220.33
766.946	115.88
767.129	119.98
767.312	128.17
767.495	208.04
767.678	72.87
767.861	124.07
768.044	255.14
768.227	119.98
768.41	68.78
768.593	122.02
768.776	224.42
768.959	175.27
769.142	210.09
769.324	97.45
769.507	232.62
769.69	74.92
769.873	138.41
770.056	296.1
770.239	128.17
770.421	177.32
770.604	173.22
770.787	134.31
770.97	146.6
771.152	93.35
771.335	173.22
771.518	42.15
771.7	171.18
771.883	267.43
772.066	87.21
772.248	126.12
772.431	246.95
772.613	171.18
772.796	119.98
772.978	148.65
773.161	187.56
773.343	181.42
773.526	81.07
773.708	33.96
773.891	13.48
774.073	101.55
774.256	40.11
774.438	271.53
774.621	64.68
774.803	156.84
774.985	107.69
775.168	144.55
775.35	113.83
775.532	136.36
775.715	162.98
775.897	93.35
776.079	74.92
776.261	62.63
776.444	146.6
776.626	222.38
776.808	152.74
776.99	17.58
777.173	130.22
777.355	23.72
777.537	150.7
777.719	115.88
777.901	79.02
778.083	23.72
778.265	54.44
778.447	195.75
778.629	36.01
778.811	56.49
778.993	263.33
779.175	111.78
779.357	122.02
779.539	52.39
779.721	136.36
779.903	177.32
780.085	85.16
780.267	144.55
780.449	64.68
780.631	212.14
780.812	142.5
780.994	85.16
781.176	40.11
781.358	60.59
781.54	68.78
781.721	195.75
781.903	205.99
782.085	101.55
782.267	203.94
782.448	5.29
782.63	99.5
782.812	95.4
782.993	50.35
783.175	93.35
783.357	54.44
783.538	109.74
783.72	107.69
783.901	23.72
784.083	122.02
784.264	76.97
784.446	-4.95
784.627	40.11
784.809	167.08
784.99	29.87
785.172	134.31
785.353	52.39
785.535	48.3
785.716	48.3
785.897	-0.85
786.079	13.48
786.26	87.21
786.441	29.87
786.623	-7
786.804	-13.14
786.985	42.15
787.167	74.92
787.348	91.31
787.529	93.35
787.71	197.8
787.891	167.08
788.073	85.16
788.254	60.59
788.435	158.89
788.616	81.07
788.797	-11.09
788.978	-17.24
789.159	103.59
789.34	83.11
789.522	27.82
789.703	19.63
789.884	124.07
790.065	76.97
790.246	177.32
790.427	60.59
790.607	89.26
790.788	105.64
790.969	15.53
791.15	113.83
791.331	15.53
791.512	52.39
791.693	11.43
791.874	-0.85
792.054	244.9
792.235	101.55
792.416	40.11
792.597	-2.9
792.778	201.9
792.958	58.54
793.139	38.06
793.32	50.35
793.5	3.24
793.681	167.08
793.862	103.59
794.042	64.68
794.223	-74.58
794.404	70.83
794.584	-4.95
794.765	19.63
794.945	23.72
795.126	126.12
795.306	187.56
795.487	126.12
795.667	117.93
795.848	113.83
796.028	99.5
796.209	136.36
796.389	56.49
796.57	87.21
796.75	-25.43
796.93	58.54
797.111	9.39
797.291	50.35
797.471	81.07
797.652	72.87
797.832	-2.9
798.012	79.02
798.192	66.73
798.373	-109.4
798.553	93.35
798.733	99.5
798.913	-33.62
799.093	64.68
799.274	124.07
799.454	85.16
799.634	101.55
799.814	115.88
799.994	66.73
800.174	89.26
800.354	31.91
800.534	-11.09
800.714	66.73
800.894	-105.3
801.074	-39.76
801.254	40.11
801.434	81.07
801.614	64.68
801.794	-103.25
801.974	1711.25
802.154	9.39
802.334	109.74
802.514	-13.14
802.693	60.59
802.873	-78.68
803.053	156.84
803.233	113.83
803.413	33.96
803.592	17.58
803.772	36.01
803.952	66.73
804.131	-58.2
804.311	103.59
804.491	101.55
804.67	-11.09
804.85	-17.24
805.03	11.43
805.209	117.93
805.389	-7
805.568	31.91
805.748	-0.85
805.928	54.44
806.107	56.49
806.287	-15.19
806.466	44.2
806.646	11.43
806.825	27.82
807.004	21.67
807.184	79.02
807.363	134.31
807.543	29.87
807.722	-21.33
807.901	175.27
808.081	134.31
808.26	-60.24
808.439	58.54
808.619	62.63
808.798	13.48
808.977	64.68
809.156	115.88
809.336	1.19
809.515	119.98
809.694	25.77
809.873	33.96
810.052	60.59
810.231	95.4
810.411	58.54
810.59	79.02
810.769	-33.62
810.948	134.31
811.127	-93.01
811.306	-13.14
811.485	-56.15
811.664	189.61
811.843	76.97
812.022	132.26
812.201	27.82
812.38	-37.72
812.559	-39.76
812.737	87.21
812.916	-56.15
813.095	-27.48
813.274	54.44
813.453	23.72
813.632	101.55
813.811	97.45
813.989	-56.15
814.168	29.87
814.347	-52.05
814.526	27.82
814.704	126.12
814.883	193.7
815.062	-47.96
815.24	60.59
815.419	52.39
815.598	9.39
815.776	-99.16
815.955	9.39
816.133	-103.25
816.312	52.39
816.49	-39.76
816.669	76.97
816.847	-0.85
817.026	3.24
817.204	-17.24
817.383	46.25
817.561	23.72
817.74	74.92
817.918	70.83
818.097	9.39
818.275	-15.19
818.453	33.96
818.632	62.63
818.81	-58.2
818.988	31.91
819.167	-33.62
819.345	50.35
819.523	-13.14
819.701	85.16
819.879	64.68
820.058	76.97
820.236	36.01
820.414	-9.05
820.592	-15.19
820.77	105.64
820.948	-43.86
821.127	-54.1
821.305	72.87
821.483	5.29
821.661	1.19
821.839	-19.29
822.017	-86.87
822.195	21.67
822.373	117.93
822.551	-13.14
822.729	76.97
822.907	50.35
823.085	68.78
823.262	13.48
823.44	-86.87
823.618	31.91
823.796	-39.76
823.974	-19.29
824.152	48.3
824.329	-9.05
824.507	-9.05
824.685	91.31
824.863	19.63
825.04	31.91
825.218	-17.24
825.396	19.63
825.574	13.48
825.751	58.54
825.929	72.87
826.107	-84.82
826.284	64.68
826.462	42.15
826.639	-68.44
826.817	-109.4
826.994	72.87
827.172	-43.86
827.349	148.65
827.527	38.06
827.704	13.48
827.882	31.91
828.059	54.44
828.237	-15.19
828.414	-2.9
828.591	-142.16
828.769	81.07
828.946	-52.05
829.124	103.59
829.301	46.25
829.478	115.88
829.655	38.06
829.833	9.39
830.01	-107.35
830.187	70.83
830.364	-37.72
830.542	40.11
830.719	126.12
830.896	76.97
831.073	38.06
831.25	27.82
831.427	89.26
831.604	58.54
831.782	-9.05
831.959	68.78
832.136	-60.24
832.313	15.53
832.49	-41.81
832.667	50.35
832.844	-56.15
833.021	93.35
833.198	60.59
833.374	17.58
833.551	-19.29
833.728	13.48
833.905	44.2
834.082	-111.44
834.259	9.39
834.436	101.55
834.612	-66.39
834.789	60.59
834.966	3.24
835.143	7.34
835.319	-54.1
835.496	115.88
835.673	29.87
835.85	79.02
836.026	95.4
836.203	25.77
836.38	-29.52
836.556	-39.76
836.733	-68.44
836.909	126.12
837.086	79.02
837.262	-41.81
837.439	46.25
837.616	-31.57
837.792	44.2
837.968	29.87
838.145	-97.11
838.321	-41.81
838.498	-9.05
838.674	68.78
838.851	31.91
839.027	-21.33
839.203	9.39
839.38	56.49
839.556	-29.52
839.732	60.59
839.909	103.59
840.085	74.92
840.261	9.39
840.437	58.54
840.614	-35.67
840.79	74.92
840.966	66.73
841.142	27.82
841.318	44.2
841.494	15.53
841.671	122.02
841.847	-31.57
842.023	-60.24
842.199	-17.24
842.375	171.18
842.551	-131.92
842.727	-54.1
842.903	113.83
843.079	-74.58
843.255	76.97
843.431	-9.05
843.607	-41.81
843.783	-168.79
843.959	17.58
844.134	-4.95
844.31	132.26
844.486	-39.76
844.662	3.24
844.838	-23.38
845.013	85.16
845.189	38.06
845.365	46.25
845.541	23.72
845.716	-2.9
845.892	60.59
846.068	1.19
846.244	-31.57
846.419	31.91
846.595	-15.19
846.77	-64.34
846.946	103.59
847.122	13.48
847.297	-37.72
847.473	138.41
847.648	-60.24
847.824	-23.38
847.999	-60.24
848.175	25.77
848.35	13.48
848.526	64.68
848.701	66.73
848.876	70.83
849.052	81.07
849.227	15.53
849.403	132.26
849.578	76.97
849.753	44.2
849.929	56.49
850.104	-105.3
850.279	-47.96
850.454	44.2
850.63	167.08
850.805	66.73
850.98	40.11
851.155	23.72
851.33	-2.9
851.505	-54.1
851.681	62.63
851.856	-76.63
852.031	50.35
852.206	38.06
852.381	-62.29
852.556	7.34
852.731	33.96
852.906	134.31
853.081	13.48
853.256	134.31
853.431	13.48
853.606	-15.19
853.781	-58.2
853.956	-50
854.131	21.67
854.305	3.24
854.48	11.43
854.655	-62.29
854.83	-39.76
855.005	25.77
855.18	27.82
855.354	-54.1
855.529	29.87
855.704	-58.2
855.879	-15.19
856.053	-60.24
856.228	115.88
856.403	-33.62
856.577	7.34
856.752	-52.05
856.926	-23.38
857.101	33.96
857.276	-29.52
857.45	25.77
857.625	117.93
857.799	3.24
857.974	99.5
858.148	-136.02
858.323	-4.95
858.497	-39.76
858.672	-35.67
858.846	-33.62
859.02	140.46
859.195	-60.24
859.369	-27.48
859.543	70.83
859.718	-0.85
859.892	122.02
860.066	52.39
860.241	-107.35
860.415	-25.43
860.589	-4.95
860.763	-29.52
860.938	-31.57
861.112	130.22
861.286	52.39
861.46	1.19
861.634	-35.67
861.808	142.5
861.982	-86.87
862.157	-113.49
862.331	-33.62
862.505	-172.88
862.679	-60.24
862.853	-13.14
863.027	38.06
863.201	160.94
863.375	-41.81
863.549	25.77
863.722	117.93
863.896	160.94
864.07	11.43
864.244	83.11
864.418	-25.43
864.592	21.67
864.766	-0.85
864.939	11.43
865.113	17.58
865.287	52.39
865.461	-45.91
865.634	15.53
865.808	50.35
865.982	27.82
866.156	-37.72
866.329	-39.76
866.503	113.83
866.676	113.83
866.85	1.19
867.024	21.67
867.197	107.69
867.371	23.72
867.544	136.36
867.718	-72.53
867.891	74.92
868.065	-23.38
868.238	54.44
868.412	93.35
868.585	-0.85
868.759	1.19
868.932	-35.67
869.105	1.19
869.279	25.77
869.452	-29.52
869.625	60.59
869.799	-43.86
869.972	-115.54
870.145	27.82
870.319	87.21
870.492	-29.52
870.665	-23.38
870.838	-93.01
871.011	-58.2
871.185	1.19
871.358	-9.05
871.531	11.43
871.704	-41.81
871.877	74.92
872.05	85.16
872.223	-88.92
872.396	23.72
872.569	111.78
872.742	-23.38
872.915	117.93
873.088	-7
873.261	97.45
873.434	50.35
873.607	11.43
873.78	83.11
873.953	-93.01
874.126	33.96
874.299	81.07
874.471	-58.2
874.644	-74.58
874.817	42.15
874.99	177.32
875.163	-23.38
875.335	38.06
875.508	56.49
875.681	66.73
875.853	9.39
876.026	33.96
876.199	87.21
876.371	3.24
876.544	-4.95
876.717	29.87
876.889	-23.38
877.062	9.39
877.234	-58.2
877.407	-66.39
877.579	-13.14
877.752	21.67
877.924	107.69
878.097	-27.48
878.269	68.78
878.442	27.82
878.614	81.07
878.786	29.87
878.959	48.3
879.131	42.15
879.303	-52.05
879.476	5.29
879.648	62.63
879.82	-4.95
879.993	7.34
880.165	-52.05
880.337	-115.54
880.509	33.96
880.681	-31.57
880.854	-13.14
881.026	27.82
881.198	150.7
881.37	9.39
881.542	3.24
881.714	36.01
881.886	19.63
882.058	19.63
882.23	42.15
882.402	38.06
882.574	25.77
882.746	109.74
882.918	138.41
883.09	128.17
883.262	27.82
883.434	31.91
883.606	-0.85
883.778	29.87
883.95	70.83
884.122	-60.24
884.293	113.83
884.465	-15.19
884.637	113.83
884.809	-19.29
884.98	25.77
885.152	107.69
885.324	-4.95
885.496	25.77
885.667	-13.14
885.839	-7
886.011	126.12
886.182	25.77
886.354	101.55
886.525	-17.24
886.697	29.87
886.869	-25.43
887.04	21.67
887.212	117.93
887.383	191.66
887.555	3.24
887.726	31.91
887.897	-99.16
888.069	15.53
888.24	126.12
888.412	-4.95
888.583	-25.43
888.754	21.67
888.926	-101.2
889.097	-43.86
889.268	-125.78
889.44	-11.09
889.611	-80.72
889.782	-97.11
889.953	-15.19
890.125	126.12
890.296	-15.19
890.467	27.82
890.638	15.53
890.809	66.73
890.98	-52.05
891.151	58.54
891.323	152.74
891.494	25.77
891.665	95.4
891.836	-27.48
892.007	87.21
892.178	29.87
892.349	44.2
892.52	-64.34
892.691	48.3
892.862	-11.09
893.032	-95.06
893.203	-54.1
893.374	-0.85
893.545	97.45
893.716	-37.72
893.887	31.91
894.057	-43.86
894.228	17.58
894.399	-13.14
894.57	111.78
894.74	21.67
894.911	-15.19
895.082	23.72
895.253	-64.34
895.423	60.59
895.594	81.07
895.764	40.11
895.935	-62.29
896.106	109.74
896.276	72.87
896.447	13.48
896.617	-125.78
896.788	-25.43
896.958	-80.72
897.129	13.48
897.299	-37.72
897.47	40.11
897.64	109.74
897.81	-35.67
897.981	-80.72
898.151	15.53
898.322	13.48
898.492	40.11
898.662	-17.24
898.832	-27.48
899.003	15.53
899.173	50.35
899.343	-29.52
899.513	-150.36
