Data from USB4F104151__78__09-30-18-889.txt Node

Date: Wed Feb 26 09:30:18 EST 2025
User: louis
Spectrometer: USB4F10415
Trigger mode: 4
Integration Time (sec): 1.000000E-1
Scans to average: 1
Electric dark correction enabled: true
Nonlinearity correction enabled: false
Boxcar width: 0
XAxis mode: Wavelengths
Number of Pixels in Spectrum: 3648
>>>>>Begin Spectral Data<<<<<
178.204	-337.57
178.424	-337.57
178.644	-337.57
178.864	-366.25
179.084	-327.33
179.304	-40.62
179.524	-44.71
179.744	-3.75
179.964	22.87
180.184	57.68
180.404	98.64
180.624	-46.76
180.844	-32.43
181.064	-34.47
181.283	35.16
181.503	-44.71
181.723	33.11
181.943	-20.14
182.163	160.08
182.383	-11.95
182.602	-20.14
182.822	160.08
183.042	76.12
183.262	-22.19
183.482	-5.8
183.701	41.3
183.921	78.16
184.141	18.77
184.361	43.35
184.58	84.31
184.8	26.96
185.02	82.26
185.239	135.51
185.459	26.96
185.679	72.02
185.898	-95.91
186.118	125.27
186.338	8.53
186.557	78.16
186.777	-38.57
186.997	22.87
187.216	26.96
187.436	180.56
187.655	59.73
187.875	117.08
188.095	141.65
188.314	117.08
188.534	182.61
188.753	59.73
188.973	125.27
189.192	110.93
189.412	43.35
189.631	65.88
189.851	119.12
190.07	139.6
190.29	-87.72
190.509	106.84
190.729	67.92
190.948	106.84
191.168	319.82
191.387	82.26
191.607	41.3
191.826	74.07
192.045	37.2
192.265	26.96
192.484	59.73
192.704	33.11
192.923	-16.04
193.142	135.51
193.362	160.08
193.581	172.37
193.8	-13.99
194.02	98.64
194.239	55.64
194.458	86.36
194.678	51.54
194.897	-5.8
195.116	94.55
195.335	65.88
195.555	41.3
195.774	51.54
195.993	78.16
196.212	33.11
196.432	29.01
196.651	10.58
196.87	29.01
197.089	176.47
197.308	137.56
197.528	82.26
197.747	22.87
197.966	47.44
198.185	102.74
198.404	49.49
198.623	86.36
198.842	121.17
199.062	115.03
199.281	86.36
199.5	43.35
199.719	67.92
199.938	67.92
200.157	90.45
200.376	170.32
200.595	162.13
200.814	78.16
201.033	-40.62
201.252	139.6
201.471	-5.8
201.69	106.84
201.909	57.68
202.128	98.64
202.347	176.47
202.566	98.64
202.785	-16.04
203.004	-34.47
203.223	246.1
203.442	20.82
203.661	-100.01
203.879	67.92
204.098	80.21
204.317	-28.33
204.536	41.3
204.755	67.92
204.974	121.17
205.193	45.4
205.411	133.46
205.63	92.5
205.849	92.5
206.068	47.44
206.287	20.82
206.505	188.75
206.724	35.16
206.943	24.92
207.162	-40.62
207.381	96.6
207.599	121.17
207.818	53.59
208.037	119.12
208.255	59.73
208.474	35.16
208.693	59.73
208.911	-32.43
209.13	153.94
209.349	53.59
209.567	65.88
209.786	78.16
210.005	131.41
210.223	55.64
210.442	-93.87
210.661	78.16
210.879	18.77
211.098	12.63
211.316	35.16
211.535	90.45
211.753	51.54
211.972	121.17
212.191	2.39
212.409	-9.9
212.628	125.27
212.846	2.39
213.065	24.92
213.283	115.03
213.502	76.12
213.72	55.64
213.938	-7.85
214.157	22.87
214.375	129.36
214.594	41.3
214.812	88.4
215.031	41.3
215.249	6.49
215.467	37.2
215.686	4.44
215.904	115.03
216.122	-11.95
216.341	147.8
216.559	-22.19
216.778	82.26
216.996	110.93
217.214	37.2
217.432	0.34
217.651	-7.85
217.869	67.92
218.087	102.74
218.306	20.82
218.524	10.58
218.742	-11.95
218.96	90.45
219.179	-7.85
219.397	57.68
219.615	205.14
219.833	35.16
220.051	-63.15
220.27	90.45
220.488	51.54
220.706	43.35
220.924	-40.62
221.142	-18.09
221.36	108.88
221.578	-57
221.796	-24.23
222.015	26.96
222.233	90.45
222.451	127.32
222.669	-44.71
222.887	168.27
223.105	12.63
223.323	59.73
223.541	-65.19
223.759	92.5
223.977	51.54
224.195	201.04
224.413	92.5
224.631	115.03
224.849	90.45
225.067	180.56
225.285	-20.14
225.503	35.16
225.721	-40.62
225.939	104.79
226.157	55.64
226.375	172.37
226.592	-32.43
226.81	31.06
227.028	61.78
227.246	119.12
227.464	61.78
227.682	168.27
227.9	86.36
228.117	96.6
228.335	2.39
228.553	41.3
228.771	61.78
228.989	41.3
229.206	51.54
229.424	-9.9
229.642	-7.85
229.86	-48.81
230.077	94.55
230.295	10.58
230.513	84.31
230.731	12.63
230.948	133.46
231.166	184.66
231.384	-73.39
231.601	12.63
231.819	160.08
232.037	39.25
232.254	-11.95
232.472	-24.23
232.689	61.78
232.907	86.36
233.125	-28.33
233.342	-20.14
233.56	-65.19
233.777	-65.19
233.995	76.12
234.213	108.88
234.43	67.92
234.648	16.73
234.865	4.44
235.083	117.08
235.3	82.26
235.518	63.83
235.735	108.88
235.953	115.03
236.17	20.82
236.388	16.73
236.605	61.78
236.822	115.03
237.04	106.84
237.257	82.26
237.475	33.11
237.692	63.83
237.909	61.78
238.127	22.87
238.344	129.36
238.562	74.07
238.779	-11.95
238.996	-13.99
239.214	82.26
239.431	96.6
239.648	-5.8
239.865	84.31
240.083	74.07
240.3	-36.52
240.517	-61.1
240.735	100.69
240.952	153.94
241.169	86.36
241.386	74.07
241.603	47.44
241.821	-36.52
242.038	104.79
242.255	92.5
242.472	-7.85
242.689	127.32
242.907	61.78
243.124	35.16
243.341	8.53
243.558	14.68
243.775	-57
243.992	-44.71
244.209	29.01
244.426	76.12
244.643	112.98
244.86	-16.04
245.078	22.87
245.295	76.12
245.512	69.97
245.729	-13.99
245.946	74.07
246.163	69.97
246.38	20.82
246.597	45.4
246.814	74.07
247.031	-5.8
247.248	-1.71
247.464	57.68
247.681	69.97
247.898	57.68
248.115	88.4
248.332	49.49
248.549	49.49
248.766	125.27
248.983	65.88
249.2	55.64
249.417	61.78
249.633	51.54
249.85	74.07
250.067	78.16
250.284	141.65
250.501	45.4
250.717	98.64
250.934	-122.54
251.151	-28.33
251.368	41.3
251.585	53.59
251.801	12.63
252.018	0.34
252.235	92.5
252.451	-36.52
252.668	29.01
252.885	158.03
253.102	45.4
253.318	12.63
253.535	10.58
253.752	49.49
253.968	-18.09
254.185	0.34
254.401	51.54
254.618	41.3
254.835	8.53
255.051	108.88
255.268	49.49
255.484	24.92
255.701	18.77
255.917	61.78
256.134	-46.76
256.351	-22.19
256.567	4.44
256.784	-24.23
257	49.49
257.217	162.13
257.433	2.39
257.65	12.63
257.866	106.84
258.082	80.21
258.299	18.77
258.515	39.25
258.732	108.88
258.948	-20.14
259.165	143.7
259.381	-28.33
259.597	129.36
259.814	37.2
260.03	133.46
260.246	74.07
260.463	104.79
260.679	69.97
260.895	49.49
261.112	41.3
261.328	37.2
261.544	16.73
261.761	153.94
261.977	10.58
262.193	4.44
262.409	14.68
262.626	123.22
262.842	98.64
263.058	4.44
263.274	74.07
263.49	100.69
263.707	102.74
263.923	39.25
264.139	-57
264.355	4.44
264.571	57.68
264.787	96.6
265.004	127.32
265.22	49.49
265.436	-28.33
265.652	108.88
265.868	80.21
266.084	43.35
266.3	69.97
266.516	-46.76
266.732	63.83
266.948	-13.99
267.164	-30.38
267.38	88.4
267.596	123.22
267.812	215.38
268.028	4.44
268.244	53.59
268.46	96.6
268.676	67.92
268.892	41.3
269.108	-40.62
269.324	-3.75
269.54	10.58
269.756	131.41
269.972	-48.81
270.188	82.26
270.403	-16.04
270.619	96.6
270.835	59.73
271.051	22.87
271.267	4.44
271.483	33.11
271.698	63.83
271.914	24.92
272.13	20.82
272.346	-48.81
272.562	65.88
272.777	133.46
272.993	69.97
273.209	-36.52
273.425	69.97
273.64	-5.8
273.856	59.73
274.072	-42.67
274.287	-11.95
274.503	78.16
274.719	59.73
274.934	24.92
275.15	-73.39
275.366	14.68
275.581	-112.3
275.797	-7.85
276.012	18.77
276.228	-7.85
276.444	65.88
276.659	78.16
276.875	-110.25
277.09	-85.67
277.306	12.63
277.521	96.6
277.737	78.16
277.952	151.89
278.168	45.4
278.383	84.31
278.599	37.2
278.814	78.16
279.03	45.4
279.245	121.17
279.461	18.77
279.676	61.78
279.892	12.63
280.107	-69.29
280.322	-5.8
280.538	37.2
280.753	51.54
280.969	100.69
281.184	67.92
281.399	131.41
281.615	2.39
281.83	51.54
282.045	-13.99
282.26	-38.57
282.476	-11.95
282.691	20.82
282.906	43.35
283.122	-44.71
283.337	76.12
283.552	53.59
283.767	43.35
283.983	53.59
284.198	92.5
284.413	106.84
284.628	-34.47
284.843	18.77
285.058	65.88
285.274	-38.57
285.489	37.2
285.704	104.79
285.919	26.96
286.134	90.45
286.349	2.39
286.564	43.35
286.779	151.89
286.995	-1.71
287.21	-71.34
287.425	55.64
287.64	-9.9
287.855	51.54
288.07	-65.19
288.285	88.4
288.5	147.8
288.715	102.74
288.93	33.11
289.145	-24.23
289.36	8.53
289.575	-63.15
289.79	53.59
290.004	-22.19
290.219	49.49
290.434	33.11
290.649	57.68
290.864	-7.85
291.079	31.06
291.294	35.16
291.509	86.36
291.724	12.63
291.938	-67.24
292.153	43.35
292.368	20.82
292.583	74.07
292.798	127.32
293.012	45.4
293.227	24.92
293.442	-11.95
293.657	127.32
293.871	147.8
294.086	61.78
294.301	235.86
294.516	86.36
294.73	43.35
294.945	41.3
295.16	-38.57
295.374	86.36
295.589	35.16
295.804	-42.67
296.018	141.65
296.233	135.51
296.447	43.35
296.662	6.49
296.877	115.03
297.091	24.92
297.306	18.77
297.52	33.11
297.735	16.73
297.949	139.6
298.164	82.26
298.378	45.4
298.593	57.68
298.807	-20.14
299.022	53.59
299.236	162.13
299.451	-52.91
299.665	8.53
299.88	35.16
300.094	119.12
300.309	57.68
300.523	-11.95
300.737	0.34
300.952	65.88
301.166	18.77
301.381	-36.52
301.595	29.01
301.809	55.64
302.024	12.63
302.238	-36.52
302.452	31.06
302.667	4.44
302.881	119.12
303.095	155.99
303.309	92.5
303.524	33.11
303.738	26.96
303.952	8.53
304.166	37.2
304.381	0.34
304.595	47.44
304.809	-36.52
305.023	57.68
305.237	-32.43
305.452	18.77
305.666	94.55
305.88	22.87
306.094	112.98
306.308	49.49
306.522	41.3
306.736	49.49
306.95	108.88
307.164	10.58
307.379	0.34
307.593	61.78
307.807	178.51
308.021	80.21
308.235	76.12
308.449	-44.71
308.663	41.3
308.877	217.43
309.091	0.34
309.305	184.66
309.519	-46.76
309.733	125.27
309.947	-85.67
310.161	119.12
310.374	88.4
310.588	194.9
310.802	43.35
311.016	-11.95
311.23	49.49
311.444	-24.23
311.658	33.11
311.872	133.46
312.085	29.01
312.299	123.22
312.513	82.26
312.727	55.64
312.941	-13.99
313.154	82.26
313.368	12.63
313.582	26.96
313.796	72.02
314.009	53.59
314.223	123.22
314.437	39.25
314.651	37.2
314.864	12.63
315.078	117.08
315.292	-75.43
315.505	-18.09
315.719	37.2
315.933	47.44
316.146	45.4
316.36	-1.71
316.573	139.6
316.787	82.26
317.001	37.2
317.214	-16.04
317.428	53.59
317.641	-83.63
317.855	31.06
318.068	35.16
318.282	69.97
318.495	129.36
318.709	18.77
318.922	2.39
319.136	88.4
319.349	90.45
319.563	78.16
319.776	76.12
319.99	-87.72
320.203	155.99
320.417	45.4
320.63	125.27
320.843	184.66
321.057	29.01
321.27	6.49
321.483	149.84
321.697	106.84
321.91	33.11
322.124	14.68
322.337	61.78
322.55	12.63
322.763	37.2
322.977	-7.85
323.19	-24.23
323.403	57.68
323.617	84.31
323.83	143.7
324.043	78.16
324.256	82.26
324.469	-67.24
324.683	168.27
324.896	-9.9
325.109	31.06
325.322	-63.15
325.535	74.07
325.748	151.89
325.962	43.35
326.175	26.96
326.388	84.31
326.601	98.64
326.814	-63.15
327.027	-11.95
327.24	176.47
327.453	-61.1
327.666	45.4
327.879	110.93
328.092	143.7
328.305	0.34
328.518	-11.95
328.731	-30.38
328.944	29.01
329.157	78.16
329.37	12.63
329.583	119.12
329.796	166.23
330.009	-85.67
330.222	90.45
330.435	86.36
330.648	35.16
330.861	33.11
331.073	-3.75
331.286	174.42
331.499	98.64
331.712	0.34
331.925	115.03
332.138	108.88
332.35	0.34
332.563	-63.15
332.776	98.64
332.989	-1.71
333.202	-3.75
333.414	22.87
333.627	96.6
333.84	-16.04
334.053	86.36
334.265	10.58
334.478	-26.28
334.691	104.79
334.903	-34.47
335.116	67.92
335.329	80.21
335.541	69.97
335.754	102.74
335.966	18.77
336.179	53.59
336.392	31.06
336.604	43.35
336.817	26.96
337.029	35.16
337.242	29.01
337.454	90.45
337.667	-11.95
337.88	108.88
338.092	127.32
338.305	63.83
338.517	29.01
338.729	106.84
338.942	76.12
339.154	59.73
339.367	-67.24
339.579	35.16
339.792	-5.8
340.004	22.87
340.217	67.92
340.429	106.84
340.641	-69.29
340.854	-7.85
341.066	49.49
341.278	45.4
341.491	155.99
341.703	65.88
341.915	22.87
342.128	135.51
342.34	18.77
342.552	0.34
342.764	82.26
342.977	-36.52
343.189	10.58
343.401	63.83
343.613	-28.33
343.826	26.96
344.038	-20.14
344.25	-22.19
344.462	-93.87
344.674	88.4
344.886	6.49
345.099	63.83
345.311	59.73
345.523	-28.33
345.735	-54.95
345.947	49.49
346.159	37.2
346.371	35.16
346.583	22.87
346.795	158.03
347.007	6.49
347.219	90.45
347.431	12.63
347.643	63.83
347.855	4.44
348.067	45.4
348.279	6.49
348.491	78.16
348.703	117.08
348.915	33.11
349.127	-13.99
349.339	65.88
349.551	41.3
349.763	53.59
349.975	14.68
350.187	20.82
350.399	115.03
350.61	110.93
350.822	29.01
351.034	14.68
351.246	37.2
351.458	94.55
351.669	29.01
351.881	74.07
352.093	108.88
352.305	61.78
352.517	49.49
352.728	94.55
352.94	59.73
353.152	61.78
353.363	47.44
353.575	82.26
353.787	194.9
353.999	-5.8
354.21	184.66
354.422	6.49
354.633	53.59
354.845	18.77
355.057	49.49
355.268	-1.71
355.48	57.68
355.692	-89.77
355.903	4.44
356.115	-44.71
356.326	-116.39
356.538	160.08
356.749	135.51
356.961	133.46
357.172	69.97
357.384	33.11
357.595	94.55
357.807	43.35
358.018	86.36
358.23	106.84
358.441	104.79
358.653	102.74
358.864	20.82
359.075	-44.71
359.287	4.44
359.498	112.98
359.709	69.97
359.921	43.35
360.132	100.69
360.344	10.58
360.555	41.3
360.766	35.16
360.977	94.55
361.189	115.03
361.4	41.3
361.611	92.5
361.823	86.36
362.034	0.34
362.245	-77.48
362.456	20.82
362.667	121.17
362.879	-59.05
363.09	47.44
363.301	20.82
363.512	59.73
363.723	69.97
363.935	4.44
364.146	94.55
364.357	-3.75
364.568	24.92
364.779	-34.47
364.99	65.88
365.201	-36.52
365.412	92.5
365.623	-28.33
365.834	45.4
366.045	53.59
366.256	135.51
366.467	80.21
366.678	43.35
366.889	108.88
367.1	37.2
367.311	110.93
367.522	-61.1
367.733	-1.71
367.944	26.96
368.155	-26.28
368.366	61.78
368.577	139.6
368.788	86.36
368.999	-57
369.209	110.93
369.42	164.18
369.631	192.85
369.842	65.88
370.053	0.34
370.264	125.27
370.474	-36.52
370.685	-11.95
370.896	2.39
371.107	155.99
371.317	92.5
371.528	100.69
371.739	147.8
371.95	90.45
372.16	135.51
372.371	-34.47
372.582	0.34
372.792	96.6
373.003	29.01
373.214	53.59
373.424	92.5
373.635	-54.95
373.846	49.49
374.056	125.27
374.267	65.88
374.477	20.82
374.688	67.92
374.898	24.92
375.109	65.88
375.319	14.68
375.53	137.56
375.74	96.6
375.951	0.34
376.161	65.88
376.372	55.64
376.582	4.44
376.793	53.59
377.003	-36.52
377.214	-22.19
377.424	153.94
377.635	72.02
377.845	-44.71
378.055	100.69
378.266	-11.95
378.476	37.2
378.686	-11.95
378.897	65.88
379.107	78.16
379.317	14.68
379.528	86.36
379.738	47.44
379.948	-63.15
380.158	53.59
380.369	-22.19
380.579	80.21
380.789	16.73
380.999	123.22
381.21	74.07
381.42	176.47
381.63	16.73
381.84	0.34
382.05	92.5
382.261	35.16
382.471	96.6
382.681	8.53
382.891	119.12
383.101	74.07
383.311	33.11
383.521	-11.95
383.731	141.65
383.941	119.12
384.151	33.11
384.361	67.92
384.571	80.21
384.781	141.65
384.991	151.89
385.201	143.7
385.411	182.61
385.621	74.07
385.831	90.45
386.041	65.88
386.251	61.78
386.461	84.31
386.671	43.35
386.881	74.07
387.091	-5.8
387.301	98.64
387.511	6.49
387.72	49.49
387.93	72.02
388.14	-32.43
388.35	-50.86
388.56	102.74
388.769	61.78
388.979	35.16
389.189	82.26
389.399	69.97
389.609	86.36
389.818	29.01
390.028	100.69
390.238	55.64
390.447	-16.04
390.657	74.07
390.867	-1.71
391.076	12.63
391.286	41.3
391.496	6.49
391.705	78.16
391.915	110.93
392.125	110.93
392.334	20.82
392.544	192.85
392.753	117.08
392.963	0.34
393.172	-7.85
393.382	-44.71
393.591	192.85
393.801	67.92
394.01	119.12
394.22	104.79
394.429	8.53
394.639	61.78
394.848	143.7
395.058	16.73
395.267	53.59
395.477	96.6
395.686	-13.99
395.895	135.51
396.105	158.03
396.314	22.87
396.524	80.21
396.733	-16.04
396.942	96.6
397.152	61.78
397.361	102.74
397.57	-7.85
397.78	53.59
397.989	61.78
398.198	176.47
398.407	-3.75
398.617	24.92
398.826	74.07
399.035	24.92
399.244	143.7
399.453	63.83
399.663	-71.34
399.872	10.58
400.081	-36.52
400.29	127.32
400.499	10.58
400.708	78.16
400.917	104.79
401.127	31.06
401.336	-7.85
401.545	104.79
401.754	135.51
401.963	119.12
402.172	59.73
402.381	-116.39
402.59	-97.96
402.799	29.01
403.008	131.41
403.217	102.74
403.426	94.55
403.635	-81.58
403.844	59.73
404.053	69.97
404.262	45.4
404.471	158.03
404.68	43.35
404.888	-16.04
405.097	20.82
405.306	65.88
405.515	74.07
405.724	-16.04
405.933	127.32
406.142	31.06
406.35	76.12
406.559	-61.1
406.768	12.63
406.977	115.03
407.185	45.4
407.394	80.21
407.603	8.53
407.812	12.63
408.02	135.51
408.229	61.78
408.438	84.31
408.646	45.4
408.855	20.82
409.064	69.97
409.272	43.35
409.481	123.22
409.69	24.92
409.898	16.73
410.107	96.6
410.315	86.36
410.524	-57
410.733	16.73
410.941	-26.28
411.15	141.65
411.358	90.45
411.567	139.6
411.775	53.59
411.984	8.53
412.192	47.44
412.401	-44.71
412.609	112.98
412.818	94.55
413.026	131.41
413.234	4.44
413.443	4.44
413.651	-7.85
413.86	-63.15
414.068	158.03
414.276	174.42
414.485	51.54
414.693	131.41
414.901	143.7
415.11	18.77
415.318	43.35
415.526	-54.95
415.734	123.22
415.943	26.96
416.151	129.36
416.359	112.98
416.567	20.82
416.776	102.74
416.984	82.26
417.192	137.56
417.4	12.63
417.608	6.49
417.817	-59.05
418.025	94.55
418.233	215.38
418.441	33.11
418.649	31.06
418.857	96.6
419.065	90.45
419.273	41.3
419.481	33.11
419.689	20.82
419.897	4.44
420.105	4.44
420.313	115.03
420.521	225.62
420.729	106.84
420.937	33.11
421.145	8.53
421.353	112.98
421.561	127.32
421.769	129.36
421.977	-24.23
422.185	35.16
422.393	57.68
422.601	31.06
422.809	53.59
423.017	76.12
423.224	45.4
423.432	86.36
423.64	141.65
423.848	86.36
424.056	20.82
424.263	104.79
424.471	4.44
424.679	123.22
424.887	22.87
425.094	94.55
425.302	55.64
425.51	-7.85
425.718	55.64
425.925	29.01
426.133	84.31
426.341	166.23
426.548	35.16
426.756	18.77
426.964	141.65
427.171	0.34
427.379	41.3
427.586	86.36
427.794	49.49
428.001	155.99
428.209	63.83
428.417	108.88
428.624	108.88
428.832	67.92
429.039	67.92
429.247	45.4
429.454	180.56
429.662	213.33
429.869	65.88
430.076	110.93
430.284	98.64
430.491	211.28
430.699	133.46
430.906	155.99
431.114	121.17
431.321	84.31
431.528	72.02
431.736	127.32
431.943	92.5
432.15	151.89
432.358	184.66
432.565	203.09
432.772	-28.33
432.979	127.32
433.187	55.64
433.394	141.65
433.601	117.08
433.808	172.37
434.016	266.58
434.223	131.41
434.43	137.56
434.637	188.75
434.844	239.95
435.052	201.04
435.259	227.67
435.466	198.99
435.673	223.57
435.88	180.56
436.087	299.34
436.294	276.82
436.501	323.92
436.708	237.91
436.915	215.38
437.122	313.68
437.329	123.22
437.537	282.96
437.743	256.34
437.95	348.5
438.157	289.1
438.364	237.91
438.571	266.58
438.778	336.21
438.985	354.64
439.192	356.69
439.399	364.88
439.606	301.39
439.813	332.11
440.02	479.57
440.227	444.75
440.433	403.79
440.64	397.65
440.847	321.87
441.054	461.13
441.261	520.53
441.467	446.8
441.674	379.22
441.881	534.86
442.088	487.76
442.294	567.63
442.501	725.32
442.708	670.03
442.914	549.2
443.121	667.98
443.328	672.08
443.534	723.27
443.741	665.93
443.948	541.01
444.154	753.99
444.361	885.06
444.568	618.83
444.774	794.95
444.981	696.65
445.187	899.4
445.394	868.68
445.6	878.92
445.807	950.6
446.013	895.3
446.22	946.5
446.426	946.5
446.633	1182.02
446.839	1253.7
447.046	997.7
447.252	1177.92
447.459	1161.54
447.665	1237.31
447.871	1284.42
448.078	1438.02
448.284	1376.58
448.491	1495.36
448.697	1542.46
448.903	1612.09
449.11	1597.76
449.316	1632.57
449.522	1759.55
449.728	1782.07
449.935	1798.46
450.141	1829.18
450.347	1976.63
450.553	2019.64
450.76	1990.97
450.966	2074.93
451.172	2138.42
451.378	2330.93
451.584	2359.6
451.791	2576.69
451.997	2498.86
452.203	2607.41
452.409	2785.58
452.615	2756.91
452.821	2748.72
453.027	2793.77
453.233	3172.64
453.44	3004.71
453.646	3100.97
453.852	3260.71
454.058	3549.47
454.264	3399.97
454.47	3961.11
454.676	3834.14
454.882	4114.71
455.088	3983.64
455.294	4202.77
455.5	4534.54
455.705	4868.36
455.911	4825.36
456.117	4780.3
456.323	5013.77
456.529	5099.78
456.735	5538.05
456.941	5640.45
457.147	5904.64
457.352	5955.83
457.558	6168.82
457.764	6537.46
457.97	6795.5
458.176	7078.12
458.381	7350.5
458.587	7401.7
458.793	8007.9
458.999	7801.05
459.204	8937.68
459.41	8962.25
459.616	8902.86
459.821	9511.11
460.027	9955.52
460.233	10295.48
460.438	10444.98
460.644	10993.84
460.85	11141.29
461.055	11522.21
461.261	11993.25
461.466	11931.81
461.672	12093.6
461.878	13326.47
462.083	13467.78
462.289	13535.37
462.494	14141.57
462.7	14336.12
462.905	14594.17
463.111	15876.2
463.316	16371.8
463.522	16660.57
463.727	17166.42
463.932	17741.89
464.138	18614.33
464.343	19476.52
464.549	19353.65
464.754	20797.46
464.959	21235.73
465.165	21678.09
465.37	21796.87
465.575	21563.4
465.781	22913.02
465.986	23779.31
466.191	23207.92
466.397	23576.56
466.602	23158.77
466.807	24053.73
467.012	24891.35
467.218	25415.63
467.423	24960.98
467.628	25925.58
467.833	27375.54
468.038	26644.41
468.244	26429.38
468.449	27928.49
468.654	26988.47
468.859	26888.12
469.064	26974.14
469.269	26593.22
469.474	27011
469.679	27359.16
469.885	26568.64
470.09	27183.03
470.295	27101.11
470.5	26417.09
470.705	26640.32
470.91	26038.22
471.115	25763.79
471.32	26157
471.525	26202.05
471.73	25208.79
471.935	24868.83
472.139	24336.35
472.344	24360.93
472.549	24178.66
472.754	23644.14
472.959	23062.52
473.164	22157.32
473.369	22085.64
473.574	22835.19
473.778	22200.32
473.983	21807.11
474.188	21487.63
474.393	20391.97
474.598	20523.04
474.802	19736.62
475.007	19374.13
475.212	19576.87
475.417	18430.01
475.621	18599.99
475.826	18401.34
476.031	17958.98
476.235	17508.43
476.44	17578.06
476.645	16924.76
476.849	16963.67
477.054	16498.78
477.259	16431.19
477.463	16187.49
477.668	15749.22
477.872	15906.91
478.077	15564.9
478.282	14956.66
478.486	14887.03
478.691	14692.47
478.895	14778.48
479.1	14475.38
479.304	14618.74
479.509	14100.61
479.713	14227.58
479.918	13652.1
480.122	13439.11
480.326	13564.04
480.531	13504.65
480.735	13273.23
480.94	13127.82
481.144	13457.54
481.348	12722.32
481.553	12884.11
481.757	12632.21
481.961	12652.69
482.166	12617.88
482.37	12533.91
482.574	12224.67
482.778	12144.8
482.983	12445.85
483.187	12155.04
483.391	12245.15
483.595	11890.85
483.8	11845.79
484.004	11722.91
484.208	11802.79
484.412	11634.85
484.616	11595.94
484.821	11393.19
485.025	10928.3
485.229	11147.44
485.433	11014.32
485.637	10662.07
485.841	10555.57
486.045	10510.52
486.249	10418.36
486.453	10092.73
486.657	10131.64
486.861	10031.29
487.065	9648.32
487.269	9556.16
487.473	9228.49
487.677	9275.59
487.881	9722.05
488.085	9070.79
488.289	8822.99
488.493	8794.32
488.697	8792.27
488.901	8720.59
489.105	8423.64
489.309	8098.01
489.512	8034.52
489.716	7788.77
489.92	7850.21
490.124	7649.5
490.328	7500
490.531	7196.9
490.735	7278.82
490.939	7061.74
491.143	6979.82
491.346	6805.74
491.55	6836.46
491.754	6734.06
491.958	6629.62
492.161	6383.86
492.365	6357.24
492.569	6127.86
492.772	5925.11
492.976	5939.45
493.18	5992.7
493.383	5865.72
493.587	5763.33
493.79	5837.05
493.994	5529.86
494.197	5501.19
494.401	5648.64
494.605	5386.5
494.808	5380.36
495.012	5460.23
495.215	5400.83
495.419	5271.81
495.622	5118.22
495.825	5005.58
496.029	5134.6
496.232	5261.57
496.436	4819.21
496.639	5128.46
496.843	5009.67
497.046	5005.58
497.249	5165.32
497.453	5034.25
497.656	4976.91
497.859	5054.73
498.063	5034.25
498.266	5017.86
498.469	4942.09
498.673	5001.48
498.876	5165.32
499.079	5019.91
499.282	5075.21
499.485	5243.14
499.689	5032.2
499.892	5128.46
500.095	5052.68
500.298	5222.66
500.501	5060.87
500.705	5234.95
500.908	5280
501.111	5177.61
501.314	5357.83
501.517	5466.37
501.72	5474.56
501.923	5304.58
502.126	5462.27
502.329	5554.43
502.532	5531.9
502.735	5599.49
502.938	5851.39
503.141	5767.42
503.344	5748.99
503.547	5843.2
503.75	5863.68
503.953	6062.33
504.156	6166.78
504.359	6097.14
504.562	5972.22
504.765	6283.51
504.968	6521.07
505.17	6541.55
505.373	6803.69
505.576	6631.66
505.779	6598.9
505.982	6818.03
506.185	6926.57
506.387	7026.92
506.59	7192.81
506.793	7354.6
506.996	7325.93
507.198	7497.95
507.401	7694.56
507.604	8012
507.807	7917.79
508.009	8270.04
508.212	8118.49
508.415	8366.29
508.617	8448.21
508.82	8700.11
509.022	8716.5
509.225	9099.47
509.428	9126.09
509.63	9363.65
509.833	9244.87
510.035	10039.48
510.238	9953.47
510.44	10092.73
510.643	10438.84
510.845	10426.55
511.048	10746.03
511.25	11108.52
511.453	11423.91
511.655	11677.86
511.858	11610.28
512.06	11997.34
512.262	12316.83
512.465	12484.76
512.667	12814.48
512.87	13355.15
513.072	13430.92
513.274	13721.73
513.477	14149.76
513.679	14344.31
513.881	14667.89
514.084	14905.46
514.286	15093.87
514.488	15595.62
514.69	15937.63
514.893	16369.76
515.095	16500.83
515.297	16992.34
515.499	17342.54
515.701	17412.17
515.904	17819.72
516.106	18624.57
516.308	18661.43
516.51	19036.21
516.712	19408.94
516.914	19818.53
517.116	20377.63
517.318	20551.71
517.52	21010.45
517.722	21213.2
517.925	21719.05
518.127	22224.9
518.329	22224.9
518.531	22515.71
518.733	23353.33
518.935	23865.32
519.136	23787.5
519.338	24561.63
519.54	24733.66
519.742	25307.09
519.944	25366.48
520.146	26019.78
520.348	26091.46
520.55	26525.63
520.752	26816.44
520.954	27525.04
521.155	27017.15
521.357	27713.45
521.559	28301.22
521.761	28721.06
521.963	29073.31
522.164	29093.79
522.366	29183.9
522.568	29521.81
522.77	29808.53
522.971	30168.97
523.173	30218.12
523.375	30429.06
523.576	30707.58
523.778	30365.57
523.98	31063.93
524.181	31315.83
524.383	31131.51
524.584	31811.44
524.786	31403.89
524.988	31422.33
525.189	31727.47
525.391	31881.07
525.592	31618.93
525.794	32053.1
525.995	31993.71
526.197	31502.2
526.398	31711.09
526.6	31496.05
526.801	31303.54
527.003	31350.65
527.204	31063.93
527.406	31514.48
527.607	31098.75
527.808	31266.68
528.01	30756.74
528.211	30906.24
528.412	31018.88
528.614	30644.1
528.815	30318.47
529.016	30498.69
529.218	29687.7
529.419	30009.23
529.62	29636.5
529.822	29038.49
530.023	28766.11
530.224	28170.15
530.425	28540.83
530.626	27918.25
530.828	27498.42
531.029	27666.35
531.23	27549.62
531.431	26781.63
531.632	26750.91
531.833	26462.15
532.035	25999.3
532.236	25907.15
532.437	25544.66
532.638	25073.62
532.839	25176.02
533.04	24887.26
533.241	24020.97
533.442	24567.77
533.643	23844.84
533.844	23336.95
534.045	22939.64
534.246	22497.28
534.447	22730.75
534.648	22042.63
534.849	22056.96
535.05	21508.11
535.251	21157.91
535.451	21231.63
535.652	20854.81
535.853	20414.49
536.054	20320.29
536.255	19642.41
536.456	19476.52
536.657	19585.07
536.857	19179.57
537.058	19025.97
537.259	18612.28
537.46	18262.08
537.66	18044.99
537.861	17993.79
538.062	17803.33
538.263	17836.1
538.463	17258.57
538.664	17014.87
538.865	16908.37
539.065	16681.05
539.266	16543.83
539.466	16324.7
539.667	15747.17
539.868	16078.94
540.068	15446.12
540.269	15523.94
540.469	15267.95
540.67	15171.69
540.87	14940.27
541.071	14721.14
541.271	14780.53
541.472	14194.81
541.672	14239.87
541.873	13979.78
542.073	13584.52
542.274	13828.23
542.474	13750.4
542.675	13516.94
542.875	13451.4
543.075	13127.82
543.276	13031.57
543.476	12953.74
543.676	12847.25
543.877	12615.83
544.077	12519.57
544.277	12292.25
544.478	12282.01
544.678	12200.09
544.878	12165.28
545.078	11837.6
545.279	11597.99
545.479	11380.9
545.679	11509.93
545.879	11096.24
546.079	11255.98
546.28	10963.12
546.48	10821.81
546.68	10770.61
546.88	10690.74
547.08	10539.19
547.28	10666.16
547.48	10236.09
547.68	10109.12
547.88	10078.4
548.081	9849.02
548.281	9681.09
548.481	9818.3
548.681	9382.09
548.881	9390.28
549.081	9408.71
549.28	9197.77
549.48	9115.85
549.68	9023.69
549.88	9048.27
550.08	8499.41
550.28	8571.09
550.48	8687.82
550.68	8323.29
550.88	8175.83
551.08	8071.39
551.279	8110.3
551.479	7934.17
551.679	7782.62
551.879	7416.04
552.079	7459.04
552.278	7467.24
552.478	7422.18
552.678	7291.11
552.878	7248.1
553.077	6869.23
553.277	6887.66
553.477	6723.82
553.676	6852.84
553.876	6676.72
554.076	6484.21
554.275	6529.27
554.475	6238.45
554.674	6387.96
554.874	6142.2
555.074	5992.7
555.273	5986.55
555.473	5865.72
555.672	5859.58
555.872	5642.5
556.071	5607.68
556.271	5525.76
556.47	5284.1
556.67	5296.39
556.869	5226.76
557.068	5144.84
557.268	5169.41
557.467	5009.67
557.667	4960.52
557.866	4856.08
558.065	4743.44
558.265	4800.78
558.464	4505.87
558.663	4548.88
558.863	4524.3
559.062	4497.68
559.261	4307.22
559.461	4415.76
559.66	4178.2
559.859	3885.34
560.058	3973.4
560.258	3885.34
560.457	3817.76
560.656	3903.77
560.855	3793.18
561.054	3789.08
561.253	3729.69
561.453	3492.13
561.652	3524.9
561.851	3514.66
562.05	3295.52
562.249	3326.24
562.448	3524.9
562.647	3295.52
562.846	3232.04
563.045	3211.56
563.244	3223.84
563.443	3100.97
563.642	3174.69
563.841	2926.89
564.04	2943.27
564.239	2928.94
564.438	2896.17
564.637	2703.66
564.836	2660.65
565.035	2691.37
565.234	2613.55
565.432	2648.36
565.631	2568.49
565.83	2453.81
566.029	2433.33
566.228	2406.7
566.427	2580.78
566.625	2386.22
566.824	2392.37
567.023	2369.84
567.222	2208.05
567.42	2400.56
567.619	2285.87
567.818	2263.35
568.016	2388.27
568.215	2146.61
568.414	2244.92
568.612	2072.89
568.811	2083.13
569.01	2052.41
569.208	2009.4
569.407	2066.74
569.605	1937.72
569.804	1927.48
570.002	1954.1
570.201	1878.33
570.4	1886.52
570.598	1847.61
570.797	1872.18
570.995	1747.26
571.193	1780.03
571.392	1763.64
571.59	1659.2
571.789	1700.16
571.987	1696.06
572.186	1683.77
572.384	1548.61
572.582	1526.08
572.781	1573.18
572.979	1532.22
573.177	1446.21
573.376	1497.41
573.574	1528.13
573.772	1421.63
573.971	1302.85
574.169	1286.47
574.367	1382.72
574.565	1263.94
574.763	1220.93
574.962	1384.77
575.16	1347.9
575.358	1216.83
575.556	1265.99
575.754	1274.18
575.952	1163.59
576.151	1288.51
576.349	1247.55
576.547	1065.29
576.745	1057.09
576.943	1048.9
577.141	1075.52
577.339	938.31
577.537	1038.66
577.735	1046.85
577.933	999.75
578.131	1032.52
578.329	1124.68
578.527	966.98
578.725	1024.33
578.923	840.01
579.121	987.46
579.319	704.84
579.516	866.63
579.714	1020.23
579.912	1003.85
580.11	823.62
580.308	741.71
580.506	743.75
580.704	837.96
580.901	809.29
581.099	930.12
581.297	905.54
581.495	733.51
581.692	778.57
581.89	848.2
582.088	811.34
582.285	627.02
582.483	672.08
582.681	659.79
582.878	729.42
583.076	784.71
583.274	688.46
583.471	741.71
583.669	586.06
583.866	594.25
584.064	557.39
584.262	473.42
584.459	598.35
584.657	672.08
584.854	584.01
585.052	606.54
585.249	780.62
585.447	622.92
585.644	495.95
585.841	688.46
586.039	571.72
586.236	647.5
586.434	559.44
586.631	510.29
586.828	381.26
587.026	498
587.223	504.14
587.42	403.79
587.618	502.09
587.815	622.92
588.012	504.14
588.21	457.04
588.407	471.37
588.604	512.33
588.801	411.98
588.999	516.43
589.196	616.78
589.393	434.51
589.59	454.99
589.787	393.55
589.984	446.8
590.182	454.99
590.379	438.61
590.576	477.52
590.773	448.85
590.97	432.46
591.167	481.61
591.364	442.7
591.561	397.65
591.758	538.96
591.955	495.95
592.152	461.13
592.349	487.76
592.546	483.66
592.743	395.6
592.94	491.85
593.137	561.48
593.334	553.29
593.531	477.52
593.727	489.81
593.924	471.37
594.121	448.85
594.318	403.79
594.515	438.61
594.712	512.33
594.908	577.87
595.105	293.2
595.302	471.37
595.499	446.8
595.696	536.91
595.892	424.27
596.089	584.01
596.286	373.07
596.482	639.31
596.679	502.09
596.876	481.61
597.072	555.34
597.269	586.06
597.466	633.16
597.662	606.54
597.859	622.92
598.055	667.98
598.252	659.79
598.448	819.53
598.645	768.33
598.841	842.06
599.038	803.15
599.234	876.87
599.431	825.67
599.627	829.77
599.824	860.49
600.02	946.5
600.217	846.15
600.413	1009.99
600.609	1057.09
600.806	1241.41
601.002	1110.34
601.198	1083.72
601.395	1167.68
601.591	1149.25
601.787	1329.47
601.984	1339.71
602.18	1384.77
602.376	1517.89
602.572	1532.22
602.769	1511.74
602.965	1495.36
603.161	1673.53
603.357	1694.01
603.553	1939.77
603.75	1808.7
603.946	1941.82
604.142	1986.87
604.338	2023.73
604.534	2068.79
604.73	2140.47
604.926	2195.76
605.122	2347.31
605.318	2416.94
605.514	2433.33
605.71	2502.96
605.906	2662.7
606.102	2601.26
606.298	2797.87
606.494	2853.16
606.69	2914.6
606.886	2961.7
607.082	3096.87
607.278	3146.02
607.474	3270.95
607.67	3436.83
607.866	3387.68
608.062	3580.19
608.257	3674.4
608.453	3598.62
608.649	3770.65
608.845	3813.66
609.041	3920.15
609.236	4219.16
609.432	4227.35
609.628	4442.39
609.824	4520.21
610.019	4573.46
610.215	4487.44
610.411	4858.12
610.606	5028.1
610.802	5048.58
610.998	5200.13
611.193	5331.2
611.389	5333.25
611.584	5779.71
611.78	5699.84
611.976	5927.16
612.171	6162.68
612.367	6211.83
612.562	6502.64
612.758	6623.47
612.953	6484.21
613.149	6877.42
613.344	6973.67
613.539	7354.6
613.735	7373.03
613.93	7694.56
614.126	7682.27
614.321	8136.92
614.517	8397.01
614.712	8288.47
614.907	8511.7
615.103	8974.54
615.298	9087.18
615.493	9392.33
615.688	9371.85
615.884	9840.83
616.079	9889.98
616.274	10332.34
616.47	10354.87
616.665	10940.59
616.86	11231.4
617.055	11366.57
617.25	11354.28
617.445	11997.34
617.641	11913.38
617.836	12560.53
618.031	12642.45
618.226	13373.58
618.421	13334.67
618.616	13625.48
618.811	13783.17
619.006	14487.67
619.201	14526.58
619.396	14966.9
619.591	15001.71
619.786	15878.24
619.981	16087.14
620.176	16644.18
620.371	16511.07
620.566	16998.48
620.761	17289.29
620.956	17948.74
621.151	17832.01
621.346	18612.28
621.541	18556.99
621.735	19193.9
621.93	19259.44
622.125	19718.18
622.32	19816.49
622.515	20525.08
622.709	20844.57
622.904	21405.71
623.099	21659.66
623.294	22202.37
623.488	22077.44
623.683	22845.43
623.878	22771.71
624.072	23482.35
624.267	23846.89
624.462	24551.39
624.656	24276.96
624.851	24958.94
625.046	25071.57
625.24	25774.03
625.435	25890.76
625.629	26173.38
625.824	26714.05
626.018	26773.44
626.213	26742.72
626.407	27369.4
626.602	27735.98
626.796	28309.41
626.991	28450.72
627.185	28903.32
627.38	28821.41
627.574	28888.99
627.768	29335.45
627.963	29335.45
628.157	29425.56
628.352	29777.81
628.546	29511.57
628.74	29859.73
628.935	29781.9
629.129	30023.56
629.323	29603.73
629.517	29704.08
629.712	29190.04
629.906	29013.91
630.1	28489.63
630.294	29093.79
630.489	28264.36
630.683	27959.21
630.877	27105.21
631.071	26918.84
631.265	26763.2
631.459	26079.18
631.653	25726.92
631.848	25389.01
632.042	24709.08
632.236	24131.56
632.43	23308.27
632.624	23107.57
632.818	22048.77
633.012	21723.15
633.206	20910.1
633.4	20426.78
633.594	19320.88
633.788	19202.1
633.982	18665.53
634.176	17936.45
634.369	17154.13
634.563	16220.25
634.757	15736.93
634.951	15046.77
635.145	14745.72
635.339	14252.16
635.533	13521.03
635.726	13209.74
635.92	12429.46
636.114	12019.87
636.308	11481.25
636.501	11200.68
636.695	10692.79
636.889	10268.86
637.083	9730.24
637.276	9416.9
637.47	9035.98
637.664	8614.1
637.857	8153.3
638.051	7848.16
638.244	7622.88
638.438	7442.66
638.632	7260.39
638.825	6793.45
639.019	6418.68
639.212	6129.91
639.406	6099.19
639.599	5730.56
639.793	5693.69
639.986	5257.48
640.18	5212.42
640.373	4919.56
640.567	4741.39
640.76	4604.18
640.954	4387.09
641.147	4155.67
641.34	4178.2
641.534	3983.64
641.727	3823.9
641.92	3643.68
642.114	3467.55
642.307	3395.87
642.5	3301.67
642.694	3068.2
642.887	2863.4
643.08	2941.22
643.273	2933.03
643.467	2724.14
643.66	2631.98
643.853	2539.82
644.046	2359.6
644.239	2378.03
644.432	2210.1
644.626	2126.13
644.819	2009.4
645.012	1980.73
645.205	1896.76
645.398	1784.12
645.591	1782.07
645.784	1743.16
645.977	1634.62
646.17	1546.56
646.363	1507.65
646.556	1392.96
646.749	1438.02
646.942	1202.5
647.135	1390.91
647.328	1188.16
647.521	1206.59
647.714	1120.58
647.907	1087.81
648.099	1079.62
648.292	1001.8
648.485	1030.47
648.678	966.98
648.871	921.93
649.064	862.54
649.256	721.23
649.449	788.81
649.642	676.17
649.835	760.14
650.027	745.8
650.22	745.8
650.413	686.41
650.605	778.57
650.798	643.4
650.991	584.01
651.183	719.18
651.376	541.01
651.568	665.93
651.761	524.62
651.954	624.97
652.146	487.76
652.339	475.47
652.531	553.29
652.724	391.5
652.916	479.57
653.109	371.02
653.301	409.94
653.494	459.09
653.686	440.65
653.879	528.72
654.071	495.95
654.263	383.31
654.456	346.45
654.648	471.37
654.84	323.92
655.033	239.95
655.225	481.61
655.417	270.67
655.61	514.38
655.802	328.02
655.994	360.78
656.186	262.48
656.379	424.27
656.571	303.44
656.763	325.97
656.955	217.43
657.148	287.06
657.34	289.1
657.532	213.33
657.724	274.77
657.916	311.63
658.108	254.29
658.3	235.86
658.492	303.44
658.684	178.51
658.876	346.45
659.068	164.18
659.26	176.47
659.452	244.05
659.644	244.05
659.836	366.93
660.028	217.43
660.22	237.91
660.412	270.67
660.604	225.62
660.796	178.51
660.988	266.58
661.18	239.95
661.372	264.53
661.563	233.81
661.755	194.9
661.947	180.56
662.139	112.98
662.331	178.51
662.522	164.18
662.714	82.26
662.906	139.6
663.097	184.66
663.289	174.42
663.481	78.16
663.673	176.47
663.864	166.23
664.056	237.91
664.247	88.4
664.439	219.47
664.631	184.66
664.822	207.19
665.014	186.71
665.205	139.6
665.397	145.75
665.588	166.23
665.78	180.56
665.971	219.47
666.163	145.75
666.354	160.08
666.546	119.12
666.737	182.61
666.929	131.41
667.12	143.7
667.311	248.15
667.503	110.93
667.694	194.9
667.885	190.8
668.077	239.95
668.268	96.6
668.459	211.28
668.651	258.39
668.842	178.51
669.033	127.32
669.224	67.92
669.416	364.88
669.607	143.7
669.798	158.03
669.989	217.43
670.18	123.22
670.371	250.19
670.563	98.64
670.754	274.77
670.945	198.99
671.136	258.39
671.327	160.08
671.518	280.91
671.709	297.3
671.9	201.04
672.091	328.02
672.282	262.48
672.473	176.47
672.664	145.75
672.855	186.71
673.046	135.51
673.237	250.19
673.428	192.85
673.619	393.55
673.809	176.47
674	299.34
674.191	282.96
674.382	205.14
674.573	229.71
674.764	242
674.954	278.87
675.145	201.04
675.336	239.95
675.527	184.66
675.717	233.81
675.908	178.51
676.099	188.75
676.289	233.81
676.48	135.51
676.671	244.05
676.861	139.6
677.052	272.72
677.243	250.19
677.433	254.29
677.624	258.39
677.814	254.29
678.005	237.91
678.195	373.07
678.386	215.38
678.576	287.06
678.767	289.1
678.957	229.71
679.148	409.94
679.338	334.16
679.529	297.3
679.719	266.58
679.909	381.26
680.1	430.41
680.29	379.22
680.481	291.15
680.671	334.16
680.861	328.02
681.052	328.02
681.242	264.53
681.432	373.07
681.622	348.5
681.813	274.77
682.003	336.21
682.193	258.39
682.383	295.25
682.573	356.69
682.764	287.06
682.954	354.64
683.144	409.94
683.334	350.54
683.524	377.17
683.714	395.6
683.904	362.83
684.094	346.45
684.284	459.09
684.474	467.28
684.664	418.13
684.854	479.57
685.044	377.17
685.234	401.74
685.424	371.02
685.614	332.11
685.804	522.57
685.994	393.55
686.184	414.03
686.374	354.64
686.564	489.81
686.753	373.07
686.943	377.17
687.133	373.07
687.323	414.03
687.513	459.09
687.702	500.05
687.892	407.89
688.082	426.32
688.272	446.8
688.461	457.04
688.651	481.61
688.841	454.99
689.03	233.81
689.22	426.32
689.41	409.94
689.599	414.03
689.789	348.5
689.979	424.27
690.168	416.08
690.358	377.17
690.547	401.74
690.737	416.08
690.926	399.7
691.116	317.78
691.305	530.77
691.495	426.32
691.684	317.78
691.874	385.36
692.063	450.89
692.252	424.27
692.442	407.89
692.631	391.5
692.82	381.26
693.01	366.93
693.199	428.37
693.388	328.02
693.578	350.54
693.767	287.06
693.956	391.5
694.146	293.2
694.335	436.56
694.524	368.98
694.713	524.62
694.902	309.58
695.092	291.15
695.281	414.03
695.47	366.93
695.659	395.6
695.848	254.29
696.037	315.73
696.226	364.88
696.415	319.82
696.604	426.32
696.793	389.46
696.982	266.58
697.171	373.07
697.36	317.78
697.549	336.21
697.738	188.75
697.927	217.43
698.116	270.67
698.305	344.4
698.494	346.45
698.683	291.15
698.872	436.56
699.061	368.98
699.25	260.43
699.438	321.87
699.627	313.68
699.816	393.55
700.005	301.39
700.193	305.49
700.382	397.65
700.571	328.02
700.76	315.73
700.948	348.5
701.137	377.17
701.326	356.69
701.514	285.01
701.703	328.02
701.892	332.11
702.08	383.31
702.269	334.16
702.457	272.72
702.646	377.17
702.834	270.67
703.023	348.5
703.212	352.59
703.4	319.82
703.589	258.39
703.777	266.58
703.965	291.15
704.154	248.15
704.342	242
704.531	254.29
704.719	274.77
704.907	373.07
705.096	258.39
705.284	192.85
705.472	262.48
705.661	287.06
705.849	414.03
706.037	373.07
706.226	315.73
706.414	272.72
706.602	274.77
706.79	274.77
706.979	252.24
707.167	246.1
707.355	225.62
707.543	225.62
707.731	305.49
707.919	246.1
708.107	250.19
708.296	231.76
708.484	233.81
708.672	338.26
708.86	266.58
709.048	315.73
709.236	328.02
709.424	424.27
709.612	291.15
709.8	233.81
709.988	207.19
710.176	389.46
710.364	395.6
710.551	315.73
710.739	295.25
710.927	233.81
711.115	268.63
711.303	389.46
711.491	368.98
711.679	291.15
711.866	387.41
712.054	354.64
712.242	383.31
712.43	328.02
712.617	340.3
712.805	371.02
712.993	323.92
713.181	201.04
713.368	332.11
713.556	297.3
713.744	356.69
713.931	426.32
714.119	414.03
714.306	315.73
714.494	264.53
714.682	299.34
714.869	282.96
715.057	330.06
715.244	246.1
715.432	352.59
715.619	291.15
715.807	330.06
715.994	254.29
716.182	334.16
716.369	299.34
716.556	407.89
716.744	246.1
716.931	217.43
717.119	350.54
717.306	307.54
717.493	360.78
717.681	276.82
717.868	381.26
718.055	342.35
718.242	336.21
718.43	422.22
718.617	424.27
718.804	307.54
718.991	459.09
719.179	342.35
719.366	371.02
719.553	381.26
719.74	350.54
719.927	360.78
720.114	334.16
720.301	307.54
720.488	282.96
720.676	340.3
720.863	446.8
721.05	508.24
721.237	401.74
721.424	483.66
721.611	321.87
721.798	340.3
721.985	301.39
722.172	383.31
722.358	371.02
722.545	446.8
722.732	405.84
722.919	440.65
723.106	379.22
723.293	348.5
723.48	418.13
723.667	350.54
723.853	381.26
724.04	373.07
724.227	411.98
724.414	364.88
724.6	432.46
724.787	485.71
724.974	510.29
725.161	426.32
725.347	264.53
725.534	424.27
725.72	391.5
725.907	381.26
726.094	516.43
726.28	368.98
726.467	434.51
726.653	334.16
726.84	422.22
727.027	452.94
727.213	352.59
727.4	491.85
727.586	442.7
727.773	459.09
727.959	409.94
728.145	506.19
728.332	379.22
728.518	432.46
728.705	495.95
728.891	459.09
729.077	504.14
729.264	393.55
729.45	434.51
729.636	467.28
729.823	454.99
730.009	512.33
730.195	549.2
730.382	477.52
730.568	334.16
730.754	430.41
730.94	491.85
731.126	457.04
731.313	446.8
731.499	405.84
731.685	491.85
731.871	516.43
732.057	469.33
732.243	414.03
732.429	477.52
732.615	508.24
732.801	504.14
732.987	475.47
733.173	465.23
733.359	395.6
733.545	569.68
733.731	506.19
733.917	561.48
734.103	428.37
734.289	493.9
734.475	457.04
734.661	608.59
734.847	563.53
735.033	516.43
735.219	639.31
735.404	534.86
735.59	477.52
735.776	553.29
735.962	514.38
736.148	526.67
736.333	594.25
736.519	551.24
736.705	528.72
736.89	485.71
737.076	577.87
737.262	418.13
737.447	403.79
737.633	483.66
737.819	590.16
738.004	512.33
738.19	475.47
738.375	549.2
738.561	514.38
738.747	526.67
738.932	426.32
739.118	618.83
739.303	579.92
739.489	526.67
739.674	538.96
739.859	446.8
740.045	573.77
740.23	543.05
740.416	487.76
740.601	541.01
740.786	530.77
740.972	528.72
741.157	522.57
741.342	432.46
741.528	502.09
741.713	545.1
741.898	541.01
742.084	434.51
742.269	493.9
742.454	655.69
742.639	536.91
742.824	487.76
743.01	624.97
743.195	639.31
743.38	561.48
743.565	487.76
743.75	600.4
743.935	598.35
744.12	526.67
744.305	432.46
744.49	463.18
744.675	565.58
744.86	405.84
745.045	594.25
745.23	594.25
745.415	493.9
745.6	637.26
745.785	430.41
745.97	627.02
746.155	504.14
746.34	514.38
746.525	536.91
746.71	528.72
746.895	387.41
747.079	405.84
747.264	446.8
747.449	530.77
747.634	489.81
747.819	571.72
748.003	465.23
748.188	362.83
748.373	528.72
748.557	489.81
748.742	471.37
748.927	500.05
749.111	397.65
749.296	487.76
749.481	467.28
749.665	483.66
749.85	428.37
750.034	545.1
750.219	444.75
750.404	454.99
750.588	485.71
750.773	500.05
750.957	446.8
751.141	479.57
751.326	422.22
751.51	332.11
751.695	411.98
751.879	418.13
752.064	614.73
752.248	348.5
752.432	491.85
752.617	491.85
752.801	405.84
752.985	393.55
753.17	477.52
753.354	473.42
753.538	416.08
753.722	352.59
753.907	348.5
754.091	364.88
754.275	438.61
754.459	409.94
754.643	274.77
754.828	360.78
755.012	391.5
755.196	309.58
755.38	307.54
755.564	350.54
755.748	389.46
755.932	395.6
756.116	328.02
756.3	393.55
756.484	311.63
756.668	387.41
756.852	233.81
757.036	356.69
757.22	280.91
757.404	354.64
757.588	397.65
757.772	346.45
757.956	323.92
758.14	397.65
758.323	252.24
758.507	364.88
758.691	297.3
758.875	364.88
759.059	418.13
759.242	207.19
759.426	360.78
759.61	364.88
759.794	323.92
759.977	403.79
760.161	487.76
760.345	373.07
760.528	321.87
760.712	364.88
760.895	389.46
761.079	268.63
761.263	242
761.446	289.1
761.63	272.72
761.813	364.88
761.997	211.28
762.18	242
762.364	348.5
762.547	112.98
762.731	266.58
762.914	239.95
763.098	270.67
763.281	190.8
763.464	244.05
763.648	344.4
763.831	307.54
764.015	217.43
764.198	393.55
764.381	246.1
764.564	149.84
764.748	203.09
764.931	266.58
765.114	219.47
765.297	323.92
765.481	217.43
765.664	201.04
765.847	188.75
766.03	248.15
766.213	270.67
766.397	246.1
766.58	233.81
766.763	285.01
766.946	201.04
767.129	227.67
767.312	151.89
767.495	260.43
767.678	123.22
767.861	213.33
768.044	192.85
768.227	139.6
768.41	196.95
768.593	237.91
768.776	254.29
768.959	198.99
769.142	319.82
769.324	205.14
769.507	262.48
769.69	221.52
769.873	285.01
770.056	311.63
770.239	149.84
770.421	293.2
770.604	176.47
770.787	246.1
770.97	184.66
771.152	229.71
771.335	147.8
771.518	133.46
771.7	194.9
771.883	309.58
772.066	137.56
772.248	205.14
772.431	293.2
772.613	162.13
772.796	184.66
772.978	289.1
773.161	258.39
773.343	102.74
773.526	127.32
773.708	65.88
773.891	139.6
774.073	180.56
774.256	119.12
774.438	262.48
774.621	143.7
774.803	227.67
774.985	145.75
775.168	237.91
775.35	135.51
775.532	160.08
775.715	153.94
775.897	207.19
776.079	131.41
776.261	207.19
776.444	201.04
776.626	149.84
776.808	104.79
776.99	123.22
777.173	182.61
777.355	153.94
777.537	174.42
777.719	149.84
777.901	119.12
778.083	86.36
778.265	59.73
778.447	125.27
778.629	78.16
778.811	86.36
778.993	174.42
779.175	125.27
779.357	53.59
779.539	59.73
779.721	115.03
779.903	280.91
780.085	80.21
780.267	168.27
780.449	119.12
780.631	92.5
780.812	203.09
780.994	104.79
781.176	160.08
781.358	151.89
781.54	115.03
781.721	135.51
781.903	117.08
782.085	61.78
782.267	166.23
782.448	-1.71
782.63	100.69
782.812	53.59
782.993	123.22
783.175	125.27
783.357	16.73
783.538	162.13
783.72	63.83
783.901	115.03
784.083	143.7
784.264	61.78
784.446	-30.38
784.627	12.63
784.809	172.37
784.99	43.35
785.172	168.27
785.353	65.88
785.535	100.69
785.716	65.88
785.897	33.11
786.079	182.61
786.26	35.16
786.441	100.69
786.623	51.54
786.804	-7.85
786.985	133.46
787.167	59.73
787.348	51.54
787.529	86.36
787.71	178.51
787.891	53.59
788.073	35.16
788.254	117.08
788.435	295.25
788.616	92.5
788.797	24.92
788.978	82.26
789.159	72.02
789.34	94.55
789.522	12.63
789.703	10.58
789.884	86.36
790.065	76.12
790.246	180.56
790.427	127.32
790.607	158.03
790.788	233.81
790.969	43.35
791.15	108.88
791.331	92.5
791.512	102.74
791.693	-24.23
791.874	90.45
792.054	235.86
792.235	155.99
792.416	59.73
792.597	20.82
792.778	98.64
792.958	112.98
793.139	80.21
793.32	35.16
793.5	-38.57
793.681	174.42
793.862	121.17
794.042	94.55
794.223	51.54
794.404	-1.71
794.584	-36.52
794.765	6.49
794.945	61.78
795.126	106.84
795.306	115.03
795.487	26.96
795.667	65.88
795.848	31.06
796.028	41.3
796.209	24.92
796.389	49.49
796.57	80.21
796.75	-24.23
796.93	59.73
797.111	-32.43
797.291	39.25
797.471	119.12
797.652	14.68
797.832	84.31
798.012	55.64
798.192	-9.9
798.373	45.4
798.553	16.73
798.733	127.32
798.913	22.87
799.093	6.49
799.274	110.93
799.454	35.16
799.634	160.08
799.814	119.12
799.994	69.97
800.174	-3.75
800.354	55.64
800.534	-22.19
800.714	29.01
800.894	-71.34
801.074	-20.14
801.254	33.11
801.434	88.4
801.614	26.96
801.794	16.73
801.974	1687.87
802.154	14.68
802.334	96.6
802.514	-7.85
802.693	94.55
802.873	49.49
803.053	127.32
803.233	33.11
803.413	65.88
803.592	4.44
803.772	-50.86
803.952	55.64
804.131	-46.76
804.311	37.2
804.491	59.73
804.67	16.73
804.85	-24.23
805.03	69.97
805.209	86.36
805.389	12.63
805.568	-71.34
805.748	-3.75
805.928	22.87
806.107	59.73
806.287	39.25
806.466	86.36
806.646	10.58
806.825	14.68
807.004	45.4
807.184	-11.95
807.363	141.65
807.543	117.08
807.722	-13.99
807.901	100.69
808.081	82.26
808.26	-61.1
808.439	22.87
808.619	6.49
808.798	-24.23
808.977	37.2
809.156	33.11
809.336	108.88
809.515	106.84
809.694	-48.81
809.873	-75.43
810.052	115.03
810.231	78.16
810.411	8.53
810.59	141.65
810.769	59.73
810.948	76.12
811.127	-24.23
811.306	-5.8
811.485	69.97
811.664	131.41
811.843	102.74
812.022	61.78
812.201	65.88
812.38	69.97
812.559	16.73
812.737	14.68
812.916	-18.09
813.095	-26.28
813.274	37.2
813.453	106.84
813.632	37.2
813.811	61.78
813.989	-46.76
814.168	-30.38
814.347	-5.8
814.526	82.26
814.704	209.23
814.883	149.84
815.062	-3.75
815.24	112.98
815.419	12.63
815.598	37.2
815.776	-77.48
815.955	55.64
816.133	-102.06
816.312	-54.95
816.49	-18.09
816.669	-9.9
816.847	0.34
817.026	78.16
817.204	108.88
817.383	35.16
817.561	-93.87
817.74	98.64
817.918	37.2
818.097	31.06
818.275	6.49
818.453	92.5
818.632	59.73
818.81	-16.04
818.988	-52.91
819.167	-57
819.345	2.39
819.523	39.25
819.701	53.59
819.879	45.4
820.058	2.39
820.236	104.79
820.414	26.96
820.592	-24.23
820.77	53.59
820.948	-48.81
821.127	-1.71
821.305	94.55
821.483	-36.52
821.661	67.92
821.839	26.96
822.017	-28.33
822.195	-13.99
822.373	74.07
822.551	16.73
822.729	194.9
822.907	41.3
823.085	26.96
823.262	29.01
823.44	-18.09
823.618	-44.71
823.796	0.34
823.974	31.06
824.152	37.2
824.329	-3.75
824.507	121.17
824.685	158.03
824.863	-5.8
825.04	12.63
825.218	82.26
825.396	41.3
825.574	-13.99
825.751	37.2
825.929	16.73
826.107	-16.04
826.284	14.68
826.462	37.2
826.639	-5.8
826.817	-44.71
826.994	90.45
827.172	29.01
827.349	127.32
827.527	92.5
827.704	-11.95
827.882	72.02
828.059	-5.8
828.237	-44.71
828.414	72.02
828.591	-81.58
828.769	4.44
828.946	-5.8
829.124	121.17
829.301	55.64
829.478	-44.71
829.655	20.82
829.833	59.73
830.01	-71.34
830.187	100.69
830.364	-13.99
830.542	-3.75
830.719	106.84
830.896	96.6
831.073	61.78
831.25	20.82
831.427	67.92
831.604	-26.28
831.782	10.58
831.959	65.88
832.136	-79.53
832.313	37.2
832.49	-5.8
832.667	29.01
832.844	35.16
833.021	151.89
833.198	35.16
833.374	37.2
833.551	20.82
833.728	-7.85
833.905	102.74
834.082	-57
834.259	55.64
834.436	61.78
834.612	-57
834.789	45.4
834.966	-5.8
835.143	-13.99
835.319	-120.49
835.496	121.17
835.673	78.16
835.85	67.92
836.026	35.16
836.203	96.6
836.38	2.39
836.556	-69.29
836.733	-22.19
836.909	110.93
837.086	22.87
837.262	-36.52
837.439	-61.1
837.616	-26.28
837.792	-30.38
837.968	-48.81
838.145	-134.82
838.321	53.59
838.498	12.63
838.674	4.44
838.851	10.58
839.027	-32.43
839.203	22.87
839.38	12.63
839.556	-75.43
839.732	63.83
839.909	-26.28
840.085	53.59
840.261	24.92
840.437	-11.95
840.614	37.2
840.79	65.88
840.966	88.4
841.142	33.11
841.318	-63.15
841.494	-11.95
841.671	8.53
841.847	2.39
842.023	-32.43
842.199	-34.47
842.375	65.88
842.551	-54.95
842.727	-61.1
842.903	49.49
843.079	-77.48
843.255	16.73
843.431	20.82
843.607	57.68
843.783	-128.68
843.959	-30.38
844.134	12.63
844.31	61.78
844.486	8.53
844.662	-22.19
844.838	10.58
845.013	80.21
845.189	26.96
845.365	-3.75
845.541	-36.52
845.716	94.55
845.892	80.21
846.068	12.63
846.244	-100.01
846.419	49.49
846.595	-73.39
846.77	-61.1
846.946	6.49
847.122	57.68
847.297	20.82
847.473	168.27
847.648	-34.47
847.824	76.12
847.999	-61.1
848.175	-16.04
848.35	61.78
848.526	82.26
848.701	8.53
848.876	20.82
849.052	69.97
849.227	-5.8
849.403	0.34
849.578	-89.77
849.753	10.58
849.929	96.6
850.104	-24.23
850.279	12.63
850.454	84.31
850.63	29.01
850.805	84.31
850.98	65.88
851.155	39.25
851.33	8.53
851.505	-79.53
851.681	108.88
851.856	-110.25
852.031	45.4
852.206	8.53
852.381	0.34
852.556	12.63
852.731	-5.8
852.906	33.11
853.081	10.58
853.256	8.53
853.431	33.11
853.606	-44.71
853.781	-40.62
853.956	-112.3
854.131	6.49
854.305	-85.67
854.48	-40.62
854.655	41.3
854.83	0.34
855.005	-3.75
855.18	6.49
855.354	-36.52
855.529	16.73
855.704	-28.33
855.879	-3.75
856.053	4.44
856.228	-3.75
856.403	18.77
856.577	102.74
856.752	-59.05
856.926	-69.29
857.101	51.54
857.276	-46.76
857.45	6.49
857.625	86.36
857.799	29.01
857.974	-52.91
858.148	-171.69
858.323	-7.85
858.497	-102.06
858.672	-36.52
858.846	-40.62
859.02	37.2
859.195	-85.67
859.369	37.2
859.543	20.82
859.718	33.11
859.892	53.59
860.066	49.49
860.241	-7.85
860.415	-36.52
860.589	-54.95
860.763	35.16
860.938	-24.23
861.112	104.79
861.286	-22.19
861.46	-7.85
861.634	-22.19
861.808	69.97
861.982	-81.58
862.157	-87.72
862.331	-50.86
862.505	-63.15
862.679	-102.06
862.853	37.2
863.027	-30.38
863.201	31.06
863.375	18.77
863.549	76.12
863.722	82.26
863.896	49.49
864.07	18.77
864.244	-73.39
864.418	41.3
864.592	78.16
864.766	98.64
864.939	-57
865.113	-13.99
865.287	16.73
865.461	-13.99
865.634	-11.95
865.808	18.77
865.982	-36.52
866.156	-71.34
866.329	-67.24
866.503	18.77
866.676	74.07
866.85	-22.19
867.024	-16.04
867.197	55.64
867.371	10.58
867.544	33.11
867.718	-108.2
867.891	47.44
868.065	-85.67
868.238	4.44
868.412	63.83
868.585	16.73
868.759	14.68
868.932	12.63
869.105	-40.62
869.279	8.53
869.452	-97.96
869.625	82.26
869.799	-7.85
869.972	-108.2
870.145	-16.04
870.319	121.17
870.492	-85.67
870.665	0.34
870.838	24.92
871.011	-171.69
871.185	-28.33
871.358	-52.91
871.531	94.55
871.704	-28.33
871.877	-42.67
872.05	-65.19
872.223	-63.15
872.396	53.59
872.569	24.92
872.742	-71.34
872.915	35.16
873.088	-40.62
873.261	-28.33
873.434	47.44
873.607	-11.95
873.78	67.92
873.953	-57
874.126	84.31
874.299	18.77
874.471	-85.67
874.644	-77.48
874.817	-18.09
874.99	166.23
875.163	-36.52
875.335	14.68
875.508	12.63
875.681	100.69
875.853	-52.91
876.026	-11.95
876.199	47.44
876.371	16.73
876.544	-54.95
876.717	33.11
876.889	-69.29
877.062	37.2
877.234	-46.76
877.407	-44.71
877.579	24.92
877.752	-24.23
877.924	41.3
878.097	-5.8
878.269	45.4
878.442	14.68
878.614	12.63
878.786	-34.47
878.959	22.87
879.131	26.96
879.303	-93.87
879.476	-26.28
879.648	76.12
879.82	43.35
879.993	20.82
880.165	10.58
880.337	-97.96
880.509	20.82
880.681	-57
880.854	-95.91
881.026	4.44
881.198	184.66
881.37	33.11
881.542	-38.57
881.714	-28.33
881.886	6.49
882.058	-20.14
882.23	-20.14
882.402	-93.87
882.574	26.96
882.746	76.12
882.918	102.74
883.09	35.16
883.262	-26.28
883.434	39.25
883.606	-11.95
883.778	-71.34
883.95	78.16
884.122	-112.3
884.293	74.07
884.465	35.16
884.637	86.36
884.809	-48.81
884.98	-44.71
885.152	26.96
885.324	12.63
885.496	-20.14
885.667	-3.75
885.839	-16.04
886.011	86.36
886.182	39.25
886.354	4.44
886.525	49.49
886.697	78.16
886.869	-79.53
887.04	-1.71
887.212	78.16
887.383	135.51
887.555	12.63
887.726	-11.95
887.897	-20.14
888.069	-20.14
888.24	119.12
888.412	10.58
888.583	-69.29
888.754	-52.91
888.926	-126.63
889.097	-26.28
889.268	-85.67
889.44	-20.14
889.611	-81.58
889.782	-65.19
889.953	-3.75
890.125	82.26
890.296	-42.67
890.467	-16.04
890.638	-32.43
890.809	-20.14
890.98	-22.19
891.151	-5.8
891.323	98.64
891.494	59.73
891.665	0.34
891.836	69.97
892.007	20.82
892.178	16.73
892.349	24.92
892.52	-52.91
892.691	-36.52
892.862	37.2
893.032	-93.87
893.203	4.44
893.374	-9.9
893.545	49.49
893.716	4.44
893.887	16.73
894.057	26.96
894.228	-20.14
894.399	-38.57
894.57	29.01
894.74	-13.99
894.911	69.97
895.082	-24.23
895.253	-54.95
895.423	-3.75
895.594	102.74
895.764	-46.76
895.935	-73.39
896.106	12.63
896.276	-77.48
896.447	-40.62
896.617	-5.8
896.788	-134.82
896.958	22.87
897.129	-3.75
897.299	-20.14
897.47	84.31
897.64	74.07
897.81	-69.29
897.981	8.53
898.151	-54.95
898.322	8.53
898.492	37.2
898.662	-42.67
898.832	-11.95
899.003	-11.95
899.173	8.53
899.343	-1.71
899.513	-36.52
