Data from USB4F104151__45__11-26-43-591.txt Node

Date: Wed Feb 26 11:26:43 EST 2025
User: louis
Spectrometer: USB4F10415
Trigger mode: 4
Integration Time (sec): 1.000000E-1
Scans to average: 1
Electric dark correction enabled: true
Nonlinearity correction enabled: false
Boxcar width: 0
XAxis mode: Wavelengths
Number of Pixels in Spectrum: 3648
>>>>>Begin Spectral Data<<<<<
178.204	-410.62
178.424	-410.62
178.644	-410.62
178.864	-424.95
179.084	-418.81
179.304	-25.6
179.524	21.5
179.744	-23.55
179.964	115.71
180.184	-5.12
180.404	-41.98
180.624	35.84
180.844	23.55
181.064	-72.7
181.283	-1.02
181.503	-62.46
181.723	35.84
181.943	-121.85
182.163	162.81
182.383	-50.18
182.602	58.37
182.822	150.53
183.042	132.09
183.262	-13.31
183.482	37.89
183.701	11.26
183.921	58.37
184.141	29.7
184.361	101.37
184.58	95.23
184.8	23.55
185.02	19.46
185.239	48.13
185.459	76.8
185.679	107.52
185.898	-93.18
186.118	27.65
186.338	52.22
186.557	84.99
186.777	-60.42
186.997	-37.89
187.216	-41.98
187.436	201.72
187.655	74.75
187.875	66.56
188.095	-54.27
188.314	82.94
188.534	123.9
188.753	-62.46
188.973	87.04
189.192	224.25
189.412	37.89
189.631	1.02
189.851	46.08
190.07	121.85
190.29	-87.04
190.509	-35.84
190.729	35.84
190.948	111.61
191.168	166.91
191.387	78.85
191.607	48.13
191.826	-3.07
192.045	66.56
192.265	-44.03
192.484	9.22
192.704	-35.84
192.923	-123.9
193.142	203.77
193.362	105.47
193.581	125.95
193.8	89.09
194.02	31.74
194.239	9.22
194.458	56.32
194.678	76.8
194.897	-21.5
195.116	70.65
195.335	84.99
195.555	37.89
195.774	3.07
195.993	78.85
196.212	-3.07
196.432	52.22
196.651	-31.74
196.87	3.07
197.089	234.49
197.308	74.75
197.528	60.42
197.747	-41.98
197.966	52.22
198.185	115.71
198.404	-74.75
198.623	125.95
198.842	136.19
199.062	121.85
199.281	70.65
199.5	5.12
199.719	41.98
199.938	66.56
200.157	95.23
200.376	101.37
200.595	56.32
200.814	142.33
201.033	17.41
201.252	183.29
201.471	33.79
201.69	138.24
201.909	54.27
202.128	82.94
202.347	52.22
202.566	-17.41
202.785	-58.37
203.004	-70.65
203.223	250.88
203.442	35.84
203.661	-128
203.879	130.05
204.098	74.75
204.317	-33.79
204.536	93.18
204.755	-5.12
204.974	125.95
205.193	9.22
205.411	130.05
205.63	41.98
205.849	50.18
206.068	5.12
206.287	1.02
206.505	117.76
206.724	35.84
206.943	19.46
207.162	-1.02
207.381	60.42
207.599	41.98
207.818	74.75
208.037	-60.42
208.255	54.27
208.474	-56.32
208.693	89.09
208.911	15.36
209.13	154.62
209.349	91.13
209.567	54.27
209.786	154.62
210.005	41.98
210.223	-25.6
210.442	-99.33
210.661	54.27
210.879	72.7
211.098	33.79
211.316	58.37
211.535	48.13
211.753	84.99
211.972	99.33
212.191	29.7
212.409	-31.74
212.628	103.42
212.846	11.26
213.065	52.22
213.283	144.38
213.502	31.74
213.72	29.7
213.938	66.56
214.157	-5.12
214.375	111.61
214.594	60.42
214.812	134.14
215.031	-11.26
215.249	56.32
215.467	91.13
215.686	29.7
215.904	70.65
216.122	56.32
216.341	130.05
216.559	54.27
216.778	150.53
216.996	111.61
217.214	27.65
217.432	9.22
217.651	-80.89
217.869	93.18
218.087	23.55
218.306	3.07
218.524	46.08
218.742	-1.02
218.96	87.04
219.179	60.42
219.397	35.84
219.615	203.77
219.833	91.13
220.051	76.8
220.27	111.61
220.488	99.33
220.706	62.46
220.924	13.31
221.142	-21.5
221.36	54.27
221.578	64.51
221.796	64.51
222.015	60.42
222.233	84.99
222.451	183.29
222.669	-60.42
222.887	72.7
223.105	5.12
223.323	60.42
223.541	-35.84
223.759	60.42
223.977	35.84
224.195	54.27
224.413	97.28
224.631	78.85
224.849	48.13
225.067	179.2
225.285	-68.61
225.503	60.42
225.721	-21.5
225.939	27.65
226.157	15.36
226.375	228.35
226.592	-17.41
226.81	33.79
227.028	52.22
227.246	111.61
227.464	132.09
227.682	207.87
227.9	31.74
228.117	74.75
228.335	54.27
228.553	117.76
228.771	-82.94
228.989	31.74
229.206	144.38
229.424	-15.36
229.642	-19.46
229.86	37.89
230.077	119.81
230.295	74.75
230.513	84.99
230.731	33.79
230.948	58.37
231.166	148.48
231.384	21.5
231.601	-35.84
231.819	185.34
232.037	-60.42
232.254	-19.46
232.472	-54.27
232.689	19.46
232.907	111.61
233.125	46.08
233.342	-35.84
233.56	39.94
233.777	23.55
233.995	-29.7
234.213	80.89
234.43	56.32
234.648	58.37
234.865	-46.08
235.083	-19.46
235.3	68.61
235.518	117.76
235.735	142.33
235.953	99.33
236.17	46.08
236.388	-11.26
236.605	146.43
236.822	146.43
237.04	72.7
237.257	54.27
237.475	-39.94
237.692	82.94
237.909	87.04
238.127	-44.03
238.344	140.29
238.562	50.18
238.779	-33.79
238.996	9.22
239.214	97.28
239.431	93.18
239.648	13.31
239.865	103.42
240.083	-13.31
240.3	-31.74
240.517	-62.46
240.735	33.79
240.952	175.1
241.169	64.51
241.386	29.7
241.603	19.46
241.821	-82.94
242.038	5.12
242.255	95.23
242.472	-11.26
242.689	56.32
242.907	78.85
243.124	95.23
243.341	-33.79
243.558	1.02
243.775	-35.84
243.992	-72.7
244.209	181.25
244.426	181.25
244.643	37.89
244.86	89.09
245.078	132.09
245.295	52.22
245.512	-15.36
245.729	54.27
245.946	29.7
246.163	107.52
246.38	-1.02
246.597	23.55
246.814	31.74
247.031	-82.94
247.248	5.12
247.464	130.05
247.681	80.89
247.898	82.94
248.115	33.79
248.332	-23.55
248.549	31.74
248.766	218.11
248.983	99.33
249.2	48.13
249.417	95.23
249.633	-35.84
249.85	64.51
250.067	95.23
250.284	60.42
250.501	95.23
250.717	52.22
250.934	21.5
251.151	-27.65
251.368	37.89
251.585	99.33
251.801	64.51
252.018	19.46
252.235	101.37
252.451	-58.37
252.668	91.13
252.885	62.46
253.102	-7.17
253.318	23.55
253.535	-33.79
253.752	52.22
253.968	-31.74
254.185	-41.98
254.401	132.09
254.618	66.56
254.835	-64.51
255.051	173.05
255.268	111.61
255.484	11.26
255.701	48.13
255.917	33.79
256.134	-97.28
256.351	74.75
256.567	-21.5
256.784	44.03
257	-13.31
257.217	39.94
257.433	97.28
257.65	33.79
257.866	113.66
258.082	-50.18
258.299	-7.17
258.515	138.24
258.732	15.36
258.948	-35.84
259.165	39.94
259.381	-142.33
259.597	58.37
259.814	-25.6
260.03	50.18
260.246	52.22
260.463	44.03
260.679	105.47
260.895	99.33
261.112	62.46
261.328	3.07
261.544	-25.6
261.761	142.33
261.977	21.5
262.193	-19.46
262.409	128
262.626	-25.6
262.842	37.89
263.058	54.27
263.274	72.7
263.49	39.94
263.707	35.84
263.923	52.22
264.139	-35.84
264.355	74.75
264.571	177.15
264.787	82.94
265.004	89.09
265.22	68.61
265.436	35.84
265.652	119.81
265.868	58.37
266.084	-60.42
266.3	41.98
266.516	-33.79
266.732	70.65
266.948	50.18
267.164	44.03
267.38	115.71
267.596	60.42
267.812	138.24
268.028	64.51
268.244	-11.26
268.46	31.74
268.676	-46.08
268.892	130.05
269.108	1.02
269.324	-41.98
269.54	-64.51
269.756	64.51
269.972	-1.02
270.188	107.52
270.403	-15.36
270.619	-48.13
270.835	148.48
271.051	5.12
271.267	-21.5
271.483	-68.61
271.698	148.48
271.914	68.61
272.13	113.66
272.346	-19.46
272.562	33.79
272.777	144.38
272.993	5.12
273.209	-52.22
273.425	138.24
273.64	-58.37
273.856	119.81
274.072	-52.22
274.287	-9.22
274.503	150.53
274.719	150.53
274.934	-52.22
275.15	-60.42
275.366	-5.12
275.581	-82.94
275.797	50.18
276.012	84.99
276.228	17.41
276.444	95.23
276.659	115.71
276.875	7.17
277.09	-82.94
277.306	9.22
277.521	17.41
277.737	21.5
277.952	64.51
278.168	-35.84
278.383	89.09
278.599	76.8
278.814	56.32
279.03	54.27
279.245	113.66
279.461	44.03
279.676	50.18
279.892	-72.7
280.107	-17.41
280.322	-138.24
280.538	80.89
280.753	-48.13
280.969	25.6
281.184	44.03
281.399	197.63
281.615	39.94
281.83	74.75
282.045	-52.22
282.26	76.8
282.476	7.17
282.691	142.33
282.906	62.46
283.122	23.55
283.337	29.7
283.552	177.15
283.767	-17.41
283.983	44.03
284.198	44.03
284.413	56.32
284.628	-109.57
284.843	-25.6
285.058	87.04
285.274	37.89
285.489	-93.18
285.704	54.27
285.919	-48.13
286.134	7.17
286.349	78.85
286.564	3.07
286.779	138.24
286.995	9.22
287.21	-105.47
287.425	19.46
287.64	23.55
287.855	5.12
288.07	-46.08
288.285	76.8
288.5	72.7
288.715	62.46
288.93	-1.02
289.145	-21.5
289.36	89.09
289.575	29.7
289.79	27.65
290.004	-56.32
290.219	89.09
290.434	-60.42
290.649	-31.74
290.864	9.22
291.079	5.12
291.294	35.84
291.509	60.42
291.724	1.02
291.938	93.18
292.153	60.42
292.368	-19.46
292.583	44.03
292.798	56.32
293.012	31.74
293.227	39.94
293.442	-25.6
293.657	56.32
293.871	31.74
294.086	41.98
294.301	193.53
294.516	115.71
294.73	50.18
294.945	-66.56
295.16	44.03
295.374	134.14
295.589	95.23
295.804	-58.37
296.018	19.46
296.233	95.23
296.447	89.09
296.662	3.07
296.877	105.47
297.091	33.79
297.306	5.12
297.52	70.65
297.735	87.04
297.949	39.94
298.164	7.17
298.378	37.89
298.593	1.02
298.807	-60.42
299.022	48.13
299.236	115.71
299.451	-41.98
299.665	-17.41
299.88	39.94
300.094	56.32
300.309	72.7
300.523	70.65
300.737	-31.74
300.952	48.13
301.166	62.46
301.381	-41.98
301.595	46.08
301.809	27.65
302.024	58.37
302.238	-27.65
302.452	117.76
302.667	58.37
302.881	64.51
303.095	33.79
303.309	97.28
303.524	19.46
303.738	-9.22
303.952	-33.79
304.166	52.22
304.381	-84.99
304.595	160.77
304.809	-25.6
305.023	15.36
305.237	-23.55
305.452	46.08
305.666	123.9
305.88	58.37
306.094	136.19
306.308	101.37
306.522	132.09
306.736	54.27
306.95	99.33
307.164	78.85
307.379	60.42
307.593	150.53
307.807	134.14
308.021	74.75
308.235	84.99
308.449	-132.09
308.663	-13.31
308.877	203.77
309.091	76.8
309.305	142.33
309.519	-35.84
309.733	152.57
309.947	-62.46
310.161	52.22
310.374	-11.26
310.588	177.15
310.802	-37.89
311.016	82.94
311.23	21.5
311.444	3.07
311.658	5.12
311.872	31.74
312.085	103.42
312.299	66.56
312.513	154.62
312.727	35.84
312.941	-64.51
313.154	35.84
313.368	64.51
313.582	-11.26
313.796	19.46
314.009	15.36
314.223	144.38
314.437	25.6
314.651	23.55
314.864	-7.17
315.078	35.84
315.292	-56.32
315.505	39.94
315.719	31.74
315.933	27.65
316.146	72.7
316.36	-39.94
316.573	152.57
316.787	148.48
317.001	87.04
317.214	15.36
317.428	68.61
317.641	-78.85
317.855	-50.18
318.068	58.37
318.282	62.46
318.495	269.31
318.709	89.09
318.922	33.79
319.136	193.53
319.349	117.76
319.563	19.46
319.776	62.46
319.99	-33.79
320.203	132.09
320.417	27.65
320.63	68.61
320.843	132.09
321.057	13.31
321.27	-25.6
321.483	72.7
321.697	146.43
321.91	56.32
322.124	19.46
322.337	115.71
322.55	-7.17
322.763	52.22
322.977	33.79
323.19	11.26
323.403	19.46
323.617	64.51
323.83	152.57
324.043	-3.07
324.256	60.42
324.469	-76.8
324.683	113.66
324.896	68.61
325.109	68.61
325.322	-70.65
325.535	117.76
325.748	160.77
325.962	-1.02
326.175	50.18
326.388	84.99
326.601	91.13
326.814	-9.22
327.027	58.37
327.24	191.49
327.453	-64.51
327.666	128
327.879	109.57
328.092	72.7
328.305	23.55
328.518	1.02
328.731	33.79
328.944	37.89
329.157	50.18
329.37	17.41
329.583	168.96
329.796	74.75
330.009	-44.03
330.222	31.74
330.435	103.42
330.648	64.51
330.861	89.09
331.073	23.55
331.286	35.84
331.499	74.75
331.712	-48.13
331.925	48.13
332.138	27.65
332.35	125.95
332.563	-58.37
332.776	150.53
332.989	-37.89
333.202	31.74
333.414	-27.65
333.627	95.23
333.84	72.7
334.053	119.81
334.265	7.17
334.478	46.08
334.691	-3.07
334.903	50.18
335.116	-37.89
335.329	13.31
335.541	111.61
335.754	162.81
335.966	11.26
336.179	33.79
336.392	117.76
336.604	-25.6
336.817	1.02
337.029	39.94
337.242	41.98
337.454	76.8
337.667	54.27
337.88	62.46
338.092	15.36
338.305	27.65
338.517	35.84
338.729	25.6
338.942	66.56
339.154	-15.36
339.367	-23.55
339.579	68.61
339.792	-46.08
340.004	119.81
340.217	56.32
340.429	50.18
340.641	-25.6
340.854	-64.51
341.066	13.31
341.278	111.61
341.491	117.76
341.703	60.42
341.915	41.98
342.128	125.95
342.34	23.55
342.552	31.74
342.764	33.79
342.977	31.74
343.189	46.08
343.401	21.5
343.613	-74.75
343.826	46.08
344.038	-37.89
344.25	50.18
344.462	-52.22
344.674	21.5
344.886	21.5
345.099	52.22
345.311	39.94
345.523	-27.65
345.735	-95.23
345.947	74.75
346.159	23.55
346.371	66.56
346.583	25.6
346.795	168.96
347.007	48.13
347.219	87.04
347.431	-27.65
347.643	173.05
347.855	39.94
348.067	142.33
348.279	-60.42
348.491	19.46
348.703	72.7
348.915	-25.6
349.127	-35.84
349.339	1.02
349.551	11.26
349.763	123.9
349.975	-9.22
350.187	74.75
350.399	222.2
350.61	80.89
350.822	19.46
351.034	62.46
351.246	56.32
351.458	121.85
351.669	82.94
351.881	115.71
352.093	60.42
352.305	117.76
352.517	-1.02
352.728	101.37
352.94	54.27
353.152	64.51
353.363	19.46
353.575	41.98
353.787	218.11
353.999	58.37
354.21	125.95
354.422	-5.12
354.633	13.31
354.845	19.46
355.057	35.84
355.268	13.31
355.48	80.89
355.692	7.17
355.903	-13.31
356.115	-74.75
356.326	-46.08
356.538	148.48
356.749	62.46
356.961	68.61
357.172	58.37
357.384	-64.51
357.595	232.44
357.807	-50.18
358.018	-1.02
358.23	46.08
358.441	183.29
358.653	128
358.864	84.99
359.075	-50.18
359.287	-1.02
359.498	70.65
359.709	48.13
359.921	13.31
360.132	125.95
360.344	-5.12
360.555	-27.65
360.766	70.65
360.977	-29.7
361.189	132.09
361.4	5.12
361.611	142.33
361.823	164.86
362.034	52.22
362.245	13.31
362.456	-1.02
362.667	29.7
362.879	-5.12
363.09	72.7
363.301	111.61
363.512	50.18
363.723	-48.13
363.935	-46.08
364.146	103.42
364.357	-5.12
364.568	29.7
364.779	-29.7
364.99	136.19
365.201	46.08
365.412	109.57
365.623	-113.66
365.834	103.42
366.045	39.94
366.256	93.18
366.467	31.74
366.678	78.85
366.889	52.22
367.1	-62.46
367.311	101.37
367.522	-35.84
367.733	121.85
367.944	78.85
368.155	-56.32
368.366	93.18
368.577	150.53
368.788	166.91
368.999	-105.47
369.209	74.75
369.42	203.77
369.631	261.12
369.842	144.38
370.053	23.55
370.264	107.52
370.474	13.31
370.685	117.76
370.896	74.75
371.107	101.37
371.317	111.61
371.528	99.33
371.739	125.95
371.95	41.98
372.16	17.41
372.371	-64.51
372.582	84.99
372.792	103.42
373.003	33.79
373.214	37.89
373.424	105.47
373.635	-15.36
373.846	74.75
374.056	52.22
374.267	50.18
374.477	107.52
374.688	15.36
374.898	107.52
375.109	105.47
375.319	95.23
375.53	84.99
375.74	115.71
375.951	-1.02
376.161	13.31
376.372	160.77
376.582	60.42
376.793	84.99
377.003	-15.36
377.214	48.13
377.424	103.42
377.635	89.09
377.845	-21.5
378.055	130.05
378.266	39.94
378.476	-41.98
378.686	97.28
378.897	29.7
379.107	58.37
379.317	23.55
379.528	15.36
379.738	132.09
379.948	-50.18
380.158	134.14
380.369	21.5
380.579	-9.22
380.789	74.75
380.999	136.19
381.21	101.37
381.42	183.29
381.63	25.6
381.84	136.19
382.05	93.18
382.261	72.7
382.471	123.9
382.681	11.26
382.891	173.05
383.101	-33.79
383.311	-27.65
383.521	-46.08
383.731	128
383.941	146.43
384.151	-13.31
384.361	-17.41
384.571	-13.31
384.781	21.5
384.991	175.1
385.201	138.24
385.411	154.62
385.621	29.7
385.831	7.17
386.041	33.79
386.251	-39.94
386.461	48.13
386.671	17.41
386.881	52.22
387.091	-37.89
387.301	97.28
387.511	-9.22
387.72	15.36
387.93	101.37
388.14	-58.37
388.35	35.84
388.56	101.37
388.769	105.47
388.979	72.7
389.189	-5.12
389.399	109.57
389.609	44.03
389.818	160.77
390.028	121.85
390.238	76.8
390.447	-56.32
390.657	17.41
390.867	66.56
391.076	3.07
391.286	44.03
391.496	21.5
391.705	-41.98
391.915	19.46
392.125	177.15
392.334	19.46
392.544	136.19
392.753	54.27
392.963	-35.84
393.172	89.09
393.382	-58.37
393.591	252.92
393.801	37.89
394.01	232.44
394.22	84.99
394.429	-13.31
394.639	33.79
394.848	185.34
395.058	23.55
395.267	-13.31
395.477	89.09
395.686	48.13
395.895	187.39
396.105	185.34
396.314	117.76
396.524	54.27
396.733	13.31
396.942	121.85
397.152	76.8
397.361	37.89
397.57	23.55
397.78	-1.02
397.989	50.18
398.198	244.73
398.407	-31.74
398.617	44.03
398.826	56.32
399.035	29.7
399.244	91.13
399.453	37.89
399.663	13.31
399.872	146.43
400.081	-82.94
400.29	111.61
400.499	-5.12
400.708	128
400.917	91.13
401.127	17.41
401.336	-17.41
401.545	267.26
401.754	173.05
401.963	23.55
402.172	76.8
402.381	-39.94
402.59	91.13
402.799	78.85
403.008	179.2
403.217	87.04
403.426	130.05
403.635	-19.46
403.844	17.41
404.053	105.47
404.262	58.37
404.471	207.87
404.68	74.75
404.888	3.07
405.097	11.26
405.306	113.66
405.515	105.47
405.724	-19.46
405.933	152.57
406.142	56.32
406.35	76.8
406.559	44.03
406.768	-19.46
406.977	87.04
407.185	72.7
407.394	44.03
407.603	29.7
407.812	101.37
408.02	89.09
408.229	-17.41
408.438	76.8
408.646	-76.8
408.855	128
409.064	70.65
409.272	-7.17
409.481	107.52
409.69	-27.65
409.898	-1.02
410.107	128
410.315	146.43
410.524	-89.09
410.733	87.04
410.941	52.22
411.15	185.34
411.358	82.94
411.567	175.1
411.775	5.12
411.984	-13.31
412.192	13.31
412.401	13.31
412.609	115.71
412.818	183.29
413.026	107.52
413.234	-37.89
413.443	21.5
413.651	7.17
413.86	52.22
414.068	148.48
414.276	136.19
414.485	9.22
414.693	185.34
414.901	191.49
415.11	78.85
415.318	9.22
415.526	84.99
415.734	138.24
415.943	50.18
416.151	113.66
416.359	62.46
416.567	19.46
416.776	82.94
416.984	107.52
417.192	246.78
417.4	15.36
417.608	-1.02
417.817	-33.79
418.025	130.05
418.233	195.58
418.441	48.13
418.649	-46.08
418.857	-3.07
419.065	179.2
419.273	39.94
419.481	29.7
419.689	80.89
419.897	7.17
420.105	25.6
420.313	56.32
420.521	177.15
420.729	99.33
420.937	46.08
421.145	-1.02
421.353	136.19
421.561	154.62
421.769	68.61
421.977	27.65
422.185	185.34
422.393	76.8
422.601	95.23
422.809	62.46
423.017	62.46
423.224	41.98
423.432	78.85
423.64	82.94
423.848	121.85
424.056	-1.02
424.263	41.98
424.471	-13.31
424.679	191.49
424.887	-62.46
425.094	138.24
425.302	68.61
425.51	82.94
425.718	93.18
425.925	84.99
426.133	-48.13
426.341	224.25
426.548	115.71
426.756	-3.07
426.964	87.04
427.171	21.5
427.379	156.67
427.586	105.47
427.794	89.09
428.001	173.05
428.209	29.7
428.417	158.72
428.624	121.85
428.832	25.6
429.039	95.23
429.247	68.61
429.454	166.91
429.662	236.54
429.869	68.61
430.076	105.47
430.284	160.77
430.491	125.95
430.699	101.37
430.906	242.68
431.114	218.11
431.321	93.18
431.528	95.23
431.736	119.81
431.943	179.2
432.15	171.01
432.358	187.39
432.565	312.32
432.772	21.5
432.979	203.77
433.187	105.47
433.394	240.64
433.601	173.05
433.808	216.06
434.016	259.07
434.223	267.26
434.43	271.36
434.637	232.44
434.844	328.7
435.052	195.58
435.259	232.44
435.466	289.79
435.673	259.07
435.88	252.92
436.087	336.89
436.294	343.03
436.501	267.26
436.708	332.79
436.915	293.88
437.122	402.43
437.329	279.55
437.537	297.98
437.743	322.56
437.95	408.57
438.157	465.91
438.364	392.19
438.571	381.95
438.778	418.81
438.985	531.45
439.192	445.43
439.399	482.3
439.606	439.29
439.813	470.01
440.02	654.33
440.227	654.33
440.433	576.5
440.64	558.07
440.847	510.97
441.054	547.83
441.261	705.53
441.467	601.08
441.674	535.54
441.881	748.53
442.088	590.84
442.294	826.36
442.501	775.16
442.708	824.31
442.914	728.05
443.121	922.61
443.328	943.09
443.534	959.47
443.741	982
443.948	809.97
444.154	898.03
444.361	1135.6
444.568	1072.11
444.774	1115.12
444.981	943.09
445.187	1235.95
445.394	1233.9
445.6	1149.93
445.807	1440.75
446.013	1231.85
446.22	1158.13
446.426	1326.06
446.633	1479.66
446.839	1625.06
447.046	1459.18
447.252	1692.65
447.459	1633.26
447.665	1676.26
447.871	1856.48
448.078	2075.62
448.284	1813.48
448.491	2032.61
448.697	2141.15
448.903	2218.97
449.11	2143.2
449.316	2087.9
449.522	2331.61
449.728	2487.26
449.935	2550.75
450.141	2548.7
450.347	2802.65
450.553	2741.21
450.76	2765.78
450.966	3060.69
451.172	2995.15
451.378	3029.97
451.584	3261.39
451.791	3349.45
451.997	3611.59
452.203	3632.07
452.409	3941.32
452.615	4070.34
452.821	3822.53
453.027	3808.2
453.233	4361.15
453.44	4125.63
453.646	4602.81
453.852	4735.93
454.058	4805.56
454.264	4985.78
454.47	5317.55
454.676	5190.58
454.882	5761.96
455.088	5475.24
455.294	5729.19
455.5	6433.69
455.705	6640.54
455.911	6306.72
456.117	6734.75
456.323	7080.85
456.529	6888.34
456.735	7623.56
456.941	7828.36
457.147	8086.4
457.352	8317.83
457.558	8608.64
457.764	9120.63
457.97	9354.1
458.176	9448.3
458.381	10021.74
458.587	10269.54
458.793	10961.75
458.999	10941.27
459.204	12428.1
459.41	12608.32
459.616	12301.12
459.821	13214.52
460.027	13740.85
460.233	14263.08
460.438	14390.05
460.644	15110.94
460.85	15436.56
461.055	16016.14
461.261	16489.22
461.466	16274.18
461.672	16818.94
461.878	18836.19
462.083	18455.27
462.289	18965.21
462.494	19532.5
462.7	19923.66
462.905	20015.82
463.111	21799.6
463.316	22829.73
463.522	22946.47
463.727	23671.45
463.932	24853.12
464.138	25598.59
464.343	26808.93
464.549	26808.93
464.754	28879.43
464.959	29438.53
465.165	30089.78
465.37	29964.85
465.575	29727.29
465.781	31932.95
465.986	32711.18
466.191	32266.77
466.397	32870.92
466.602	32227.86
466.807	33769.98
467.012	34304.5
467.218	35049.96
467.423	35131.88
467.628	35709.41
467.833	37939.65
468.038	37202.38
468.244	36231.64
468.449	38470.07
468.654	37626.31
468.859	37689.79
469.064	38220.22
469.269	36377.04
469.474	37065.16
469.679	38248.89
469.885	37056.97
470.09	37810.62
470.295	37689.79
470.5	36784.59
470.705	37099.98
470.91	36250.07
471.115	35637.73
471.32	36190.68
471.525	36229.59
471.73	34800.11
471.935	35256.81
472.139	33534.46
472.344	33993.21
472.549	33780.22
472.754	33059.34
472.959	32186.9
473.164	31197.73
473.369	30745.13
473.574	31322.66
473.778	30755.37
473.983	30523.95
474.188	29823.54
474.393	28203.6
474.598	28453.45
474.802	27877.97
475.007	27449.95
475.212	27425.37
475.417	26321.52
475.621	26047.09
475.826	25764.47
476.031	24828.55
476.235	24302.22
476.44	24560.27
476.645	23401.11
476.849	23583.38
477.054	23175.84
477.259	22713
477.463	22676.13
477.668	21895.86
477.872	22104.75
478.077	21246.65
478.282	20845.25
478.486	20583.11
478.691	20542.15
478.895	20263.63
479.1	19940.05
479.304	19903.18
479.509	19063.52
479.713	19413.72
479.918	19022.56
480.122	18524.9
480.326	18758.37
480.531	18778.85
480.735	18496.23
480.94	18049.77
481.144	18819.81
481.348	17726.19
481.553	17912.56
481.757	17132.28
481.961	17724.15
482.166	17582.84
482.37	17486.58
482.574	17052.41
482.778	17175.29
482.983	17226.49
483.187	16837.38
483.391	16964.35
483.595	16622.34
483.8	16380.68
484.004	16542.47
484.208	16464.64
484.412	16040.72
484.616	16001.8
484.821	15657.75
485.025	15176.47
485.229	15469.33
485.433	15133.47
485.637	14943
485.841	14619.42
486.045	14727.97
486.249	14781.21
486.453	14035.75
486.657	14025.51
486.861	14070.57
487.065	13456.18
487.269	13527.86
487.473	12759.87
487.677	13222.71
487.881	13015.87
488.085	12546.88
488.289	12659.52
488.493	12206.92
488.697	12507.97
488.901	11907.91
489.105	11621.2
489.309	11432.79
489.512	11391.83
489.716	11211.6
489.92	10957.66
490.124	10826.59
490.328	10730.33
490.531	10308.45
490.735	10314.59
490.939	10226.53
491.143	9909.1
491.346	9945.96
491.55	9583.47
491.754	9388.91
491.958	9454.45
492.161	9143.16
492.365	9186.16
492.569	8942.46
492.772	8887.16
492.976	8631.16
493.18	8457.09
493.383	8698.75
493.587	8420.22
493.79	8393.6
493.994	8070.02
494.197	8151.94
494.401	8160.13
494.605	7930.76
494.808	8065.92
495.012	7771.02
495.215	8057.73
495.419	7844.74
495.622	7725.96
495.825	7660.43
496.029	7629.71
496.232	7742.35
496.436	7566.22
496.639	7781.26
496.843	7654.28
497.046	7609.23
497.249	7871.37
497.453	7523.21
497.656	7672.71
497.859	7775.11
498.063	7478.16
498.266	7914.38
498.469	7639.95
498.673	7877.51
498.876	7801.74
499.079	7785.35
499.282	7875.46
499.485	8328.06
499.689	7889.8
499.892	8186.76
500.095	7957.38
500.298	8297.35
500.501	8156.04
500.705	8395.65
500.908	8426.37
501.111	8510.33
501.314	8633.21
501.517	8559.49
501.72	8739.71
501.923	8799.1
502.126	8905.59
502.329	9112.44
502.532	9081.72
502.735	9196.4
502.938	9489.26
503.141	9411.44
503.344	9438.06
503.547	9921.38
503.75	9876.33
503.953	10060.65
504.156	10263.4
504.359	10533.73
504.562	10312.55
504.765	10503.01
504.968	10730.33
505.17	11064.15
505.373	11127.64
505.576	11500.37
505.779	11416.4
505.982	11596.62
506.185	12135.24
506.387	12102.47
506.59	12524.35
506.793	12686.14
506.996	12761.92
507.198	13208.37
507.401	13206.33
507.604	13536.05
507.807	13947.69
508.009	14261.03
508.212	14334.76
508.415	14592.8
508.617	15061.79
508.82	15102.75
509.022	15285.01
509.225	16059.15
509.428	16022.28
509.63	16343.81
509.833	16790.27
510.035	17611.51
510.238	17466.1
510.44	17859.31
510.643	18404.07
510.845	18926.3
511.048	19084
511.25	19487.45
511.453	20241.1
511.655	20763.33
511.858	20914.88
512.06	21762.74
512.262	21848.75
512.465	22368.94
512.667	23063.2
512.87	23327.39
513.072	23888.53
513.274	24803.97
513.477	25223.81
513.679	25911.92
513.881	25885.3
514.084	27183.71
514.286	27210.34
514.488	28080.72
514.69	29168.19
514.893	29133.38
515.095	29585.98
515.297	30310.96
515.499	31119.91
515.701	31732.25
515.904	32733.71
516.106	33325.57
516.308	33937.91
516.51	34916.84
516.712	34642.42
516.914	36268.5
517.116	36557.27
517.318	37046.73
517.52	37974.46
517.722	38535.6
517.925	39225.77
518.127	40188.31
518.329	40952.21
518.531	41185.68
518.733	42107.26
518.935	43061.61
519.136	43331.95
519.338	44114.27
519.54	44527.96
519.742	45723.97
519.944	46377.28
520.146	47098.16
520.348	47855.91
520.55	48304.41
520.752	48648.47
520.954	49574.16
521.155	50094.34
521.357	50696.44
521.559	51560.69
521.761	52166.88
521.963	52033.77
522.164	52590.81
522.366	53254.36
522.568	53950.66
522.77	54251.72
522.971	54776
523.173	54505.66
523.375	55492.79
523.576	55386.29
523.778	55783.6
523.98	56393.89
524.181	56369.32
524.383	56373.41
524.584	56926.36
524.786	57063.58
524.988	56680.61
525.189	57297.05
525.391	57649.3
525.592	57376.92
525.794	57671.82
525.995	57393.3
526.197	57344.15
526.398	57536.66
526.6	57565.33
526.801	57454.74
527.003	57254.04
527.204	56864.92
527.406	57452.69
527.607	56832.16
527.808	56740
528.01	55675.05
528.211	55675.05
528.412	56438.95
528.614	55482.55
528.815	55572.66
529.016	55484.59
529.218	54251.72
529.419	54014.15
529.62	53477.58
529.822	53366.99
530.023	52656.35
530.224	52596.96
530.425	52187.36
530.626	51140.85
530.828	50415.87
531.029	51378.42
531.23	50204.93
531.431	49301.78
531.632	49160.47
531.833	48259.36
532.035	47900.97
532.236	47563.05
532.437	47345.97
532.638	46158.14
532.839	45777.22
533.04	45662.54
533.241	44456.28
533.442	44806.48
533.643	44190.05
533.844	43157.87
534.045	42365.31
534.246	41406.86
534.447	41693.57
534.648	40878.48
534.849	40417.69
535.05	39584.16
535.251	39408.04
535.451	39027.12
535.652	38304.18
535.853	37800.38
536.054	37544.39
536.255	37018.06
536.456	36057.56
536.657	36268.5
536.857	35398.12
537.058	34755.05
537.259	34593.26
537.46	34044.41
537.66	33778.17
537.861	33206.79
538.062	32735.76
538.263	32274.96
538.463	32092.69
538.664	31605.28
538.865	30986.79
539.065	30773.8
539.266	30233.14
539.466	30167.6
539.667	29403.71
539.868	29180.48
540.068	29049.41
540.269	28570.19
540.469	28074.58
540.67	28142.16
540.87	27857.49
541.071	27167.33
541.271	26999.4
541.472	26677.86
541.672	25981.56
541.873	25733.75
542.073	25471.61
542.274	25780.85
542.474	25148.03
542.675	25059.97
542.875	24695.43
543.075	24203.92
543.276	23841.43
543.476	24162.96
543.676	23319.2
543.877	23169.69
544.077	22909.6
544.277	22796.96
544.478	22637.22
544.678	22489.77
544.878	22045.36
545.078	21707.44
545.279	21549.75
545.479	20941.5
545.679	21029.57
545.879	20581.06
546.079	20511.43
546.28	20294.35
546.48	19831.51
546.68	20034.25
546.88	19854.03
547.08	19528.41
547.28	19024.61
547.48	18875.1
547.68	18809.57
547.88	18201.32
548.081	17998.57
548.281	17603.32
548.481	17689.33
548.681	17597.17
548.881	17261.3
549.081	17357.56
549.28	16784.13
549.48	16782.08
549.68	16569.09
549.88	16300.81
550.08	16038.67
550.28	15608.59
550.48	15700.75
550.68	15399.7
550.88	15250.2
551.08	14904.09
551.279	14803.74
551.479	14215.98
551.679	14428.96
551.879	14105.38
552.079	14021.42
552.278	13751.09
552.478	13501.23
552.678	13251.38
552.878	13024.06
553.077	12895.04
553.277	12571.46
553.477	12792.64
553.676	12211.01
553.876	12053.32
554.076	11826
554.275	11676.49
554.475	11359.06
554.674	11578.19
554.874	11266.9
555.074	10861.4
555.273	10629.98
555.473	10754.91
555.672	10273.64
555.872	10337.12
556.071	10251.11
556.271	10208.1
556.47	10036.07
556.67	9606
556.869	9401.2
557.068	9411.44
557.268	9061.24
557.467	9007.99
557.667	8934.26
557.866	8821.63
558.065	8573.82
558.265	8434.56
558.464	8377.22
558.663	8274.82
558.863	8012.68
559.062	8242.05
559.261	7771.02
559.461	7959.43
559.66	7486.35
559.859	7271.31
560.058	7435.15
560.258	7121.81
560.457	7039.89
560.656	7062.42
560.855	6968.21
561.054	6898.58
561.253	6689.69
561.453	6476.7
561.652	6560.67
561.851	6392.73
562.05	6251.42
562.249	6093.73
562.448	6138.79
562.647	5909.41
562.846	6040.48
563.045	5942.18
563.244	5620.65
563.443	5645.23
563.642	5516.2
563.841	5356.46
564.04	5338.03
564.239	5409.71
564.438	5260.21
564.637	5014.45
564.836	5112.75
565.035	4899.77
565.234	4922.29
565.432	4875.19
565.631	4862.9
565.83	4928.44
566.029	4611
566.228	4590.52
566.427	4574.14
566.625	4426.68
566.824	4486.08
567.023	4314.05
567.222	4119.49
567.42	4185.02
567.619	4223.94
567.818	4076.48
568.016	4236.22
568.215	3957.7
568.414	4027.33
568.612	3982.28
568.811	3890.12
569.01	3838.92
569.208	3693.51
569.407	3632.07
569.605	3445.71
569.804	3501
570.002	3484.62
570.201	3374.03
570.4	3458
570.598	3343.31
570.797	3281.87
570.995	3181.52
571.193	3113.94
571.392	3161.04
571.59	2950.1
571.789	3079.12
571.987	2954.19
572.186	2933.72
572.384	2925.52
572.582	2737.11
572.781	2843.6
572.979	2745.3
573.177	2647
573.376	2669.53
573.574	2778.07
573.772	2622.42
573.971	2434.01
574.169	2481.11
574.367	2429.91
574.565	2474.97
574.763	2309.08
574.962	2329.56
575.16	2300.89
575.358	2212.83
575.556	2261.98
575.754	2245.6
575.952	2190.3
576.151	2077.66
576.349	2128.86
576.547	2036.7
576.745	2046.94
576.943	2075.62
577.141	1950.69
577.339	1772.52
577.537	1793
577.735	1821.67
577.933	1952.74
578.131	1731.56
578.329	1944.55
578.527	1774.56
578.725	1711.08
578.923	1604.58
579.121	1643.49
579.319	1502.19
579.516	1653.73
579.714	1883.11
579.912	1676.26
580.11	1440.75
580.308	1569.77
580.506	1553.38
580.704	1393.64
580.901	1383.4
581.099	1526.76
581.297	1426.41
581.495	1508.33
581.692	1379.31
581.89	1459.18
582.088	1342.44
582.285	1350.64
582.483	1297.39
582.681	1246.19
582.878	1207.28
583.076	1201.13
583.274	1194.99
583.471	1338.35
583.669	1221.61
583.866	1131.5
584.064	1178.61
584.262	1125.36
584.459	1027.06
584.657	1149.93
584.854	1301.48
585.052	1088.5
585.249	1016.82
585.447	1096.69
585.644	990.19
585.841	1088.5
586.039	1051.63
586.236	959.47
586.434	902.13
586.631	975.86
586.828	945.14
587.026	920.56
587.223	836.6
587.42	752.63
587.618	990.19
587.815	928.75
588.012	846.84
588.21	857.07
588.407	895.99
588.604	840.69
588.801	840.69
588.999	873.46
589.196	973.81
589.393	789.49
589.59	781.3
589.787	838.64
589.984	766.96
590.182	793.59
590.379	738.29
590.576	754.68
590.773	693.24
590.97	695.29
591.167	812.02
591.364	789.49
591.561	715.77
591.758	877.55
591.955	775.16
592.152	773.11
592.349	683
592.546	594.93
592.743	635.89
592.94	695.29
593.137	824.31
593.334	787.44
593.531	830.45
593.727	744.44
593.924	723.96
594.121	639.99
594.318	580.6
594.515	777.2
594.712	814.07
594.908	869.36
595.105	642.04
595.302	828.4
595.499	769.01
595.696	936.95
595.892	740.34
596.089	914.42
596.286	797.68
596.482	992.24
596.679	859.12
596.876	885.75
597.072	1035.25
597.269	891.89
597.466	961.52
597.662	1012.72
597.859	928.75
598.055	990.19
598.252	1061.87
598.448	1108.98
598.645	1264.62
598.841	1276.91
599.038	1231.85
599.234	1375.21
599.431	1217.52
599.627	1324.01
599.824	1309.68
600.02	1412.07
600.217	1438.7
600.413	1545.19
600.609	1543.14
600.806	1969.12
601.002	1733.61
601.198	1674.21
601.395	1948.64
601.591	1881.06
601.787	1856.48
601.984	1989.6
602.18	2120.67
602.376	2214.88
602.572	2423.77
602.769	2501.59
602.965	2362.33
603.161	2632.66
603.357	2593.75
603.553	2837.46
603.75	2804.69
603.946	2855.89
604.142	3050.45
604.338	3089.36
604.534	3052.5
604.73	3177.42
604.926	3302.35
605.122	3603.4
605.318	3621.83
605.514	3834.82
605.71	3812.29
605.906	4051.91
606.102	3978.18
606.298	4191.17
606.494	4510.65
606.69	4701.11
606.886	4582.33
607.082	4750.26
607.278	4750.26
607.474	4883.38
607.67	5163.95
607.866	5098.42
608.062	5505.96
608.257	5567.4
608.453	5602.22
608.649	5798.82
608.845	5954.47
609.041	6194.08
609.236	6359.97
609.432	6634.39
609.628	6736.79
609.824	6902.68
610.019	7093.14
610.215	7209.87
610.411	7500.69
610.606	7521.17
610.802	7816.07
610.998	8061.83
611.193	8328.06
611.389	8391.55
611.584	8704.89
611.78	8754.04
611.976	8952.7
612.171	9552.75
612.367	9603.95
612.562	9698.16
612.758	9993.06
612.953	10249.06
613.149	10617.69
613.344	10683.23
613.539	11117.4
613.735	11445.07
613.93	11815.76
614.126	12014.41
614.321	12456.77
614.517	12784.44
614.712	12944.19
614.907	13361.97
615.103	13593.39
615.298	13769.52
615.493	14648.1
615.688	14428.96
615.884	15366.93
616.079	15151.9
616.274	16055.05
616.47	16026.38
616.665	16528.13
616.86	16947.97
617.055	17353.46
617.25	17758.96
617.445	18328.3
617.641	18739.94
617.836	19303.13
618.031	19141.34
618.226	20237
618.421	20644.55
618.616	21041.85
618.811	21580.47
619.006	22119.09
619.201	22213.29
619.396	23186.08
619.591	23038.62
619.786	23890.58
619.981	24234.64
620.176	25139.84
620.371	25072.26
620.566	25893.49
620.761	26440.3
620.956	27376.22
621.151	27449.95
621.346	28185.17
621.541	28215.89
621.735	29319.74
621.93	29229.63
622.125	30421.55
622.32	30392.88
622.515	30908.97
622.709	32141.85
622.904	32430.61
623.099	32627.21
623.294	33282.56
623.488	33518.08
623.683	34357.75
623.878	34783.73
624.072	35873.24
624.267	36354.52
624.462	36557.27
624.656	37265.86
624.851	38199.74
625.046	38439.35
625.24	38949.29
625.435	39010.73
625.629	40073.63
625.824	40282.52
626.018	41025.93
626.213	40950.16
626.407	41759.11
626.602	41662.85
626.796	42746.23
626.991	43383.15
627.185	43589.99
627.38	43497.83
627.574	43888.99
627.768	43936.1
627.963	44341.6
628.157	44323.16
628.352	45054.29
628.546	44618.07
628.74	45121.87
628.935	44583.26
629.129	45263.18
629.323	44314.97
629.517	44274.01
629.712	44034.4
629.906	44140.89
630.1	43125.1
630.294	43540.84
630.489	42678.64
630.683	42668.4
630.877	41286.03
631.071	41195.92
631.265	40784.27
631.459	39694.75
631.653	38797.74
631.848	38089.15
632.042	36987.34
632.236	36770.25
632.43	35181.03
632.624	34882.03
632.818	33540.61
633.012	32528.91
633.206	31513.12
633.4	30714.41
633.594	29346.37
633.788	28488.27
633.982	28136.02
634.176	27087.46
634.369	25707.13
634.563	25070.21
634.757	24060.56
634.951	23421.59
635.145	22364.84
635.339	21332.67
635.533	20363.98
635.726	19700.44
635.92	18596.58
636.114	17984.24
636.308	17265.4
636.501	16818.94
636.695	16110.35
636.889	15547.15
637.083	14811.93
637.276	13908.78
637.47	13488.95
637.664	12983.1
637.857	12432.19
638.051	12069.7
638.244	11604.81
638.438	10990.42
638.632	10722.14
638.825	10199.91
639.019	9755.5
639.212	9286.51
639.406	8967.03
639.599	8518.53
639.793	8289.15
639.986	7875.46
640.18	7646.09
640.373	7277.46
640.567	7273.36
640.76	6949.78
640.954	6607.77
641.147	6267.81
641.34	5972.9
641.534	5880.74
641.727	5774.25
641.92	5436.33
642.114	5360.56
642.307	5000.12
642.5	5043.12
642.694	4651.96
642.887	4529.08
643.08	4617.15
643.273	4185.02
643.467	4017.09
643.66	3767.24
643.853	3589.07
644.046	3646.41
644.239	3369.93
644.432	3302.35
644.626	3040.21
644.819	2962.39
645.012	2964.43
645.205	2905.04
645.398	2716.63
645.591	2624.47
645.784	2438.11
645.977	2290.65
646.17	2380.76
646.363	2202.59
646.556	2155.49
646.749	1960.93
646.942	2114.53
647.135	1956.83
647.328	1747.94
647.521	1819.62
647.714	1680.36
647.907	1590.25
648.099	1475.56
648.292	1647.59
648.485	1483.75
648.678	1432.55
648.871	1324.01
649.064	1309.68
649.256	1065.97
649.449	1227.76
649.642	1025.01
649.835	1094.64
650.027	1037.3
650.22	1119.21
650.413	1000.43
650.605	1022.96
650.798	990.19
650.991	789.49
651.183	898.03
651.376	857.07
651.568	867.31
651.761	689.14
651.954	848.88
652.146	701.43
652.339	848.88
652.531	801.78
652.724	703.48
652.916	553.98
653.109	508.92
653.301	713.72
653.494	629.75
653.686	635.89
653.879	711.67
654.071	613.37
654.263	533.5
654.456	461.82
654.648	723.96
654.84	492.54
655.033	506.87
655.225	644.09
655.417	404.47
655.61	539.64
655.802	451.58
655.994	547.83
656.186	408.57
656.379	486.39
656.571	324.6
656.763	398.33
656.955	340.99
657.148	345.08
657.34	474.1
657.532	379.9
657.724	345.08
657.916	314.36
658.108	402.43
658.3	371.71
658.492	269.31
658.684	214.01
658.876	351.23
659.068	179.2
659.26	211.96
659.452	222.2
659.644	322.56
659.836	400.38
660.028	220.16
660.22	252.92
660.412	361.47
660.604	265.21
660.796	236.54
660.988	283.64
661.18	246.78
661.372	351.23
661.563	287.74
661.755	246.78
661.947	138.24
662.139	177.15
662.331	246.78
662.522	261.12
662.714	181.25
662.906	179.2
663.097	171.01
663.289	257.02
663.481	101.37
663.673	173.05
663.864	166.91
664.056	150.53
664.247	44.03
664.439	222.2
664.631	199.68
664.822	191.49
665.014	222.2
665.205	142.33
665.397	166.91
665.588	152.57
665.78	160.77
665.971	218.11
666.163	160.77
666.354	185.34
666.546	150.53
666.737	187.39
666.929	269.31
667.12	101.37
667.311	164.86
667.503	140.29
667.694	207.87
667.885	158.72
668.077	220.16
668.268	60.42
668.459	138.24
668.651	164.86
668.842	240.64
669.033	3.07
669.224	93.18
669.416	318.46
669.607	150.53
669.798	68.61
669.989	230.4
670.18	164.86
670.371	177.15
670.563	84.99
670.754	125.95
670.945	226.3
671.136	246.78
671.327	78.85
671.518	211.96
671.709	265.21
671.9	195.58
672.091	226.3
672.282	166.91
672.473	148.48
672.664	25.6
672.855	64.51
673.046	148.48
673.237	146.43
673.428	134.14
673.619	281.6
673.809	89.09
674	246.78
674.191	207.87
674.382	158.72
674.573	220.16
674.764	152.57
674.954	224.25
675.145	91.13
675.336	115.71
675.527	97.28
675.717	240.64
675.908	138.24
676.099	142.33
676.289	166.91
676.48	39.94
676.671	134.14
676.861	203.77
677.052	207.87
677.243	228.35
677.433	154.62
677.624	205.82
677.814	171.01
678.005	125.95
678.195	269.31
678.386	173.05
678.576	173.05
678.767	152.57
678.957	216.06
679.148	281.6
679.338	203.77
679.529	246.78
679.719	164.86
679.909	273.4
680.1	209.92
680.29	203.77
680.481	66.56
680.671	293.88
680.861	117.76
681.052	205.82
681.242	162.81
681.432	254.97
681.622	259.07
681.813	121.85
682.003	166.91
682.193	156.67
682.383	273.4
682.573	201.72
682.764	205.82
682.954	236.54
683.144	318.46
683.334	177.15
683.524	214.01
683.714	171.01
683.904	287.74
684.094	160.77
684.284	238.59
684.474	381.95
684.664	263.16
684.854	216.06
685.044	279.55
685.234	160.77
685.424	297.98
685.614	173.05
685.804	336.89
685.994	302.08
686.184	232.44
686.374	316.41
686.564	257.02
686.753	205.82
686.943	154.62
687.133	236.54
687.323	146.43
687.513	265.21
687.702	336.89
687.892	228.35
688.082	250.88
688.272	355.32
688.461	259.07
688.651	392.19
688.841	267.26
689.03	297.98
689.22	224.25
689.41	377.85
689.599	218.11
689.789	242.68
689.979	383.99
690.168	189.44
690.358	283.64
690.547	277.5
690.737	293.88
690.926	265.21
691.116	230.4
691.305	324.6
691.495	285.69
691.684	207.87
691.874	238.59
692.063	173.05
692.252	326.65
692.442	400.38
692.631	220.16
692.82	173.05
693.01	306.17
693.199	199.68
693.388	267.26
693.578	181.25
693.767	345.08
693.956	320.51
694.146	203.77
694.335	318.46
694.524	171.01
694.713	300.03
694.902	166.91
695.092	189.44
695.281	355.32
695.47	220.16
695.659	240.64
695.848	218.11
696.037	248.83
696.226	347.13
696.415	222.2
696.604	214.01
696.793	330.75
696.982	343.03
697.171	347.13
697.36	216.06
697.549	261.12
697.738	101.37
697.927	254.97
698.116	158.72
698.305	252.92
698.494	257.02
698.683	214.01
698.872	330.75
699.061	211.96
699.25	216.06
699.438	195.58
699.627	175.1
699.816	338.94
700.005	209.92
700.193	269.31
700.382	345.08
700.571	218.11
700.76	244.73
700.948	236.54
701.137	340.99
701.326	273.4
701.514	236.54
701.703	183.29
701.892	191.49
702.08	408.57
702.269	193.53
702.457	144.38
702.646	240.64
702.834	226.3
703.023	224.25
703.212	254.97
703.4	263.16
703.589	171.01
703.777	156.67
703.965	138.24
704.154	166.91
704.342	128
704.531	166.91
704.719	220.16
704.907	285.69
705.096	150.53
705.284	203.77
705.472	259.07
705.661	197.63
705.849	267.26
706.037	314.36
706.226	300.03
706.414	191.49
706.602	164.86
706.79	283.64
706.979	148.48
707.167	222.2
707.355	60.42
707.543	193.53
707.731	195.58
707.919	234.49
708.107	244.73
708.296	166.91
708.484	33.79
708.672	271.36
708.86	287.74
709.048	199.68
709.236	228.35
709.424	232.44
709.612	222.2
709.8	111.61
709.988	265.21
710.176	244.73
710.364	257.02
710.551	220.16
710.739	257.02
710.927	158.72
711.115	201.72
711.303	328.7
711.491	275.45
711.679	113.66
711.866	357.37
712.054	168.96
712.242	248.83
712.43	338.94
712.617	187.39
712.805	271.36
712.993	193.53
713.181	95.23
713.368	302.08
713.556	246.78
713.744	214.01
713.931	375.8
714.119	228.35
714.306	252.92
714.494	216.06
714.682	238.59
714.869	152.57
715.057	195.58
715.244	179.2
715.432	228.35
715.619	189.44
715.807	203.77
715.994	295.93
716.182	203.77
716.369	310.27
716.556	363.51
716.744	150.53
716.931	189.44
717.119	297.98
717.306	224.25
717.493	340.99
717.681	216.06
717.868	166.91
718.055	279.55
718.242	242.68
718.43	250.88
718.617	363.51
718.804	203.77
718.991	332.79
719.179	187.39
719.366	330.75
719.553	322.56
719.74	254.97
719.927	224.25
720.114	236.54
720.301	263.16
720.488	216.06
720.676	168.96
720.863	306.17
721.05	441.34
721.237	306.17
721.424	252.92
721.611	250.88
721.798	222.2
721.985	203.77
722.172	222.2
722.358	254.97
722.545	324.6
722.732	240.64
722.919	295.93
723.106	257.02
723.293	252.92
723.48	287.74
723.667	144.38
723.853	371.71
724.04	273.4
724.227	328.7
724.414	285.69
724.6	318.46
724.787	275.45
724.974	447.48
725.161	308.22
725.347	93.18
725.534	314.36
725.72	375.8
725.907	349.18
726.094	334.84
726.28	300.03
726.467	248.83
726.653	234.49
726.84	330.75
727.027	408.57
727.213	285.69
727.4	297.98
727.586	326.65
727.773	375.8
727.959	228.35
728.145	281.6
728.332	308.22
728.518	265.21
728.705	383.99
728.891	308.22
729.077	283.64
729.264	248.83
729.45	328.7
729.636	427
729.823	291.84
730.009	388.09
730.195	377.85
730.382	310.27
730.568	318.46
730.754	228.35
730.94	267.26
731.126	390.14
731.313	261.12
731.499	312.32
731.685	338.94
731.871	359.42
732.057	353.27
732.243	347.13
732.429	355.32
732.615	398.33
732.801	343.03
732.987	224.25
733.173	347.13
733.359	267.26
733.545	332.79
733.731	277.5
733.917	427
734.103	328.7
734.289	410.62
734.475	289.79
734.661	478.2
734.847	281.6
735.033	273.4
735.219	490.49
735.404	283.64
735.59	265.21
735.776	259.07
735.962	326.65
736.148	474.1
736.333	359.42
736.519	295.93
736.705	383.99
736.89	345.08
737.076	402.43
737.262	238.59
737.447	324.6
737.633	267.26
737.819	465.91
738.004	295.93
738.19	377.85
738.375	347.13
738.561	410.62
738.747	381.95
738.932	363.51
739.118	437.24
739.303	338.94
739.489	302.08
739.674	265.21
739.859	302.08
740.045	379.9
740.23	381.95
740.416	152.57
740.601	373.75
740.786	343.03
740.972	275.45
741.157	386.04
741.342	230.4
741.528	273.4
741.713	349.18
741.898	302.08
742.084	326.65
742.269	293.88
742.454	353.27
742.639	418.81
742.824	371.71
743.01	492.54
743.195	359.42
743.38	265.21
743.565	355.32
743.75	300.03
743.935	373.75
744.12	392.19
744.305	261.12
744.49	289.79
744.675	371.71
744.86	381.95
745.045	289.79
745.23	371.71
745.415	326.65
745.6	437.24
745.785	269.31
745.97	406.52
746.155	310.27
746.34	347.13
746.525	377.85
746.71	416.76
746.895	234.49
747.079	162.81
747.264	334.84
747.449	312.32
747.634	443.39
747.819	308.22
748.003	326.65
748.188	269.31
748.373	388.09
748.557	349.18
748.742	330.75
748.927	295.93
749.111	275.45
749.296	322.56
749.481	328.7
749.665	316.41
749.85	259.07
750.034	308.22
750.219	396.28
750.404	277.5
750.588	287.74
750.773	144.38
750.957	261.12
751.141	263.16
751.326	293.88
751.51	242.68
751.695	242.68
751.879	224.25
752.064	283.64
752.248	279.55
752.432	375.8
752.617	271.36
752.801	308.22
752.985	197.63
753.17	371.71
753.354	211.96
753.538	240.64
753.722	228.35
753.907	285.69
754.091	154.62
754.275	228.35
754.459	111.61
754.643	144.38
754.828	267.26
755.012	259.07
755.196	146.43
755.38	197.63
755.564	177.15
755.748	214.01
755.932	353.27
756.116	302.08
756.3	289.79
756.484	142.33
756.668	181.25
756.852	117.76
757.036	175.1
757.22	224.25
757.404	152.57
757.588	185.34
757.772	211.96
757.956	150.53
758.14	238.59
758.323	152.57
758.507	240.64
758.691	164.86
758.875	168.96
759.059	291.84
759.242	146.43
759.426	154.62
759.61	189.44
759.794	138.24
759.977	232.44
760.161	361.47
760.345	230.4
760.528	244.73
760.712	203.77
760.895	177.15
761.079	160.77
761.263	123.9
761.446	99.33
761.63	191.49
761.813	287.74
761.997	82.94
762.18	152.57
762.364	209.92
762.547	64.51
762.731	183.29
762.914	142.33
763.098	177.15
763.281	134.14
763.464	89.09
763.648	199.68
763.831	162.81
764.015	93.18
764.198	252.92
764.381	111.61
764.564	138.24
764.748	134.14
764.931	140.29
765.114	109.57
765.297	230.4
765.481	76.8
765.664	138.24
765.847	111.61
766.03	267.26
766.213	78.85
766.397	154.62
766.58	3.07
766.763	150.53
766.946	162.81
767.129	132.09
767.312	82.94
767.495	107.52
767.678	87.04
767.861	113.66
768.044	119.81
768.227	82.94
768.41	146.43
768.593	144.38
768.776	128
768.959	181.25
769.142	226.3
769.324	103.42
769.507	111.61
769.69	156.67
769.873	82.94
770.056	216.06
770.239	82.94
770.421	173.05
770.604	177.15
770.787	62.46
770.97	187.39
771.152	76.8
771.335	218.11
771.518	31.74
771.7	211.96
771.883	279.55
772.066	50.18
772.248	62.46
772.431	177.15
772.613	113.66
772.796	91.13
772.978	156.67
773.161	222.2
773.343	101.37
773.526	89.09
773.708	25.6
773.891	17.41
774.073	-1.02
774.256	84.99
774.438	216.06
774.621	68.61
774.803	46.08
774.985	-46.08
775.168	62.46
775.35	89.09
775.532	144.38
775.715	3.07
775.897	76.8
776.079	52.22
776.261	121.85
776.444	162.81
776.626	50.18
776.808	111.61
776.99	-27.65
777.173	99.33
777.355	-3.07
777.537	113.66
777.719	74.75
777.901	48.13
778.083	1.02
778.265	29.7
778.447	203.77
778.629	1.02
778.811	89.09
778.993	119.81
779.175	228.35
779.357	29.7
779.539	62.46
779.721	158.72
779.903	54.27
780.085	29.7
780.267	105.47
780.449	74.75
780.631	132.09
780.812	187.39
780.994	76.8
781.176	72.7
781.358	78.85
781.54	115.71
781.721	115.71
781.903	103.42
782.085	15.36
782.267	99.33
782.448	19.46
782.63	41.98
782.812	23.55
782.993	99.33
783.175	17.41
783.357	89.09
783.538	130.05
783.72	3.07
783.901	56.32
784.083	62.46
784.264	109.57
784.446	13.31
784.627	-25.6
784.809	164.86
784.99	25.6
785.172	101.37
785.353	74.75
785.535	115.71
785.716	44.03
785.897	-3.07
786.079	15.36
786.26	46.08
786.441	27.65
786.623	-87.04
786.804	15.36
786.985	78.85
787.167	84.99
787.348	-13.31
787.529	-15.36
787.71	226.3
787.891	54.27
788.073	9.22
788.254	-58.37
788.435	128
788.616	50.18
788.797	-11.26
788.978	68.61
789.159	-19.46
789.34	25.6
789.522	21.5
789.703	-11.26
789.884	48.13
790.065	7.17
790.246	109.57
790.427	52.22
790.607	175.1
790.788	111.61
790.969	-5.12
791.15	46.08
791.331	-39.94
791.512	48.13
791.693	1.02
791.874	58.37
792.054	254.97
792.235	125.95
792.416	27.65
792.597	-19.46
792.778	66.56
792.958	105.47
793.139	68.61
793.32	23.55
793.5	3.07
793.681	130.05
793.862	39.94
794.042	76.8
794.223	-27.65
794.404	3.07
794.584	-72.7
794.765	11.26
794.945	15.36
795.126	125.95
795.306	99.33
795.487	-15.36
795.667	19.46
795.848	25.6
796.028	-35.84
796.209	21.5
796.389	80.89
796.57	-15.36
796.75	13.31
796.93	3.07
797.111	-58.37
797.291	48.13
797.471	105.47
797.652	17.41
797.832	-37.89
798.012	113.66
798.192	-3.07
798.373	-113.66
798.553	11.26
798.733	123.9
798.913	-19.46
799.093	-27.65
799.274	93.18
799.454	89.09
799.634	70.65
799.814	177.15
799.994	56.32
800.174	91.13
800.354	7.17
800.534	-84.99
800.714	15.36
800.894	-46.08
801.074	-107.52
801.254	-60.42
801.434	97.28
801.614	27.65
801.794	-54.27
801.974	1608.68
802.154	-74.75
802.334	74.75
802.514	25.6
802.693	-39.94
802.873	-31.74
803.053	101.37
803.233	21.5
803.413	7.17
803.592	39.94
803.772	58.37
803.952	64.51
804.131	-44.03
804.311	52.22
804.491	95.23
804.67	-50.18
804.85	23.55
805.03	44.03
805.209	66.56
805.389	-1.02
805.568	-11.26
805.748	-50.18
805.928	-41.98
806.107	82.94
806.287	72.7
806.466	68.61
806.646	-25.6
806.825	-9.22
807.004	7.17
807.184	-1.02
807.363	52.22
807.543	-23.55
807.722	-19.46
807.901	117.76
808.081	68.61
808.26	-144.38
808.439	-3.07
808.619	-9.22
808.798	37.89
808.977	109.57
809.156	132.09
809.336	-17.41
809.515	82.94
809.694	-7.17
809.873	-31.74
810.052	21.5
810.231	105.47
810.411	5.12
810.59	111.61
810.769	1.02
810.948	68.61
811.127	-123.9
811.306	-54.27
811.485	-15.36
811.664	97.28
811.843	39.94
812.022	41.98
812.201	-37.89
812.38	23.55
812.559	-19.46
812.737	56.32
812.916	-58.37
813.095	-115.71
813.274	5.12
813.453	9.22
813.632	48.13
813.811	99.33
813.989	-60.42
814.168	68.61
814.347	-21.5
814.526	31.74
814.704	99.33
814.883	138.24
815.062	-33.79
815.24	7.17
815.419	-97.28
815.598	15.36
815.776	-56.32
815.955	78.85
816.133	-91.13
816.312	-56.32
816.49	-9.22
816.669	9.22
816.847	-46.08
817.026	23.55
817.204	-29.7
817.383	25.6
817.561	-41.98
817.74	35.84
817.918	31.74
818.097	3.07
818.275	23.55
818.453	48.13
818.632	87.04
818.81	-29.7
818.988	27.65
819.167	-33.79
819.345	33.79
819.523	-78.85
819.701	17.41
819.879	74.75
820.058	19.46
820.236	-9.22
820.414	-9.22
820.592	3.07
820.77	-27.65
820.948	-66.56
821.127	19.46
821.305	37.89
821.483	-54.27
821.661	91.13
821.839	-5.12
822.017	-25.6
822.195	-39.94
822.373	48.13
822.551	19.46
822.729	-7.17
822.907	-93.18
823.085	62.46
823.262	-41.98
823.44	-9.22
823.618	5.12
823.796	-15.36
823.974	11.26
824.152	-72.7
824.329	17.41
824.507	64.51
824.685	19.46
824.863	-52.22
825.04	7.17
825.218	52.22
825.396	44.03
825.574	48.13
825.751	19.46
825.929	70.65
826.107	-5.12
826.284	23.55
826.462	33.79
826.639	23.55
826.817	-41.98
826.994	13.31
827.172	-115.71
827.349	68.61
827.527	-11.26
827.704	35.84
827.882	109.57
828.059	48.13
828.237	-13.31
828.414	39.94
828.591	-115.71
828.769	21.5
828.946	-9.22
829.124	35.84
829.301	130.05
829.478	5.12
829.655	39.94
829.833	-15.36
830.01	-111.61
830.187	56.32
830.364	-1.02
830.542	7.17
830.719	99.33
830.896	80.89
831.073	82.94
831.25	-1.02
831.427	78.85
831.604	-3.07
831.782	-52.22
831.959	39.94
832.136	-99.33
832.313	66.56
832.49	-33.79
832.667	25.6
832.844	-27.65
833.021	95.23
833.198	-9.22
833.374	-76.8
833.551	48.13
833.728	-64.51
833.905	121.85
834.082	-95.23
834.259	-39.94
834.436	89.09
834.612	-68.61
834.789	80.89
834.966	15.36
835.143	5.12
835.319	-97.28
835.496	99.33
835.673	54.27
835.85	76.8
836.026	-5.12
836.203	132.09
836.38	-13.31
836.556	-27.65
836.733	-54.27
836.909	103.42
837.086	-41.98
837.262	-93.18
837.439	-11.26
837.616	-17.41
837.792	-62.46
837.968	56.32
838.145	-72.7
838.321	-101.37
838.498	-1.02
838.674	74.75
838.851	-3.07
839.027	11.26
839.203	-15.36
839.38	-3.07
839.556	-37.89
839.732	1.02
839.909	-11.26
840.085	-44.03
840.261	-54.27
840.437	29.7
840.614	-1.02
840.79	15.36
840.966	60.42
841.142	-17.41
841.318	-58.37
841.494	23.55
841.671	54.27
841.847	-25.6
842.023	-23.55
842.199	13.31
842.375	70.65
842.551	-119.81
842.727	-93.18
842.903	72.7
843.079	-80.89
843.255	52.22
843.431	19.46
843.607	-11.26
843.783	-107.52
843.959	46.08
844.134	-70.65
844.31	80.89
844.486	-101.37
844.662	-82.94
844.838	-54.27
845.013	-56.32
845.189	113.66
845.365	37.89
845.541	23.55
845.716	46.08
845.892	103.42
846.068	-23.55
846.244	-5.12
846.419	23.55
846.595	5.12
846.77	-78.85
846.946	166.91
847.122	-87.04
847.297	-76.8
847.473	91.13
847.648	-132.09
847.824	-80.89
847.999	-146.43
848.175	-52.22
848.35	-66.56
848.526	80.89
848.701	44.03
848.876	68.61
849.052	-15.36
849.227	-23.55
849.403	-54.27
849.578	-27.65
849.753	105.47
849.929	58.37
850.104	-121.85
850.279	64.51
850.454	7.17
850.63	64.51
850.805	-15.36
850.98	-82.94
851.155	-19.46
851.33	41.98
851.505	-115.71
851.681	136.19
851.856	-70.65
852.031	87.04
852.206	7.17
852.381	-11.26
852.556	-60.42
852.731	13.31
852.906	60.42
853.081	-1.02
853.256	214.01
853.431	31.74
853.606	-31.74
853.781	-78.85
853.956	-103.42
854.131	25.6
854.305	-70.65
854.48	-105.47
854.655	-105.47
854.83	-13.31
855.005	5.12
855.18	-33.79
855.354	-68.61
855.529	87.04
855.704	-54.27
855.879	31.74
856.053	-89.09
856.228	-35.84
856.403	-130.05
856.577	66.56
856.752	-146.43
856.926	-7.17
857.101	-27.65
857.276	-93.18
857.45	-41.98
857.625	-17.41
857.799	64.51
857.974	3.07
858.148	-148.48
858.323	-50.18
858.497	1.02
858.672	-33.79
858.846	-37.89
859.02	70.65
859.195	-146.43
859.369	9.22
859.543	9.22
859.718	9.22
859.892	41.98
860.066	-23.55
860.241	-58.37
860.415	-56.32
860.589	-13.31
860.763	7.17
860.938	25.6
861.112	9.22
861.286	-78.85
861.46	41.98
861.634	-1.02
861.808	74.75
861.982	-58.37
862.157	-33.79
862.331	-72.7
862.505	-152.57
862.679	-128
862.853	-68.61
863.027	9.22
863.201	76.8
863.375	-64.51
863.549	35.84
863.722	44.03
863.896	74.75
864.07	-107.52
864.244	-33.79
864.418	68.61
864.592	23.55
864.766	72.7
864.939	-27.65
865.113	-33.79
865.287	123.9
865.461	-95.23
865.634	31.74
865.808	23.55
865.982	-64.51
866.156	-70.65
866.329	-109.57
866.503	13.31
866.676	82.94
866.85	-29.7
867.024	-87.04
867.197	-37.89
867.371	60.42
867.544	25.6
867.718	-134.14
867.891	93.18
868.065	-111.61
868.238	-78.85
868.412	72.7
868.585	-48.13
868.759	-89.09
868.932	-44.03
869.105	-58.37
869.279	-95.23
869.452	-46.08
869.625	-3.07
869.799	-25.6
869.972	-87.04
870.145	15.36
870.319	54.27
870.492	-35.84
870.665	-89.09
870.838	-58.37
871.011	-138.24
871.185	-84.99
871.358	-33.79
871.531	23.55
871.704	-76.8
871.877	-7.17
872.05	-56.32
872.223	-121.85
872.396	93.18
872.569	-7.17
872.742	-128
872.915	-13.31
873.088	-50.18
873.261	-82.94
873.434	31.74
873.607	-13.31
873.78	105.47
873.953	-168.96
874.126	7.17
874.299	-29.7
874.471	-48.13
874.644	33.79
874.817	23.55
874.99	154.62
875.163	-7.17
875.335	93.18
875.508	109.57
875.681	78.85
875.853	-76.8
876.026	97.28
876.199	39.94
876.371	-62.46
876.544	-21.5
876.717	-25.6
876.889	-27.65
877.062	33.79
877.234	-80.89
877.407	-107.52
877.579	17.41
877.752	-27.65
877.924	25.6
878.097	11.26
878.269	50.18
878.442	62.46
878.614	-41.98
878.786	-41.98
878.959	3.07
879.131	-7.17
879.303	-84.99
879.476	-25.6
879.648	78.85
879.82	-9.22
879.993	29.7
880.165	60.42
880.337	-91.13
880.509	-37.89
880.681	-78.85
880.854	-19.46
881.026	7.17
881.198	166.91
881.37	-21.5
881.542	-5.12
881.714	-35.84
881.886	-54.27
882.058	-54.27
882.23	27.65
882.402	-46.08
882.574	15.36
882.746	7.17
882.918	70.65
883.09	64.51
883.262	-70.65
883.434	9.22
883.606	-117.76
883.778	-58.37
883.95	121.85
884.122	3.07
884.293	17.41
884.465	-15.36
884.637	56.32
884.809	-58.37
884.98	-50.18
885.152	-15.36
885.324	58.37
885.496	-74.75
885.667	37.89
885.839	-5.12
886.011	146.43
886.182	39.94
886.354	41.98
886.525	-25.6
886.697	25.6
886.869	-87.04
887.04	11.26
887.212	70.65
887.383	152.57
887.555	23.55
887.726	-52.22
887.897	21.5
888.069	-29.7
888.24	-5.12
888.412	-29.7
888.583	13.31
888.754	-74.75
888.926	-140.29
889.097	15.36
889.268	-173.05
889.44	9.22
889.611	-173.05
889.782	-56.32
889.953	-113.66
890.125	66.56
890.296	-66.56
890.467	-107.52
890.638	-138.24
890.809	-33.79
890.98	-82.94
891.151	9.22
891.323	60.42
891.494	9.22
891.665	37.89
891.836	-29.7
892.007	-91.13
892.178	-15.36
892.349	29.7
892.52	35.84
892.691	1.02
892.862	-7.17
893.032	-78.85
893.203	-37.89
893.374	-13.31
893.545	87.04
893.716	-58.37
893.887	46.08
894.057	-84.99
894.228	-62.46
894.399	-39.94
894.57	91.13
894.74	-44.03
894.911	78.85
895.082	13.31
895.253	-19.46
895.423	3.07
895.594	-7.17
895.764	-13.31
895.935	-25.6
896.106	7.17
896.276	-87.04
896.447	15.36
896.617	-54.27
896.788	-62.46
896.958	-64.51
897.129	-117.76
897.299	-21.5
897.47	54.27
897.64	72.7
897.81	-17.41
897.981	46.08
898.151	-115.71
898.322	-19.46
898.492	17.41
898.662	-109.57
898.832	-41.98
899.003	-5.12
899.173	19.46
899.343	-74.75
899.513	-33.79
