Data from USB4F104151__36__10-24-41-237.txt Node

Date: Wed Feb 26 10:24:41 EST 2025
User: louis
Spectrometer: USB4F10415
Trigger mode: 4
Integration Time (sec): 1.000000E-1
Scans to average: 1
Electric dark correction enabled: true
Nonlinearity correction enabled: false
Boxcar width: 0
XAxis mode: Wavelengths
Number of Pixels in Spectrum: 3648
>>>>>Begin Spectral Data<<<<<
178.204	-430.93
178.424	-430.93
178.644	-430.93
178.864	-420.69
179.084	-361.3
179.304	27.82
179.524	36.01
179.744	54.44
179.964	54.44
180.184	25.77
180.404	-7
180.624	-37.72
180.844	-90.96
181.064	-74.58
181.283	21.67
181.503	-95.06
181.723	85.16
181.943	-29.52
182.163	251.05
182.383	-56.15
182.602	74.92
182.822	208.04
183.042	5.29
183.262	19.63
183.482	25.77
183.701	124.07
183.921	-0.85
184.141	-82.77
184.361	-7
184.58	-2.9
184.8	33.96
185.02	1.19
185.239	72.87
185.459	60.59
185.679	40.11
185.898	-68.44
186.118	64.68
186.338	128.17
186.557	146.6
186.777	-142.16
186.997	5.29
187.216	-15.19
187.436	173.22
187.655	70.83
187.875	158.89
188.095	13.48
188.314	103.59
188.534	117.93
188.753	-4.95
188.973	115.88
189.192	144.55
189.412	-60.24
189.631	3.24
189.851	148.65
190.07	173.22
190.29	-54.1
190.509	60.59
190.729	56.49
190.948	167.08
191.168	281.77
191.387	54.44
191.607	29.87
191.826	54.44
192.045	25.77
192.265	29.87
192.484	72.87
192.704	79.02
192.923	25.77
193.142	187.56
193.362	70.83
193.581	128.17
193.8	101.55
194.02	113.83
194.239	95.4
194.458	107.69
194.678	-19.29
194.897	3.24
195.116	81.07
195.335	52.39
195.555	66.73
195.774	23.72
195.993	103.59
196.212	93.35
196.432	-11.09
196.651	-23.38
196.87	21.67
197.089	191.66
197.308	58.54
197.528	85.16
197.747	-19.29
197.966	117.93
198.185	144.55
198.404	-93.01
198.623	72.87
198.842	150.7
199.062	52.39
199.281	81.07
199.5	-17.24
199.719	91.31
199.938	23.72
200.157	48.3
200.376	132.26
200.595	79.02
200.814	70.83
201.033	40.11
201.252	107.69
201.471	62.63
201.69	62.63
201.909	13.48
202.128	119.98
202.347	38.06
202.566	5.29
202.785	25.77
203.004	-43.86
203.223	289.96
203.442	38.06
203.661	-11.09
203.879	111.78
204.098	175.27
204.317	-35.67
204.536	113.83
204.755	48.3
204.974	109.74
205.193	70.83
205.411	181.42
205.63	199.85
205.849	-2.9
206.068	93.35
206.287	-29.52
206.505	193.7
206.724	81.07
206.943	5.29
207.162	17.58
207.381	89.26
207.599	19.63
207.818	68.78
208.037	-0.85
208.255	38.06
208.474	83.11
208.693	17.58
208.911	-50
209.13	64.68
209.349	140.46
209.567	113.83
209.786	33.96
210.005	140.46
210.223	62.63
210.442	-103.25
210.661	60.59
210.879	46.25
211.098	165.03
211.316	56.49
211.535	62.63
211.753	97.45
211.972	76.97
212.191	-39.76
212.409	66.73
212.628	128.17
212.846	9.39
213.065	68.78
213.283	42.15
213.502	46.25
213.72	91.31
213.938	83.11
214.157	11.43
214.375	97.45
214.594	-21.33
214.812	36.01
215.031	74.92
215.249	93.35
215.467	-7
215.686	5.29
215.904	58.54
216.122	42.15
216.341	101.55
216.559	83.11
216.778	62.63
216.996	195.75
217.214	50.35
217.432	25.77
217.651	-39.76
217.869	101.55
218.087	99.5
218.306	-17.24
218.524	54.44
218.742	-23.38
218.96	132.26
219.179	3.24
219.397	-29.52
219.615	222.38
219.833	158.89
220.051	1.19
220.27	76.97
220.488	66.73
220.706	83.11
220.924	33.96
221.142	-45.91
221.36	38.06
221.578	54.44
221.796	-19.29
222.015	-0.85
222.233	99.5
222.451	222.38
222.669	-31.57
222.887	62.63
223.105	5.29
223.323	83.11
223.541	3.24
223.759	48.3
223.977	42.15
224.195	162.98
224.413	72.87
224.631	23.72
224.849	-17.24
225.067	193.7
225.285	1.19
225.503	-4.95
225.721	-39.76
225.939	89.26
226.157	158.89
226.375	210.09
226.592	58.54
226.81	40.11
227.028	64.68
227.246	214.18
227.464	29.87
227.682	132.26
227.9	97.45
228.117	40.11
228.335	130.22
228.553	17.58
228.771	33.96
228.989	9.39
229.206	72.87
229.424	7.34
229.642	3.24
229.86	-52.05
230.077	134.31
230.295	13.48
230.513	42.15
230.731	128.17
230.948	234.66
231.166	156.84
231.384	13.48
231.601	-17.24
231.819	171.18
232.037	-82.77
232.254	36.01
232.472	-9.05
232.689	101.55
232.907	109.74
233.125	13.48
233.342	19.63
233.56	-2.9
233.777	54.44
233.995	-41.81
234.213	64.68
234.43	97.45
234.648	17.58
234.865	-56.15
235.083	140.46
235.3	50.35
235.518	97.45
235.735	95.4
235.953	122.02
236.17	36.01
236.388	40.11
236.605	36.01
236.822	138.41
237.04	134.31
237.257	-19.29
237.475	-62.29
237.692	48.3
237.909	29.87
238.127	40.11
238.344	42.15
238.562	62.63
238.779	-50
238.996	-21.33
239.214	11.43
239.431	58.54
239.648	50.35
239.865	105.64
240.083	70.83
240.3	-2.9
240.517	-19.29
240.735	7.34
240.952	117.93
241.169	85.16
241.386	36.01
241.603	15.53
241.821	-15.19
242.038	99.5
242.255	81.07
242.472	-37.72
242.689	101.55
242.907	44.2
243.124	-4.95
243.341	81.07
243.558	-58.2
243.775	-9.05
243.992	21.67
244.209	91.31
244.426	208.04
244.643	-37.72
244.86	-7
245.078	95.4
245.295	-54.1
245.512	-33.62
245.729	13.48
245.946	44.2
246.163	119.98
246.38	-21.33
246.597	134.31
246.814	25.77
247.031	95.4
247.248	-23.38
247.464	124.07
247.681	-2.9
247.898	130.22
248.115	25.77
248.332	-29.52
248.549	208.04
248.766	197.8
248.983	56.49
249.2	91.31
249.417	58.54
249.633	3.24
249.85	126.12
250.067	27.82
250.284	58.54
250.501	87.21
250.717	58.54
250.934	-29.52
251.151	-7
251.368	66.73
251.585	42.15
251.801	9.39
252.018	44.2
252.235	97.45
252.451	-107.35
252.668	29.87
252.885	101.55
253.102	38.06
253.318	-31.57
253.535	70.83
253.752	-19.29
253.968	23.72
254.185	13.48
254.401	36.01
254.618	136.36
254.835	-27.48
255.051	160.94
255.268	115.88
255.484	107.69
255.701	42.15
255.917	31.91
256.134	-107.35
256.351	52.39
256.567	-68.44
256.784	-23.38
257	-43.86
257.217	132.26
257.433	150.7
257.65	107.69
257.866	107.69
258.082	-45.91
258.299	58.54
258.515	70.83
258.732	13.48
258.948	13.48
259.165	52.39
259.381	33.96
259.597	103.59
259.814	87.21
260.03	42.15
260.246	105.64
260.463	56.49
260.679	111.78
260.895	50.35
261.112	58.54
261.328	50.35
261.544	-23.38
261.761	150.7
261.977	-25.43
262.193	-4.95
262.409	48.3
262.626	-7
262.842	58.54
263.058	-27.48
263.274	113.83
263.49	23.72
263.707	83.11
263.923	140.46
264.139	-56.15
264.355	25.77
264.571	173.22
264.787	109.74
265.004	165.03
265.22	-13.14
265.436	36.01
265.652	-15.19
265.868	70.83
266.084	-74.58
266.3	-19.29
266.516	-50
266.732	81.07
266.948	109.74
267.164	23.72
267.38	97.45
267.596	76.97
267.812	173.22
268.028	46.25
268.244	62.63
268.46	23.72
268.676	46.25
268.892	13.48
269.108	-99.16
269.324	33.96
269.54	-27.48
269.756	76.97
269.972	-76.63
270.188	-17.24
270.403	42.15
270.619	1.19
270.835	109.74
271.051	-11.09
271.267	89.26
271.483	15.53
271.698	91.31
271.914	138.41
272.13	85.16
272.346	-41.81
272.562	83.11
272.777	85.16
272.993	-23.38
273.209	-25.43
273.425	91.31
273.64	-41.81
273.856	54.44
274.072	-19.29
274.287	-25.43
274.503	42.15
274.719	115.88
274.934	-11.09
275.15	-45.91
275.366	3.24
275.581	-19.29
275.797	29.87
276.012	-37.72
276.228	1.19
276.444	38.06
276.659	105.64
276.875	-4.95
277.09	-9.05
277.306	-9.05
277.521	42.15
277.737	33.96
277.952	162.98
278.168	46.25
278.383	70.83
278.599	97.45
278.814	93.35
279.03	38.06
279.245	87.21
279.461	-2.9
279.676	109.74
279.892	-68.44
280.107	1.19
280.322	-25.43
280.538	85.16
280.753	-25.43
280.969	52.39
281.184	46.25
281.399	111.78
281.615	85.16
281.83	31.91
282.045	-123.73
282.26	36.01
282.476	-11.09
282.691	173.22
282.906	156.84
283.122	72.87
283.337	21.67
283.552	66.73
283.767	40.11
283.983	62.63
284.198	70.83
284.413	81.07
284.628	-95.06
284.843	105.64
285.058	64.68
285.274	-9.05
285.489	-113.49
285.704	165.03
285.919	-31.57
286.134	-11.09
286.349	-13.14
286.564	-19.29
286.779	38.06
286.995	9.39
287.21	-101.2
287.425	72.87
287.64	23.72
287.855	27.82
288.07	-76.63
288.285	109.74
288.5	83.11
288.715	48.3
288.93	25.77
289.145	-21.33
289.36	81.07
289.575	-23.38
289.79	189.61
290.004	9.39
290.219	103.59
290.434	15.53
290.649	-50
290.864	17.58
291.079	-0.85
291.294	17.58
291.509	89.26
291.724	-11.09
291.938	-13.14
292.153	72.87
292.368	21.67
292.583	81.07
292.798	44.2
293.012	97.45
293.227	85.16
293.442	11.43
293.657	76.97
293.871	134.31
294.086	50.35
294.301	148.65
294.516	93.35
294.73	21.67
294.945	-111.44
295.16	-25.43
295.374	138.41
295.589	124.07
295.804	91.31
296.018	54.44
296.233	87.21
296.447	87.21
296.662	40.11
296.877	99.5
297.091	113.83
297.306	79.02
297.52	13.48
297.735	113.83
297.949	64.68
298.164	83.11
298.378	54.44
298.593	-11.09
298.807	-50
299.022	79.02
299.236	230.57
299.451	-17.24
299.665	-15.19
299.88	31.91
300.094	85.16
300.309	72.87
300.523	74.92
300.737	44.2
300.952	85.16
301.166	134.31
301.381	-2.9
301.595	-21.33
301.809	36.01
302.024	-37.72
302.238	42.15
302.452	165.03
302.667	103.59
302.881	156.84
303.095	169.13
303.309	62.63
303.524	3.24
303.738	38.06
303.952	95.4
304.166	91.31
304.381	-54.1
304.595	189.61
304.809	-17.24
305.023	126.12
305.237	68.78
305.452	83.11
305.666	85.16
305.88	66.73
306.094	173.22
306.308	109.74
306.522	177.32
306.736	-15.19
306.95	23.72
307.164	11.43
307.379	17.58
307.593	91.31
307.807	103.59
308.021	150.7
308.235	48.3
308.449	-37.72
308.663	38.06
308.877	208.04
309.091	81.07
309.305	99.5
309.519	-17.24
309.733	132.26
309.947	-64.34
310.161	85.16
310.374	56.49
310.588	173.22
310.802	-72.53
311.016	60.59
311.23	81.07
311.444	-31.57
311.658	93.35
311.872	230.57
312.085	183.46
312.299	146.6
312.513	146.6
312.727	21.67
312.941	-35.67
313.154	101.55
313.368	117.93
313.582	-15.19
313.796	40.11
314.009	91.31
314.223	132.26
314.437	38.06
314.651	87.21
314.864	36.01
315.078	13.48
315.292	7.34
315.505	68.78
315.719	31.91
315.933	3.24
316.146	17.58
316.36	62.63
316.573	142.5
316.787	52.39
317.001	128.17
317.214	-29.52
317.428	54.44
317.641	-25.43
317.855	9.39
318.068	62.63
318.282	58.54
318.495	238.76
318.709	62.63
318.922	-7
319.136	124.07
319.349	144.55
319.563	-60.24
319.776	62.63
319.99	-127.83
320.203	130.22
320.417	31.91
320.63	31.91
320.843	160.94
321.057	72.87
321.27	99.5
321.483	36.01
321.697	195.75
321.91	83.11
322.124	46.25
322.337	144.55
322.55	-62.29
322.763	29.87
322.977	-7
323.19	27.82
323.403	68.78
323.617	21.67
323.83	160.94
324.043	-31.57
324.256	87.21
324.469	-13.14
324.683	128.17
324.896	3.24
325.109	40.11
325.322	-23.38
325.535	119.98
325.748	79.02
325.962	-23.38
326.175	38.06
326.388	48.3
326.601	54.44
326.814	97.45
327.027	165.03
327.24	31.91
327.453	-78.68
327.666	33.96
327.879	105.64
328.092	177.32
328.305	115.88
328.518	-33.62
328.731	15.53
328.944	-23.38
329.157	64.68
329.37	17.58
329.583	185.51
329.796	128.17
330.009	19.63
330.222	105.64
330.435	83.11
330.648	5.29
330.861	19.63
331.073	36.01
331.286	83.11
331.499	19.63
331.712	-0.85
331.925	-9.05
332.138	11.43
332.35	119.98
332.563	11.43
332.776	124.07
332.989	31.91
333.202	3.24
333.414	13.48
333.627	3.24
333.84	33.96
334.053	68.78
334.265	-47.96
334.478	11.43
334.691	122.02
334.903	105.64
335.116	42.15
335.329	3.24
335.541	81.07
335.754	171.18
335.966	-19.29
336.179	46.25
336.392	-2.9
336.604	60.59
336.817	134.31
337.029	36.01
337.242	-19.29
337.454	17.58
337.667	87.21
337.88	138.41
338.092	44.2
338.305	93.35
338.517	-15.19
338.729	103.59
338.942	103.59
339.154	-17.24
339.367	33.96
339.579	156.84
339.792	60.59
340.004	146.6
340.217	36.01
340.429	136.36
340.641	17.58
340.854	-19.29
341.066	-19.29
341.278	85.16
341.491	119.98
341.703	-2.9
341.915	79.02
342.128	95.4
342.34	9.39
342.552	11.43
342.764	62.63
342.977	23.72
343.189	144.55
343.401	19.63
343.613	-54.1
343.826	64.68
344.038	-4.95
344.25	140.46
344.462	-62.29
344.674	58.54
344.886	48.3
345.099	64.68
345.311	58.54
345.523	91.31
345.735	-33.62
345.947	72.87
346.159	46.25
346.371	111.78
346.583	-2.9
346.795	138.41
347.007	5.29
347.219	119.98
347.431	38.06
347.643	173.22
347.855	-7
348.067	105.64
348.279	-33.62
348.491	-62.29
348.703	93.35
348.915	17.58
349.127	11.43
349.339	54.44
349.551	11.43
349.763	117.93
349.975	-15.19
350.187	68.78
350.399	74.92
350.61	111.78
350.822	46.25
351.034	64.68
351.246	122.02
351.458	81.07
351.669	15.53
351.881	25.77
352.093	177.32
352.305	154.79
352.517	89.26
352.728	144.55
352.94	115.88
353.152	38.06
353.363	5.29
353.575	64.68
353.787	132.26
353.999	52.39
354.21	162.98
354.422	36.01
354.633	81.07
354.845	3.24
355.057	5.29
355.268	97.45
355.48	119.98
355.692	-138.07
355.903	-13.14
356.115	33.96
356.326	-84.82
356.538	119.98
356.749	87.21
356.961	144.55
357.172	60.59
357.384	56.49
357.595	253.09
357.807	31.91
358.018	52.39
358.23	5.29
358.441	50.35
358.653	97.45
358.864	68.78
359.075	15.53
359.287	29.87
359.498	54.44
359.709	103.59
359.921	42.15
360.132	81.07
360.344	79.02
360.555	1.19
360.766	-47.96
360.977	56.49
361.189	124.07
361.4	-2.9
361.611	165.03
361.823	113.83
362.034	76.97
362.245	-41.81
362.456	66.73
362.667	101.55
362.879	-33.62
363.09	44.2
363.301	72.87
363.512	15.53
363.723	15.53
363.935	5.29
364.146	58.54
364.357	46.25
364.568	46.25
364.779	-105.3
364.99	173.22
365.201	-7
365.412	109.74
365.623	-31.57
365.834	148.65
366.045	-15.19
366.256	48.3
366.467	64.68
366.678	31.91
366.889	38.06
367.1	36.01
367.311	48.3
367.522	38.06
367.733	74.92
367.944	103.59
368.155	-29.52
368.366	142.5
368.577	117.93
368.788	91.31
368.999	36.01
369.209	72.87
369.42	177.32
369.631	210.09
369.842	87.21
370.053	7.34
370.264	132.26
370.474	-27.48
370.685	72.87
370.896	74.92
371.107	105.64
371.317	48.3
371.528	3.24
371.739	122.02
371.95	42.15
372.16	54.44
372.371	-17.24
372.582	-9.05
372.792	25.77
373.003	83.11
373.214	111.78
373.424	79.02
373.635	-54.1
373.846	58.54
374.056	13.48
374.267	74.92
374.477	29.87
374.688	7.34
374.898	85.16
375.109	52.39
375.319	48.3
375.53	167.08
375.74	156.84
375.951	13.48
376.161	70.83
376.372	103.59
376.582	-37.72
376.793	95.4
377.003	64.68
377.214	-21.33
377.424	119.98
377.635	66.73
377.845	-7
378.055	150.7
378.266	29.87
378.476	42.15
378.686	13.48
378.897	52.39
379.107	138.41
379.317	25.77
379.528	50.35
379.738	107.69
379.948	-115.54
380.158	66.73
380.369	101.55
380.579	64.68
380.789	-19.29
380.999	191.66
381.21	83.11
381.42	242.85
381.63	60.59
381.84	79.02
382.05	113.83
382.261	111.78
382.471	122.02
382.681	-86.87
382.891	212.14
383.101	97.45
383.311	-15.19
383.521	25.77
383.731	165.03
383.941	87.21
384.151	60.59
384.361	91.31
384.571	91.31
384.781	132.26
384.991	183.46
385.201	130.22
385.411	124.07
385.621	46.25
385.831	38.06
386.041	62.63
386.251	13.48
386.461	66.73
386.671	101.55
386.881	72.87
387.091	52.39
387.301	113.83
387.511	79.02
387.72	58.54
387.93	83.11
388.14	-47.96
388.35	31.91
388.56	83.11
388.769	113.83
388.979	111.78
389.189	7.34
389.399	54.44
389.609	111.78
389.818	154.79
390.028	105.64
390.238	126.12
390.447	31.91
390.657	70.83
390.867	44.2
391.076	31.91
391.286	97.45
391.496	48.3
391.705	70.83
391.915	144.55
392.125	134.31
392.334	-56.15
392.544	122.02
392.753	44.2
392.963	-25.43
393.172	60.59
393.382	70.83
393.591	208.04
393.801	38.06
394.01	179.37
394.22	111.78
394.429	79.02
394.639	50.35
394.848	148.65
395.058	62.63
395.267	101.55
395.477	93.35
395.686	115.88
395.895	228.52
396.105	251.05
396.314	87.21
396.524	103.59
396.733	33.96
396.942	117.93
397.152	162.98
397.361	154.79
397.57	171.18
397.78	81.07
397.989	113.83
398.198	259.24
398.407	162.98
398.617	101.55
398.826	99.5
399.035	89.26
399.244	115.88
399.453	-27.48
399.663	126.12
399.872	38.06
400.081	-82.77
400.29	105.64
400.499	64.68
400.708	122.02
400.917	38.06
401.127	105.64
401.336	-37.72
401.545	156.84
401.754	132.26
401.963	83.11
402.172	29.87
402.381	-58.2
402.59	31.91
402.799	-2.9
403.008	99.5
403.217	68.78
403.426	99.5
403.635	-15.19
403.844	79.02
404.053	52.39
404.262	-29.52
404.471	109.74
404.68	70.83
404.888	79.02
405.097	38.06
405.306	85.16
405.515	62.63
405.724	13.48
405.933	62.63
406.142	42.15
406.35	66.73
406.559	58.54
406.768	62.63
406.977	150.7
407.185	83.11
407.394	52.39
407.603	-9.05
407.812	105.64
408.02	142.5
408.229	-4.95
408.438	36.01
408.646	-97.11
408.855	93.35
409.064	124.07
409.272	56.49
409.481	87.21
409.69	-9.05
409.898	-15.19
410.107	74.92
410.315	126.12
410.524	-21.33
410.733	101.55
410.941	72.87
411.15	111.78
411.358	93.35
411.567	167.08
411.775	11.43
411.984	169.13
412.192	119.98
412.401	126.12
412.609	214.18
412.818	33.96
413.026	62.63
413.234	60.59
413.443	111.78
413.651	-66.39
413.86	79.02
414.068	150.7
414.276	208.04
414.485	13.48
414.693	134.31
414.901	175.27
415.11	50.35
415.318	81.07
415.526	109.74
415.734	68.78
415.943	111.78
416.151	119.98
416.359	48.3
416.567	36.01
416.776	42.15
416.984	99.5
417.192	187.56
417.4	56.49
417.608	7.34
417.817	-27.48
418.025	130.22
418.233	167.08
418.441	15.53
418.649	-2.9
418.857	115.88
419.065	54.44
419.273	1.19
419.481	9.39
419.689	83.11
419.897	-39.76
420.105	-31.57
420.313	117.93
420.521	175.27
420.729	117.93
420.937	-35.67
421.145	-60.24
421.353	185.51
421.561	160.94
421.769	56.49
421.977	15.53
422.185	158.89
422.393	72.87
422.601	95.4
422.809	29.87
423.017	38.06
423.224	11.43
423.432	197.8
423.64	105.64
423.848	132.26
424.056	76.97
424.263	152.74
424.471	72.87
424.679	220.33
424.887	68.78
425.094	162.98
425.302	101.55
425.51	23.72
425.718	152.74
425.925	79.02
426.133	-19.29
426.341	222.38
426.548	-0.85
426.756	138.41
426.964	122.02
427.171	21.67
427.379	134.31
427.586	103.59
427.794	126.12
428.001	109.74
428.209	109.74
428.417	185.51
428.624	89.26
428.832	33.96
429.039	64.68
429.247	64.68
429.454	109.74
429.662	249
429.869	89.26
430.076	97.45
430.284	191.66
430.491	201.9
430.699	154.79
430.906	193.7
431.114	122.02
431.321	95.4
431.528	89.26
431.736	177.32
431.943	158.89
432.15	175.27
432.358	218.28
432.565	205.99
432.772	15.53
432.979	126.12
433.187	148.65
433.394	246.95
433.601	146.6
433.808	249
434.016	228.52
434.223	300.2
434.43	242.85
434.637	320.68
434.844	218.28
435.052	302.25
435.259	265.38
435.466	240.81
435.673	328.87
435.88	251.05
436.087	371.88
436.294	378.02
436.501	308.39
436.708	363.69
436.915	390.31
437.122	345.25
437.329	253.09
437.537	287.91
437.743	361.64
437.95	459.94
438.157	353.45
438.364	298.15
438.571	470.18
438.778	386.21
438.985	396.45
439.192	558.24
439.399	517.28
439.606	502.95
439.813	527.52
440.02	593.06
440.227	689.31
440.433	601.25
440.64	650.4
440.847	552.1
441.054	648.35
441.261	781.47
441.467	717.98
441.674	515.23
441.881	756.9
442.088	644.26
442.294	795.81
442.501	861.34
442.708	834.72
442.914	820.38
443.121	871.58
443.328	883.87
443.534	892.06
443.741	926.88
443.948	914.59
444.154	1019.04
444.361	1291.41
444.568	1119.39
444.774	1201.3
444.981	1086.62
445.187	1291.41
445.394	1242.26
445.6	1205.4
445.807	1381.53
446.013	1399.96
446.22	1268.89
446.426	1473.68
446.633	1543.32
446.839	1721.49
447.046	1533.08
447.252	1733.78
447.459	1655.95
447.665	1807.5
447.871	1901.71
448.078	2053.26
448.284	1983.63
448.491	2131.08
448.697	2213
448.903	2256.01
449.11	2370.69
449.316	2260.1
449.522	2481.28
449.728	2587.78
449.935	2696.32
450.141	2733.18
450.347	2888.83
450.553	2856.06
450.76	2997.37
450.966	3187.83
451.172	3128.44
451.378	3454.07
451.584	3507.32
451.791	3615.86
451.997	3769.46
452.203	3849.33
452.409	3984.49
452.615	4220.01
452.821	4185.19
453.027	4023.41
453.233	4787.3
453.44	4553.83
453.646	4586.6
453.852	4963.42
454.058	5092.44
454.264	5170.27
454.47	5583.96
454.676	5618.77
454.882	6206.54
455.088	5891.15
455.294	6294.6
455.5	6478.92
455.705	6919.23
455.911	6960.19
456.117	7121.98
456.323	7431.23
456.529	7267.39
456.735	8053.81
456.941	8221.74
457.147	8612.9
457.352	8834.08
457.558	9057.31
457.764	9536.54
457.97	9788.44
458.176	10255.37
458.381	10814.47
458.587	11031.55
458.793	11561.98
458.999	11527.16
459.204	12946.41
459.41	13388.77
459.616	13300.7
459.821	14050.26
460.027	14451.66
460.233	15369.15
460.438	15203.27
460.644	16044.98
460.85	16174
461.055	16980.9
461.261	17904.54
461.466	17550.24
461.672	17834.91
461.878	20044.66
462.083	19454.85
462.289	19798.91
462.494	21111.66
462.7	21091.18
462.905	21500.77
463.111	23010.12
463.316	23780.16
463.522	24462.13
463.727	25283.37
463.932	26407.7
464.138	26862.35
464.343	28078.85
464.549	28326.65
464.754	30788.31
464.959	31197.9
465.165	31969.99
465.37	31539.91
465.575	31365.84
465.781	33667.75
465.986	35070.61
466.191	34585.24
466.397	34333.34
466.602	33686.18
466.807	35392.14
467.012	36242.05
467.218	36766.33
467.423	36465.28
467.628	38285.92
467.833	40000.07
468.038	39279.19
468.244	38349.41
468.449	40311.36
468.654	39397.97
468.859	39866.95
469.064	39565.9
469.269	38636.13
469.474	38701.66
469.679	39983.69
469.885	38582.88
470.09	39553.62
470.295	39467.6
470.5	38734.43
470.705	38951.51
470.91	37608.04
471.115	37485.17
471.32	38345.31
471.525	38308.45
471.73	36792.95
471.935	36713.08
472.139	35537.55
472.344	35703.43
472.549	35195.54
472.754	34343.58
472.959	33604.27
473.164	32893.62
473.369	31963.84
473.574	32897.72
473.778	32066.24
473.983	31752.9
474.188	30927.57
474.393	29612.77
474.598	29752.04
474.802	29033.2
475.007	28861.17
475.212	28441.34
475.417	27351.82
475.621	26944.27
475.826	26968.85
476.031	25873.18
476.235	25688.87
476.44	25572.13
476.645	24949.55
476.849	24689.46
477.054	24539.96
477.259	23749.44
477.463	23493.44
477.668	22989.64
477.872	22917.96
478.077	22252.38
478.282	21760.86
478.486	21508.96
478.691	21701.47
478.895	21259.11
479.1	20945.77
479.304	20790.13
479.509	20165.49
479.713	20355.96
479.918	20052.86
480.122	19475.33
480.326	19616.64
480.531	19727.23
480.735	19450.75
480.94	19252.1
481.144	19497.86
481.348	18594.7
481.553	18729.87
481.757	18078.61
481.961	18428.82
482.166	18629.52
482.37	18219.92
482.574	17646.49
482.778	17886.11
482.983	17972.12
483.187	17779.61
483.391	17496.99
483.595	17320.87
483.8	17042.34
484.004	17167.27
484.208	17263.52
484.412	17011.62
484.616	16511.92
484.821	16518.06
485.025	15793.08
485.229	16266.16
485.433	15877.05
485.637	15815.61
485.841	15610.81
486.045	15293.38
486.249	15186.88
486.453	14836.68
486.657	14732.23
486.861	14586.83
487.065	14214.1
487.269	14085.08
487.473	13786.07
487.677	13865.94
487.881	13614.04
488.085	13261.79
488.289	13020.13
488.493	12686.31
488.697	12747.75
488.901	12413.93
489.105	12051.44
489.309	11975.67
489.512	11676.66
489.716	11340.8
489.92	11256.83
490.124	11060.23
490.328	11205.63
490.531	10521.61
490.735	10818.57
490.939	10611.72
491.143	10081.3
491.346	10161.17
491.55	10091.54
491.754	9933.84
491.958	9628.7
492.161	9337.88
492.365	9360.41
492.569	9176.09
492.772	9169.95
492.976	8870.95
493.18	8727.59
493.383	8760.36
493.587	8725.54
493.79	8451.11
493.994	8424.49
494.197	8250.41
494.401	8309.8
494.605	8066.1
494.808	8152.11
495.012	8121.39
495.215	7961.65
495.419	7867.44
495.622	7803.96
495.825	7787.57
496.029	7709.75
496.232	7941.17
496.436	7711.8
496.639	7709.75
496.843	7539.77
497.046	7664.69
497.249	7734.32
497.453	7554.1
497.656	7834.68
497.859	7509.05
498.063	7820.34
498.266	7744.56
498.469	7656.5
498.673	7582.77
498.876	7609.4
499.079	7726.13
499.282	7844.91
499.485	8082.48
499.689	7793.72
499.892	8117.29
500.095	7906.35
500.298	8133.68
500.501	7797.81
500.705	8229.93
500.908	8070.19
501.111	8166.45
501.314	8287.28
501.517	8408.11
501.72	8453.16
501.923	8268.84
502.126	8623.14
502.329	8735.78
502.532	8836.13
502.735	8913.95
502.938	8975.39
503.141	9018.4
503.344	9204.77
503.547	9483.29
503.75	9270.3
503.953	9534.49
504.156	9669.66
504.359	9837.59
504.562	9845.78
504.765	9884.69
504.968	10286.09
505.17	10400.78
505.373	10230.8
505.576	10628.1
505.779	10849.29
505.982	10855.43
506.185	11203.58
506.387	11308.03
506.59	11588.6
506.793	11777.01
506.996	12090.35
507.198	12358.64
507.401	12114.93
507.604	12635.11
507.807	12911.59
508.009	13073.38
508.212	13200.35
508.415	13661.15
508.617	13859.8
508.82	14126.04
509.022	14269.39
509.225	14773.19
509.428	14953.41
509.63	15317.95
509.833	15240.13
510.035	15721.4
510.238	15952.82
510.44	16479.15
510.643	16964.52
510.845	17343.39
511.048	17376.16
511.25	18021.27
511.453	18201.49
511.655	19000.2
511.858	19354.5
512.06	19694.46
512.262	19985.27
512.465	20175.73
512.667	20904.81
512.87	21527.39
513.072	21625.7
513.274	22444.88
513.477	22522.71
513.679	22897.49
513.881	23812.93
514.084	24191.8
514.286	24769.33
514.488	25064.24
514.69	26120.99
514.893	26047.26
515.095	26463
515.297	27327.24
515.499	27464.46
515.701	28502.78
515.904	28898.03
516.106	29311.72
516.308	30173.92
516.51	30585.56
516.712	30876.37
516.914	31349.45
517.116	32529.08
517.318	32979.64
517.52	33401.52
517.722	33561.26
517.925	34683.55
518.127	35345.04
518.329	36420.22
518.531	35801.74
518.733	37030.52
518.935	37300.85
519.136	38128.23
519.338	38601.31
519.54	39352.91
519.742	39778.89
519.944	40157.77
520.146	40952.38
520.348	41321.01
520.55	42080.81
520.752	42359.33
520.954	43158.04
521.155	42555.94
521.357	43756.05
521.559	43991.56
521.761	44970.49
521.963	44632.58
522.164	45607.41
522.366	45394.42
522.568	46475.75
522.77	46508.52
522.971	47397.34
523.173	46975.45
523.375	46995.93
523.576	47487.45
523.778	47294.94
523.98	48222.67
524.181	48359.88
524.383	48253.39
524.584	49138.11
524.786	48587.21
524.988	48021.97
525.189	48802.24
525.391	49138.11
525.592	48939.46
525.794	48961.98
525.995	48628.16
526.197	48787.91
526.398	48585.16
526.6	48554.44
526.801	48419.27
527.003	48814.53
527.204	47972.81
527.406	48194
527.607	47673.81
527.808	47806.93
528.01	46963.17
528.211	46997.98
528.412	47106.52
528.614	46840.29
528.815	46299.62
529.016	46217.71
529.218	44984.83
529.419	45398.52
529.62	44769.79
529.822	44390.92
530.023	43923.98
530.224	43805.2
530.425	42953.24
530.626	42494.5
530.828	42218.02
531.029	42289.7
531.23	41273.91
531.431	41048.63
531.632	40911.42
531.833	40135.24
532.035	39707.21
532.236	39193.17
532.437	39152.21
532.638	38249.06
532.839	38001.25
533.04	37403.25
533.241	36921.98
533.442	36772.47
533.643	36031.11
533.844	35416.72
534.045	35029.65
534.246	34153.12
534.447	34108.07
534.648	33794.73
534.849	33221.3
535.05	32395.96
535.251	32570.04
535.451	31777.48
535.652	31386.32
535.853	31048.4
536.054	30391
536.255	30126.81
536.456	29739.75
536.657	29735.65
536.857	28850.93
537.058	28586.74
537.259	28359.42
537.46	27919.1
537.66	27134.73
537.861	27284.23
538.062	26944.27
538.263	26372.89
538.463	26120.99
538.664	25396.01
538.865	25488.17
539.065	25301.8
539.266	24828.72
539.466	25019.18
539.667	23853.89
539.868	24015.68
540.068	23839.55
540.269	23200.58
540.469	23122.76
540.67	22688.59
540.87	22661.97
541.071	22446.93
541.271	22111.07
541.472	21683.04
541.672	21707.62
541.873	21132.14
542.073	20708.21
542.274	20974.44
542.474	20290.42
542.675	20235.13
542.875	20382.58
543.075	19784.57
543.276	19528.58
543.476	19651.45
543.676	19258.24
543.877	19334.02
544.077	18707.34
544.277	18832.27
544.478	18377.62
544.678	18369.43
544.878	17777.56
545.078	17705.88
545.279	17513.38
545.479	17486.75
545.679	16868.27
545.879	16878.51
546.079	16800.68
546.28	16393.14
546.48	16513.97
546.68	16407.47
546.88	16022.45
547.08	15733.69
547.28	15514.56
547.48	15227.84
547.68	15299.52
547.88	14994.37
548.081	14891.98
548.281	14582.73
548.481	14308.3
548.681	14332.88
548.881	14232.53
549.081	14134.23
549.28	13863.9
549.48	13609.95
549.68	13429.73
549.88	13452.25
550.08	12766.18
550.28	12872.68
550.48	12923.88
550.68	12536.81
550.88	12176.37
551.08	11850.74
551.279	12291.06
551.479	11703.29
551.679	11660.28
551.879	11609.08
552.079	11478.01
552.278	11254.78
552.478	11250.69
552.678	11011.07
552.878	10671.11
553.077	10609.67
553.277	10439.69
553.477	10423.31
553.676	10007.57
553.876	9968.66
554.076	9655.32
554.275	9671.7
554.475	9419.8
554.674	9378.84
554.874	9085.98
555.074	8764.45
555.273	8893.47
555.473	8629.29
555.672	8664.1
555.872	8492.07
556.071	8338.48
556.271	8315.95
556.47	7996.46
556.67	7900.21
556.869	7754.8
557.068	7605.3
557.268	7486.52
557.467	7289.92
557.667	7463.99
557.866	7208
558.065	7089.21
558.265	7050.3
558.464	6730.82
558.663	6790.21
558.863	6732.87
559.062	6792.26
559.261	6515.78
559.461	6450.25
559.66	6329.42
559.859	6198.35
560.058	5911.63
560.258	5809.23
560.457	5882.96
560.656	5897.3
560.855	5596.25
561.054	5616.72
561.253	5674.07
561.453	5465.18
561.652	5252.19
561.851	5321.82
562.05	5131.36
562.249	4965.47
562.448	5143.64
562.647	4826.21
562.846	4934.75
563.045	4754.53
563.244	4830.3
563.443	4848.74
563.642	4459.62
563.841	4629.6
564.04	4523.11
564.239	4379.75
564.438	4271.21
564.637	4156.52
564.836	4162.67
565.035	4131.95
565.234	4074.6
565.432	3949.68
565.631	3988.59
565.83	3886.19
566.029	3816.56
566.228	3839.09
566.427	3830.9
566.625	3851.38
566.824	3675.25
567.023	3722.35
567.222	3562.61
567.42	3429.49
567.619	3409.01
567.818	3341.43
568.016	3527.8
568.215	3396.73
568.414	3394.68
568.612	3142.78
568.811	3273.85
569.01	3175.55
569.208	3015.8
569.407	3150.97
569.605	3083.39
569.804	2911.36
570.002	2958.46
570.201	2802.82
570.4	3024
570.598	2868.35
570.797	2770.05
570.995	2675.84
571.193	2675.84
571.392	2706.56
571.59	2522.24
571.789	2638.98
571.987	2618.5
572.186	2577.54
572.384	2415.75
572.582	2442.37
572.781	2456.71
572.979	2264.2
573.177	2251.91
573.376	2294.92
573.574	2241.67
573.772	2159.75
573.971	2147.47
574.169	2110.6
574.367	2081.93
574.565	2104.46
574.763	2004.11
574.962	2022.54
575.16	1905.81
575.358	1936.53
575.556	2016.4
575.754	1881.23
575.952	1715.34
576.151	1782.93
576.349	1805.46
576.547	1658
576.745	1887.37
576.943	1719.44
577.141	1780.88
577.339	1651.86
577.537	1754.26
577.735	1651.86
577.933	1567.89
578.131	1559.7
578.329	1612.95
578.527	1567.89
578.725	1578.13
578.923	1463.44
579.121	1606.8
579.319	1408.15
579.516	1498.26
579.714	1698.96
579.912	1385.62
580.11	1371.29
580.308	1473.68
580.506	1275.03
580.704	1211.54
580.901	1250.46
581.099	1352.85
581.297	1318.04
581.495	1293.46
581.692	1279.13
581.89	1340.57
582.088	1229.98
582.285	1141.91
582.483	1150.11
582.681	1055.9
582.878	1037.47
583.076	1139.87
583.274	1135.77
583.471	1146.01
583.669	1096.86
583.866	965.79
584.064	1037.47
584.262	883.87
584.459	971.93
584.657	976.03
584.854	1025.18
585.052	976.03
585.249	937.12
585.447	933.02
585.644	806.05
585.841	1006.75
586.039	887.97
586.236	1016.99
586.434	857.25
586.631	814.24
586.828	900.25
587.026	844.96
587.223	697.5
587.42	787.61
587.618	855.2
587.815	812.19
588.012	875.68
588.21	717.98
588.407	758.94
588.604	744.61
588.801	654.5
588.999	709.79
589.196	775.33
589.393	642.21
589.59	758.94
589.787	783.52
589.984	742.56
590.182	738.46
590.379	666.78
590.576	746.66
590.773	732.32
590.97	683.17
591.167	763.04
591.364	732.32
591.561	613.54
591.758	732.32
591.955	722.08
592.152	664.74
592.349	662.69
592.546	572.58
592.743	644.26
592.94	597.15
593.137	717.98
593.334	775.33
593.531	703.65
593.727	695.46
593.924	773.28
594.121	642.21
594.318	703.65
594.515	681.12
594.712	752.8
594.908	804
595.105	734.37
595.302	738.46
595.499	695.46
595.696	851.1
595.892	666.78
596.089	810.14
596.286	722.08
596.482	883.87
596.679	828.57
596.876	844.96
597.072	834.72
597.269	851.1
597.466	1002.65
597.662	861.34
597.859	930.97
598.055	916.64
598.252	1035.42
598.448	1137.82
598.645	1139.87
598.841	1064.09
599.038	1209.5
599.234	1299.61
599.431	1242.26
599.627	1254.55
599.824	1295.51
600.02	1303.7
600.217	1393.81
600.413	1451.16
600.609	1496.21
600.806	1836.17
601.002	1619.09
601.198	1637.52
601.395	1793.17
601.591	1741.97
601.787	1905.81
601.984	1934.48
602.18	2131.08
602.376	2071.69
602.572	2286.73
602.769	2428.04
602.965	2339.97
603.161	2489.48
603.357	2428.04
603.553	2610.31
603.75	2696.32
603.946	2731.14
604.142	2839.68
604.338	3118.2
604.534	3019.9
604.73	3159.16
604.926	3206.27
605.122	3478.65
605.318	3437.69
605.514	3740.79
605.71	3761.27
605.906	3863.66
606.102	3851.38
606.298	4115.56
606.494	4177
606.69	4332.65
606.886	4324.46
607.082	4355.18
607.278	4752.48
607.474	4752.48
607.67	4869.22
607.866	4897.89
608.062	5323.87
608.257	5413.98
608.453	5268.57
608.649	5694.55
608.845	5661.78
609.041	5889.1
609.236	5889.1
609.432	6210.64
609.628	6460.49
609.824	6753.35
610.019	6706.24
610.215	6958.14
610.411	7205.95
610.606	7552.06
610.802	7541.82
610.998	7689.27
611.193	8129.58
611.389	7984.18
611.584	8115.25
611.78	8520.74
611.976	8819.75
612.171	9096.22
612.367	9397.28
612.562	9479.19
612.758	9597.98
612.953	9853.97
613.149	10316.81
613.344	10316.81
613.539	10789.89
613.735	11011.07
613.93	11490.3
614.126	11539.45
614.321	12006.39
614.517	12407.79
614.712	12454.89
614.907	12733.42
615.103	13343.71
615.298	13681.63
615.493	13962.2
615.688	14017.49
615.884	14959.56
616.079	14873.54
616.274	15412.16
616.47	15729.59
616.665	16300.98
616.86	16571.31
617.055	16866.22
617.25	17245.09
617.445	17785.76
617.641	18154.39
617.836	18594.7
618.031	18938.76
618.226	19358.6
618.421	19737.47
618.616	20552.56
618.811	20810.61
619.006	21562.21
619.201	21629.79
619.396	22365.01
619.591	22518.61
619.786	23274.31
619.981	23681.86
620.176	24603.44
620.371	24701.75
620.566	25109.29
620.761	25824.03
620.956	26508.05
621.151	26360.6
621.346	27618.05
621.541	27595.53
621.735	28760.82
621.93	28529.4
622.125	29453.03
622.32	29868.77
622.515	30085.86
622.709	30970.58
622.904	31466.19
623.099	32283.33
623.294	32631.48
623.488	32922.29
623.683	34110.11
623.878	34196.13
624.072	34728.6
624.267	35152.53
624.462	35885.7
624.656	35900.04
624.851	37204.59
625.046	37474.93
625.24	38148.71
625.435	37927.53
625.629	39271
625.824	39213.65
626.018	40081.99
626.213	40016.46
626.407	40671.81
626.602	40800.83
626.796	41888.3
626.991	42312.23
627.185	42781.21
627.38	42709.53
627.574	43237.91
627.768	43162.14
627.963	43323.93
628.157	43127.32
628.352	43829.77
628.546	43186.71
628.74	43989.52
628.935	43301.4
629.129	43465.24
629.323	43301.4
629.517	43383.32
629.712	42953.24
629.906	42621.47
630.1	42218.02
630.294	42228.26
630.489	41546.29
630.683	41663.02
630.877	40235.59
631.071	39952.97
631.265	39260.76
631.459	38287.97
631.653	37517.93
631.848	37247.6
632.042	36285.06
632.236	35781.26
632.43	34355.87
632.624	33540.78
632.818	32316.09
633.012	31339.21
633.206	30872.28
633.4	29919.97
633.594	28654.33
633.788	27988.74
633.982	27054.86
634.176	26370.84
634.369	24931.12
634.563	24392.5
634.757	23141.19
634.951	22465.36
635.145	21586.79
635.339	20650.86
635.533	19860.35
635.726	19227.53
635.92	18230.16
636.114	17654.69
636.308	16901.03
636.501	16139.19
636.695	15606.72
636.889	14906.31
637.083	14306.26
637.276	13540.32
637.47	13216.74
637.664	12837.86
637.857	12239.86
638.051	11674.62
638.244	11254.78
638.438	10679.3
638.632	10439.69
638.825	9991.19
639.019	9468.95
639.212	9147.42
639.406	8862.76
639.599	8277.04
639.793	8002.61
639.986	7832.63
640.18	7726.13
640.373	7167.04
640.567	6958.14
640.76	6769.73
640.954	6388.81
641.147	6245.45
641.34	6030.41
641.534	5721.17
641.727	5538.9
641.92	5311.58
642.114	5325.91
642.307	5053.53
642.5	4693.09
642.694	4500.58
642.887	4256.87
643.08	4422.76
643.273	4177
643.467	3878
643.66	3794.03
643.853	3644.53
644.046	3478.65
644.239	3296.38
644.432	3185.79
644.626	3032.19
644.819	3046.52
645.012	2948.22
645.205	2802.82
645.398	2653.31
645.591	2579.59
645.784	2385.03
645.977	2221.19
646.17	2231.43
646.363	2172.04
646.556	2131.08
646.749	2020.49
646.942	1950.86
647.135	1911.95
647.328	1821.84
647.521	1748.11
647.714	1758.35
647.907	1684.62
648.099	1621.14
648.292	1602.71
648.485	1459.35
648.678	1311.89
648.871	1402.01
649.064	1322.13
649.256	1131.67
649.449	1219.74
649.642	1031.32
649.835	1025.18
650.027	1045.66
650.22	1074.33
650.413	1053.85
650.605	1023.13
650.798	943.26
650.991	976.03
651.183	887.97
651.376	900.25
651.568	908.44
651.761	720.03
651.954	883.87
652.146	791.71
652.339	785.57
652.531	781.47
652.724	615.59
652.916	638.11
653.109	470.18
653.301	644.26
653.494	646.3
653.686	595.11
653.879	687.26
654.071	650.4
654.263	519.33
654.456	531.62
654.648	689.31
654.84	470.18
655.033	476.32
655.225	560.29
655.417	361.64
655.61	478.37
655.802	552.1
655.994	556.19
656.186	371.88
656.379	451.75
656.571	349.35
656.763	335.01
656.955	306.34
657.148	371.88
657.34	453.8
657.532	341.16
657.724	306.34
657.916	437.41
658.108	373.92
658.3	339.11
658.492	367.78
658.684	228.52
658.876	359.59
659.068	261.29
659.26	240.81
659.452	246.95
659.644	277.67
659.836	406.69
660.028	310.44
660.22	249
660.412	126.12
660.604	314.53
660.796	214.18
660.988	373.92
661.18	199.85
661.372	259.24
661.563	273.57
661.755	177.32
661.947	130.22
662.139	177.32
662.331	212.14
662.522	238.76
662.714	156.84
662.906	152.74
663.097	208.04
663.289	91.31
663.481	162.98
663.673	195.75
663.864	187.56
664.056	173.22
664.247	160.94
664.439	234.66
664.631	124.07
664.822	222.38
665.014	173.22
665.205	97.45
665.397	119.98
665.588	189.61
665.78	105.64
665.971	199.85
666.163	158.89
666.354	142.5
666.546	134.31
666.737	177.32
666.929	103.59
667.12	89.26
667.311	259.24
667.503	124.07
667.694	101.55
667.885	193.7
668.077	148.65
668.268	83.11
668.459	162.98
668.651	93.35
668.842	181.42
669.033	91.31
669.224	97.45
669.416	316.58
669.607	146.6
669.798	105.64
669.989	259.24
670.18	99.5
670.371	175.27
670.563	27.82
670.754	181.42
670.945	246.95
671.136	177.32
671.327	83.11
671.518	214.18
671.709	283.81
671.9	173.22
672.091	246.95
672.282	146.6
672.473	232.62
672.664	3.24
672.855	216.23
673.046	181.42
673.237	189.61
673.428	128.17
673.619	140.46
673.809	154.79
674	228.52
674.191	218.28
674.382	103.59
674.573	81.07
674.764	97.45
674.954	335.01
675.145	122.02
675.336	175.27
675.527	134.31
675.717	27.82
675.908	156.84
676.099	66.73
676.289	216.23
676.48	83.11
676.671	132.26
676.861	162.98
677.052	177.32
677.243	130.22
677.433	99.5
677.624	171.18
677.814	212.14
678.005	140.46
678.195	236.71
678.386	87.21
678.576	195.75
678.767	119.98
678.957	142.5
679.148	212.14
679.338	296.1
679.529	203.94
679.719	195.75
679.909	193.7
680.1	175.27
680.29	177.32
680.481	46.25
680.671	212.14
680.861	167.08
681.052	134.31
681.242	134.31
681.432	191.66
681.622	138.41
681.813	128.17
682.003	197.8
682.193	54.44
682.383	175.27
682.573	177.32
682.764	179.37
682.954	156.84
683.144	269.48
683.334	197.8
683.524	148.65
683.714	175.27
683.904	185.51
684.094	271.53
684.284	220.33
684.474	300.2
684.664	294.05
684.854	218.28
685.044	173.22
685.234	165.03
685.424	199.85
685.614	185.51
685.804	314.53
685.994	255.14
686.184	189.61
686.374	185.51
686.564	296.1
686.753	246.95
686.943	107.69
687.133	158.89
687.323	181.42
687.513	275.62
687.702	230.57
687.892	187.56
688.082	232.62
688.272	330.92
688.461	173.22
688.651	279.72
688.841	267.43
689.03	158.89
689.22	197.8
689.41	257.19
689.599	230.57
689.789	107.69
689.979	324.77
690.168	107.69
690.358	220.33
690.547	167.08
690.737	263.33
690.926	279.72
691.116	279.72
691.305	242.85
691.495	162.98
691.684	169.13
691.874	146.6
692.063	201.9
692.252	177.32
692.442	265.38
692.631	111.78
692.82	234.66
693.01	240.81
693.199	189.61
693.388	162.98
693.578	222.38
693.767	195.75
693.956	259.24
694.146	158.89
694.335	240.81
694.524	169.13
694.713	154.79
694.902	187.56
695.092	148.65
695.281	222.38
695.47	101.55
695.659	146.6
695.848	169.13
696.037	91.31
696.226	249
696.415	169.13
696.604	150.7
696.793	281.77
696.982	140.46
697.171	310.44
697.36	146.6
697.549	162.98
697.738	-7
697.927	156.84
698.116	185.51
698.305	126.12
698.494	222.38
698.683	175.27
698.872	287.91
699.061	91.31
699.25	154.79
699.438	150.7
699.627	183.46
699.816	328.87
700.005	99.5
700.193	197.8
700.382	355.49
700.571	208.04
700.76	187.56
700.948	160.94
701.137	210.09
701.326	226.47
701.514	122.02
701.703	265.38
701.892	195.75
702.08	283.81
702.269	115.88
702.457	146.6
702.646	195.75
702.834	165.03
703.023	246.95
703.212	238.76
703.4	208.04
703.589	126.12
703.777	85.16
703.965	99.5
704.154	148.65
704.342	64.68
704.531	95.4
704.719	162.98
704.907	242.85
705.096	138.41
705.284	91.31
705.472	203.94
705.661	179.37
705.849	197.8
706.037	203.94
706.226	234.66
706.414	238.76
706.602	154.79
706.79	242.85
706.979	117.93
707.167	195.75
707.355	19.63
707.543	212.14
707.731	173.22
707.919	156.84
708.107	193.7
708.296	124.07
708.484	101.55
708.672	142.5
708.86	220.33
709.048	144.55
709.236	130.22
709.424	187.56
709.612	205.99
709.8	85.16
709.988	158.89
710.176	251.05
710.364	236.71
710.551	183.46
710.739	169.13
710.927	124.07
711.115	189.61
711.303	189.61
711.491	302.25
711.679	177.32
711.866	181.42
712.054	130.22
712.242	119.98
712.43	228.52
712.617	193.7
712.805	222.38
712.993	167.08
713.181	52.39
713.368	236.71
713.556	187.56
713.744	203.94
713.931	326.82
714.119	199.85
714.306	236.71
714.494	181.42
714.682	156.84
714.869	76.97
715.057	169.13
715.244	101.55
715.432	257.19
715.619	124.07
715.807	232.62
715.994	158.89
716.182	154.79
716.369	228.52
716.556	205.99
716.744	146.6
716.931	89.26
717.119	146.6
717.306	205.99
717.493	285.86
717.681	201.9
717.868	97.45
718.055	205.99
718.242	228.52
718.43	226.47
718.617	263.33
718.804	130.22
718.991	343.21
719.179	242.85
719.366	320.68
719.553	279.72
719.74	205.99
719.927	238.76
720.114	263.33
720.301	152.74
720.488	115.88
720.676	91.31
720.863	326.82
721.05	320.68
721.237	246.95
721.424	197.8
721.611	173.22
721.798	103.59
721.985	146.6
722.172	181.42
722.358	175.27
722.545	236.71
722.732	216.23
722.919	279.72
723.106	160.94
723.293	234.66
723.48	255.14
723.667	136.36
723.853	302.25
724.04	304.29
724.227	273.57
724.414	122.02
724.6	197.8
724.787	359.59
724.974	371.88
725.161	265.38
725.347	156.84
725.534	203.94
725.72	195.75
725.907	330.92
726.094	324.77
726.28	222.38
726.467	226.47
726.653	119.98
726.84	265.38
727.027	345.25
727.213	156.84
727.4	275.62
727.586	271.53
727.773	242.85
727.959	244.9
728.145	165.03
728.332	261.29
728.518	167.08
728.705	257.19
728.891	246.95
729.077	224.42
729.264	146.6
729.45	351.4
729.636	289.96
729.823	310.44
730.009	308.39
730.195	249
730.382	322.73
730.568	117.93
730.754	242.85
730.94	249
731.126	289.96
731.313	300.2
731.499	257.19
731.685	306.34
731.871	285.86
732.057	259.24
732.243	314.53
732.429	277.67
732.615	285.86
732.801	283.81
732.987	308.39
733.173	314.53
733.359	185.51
733.545	322.73
733.731	289.96
733.917	361.64
734.103	300.2
734.289	292.01
734.475	201.9
734.661	410.79
734.847	289.96
735.033	326.82
735.219	339.11
735.404	257.19
735.59	337.06
735.776	236.71
735.962	292.01
736.148	300.2
736.333	339.11
736.519	253.09
736.705	261.29
736.89	332.97
737.076	332.97
737.262	244.9
737.447	238.76
737.633	251.05
737.819	292.01
738.004	287.91
738.19	289.96
738.375	267.43
738.561	375.97
738.747	242.85
738.932	197.8
739.118	431.27
739.303	369.83
739.489	294.05
739.674	185.51
739.859	218.28
740.045	367.78
740.23	369.83
740.416	152.74
740.601	296.1
740.786	367.78
740.972	246.95
741.157	234.66
741.342	275.62
741.528	197.8
741.713	353.45
741.898	238.76
742.084	269.48
742.269	275.62
742.454	267.43
742.639	275.62
742.824	279.72
743.01	365.73
743.195	384.16
743.38	330.92
743.565	375.97
743.75	412.84
743.935	302.25
744.12	412.84
744.305	87.21
744.49	277.67
744.675	300.2
744.86	292.01
745.045	339.11
745.23	285.86
745.415	300.2
745.6	367.78
745.785	201.9
745.97	281.77
746.155	228.52
746.34	449.7
746.525	255.14
746.71	423.08
746.895	195.75
747.079	124.07
747.264	308.39
747.449	318.63
747.634	408.74
747.819	273.57
748.003	271.53
748.188	216.23
748.373	402.6
748.557	337.06
748.742	261.29
748.927	251.05
749.111	318.63
749.296	269.48
749.481	283.81
749.665	257.19
749.85	240.81
750.034	263.33
750.219	294.05
750.404	214.18
750.588	261.29
750.773	238.76
750.957	246.95
751.141	238.76
751.326	302.25
751.51	216.23
751.695	322.73
751.879	271.53
752.064	345.25
752.248	208.04
752.432	427.17
752.617	271.53
752.801	279.72
752.985	271.53
753.17	234.66
753.354	185.51
753.538	158.89
753.722	238.76
753.907	220.33
754.091	144.55
754.275	263.33
754.459	177.32
754.643	173.22
754.828	316.58
755.012	267.43
755.196	169.13
755.38	251.05
755.564	205.99
755.748	185.51
755.932	263.33
756.116	238.76
756.3	310.44
756.484	158.89
756.668	267.43
756.852	81.07
757.036	214.18
757.22	205.99
757.404	230.57
757.588	251.05
757.772	269.48
757.956	212.14
758.14	271.53
758.323	95.4
758.507	124.07
758.691	95.4
758.875	232.62
759.059	281.77
759.242	101.55
759.426	224.42
759.61	214.18
759.794	181.42
759.977	246.95
760.161	384.16
760.345	253.09
760.528	300.2
760.712	212.14
760.895	214.18
761.079	171.18
761.263	46.25
761.446	181.42
761.63	89.26
761.813	271.53
761.997	54.44
762.18	140.46
762.364	140.46
762.547	113.83
762.731	152.74
762.914	146.6
763.098	197.8
763.281	79.02
763.464	148.65
763.648	173.22
763.831	103.59
764.015	119.98
764.198	238.76
764.381	97.45
764.564	95.4
764.748	203.94
764.931	171.18
765.114	113.83
765.297	126.12
765.481	27.82
765.664	105.64
765.847	150.7
766.03	242.85
766.213	138.41
766.397	119.98
766.58	93.35
766.763	183.46
766.946	38.06
767.129	128.17
767.312	165.03
767.495	142.5
767.678	33.96
767.861	165.03
768.044	136.36
768.227	122.02
768.41	107.69
768.593	181.42
768.776	101.55
768.959	128.17
769.142	214.18
769.324	76.97
769.507	85.16
769.69	119.98
769.873	152.74
770.056	238.76
770.239	99.5
770.421	140.46
770.604	152.74
770.787	150.7
770.97	113.83
771.152	38.06
771.335	179.37
771.518	101.55
771.7	232.62
771.883	142.5
772.066	50.35
772.248	126.12
772.431	214.18
772.613	177.32
772.796	87.21
772.978	162.98
773.161	142.5
773.343	107.69
773.526	107.69
773.708	85.16
773.891	89.26
774.073	99.5
774.256	74.92
774.438	138.41
774.621	60.59
774.803	144.55
774.985	36.01
775.168	107.69
775.35	5.29
775.532	101.55
775.715	13.48
775.897	99.5
776.079	68.78
776.261	142.5
776.444	154.79
776.626	109.74
776.808	99.5
776.99	-27.48
777.173	134.31
777.355	72.87
777.537	68.78
777.719	93.35
777.901	124.07
778.083	5.29
778.265	-15.19
778.447	216.23
778.629	40.11
778.811	76.97
778.993	162.98
779.175	124.07
779.357	148.65
779.539	29.87
779.721	87.21
779.903	173.22
780.085	58.54
780.267	60.59
780.449	68.78
780.631	115.88
780.812	173.22
780.994	105.64
781.176	66.73
781.358	44.2
781.54	113.83
781.721	38.06
781.903	148.65
782.085	-0.85
782.267	158.89
782.448	-9.05
782.63	36.01
782.812	99.5
782.993	83.11
783.175	87.21
783.357	7.34
783.538	91.31
783.72	-7
783.901	52.39
784.083	117.93
784.264	76.97
784.446	-74.58
784.627	-19.29
784.809	126.12
784.99	13.48
785.172	95.4
785.353	23.72
785.535	-4.95
785.716	27.82
785.897	-19.29
786.079	99.5
786.26	46.25
786.441	117.93
786.623	-2.9
786.804	40.11
786.985	62.63
787.167	52.39
787.348	52.39
787.529	25.77
787.71	126.12
787.891	124.07
788.073	60.59
788.254	52.39
788.435	222.38
788.616	23.72
788.797	21.67
788.978	27.82
789.159	87.21
789.34	44.2
789.522	58.54
789.703	60.59
789.884	64.68
790.065	40.11
790.246	144.55
790.427	38.06
790.607	167.08
790.788	119.98
790.969	-103.25
791.15	74.92
791.331	-2.9
791.512	-27.48
791.693	-45.91
791.874	-33.62
792.054	128.17
792.235	54.44
792.416	-78.68
792.597	36.01
792.778	126.12
792.958	-21.33
793.139	70.83
793.32	-9.05
793.5	15.53
793.681	197.8
793.862	95.4
794.042	54.44
794.223	-84.82
794.404	-11.09
794.584	-88.92
794.765	25.77
794.945	31.91
795.126	105.64
795.306	154.79
795.487	62.63
795.667	-11.09
795.848	64.68
796.028	91.31
796.209	79.02
796.389	99.5
796.57	48.3
796.75	-7
796.93	-31.57
797.111	-9.05
797.291	64.68
797.471	124.07
797.652	60.59
797.832	-62.29
798.012	70.83
798.192	-76.63
798.373	-27.48
798.553	9.39
798.733	36.01
798.913	-76.63
799.093	23.72
799.274	-11.09
799.454	81.07
799.634	46.25
799.814	87.21
799.994	44.2
800.174	46.25
800.354	58.54
800.534	-88.92
800.714	87.21
800.894	-15.19
801.074	-72.53
801.254	-52.05
801.434	212.14
801.614	11.43
801.794	-35.67
801.974	2063.5
802.154	-9.05
802.334	124.07
802.514	-56.15
802.693	29.87
802.873	-13.14
803.053	136.36
803.233	70.83
803.413	-7
803.592	-19.29
803.772	-56.15
803.952	13.48
804.131	5.29
804.311	81.07
804.491	119.98
804.67	15.53
804.85	1.19
805.03	85.16
805.209	134.31
805.389	-19.29
805.568	-31.57
805.748	-23.38
805.928	-25.43
806.107	66.73
806.287	70.83
806.466	89.26
806.646	87.21
806.825	33.96
807.004	-64.34
807.184	107.69
807.363	42.15
807.543	13.48
807.722	-31.57
807.901	17.58
808.081	87.21
808.26	-60.24
808.439	167.08
808.619	91.31
808.798	-47.96
808.977	38.06
809.156	19.63
809.336	46.25
809.515	115.88
809.694	-82.77
809.873	-9.05
810.052	85.16
810.231	85.16
810.411	36.01
810.59	17.58
810.769	-11.09
810.948	132.26
811.127	-72.53
811.306	-33.62
811.485	5.29
811.664	154.79
811.843	40.11
812.022	17.58
812.201	29.87
812.38	17.58
812.559	-27.48
812.737	58.54
812.916	-2.9
813.095	-27.48
813.274	85.16
813.453	-0.85
813.632	62.63
813.811	93.35
813.989	-84.82
814.168	23.72
814.347	27.82
814.526	13.48
814.704	199.85
814.883	46.25
815.062	-88.92
815.24	91.31
815.419	-107.35
815.598	-4.95
815.776	-70.48
815.955	29.87
816.133	-2.9
816.312	40.11
816.49	13.48
816.669	3.24
816.847	-41.81
817.026	-33.62
817.204	33.96
817.383	-15.19
817.561	-121.68
817.74	11.43
817.918	66.73
818.097	-50
818.275	-15.19
818.453	62.63
818.632	97.45
818.81	-13.14
818.988	29.87
819.167	-13.14
819.345	31.91
819.523	-52.05
819.701	31.91
819.879	48.3
820.058	-17.24
820.236	50.35
820.414	-39.76
820.592	-62.29
820.77	44.2
820.948	-15.19
821.127	-37.72
821.305	66.73
821.483	-17.24
821.661	48.3
821.839	52.39
822.017	13.48
822.195	-7
822.373	144.55
822.551	31.91
822.729	5.29
822.907	23.72
823.085	31.91
823.262	-23.38
823.44	9.39
823.618	-7
823.796	3.24
823.974	-15.19
824.152	9.39
824.329	-19.29
824.507	21.67
824.685	111.78
824.863	62.63
825.04	62.63
825.218	64.68
825.396	-4.95
825.574	54.44
825.751	74.92
825.929	107.69
826.107	-15.19
826.284	-43.86
826.462	42.15
826.639	-29.52
826.817	5.29
826.994	-58.2
827.172	-9.05
827.349	105.64
827.527	19.63
827.704	-4.95
827.882	111.78
828.059	44.2
828.237	-99.16
828.414	91.31
828.591	-170.83
828.769	-27.48
828.946	-72.53
829.124	103.59
829.301	173.22
829.478	-41.81
829.655	33.96
829.833	-17.24
830.01	-60.24
830.187	9.39
830.364	29.87
830.542	-23.38
830.719	107.69
830.896	134.31
831.073	54.44
831.25	52.39
831.427	91.31
831.604	-21.33
831.782	-31.57
831.959	68.78
832.136	72.87
832.313	38.06
832.49	-21.33
832.667	58.54
832.844	-27.48
833.021	119.98
833.198	-39.76
833.374	9.39
833.551	66.73
833.728	13.48
833.905	107.69
834.082	-78.68
834.259	33.96
834.436	81.07
834.612	-47.96
834.789	27.82
834.966	1.19
835.143	93.35
835.319	-129.88
835.496	60.59
835.673	-25.43
835.85	99.5
836.026	58.54
836.203	36.01
836.38	-19.29
836.556	40.11
836.733	-29.52
836.909	99.5
837.086	-80.72
837.262	-107.35
837.439	-25.43
837.616	-74.58
837.792	25.77
837.968	58.54
838.145	-119.64
838.321	9.39
838.498	89.26
838.674	58.54
838.851	42.15
839.027	-37.72
839.203	-25.43
839.38	56.49
839.556	-39.76
839.732	87.21
839.909	-25.43
840.085	31.91
840.261	-80.72
840.437	-68.44
840.614	13.48
840.79	29.87
840.966	9.39
841.142	44.2
841.318	54.44
841.494	25.77
841.671	93.35
841.847	-103.25
842.023	-78.68
842.199	-23.38
842.375	142.5
842.551	-123.73
842.727	17.58
842.903	115.88
843.079	-74.58
843.255	95.4
843.431	-15.19
843.607	36.01
843.783	-162.64
843.959	52.39
844.134	46.25
844.31	119.98
844.486	-4.95
844.662	-88.92
844.838	-2.9
845.013	72.87
845.189	68.78
845.365	3.24
845.541	19.63
845.716	-43.86
845.892	81.07
846.068	-27.48
846.244	-35.67
846.419	9.39
846.595	-82.77
846.77	-109.4
846.946	99.5
847.122	-17.24
847.297	-70.48
847.473	109.74
847.648	-90.96
847.824	23.72
847.999	-37.72
848.175	3.24
848.35	-41.81
848.526	117.93
848.701	23.72
848.876	89.26
849.052	87.21
849.227	-29.52
849.403	7.34
849.578	9.39
849.753	19.63
849.929	42.15
850.104	-109.4
850.279	19.63
850.454	25.77
850.63	44.2
850.805	21.67
850.98	38.06
851.155	-17.24
851.33	62.63
851.505	-66.39
851.681	122.02
851.856	-41.81
852.031	76.97
852.206	46.25
852.381	-45.91
852.556	-9.05
852.731	17.58
852.906	105.64
853.081	40.11
853.256	115.88
853.431	-0.85
853.606	-54.1
853.781	-9.05
853.956	-109.4
854.131	5.29
854.305	-31.57
854.48	-64.34
854.655	-23.38
854.83	-99.16
855.005	-101.2
855.18	-33.62
855.354	-37.72
855.529	76.97
855.704	-43.86
855.879	70.83
856.053	25.77
856.228	3.24
856.403	-74.58
856.577	40.11
856.752	-129.88
856.926	-58.2
857.101	29.87
857.276	-11.09
857.45	60.59
857.625	93.35
857.799	15.53
857.974	15.53
858.148	-58.2
858.323	36.01
858.497	29.87
858.672	-27.48
858.846	15.53
859.02	40.11
859.195	-35.67
859.369	-37.72
859.543	7.34
859.718	-25.43
859.892	33.96
860.066	-0.85
860.241	-7
860.415	-45.91
860.589	-47.96
860.763	-39.76
860.938	1.19
861.112	40.11
861.286	42.15
861.46	91.31
861.634	-27.48
861.808	66.73
861.982	-9.05
862.157	-52.05
862.331	-72.53
862.505	-68.44
862.679	-78.68
862.853	-23.38
863.027	7.34
863.201	95.4
863.375	-58.2
863.549	79.02
863.722	33.96
863.896	79.02
864.07	-76.63
864.244	-45.91
864.418	128.17
864.592	-2.9
864.766	13.48
864.939	3.24
865.113	-7
865.287	66.73
865.461	-113.49
865.634	-35.67
865.808	13.48
865.982	-84.82
866.156	-9.05
866.329	-45.91
866.503	42.15
866.676	79.02
866.85	48.3
867.024	-11.09
867.197	95.4
867.371	101.55
867.544	40.11
867.718	-56.15
867.891	81.07
868.065	-80.72
868.238	5.29
868.412	42.15
868.585	-33.62
868.759	60.59
868.932	-78.68
869.105	-97.11
869.279	-95.06
869.452	-37.72
869.625	79.02
869.799	-13.14
869.972	-17.24
870.145	-27.48
870.319	130.22
870.492	-70.48
870.665	-74.58
870.838	-29.52
871.011	-154.45
871.185	-37.72
871.358	-41.81
871.531	40.11
871.704	-7
871.877	19.63
872.05	-64.34
872.223	-115.54
872.396	72.87
872.569	85.16
872.742	-119.64
872.915	-58.2
873.088	23.72
873.261	-43.86
873.434	58.54
873.607	70.83
873.78	122.02
873.953	-86.87
874.126	3.24
874.299	54.44
874.471	-150.36
874.644	-15.19
874.817	46.25
874.99	81.07
875.163	-76.63
875.335	74.92
875.508	-47.96
875.681	150.7
875.853	-27.48
876.026	21.67
876.199	128.17
876.371	60.59
876.544	-105.3
876.717	-58.2
876.889	19.63
877.062	38.06
877.234	-113.49
877.407	-33.62
877.579	-7
877.752	48.3
877.924	66.73
878.097	42.15
878.269	36.01
878.442	-7
878.614	21.67
878.786	48.3
878.959	33.96
879.131	-29.52
879.303	-4.95
879.476	-43.86
879.648	93.35
879.82	15.53
879.993	33.96
880.165	-129.88
880.337	-93.01
880.509	-35.67
880.681	-15.19
880.854	-80.72
881.026	-7
881.198	160.94
881.37	-0.85
881.542	-23.38
881.714	-33.62
881.886	3.24
882.058	79.02
882.23	27.82
882.402	-78.68
882.574	-33.62
882.746	50.35
882.918	17.58
883.09	54.44
883.262	-0.85
883.434	70.83
883.606	-41.81
883.778	38.06
883.95	91.31
884.122	23.72
884.293	70.83
884.465	44.2
884.637	79.02
884.809	-25.43
884.98	-4.95
885.152	46.25
885.324	64.68
885.496	-54.1
885.667	-37.72
885.839	1.19
886.011	142.5
886.182	7.34
886.354	79.02
886.525	74.92
886.697	9.39
886.869	-88.92
887.04	-19.29
887.212	91.31
887.383	134.31
887.555	-39.76
887.726	15.53
887.897	-19.29
888.069	-99.16
888.24	17.58
888.412	-41.81
888.583	-19.29
888.754	13.48
888.926	-131.92
889.097	-31.57
889.268	-76.63
889.44	-56.15
889.611	-119.64
889.782	9.39
889.953	-154.45
890.125	44.2
890.296	-4.95
890.467	19.63
890.638	-56.15
890.809	-47.96
890.98	3.24
891.151	25.77
891.323	128.17
891.494	-15.19
891.665	9.39
891.836	-39.76
892.007	-0.85
892.178	40.11
892.349	27.82
892.52	-11.09
892.691	-50
892.862	7.34
893.032	-129.88
893.203	-52.05
893.374	7.34
893.545	66.73
893.716	-7
893.887	124.07
894.057	-47.96
894.228	-68.44
894.399	-125.78
894.57	130.22
894.74	31.91
894.911	52.39
895.082	27.82
895.253	-11.09
895.423	-47.96
895.594	126.12
895.764	7.34
895.935	-35.67
896.106	9.39
896.276	-25.43
896.447	15.53
896.617	-78.68
896.788	-88.92
896.958	-86.87
897.129	-64.34
897.299	-29.52
897.47	66.73
897.64	50.35
897.81	3.24
897.981	-4.95
898.151	-62.29
898.322	54.44
898.492	-23.38
898.662	-50
898.832	-2.9
899.003	-2.9
899.173	68.78
899.343	-97.11
899.513	-33.62
