Data from USB4F104151__38__09-27-26-009.txt Node

Date: Wed Feb 26 09:27:26 EST 2025
User: louis
Spectrometer: USB4F10415
Trigger mode: 4
Integration Time (sec): 1.000000E-1
Scans to average: 1
Electric dark correction enabled: true
Nonlinearity correction enabled: false
Boxcar width: 0
XAxis mode: Wavelengths
Number of Pixels in Spectrum: 3648
>>>>>Begin Spectral Data<<<<<
178.204	-395.26
178.424	-395.26
178.644	-395.26
178.864	-370.68
179.084	-397.31
179.304	12.29
179.524	-16.38
179.744	51.2
179.964	-12.29
180.184	28.67
180.404	8.19
180.624	-32.77
180.844	40.96
181.064	-79.87
181.283	57.34
181.503	-49.15
181.723	-8.19
181.943	-12.29
182.163	174.08
182.383	-24.58
182.602	73.73
182.822	96.25
183.042	53.25
183.262	92.16
183.482	40.96
183.701	43.01
183.921	108.54
184.141	30.72
184.361	51.2
184.58	36.86
184.8	65.54
185.02	8.19
185.239	81.92
185.459	34.82
185.679	102.4
185.898	-40.96
186.118	59.39
186.338	122.88
186.557	75.77
186.777	-24.58
186.997	-67.58
187.216	69.63
187.436	86.01
187.655	4.1
187.875	24.58
188.095	32.77
188.314	159.74
188.534	88.06
188.753	-22.53
188.973	69.63
189.192	200.7
189.412	38.91
189.631	53.25
189.851	122.88
190.07	147.45
190.29	-92.16
190.509	-40.96
190.729	73.73
190.948	98.3
191.168	249.85
191.387	45.06
191.607	22.53
191.826	18.43
192.045	71.68
192.265	61.44
192.484	30.72
192.704	86.01
192.923	-131.07
193.142	129.02
193.362	98.3
193.581	116.73
193.8	-12.29
194.02	57.34
194.239	63.49
194.458	98.3
194.678	26.62
194.897	88.06
195.116	90.11
195.335	69.63
195.555	96.25
195.774	-4.1
195.993	182.27
196.212	57.34
196.432	-16.38
196.651	26.62
196.87	28.67
197.089	202.75
197.308	81.92
197.528	63.49
197.747	-16.38
197.966	81.92
198.185	174.08
198.404	30.72
198.623	122.88
198.842	137.21
199.062	63.49
199.281	36.86
199.5	59.39
199.719	49.15
199.938	57.34
200.157	106.49
200.376	118.78
200.595	69.63
200.814	59.39
201.033	-10.24
201.252	73.73
201.471	73.73
201.69	100.35
201.909	88.06
202.128	172.03
202.347	98.3
202.566	14.34
202.785	-65.53
203.004	-24.58
203.223	180.22
203.442	20.48
203.661	-40.96
203.879	86.01
204.098	133.12
204.317	-12.29
204.536	59.39
204.755	79.87
204.974	165.89
205.193	-2.05
205.411	176.13
205.63	53.25
205.849	61.44
206.068	10.24
206.287	2.05
206.505	73.73
206.724	12.29
206.943	34.82
207.162	36.86
207.381	53.25
207.599	-4.1
207.818	2.05
208.037	-45.06
208.255	2.05
208.474	96.25
208.693	-12.29
208.911	61.44
209.13	118.78
209.349	65.54
209.567	22.53
209.786	53.25
210.005	63.49
210.223	-8.19
210.442	-118.78
210.661	-2.05
210.879	90.11
211.098	-28.67
211.316	88.06
211.535	61.44
211.753	75.77
211.972	-10.24
212.191	-32.77
212.409	8.19
212.628	-2.05
212.846	4.1
213.065	120.83
213.283	90.11
213.502	-18.43
213.72	69.63
213.938	28.67
214.157	20.48
214.375	114.69
214.594	-30.72
214.812	57.34
215.031	14.34
215.249	24.58
215.467	65.54
215.686	12.29
215.904	120.83
216.122	-12.29
216.341	75.77
216.559	57.34
216.778	53.25
216.996	73.73
217.214	40.96
217.432	-26.62
217.651	20.48
217.869	112.64
218.087	51.2
218.306	69.63
218.524	36.86
218.742	26.62
218.96	20.48
219.179	6.14
219.397	40.96
219.615	303.1
219.833	210.94
220.051	69.63
220.27	114.69
220.488	133.12
220.706	92.16
220.924	57.34
221.142	24.58
221.36	8.19
221.578	57.34
221.796	-4.1
222.015	71.68
222.233	30.72
222.451	141.31
222.669	-63.49
222.887	61.44
223.105	0
223.323	40.96
223.541	-47.1
223.759	53.25
223.977	49.15
224.195	149.5
224.413	0
224.631	14.34
224.849	36.86
225.067	169.98
225.285	-36.86
225.503	49.15
225.721	-133.12
225.939	57.34
226.157	-20.48
226.375	196.61
226.592	36.86
226.81	34.82
227.028	112.64
227.246	161.79
227.464	116.73
227.682	81.92
227.9	38.91
228.117	81.92
228.335	34.82
228.553	16.38
228.771	75.77
228.989	51.2
229.206	61.44
229.424	49.15
229.642	-4.1
229.86	-10.24
230.077	71.68
230.295	30.72
230.513	118.78
230.731	45.06
230.948	167.93
231.166	178.17
231.384	47.1
231.601	-24.58
231.819	159.74
232.037	-6.14
232.254	12.29
232.472	106.49
232.689	-8.19
232.907	69.63
233.125	8.19
233.342	20.48
233.56	-16.38
233.777	61.44
233.995	65.54
234.213	40.96
234.43	65.54
234.648	92.16
234.865	-38.91
235.083	45.06
235.3	14.34
235.518	131.07
235.735	57.34
235.953	32.77
236.17	69.63
236.388	24.58
236.605	49.15
236.822	40.96
237.04	67.58
237.257	51.2
237.475	-2.05
237.692	-12.29
237.909	16.38
238.127	24.58
238.344	178.17
238.562	65.54
238.779	-94.21
238.996	-51.2
239.214	141.31
239.431	116.73
239.648	98.3
239.865	49.15
240.083	75.77
240.3	0
240.517	0
240.735	-28.67
240.952	92.16
241.169	51.2
241.386	69.63
241.603	8.19
241.821	61.44
242.038	92.16
242.255	86.01
242.472	32.77
242.689	47.1
242.907	98.3
243.124	-6.14
243.341	83.97
243.558	24.58
243.775	34.82
243.992	-2.05
244.209	28.67
244.426	114.69
244.643	92.16
244.86	26.62
245.078	90.11
245.295	30.72
245.512	16.38
245.729	-43.01
245.946	143.36
246.163	94.21
246.38	-12.29
246.597	-4.1
246.814	61.44
247.031	0
247.248	51.2
247.464	106.49
247.681	20.48
247.898	36.86
248.115	53.25
248.332	-2.05
248.549	114.69
248.766	161.79
248.983	-20.48
249.2	98.3
249.417	118.78
249.633	69.63
249.85	86.01
250.067	49.15
250.284	43.01
250.501	67.58
250.717	81.92
250.934	-75.77
251.151	16.38
251.368	12.29
251.585	6.14
251.801	47.1
252.018	12.29
252.235	49.15
252.451	-36.86
252.668	65.54
252.885	153.6
253.102	71.68
253.318	-32.77
253.535	-51.2
253.752	-10.24
253.968	0
254.185	-83.97
254.401	65.54
254.618	153.6
254.835	16.38
255.051	102.4
255.268	79.87
255.484	28.67
255.701	-2.05
255.917	36.86
256.134	-49.15
256.351	-8.19
256.567	-8.19
256.784	10.24
257	-34.82
257.217	51.2
257.433	53.25
257.65	53.25
257.866	20.48
258.082	-8.19
258.299	-32.77
258.515	40.96
258.732	26.62
258.948	12.29
259.165	81.92
259.381	59.39
259.597	36.86
259.814	0
260.03	16.38
260.246	0
260.463	36.86
260.679	155.65
260.895	143.36
261.112	45.06
261.328	-8.19
261.544	2.05
261.761	137.21
261.977	24.58
262.193	0
262.409	92.16
262.626	22.53
262.842	53.25
263.058	26.62
263.274	81.92
263.49	106.49
263.707	104.45
263.923	-14.34
264.139	-51.2
264.355	92.16
264.571	92.16
264.787	86.01
265.004	104.45
265.22	22.53
265.436	-8.19
265.652	14.34
265.868	120.83
266.084	-34.82
266.3	122.88
266.516	-73.73
266.732	83.97
266.948	-12.29
267.164	14.34
267.38	73.73
267.596	67.58
267.812	253.95
268.028	65.54
268.244	47.1
268.46	55.3
268.676	57.34
268.892	118.78
269.108	96.25
269.324	-61.44
269.54	2.05
269.756	47.1
269.972	-104.45
270.188	49.15
270.403	-73.73
270.619	14.34
270.835	106.49
271.051	45.06
271.267	45.06
271.483	43.01
271.698	61.44
271.914	-4.1
272.13	100.35
272.346	38.91
272.562	59.39
272.777	155.65
272.993	69.63
273.209	26.62
273.425	63.49
273.64	-40.96
273.856	81.92
274.072	26.62
274.287	2.05
274.503	83.97
274.719	81.92
274.934	6.14
275.15	-30.72
275.366	-45.06
275.581	-40.96
275.797	26.62
276.012	40.96
276.228	8.19
276.444	-47.1
276.659	81.92
276.875	0
277.09	98.3
277.306	-8.19
277.521	61.44
277.737	49.15
277.952	79.87
278.168	67.58
278.383	98.3
278.599	-4.1
278.814	90.11
279.03	8.19
279.245	159.74
279.461	-4.1
279.676	55.3
279.892	-45.06
280.107	6.14
280.322	0
280.538	83.97
280.753	8.19
280.969	28.67
281.184	32.77
281.399	69.63
281.615	131.07
281.83	34.82
282.045	-77.82
282.26	-65.53
282.476	61.44
282.691	53.25
282.906	49.15
283.122	-4.1
283.337	-28.67
283.552	63.49
283.767	34.82
283.983	94.21
284.198	22.53
284.413	133.12
284.628	-45.06
284.843	57.34
285.058	88.06
285.274	0
285.489	30.72
285.704	92.16
285.919	36.86
286.134	-69.63
286.349	6.14
286.564	-30.72
286.779	110.59
286.995	114.69
287.21	4.1
287.425	86.01
287.64	34.82
287.855	86.01
288.07	-28.67
288.285	112.64
288.5	73.73
288.715	102.4
288.93	-4.1
289.145	-10.24
289.36	81.92
289.575	24.58
289.79	69.63
290.004	-30.72
290.219	67.58
290.434	-4.1
290.649	36.86
290.864	0
291.079	30.72
291.294	61.44
291.509	6.14
291.724	100.35
291.938	38.91
292.153	10.24
292.368	61.44
292.583	51.2
292.798	69.63
293.012	77.82
293.227	20.48
293.442	34.82
293.657	129.02
293.871	38.91
294.086	40.96
294.301	178.17
294.516	114.69
294.73	28.67
294.945	-73.73
295.16	12.29
295.374	65.54
295.589	67.58
295.804	45.06
296.018	53.25
296.233	106.49
296.447	47.1
296.662	-61.44
296.877	47.1
297.091	110.59
297.306	81.92
297.52	24.58
297.735	114.69
297.949	40.96
298.164	73.73
298.378	40.96
298.593	20.48
298.807	-34.82
299.022	32.77
299.236	159.74
299.451	16.38
299.665	55.3
299.88	65.54
300.094	57.34
300.309	-32.77
300.523	38.91
300.737	36.86
300.952	-30.72
301.166	4.1
301.381	-24.58
301.595	-14.34
301.809	67.58
302.024	63.49
302.238	-18.43
302.452	98.3
302.667	26.62
302.881	159.74
303.095	122.88
303.309	94.21
303.524	12.29
303.738	26.62
303.952	28.67
304.166	165.89
304.381	-57.34
304.595	120.83
304.809	26.62
305.023	86.01
305.237	-2.05
305.452	-16.38
305.666	20.48
305.88	100.35
306.094	143.36
306.308	65.54
306.522	151.55
306.736	51.2
306.95	12.29
307.164	-8.19
307.379	6.14
307.593	108.54
307.807	133.12
308.021	184.32
308.235	83.97
308.449	-104.45
308.663	24.58
308.877	194.56
309.091	57.34
309.305	126.97
309.519	-110.59
309.733	102.4
309.947	4.1
310.161	18.43
310.374	43.01
310.588	182.27
310.802	-32.77
311.016	-20.48
311.23	0
311.444	-4.1
311.658	88.06
311.872	135.17
312.085	155.65
312.299	90.11
312.513	106.49
312.727	10.24
312.941	-47.1
313.154	53.25
313.368	-10.24
313.582	59.39
313.796	120.83
314.009	55.3
314.223	106.49
314.437	57.34
314.651	98.3
314.864	36.86
315.078	16.38
315.292	-69.63
315.505	16.38
315.719	81.92
315.933	65.54
316.146	-16.38
316.36	-30.72
316.573	153.6
316.787	73.73
317.001	114.69
317.214	-32.77
317.428	20.48
317.641	-8.19
317.855	4.1
318.068	-102.4
318.282	77.82
318.495	143.36
318.709	131.07
318.922	69.63
319.136	141.31
319.349	133.12
319.563	-12.29
319.776	65.54
319.99	-57.34
320.203	90.11
320.417	6.14
320.63	-10.24
320.843	90.11
321.057	45.06
321.27	-24.58
321.483	77.82
321.697	139.26
321.91	69.63
322.124	55.3
322.337	53.25
322.55	-26.62
322.763	73.73
322.977	16.38
323.19	38.91
323.403	-20.48
323.617	8.19
323.83	26.62
324.043	59.39
324.256	75.77
324.469	12.29
324.683	65.54
324.896	-24.58
325.109	14.34
325.322	65.54
325.535	104.45
325.748	49.15
325.962	38.91
326.175	98.3
326.388	57.34
326.601	110.59
326.814	32.77
327.027	22.53
327.24	122.88
327.453	-34.82
327.666	53.25
327.879	81.92
328.092	124.93
328.305	81.92
328.518	-43.01
328.731	-40.96
328.944	61.44
329.157	73.73
329.37	0
329.583	131.07
329.796	104.45
330.009	-12.29
330.222	88.06
330.435	110.59
330.648	47.1
330.861	0
331.073	51.2
331.286	61.44
331.499	69.63
331.712	-75.77
331.925	65.54
332.138	32.77
332.35	94.21
332.563	-53.25
332.776	88.06
332.989	40.96
333.202	-43.01
333.414	40.96
333.627	53.25
333.84	12.29
334.053	24.58
334.265	16.38
334.478	-8.19
334.691	8.19
334.903	169.98
335.116	24.58
335.329	53.25
335.541	65.54
335.754	176.13
335.966	-4.1
336.179	-16.38
336.392	-12.29
336.604	69.63
336.817	24.58
337.029	18.43
337.242	45.06
337.454	8.19
337.667	47.1
337.88	83.97
338.092	30.72
338.305	61.44
338.517	-40.96
338.729	83.97
338.942	92.16
339.154	0
339.367	-49.15
339.579	98.3
339.792	-32.77
340.004	98.3
340.217	43.01
340.429	8.19
340.641	0
340.854	4.1
341.066	6.14
341.278	102.4
341.491	159.74
341.703	32.77
341.915	2.05
342.128	63.49
342.34	98.3
342.552	-55.3
342.764	65.54
342.977	-4.1
343.189	83.97
343.401	81.92
343.613	-28.67
343.826	63.49
344.038	-61.44
344.25	69.63
344.462	6.14
344.674	20.48
344.886	-32.77
345.099	81.92
345.311	34.82
345.523	-77.82
345.735	-18.43
345.947	40.96
346.159	53.25
346.371	-83.97
346.583	4.1
346.795	161.79
347.007	-6.14
347.219	147.45
347.431	28.67
347.643	110.59
347.855	-10.24
348.067	159.74
348.279	10.24
348.491	61.44
348.703	16.38
348.915	73.73
349.127	0
349.339	40.96
349.551	-36.86
349.763	47.1
349.975	53.25
350.187	43.01
350.399	79.87
350.61	45.06
350.822	55.3
351.034	73.73
351.246	92.16
351.458	30.72
351.669	36.86
351.881	176.13
352.093	90.11
352.305	75.77
352.517	63.49
352.728	96.25
352.94	81.92
353.152	96.25
353.363	-26.62
353.575	79.87
353.787	210.94
353.999	8.19
354.21	198.65
354.422	16.38
354.633	10.24
354.845	36.86
355.057	40.96
355.268	-10.24
355.48	73.73
355.692	-4.1
355.903	-20.48
356.115	47.1
356.326	-38.91
356.538	122.88
356.749	79.87
356.961	159.74
357.172	65.54
357.384	-40.96
357.595	208.89
357.807	24.58
358.018	81.92
358.23	61.44
358.441	116.73
358.653	53.25
358.864	57.34
359.075	-34.82
359.287	73.73
359.498	83.97
359.709	153.6
359.921	55.3
360.132	92.16
360.344	4.1
360.555	-8.19
360.766	90.11
360.977	-20.48
361.189	141.31
361.4	83.97
361.611	57.34
361.823	110.59
362.034	24.58
362.245	16.38
362.456	71.68
362.667	28.67
362.879	-20.48
363.09	49.15
363.301	104.45
363.512	94.21
363.723	-6.14
363.935	53.25
364.146	94.21
364.357	-55.3
364.568	-24.58
364.779	-55.3
364.99	131.07
365.201	-16.38
365.412	141.31
365.623	-22.53
365.834	40.96
366.045	-49.15
366.256	81.92
366.467	120.83
366.678	-20.48
366.889	71.68
367.1	2.05
367.311	30.72
367.522	4.1
367.733	38.91
367.944	28.67
368.155	43.01
368.366	133.12
368.577	67.58
368.788	172.03
368.999	32.77
369.209	40.96
369.42	243.71
369.631	159.74
369.842	49.15
370.053	71.68
370.264	83.97
370.474	12.29
370.685	63.49
370.896	61.44
371.107	71.68
371.317	14.34
371.528	-2.05
371.739	133.12
371.95	98.3
372.16	47.1
372.371	-18.43
372.582	24.58
372.792	120.83
373.003	40.96
373.214	47.1
373.424	49.15
373.635	-69.63
373.846	155.65
374.056	0
374.267	71.68
374.477	32.77
374.688	-14.34
374.898	86.01
375.109	10.24
375.319	92.16
375.53	145.41
375.74	153.6
375.951	26.62
376.161	73.73
376.372	186.37
376.582	-24.58
376.793	10.24
377.003	28.67
377.214	53.25
377.424	65.54
377.635	10.24
377.845	-6.14
378.055	90.11
378.266	22.53
378.476	43.01
378.686	49.15
378.897	118.78
379.107	96.25
379.317	67.58
379.528	36.86
379.738	73.73
379.948	51.2
380.158	112.64
380.369	8.19
380.579	96.25
380.789	147.45
380.999	151.55
381.21	124.93
381.42	81.92
381.63	-40.96
381.84	161.79
382.05	102.4
382.261	208.89
382.471	114.69
382.681	-28.67
382.891	151.55
383.101	18.43
383.311	-28.67
383.521	-38.91
383.731	98.3
383.941	83.97
384.151	28.67
384.361	-53.25
384.571	49.15
384.781	43.01
384.991	190.46
385.201	133.12
385.411	22.53
385.621	24.58
385.831	61.44
386.041	-6.14
386.251	79.87
386.461	81.92
386.671	81.92
386.881	16.38
387.091	18.43
387.301	129.02
387.511	114.69
387.72	83.97
387.93	126.97
388.14	-90.11
388.35	81.92
388.56	161.79
388.769	32.77
388.979	24.58
389.189	16.38
389.399	114.69
389.609	34.82
389.818	129.02
390.028	96.25
390.238	49.15
390.447	-4.1
390.657	55.3
390.867	-43.01
391.076	-92.16
391.286	16.38
391.496	26.62
391.705	38.91
391.915	98.3
392.125	59.39
392.334	-34.82
392.544	145.41
392.753	96.25
392.963	-34.82
393.172	-10.24
393.382	-8.19
393.591	98.3
393.801	0
394.01	172.03
394.22	131.07
394.429	53.25
394.639	-2.05
394.848	71.68
395.058	-10.24
395.267	57.34
395.477	83.97
395.686	-4.1
395.895	196.61
396.105	147.45
396.314	0
396.524	53.25
396.733	30.72
396.942	131.07
397.152	90.11
397.361	86.01
397.57	116.73
397.78	-8.19
397.989	118.78
398.198	137.21
398.407	51.2
398.617	40.96
398.826	53.25
399.035	10.24
399.244	159.74
399.453	106.49
399.663	81.92
399.872	45.06
400.081	40.96
400.29	114.69
400.499	16.38
400.708	83.97
400.917	88.06
401.127	53.25
401.336	4.1
401.545	200.7
401.754	135.17
401.963	36.86
402.172	53.25
402.381	40.96
402.59	-28.67
402.799	26.62
403.008	75.77
403.217	73.73
403.426	65.54
403.635	0
403.844	86.01
404.053	24.58
404.262	24.58
404.471	135.17
404.68	53.25
404.888	16.38
405.097	43.01
405.306	73.73
405.515	145.41
405.724	-28.67
405.933	104.45
406.142	157.69
406.35	81.92
406.559	96.25
406.768	16.38
406.977	139.26
407.185	53.25
407.394	47.1
407.603	-16.38
407.812	147.45
408.02	151.55
408.229	10.24
408.438	22.53
408.646	-63.49
408.855	24.58
409.064	47.1
409.272	22.53
409.481	24.58
409.69	-34.82
409.898	-55.3
410.107	4.1
410.315	67.58
410.524	77.82
410.733	12.29
410.941	94.21
411.15	53.25
411.358	71.68
411.567	196.61
411.775	49.15
411.984	110.59
412.192	75.77
412.401	40.96
412.609	174.08
412.818	57.34
413.026	131.07
413.234	51.2
413.443	88.06
413.651	12.29
413.86	75.77
414.068	106.49
414.276	151.55
414.485	47.1
414.693	155.65
414.901	176.13
415.11	49.15
415.318	22.53
415.526	94.21
415.734	159.74
415.943	81.92
416.151	118.78
416.359	81.92
416.567	98.3
416.776	18.43
416.984	86.01
417.192	145.41
417.4	0
417.608	40.96
417.817	-24.58
418.025	131.07
418.233	172.03
418.441	-8.19
418.649	8.19
418.857	40.96
419.065	200.7
419.273	-26.62
419.481	79.87
419.689	22.53
419.897	110.59
420.105	-40.96
420.313	51.2
420.521	172.03
420.729	61.44
420.937	49.15
421.145	38.91
421.353	79.87
421.561	112.64
421.769	40.96
421.977	28.67
422.185	176.13
422.393	-12.29
422.601	83.97
422.809	67.58
423.017	81.92
423.224	63.49
423.432	143.36
423.64	-16.38
423.848	135.17
424.056	-51.2
424.263	153.6
424.471	28.67
424.679	161.79
424.887	-4.1
425.094	231.42
425.302	114.69
425.51	53.25
425.718	102.4
425.925	100.35
426.133	28.67
426.341	167.93
426.548	40.96
426.756	14.34
426.964	92.16
427.171	34.82
427.379	63.49
427.586	77.82
427.794	90.11
428.001	141.31
428.209	104.45
428.417	120.83
428.624	137.21
428.832	108.54
429.039	69.63
429.247	96.25
429.454	102.4
429.662	204.8
429.869	49.15
430.076	114.69
430.284	163.84
430.491	206.84
430.699	200.7
430.906	176.13
431.114	186.37
431.321	141.31
431.528	108.54
431.736	143.36
431.943	167.93
432.15	100.35
432.358	172.03
432.565	221.18
432.772	32.77
432.979	151.55
433.187	63.49
433.394	155.65
433.601	135.17
433.808	190.46
434.016	239.61
434.223	147.45
434.43	147.45
434.637	188.41
434.844	264.19
435.052	274.43
435.259	167.93
435.466	225.28
435.673	219.13
435.88	198.65
436.087	235.52
436.294	256
436.501	241.66
436.708	292.86
436.915	237.56
437.122	282.62
437.329	165.89
437.537	303.1
437.743	305.15
437.95	342.01
438.157	276.48
438.364	235.52
438.571	350.2
438.778	280.57
438.985	344.06
439.192	434.17
439.399	284.67
439.606	370.68
439.813	425.98
440.02	528.38
440.227	538.62
440.433	366.59
440.64	479.22
440.847	333.82
441.054	507.9
441.261	507.9
441.467	534.52
441.674	495.61
441.881	577.53
442.088	542.71
442.294	540.66
442.501	612.34
442.708	651.25
442.914	581.62
443.121	638.97
443.328	628.73
443.534	819.19
443.741	649.21
443.948	636.92
444.154	724.98
444.361	827.38
444.568	804.85
444.774	767.99
444.981	827.38
445.187	989.17
445.394	903.15
445.6	933.87
445.807	960.5
446.013	1007.6
446.22	1060.85
446.426	1077.23
446.633	1265.64
446.839	1400.81
447.046	1124.33
447.252	1325.04
447.459	1249.26
447.665	1232.88
447.871	1419.24
448.078	1488.87
448.284	1474.54
448.491	1556.46
448.697	1546.22
448.903	1759.21
449.11	1775.59
449.316	1763.3
449.522	1810.4
449.728	1886.18
449.935	1939.43
450.141	2011.11
450.347	2109.41
450.553	2084.83
450.76	2045.92
450.966	2228.19
451.172	2207.71
451.378	2422.75
451.584	2443.23
451.791	2682.84
451.997	2605.02
452.203	2750.42
452.409	2942.93
452.615	3139.54
452.821	2981.84
453.027	2951.12
453.233	3497.93
453.44	3315.66
453.646	3338.19
453.852	3481.55
454.058	3758.02
454.264	3868.61
454.47	4175.81
454.676	4042.69
454.882	4401.08
455.088	4286.4
455.294	4505.53
455.5	4790.2
455.705	4980.66
455.911	5050.29
456.117	5207.98
456.323	5568.43
456.529	5316.53
456.735	5912.49
456.941	5910.44
457.147	6270.88
457.352	6422.43
457.558	6461.34
457.764	7030.68
457.97	7139.22
458.176	7389.07
458.381	7876.49
458.587	7970.69
458.793	8421.25
458.999	8355.71
459.204	9346.93
459.41	9858.92
459.616	9570.16
459.821	10053.48
460.027	10790.75
460.233	10927.96
460.438	11151.19
460.644	11616.08
460.85	11788.11
461.055	12324.68
461.261	13033.27
461.466	12646.21
461.672	12742.46
461.878	14249.77
462.083	14245.67
462.289	14509.86
462.494	15271.7
462.7	15216.41
462.905	15681.3
463.111	16826.11
463.316	17559.28
463.522	17852.14
463.727	18321.13
463.932	19400.41
464.138	19603.16
464.343	20375.24
464.549	20594.37
464.754	22163.12
464.959	22666.92
465.165	23047.84
465.37	23027.36
465.575	22859.43
465.781	24546.95
465.986	25245.31
466.191	24772.23
466.397	25052.8
466.602	24684.17
466.807	25853.56
467.012	26439.28
467.218	26861.16
467.423	27084.39
467.628	27553.37
467.833	29175.36
468.038	28636.75
468.244	27975.25
468.449	29279.81
468.654	28927.56
468.859	29019.72
469.064	28855.88
469.269	28268.11
469.474	28599.88
469.679	29482.56
469.885	28722.76
470.09	28669.51
470.295	29077.06
470.5	28231.25
470.705	28681.8
470.91	28102.23
471.115	27571.8
471.32	27944.53
471.525	27580
471.73	26814.05
471.935	27084.39
472.139	25722.49
472.344	25941.62
472.549	25996.92
472.754	25011.84
472.959	24514.19
473.164	23629.46
473.369	23424.67
473.574	23948.95
473.778	23813.78
473.983	23252.64
474.188	23045.79
474.393	21907.12
474.598	21638.84
474.802	21235.39
475.007	20936.38
475.212	20969.15
475.417	20102.86
475.621	19945.17
475.826	19693.27
476.031	19109.6
476.235	19042.01
476.44	18837.22
476.645	18065.13
476.849	17985.26
477.054	17616.63
477.259	17297.14
477.463	17426.17
477.668	16832.26
477.872	16856.83
478.077	16238.34
478.282	15761.17
478.486	15832.85
478.691	15435.54
478.895	15433.49
479.1	15185.69
479.304	15283.99
479.509	14716.7
479.713	14905.12
479.918	14528.29
480.122	14264.1
480.326	14253.86
480.531	14630.69
480.735	14067.5
480.94	13926.19
481.144	14659.36
481.348	13666.1
481.553	13852.46
481.757	13274.93
481.961	13612.85
482.166	13567.79
482.37	13623.09
482.574	13109.05
482.778	12896.06
482.983	13162.3
483.187	12805.95
483.391	12775.23
483.595	12803.9
483.8	12472.13
484.004	12449.6
484.208	12355.4
484.412	12236.61
484.616	12287.81
484.821	12003.14
485.025	11700.05
485.229	11773.77
485.433	11589.46
485.637	11329.36
485.841	11134.81
486.045	11278.16
486.249	10876.76
486.453	10817.37
486.657	10731.36
486.861	10383.2
487.065	10082.15
487.269	10168.16
487.473	9641.84
487.677	9850.73
487.881	10030.95
488.085	9439.09
488.289	9451.38
488.493	9056.12
488.697	9277.3
488.901	9078.65
489.105	8836.99
489.309	8689.53
489.512	8796.03
489.716	8386.43
489.92	8294.27
490.124	8064.9
490.328	8257.41
490.531	7802.76
490.735	7747.47
490.939	7557
491.143	7255.95
491.346	7485.33
491.55	7190.42
491.754	6918.04
491.958	7004.05
492.161	6768.54
492.365	6944.66
492.569	6700.95
492.772	6616.99
492.976	6381.47
493.18	6389.66
493.383	6287.26
493.587	6270.88
493.79	6199.2
493.994	5734.31
494.197	5894.05
494.401	5902.25
494.605	5650.35
494.808	5853.09
495.012	5865.38
495.215	5939.11
495.419	5713.83
495.622	5554.09
495.825	5474.22
496.029	5468.08
496.232	5646.25
496.436	5523.37
496.639	5560.24
496.843	5517.23
497.046	5521.32
497.249	5687.21
497.453	5466.03
497.656	5488.56
497.859	5431.21
498.063	5500.84
498.266	5685.16
498.469	5480.36
498.673	5377.97
498.876	5470.12
499.079	5496.75
499.282	5496.75
499.485	5828.52
499.689	5396.4
499.892	5676.97
500.095	5779.37
500.298	5715.88
500.501	5564.33
500.705	5705.64
500.908	6061.99
501.111	5853.09
501.314	5965.73
501.517	6102.95
501.72	5992.36
501.923	6127.52
502.126	6182.82
502.329	6274.98
502.532	6309.79
502.735	6291.36
502.938	6520.73
503.141	6496.16
503.344	6381.47
503.547	6756.25
503.75	6678.43
503.953	6696.86
504.156	6950.81
504.359	6905.75
504.562	7139.22
504.765	7268.24
504.968	7223.19
505.17	7380.88
505.373	7559.05
505.576	7389.07
505.779	7884.68
505.982	7534.48
506.185	8185.73
506.387	7976.84
506.59	8351.62
506.793	8585.08
506.996	8503.17
507.198	8898.42
507.401	8716.16
507.604	8984.44
507.807	9383.79
508.009	9287.54
508.212	9647.98
508.415	9584.49
508.617	9916.26
508.82	10157.92
509.022	9916.26
509.225	10561.37
509.428	10631.01
509.63	10911.58
509.833	10993.5
510.035	11497.3
510.238	11550.54
510.44	11769.68
510.643	12138.31
510.845	12379.97
511.048	12590.91
511.25	12687.17
511.453	13109.05
511.655	13891.37
511.858	13895.47
512.06	14143.27
512.262	14434.08
512.465	14303.01
512.667	14872.35
512.87	15126.3
513.072	15695.63
513.274	16008.97
513.477	16531.2
513.679	16768.77
513.881	17121.02
514.084	17608.44
514.286	18001.65
514.488	17929.97
514.69	18710.24
514.893	19183.32
515.095	19195.61
515.297	19693.27
515.499	20162.25
515.701	20487.88
515.904	20989.63
516.106	21667.51
516.308	22306.48
516.51	22539.94
516.712	23322.27
516.914	23297.69
517.116	23969.43
517.318	24360.59
517.52	24520.33
517.722	25042.56
517.925	25613.95
518.127	26349.17
518.329	26541.67
518.531	26500.72
518.733	27477.6
518.935	27977.3
519.136	28096.08
519.338	28925.51
519.54	29001.29
519.742	29984.31
519.944	30123.57
520.146	30832.17
520.348	31053.35
520.55	31512.1
520.752	31528.48
520.954	32540.18
521.155	32443.92
521.357	32949.77
521.559	33736.19
521.761	34307.57
521.963	34139.64
522.164	34563.57
522.366	34926.06
522.568	35503.59
522.77	35446.24
522.971	35929.56
523.173	35833.31
523.375	36376.02
523.576	36281.81
523.778	36175.32
523.98	36984.27
524.181	37008.84
524.383	37127.63
524.584	37512.64
524.786	37688.77
524.988	37498.31
525.189	37791.17
525.391	38380.98
525.592	38131.13
525.794	37799.36
525.995	37744.06
526.197	38055.36
526.398	37961.15
526.6	37723.58
526.801	37764.54
527.003	38038.97
527.204	37541.32
527.406	37651.91
527.607	37559.75
527.808	37600.71
528.01	36500.95
528.211	36615.63
528.412	37221.83
528.614	36636.11
528.815	36617.68
529.016	36771.28
529.218	35517.92
529.419	35751.39
529.62	35599.84
529.822	35005.93
530.023	34723.31
530.224	34293.24
530.425	34102.78
530.626	33580.54
530.828	33187.33
531.029	33637.89
531.23	32726.54
531.431	32290.32
531.632	32007.7
531.833	32271.89
532.035	31249.96
532.236	31403.55
532.437	30909.99
532.638	30316.08
532.839	30101.04
533.04	29802.04
533.241	29269.57
533.442	29277.76
533.643	28976.71
533.844	28124.75
534.045	27932.25
534.246	27534.94
534.447	27108.96
534.648	26805.86
534.849	26590.83
535.05	25767.54
535.251	25554.55
535.451	25314.94
535.652	25464.44
535.853	24680.07
536.054	24573.58
536.255	24200.85
536.456	23514.78
536.657	23592.6
536.857	23299.74
537.058	22570.66
537.259	22554.28
537.46	22347.43
537.66	22017.71
537.861	22011.57
538.062	21604.02
538.263	21065.41
538.463	20868.8
538.664	20586.18
538.865	20037.33
539.065	20313.8
539.266	19592.92
539.466	19670.74
539.667	19078.88
539.868	19410.65
540.068	19177.18
540.269	18593.51
540.469	18579.17
540.67	18271.98
540.87	18124.52
541.071	17676.02
541.271	17762.03
541.472	17297.14
541.672	17118.97
541.873	16924.41
542.073	16875.26
542.274	16922.37
542.474	16500.48
542.675	16099.08
542.875	16162.57
543.075	15992.59
543.276	15324.95
543.476	15765.26
543.676	15431.44
543.877	15318.81
544.077	15222.55
544.277	14735.14
544.478	14860.06
544.678	14360.36
544.878	14513.95
545.078	14284.58
545.279	13979.43
545.479	13975.34
545.679	13627.18
545.879	13479.73
546.079	13420.34
546.28	13166.39
546.48	13068.09
546.68	13131.58
546.88	12900.16
547.08	12719.93
547.28	12521.28
547.48	12244.81
547.68	12379.97
547.88	12044.1
548.081	12044.1
548.281	11480.91
548.481	11317.08
548.681	11581.26
548.881	11145.05
549.081	11134.81
549.28	10932.06
549.48	10780.51
549.68	10887
549.88	10641.25
550.08	10278.76
550.28	10432.35
550.48	10307.43
550.68	10145.64
550.88	9621.36
551.08	9639.79
551.279	9938.79
551.479	9371.5
551.679	9312.11
551.879	9162.61
552.079	9193.33
552.278	8884.09
552.478	8929.14
552.678	8716.16
552.878	8628.09
553.077	8484.73
553.277	8101.76
553.477	8306.56
553.676	8085.38
553.876	7851.91
554.076	7896.97
554.275	7694.22
554.475	7509.9
554.674	7475.09
554.874	7305.1
555.074	7159.7
555.273	7055.25
555.473	7196.56
555.672	6938.52
555.872	6887.32
556.071	6743.96
556.271	6883.22
556.47	6553.5
556.67	6266.78
556.869	6188.96
557.068	5998.5
557.268	6107.04
557.467	5943.21
557.667	5922.73
557.866	5644.2
558.065	5889.96
558.265	5496.75
558.464	5281.71
558.663	5576.62
558.863	5353.39
559.062	5259.18
559.261	5263.28
559.461	5242.8
559.66	4995
559.859	4802.49
560.058	4859.83
560.258	4675.51
560.457	4546.49
560.656	4683.7
560.855	4501.44
561.054	4413.37
561.253	4351.93
561.453	4267.97
561.652	4366.27
561.851	4319.17
562.05	4200.38
562.249	3960.77
562.448	4089.79
562.647	3907.52
562.846	3790.79
563.045	3946.44
563.244	3745.73
563.443	3594.19
563.642	3577.8
563.841	3452.88
564.04	3487.69
564.239	3467.21
564.438	3246.03
564.637	3342.28
564.836	3354.57
565.035	3151.82
565.234	3166.16
565.432	3153.87
565.631	3133.39
565.83	3026.9
566.029	3030.99
566.228	2912.21
566.427	3030.99
566.625	2787.29
566.824	2858.96
567.023	2834.39
567.222	2744.28
567.42	2652.12
567.619	2619.35
567.818	2639.83
568.016	2830.29
568.215	2555.86
568.414	2496.47
568.612	2535.39
568.811	2441.18
569.01	2346.97
569.208	2400.22
569.407	2443.23
569.605	2408.41
569.804	2275.29
570.002	2242.53
570.201	2164.7
570.4	2240.48
570.598	2238.43
570.797	2023.39
570.995	2082.78
571.193	1990.63
571.392	2072.54
571.59	1968.1
571.789	2070.5
571.987	2023.39
572.186	1974.24
572.384	1851.36
572.582	1804.26
572.781	1902.56
572.979	1818.6
573.177	1816.55
573.376	1804.26
573.574	1757.16
573.772	1667.05
573.971	1583.08
574.169	1488.87
574.367	1566.7
574.565	1630.18
574.763	1558.5
574.962	1546.22
575.16	1423.34
575.358	1374.19
575.556	1478.63
575.754	1476.59
575.952	1335.28
576.151	1296.36
576.349	1437.67
576.547	1302.51
576.745	1331.18
576.943	1421.29
577.141	1292.27
577.339	1150.96
577.537	1249.26
577.735	1345.52
577.933	1259.5
578.131	1089.52
578.329	1239.02
578.527	1052.66
578.725	1167.34
578.923	1058.8
579.121	1079.28
579.319	978.93
579.516	983.02
579.714	1265.64
579.912	1083.38
580.11	989.17
580.308	993.26
580.506	944.11
580.704	839.67
580.901	923.63
581.099	974.83
581.297	905.2
581.495	897.01
581.692	886.77
581.89	937.97
582.088	890.87
582.285	882.67
582.483	749.56
582.681	743.41
582.878	831.48
583.076	806.9
583.274	745.46
583.471	845.81
583.669	765.94
583.866	661.49
584.064	778.23
584.262	677.88
584.459	655.35
584.657	716.79
584.854	741.36
585.052	710.65
585.249	794.61
585.447	724.98
585.644	663.54
585.841	692.21
586.039	638.97
586.236	661.49
586.434	573.43
586.631	600.05
586.828	647.16
587.026	679.93
587.223	479.22
587.42	665.59
587.618	657.4
587.815	667.64
588.012	524.28
588.21	587.77
588.407	675.83
588.604	626.68
588.801	464.89
588.999	593.91
589.196	595.96
589.393	444.41
589.59	557.05
589.787	581.62
589.984	475.13
590.182	518.14
590.379	450.55
590.576	468.98
590.773	481.27
590.97	561.14
591.167	532.47
591.364	430.07
591.561	532.47
591.758	598.01
591.955	528.38
592.152	540.66
592.349	468.98
592.546	403.45
592.743	458.75
592.94	456.7
593.137	542.71
593.334	483.32
593.531	464.89
593.727	561.14
593.924	434.17
594.121	499.7
594.318	462.84
594.515	550.9
594.712	630.77
594.908	540.66
595.105	399.35
595.302	487.42
595.499	505.85
595.696	532.47
595.892	489.46
596.089	684.02
596.286	511.99
596.482	622.58
596.679	702.45
596.876	618.49
597.072	604.15
597.269	548.86
597.466	618.49
597.662	638.97
597.859	645.11
598.055	632.82
598.252	772.08
598.448	841.72
598.645	802.8
598.841	782.32
599.038	884.72
599.234	1019.89
599.431	847.86
599.627	905.2
599.824	876.53
600.02	1023.98
600.217	923.63
600.413	1060.85
600.609	1179.63
600.806	1310.7
601.002	1157.1
601.198	1193.97
601.395	1263.6
601.591	1198.06
601.787	1298.41
601.984	1429.48
602.18	1550.31
602.376	1503.21
602.572	1638.37
602.769	1708.01
602.965	1615.85
603.161	1693.67
603.357	1789.92
603.553	1970.15
603.75	1873.89
603.946	1966.05
604.142	1953.76
604.338	2150.37
604.534	2166.75
604.73	2263.01
604.926	2275.29
605.122	2406.36
605.318	2426.84
605.514	2519
605.71	2555.86
605.906	2748.37
606.102	2688.98
606.298	2897.88
606.494	3039.19
606.69	2998.23
606.886	3076.05
607.082	3063.76
607.278	3248.08
607.474	3241.93
607.67	3583.95
607.866	3463.12
608.062	3694.54
608.257	3735.49
608.453	3833.8
608.649	4016.07
608.845	4149.18
609.041	4140.99
609.236	4437.95
609.432	4313.02
609.628	4595.64
609.824	4618.17
610.019	4677.56
610.215	4847.54
610.411	5050.29
610.606	5214.13
610.802	5279.66
610.998	5273.52
611.193	5570.48
611.389	5478.32
611.584	5652.39
611.78	5988.26
611.976	6158.24
612.171	6387.61
612.367	6512.54
612.562	6561.69
612.758	6862.74
612.953	6791.06
613.149	7147.41
613.344	7364.5
613.539	7505.81
613.735	7595.92
613.93	7894.92
614.126	7937.93
614.321	8527.74
614.517	8454.01
614.712	8759.16
614.907	8933.24
615.103	9234.29
615.298	9215.86
615.493	9680.75
615.688	9658.22
615.884	10149.73
616.079	10211.17
616.274	10635.1
616.47	10882.91
616.665	11169.62
616.86	11503.44
617.055	11511.63
617.25	11974.47
617.445	12308.29
617.641	12486.47
617.836	12808
618.031	12904.25
618.226	13475.63
618.421	13840.17
618.616	14139.18
618.811	14192.42
619.006	14776.09
619.201	14980.89
619.396	15447.83
619.591	15542.03
619.786	16217.86
619.981	16387.85
620.176	16912.13
620.371	16971.52
620.566	17407.73
620.761	17555.19
620.956	18560.74
621.151	18489.06
621.346	18906.85
621.541	19023.58
621.735	19922.64
621.93	19959.5
622.125	20545.22
622.32	20498.12
622.515	21143.23
622.709	21280.44
622.904	21847.73
623.099	22058.67
623.294	22619.81
623.488	22838.95
623.683	23187.1
623.878	23510.68
624.072	24229.52
624.267	24319.63
624.462	24815.24
624.656	24974.98
624.851	25685.62
625.046	25962.1
625.24	26316.4
625.435	26490.48
625.629	26941.03
625.824	27199.07
626.018	27561.56
626.213	27752.02
626.407	28366.42
626.602	28403.28
626.796	29175.36
626.991	29228.61
627.185	29093.44
627.38	29605.44
627.574	29812.28
627.768	29814.33
627.963	30113.33
628.157	29763.13
628.352	30588.46
628.546	30178.87
628.74	30354.99
628.935	30223.92
629.129	30168.63
629.323	30103.09
629.517	30182.96
629.712	30070.33
629.906	29486.65
630.1	29091.4
630.294	29316.67
630.489	28651.08
630.683	28442.19
630.877	28108.37
631.071	27756.12
631.265	27651.67
631.459	26879.59
631.653	26193.52
631.848	25917.04
632.042	25032.32
632.236	24856.2
632.43	23991.95
632.624	23420.57
632.818	22820.52
633.012	22091.44
633.206	21628.6
633.4	20747.97
633.594	19979.98
633.788	19478.23
633.982	18810.59
634.176	18063.08
634.369	17440.5
634.563	16789.25
634.757	16121.61
634.951	15714.06
635.145	14962.46
635.339	14378.79
635.533	13950.76
635.726	13295.41
635.92	12582.72
636.114	12001.1
636.308	11732.81
636.501	11423.57
636.695	10792.8
636.889	10284.9
637.083	9994.09
637.276	9744.24
637.47	9316.21
637.664	8576.89
637.857	8402.82
638.051	8136.58
638.244	7620.49
638.438	7479.18
638.632	7325.58
638.825	6858.65
639.019	6621.08
639.212	6408.09
639.406	6012.84
639.599	5900.2
639.793	5769.13
639.986	5521.32
640.18	5289.9
640.373	5095.35
640.567	4935.6
640.76	4691.9
640.954	4415.42
641.147	4263.87
641.34	3936.2
641.534	3960.77
641.727	3948.48
641.92	3667.91
642.114	3614.66
642.307	3530.7
642.5	3207.12
642.694	3104.72
642.887	2981.84
643.08	3069.91
643.273	2916.31
643.467	2736.09
643.66	2643.93
643.853	2564.06
644.046	2432.99
644.239	2392.03
644.432	2117.6
644.626	2019.3
644.819	2146.27
645.012	2002.91
645.205	1941.47
645.398	1884.13
645.591	1777.64
645.784	1732.58
645.977	1595.37
646.17	1615.85
646.363	1445.87
646.556	1417.19
646.749	1443.82
646.942	1400.81
647.135	1380.33
647.328	1144.81
647.521	1284.08
647.714	1124.33
647.907	1193.97
648.099	1040.37
648.292	1159.15
648.485	1001.46
648.678	880.63
648.871	964.59
649.064	966.64
649.256	860.15
649.449	825.33
649.642	753.65
649.835	765.94
650.027	696.31
650.22	712.69
650.413	731.12
650.605	694.26
650.798	606.2
650.991	663.54
651.183	532.47
651.376	559.1
651.568	638.97
651.761	561.14
651.954	581.62
652.146	434.17
652.339	542.71
652.531	532.47
652.724	497.66
652.916	370.68
653.109	393.21
653.301	479.22
653.494	425.98
653.686	452.6
653.879	495.61
654.071	307.2
654.263	339.96
654.456	358.39
654.648	430.07
654.84	378.87
655.033	356.35
655.225	397.31
655.417	294.91
655.61	475.13
655.802	368.63
655.994	393.21
656.186	262.14
656.379	249.85
656.571	243.71
656.763	282.62
656.955	196.61
657.148	215.04
657.34	376.83
657.532	231.42
657.724	239.61
657.916	212.99
658.108	286.72
658.3	278.52
658.492	235.52
658.684	243.71
658.876	391.16
659.068	65.54
659.26	49.15
659.452	137.21
659.644	145.41
659.836	354.3
660.028	155.65
660.22	180.22
660.412	151.55
660.604	159.74
660.796	200.7
660.988	309.24
661.18	182.27
661.372	215.04
661.563	153.6
661.755	219.13
661.947	147.45
662.139	131.07
662.331	133.12
662.522	131.07
662.714	67.58
662.906	116.73
663.097	157.69
663.289	165.89
663.481	16.38
663.673	167.93
663.864	120.83
664.056	167.93
664.247	112.64
664.439	212.99
664.631	151.55
664.822	192.51
665.014	137.21
665.205	114.69
665.397	61.44
665.588	147.45
665.78	122.88
665.971	172.03
666.163	104.45
666.354	133.12
666.546	20.48
666.737	57.34
666.929	221.18
667.12	137.21
667.311	149.5
667.503	90.11
667.694	149.5
667.885	141.31
668.077	139.26
668.268	40.96
668.459	184.32
668.651	112.64
668.842	83.97
669.033	161.79
669.224	57.34
669.416	319.48
669.607	106.49
669.798	12.29
669.989	243.71
670.18	106.49
670.371	165.89
670.563	26.62
670.754	217.08
670.945	212.99
671.136	118.78
671.327	22.53
671.518	237.56
671.709	182.27
671.9	212.99
672.091	174.08
672.282	129.02
672.473	102.4
672.664	-2.05
672.855	131.07
673.046	155.65
673.237	184.32
673.428	161.79
673.619	272.38
673.809	94.21
674	184.32
674.191	94.21
674.382	141.31
674.573	141.31
674.764	143.36
674.954	165.89
675.145	77.82
675.336	98.3
675.527	69.63
675.717	22.53
675.908	86.01
676.099	83.97
676.289	206.84
676.48	0
676.671	235.52
676.861	120.83
677.052	161.79
677.243	67.58
677.433	88.06
677.624	208.89
677.814	157.69
678.005	73.73
678.195	186.37
678.386	110.59
678.576	116.73
678.767	71.68
678.957	137.21
679.148	169.98
679.338	258.04
679.529	196.61
679.719	161.79
679.909	200.7
680.1	184.32
680.29	139.26
680.481	86.01
680.671	245.76
680.861	247.8
681.052	147.45
681.242	73.73
681.432	159.74
681.622	174.08
681.813	147.45
682.003	188.41
682.193	32.77
682.383	184.32
682.573	155.65
682.764	126.97
682.954	235.52
683.144	331.77
683.334	114.69
683.524	153.6
683.714	202.75
683.904	200.7
684.094	184.32
684.284	92.16
684.474	303.1
684.664	268.28
684.854	180.22
685.044	114.69
685.234	172.03
685.424	182.27
685.614	114.69
685.804	235.52
685.994	272.38
686.184	131.07
686.374	272.38
686.564	172.03
686.753	141.31
686.943	88.06
687.133	169.98
687.323	227.32
687.513	229.37
687.702	188.41
687.892	180.22
688.082	223.23
688.272	260.09
688.461	229.37
688.651	225.28
688.841	231.42
689.03	292.86
689.22	212.99
689.41	196.61
689.599	176.13
689.789	147.45
689.979	317.44
690.168	98.3
690.358	225.28
690.547	178.17
690.737	159.74
690.926	178.17
691.116	286.72
691.305	243.71
691.495	167.93
691.684	196.61
691.874	161.79
692.063	229.37
692.252	284.67
692.442	231.42
692.631	192.51
692.82	217.08
693.01	198.65
693.199	190.46
693.388	149.5
693.578	223.23
693.767	231.42
693.956	180.22
694.146	131.07
694.335	249.85
694.524	161.79
694.713	192.51
694.902	198.65
695.092	96.25
695.281	206.84
695.47	147.45
695.659	145.41
695.848	114.69
696.037	57.34
696.226	247.8
696.415	143.36
696.604	268.28
696.793	229.37
696.982	122.88
697.171	237.56
697.36	157.69
697.549	155.65
697.738	32.77
697.927	122.88
698.116	180.22
698.305	239.61
698.494	204.8
698.683	79.87
698.872	253.95
699.061	122.88
699.25	176.13
699.438	122.88
699.627	135.17
699.816	178.17
700.005	131.07
700.193	131.07
700.382	239.61
700.571	186.37
700.76	184.32
700.948	200.7
701.137	210.94
701.326	204.8
701.514	94.21
701.703	120.83
701.892	204.8
702.08	307.2
702.269	120.83
702.457	118.78
702.646	139.26
702.834	262.14
703.023	229.37
703.212	237.56
703.4	145.41
703.589	100.35
703.777	135.17
703.965	208.89
704.154	100.35
704.342	147.45
704.531	116.73
704.719	180.22
704.907	231.42
705.096	167.93
705.284	14.34
705.472	178.17
705.661	202.75
705.849	165.89
706.037	260.09
706.226	227.32
706.414	186.37
706.602	129.02
706.79	204.8
706.979	147.45
707.167	245.76
707.355	79.87
707.543	188.41
707.731	182.27
707.919	196.61
708.107	172.03
708.296	145.41
708.484	133.12
708.672	217.08
708.86	157.69
709.048	124.93
709.236	100.35
709.424	167.93
709.612	237.56
709.8	57.34
709.988	165.89
710.176	262.14
710.364	237.56
710.551	235.52
710.739	141.31
710.927	159.74
711.115	182.27
711.303	196.61
711.491	274.43
711.679	77.82
711.866	235.52
712.054	98.3
712.242	245.76
712.43	253.95
712.617	180.22
712.805	233.47
712.993	147.45
713.181	16.38
713.368	225.28
713.556	112.64
713.744	145.41
713.931	315.39
714.119	225.28
714.306	145.41
714.494	137.21
714.682	180.22
714.869	65.54
715.057	204.8
715.244	61.44
715.432	172.03
715.619	114.69
715.807	184.32
715.994	135.17
716.182	243.71
716.369	294.91
716.556	266.24
716.744	88.06
716.931	49.15
717.119	280.57
717.306	155.65
717.493	278.52
717.681	104.45
717.868	133.12
718.055	258.04
718.242	186.37
718.43	221.18
718.617	282.62
718.804	167.93
718.991	303.1
719.179	223.23
719.366	262.14
719.553	262.14
719.74	227.32
719.927	157.69
720.114	176.13
720.301	159.74
720.488	116.73
720.676	286.72
720.863	301.05
721.05	358.39
721.237	243.71
721.424	245.76
721.611	258.04
721.798	165.89
721.985	94.21
722.172	202.75
722.358	131.07
722.545	301.05
722.732	165.89
722.919	245.76
723.106	243.71
723.293	149.5
723.48	190.46
723.667	212.99
723.853	282.62
724.04	229.37
724.227	315.39
724.414	143.36
724.6	286.72
724.787	380.92
724.974	260.09
725.161	176.13
725.347	274.43
725.534	172.03
725.72	309.24
725.907	223.23
726.094	274.43
726.28	190.46
726.467	229.37
726.653	178.17
726.84	239.61
727.027	296.96
727.213	264.19
727.4	292.86
727.586	229.37
727.773	208.89
727.959	124.93
728.145	249.85
728.332	274.43
728.518	233.47
728.705	260.09
728.891	364.54
729.077	284.67
729.264	182.27
729.45	233.47
729.636	245.76
729.823	301.05
730.009	266.24
730.195	262.14
730.382	286.72
730.568	219.13
730.754	215.04
730.94	260.09
731.126	280.57
731.313	374.78
731.499	282.62
731.685	319.48
731.871	288.76
732.057	200.7
732.243	321.53
732.429	329.72
732.615	329.72
732.801	245.76
732.987	243.71
733.173	212.99
733.359	276.48
733.545	290.81
733.731	245.76
733.917	352.25
734.103	262.14
734.289	253.95
734.475	186.37
734.661	358.39
734.847	227.32
735.033	399.35
735.219	342.01
735.404	382.97
735.59	194.56
735.776	241.66
735.962	282.62
736.148	288.76
736.333	317.44
736.519	256
736.705	260.09
736.89	319.48
737.076	268.28
737.262	268.28
737.447	253.95
737.633	202.75
737.819	311.29
738.004	245.76
738.19	286.72
738.375	274.43
738.561	327.67
738.747	282.62
738.932	194.56
739.118	368.63
739.303	358.39
739.489	356.35
739.674	251.9
739.859	233.47
740.045	331.77
740.23	331.77
740.416	219.13
740.601	249.85
740.786	288.76
740.972	256
741.157	231.42
741.342	237.56
741.528	258.04
741.713	350.2
741.898	237.56
742.084	278.52
742.269	253.95
742.454	360.44
742.639	397.31
742.824	266.24
743.01	366.59
743.195	407.55
743.38	276.48
743.565	253.95
743.75	294.91
743.935	327.67
744.12	327.67
744.305	227.32
744.49	217.08
744.675	245.76
744.86	182.27
745.045	319.48
745.23	284.67
745.415	219.13
745.6	376.83
745.785	282.62
745.97	362.49
746.155	346.11
746.34	321.53
746.525	247.8
746.71	331.77
746.895	215.04
747.079	237.56
747.264	188.41
747.449	299
747.634	276.48
747.819	262.14
748.003	186.37
748.188	262.14
748.373	264.19
748.557	253.95
748.742	280.57
748.927	241.66
749.111	219.13
749.296	182.27
749.481	333.82
749.665	276.48
749.85	249.85
750.034	262.14
750.219	196.61
750.404	227.32
750.588	247.8
750.773	192.51
750.957	221.18
751.141	229.37
751.326	282.62
751.51	126.97
751.695	196.61
751.879	344.06
752.064	307.2
752.248	286.72
752.432	284.67
752.617	276.48
752.801	331.77
752.985	147.45
753.17	292.86
753.354	192.51
753.538	262.14
753.722	186.37
753.907	180.22
754.091	139.26
754.275	262.14
754.459	118.78
754.643	135.17
754.828	229.37
755.012	182.27
755.196	92.16
755.38	225.28
755.564	180.22
755.748	190.46
755.932	231.42
756.116	235.52
756.3	184.32
756.484	92.16
756.668	194.56
756.852	69.63
757.036	77.82
757.22	155.65
757.404	102.4
757.588	239.61
757.772	299
757.956	176.13
758.14	317.44
758.323	126.97
758.507	206.84
758.691	98.3
758.875	188.41
759.059	159.74
759.242	159.74
759.426	147.45
759.61	157.69
759.794	116.73
759.977	315.39
760.161	327.67
760.345	294.91
760.528	202.75
760.712	180.22
760.895	147.45
761.079	77.82
761.263	73.73
761.446	161.79
761.63	198.65
761.813	176.13
761.997	94.21
762.18	153.6
762.364	139.26
762.547	90.11
762.731	120.83
762.914	67.58
763.098	106.49
763.281	118.78
763.464	40.96
763.648	151.55
763.831	129.02
764.015	172.03
764.198	126.97
764.381	176.13
764.564	169.98
764.748	116.73
764.931	206.84
765.114	94.21
765.297	188.41
765.481	108.54
765.664	81.92
765.847	182.27
766.03	169.98
766.213	102.4
766.397	131.07
766.58	114.69
766.763	210.94
766.946	126.97
767.129	126.97
767.312	28.67
767.495	55.3
767.678	110.59
767.861	106.49
768.044	108.54
768.227	73.73
768.41	57.34
768.593	94.21
768.776	202.75
768.959	192.51
769.142	155.65
769.324	126.97
769.507	57.34
769.69	81.92
769.873	135.17
770.056	282.62
770.239	90.11
770.421	124.93
770.604	153.6
770.787	104.45
770.97	147.45
771.152	61.44
771.335	245.76
771.518	57.34
771.7	227.32
771.883	208.89
772.066	126.97
772.248	129.02
772.431	176.13
772.613	178.17
772.796	118.78
772.978	153.6
773.161	178.17
773.343	90.11
773.526	100.35
773.708	32.77
773.891	163.84
774.073	57.34
774.256	32.77
774.438	249.85
774.621	26.62
774.803	102.4
774.985	100.35
775.168	143.36
775.35	26.62
775.532	75.77
775.715	67.58
775.897	126.97
776.079	47.1
776.261	153.6
776.444	147.45
776.626	149.5
776.808	45.06
776.99	-34.82
777.173	122.88
777.355	108.54
777.537	122.88
777.719	145.41
777.901	24.58
778.083	32.77
778.265	32.77
778.447	98.3
778.629	90.11
778.811	73.73
778.993	137.21
779.175	98.3
779.357	43.01
779.539	-45.06
779.721	145.41
779.903	174.08
780.085	114.69
780.267	81.92
780.449	112.64
780.631	55.3
780.812	153.6
780.994	32.77
781.176	55.3
781.358	120.83
781.54	22.53
781.721	71.68
781.903	149.5
782.085	40.96
782.267	151.55
782.448	4.1
782.63	45.06
782.812	38.91
782.993	77.82
783.175	83.97
783.357	40.96
783.538	106.49
783.72	79.87
783.901	57.34
784.083	71.68
784.264	36.86
784.446	-57.34
784.627	45.06
784.809	57.34
784.99	8.19
785.172	88.06
785.353	83.97
785.535	73.73
785.716	-49.15
785.897	-22.53
786.079	30.72
786.26	81.92
786.441	63.49
786.623	45.06
786.804	65.54
786.985	67.58
787.167	104.45
787.348	14.34
787.529	86.01
787.71	159.74
787.891	86.01
788.073	2.05
788.254	-24.58
788.435	141.31
788.616	55.3
788.797	32.77
788.978	61.44
789.159	-10.24
789.34	65.54
789.522	67.58
789.703	65.54
789.884	57.34
790.065	16.38
790.246	202.75
790.427	-67.58
790.607	126.97
790.788	-18.43
790.969	-20.48
791.15	81.92
791.331	0
791.512	-24.58
791.693	24.58
791.874	20.48
792.054	147.45
792.235	86.01
792.416	-12.29
792.597	6.14
792.778	157.69
792.958	12.29
793.139	-2.05
793.32	47.1
793.5	-69.63
793.681	184.32
793.862	118.78
794.042	-4.1
794.223	-73.73
794.404	38.91
794.584	-92.16
794.765	6.14
794.945	-18.43
795.126	96.25
795.306	88.06
795.487	-2.05
795.667	10.24
795.848	26.62
796.028	18.43
796.209	-36.86
796.389	81.92
796.57	0
796.75	12.29
796.93	-2.05
797.111	4.1
797.291	12.29
797.471	114.69
797.652	36.86
797.832	-12.29
798.012	159.74
798.192	28.67
798.373	-40.96
798.553	10.24
798.733	71.68
798.913	-43.01
799.093	24.58
799.274	-24.58
799.454	73.73
799.634	90.11
799.814	98.3
799.994	61.44
800.174	79.87
800.354	30.72
800.534	-16.38
800.714	55.3
800.894	-26.62
801.074	61.44
801.254	-8.19
801.434	120.83
801.614	-38.91
801.794	16.38
801.974	1699.81
802.154	71.68
802.334	47.1
802.514	-49.15
802.693	-40.96
802.873	49.15
803.053	145.41
803.233	-10.24
803.413	24.58
803.592	-59.39
803.772	8.19
803.952	4.1
804.131	-26.62
804.311	45.06
804.491	-28.67
804.67	-2.05
804.85	-73.73
805.03	63.49
805.209	110.59
805.389	-77.82
805.568	-32.77
805.748	18.43
805.928	-8.19
806.107	24.58
806.287	51.2
806.466	26.62
806.646	-34.82
806.825	32.77
807.004	-2.05
807.184	10.24
807.363	71.68
807.543	-22.53
807.722	-83.97
807.901	172.03
808.081	172.03
808.26	-65.53
808.439	94.21
808.619	-20.48
808.798	34.82
808.977	47.1
809.156	69.63
809.336	-34.82
809.515	59.39
809.694	-65.53
809.873	-71.68
810.052	102.4
810.231	81.92
810.411	49.15
810.59	110.59
810.769	-88.06
810.948	65.54
811.127	-81.92
811.306	-34.82
811.485	32.77
811.664	135.17
811.843	90.11
812.022	0
812.201	-83.97
812.38	32.77
812.559	-16.38
812.737	139.26
812.916	-81.92
813.095	-75.77
813.274	129.02
813.453	32.77
813.632	49.15
813.811	63.49
813.989	24.58
814.168	-12.29
814.347	-106.49
814.526	8.19
814.704	110.59
814.883	47.1
815.062	-8.19
815.24	116.73
815.419	-90.11
815.598	96.25
815.776	-188.41
815.955	20.48
816.133	-49.15
816.312	18.43
816.49	-16.38
816.669	34.82
816.847	10.24
817.026	-10.24
817.204	36.86
817.383	-12.29
817.561	-10.24
817.74	47.1
817.918	-34.82
818.097	-10.24
818.275	24.58
818.453	8.19
818.632	67.58
818.81	-24.58
818.988	-32.77
819.167	57.34
819.345	-24.58
819.523	6.14
819.701	18.43
819.879	40.96
820.058	-32.77
820.236	20.48
820.414	-83.97
820.592	40.96
820.77	-22.53
820.948	-40.96
821.127	-22.53
821.305	61.44
821.483	-106.49
821.661	69.63
821.839	-65.53
822.017	-38.91
822.195	-51.2
822.373	98.3
822.551	12.29
822.729	61.44
822.907	40.96
823.085	49.15
823.262	98.3
823.44	-55.3
823.618	-24.58
823.796	16.38
823.974	-16.38
824.152	71.68
824.329	-59.39
824.507	-26.62
824.685	28.67
824.863	-14.34
825.04	63.49
825.218	16.38
825.396	28.67
825.574	49.15
825.751	4.1
825.929	71.68
826.107	-28.67
826.284	-18.43
826.462	43.01
826.639	-83.97
826.817	-102.4
826.994	30.72
827.172	-49.15
827.349	143.36
827.527	34.82
827.704	90.11
827.882	43.01
828.059	53.25
828.237	-4.1
828.414	92.16
828.591	-104.45
828.769	-26.62
828.946	-12.29
829.124	90.11
829.301	40.96
829.478	6.14
829.655	49.15
829.833	75.77
830.01	-71.68
830.187	81.92
830.364	-4.1
830.542	-61.44
830.719	92.16
830.896	90.11
831.073	45.06
831.25	30.72
831.427	55.3
831.604	0
831.782	0
831.959	77.82
832.136	-67.58
832.313	81.92
832.49	-18.43
832.667	77.82
832.844	-110.59
833.021	65.54
833.198	-12.29
833.374	77.82
833.551	90.11
833.728	-69.63
833.905	55.3
834.082	-143.36
834.259	-16.38
834.436	61.44
834.612	22.53
834.789	133.12
834.966	24.58
835.143	6.14
835.319	-34.82
835.496	90.11
835.673	53.25
835.85	28.67
836.026	94.21
836.203	8.19
836.38	-53.25
836.556	-4.1
836.733	38.91
836.909	81.92
837.086	-90.11
837.262	-28.67
837.439	16.38
837.616	-34.82
837.792	0
837.968	-4.1
838.145	-100.35
838.321	24.58
838.498	26.62
838.674	61.44
838.851	81.92
839.027	22.53
839.203	28.67
839.38	16.38
839.556	-32.77
839.732	55.3
839.909	20.48
840.085	40.96
840.261	-26.62
840.437	-12.29
840.614	24.58
840.79	47.1
840.966	69.63
841.142	-36.86
841.318	6.14
841.494	133.12
841.671	61.44
841.847	-86.01
842.023	-65.53
842.199	-38.91
842.375	75.77
842.551	-47.1
842.727	40.96
842.903	79.87
843.079	-26.62
843.255	106.49
843.431	0
843.607	65.54
843.783	-157.69
843.959	0
844.134	-133.12
844.31	96.25
844.486	-32.77
844.662	-45.06
844.838	-81.92
845.013	59.39
845.189	49.15
845.365	-32.77
845.541	22.53
845.716	14.34
845.892	38.91
846.068	0
846.244	-65.53
846.419	20.48
846.595	-16.38
846.77	-98.3
846.946	53.25
847.122	-26.62
847.297	-30.72
847.473	112.64
847.648	-86.01
847.824	-10.24
847.999	-61.44
848.175	38.91
848.35	53.25
848.526	55.3
848.701	65.54
848.876	-18.43
849.052	106.49
849.227	0
849.403	38.91
849.578	4.1
849.753	20.48
849.929	57.34
850.104	-81.92
850.279	20.48
850.454	14.34
850.63	45.06
850.805	18.43
850.98	106.49
851.155	-2.05
851.33	40.96
851.505	-32.77
851.681	86.01
851.856	-135.17
852.031	-24.58
852.206	2.05
852.381	-73.73
852.556	-45.06
852.731	61.44
852.906	40.96
853.081	16.38
853.256	63.49
853.431	38.91
853.606	-88.06
853.781	-18.43
853.956	-49.15
854.131	12.29
854.305	24.58
854.48	-22.53
854.655	-22.53
854.83	-88.06
855.005	-22.53
855.18	51.2
855.354	28.67
855.529	38.91
855.704	-110.59
855.879	83.97
856.053	-32.77
856.228	-16.38
856.403	-57.34
856.577	16.38
856.752	-36.86
856.926	30.72
857.101	10.24
857.276	-45.06
857.45	53.25
857.625	67.58
857.799	81.92
857.974	0
858.148	-69.63
858.323	96.25
858.497	-34.82
858.672	-106.49
858.846	-94.21
859.02	77.82
859.195	-126.97
859.369	30.72
859.543	69.63
859.718	45.06
859.892	20.48
860.066	-69.63
860.241	-94.21
860.415	-45.06
860.589	-4.1
860.763	-18.43
860.938	-20.48
861.112	20.48
861.286	-20.48
861.46	24.58
861.634	16.38
861.808	2.05
861.982	-102.4
862.157	-28.67
862.331	-6.14
862.505	-90.11
862.679	-88.06
862.853	-24.58
863.027	-4.1
863.201	94.21
863.375	55.3
863.549	43.01
863.722	47.1
863.896	67.58
864.07	-55.3
864.244	2.05
864.418	18.43
864.592	61.44
864.766	63.49
864.939	-53.25
865.113	-55.3
865.287	22.53
865.461	40.96
865.634	-26.62
865.808	47.1
865.982	-90.11
866.156	-53.25
866.329	-120.83
866.503	53.25
866.676	14.34
866.85	16.38
867.024	-20.48
867.197	49.15
867.371	83.97
867.544	65.54
867.718	-81.92
867.891	133.12
868.065	-98.3
868.238	34.82
868.412	67.58
868.585	16.38
868.759	-59.39
868.932	-40.96
869.105	-96.25
869.279	-53.25
869.452	-12.29
869.625	47.1
869.799	2.05
869.972	-126.97
870.145	24.58
870.319	-8.19
870.492	-92.16
870.665	-53.25
870.838	-24.58
871.011	-124.93
871.185	8.19
871.358	-20.48
871.531	-8.19
871.704	-49.15
871.877	-40.96
872.05	-40.96
872.223	-53.25
872.396	55.3
872.569	-36.86
872.742	-163.84
872.915	-28.67
873.088	8.19
873.261	-53.25
873.434	51.2
873.607	-34.82
873.78	98.3
873.953	-61.44
874.126	-10.24
874.299	34.82
874.471	-10.24
874.644	-63.49
874.817	86.01
874.99	55.3
875.163	-8.19
875.335	55.3
875.508	22.53
875.681	90.11
875.853	-53.25
876.026	14.34
876.199	38.91
876.371	26.62
876.544	24.58
876.717	30.72
876.889	-63.49
877.062	-24.58
877.234	-98.3
877.407	-8.19
877.579	-73.73
877.752	0
877.924	88.06
878.097	22.53
878.269	53.25
878.442	-24.58
878.614	24.58
878.786	55.3
878.959	-4.1
879.131	53.25
879.303	-45.06
879.476	-16.38
879.648	100.35
879.82	18.43
879.993	30.72
880.165	-32.77
880.337	-53.25
880.509	-18.43
880.681	-81.92
880.854	-32.77
881.026	124.93
881.198	92.16
881.37	90.11
881.542	73.73
881.714	22.53
881.886	-61.44
882.058	-24.58
882.23	32.77
882.402	10.24
882.574	36.86
882.746	69.63
882.918	118.78
883.09	28.67
883.262	-12.29
883.434	-8.19
883.606	-51.2
883.778	-32.77
883.95	86.01
884.122	-22.53
884.293	36.86
884.465	-36.86
884.637	-16.38
884.809	-2.05
884.98	-2.05
885.152	36.86
885.324	69.63
885.496	-36.86
885.667	0
885.839	45.06
886.011	139.26
886.182	67.58
886.354	63.49
886.525	22.53
886.697	36.86
886.869	-10.24
887.04	8.19
887.212	16.38
887.383	96.25
887.555	-71.68
887.726	-18.43
887.897	-38.91
888.069	4.1
888.24	43.01
888.412	-32.77
888.583	12.29
888.754	30.72
888.926	-114.69
889.097	38.91
889.268	-32.77
889.44	-24.58
889.611	-45.06
889.782	-55.3
889.953	20.48
890.125	90.11
890.296	-26.62
890.467	-28.67
890.638	-20.48
890.809	-32.77
890.98	-57.34
891.151	49.15
891.323	49.15
891.494	32.77
891.665	-14.34
891.836	59.39
892.007	4.1
892.178	18.43
892.349	83.97
892.52	4.1
892.691	20.48
892.862	-59.39
893.032	-4.1
893.203	-30.72
893.374	-20.48
893.545	102.4
893.716	-12.29
893.887	53.25
894.057	-40.96
894.228	49.15
894.399	-43.01
894.57	53.25
894.74	-8.19
894.911	40.96
895.082	-49.15
895.253	-49.15
895.423	14.34
895.594	-8.19
895.764	71.68
895.935	-57.34
896.106	36.86
896.276	-69.63
896.447	24.58
896.617	34.82
896.788	-96.25
896.958	-55.3
897.129	-28.67
897.299	-120.83
897.47	63.49
897.64	137.21
897.81	-49.15
897.981	55.3
898.151	-57.34
898.322	43.01
898.492	36.86
898.662	-22.53
898.832	4.1
899.003	49.15
899.173	4.1
899.343	-71.68
899.513	-77.82
