Data from USB4F104151__38__10-24-48-038.txt Node

Date: Wed Feb 26 10:24:48 EST 2025
User: louis
Spectrometer: USB4F10415
Trigger mode: 4
Integration Time (sec): 1.000000E-1
Scans to average: 1
Electric dark correction enabled: true
Nonlinearity correction enabled: false
Boxcar width: 0
XAxis mode: Wavelengths
Number of Pixels in Spectrum: 3648
>>>>>Begin Spectral Data<<<<<
178.204	-394.58
178.424	-394.58
178.644	-394.58
178.864	-408.91
179.084	-335.18
179.304	15.02
179.524	-71
179.744	4.78
179.964	31.4
180.184	101.03
180.404	31.4
180.624	-52.56
180.844	-32.08
181.064	-95.57
181.283	47.79
181.503	-44.37
181.723	64.17
181.943	-68.95
182.163	158.38
182.383	33.45
182.602	62.12
182.822	158.38
183.042	66.22
183.262	-42.32
183.482	-13.65
183.701	-15.7
183.921	84.65
184.141	2.73
184.361	94.89
184.58	115.37
184.8	101.03
185.02	-40.28
185.239	129.7
185.459	90.79
185.679	82.6
185.898	-73.04
186.118	117.42
186.338	115.37
186.557	58.03
186.777	-120.15
186.997	-40.28
187.216	37.55
187.436	225.96
187.655	70.31
187.875	-7.51
188.095	8.87
188.314	144.04
188.534	86.7
188.753	-21.84
188.973	96.94
189.192	215.72
189.412	8.87
189.631	33.45
189.851	86.7
190.07	187.05
190.29	-71
190.509	-19.8
190.729	12.97
190.948	139.94
191.168	172.71
191.387	84.65
191.607	53.93
191.826	66.22
192.045	53.93
192.265	0.68
192.484	76.46
192.704	39.59
192.923	-17.75
193.142	125.61
193.362	19.11
193.581	135.85
193.8	29.35
194.02	109.23
194.239	121.51
194.458	41.64
194.678	43.69
194.897	55.98
195.116	68.27
195.335	4.78
195.555	148.14
195.774	80.55
195.993	158.38
196.212	66.22
196.432	45.74
196.651	47.79
196.87	62.12
197.089	322.21
197.308	45.74
197.528	90.79
197.747	-7.51
197.966	45.74
198.185	131.75
198.404	-3.41
198.623	154.28
198.842	117.42
199.062	164.52
199.281	125.61
199.5	2.73
199.719	66.22
199.938	37.55
200.157	94.89
200.376	105.13
200.595	166.57
200.814	125.61
201.033	-25.94
201.252	197.29
201.471	58.03
201.69	27.31
201.909	47.79
202.128	154.28
202.347	103.08
202.566	68.27
202.785	-107.86
203.004	-7.51
203.223	264.87
203.442	64.17
203.661	8.87
203.879	133.8
204.098	137.9
204.317	33.45
204.536	144.04
204.755	133.8
204.974	78.51
205.193	45.74
205.411	88.75
205.63	109.23
205.849	45.74
206.068	-9.56
206.287	-1.37
206.505	160.42
206.724	55.98
206.943	10.92
207.162	-9.56
207.381	146.09
207.599	8.87
207.818	70.31
208.037	-11.61
208.255	39.59
208.474	78.51
208.693	53.93
208.911	101.03
209.13	74.41
209.349	76.46
209.567	141.99
209.786	125.61
210.005	205.48
210.223	86.7
210.442	-116.05
210.661	-25.94
210.879	55.98
211.098	47.79
211.316	90.79
211.535	92.84
211.753	103.08
211.972	66.22
212.191	-19.8
212.409	49.83
212.628	74.41
212.846	-5.46
213.065	88.75
213.283	78.51
213.502	86.7
213.72	82.6
213.938	2.73
214.157	33.45
214.375	127.66
214.594	-66.9
214.812	74.41
215.031	17.07
215.249	29.35
215.467	107.18
215.686	43.69
215.904	125.61
216.122	80.55
216.341	115.37
216.559	49.83
216.778	117.42
216.996	121.51
217.214	-5.46
217.432	19.11
217.651	-48.47
217.869	25.26
218.087	21.16
218.306	43.69
218.524	-25.94
218.742	33.45
218.96	90.79
219.179	-44.37
219.397	-17.75
219.615	242.34
219.833	72.36
220.051	-21.84
220.27	72.36
220.488	113.32
220.706	33.45
220.924	17.07
221.142	23.21
221.36	68.27
221.578	96.94
221.796	-1.37
222.015	70.31
222.233	-9.56
222.451	240.3
222.669	-25.94
222.887	94.89
223.105	4.78
223.323	27.31
223.541	45.74
223.759	55.98
223.977	62.12
224.195	133.8
224.413	31.4
224.631	144.04
224.849	111.27
225.067	205.48
225.285	31.4
225.503	19.11
225.721	-99.67
225.939	94.89
226.157	51.88
226.375	185
226.592	23.21
226.81	23.21
227.028	148.14
227.246	76.46
227.464	107.18
227.682	150.18
227.9	160.42
228.117	146.09
228.335	51.88
228.553	-44.37
228.771	43.69
228.989	53.93
229.206	107.18
229.424	94.89
229.642	58.03
229.86	-1.37
230.077	90.79
230.295	72.36
230.513	170.66
230.731	74.41
230.948	127.66
231.166	168.62
231.384	92.84
231.601	-1.37
231.819	250.53
232.037	-38.23
232.254	2.73
232.472	70.31
232.689	8.87
232.907	168.62
233.125	17.07
233.342	88.75
233.56	62.12
233.777	33.45
233.995	113.32
234.213	58.03
234.43	119.46
234.648	37.55
234.865	-3.41
235.083	98.99
235.3	64.17
235.518	98.99
235.735	88.75
235.953	78.51
236.17	33.45
236.388	31.4
236.605	86.7
236.822	21.16
237.04	125.61
237.257	64.17
237.475	-75.09
237.692	21.16
237.909	144.04
238.127	2.73
238.344	113.32
238.562	43.69
238.779	-68.95
238.996	-25.94
239.214	23.21
239.431	80.55
239.648	-30.04
239.865	135.85
240.083	66.22
240.3	64.17
240.517	49.83
240.735	60.07
240.952	111.27
241.169	68.27
241.386	39.59
241.603	0.68
241.821	-73.04
242.038	117.42
242.255	137.9
242.472	4.78
242.689	94.89
242.907	127.66
243.124	31.4
243.341	62.12
243.558	45.74
243.775	-19.8
243.992	12.97
244.209	146.09
244.426	185
244.643	37.55
244.86	-34.13
245.078	176.81
245.295	-11.61
245.512	113.32
245.729	47.79
245.946	58.03
246.163	107.18
246.38	25.26
246.597	111.27
246.814	68.27
247.031	27.31
247.248	37.55
247.464	82.6
247.681	144.04
247.898	31.4
248.115	123.56
248.332	107.18
248.549	193.19
248.766	109.23
248.983	51.88
249.2	92.84
249.417	123.56
249.633	47.79
249.85	-11.61
250.067	74.41
250.284	21.16
250.501	72.36
250.717	94.89
250.934	31.4
251.151	107.18
251.368	37.55
251.585	64.17
251.801	41.64
252.018	21.16
252.235	107.18
252.451	41.64
252.668	0.68
252.885	80.55
253.102	17.07
253.318	80.55
253.535	35.5
253.752	80.55
253.968	21.16
254.185	-34.13
254.401	64.17
254.618	101.03
254.835	45.74
255.051	228.01
255.268	105.13
255.484	94.89
255.701	60.07
255.917	31.4
256.134	-58.71
256.351	58.03
256.567	-44.37
256.784	88.75
257	-46.42
257.217	137.9
257.433	64.17
257.65	0.68
257.866	141.99
258.082	21.16
258.299	29.35
258.515	82.6
258.732	-5.46
258.948	-66.9
259.165	72.36
259.381	-30.04
259.597	105.13
259.814	15.02
260.03	47.79
260.246	15.02
260.463	90.79
260.679	121.51
260.895	135.85
261.112	31.4
261.328	37.55
261.544	-21.84
261.761	180.9
261.977	2.73
262.193	10.92
262.409	74.41
262.626	86.7
262.842	60.07
263.058	-17.75
263.274	98.99
263.49	66.22
263.707	115.37
263.923	117.42
264.139	27.31
264.355	80.55
264.571	92.84
264.787	82.6
265.004	158.38
265.22	53.93
265.436	-44.37
265.652	37.55
265.868	152.23
266.084	-27.99
266.3	88.75
266.516	0.68
266.732	76.46
266.948	-40.28
267.164	-7.51
267.38	129.7
267.596	131.75
267.812	156.33
268.028	10.92
268.244	23.21
268.46	17.07
268.676	47.79
268.892	111.27
269.108	-50.52
269.324	55.98
269.54	-64.85
269.756	60.07
269.972	-38.23
270.188	2.73
270.403	29.35
270.619	2.73
270.835	92.84
271.051	-15.7
271.267	33.45
271.483	-89.43
271.698	117.42
271.914	137.9
272.13	62.12
272.346	-11.61
272.562	-3.41
272.777	168.62
272.993	53.93
273.209	33.45
273.425	66.22
273.64	4.78
273.856	90.79
274.072	-40.28
274.287	33.45
274.503	137.9
274.719	185
274.934	49.83
275.15	-79.19
275.366	12.97
275.581	-52.56
275.797	19.11
276.012	31.4
276.228	35.5
276.444	49.83
276.659	144.04
276.875	0.68
277.09	76.46
277.306	-17.75
277.521	37.55
277.737	55.98
277.952	141.99
278.168	31.4
278.383	78.51
278.599	58.03
278.814	146.09
279.03	51.88
279.245	121.51
279.461	8.87
279.676	80.55
279.892	-23.89
280.107	-68.95
280.322	-54.61
280.538	131.75
280.753	19.11
280.969	27.31
281.184	74.41
281.399	121.51
281.615	80.55
281.83	96.94
282.045	-46.42
282.26	-7.51
282.476	8.87
282.691	58.03
282.906	58.03
283.122	55.98
283.337	-32.08
283.552	78.51
283.767	12.97
283.983	107.18
284.198	6.83
284.413	125.61
284.628	-15.7
284.843	23.21
285.058	107.18
285.274	66.22
285.489	-42.32
285.704	74.41
285.919	-48.47
286.134	19.11
286.349	55.98
286.564	-3.41
286.779	113.32
286.995	-15.7
287.21	15.02
287.425	4.78
287.64	-9.56
287.855	105.13
288.07	-38.23
288.285	172.71
288.5	105.13
288.715	39.59
288.93	-1.37
289.145	-3.41
289.36	123.56
289.575	33.45
289.79	131.75
290.004	6.83
290.219	101.03
290.434	27.31
290.649	47.79
290.864	8.87
291.079	-32.08
291.294	49.83
291.509	98.99
291.724	68.27
291.938	-11.61
292.153	41.64
292.368	4.78
292.583	51.88
292.798	127.66
293.012	74.41
293.227	-3.41
293.442	12.97
293.657	125.61
293.871	105.13
294.086	62.12
294.301	133.8
294.516	78.51
294.73	37.55
294.945	-109.91
295.16	8.87
295.374	182.95
295.589	176.81
295.804	-23.89
296.018	15.02
296.233	113.32
296.447	62.12
296.662	-7.51
296.877	60.07
297.091	131.75
297.306	0.68
297.52	33.45
297.735	62.12
297.949	121.51
298.164	101.03
298.378	21.16
298.593	92.84
298.807	-30.04
299.022	41.64
299.236	170.66
299.451	37.55
299.665	101.03
299.88	23.21
300.094	-15.7
300.309	4.78
300.523	64.17
300.737	41.64
300.952	96.94
301.166	113.32
301.381	43.69
301.595	10.92
301.809	-11.61
302.024	10.92
302.238	-5.46
302.452	152.23
302.667	70.31
302.881	168.62
303.095	168.62
303.309	141.99
303.524	62.12
303.738	94.89
303.952	51.88
304.166	72.36
304.381	-120.15
304.595	154.28
304.809	64.17
305.023	135.85
305.237	39.59
305.452	0.68
305.666	66.22
305.88	96.94
306.094	55.98
306.308	21.16
306.522	70.31
306.736	19.11
306.95	55.98
307.164	4.78
307.379	51.88
307.593	135.85
307.807	88.75
308.021	189.1
308.235	29.35
308.449	-46.42
308.663	49.83
308.877	201.38
309.091	101.03
309.305	82.6
309.519	25.26
309.733	133.8
309.947	-81.24
310.161	51.88
310.374	105.13
310.588	201.38
310.802	19.11
311.016	72.36
311.23	109.23
311.444	-9.56
311.658	33.45
311.872	160.42
312.085	39.59
312.299	215.72
312.513	127.66
312.727	101.03
312.941	-32.08
313.154	51.88
313.368	21.16
313.582	53.93
313.796	55.98
314.009	62.12
314.223	195.24
314.437	23.21
314.651	-7.51
314.864	2.73
315.078	-25.94
315.292	-103.76
315.505	10.92
315.719	-5.46
315.933	111.27
316.146	25.26
316.36	-11.61
316.573	127.66
316.787	74.41
317.001	27.31
317.214	8.87
317.428	39.59
317.641	-52.56
317.855	-15.7
318.068	43.69
318.282	39.59
318.495	160.42
318.709	58.03
318.922	17.07
319.136	156.33
319.349	70.31
319.563	62.12
319.776	25.26
319.99	-66.9
320.203	72.36
320.417	-30.04
320.63	51.88
320.843	144.04
321.057	64.17
321.27	-21.84
321.483	90.79
321.697	107.18
321.91	43.69
322.124	72.36
322.337	39.59
322.55	23.21
322.763	76.46
322.977	62.12
323.19	-11.61
323.403	41.64
323.617	115.37
323.83	107.18
324.043	90.79
324.256	60.07
324.469	-11.61
324.683	154.28
324.896	101.03
325.109	39.59
325.322	-58.71
325.535	135.85
325.748	66.22
325.962	6.83
326.175	101.03
326.388	31.4
326.601	111.27
326.814	23.21
327.027	-44.37
327.24	187.05
327.453	-5.46
327.666	127.66
327.879	158.38
328.092	94.89
328.305	98.99
328.518	-13.65
328.731	62.12
328.944	90.79
329.157	125.61
329.37	-5.46
329.583	205.48
329.796	176.81
330.009	-15.7
330.222	82.6
330.435	-5.46
330.648	0.68
330.861	88.75
331.073	35.5
331.286	117.42
331.499	58.03
331.712	-83.28
331.925	-64.85
332.138	74.41
332.35	166.57
332.563	51.88
332.776	148.14
332.989	25.26
333.202	19.11
333.414	-5.46
333.627	131.75
333.84	43.69
334.053	43.69
334.265	23.21
334.478	0.68
334.691	-21.84
334.903	-44.37
335.116	8.87
335.329	12.97
335.541	121.51
335.754	215.72
335.966	10.92
336.179	27.31
336.392	94.89
336.604	49.83
336.817	135.85
337.029	133.8
337.242	78.51
337.454	66.22
337.667	43.69
337.88	109.23
338.092	146.09
338.305	94.89
338.517	-97.62
338.729	70.31
338.942	111.27
339.154	-44.37
339.367	-25.94
339.579	35.5
339.792	-79.19
340.004	148.14
340.217	80.55
340.429	117.42
340.641	-19.8
340.854	49.83
341.066	12.97
341.278	127.66
341.491	187.05
341.703	98.99
341.915	12.97
342.128	111.27
342.34	29.35
342.552	-17.75
342.764	58.03
342.977	96.94
343.189	94.89
343.401	68.27
343.613	-3.41
343.826	39.59
344.038	37.55
344.25	74.41
344.462	-9.56
344.674	15.02
344.886	-32.08
345.099	68.27
345.311	111.27
345.523	29.35
345.735	2.73
345.947	86.7
346.159	170.66
346.371	70.31
346.583	41.64
346.795	271.01
347.007	2.73
347.219	6.83
347.431	94.89
347.643	103.08
347.855	-11.61
348.067	137.9
348.279	-36.18
348.491	23.21
348.703	88.75
348.915	19.11
349.127	-9.56
349.339	92.84
349.551	45.74
349.763	166.57
349.975	41.64
350.187	68.27
350.399	158.38
350.61	105.13
350.822	72.36
351.034	53.93
351.246	144.04
351.458	70.31
351.669	39.59
351.881	43.69
352.093	41.64
352.305	139.94
352.517	121.51
352.728	121.51
352.94	-15.7
353.152	80.55
353.363	8.87
353.575	101.03
353.787	86.7
353.999	2.73
354.21	162.47
354.422	6.83
354.633	66.22
354.845	23.21
355.057	43.69
355.268	23.21
355.48	80.55
355.692	-71
355.903	12.97
356.115	76.46
356.326	-87.38
356.538	125.61
356.749	45.74
356.961	131.75
357.172	62.12
357.384	-30.04
357.595	191.14
357.807	2.73
358.018	25.26
358.23	74.41
358.441	148.14
358.653	45.74
358.864	92.84
359.075	17.07
359.287	19.11
359.498	109.23
359.709	82.6
359.921	12.97
360.132	37.55
360.344	8.87
360.555	17.07
360.766	45.74
360.977	55.98
361.189	219.82
361.4	-9.56
361.611	139.94
361.823	129.7
362.034	78.51
362.245	-97.62
362.456	107.18
362.667	98.99
362.879	37.55
363.09	133.8
363.301	72.36
363.512	33.45
363.723	23.21
363.935	-3.41
364.146	119.46
364.357	98.99
364.568	51.88
364.779	-9.56
364.99	144.04
365.201	-34.13
365.412	137.9
365.623	-85.33
365.834	27.31
366.045	25.26
366.256	82.6
366.467	66.22
366.678	68.27
366.889	33.45
367.1	-13.65
367.311	135.85
367.522	76.46
367.733	62.12
367.944	72.36
368.155	0.68
368.366	84.65
368.577	113.32
368.788	80.55
368.999	-111.96
369.209	68.27
369.42	152.23
369.631	219.82
369.842	51.88
370.053	-15.7
370.264	170.66
370.474	-68.95
370.685	66.22
370.896	55.98
371.107	113.32
371.317	86.7
371.528	88.75
371.739	197.29
371.95	109.23
372.16	62.12
372.371	-58.71
372.582	49.83
372.792	109.23
373.003	53.93
373.214	80.55
373.424	62.12
373.635	-9.56
373.846	121.51
374.056	12.97
374.267	135.85
374.477	68.27
374.688	19.11
374.898	76.46
375.109	62.12
375.319	-11.61
375.53	66.22
375.74	150.18
375.951	35.5
376.161	55.98
376.372	164.52
376.582	64.17
376.793	74.41
377.003	-13.65
377.214	-66.9
377.424	84.65
377.635	76.46
377.845	29.35
378.055	144.04
378.266	-40.28
378.476	-25.94
378.686	68.27
378.897	123.56
379.107	111.27
379.317	72.36
379.528	2.73
379.738	12.97
379.948	-21.84
380.158	125.61
380.369	49.83
380.579	-5.46
380.789	88.75
380.999	-11.61
381.21	109.23
381.42	238.25
381.63	35.5
381.84	72.36
382.05	115.37
382.261	78.51
382.471	115.37
382.681	-21.84
382.891	146.09
383.101	60.07
383.311	31.4
383.521	45.74
383.731	64.17
383.941	90.79
384.151	84.65
384.361	25.26
384.571	70.31
384.781	47.79
384.991	213.67
385.201	221.86
385.411	78.51
385.621	45.74
385.831	27.31
386.041	45.74
386.251	4.78
386.461	117.42
386.671	-7.51
386.881	53.93
387.091	10.92
387.301	133.8
387.511	31.4
387.72	86.7
387.93	168.62
388.14	-75.09
388.35	86.7
388.56	66.22
388.769	166.57
388.979	47.79
389.189	6.83
389.399	47.79
389.609	129.7
389.818	41.64
390.028	51.88
390.238	86.7
390.447	-11.61
390.657	33.45
390.867	103.08
391.076	-38.23
391.286	86.7
391.496	-23.89
391.705	43.69
391.915	98.99
392.125	195.24
392.334	12.97
392.544	78.51
392.753	82.6
392.963	0.68
393.172	86.7
393.382	66.22
393.591	185
393.801	-7.51
394.01	152.23
394.22	62.12
394.429	129.7
394.639	47.79
394.848	6.83
395.058	45.74
395.267	64.17
395.477	39.59
395.686	49.83
395.895	238.25
396.105	197.29
396.314	129.7
396.524	78.51
396.733	113.32
396.942	74.41
397.152	37.55
397.361	121.51
397.57	62.12
397.78	45.74
397.989	62.12
398.198	113.32
398.407	21.16
398.617	43.69
398.826	113.32
399.035	8.87
399.244	-25.94
399.453	31.4
399.663	35.5
399.872	15.02
400.081	21.16
400.29	172.71
400.499	33.45
400.708	111.27
400.917	17.07
401.127	-5.46
401.336	33.45
401.545	62.12
401.754	170.66
401.963	129.7
402.172	-111.96
402.381	62.12
402.59	31.4
402.799	-1.37
403.008	101.03
403.217	105.13
403.426	127.66
403.635	27.31
403.844	94.89
404.053	115.37
404.262	-40.28
404.471	191.14
404.68	66.22
404.888	0.68
405.097	74.41
405.306	105.13
405.515	119.46
405.724	35.5
405.933	123.56
406.142	90.79
406.35	80.55
406.559	-36.18
406.768	62.12
406.977	101.03
407.185	107.18
407.394	-42.32
407.603	-30.04
407.812	80.55
408.02	68.27
408.229	41.64
408.438	107.18
408.646	-7.51
408.855	146.09
409.064	27.31
409.272	49.83
409.481	105.13
409.69	19.11
409.898	33.45
410.107	45.74
410.315	199.34
410.524	-15.7
410.733	80.55
410.941	78.51
411.15	121.51
411.358	41.64
411.567	135.85
411.775	68.27
411.984	84.65
412.192	117.42
412.401	103.08
412.609	180.9
412.818	92.84
413.026	125.61
413.234	43.69
413.443	139.94
413.651	55.98
413.86	37.55
414.068	109.23
414.276	209.58
414.485	4.78
414.693	94.89
414.901	168.62
415.11	47.79
415.318	51.88
415.526	62.12
415.734	117.42
415.943	39.59
416.151	135.85
416.359	27.31
416.567	58.03
416.776	127.66
416.984	98.99
417.192	178.86
417.4	6.83
417.608	66.22
417.817	27.31
418.025	82.6
418.233	168.62
418.441	41.64
418.649	8.87
418.857	96.94
419.065	166.57
419.273	49.83
419.481	58.03
419.689	80.55
419.897	25.26
420.105	-89.43
420.313	105.13
420.521	207.53
420.729	109.23
420.937	-79.19
421.145	82.6
421.353	205.48
421.561	178.86
421.769	45.74
421.977	-42.32
422.185	182.95
422.393	43.69
422.601	47.79
422.809	94.89
423.017	-7.51
423.224	135.85
423.432	166.57
423.64	31.4
423.848	164.52
424.056	-32.08
424.263	60.07
424.471	86.7
424.679	215.72
424.887	45.74
425.094	162.47
425.302	127.66
425.51	76.46
425.718	92.84
425.925	66.22
426.133	29.35
426.341	205.48
426.548	94.89
426.756	90.79
426.964	133.8
427.171	51.88
427.379	162.47
427.586	80.55
427.794	76.46
428.001	189.1
428.209	109.23
428.417	150.18
428.624	80.55
428.832	137.9
429.039	58.03
429.247	94.89
429.454	105.13
429.662	266.92
429.869	137.9
430.076	90.79
430.284	172.71
430.491	127.66
430.699	166.57
430.906	117.42
431.114	182.95
431.321	152.23
431.528	115.37
431.736	135.85
431.943	152.23
432.15	170.66
432.358	191.14
432.565	207.53
432.772	-17.75
432.979	197.29
433.187	117.42
433.394	182.95
433.601	137.9
433.808	170.66
434.016	279.21
434.223	207.53
434.43	209.58
434.637	291.49
434.844	234.15
435.052	246.44
435.259	185
435.466	244.39
435.673	258.73
435.88	291.49
436.087	348.84
436.294	365.22
436.501	307.88
436.708	307.88
436.915	332.45
437.122	397.99
437.329	289.45
437.537	303.78
437.743	293.54
437.95	395.94
438.157	371.37
438.364	395.94
438.571	332.45
438.778	385.7
438.985	424.61
439.192	436.9
439.399	418.47
439.606	418.47
439.813	565.92
440.02	563.87
440.227	653.98
440.433	529.06
440.64	561.83
440.847	510.63
441.054	660.13
441.261	707.23
441.467	649.89
441.674	584.35
441.881	766.62
442.088	604.83
442.294	803.49
442.501	840.35
442.708	832.16
442.914	846.49
443.121	830.11
443.328	887.45
443.534	879.26
443.741	996
443.948	815.77
444.154	944.8
444.361	1211.03
444.568	998.04
444.774	1012.38
444.981	957.08
445.187	1133.21
445.394	1165.98
445.6	1178.26
445.807	1335.96
446.013	1319.57
446.22	1292.95
446.426	1415.83
446.633	1526.42
446.839	1616.53
447.046	1460.88
447.252	1651.35
447.459	1491.6
447.665	1602.19
447.871	1755.79
448.078	1981.07
448.284	1817.23
448.491	2071.18
448.697	2138.76
448.903	2196.11
449.11	2181.77
449.316	2245.26
449.522	2237.06
449.728	2443.91
449.935	2519.68
450.141	2486.92
450.347	2814.59
450.553	2679.43
450.76	2751.1
450.966	3005.05
451.172	2945.66
451.378	3203.71
451.584	3170.94
451.791	3488.37
451.997	3502.71
452.203	3449.46
452.409	3654.26
452.615	3957.36
452.821	3664.5
453.027	3897.97
453.233	4475.49
453.44	4192.87
453.646	4448.87
453.852	4588.13
454.058	4731.49
454.264	4936.29
454.47	5182.04
454.676	5395.03
454.882	5757.52
455.088	5565.01
455.294	5804.63
455.5	6232.65
455.705	6548.04
455.911	6492.74
456.117	6632.01
456.323	6996.54
456.529	6890.05
456.735	7643.7
456.941	7739.96
457.147	8061.49
457.352	8290.86
457.558	8514.09
457.764	9177.63
457.97	9245.21
458.176	9695.77
458.381	9953.81
458.587	10365.45
458.793	10766.85
458.999	10715.66
459.204	12399.09
459.41	12571.11
459.616	12327.41
459.821	13099.49
460.027	13738.46
460.233	14215.63
460.438	14209.49
460.644	15106.5
460.85	15223.23
461.055	15999.41
461.261	16757.16
461.466	16316.85
461.672	16777.64
461.878	18157.97
462.083	18127.25
462.289	18674.06
462.494	19626.37
462.7	19679.61
462.905	20175.22
463.111	21451.11
463.316	22671.7
463.522	22872.4
463.727	23449.92
463.932	24811.82
464.138	25317.67
464.343	26525.97
464.549	26636.56
464.754	28526.84
464.959	29122.8
465.165	29460.71
465.37	29409.51
465.575	29614.31
465.781	31701.19
465.986	32688.31
466.191	32389.31
466.397	32239.81
466.602	31625.42
466.807	33441.96
467.012	33835.17
467.218	34424.99
467.423	34353.31
467.628	35729.55
467.833	37220.47
468.038	36636.8
468.244	36176
468.449	37783.66
468.654	37017.72
468.859	36526.21
469.064	37140.6
469.269	36079.75
469.474	36882.55
469.679	37455.98
469.885	36427.9
470.09	36532.35
470.295	37060.73
470.5	36155.52
470.705	36601.98
470.91	35510.41
471.115	34992.28
471.32	35582.09
471.525	35631.24
471.73	34521.24
471.935	34330.78
472.139	32784.57
472.344	32764.09
472.549	32714.94
472.754	32385.21
472.959	31453.39
473.164	30695.64
473.369	30193.89
473.574	30984.4
473.778	30224.61
473.983	29556.97
474.188	29110.51
474.393	27937.02
474.598	27652.36
474.802	27154.7
475.007	26820.88
475.212	26771.73
475.417	25567.52
475.621	25372.97
475.826	25110.83
476.031	24242.49
476.235	23904.57
476.44	24017.21
476.645	23372.1
476.849	23165.26
477.054	22856.01
477.259	22262.1
477.463	22229.34
477.668	21416.29
477.872	21647.71
478.077	20928.88
478.282	20521.33
478.486	20353.4
478.691	20007.29
478.895	20126.07
479.1	19628.42
479.304	19364.23
479.509	18786.7
479.713	19386.75
479.918	18678.16
480.122	18258.32
480.326	18522.51
480.531	18680.21
480.735	18004.38
480.94	17893.79
481.144	18098.58
481.348	17590.69
481.553	17613.21
481.757	17301.92
481.961	17389.99
482.166	17553.82
482.37	17107.37
482.574	16921
482.778	16830.89
482.983	17076.65
483.187	16781.74
483.391	16507.31
483.595	16247.22
483.8	15915.45
484.004	16148.92
484.208	16134.58
484.412	15667.64
484.616	15602.11
484.821	15227.33
485.025	15208.9
485.229	14985.67
485.433	14795.21
485.637	14883.27
485.841	14547.4
486.045	14213.59
486.249	14307.79
486.453	13885.91
486.657	13828.57
486.861	13836.76
487.065	13128.16
487.269	13300.19
487.473	12685.8
487.677	12855.78
487.881	12857.83
488.085	12382.7
488.289	12161.52
488.493	12024.31
488.697	12118.51
488.901	11651.58
489.105	11377.15
489.309	11344.38
489.512	11082.24
489.716	10816.01
489.92	10508.81
490.124	10537.48
490.328	10576.39
490.531	10179.09
490.735	10144.27
490.939	9962
491.143	9634.33
491.346	9429.53
491.55	9341.47
491.754	9271.84
491.958	9124.38
492.161	8827.43
492.365	8862.24
492.569	8516.14
492.772	8653.35
492.976	8546.86
493.18	8360.49
493.383	8454.7
493.587	8116.78
493.79	8131.12
493.994	7983.66
494.197	7825.97
494.401	7938.61
494.605	7647.8
494.808	7680.57
495.012	7696.95
495.215	7641.65
495.419	7664.18
495.622	7320.12
495.825	7529.02
496.029	7168.57
496.232	7506.49
496.436	7260.73
496.639	7330.36
496.843	7313.98
497.046	7373.37
497.249	7498.3
497.453	7313.98
497.656	7254.59
497.859	7150.14
498.063	7350.84
498.266	7549.5
498.469	7246.4
498.673	7270.97
498.876	7381.56
499.079	7402.04
499.282	7469.62
499.485	7760.44
499.689	7524.92
499.892	7717.43
500.095	7535.16
500.298	7729.72
500.501	7551.54
500.705	7766.58
500.908	7983.66
501.111	7840.31
501.314	8081.97
501.517	8176.17
501.72	8301.1
501.923	8294.96
502.126	8260.14
502.329	8518.18
502.532	8466.99
502.735	8460.84
502.938	8952.35
503.141	8624.68
503.344	8821.28
503.547	9048.61
503.75	9120.29
503.953	9064.99
504.156	9517.59
504.359	9468.44
504.562	9572.89
504.765	9695.77
504.968	9878.04
505.17	10205.71
505.373	10154.51
505.576	10414.6
505.779	10457.61
505.982	10709.51
506.185	11043.33
506.387	10932.74
506.59	11407.87
506.793	11389.44
506.996	11698.68
507.198	11866.61
507.401	12091.89
507.604	12308.97
507.807	12528.11
508.009	12888.55
508.212	13007.33
508.415	13126.11
508.617	13406.69
508.82	13783.51
509.022	13736.41
509.225	14324.18
509.428	14690.76
509.63	14739.91
509.833	15268.29
510.035	15759.8
510.238	15757.75
510.44	15974.84
510.643	16615.85
510.845	16865.71
511.048	16953.77
511.25	17623.45
511.453	17691.04
511.655	18583.95
511.858	18817.42
512.06	19208.58
512.262	19382.66
512.465	19822.97
512.667	20535.67
512.87	20506.99
513.072	21082.47
513.274	21625.18
513.477	22221.14
513.679	22745.42
513.881	23171.4
514.084	23890.24
514.286	24084.8
514.488	24404.28
514.69	25520.42
514.893	25534.76
515.095	26186.01
515.297	26794.26
515.499	27132.17
515.701	27650.31
515.904	28348.67
516.106	29305.07
516.308	29929.7
516.51	30460.12
516.712	30353.63
516.914	31316.17
517.116	31715.53
517.318	32192.7
517.52	32880.82
517.722	33405.1
517.925	34279.58
518.127	35027.09
518.329	35518.6
518.531	35369.1
518.733	36702.33
518.935	36984.95
519.136	37267.57
519.338	38084.71
519.54	38068.33
519.742	39030.87
519.944	39501.9
520.146	40433.73
520.348	40675.39
520.55	40788.03
520.752	41199.67
520.954	42151.98
521.155	42170.41
521.357	42997.79
521.559	43468.82
521.761	43964.43
521.963	44320.77
522.164	44492.8
522.366	44969.98
522.568	45576.18
522.77	45789.17
522.971	46524.39
523.173	45983.72
523.375	46616.55
523.576	46585.83
523.778	46268.39
523.98	47519.7
524.181	47505.37
524.383	47445.97
524.584	48117.71
524.786	48015.31
524.988	47232.99
525.189	48506.82
525.391	48392.14
525.592	47962.06
525.794	47716.31
525.995	47701.97
526.197	47462.36
526.398	47792.08
526.6	47830.99
526.801	47089.63
527.003	47538.13
527.204	46917.6
527.406	47335.38
527.607	46698.47
527.808	47366.1
528.01	45946.86
528.211	46184.43
528.412	46338.02
528.614	45922.29
528.815	45277.18
529.016	45721.58
529.218	44302.34
529.419	44595.2
529.62	44218.38
529.822	43395.09
530.023	43116.57
530.224	43063.32
530.425	42610.72
530.626	41875.5
530.828	40718.4
531.029	41625.65
531.23	40462.4
531.431	40212.55
531.632	39940.17
531.833	39176.28
532.035	38555.74
532.236	38383.71
532.437	38273.12
532.638	37845.1
532.839	37402.74
533.04	36890.74
533.241	36096.13
533.442	36489.34
533.643	35330.19
533.844	34850.97
534.045	34326.69
534.246	33497.26
534.447	33732.78
534.648	32839.86
534.849	32686.26
535.05	32102.59
535.251	31613.13
535.451	31054.03
535.652	30961.87
535.853	30499.03
536.054	29976.8
536.255	29714.66
536.456	28983.54
536.657	29235.44
536.857	28672.25
537.058	28266.75
537.259	27947.26
537.46	27539.72
537.66	26904.85
537.861	26837.27
538.062	26310.94
538.263	25786.66
538.463	25393.45
538.664	25102.64
538.865	25073.96
539.065	24879.41
539.266	24152.38
539.466	24439.09
539.667	23718.21
539.868	23568.71
540.068	23402.82
540.269	22901.07
540.469	22970.7
540.67	22235.48
540.87	22159.7
541.071	22069.59
541.271	21758.3
541.472	21498.21
541.672	21119.34
541.873	21002.6
542.073	20420.98
542.274	20251
542.474	20222.33
542.675	20066.68
542.875	20115.83
543.075	19540.35
543.276	19171.72
543.476	19009.93
543.676	18796.94
543.877	18807.18
544.077	18643.34
544.277	18522.51
544.478	18149.78
544.678	18055.58
544.878	17736.09
545.078	17582.49
545.279	17097.13
545.479	17035.69
545.679	17090.98
545.879	16757.16
546.079	16626.09
546.28	16273.84
546.48	16103.86
546.68	15983.03
546.88	16064.95
547.08	15862.2
547.28	15473.09
547.48	15223.23
547.68	15141.32
547.88	14860.74
548.081	14778.83
548.281	14598.6
548.481	14281.17
548.681	14285.26
548.881	13767.13
549.081	13947.35
549.28	13588.96
549.48	13359.58
549.68	13375.97
549.88	13177.31
550.08	12601.83
550.28	12585.45
550.48	12882.41
550.68	12507.63
550.88	12208.62
551.08	12042.74
551.279	11866.61
551.479	11710.97
551.679	11565.56
551.879	11125.25
552.079	11182.59
552.278	11166.21
552.478	11178.5
552.678	10996.23
552.878	10705.42
553.077	10445.32
553.277	10054.16
553.477	10164.75
553.676	10164.75
553.876	9820.69
554.076	9527.83
554.275	9349.66
554.475	9302.56
554.674	9159.2
554.874	9048.61
555.074	8843.81
555.273	8921.63
555.473	8608.3
555.672	8432.17
555.872	8385.07
556.071	8317.48
556.271	8073.78
556.47	8045.1
556.67	7772.72
556.869	7758.39
557.068	7606.84
557.268	7547.45
557.467	7356.99
557.667	7350.84
557.866	7133.76
558.065	7057.98
558.265	6857.28
558.464	6744.64
558.663	6615.62
558.863	6629.96
559.062	6566.47
559.261	6281.8
559.461	6292.04
559.66	6050.38
559.859	6058.57
560.058	5845.59
560.258	5964.37
560.457	5831.25
560.656	5923.41
560.855	5556.82
561.054	5773.91
561.253	5509.72
561.453	5468.76
561.652	5425.75
561.851	5386.84
562.05	5112.41
562.249	4997.73
562.448	5102.17
562.647	4897.38
562.846	4627.04
563.045	4782.69
563.244	4670.05
563.443	4657.76
563.642	4545.13
563.841	4678.24
564.04	4477.54
564.239	4416.1
564.438	4209.26
564.637	4168.3
564.836	4325.99
565.035	4029.04
565.234	4078.19
565.432	4057.71
565.631	3947.12
565.83	3875.44
566.029	3695.22
566.228	3713.65
566.427	3830.38
566.625	3488.37
566.824	3549.81
567.023	3637.88
567.222	3390.07
567.42	3531.38
567.619	3476.09
567.818	3494.52
568.016	3515
568.215	3201.66
568.414	3271.29
568.612	3191.42
568.811	3215.99
569.01	3068.54
569.208	3011.2
569.407	3076.73
569.605	2906.75
569.804	2937.47
570.002	2927.23
570.201	2937.47
570.4	2957.95
570.598	2706.05
570.797	2808.45
570.995	2642.56
571.193	2728.58
571.392	2603.65
571.59	2468.48
571.789	2568.84
571.987	2536.07
572.186	2650.75
572.384	2396.81
572.582	2298.5
572.781	2538.12
572.979	2132.62
573.177	2278.02
573.376	2171.53
573.574	2343.56
573.772	2259.59
573.971	2153.1
574.169	2140.81
574.367	2091.66
574.565	2019.98
574.763	2103.95
574.962	1903.25
575.16	2013.84
575.358	2007.69
575.556	2036.36
575.754	1985.16
575.952	1845.9
576.151	1854.09
576.349	1915.53
576.547	1725.07
576.745	1825.42
576.943	1788.56
577.141	1706.64
577.339	1614.48
577.537	1643.15
577.735	1663.63
577.933	1684.11
578.131	1538.71
578.329	1720.98
578.527	1522.32
578.725	1557.14
578.923	1432.21
579.121	1540.76
579.319	1270.42
579.516	1434.26
579.714	1608.34
579.912	1344.15
580.11	1268.38
580.308	1358.49
580.506	1313.43
580.704	1190.55
580.901	1276.57
581.099	1381.01
581.297	1241.75
581.495	1331.86
581.692	1229.46
581.89	1317.53
582.088	1131.16
582.285	1116.83
582.483	1157.78
582.681	1065.63
582.878	1067.67
583.076	1075.87
583.274	1084.06
583.471	1208.98
583.669	993.95
583.866	1032.86
584.064	942.75
584.262	893.6
584.459	860.83
584.657	977.56
584.854	1016.48
585.052	977.56
585.249	1051.29
585.447	891.55
585.644	795.29
585.841	950.94
586.039	993.95
586.236	934.56
586.434	860.83
586.631	748.19
586.828	764.58
587.026	836.25
587.223	713.38
587.42	772.77
587.618	797.34
587.815	891.55
588.012	772.77
588.21	762.53
588.407	826.01
588.604	772.77
588.801	742.05
588.999	680.61
589.196	848.54
589.393	676.51
589.59	701.09
589.787	823.97
589.984	752.29
590.182	699.04
590.379	692.9
590.576	670.37
590.773	707.23
590.97	608.93
591.167	715.42
591.364	746.14
591.561	709.28
591.758	664.22
591.955	752.29
592.152	567.97
592.349	631.46
592.546	701.09
592.743	621.22
592.94	643.74
593.137	760.48
593.334	707.23
593.531	770.72
593.727	699.04
593.924	744.1
594.121	658.08
594.318	613.03
594.515	674.46
594.712	744.1
594.908	770.72
595.105	621.22
595.302	725.66
595.499	809.63
595.696	916.12
595.892	627.36
596.089	842.4
596.286	756.38
596.482	852.64
596.679	813.73
596.876	731.81
597.072	844.45
597.269	821.92
597.466	858.78
597.662	866.97
597.859	873.12
598.055	858.78
598.252	928.41
598.448	1043.1
598.645	1114.78
598.841	1096.35
599.038	1251.99
599.234	1213.08
599.431	1192.6
599.627	1229.46
599.824	1282.71
600.02	1368.73
600.217	1329.81
600.413	1372.82
600.609	1393.3
600.806	1747.6
601.002	1600.15
601.198	1643.15
601.395	1778.32
601.591	1839.76
601.787	1821.33
601.984	1983.12
602.18	1919.63
602.376	2011.79
602.572	2097.8
602.769	2155.15
602.965	2239.11
603.161	2222.73
603.357	2402.95
603.553	2556.55
603.75	2503.3
603.946	2546.31
604.142	2724.48
604.338	2925.18
604.534	2916.99
604.73	2904.7
604.926	3107.45
605.122	3269.24
605.318	3261.05
605.514	3418.74
605.71	3390.07
605.906	3666.55
606.102	3764.85
606.298	3918.45
606.494	4076.14
606.69	4178.54
606.886	4162.16
607.082	4442.73
607.278	4399.72
607.474	4409.96
607.67	4567.65
607.866	4754.02
608.062	5007.97
608.257	5055.07
608.453	5118.56
608.649	5347.93
608.845	5399.13
609.041	5419.61
609.236	5909.07
609.432	5853.78
609.628	6152.78
609.824	6117.97
610.019	6406.73
610.215	6695.49
610.411	6904.39
610.606	6959.68
610.802	7072.32
610.998	7383.61
611.193	7596.6
611.389	7748.15
611.584	7760.44
611.78	7981.62
611.976	8383.02
612.171	8659.49
612.367	8722.98
612.562	9220.64
612.758	9261.6
612.953	9380.38
613.149	9869.84
613.344	9822.74
613.539	10363.4
613.735	10666.5
613.93	11053.57
614.126	11024.9
614.321	11411.96
614.517	11866.61
614.712	11874.81
614.907	12323.31
615.103	12499.44
615.298	12718.57
615.493	13162.98
615.688	13257.18
615.884	14033.36
616.079	13904.34
616.274	14594.51
616.47	14918.09
616.665	15399.36
616.86	15610.3
617.055	16017.85
617.25	16374.19
617.445	16982.44
617.641	17142.18
617.836	17402.27
618.031	17809.82
618.226	18672.01
618.421	18860.43
618.616	19585.41
618.811	19507.58
619.006	20586.86
619.201	20568.43
619.396	21379.43
619.591	21227.88
619.786	22061.4
619.981	22563.15
620.176	22960.46
620.371	23431.49
620.566	24123.71
620.761	24570.16
620.956	25303.34
621.151	25280.81
621.346	26257.69
621.541	26048.8
621.735	27089.17
621.93	27388.17
622.125	27650.31
622.32	28371.19
622.515	28836.08
622.709	29378.79
622.904	30116.06
623.099	30388.44
623.294	31111.38
623.488	31416.52
623.683	32164.03
623.878	31942.85
624.072	32907.44
624.267	33724.58
624.462	34177.19
624.656	34283.68
624.851	34916.5
625.046	35309.71
625.24	36405.38
625.435	36663.42
625.629	37286
625.824	37814.38
626.018	38303.84
626.213	37730.41
626.407	39020.63
626.602	38873.18
626.796	39782.48
626.991	40167.49
627.185	40392.77
627.38	40474.69
627.574	40968.25
627.768	41027.64
627.963	41166.9
628.157	41160.76
628.352	41805.87
628.546	41482.29
628.74	42029.1
628.935	41451.57
629.129	42106.92
629.323	41431.09
629.517	41510.96
629.712	41343.03
629.906	41140.28
630.1	40253.51
630.294	40593.47
630.489	39536.72
630.683	39616.59
630.877	38516.83
631.071	37976.17
631.265	37605.48
631.459	37267.57
631.653	36106.37
631.848	35235.99
632.042	34138.27
632.236	33972.39
632.43	32706.74
632.624	31885.51
632.818	30931.15
633.012	30169.31
633.206	29421.8
633.4	28590.33
633.594	27042.06
633.788	26519.83
633.982	25719.07
634.176	24922.41
634.369	23882.05
634.563	22905.17
634.757	21698.91
634.951	21266.79
635.145	20660.59
635.339	19769.72
635.533	19071.37
635.726	18090.39
635.92	17443.23
636.114	16988.58
636.308	16210.36
636.501	15446.46
636.695	14909.9
636.889	14066.13
637.083	13785.56
637.276	12917.22
637.47	12399.09
637.664	12169.71
637.857	11620.86
638.051	11207.17
638.244	10781.19
638.438	10357.26
638.632	9904.66
638.825	9505.31
639.019	9089.57
639.212	8823.33
639.406	8489.51
639.599	8135.21
639.793	7797.3
639.986	7289.4
640.18	7201.34
640.373	6986.3
640.567	6625.86
640.76	6390.35
640.954	6236.75
641.147	5769.81
641.34	5718.61
641.534	5573.21
641.727	5409.37
641.92	5243.48
642.114	4895.33
642.307	4618.85
642.5	4729.44
642.694	4274.79
642.887	4229.74
643.08	4115.05
643.273	4008.56
643.467	3717.75
643.66	3543.67
643.853	3517.05
644.046	3379.83
644.239	3273.34
644.432	2921.09
644.626	2929.28
644.819	3005.05
645.012	2796.16
645.205	2671.23
645.398	2695.81
645.591	2454.15
645.784	2302.6
645.977	2220.68
646.17	2273.93
646.363	2144.91
646.556	1970.83
646.749	1917.58
646.942	1788.56
647.135	1790.61
647.328	1794.7
647.521	1749.65
647.714	1716.88
647.907	1481.36
648.099	1327.77
648.292	1471.12
648.485	1432.21
648.678	1389.21
648.871	1208.98
649.064	1301.14
649.256	1122.97
649.449	1094.3
649.642	1039
649.835	979.61
650.027	998.04
650.22	1077.91
650.413	1012.38
650.605	967.32
650.798	873.12
650.991	838.3
651.183	852.64
651.376	682.66
651.568	846.49
651.761	676.51
651.954	768.67
652.146	807.58
652.339	785.05
652.531	713.38
652.724	574.11
652.916	588.45
653.109	479.91
653.301	690.85
653.494	637.6
653.686	600.74
653.879	635.55
654.071	594.59
654.263	539.3
654.456	492.2
654.648	606.88
654.84	602.79
655.033	436.9
655.225	539.3
655.417	365.22
655.61	570.02
655.802	490.15
655.994	453.28
656.186	311.97
656.379	467.62
656.571	369.32
656.763	400.04
656.955	344.74
657.148	438.95
657.34	473.76
657.532	260.77
657.724	338.6
657.916	354.98
658.108	387.75
658.3	336.55
658.492	316.07
658.684	225.96
658.876	289.45
659.068	141.99
659.26	242.34
659.452	168.62
659.644	256.68
659.836	373.41
660.028	344.74
660.22	127.66
660.412	166.57
660.604	213.67
660.796	266.92
660.988	264.87
661.18	250.53
661.372	236.2
661.563	98.99
661.755	244.39
661.947	146.09
662.139	72.36
662.331	209.58
662.522	223.91
662.714	185
662.906	187.05
663.097	228.01
663.289	135.85
663.481	62.12
663.673	170.66
663.864	152.23
664.056	199.34
664.247	84.65
664.439	258.73
664.631	137.9
664.822	283.3
665.014	148.14
665.205	158.38
665.397	162.47
665.588	78.51
665.78	137.9
665.971	219.82
666.163	107.18
666.354	236.2
666.546	35.5
666.737	125.61
666.929	96.94
667.12	139.94
667.311	176.81
667.503	146.09
667.694	203.43
667.885	182.95
668.077	121.51
668.268	74.41
668.459	82.6
668.651	158.38
668.842	232.1
669.033	115.37
669.224	111.27
669.416	326.31
669.607	111.27
669.798	29.35
669.989	217.77
670.18	68.27
670.371	115.37
670.563	90.79
670.754	246.44
670.945	182.95
671.136	178.86
671.327	90.79
671.518	185
671.709	238.25
671.9	180.9
672.091	199.34
672.282	82.6
672.473	158.38
672.664	76.46
672.855	197.29
673.046	141.99
673.237	207.53
673.428	139.94
673.619	211.62
673.809	146.09
674	185
674.191	193.19
674.382	105.13
674.573	74.41
674.764	191.14
674.954	217.77
675.145	70.31
675.336	64.17
675.527	127.66
675.717	150.18
675.908	121.51
676.099	90.79
676.289	164.52
676.48	58.03
676.671	90.79
676.861	139.94
677.052	156.33
677.243	113.32
677.433	86.7
677.624	238.25
677.814	185
678.005	84.65
678.195	266.92
678.386	80.55
678.576	164.52
678.767	88.75
678.957	131.75
679.148	162.47
679.338	273.06
679.529	133.8
679.719	117.42
679.909	254.63
680.1	141.99
680.29	101.03
680.481	72.36
680.671	146.09
680.861	154.28
681.052	232.1
681.242	105.13
681.432	234.15
681.622	176.81
681.813	31.4
682.003	164.52
682.193	45.74
682.383	209.58
682.573	160.42
682.764	98.99
682.954	129.7
683.144	295.59
683.334	152.23
683.524	193.19
683.714	191.14
683.904	223.91
684.094	189.1
684.284	234.15
684.474	307.88
684.664	273.06
684.854	199.34
685.044	178.86
685.234	240.3
685.424	205.48
685.614	185
685.804	281.25
685.994	146.09
686.184	152.23
686.374	225.96
686.564	146.09
686.753	268.97
686.943	45.74
687.133	195.24
687.323	76.46
687.513	250.53
687.702	150.18
687.892	232.1
688.082	221.86
688.272	240.3
688.461	166.57
688.651	322.21
688.841	168.62
689.03	156.33
689.22	168.62
689.41	164.52
689.599	295.59
689.789	125.61
689.979	291.49
690.168	144.04
690.358	193.19
690.547	197.29
690.737	223.91
690.926	160.42
691.116	170.66
691.305	262.82
691.495	266.92
691.684	49.83
691.874	127.66
692.063	107.18
692.252	232.1
692.442	271.01
692.631	164.52
692.82	164.52
693.01	185
693.199	182.95
693.388	213.67
693.578	244.39
693.767	234.15
693.956	158.38
694.146	62.12
694.335	228.01
694.524	232.1
694.713	244.39
694.902	209.58
695.092	207.53
695.281	197.29
695.47	105.13
695.659	72.36
695.848	238.25
696.037	92.84
696.226	252.58
696.415	221.86
696.604	273.06
696.793	244.39
696.982	144.04
697.171	254.63
697.36	101.03
697.549	135.85
697.738	25.26
697.927	172.71
698.116	123.56
698.305	297.64
698.494	150.18
698.683	174.76
698.872	240.3
699.061	185
699.25	113.32
699.438	129.7
699.627	137.9
699.816	293.54
700.005	78.51
700.193	92.84
700.382	185
700.571	297.64
700.76	170.66
700.948	262.82
701.137	172.71
701.326	307.88
701.514	168.62
701.703	287.4
701.892	195.24
702.08	244.39
702.269	228.01
702.457	25.26
702.646	256.68
702.834	101.03
703.023	242.34
703.212	254.63
703.4	103.08
703.589	152.23
703.777	217.77
703.965	225.96
704.154	141.99
704.342	144.04
704.531	146.09
704.719	207.53
704.907	289.45
705.096	94.89
705.284	39.59
705.472	232.1
705.661	189.1
705.849	135.85
706.037	275.11
706.226	180.9
706.414	152.23
706.602	125.61
706.79	303.78
706.979	139.94
707.167	230.06
707.355	101.03
707.543	176.81
707.731	205.48
707.919	144.04
708.107	139.94
708.296	117.42
708.484	55.98
708.672	182.95
708.86	221.86
709.048	101.03
709.236	92.84
709.424	195.24
709.612	213.67
709.8	72.36
709.988	117.42
710.176	123.56
710.364	187.05
710.551	158.38
710.739	172.71
710.927	164.52
711.115	131.75
711.303	144.04
711.491	213.67
711.679	199.34
711.866	119.46
712.054	131.75
712.242	236.2
712.43	271.01
712.617	178.86
712.805	156.33
712.993	203.43
713.181	127.66
713.368	209.58
713.556	152.23
713.744	203.43
713.931	371.37
714.119	156.33
714.306	137.9
714.494	185
714.682	174.76
714.869	78.51
715.057	228.01
715.244	66.22
715.432	180.9
715.619	162.47
715.807	178.86
715.994	176.81
716.182	193.19
716.369	254.63
716.556	189.1
716.744	131.75
716.931	162.47
717.119	170.66
717.306	221.86
717.493	215.72
717.681	148.14
717.868	213.67
718.055	189.1
718.242	154.28
718.43	178.86
718.617	266.92
718.804	221.86
718.991	295.59
719.179	178.86
719.366	311.97
719.553	225.96
719.74	178.86
719.927	232.1
720.114	152.23
720.301	156.33
720.488	111.27
720.676	125.61
720.863	303.78
721.05	281.25
721.237	262.82
721.424	275.11
721.611	180.9
721.798	115.37
721.985	180.9
722.172	178.86
722.358	285.35
722.545	297.64
722.732	232.1
722.919	230.06
723.106	180.9
723.293	203.43
723.48	201.38
723.667	90.79
723.853	303.78
724.04	248.49
724.227	250.53
724.414	189.1
724.6	238.25
724.787	287.4
724.974	320.17
725.161	281.25
725.347	127.66
725.534	223.91
725.72	277.16
725.907	301.73
726.094	275.11
726.28	193.19
726.467	271.01
726.653	244.39
726.84	367.27
727.027	371.37
727.213	309.93
727.4	246.44
727.586	281.25
727.773	187.05
727.959	217.77
728.145	279.21
728.332	285.35
728.518	266.92
728.705	322.21
728.891	273.06
729.077	311.97
729.264	105.13
729.45	266.92
729.636	268.97
729.823	213.67
730.009	238.25
730.195	295.59
730.382	307.88
730.568	303.78
730.754	318.12
730.94	297.64
731.126	258.73
731.313	326.31
731.499	285.35
731.685	291.49
731.871	314.02
732.057	219.82
732.243	283.3
732.429	254.63
732.615	430.76
732.801	293.54
732.987	297.64
733.173	279.21
733.359	295.59
733.545	344.74
733.731	379.56
733.917	324.26
734.103	340.65
734.289	395.94
734.475	291.49
734.661	387.75
734.847	236.2
735.033	320.17
735.219	348.84
735.404	275.11
735.59	246.44
735.776	275.11
735.962	367.27
736.148	332.45
736.333	406.18
736.519	295.59
736.705	195.24
736.89	240.3
737.076	332.45
737.262	287.4
737.447	254.63
737.633	309.93
737.819	426.66
738.004	297.64
738.19	291.49
738.375	445.09
738.561	430.76
738.747	291.49
738.932	160.42
739.118	373.41
739.303	340.65
739.489	287.4
739.674	236.2
739.859	252.58
740.045	371.37
740.23	309.93
740.416	127.66
740.601	252.58
740.786	336.55
740.972	217.77
741.157	305.83
741.342	271.01
741.528	182.95
741.713	404.13
741.898	285.35
742.084	336.55
742.269	316.07
742.454	297.64
742.639	314.02
742.824	354.98
743.01	352.93
743.195	463.52
743.38	330.41
743.565	334.5
743.75	320.17
743.935	383.65
744.12	314.02
744.305	240.3
744.49	258.73
744.675	324.26
744.86	295.59
745.045	494.24
745.23	330.41
745.415	297.64
745.6	412.32
745.785	262.82
745.97	354.98
746.155	354.98
746.34	389.8
746.525	316.07
746.71	303.78
746.895	230.06
747.079	205.48
747.264	334.5
747.449	350.89
747.634	348.84
747.819	400.04
748.003	203.43
748.188	152.23
748.373	311.97
748.557	361.13
748.742	307.88
748.927	236.2
749.111	221.86
749.296	299.69
749.481	410.28
749.665	199.34
749.85	213.67
750.034	383.65
750.219	266.92
750.404	244.39
750.588	258.73
750.773	234.15
750.957	346.79
751.141	275.11
751.326	305.83
751.51	199.34
751.695	252.58
751.879	238.25
752.064	324.26
752.248	240.3
752.432	291.49
752.617	338.6
752.801	420.52
752.985	291.49
753.17	285.35
753.354	250.53
753.538	260.77
753.722	150.18
753.907	264.87
754.091	152.23
754.275	318.12
754.459	154.28
754.643	141.99
754.828	197.29
755.012	238.25
755.196	176.81
755.38	203.43
755.564	191.14
755.748	109.23
755.932	254.63
756.116	301.73
756.3	230.06
756.484	256.68
756.668	223.91
756.852	103.08
757.036	164.52
757.22	209.58
757.404	121.51
757.588	193.19
757.772	156.33
757.956	219.82
758.14	311.97
758.323	94.89
758.507	252.58
758.691	117.42
758.875	225.96
759.059	418.47
759.242	193.19
759.426	170.66
759.61	166.57
759.794	127.66
759.977	197.29
760.161	367.27
760.345	324.26
760.528	236.2
760.712	242.34
760.895	225.96
761.079	211.62
761.263	144.04
761.446	141.99
761.63	176.81
761.813	182.95
761.997	139.94
762.18	197.29
762.364	123.56
762.547	154.28
762.731	154.28
762.914	131.75
763.098	154.28
763.281	193.19
763.464	123.56
763.648	154.28
763.831	146.09
764.015	25.26
764.198	164.52
764.381	150.18
764.564	137.9
764.748	150.18
764.931	240.3
765.114	70.31
765.297	182.95
765.481	144.04
765.664	121.51
765.847	84.65
766.03	182.95
766.213	51.88
766.397	115.37
766.58	51.88
766.763	258.73
766.946	127.66
767.129	23.21
767.312	113.32
767.495	187.05
767.678	70.31
767.861	127.66
768.044	88.75
768.227	129.7
768.41	94.89
768.593	121.51
768.776	170.66
768.959	74.41
769.142	246.44
769.324	64.17
769.507	96.94
769.69	158.38
769.873	107.18
770.056	221.86
770.239	164.52
770.421	260.77
770.604	139.94
770.787	70.31
770.97	156.33
771.152	72.36
771.335	96.94
771.518	103.08
771.7	203.43
771.883	209.58
772.066	49.83
772.248	109.23
772.431	240.3
772.613	158.38
772.796	135.85
772.978	185
773.161	309.93
773.343	33.45
773.526	49.83
773.708	39.59
773.891	-15.7
774.073	66.22
774.256	88.75
774.438	185
774.621	60.07
774.803	119.46
774.985	84.65
775.168	217.77
775.35	98.99
775.532	170.66
775.715	60.07
775.897	82.6
776.079	96.94
776.261	156.33
776.444	94.89
776.626	90.79
776.808	121.51
776.99	19.11
777.173	29.35
777.355	121.51
777.537	84.65
777.719	201.38
777.901	70.31
778.083	76.46
778.265	-1.37
778.447	135.85
778.629	88.75
778.811	86.7
778.993	137.9
779.175	66.22
779.357	129.7
779.539	-56.66
779.721	101.03
779.903	121.51
780.085	127.66
780.267	82.6
780.449	72.36
780.631	172.71
780.812	232.1
780.994	39.59
781.176	31.4
781.358	68.27
781.54	27.31
781.721	139.94
781.903	98.99
782.085	4.78
782.267	180.9
782.448	10.92
782.63	60.07
782.812	80.55
782.993	58.03
783.175	160.42
783.357	21.16
783.538	88.75
783.72	-42.32
783.901	62.12
784.083	82.6
784.264	94.89
784.446	31.4
784.627	-81.24
784.809	103.08
784.99	19.11
785.172	58.03
785.353	-36.18
785.535	98.99
785.716	66.22
785.897	-3.41
786.079	49.83
786.26	78.51
786.441	35.5
786.623	0.68
786.804	21.16
786.985	27.31
787.167	103.08
787.348	78.51
787.529	-25.94
787.71	205.48
787.891	178.86
788.073	8.87
788.254	17.07
788.435	174.76
788.616	78.51
788.797	-5.46
788.978	12.97
789.159	37.55
789.34	49.83
789.522	-21.84
789.703	78.51
789.884	55.98
790.065	23.21
790.246	197.29
790.427	53.93
790.607	146.09
790.788	123.56
790.969	-58.71
791.15	25.26
791.331	2.73
791.512	90.79
791.693	-3.41
791.874	17.07
792.054	103.08
792.235	125.61
792.416	-73.04
792.597	-36.18
792.778	72.36
792.958	94.89
793.139	8.87
793.32	64.17
793.5	-56.66
793.681	178.86
793.862	88.75
794.042	76.46
794.223	-58.71
794.404	-19.8
794.584	-58.71
794.765	96.94
794.945	43.69
795.126	33.45
795.306	137.9
795.487	8.87
795.667	-19.8
795.848	53.93
796.028	47.79
796.209	2.73
796.389	107.18
796.57	66.22
796.75	-62.8
796.93	-38.23
797.111	-9.56
797.291	92.84
797.471	27.31
797.652	43.69
797.832	-25.94
798.012	123.56
798.192	-48.47
798.373	-93.52
798.553	-5.46
798.733	0.68
798.913	-23.89
799.093	2.73
799.274	107.18
799.454	64.17
799.634	168.62
799.814	78.51
799.994	51.88
800.174	64.17
800.354	70.31
800.534	-64.85
800.714	66.22
800.894	-32.08
801.074	-54.61
801.254	-19.8
801.434	135.85
801.614	39.59
801.794	-52.56
801.974	1884.81
802.154	10.92
802.334	92.84
802.514	-66.9
802.693	70.31
802.873	-40.28
803.053	129.7
803.233	12.97
803.413	-7.51
803.592	-13.65
803.772	2.73
803.952	-38.23
804.131	8.87
804.311	88.75
804.491	127.66
804.67	-25.94
804.85	-83.28
805.03	64.17
805.209	141.99
805.389	10.92
805.568	-7.51
805.748	-50.52
805.928	33.45
806.107	131.75
806.287	101.03
806.466	58.03
806.646	-17.75
806.825	-17.75
807.004	25.26
807.184	53.93
807.363	-3.41
807.543	19.11
807.722	-64.85
807.901	94.89
808.081	86.7
808.26	-99.67
808.439	10.92
808.619	-40.28
808.798	43.69
808.977	0.68
809.156	109.23
809.336	-30.04
809.515	197.29
809.694	-58.71
809.873	-19.8
810.052	29.35
810.231	131.75
810.411	15.02
810.59	88.75
810.769	25.26
810.948	64.17
811.127	-46.42
811.306	27.31
811.485	-5.46
811.664	158.38
811.843	90.79
812.022	29.35
812.201	29.35
812.38	-40.28
812.559	-23.89
812.737	119.46
812.916	15.02
813.095	8.87
813.274	78.51
813.453	117.42
813.632	21.16
813.811	80.55
813.989	-23.89
814.168	-15.7
814.347	-132.44
814.526	-1.37
814.704	88.75
814.883	152.23
815.062	-40.28
815.24	6.83
815.419	-11.61
815.598	47.79
815.776	-34.13
815.955	29.35
816.133	-97.62
816.312	80.55
816.49	-25.94
816.669	25.26
816.847	25.26
817.026	43.69
817.204	-30.04
817.383	-32.08
817.561	-44.37
817.74	49.83
817.918	35.5
818.097	-64.85
818.275	-11.61
818.453	33.45
818.632	17.07
818.81	15.02
818.988	-11.61
819.167	-48.47
819.345	70.31
819.523	10.92
819.701	19.11
819.879	86.7
820.058	64.17
820.236	47.79
820.414	-15.7
820.592	-23.89
820.77	0.68
820.948	-56.66
821.127	-11.61
821.305	17.07
821.483	-77.14
821.661	96.94
821.839	84.65
822.017	4.78
822.195	-38.23
822.373	150.18
822.551	43.69
822.729	43.69
822.907	-21.84
823.085	37.55
823.262	33.45
823.44	-21.84
823.618	33.45
823.796	60.07
823.974	-44.37
824.152	-56.66
824.329	-32.08
824.507	-15.7
824.685	12.97
824.863	-71
825.04	-23.89
825.218	74.41
825.396	10.92
825.574	58.03
825.751	-3.41
825.929	76.46
826.107	-23.89
826.284	68.27
826.462	80.55
826.639	2.73
826.817	-40.28
826.994	66.22
827.172	-32.08
827.349	158.38
827.527	64.17
827.704	8.87
827.882	58.03
828.059	29.35
828.237	-11.61
828.414	49.83
828.591	-152.91
828.769	12.97
828.946	-44.37
829.124	121.51
829.301	80.55
829.478	21.16
829.655	41.64
829.833	2.73
830.01	-114
830.187	25.26
830.364	-23.89
830.542	17.07
830.719	166.57
830.896	90.79
831.073	68.27
831.25	27.31
831.427	-19.8
831.604	37.55
831.782	-11.61
831.959	0.68
832.136	-27.99
832.313	21.16
832.49	-25.94
832.667	39.59
832.844	-54.61
833.021	137.9
833.198	-5.46
833.374	-13.65
833.551	139.94
833.728	-54.61
833.905	94.89
834.082	-83.28
834.259	25.26
834.436	123.56
834.612	-83.28
834.789	135.85
834.966	17.07
835.143	10.92
835.319	-27.99
835.496	33.45
835.673	10.92
835.85	37.55
836.026	-1.37
836.203	94.89
836.38	0.68
836.556	-46.42
836.733	-27.99
836.909	74.41
837.086	-56.66
837.262	-91.48
837.439	-34.13
837.616	-25.94
837.792	29.35
837.968	-3.41
838.145	0.68
838.321	37.55
838.498	103.08
838.674	58.03
838.851	-7.51
839.027	8.87
839.203	-58.71
839.38	31.4
839.556	-99.67
839.732	74.41
839.909	-1.37
840.085	-40.28
840.261	8.87
840.437	-54.61
840.614	-64.85
840.79	80.55
840.966	139.94
841.142	8.87
841.318	-44.37
841.494	43.69
841.671	49.83
841.847	-85.33
842.023	-128.34
842.199	86.7
842.375	158.38
842.551	-150.87
842.727	-105.81
842.903	64.17
843.079	-107.86
843.255	154.28
843.431	17.07
843.607	92.84
843.783	-124.24
843.959	51.88
844.134	21.16
844.31	72.36
844.486	-81.24
844.662	-83.28
844.838	10.92
845.013	10.92
845.189	111.27
845.365	60.07
845.541	10.92
845.716	-46.42
845.892	64.17
846.068	-38.23
846.244	-73.04
846.419	4.78
846.595	-38.23
846.77	-13.65
846.946	80.55
847.122	25.26
847.297	-56.66
847.473	60.07
847.648	-66.9
847.824	-13.65
847.999	-91.48
848.175	-23.89
848.35	29.35
848.526	90.79
848.701	8.87
848.876	90.79
849.052	10.92
849.227	-50.52
849.403	29.35
849.578	-1.37
849.753	-54.61
849.929	86.7
850.104	-73.04
850.279	-42.32
850.454	47.79
850.63	137.9
850.805	107.18
850.98	4.78
851.155	51.88
851.33	88.75
851.505	-144.72
851.681	127.66
851.856	31.4
852.031	19.11
852.206	17.07
852.381	-21.84
852.556	-11.61
852.731	17.07
852.906	55.98
853.081	-21.84
853.256	90.79
853.431	12.97
853.606	-36.18
853.781	-30.04
853.956	-109.91
854.131	47.79
854.305	-32.08
854.48	-81.24
854.655	-136.53
854.83	-48.47
855.005	0.68
855.18	55.98
855.354	45.74
855.529	25.26
855.704	-50.52
855.879	84.65
856.053	-148.82
856.228	17.07
856.403	-79.19
856.577	-46.42
856.752	-21.84
856.926	-9.56
857.101	21.16
857.276	-81.24
857.45	60.07
857.625	107.18
857.799	113.32
857.974	-5.46
858.148	-66.9
858.323	15.02
858.497	-32.08
858.672	-89.43
858.846	-36.18
859.02	88.75
859.195	-27.99
859.369	-44.37
859.543	15.02
859.718	66.22
859.892	2.73
860.066	19.11
860.241	-1.37
860.415	4.78
860.589	6.83
860.763	25.26
860.938	-32.08
861.112	19.11
861.286	-11.61
861.46	17.07
861.634	64.17
861.808	111.27
861.982	-103.76
862.157	-159.06
862.331	-25.94
862.505	-62.8
862.679	-105.81
862.853	-38.23
863.027	-30.04
863.201	84.65
863.375	-62.8
863.549	41.64
863.722	88.75
863.896	80.55
864.07	-73.04
864.244	41.64
864.418	60.07
864.592	-52.56
864.766	-73.04
864.939	25.26
865.113	6.83
865.287	41.64
865.461	-48.47
865.634	29.35
865.808	-5.46
865.982	-81.24
866.156	-15.7
866.329	-75.09
866.503	37.55
866.676	41.64
866.85	39.59
867.024	-17.75
867.197	15.02
867.371	19.11
867.544	53.93
867.718	-167.25
867.891	139.94
868.065	-52.56
868.238	17.07
868.412	113.32
868.585	6.83
868.759	-32.08
868.932	-48.47
869.105	-95.57
869.279	-27.99
869.452	-116.05
869.625	105.13
869.799	-11.61
869.972	-71
870.145	-21.84
870.319	162.47
870.492	-32.08
870.665	-50.52
870.838	-1.37
871.011	-109.91
871.185	-50.52
871.358	-36.18
871.531	64.17
871.704	-62.8
871.877	-40.28
872.05	23.21
872.223	-111.96
872.396	88.75
872.569	-48.47
872.742	2.73
872.915	62.12
873.088	39.59
873.261	-52.56
873.434	4.78
873.607	12.97
873.78	45.74
873.953	-32.08
874.126	41.64
874.299	51.88
874.471	-19.8
874.644	-68.95
874.817	45.74
874.99	174.76
875.163	-77.14
875.335	53.93
875.508	-15.7
875.681	150.18
875.853	-50.52
876.026	51.88
876.199	47.79
876.371	-5.46
876.544	-105.81
876.717	-54.61
876.889	-66.9
877.062	-7.51
877.234	-32.08
877.407	27.31
877.579	39.59
877.752	-40.28
877.924	39.59
878.097	58.03
878.269	-25.94
878.442	80.55
878.614	31.4
878.786	-25.94
878.959	60.07
879.131	78.51
879.303	-64.85
879.476	-25.94
879.648	45.74
879.82	-3.41
879.993	-38.23
880.165	-46.42
880.337	-191.83
880.509	12.97
880.681	-91.48
880.854	-13.65
881.026	66.22
881.198	127.66
881.37	-40.28
881.542	-30.04
881.714	58.03
881.886	19.11
882.058	0.68
882.23	49.83
882.402	33.45
882.574	6.83
882.746	90.79
882.918	115.37
883.09	-3.41
883.262	58.03
883.434	-11.61
883.606	-79.19
883.778	-17.75
883.95	51.88
884.122	21.16
884.293	60.07
884.465	45.74
884.637	31.4
884.809	-36.18
884.98	6.83
885.152	41.64
885.324	33.45
885.496	-27.99
885.667	-30.04
885.839	-30.04
886.011	133.8
886.182	6.83
886.354	123.56
886.525	78.51
886.697	64.17
886.869	-27.99
887.04	72.36
887.212	154.28
887.383	94.89
887.555	43.69
887.726	-42.32
887.897	-32.08
888.069	49.83
888.24	66.22
888.412	74.41
888.583	-81.24
888.754	29.35
888.926	-138.58
889.097	-101.72
889.268	-56.66
889.44	-3.41
889.611	-40.28
889.782	-73.04
889.953	-44.37
890.125	127.66
890.296	-17.75
890.467	-9.56
890.638	-146.77
890.809	12.97
890.98	-48.47
891.151	21.16
891.323	76.46
891.494	27.31
891.665	-83.28
891.836	-44.37
892.007	109.23
892.178	21.16
892.349	68.27
892.52	-40.28
892.691	-11.61
892.862	-48.47
893.032	-56.66
893.203	-21.84
893.374	103.08
893.545	37.55
893.716	-7.51
893.887	31.4
894.057	-34.13
894.228	0.68
894.399	-44.37
894.57	82.6
894.74	17.07
894.911	62.12
895.082	-38.23
895.253	-79.19
895.423	41.64
895.594	-44.37
895.764	27.31
895.935	-128.34
896.106	21.16
896.276	66.22
896.447	-25.94
896.617	-62.8
896.788	-9.56
896.958	-36.18
897.129	-58.71
897.299	-15.7
897.47	90.79
897.64	68.27
897.81	2.73
897.981	-11.61
898.151	-109.91
898.322	-66.9
898.492	8.87
898.662	-42.32
898.832	-56.66
899.003	-23.89
899.173	33.45
899.343	-105.81
899.513	-120.15
