Data from USB4F104151__35__10-24-37-639.txt Node

Date: Wed Feb 26 10:24:37 EST 2025
User: louis
Spectrometer: USB4F10415
Trigger mode: 4
Integration Time (sec): 1.000000E-1
Scans to average: 1
Electric dark correction enabled: true
Nonlinearity correction enabled: false
Boxcar width: 0
XAxis mode: Wavelengths
Number of Pixels in Spectrum: 3648
>>>>>Begin Spectral Data<<<<<
178.204	-404.3
178.424	-404.3
178.644	-404.3
178.864	-402.26
179.084	-437.07
179.304	60.59
179.524	3.24
179.744	54.44
179.964	-15.19
180.184	-54.1
180.404	-4.95
180.624	5.29
180.844	-17.24
181.064	-27.48
181.283	-25.43
181.503	-7
181.723	27.82
181.943	-95.06
182.163	222.38
182.383	-25.43
182.602	60.59
182.822	205.99
183.042	74.92
183.262	-72.53
183.482	21.67
183.701	72.87
183.921	62.63
184.141	-0.85
184.361	150.7
184.58	165.03
184.8	64.68
185.02	52.39
185.239	109.74
185.459	152.74
185.679	89.26
185.898	-52.05
186.118	31.91
186.338	64.68
186.557	146.6
186.777	13.48
186.997	60.59
187.216	33.96
187.436	185.51
187.655	83.11
187.875	70.83
188.095	87.21
188.314	230.57
188.534	103.59
188.753	-4.95
188.973	134.31
189.192	124.07
189.412	21.67
189.631	-54.1
189.851	68.78
190.07	117.93
190.29	-31.57
190.509	33.96
190.729	25.77
190.948	181.42
191.168	224.42
191.387	46.25
191.607	21.67
191.826	93.35
192.045	81.07
192.265	83.11
192.484	109.74
192.704	52.39
192.923	-47.96
193.142	208.04
193.362	165.03
193.581	156.84
193.8	93.35
194.02	109.74
194.239	150.7
194.458	99.5
194.678	-25.43
194.897	48.3
195.116	83.11
195.335	58.54
195.555	95.4
195.774	-23.38
195.993	93.35
196.212	130.22
196.432	-47.96
196.651	-37.72
196.87	-23.38
197.089	249
197.308	146.6
197.528	81.07
197.747	-17.24
197.966	70.83
198.185	107.69
198.404	-21.33
198.623	160.94
198.842	140.46
199.062	152.74
199.281	126.12
199.5	56.49
199.719	109.74
199.938	87.21
200.157	46.25
200.376	79.02
200.595	218.28
200.814	81.07
201.033	-19.29
201.252	220.33
201.471	99.5
201.69	48.3
201.909	89.26
202.128	46.25
202.347	76.97
202.566	46.25
202.785	-95.06
203.004	9.39
203.223	224.42
203.442	68.78
203.661	17.58
203.879	79.02
204.098	181.42
204.317	-39.76
204.536	54.44
204.755	62.63
204.974	158.89
205.193	23.72
205.411	95.4
205.63	171.18
205.849	83.11
206.068	54.44
206.287	-62.29
206.505	103.59
206.724	130.22
206.943	-56.15
207.162	-2.9
207.381	105.64
207.599	42.15
207.818	46.25
208.037	15.53
208.255	72.87
208.474	79.02
208.693	76.97
208.911	-76.63
209.13	103.59
209.349	81.07
209.567	148.65
209.786	87.21
210.005	85.16
210.223	42.15
210.442	-54.1
210.661	7.34
210.879	175.27
211.098	48.3
211.316	-7
211.535	81.07
211.753	113.83
211.972	99.5
212.191	-23.38
212.409	-2.9
212.628	50.35
212.846	48.3
213.065	99.5
213.283	76.97
213.502	64.68
213.72	105.64
213.938	72.87
214.157	97.45
214.375	91.31
214.594	9.39
214.812	130.22
215.031	74.92
215.249	113.83
215.467	58.54
215.686	81.07
215.904	42.15
216.122	42.15
216.341	240.81
216.559	64.68
216.778	50.35
216.996	124.07
217.214	48.3
217.432	25.77
217.651	-88.92
217.869	117.93
218.087	91.31
218.306	-29.52
218.524	52.39
218.742	23.72
218.96	70.83
219.179	-23.38
219.397	54.44
219.615	226.47
219.833	76.97
220.051	-68.44
220.27	142.5
220.488	156.84
220.706	87.21
220.924	-39.76
221.142	29.87
221.36	93.35
221.578	83.11
221.796	-13.14
222.015	15.53
222.233	107.69
222.451	122.02
222.669	-15.19
222.887	62.63
223.105	89.26
223.323	54.44
223.541	9.39
223.759	70.83
223.977	66.73
224.195	165.03
224.413	119.98
224.631	107.69
224.849	128.17
225.067	224.42
225.285	58.54
225.503	103.59
225.721	-109.4
225.939	72.87
226.157	13.48
226.375	203.94
226.592	15.53
226.81	103.59
227.028	150.7
227.246	81.07
227.464	142.5
227.682	54.44
227.9	33.96
228.117	74.92
228.335	113.83
228.553	66.73
228.771	93.35
228.989	58.54
229.206	103.59
229.424	68.78
229.642	-25.43
229.86	21.67
230.077	189.61
230.295	50.35
230.513	154.79
230.731	134.31
230.948	216.23
231.166	134.31
231.384	72.87
231.601	19.63
231.819	230.57
232.037	11.43
232.254	-31.57
232.472	83.11
232.689	7.34
232.907	54.44
233.125	-13.14
233.342	60.59
233.56	-39.76
233.777	132.26
233.995	62.63
234.213	103.59
234.43	117.93
234.648	48.3
234.865	44.2
235.083	74.92
235.3	33.96
235.518	13.48
235.735	224.42
235.953	85.16
236.17	76.97
236.388	85.16
236.605	132.26
236.822	93.35
237.04	152.74
237.257	113.83
237.475	7.34
237.692	101.55
237.909	126.12
238.127	62.63
238.344	111.78
238.562	134.31
238.779	-76.63
238.996	9.39
239.214	15.53
239.431	197.8
239.648	38.06
239.865	83.11
240.083	95.4
240.3	3.24
240.517	-7
240.735	54.44
240.952	175.27
241.169	33.96
241.386	70.83
241.603	103.59
241.821	33.96
242.038	64.68
242.255	189.61
242.472	-66.39
242.689	91.31
242.907	81.07
243.124	89.26
243.341	9.39
243.558	-82.77
243.775	1.19
243.992	-72.53
244.209	142.5
244.426	212.14
244.643	11.43
244.86	33.96
245.078	144.55
245.295	36.01
245.512	13.48
245.729	-23.38
245.946	74.92
246.163	64.68
246.38	-0.85
246.597	99.5
246.814	62.63
247.031	46.25
247.248	38.06
247.464	132.26
247.681	33.96
247.898	142.5
248.115	54.44
248.332	-64.34
248.549	152.74
248.766	201.9
248.983	138.41
249.2	58.54
249.417	105.64
249.633	11.43
249.85	48.3
250.067	101.55
250.284	85.16
250.501	126.12
250.717	46.25
250.934	-15.19
251.151	15.53
251.368	33.96
251.585	99.5
251.801	62.63
252.018	-7
252.235	83.11
252.451	-0.85
252.668	44.2
252.885	89.26
253.102	97.45
253.318	38.06
253.535	-0.85
253.752	27.82
253.968	7.34
254.185	-0.85
254.401	76.97
254.618	56.49
254.835	-33.62
255.051	177.32
255.268	62.63
255.484	74.92
255.701	89.26
255.917	107.69
256.134	23.72
256.351	62.63
256.567	-23.38
256.784	9.39
257	-60.24
257.217	107.69
257.433	150.7
257.65	19.63
257.866	156.84
258.082	17.58
258.299	-9.05
258.515	126.12
258.732	42.15
258.948	-2.9
259.165	-25.43
259.381	25.77
259.597	107.69
259.814	17.58
260.03	44.2
260.246	56.49
260.463	201.9
260.679	195.75
260.895	97.45
261.112	91.31
261.328	60.59
261.544	91.31
261.761	179.37
261.977	-27.48
262.193	-76.63
262.409	64.68
262.626	122.02
262.842	66.73
263.058	11.43
263.274	97.45
263.49	68.78
263.707	113.83
263.923	132.26
264.139	-33.62
264.355	31.91
264.571	85.16
264.787	119.98
265.004	140.46
265.22	85.16
265.436	-25.43
265.652	13.48
265.868	109.74
266.084	21.67
266.3	101.55
266.516	-29.52
266.732	113.83
266.948	54.44
267.164	31.91
267.38	119.98
267.596	119.98
267.812	158.89
268.028	56.49
268.244	5.29
268.46	19.63
268.676	25.77
268.892	68.78
269.108	76.97
269.324	-4.95
269.54	21.67
269.756	74.92
269.972	-0.85
270.188	117.93
270.403	-13.14
270.619	27.82
270.835	109.74
271.051	124.07
271.267	33.96
271.483	-9.05
271.698	136.36
271.914	126.12
272.13	72.87
272.346	13.48
272.562	25.77
272.777	193.7
272.993	31.91
273.209	25.77
273.425	95.4
273.64	-17.24
273.856	11.43
274.072	48.3
274.287	33.96
274.503	128.17
274.719	119.98
274.934	-27.48
275.15	-37.72
275.366	56.49
275.581	-11.09
275.797	-9.05
276.012	58.54
276.228	15.53
276.444	58.54
276.659	62.63
276.875	-84.82
277.09	-13.14
277.306	60.59
277.521	140.46
277.737	50.35
277.952	62.63
278.168	50.35
278.383	62.63
278.599	83.11
278.814	85.16
279.03	21.67
279.245	242.85
279.461	87.21
279.676	60.59
279.892	-41.81
280.107	17.58
280.322	1.19
280.538	44.2
280.753	40.11
280.969	76.97
281.184	64.68
281.399	197.8
281.615	5.29
281.83	68.78
282.045	33.96
282.26	-45.91
282.476	107.69
282.691	89.26
282.906	50.35
283.122	68.78
283.337	-23.38
283.552	148.65
283.767	25.77
283.983	70.83
284.198	42.15
284.413	158.89
284.628	-15.19
284.843	113.83
285.058	111.78
285.274	-64.34
285.489	91.31
285.704	201.9
285.919	62.63
286.134	-25.43
286.349	46.25
286.564	48.3
286.779	93.35
286.995	50.35
287.21	21.67
287.425	132.26
287.64	81.07
287.855	93.35
288.07	-78.68
288.285	42.15
288.5	144.55
288.715	3.24
288.93	70.83
289.145	-0.85
289.36	29.87
289.575	-25.43
289.79	97.45
290.004	93.35
290.219	136.36
290.434	52.39
290.649	66.73
290.864	64.68
291.079	50.35
291.294	83.11
291.509	99.5
291.724	27.82
291.938	-50
292.153	33.96
292.368	23.72
292.583	25.77
292.798	89.26
293.012	146.6
293.227	46.25
293.442	-58.2
293.657	113.83
293.871	124.07
294.086	91.31
294.301	195.75
294.516	165.03
294.73	60.59
294.945	-23.38
295.16	-11.09
295.374	158.89
295.589	203.94
295.804	29.87
296.018	15.53
296.233	167.08
296.447	130.22
296.662	-13.14
296.877	126.12
297.091	64.68
297.306	66.73
297.52	-41.81
297.735	36.01
297.949	83.11
298.164	132.26
298.378	99.5
298.593	-2.9
298.807	-23.38
299.022	60.59
299.236	193.7
299.451	52.39
299.665	-45.91
299.88	83.11
300.094	99.5
300.309	-11.09
300.523	76.97
300.737	17.58
300.952	167.08
301.166	38.06
301.381	46.25
301.595	44.2
301.809	97.45
302.024	-43.86
302.238	7.34
302.452	138.41
302.667	122.02
302.881	187.56
303.095	113.83
303.309	72.87
303.524	25.77
303.738	38.06
303.952	-50
304.166	103.59
304.381	-66.39
304.595	115.88
304.809	52.39
305.023	91.31
305.237	-29.52
305.452	134.31
305.666	132.26
305.88	181.42
306.094	132.26
306.308	87.21
306.522	173.22
306.736	70.83
306.95	111.78
307.164	17.58
307.379	1.19
307.593	128.17
307.807	144.55
308.021	103.59
308.235	101.55
308.449	-39.76
308.663	-17.24
308.877	246.95
309.091	107.69
309.305	87.21
309.519	-66.39
309.733	103.59
309.947	13.48
310.161	79.02
310.374	126.12
310.588	132.26
310.802	44.2
311.016	9.39
311.23	76.97
311.444	-52.05
311.658	50.35
311.872	97.45
312.085	177.32
312.299	109.74
312.513	169.13
312.727	128.17
312.941	31.91
313.154	54.44
313.368	74.92
313.582	60.59
313.796	60.59
314.009	72.87
314.223	62.63
314.437	54.44
314.651	165.03
314.864	13.48
315.078	44.2
315.292	-138.07
315.505	5.29
315.719	95.4
315.933	95.4
316.146	101.55
316.36	-15.19
316.573	115.88
316.787	134.31
317.001	76.97
317.214	33.96
317.428	113.83
317.641	17.58
317.855	33.96
318.068	36.01
318.282	76.97
318.495	148.65
318.709	93.35
318.922	21.67
319.136	214.18
319.349	76.97
319.563	40.11
319.776	208.04
319.99	48.3
320.203	156.84
320.417	-11.09
320.63	111.78
320.843	201.9
321.057	85.16
321.27	93.35
321.483	31.91
321.697	144.55
321.91	156.84
322.124	87.21
322.337	87.21
322.55	36.01
322.763	52.39
322.977	68.78
323.19	27.82
323.403	68.78
323.617	87.21
323.83	117.93
324.043	87.21
324.256	76.97
324.469	-7
324.683	74.92
324.896	-60.24
325.109	27.82
325.322	-72.53
325.535	165.03
325.748	148.65
325.962	52.39
326.175	13.48
326.388	97.45
326.601	113.83
326.814	64.68
327.027	115.88
327.24	154.79
327.453	-27.48
327.666	85.16
327.879	79.02
328.092	-2.9
328.305	79.02
328.518	7.34
328.731	5.29
328.944	87.21
329.157	115.88
329.37	74.92
329.583	212.14
329.796	214.18
330.009	-11.09
330.222	52.39
330.435	156.84
330.648	93.35
330.861	187.56
331.073	50.35
331.286	113.83
331.499	89.26
331.712	-21.33
331.925	-2.9
332.138	21.67
332.35	109.74
332.563	122.02
332.776	105.64
332.989	-88.92
333.202	70.83
333.414	87.21
333.627	101.55
333.84	-0.85
334.053	56.49
334.265	-31.57
334.478	21.67
334.691	66.73
334.903	70.83
335.116	-17.24
335.329	27.82
335.541	83.11
335.754	62.63
335.966	7.34
336.179	15.53
336.392	50.35
336.604	29.87
336.817	115.88
337.029	58.54
337.242	15.53
337.454	101.55
337.667	122.02
337.88	199.85
338.092	115.88
338.305	124.07
338.517	27.82
338.729	130.22
338.942	124.07
339.154	-0.85
339.367	9.39
339.579	68.78
339.792	-11.09
340.004	21.67
340.217	5.29
340.429	128.17
340.641	-31.57
340.854	66.73
341.066	33.96
341.278	171.18
341.491	126.12
341.703	23.72
341.915	-23.38
342.128	115.88
342.34	60.59
342.552	-0.85
342.764	13.48
342.977	36.01
343.189	117.93
343.401	38.06
343.613	-11.09
343.826	19.63
344.038	-43.86
344.25	31.91
344.462	54.44
344.674	3.24
344.886	-0.85
345.099	138.41
345.311	144.55
345.523	103.59
345.735	-76.63
345.947	29.87
346.159	31.91
346.371	85.16
346.583	64.68
346.795	267.43
347.007	-9.05
347.219	99.5
347.431	50.35
347.643	64.68
347.855	103.59
348.067	46.25
348.279	17.58
348.491	29.87
348.703	113.83
348.915	38.06
349.127	1.19
349.339	99.5
349.551	21.67
349.763	62.63
349.975	-7
350.187	138.41
350.399	158.89
350.61	46.25
350.822	13.48
351.034	19.63
351.246	70.83
351.458	124.07
351.669	136.36
351.881	95.4
352.093	113.83
352.305	66.73
352.517	79.02
352.728	187.56
352.94	23.72
353.152	107.69
353.363	48.3
353.575	119.98
353.787	165.03
353.999	113.83
354.21	191.66
354.422	-27.48
354.633	38.06
354.845	21.67
355.057	68.78
355.268	44.2
355.48	138.41
355.692	13.48
355.903	66.73
356.115	19.63
356.326	3.24
356.538	216.23
356.749	3.24
356.961	99.5
357.172	107.69
357.384	33.96
357.595	199.85
357.807	25.77
358.018	42.15
358.23	91.31
358.441	119.98
358.653	124.07
358.864	33.96
359.075	-39.76
359.287	113.83
359.498	107.69
359.709	130.22
359.921	21.67
360.132	5.29
360.344	46.25
360.555	33.96
360.766	142.5
360.977	-9.05
361.189	130.22
361.4	56.49
361.611	146.6
361.823	74.92
362.034	119.98
362.245	-58.2
362.456	5.29
362.667	105.64
362.879	7.34
363.09	5.29
363.301	156.84
363.512	115.88
363.723	-23.38
363.935	-37.72
364.146	46.25
364.357	33.96
364.568	97.45
364.779	-64.34
364.99	185.51
365.201	17.58
365.412	72.87
365.623	-109.4
365.834	132.26
366.045	85.16
366.256	97.45
366.467	87.21
366.678	54.44
366.889	107.69
367.1	-35.67
367.311	165.03
367.522	79.02
367.733	42.15
367.944	-9.05
368.155	-7
368.366	85.16
368.577	115.88
368.788	152.74
368.999	44.2
369.209	46.25
369.42	140.46
369.631	292.01
369.842	58.54
370.053	38.06
370.264	122.02
370.474	11.43
370.685	109.74
370.896	40.11
371.107	83.11
371.317	136.36
371.528	40.11
371.739	177.32
371.95	66.73
372.16	70.83
372.371	-31.57
372.582	-35.67
372.792	62.63
373.003	74.92
373.214	89.26
373.424	136.36
373.635	50.35
373.846	115.88
374.056	134.31
374.267	21.67
374.477	60.59
374.688	-19.29
374.898	33.96
375.109	36.01
375.319	70.83
375.53	138.41
375.74	70.83
375.951	44.2
376.161	23.72
376.372	138.41
376.582	46.25
376.793	142.5
377.003	-27.48
377.214	36.01
377.424	62.63
377.635	87.21
377.845	3.24
378.055	197.8
378.266	-7
378.476	56.49
378.686	48.3
378.897	128.17
379.107	95.4
379.317	122.02
379.528	15.53
379.738	136.36
379.948	21.67
380.158	79.02
380.369	87.21
380.579	89.26
380.789	68.78
380.999	181.42
381.21	81.07
381.42	208.04
381.63	72.87
381.84	99.5
382.05	85.16
382.261	97.45
382.471	162.98
382.681	76.97
382.891	197.8
383.101	64.68
383.311	23.72
383.521	-25.43
383.731	109.74
383.941	150.7
384.151	99.5
384.361	-7
384.571	97.45
384.781	87.21
384.991	228.52
385.201	240.81
385.411	146.6
385.621	115.88
385.831	105.64
386.041	60.59
386.251	74.92
386.461	122.02
386.671	3.24
386.881	50.35
387.091	15.53
387.301	119.98
387.511	83.11
387.72	152.74
387.93	111.78
388.14	-27.48
388.35	60.59
388.56	119.98
388.769	167.08
388.979	70.83
389.189	1.19
389.399	44.2
389.609	136.36
389.818	111.78
390.028	58.54
390.238	79.02
390.447	-23.38
390.657	42.15
390.867	-11.09
391.076	-43.86
391.286	52.39
391.496	74.92
391.705	9.39
391.915	165.03
392.125	3.24
392.334	-0.85
392.544	124.07
392.753	62.63
392.963	-2.9
393.172	29.87
393.382	-23.38
393.591	89.26
393.801	52.39
394.01	142.5
394.22	74.92
394.429	42.15
394.639	13.48
394.848	46.25
395.058	122.02
395.267	54.44
395.477	83.11
395.686	128.17
395.895	246.95
396.105	236.71
396.314	42.15
396.524	62.63
396.733	-19.29
396.942	160.94
397.152	115.88
397.361	210.09
397.57	140.46
397.78	1.19
397.989	111.78
398.198	269.48
398.407	58.54
398.617	31.91
398.826	48.3
399.035	29.87
399.244	122.02
399.453	31.91
399.663	101.55
399.872	103.59
400.081	-23.38
400.29	113.83
400.499	31.91
400.708	117.93
400.917	11.43
401.127	93.35
401.336	-4.95
401.545	205.99
401.754	138.41
401.963	68.78
402.172	42.15
402.381	-29.52
402.59	-17.24
402.799	60.59
403.008	91.31
403.217	142.5
403.426	72.87
403.635	-37.72
403.844	36.01
404.053	56.49
404.262	11.43
404.471	253.09
404.68	87.21
404.888	46.25
405.097	13.48
405.306	208.04
405.515	154.79
405.724	19.63
405.933	91.31
406.142	109.74
406.35	119.98
406.559	23.72
406.768	7.34
406.977	240.81
407.185	130.22
407.394	52.39
407.603	-33.62
407.812	62.63
408.02	117.93
408.229	97.45
408.438	103.59
408.646	-35.67
408.855	-27.48
409.064	91.31
409.272	25.77
409.481	136.36
409.69	36.01
409.898	-7
410.107	111.78
410.315	185.51
410.524	62.63
410.733	101.55
410.941	83.11
411.15	83.11
411.358	113.83
411.567	165.03
411.775	83.11
411.984	72.87
412.192	126.12
412.401	-56.15
412.609	220.33
412.818	132.26
413.026	193.7
413.234	33.96
413.443	111.78
413.651	-19.29
413.86	70.83
414.068	60.59
414.276	138.41
414.485	-19.29
414.693	144.55
414.901	162.98
415.11	173.22
415.318	62.63
415.526	68.78
415.734	95.4
415.943	-23.38
416.151	189.61
416.359	-7
416.567	81.07
416.776	79.02
416.984	128.17
417.192	156.84
417.4	-27.48
417.608	54.44
417.817	-43.86
418.025	179.37
418.233	173.22
418.441	-13.14
418.649	9.39
418.857	72.87
419.065	111.78
419.273	38.06
419.481	103.59
419.689	33.96
419.897	19.63
420.105	-7
420.313	146.6
420.521	119.98
420.729	111.78
420.937	-0.85
421.145	58.54
421.353	205.99
421.561	185.51
421.769	93.35
421.977	-2.9
422.185	87.21
422.393	46.25
422.601	93.35
422.809	146.6
423.017	46.25
423.224	91.31
423.432	181.42
423.64	13.48
423.848	111.78
424.056	19.63
424.263	130.22
424.471	52.39
424.679	165.03
424.887	-115.54
425.094	152.74
425.302	115.88
425.51	52.39
425.718	197.8
425.925	83.11
426.133	85.16
426.341	246.95
426.548	105.64
426.756	107.69
426.964	132.26
427.171	9.39
427.379	148.65
427.586	42.15
427.794	132.26
428.001	140.46
428.209	122.02
428.417	240.81
428.624	177.32
428.832	175.27
429.039	146.6
429.247	146.6
429.454	79.02
429.662	220.33
429.869	81.07
430.076	158.89
430.284	165.03
430.491	205.99
430.699	148.65
430.906	179.37
431.114	177.32
431.321	115.88
431.528	74.92
431.736	146.6
431.943	228.52
432.15	140.46
432.358	197.8
432.565	263.33
432.772	40.11
432.979	275.62
433.187	179.37
433.394	205.99
433.601	167.08
433.808	179.37
434.016	253.09
434.223	197.8
434.43	185.51
434.637	267.43
434.844	257.19
435.052	185.51
435.259	214.18
435.466	255.14
435.673	199.85
435.88	332.97
436.087	347.3
436.294	296.1
436.501	318.63
436.708	263.33
436.915	320.68
437.122	398.5
437.329	300.2
437.537	308.39
437.743	275.62
437.95	361.64
438.157	396.45
438.364	421.03
438.571	486.56
438.778	480.42
438.985	451.75
439.192	445.6
439.399	406.69
439.606	515.23
439.813	578.72
440.02	582.82
440.227	742.56
440.433	588.96
440.64	603.3
440.847	541.86
441.054	642.21
441.261	763.04
441.467	693.41
441.674	711.84
441.881	754.85
442.088	625.83
442.294	769.18
442.501	744.61
442.708	914.59
442.914	763.04
443.121	969.88
443.328	826.53
443.534	986.27
443.741	867.49
443.948	847.01
444.154	1051.8
444.361	1143.96
444.568	1023.13
444.774	1006.75
444.981	1033.37
445.187	1291.41
445.394	1254.55
445.6	1129.63
445.807	1385.62
446.013	1217.69
446.22	1305.75
446.426	1526.93
446.633	1385.62
446.839	1686.67
447.046	1481.88
447.252	1719.44
447.459	1666.19
447.665	1754.26
447.871	1832.08
448.078	1934.48
448.284	1877.13
448.491	2063.5
448.697	2102.41
448.903	2159.75
449.11	2116.75
449.316	2208.9
449.522	2319.5
449.728	2413.7
449.935	2503.81
450.141	2610.31
450.347	2806.91
450.553	2641.03
450.76	2862.21
450.966	2909.31
451.172	2952.32
451.378	3232.89
451.584	3163.26
451.791	3511.41
451.997	3396.73
452.203	3587.19
452.409	3822.7
452.615	4056.17
452.821	3710.07
453.027	3900.53
453.233	4498.53
453.44	4293.74
453.646	4504.68
453.852	4572.26
454.058	4840.54
454.264	4783.2
454.47	5225.56
454.676	5354.58
454.882	5811.28
455.088	5571.67
455.294	5842
455.5	6265.93
455.705	6546.5
455.911	6460.49
456.117	6851.65
456.323	7078.97
456.529	6913.09
456.735	7597.11
456.941	7746.61
457.147	8184.88
457.352	8389.67
457.558	8627.24
457.764	8959.01
457.97	9348.12
458.176	9620.5
458.381	10185.74
458.587	10413.07
458.793	10912.77
458.999	10812.42
459.204	12178.42
459.41	12350.45
459.616	12403.69
459.821	13269.98
460.027	13589.47
460.233	14408.65
460.438	14369.74
460.644	15320
460.85	15354.82
461.055	15997.88
461.261	16786.35
461.466	16276.4
461.672	16827.31
461.878	18561.94
462.083	18406.29
462.289	18688.91
462.494	19800.96
462.7	19745.66
462.905	20081.53
463.111	21459.81
463.316	22889.29
463.522	22870.86
463.727	23966.52
463.932	24922.93
464.138	25320.23
464.343	26594.07
464.549	26579.73
464.754	28662.52
464.959	29555.43
465.165	29754.08
465.37	29924.07
465.575	29631.21
465.781	31713.99
465.986	32934.58
466.191	32395.96
466.397	32547.51
466.602	31867.59
466.807	33663.66
467.012	34015.91
467.218	34704.03
467.423	34747.03
467.628	35803.78
467.833	37587.57
468.038	36594.3
468.244	36270.72
468.449	37948.01
468.654	37431.92
468.859	37491.31
469.064	37243.51
469.269	36481.66
469.474	36924.02
469.679	37728.87
469.885	36604.54
470.09	37505.65
470.295	37515.89
470.5	36407.94
470.705	36792.95
470.91	36006.53
471.115	35130
471.32	36158.08
471.525	35877.51
471.73	34876.05
471.935	34638.49
472.139	33225.39
472.344	33696.42
472.549	33454.76
472.754	32590.52
472.959	31804.1
473.164	30784.21
473.369	30569.18
473.574	31195.85
473.778	30943.95
473.983	30104.29
474.188	29397.74
474.393	28422.9
474.598	28209.92
474.802	27605.77
475.007	27177.74
475.212	27251.47
475.417	25682.72
475.621	25697.06
475.826	25041.71
476.031	24587.06
476.235	24073.02
476.44	24417.08
476.645	23434.05
476.849	23501.64
477.054	22817.61
477.259	22563.67
477.463	22369.11
477.668	21734.24
477.872	21783.39
478.077	21298.02
478.282	20456.31
478.486	20353.91
478.691	20128.63
478.895	20048.76
479.1	19542.91
479.304	19952.51
479.509	18967.43
479.713	19440.51
479.918	18994.06
480.122	18369.43
480.326	18828.17
480.531	18611.09
480.735	18369.43
480.94	18111.38
481.144	18797.45
481.348	17638.3
481.553	17583.01
481.757	17214.37
481.961	17370.02
482.166	17419.17
482.37	17453.98
482.574	16941.99
482.778	16810.92
482.983	17146.79
483.187	16548.78
483.391	16567.21
483.595	16505.77
483.8	15946.68
484.004	16235.44
484.208	15971.25
484.412	16001.97
484.616	15678.4
484.821	15602.62
485.025	15256.51
485.229	15399.87
485.433	14828.49
485.637	14803.91
485.841	14441.42
486.045	14597.07
486.249	14275.54
486.453	13988.82
486.657	13876.18
486.861	13730.78
487.065	13104.1
487.269	13280.22
487.473	12624.87
487.677	12981.22
487.881	12725.22
488.085	12368.88
488.289	12415.98
488.493	11838.45
488.697	11922.42
488.901	11744.25
489.105	11420.67
489.309	11267.07
489.512	11308.03
489.716	10892.29
489.92	10529.8
490.124	10384.4
490.328	10603.53
490.531	10062.87
490.735	10044.43
490.939	9647.13
491.143	9479.19
491.346	9329.69
491.55	9260.06
491.754	9131.04
491.958	8891.43
492.161	8721.45
492.365	8614.95
492.569	8508.46
492.772	8442.92
492.976	8295.47
493.18	8170.54
493.383	8102.96
493.587	8012.85
493.79	7949.36
493.994	7627.83
494.197	7689.27
494.401	7621.69
494.605	7531.58
494.808	7404.6
495.012	7316.54
495.215	7367.74
495.419	7238.72
495.622	7017.54
495.825	7017.54
496.029	6917.19
496.232	7136.32
496.436	6822.98
496.639	7179.33
496.843	6978.62
497.046	6947.9
497.249	7056.45
497.453	7126.08
497.656	6839.36
497.859	6937.66
498.063	7023.68
498.266	6964.29
498.469	6865.99
498.673	6681.67
498.876	7042.11
499.079	6956.1
499.282	6837.31
499.485	7330.87
499.689	7154.75
499.892	7044.16
500.095	7074.88
500.298	7179.33
500.501	6847.55
500.705	7101.5
500.908	7277.63
501.111	7222.33
501.314	7490.62
501.517	7523.38
501.72	7486.52
501.923	7509.05
502.126	7654.45
502.329	7836.72
502.532	7801.91
502.735	7924.79
502.938	8139.82
503.141	7963.7
503.344	8070.19
503.547	8354.86
503.75	8066.1
503.953	8231.98
504.156	8514.6
504.359	8549.42
504.562	8619.05
504.765	8916
504.968	8940.58
505.17	9096.22
505.373	9229.34
505.576	9479.19
505.779	9475.1
505.982	9561.11
506.185	9714.71
506.387	9745.43
506.59	9995.28
506.793	10314.77
506.996	10304.53
507.198	10734.6
507.401	10767.37
507.604	11011.07
507.807	11095.04
508.009	11334.65
508.212	11402.24
508.415	11770.87
508.617	11932.66
508.82	12325.87
509.022	12325.87
509.225	12649.45
509.428	12970.98
509.63	12950.5
509.833	13190.11
510.035	13841.37
510.238	13954.01
510.44	14240.72
510.643	14699.47
510.845	14896.07
511.048	14924.74
511.25	15195.07
511.453	15522.75
511.655	16202.68
511.858	16376.75
512.06	16741.29
512.262	17150.88
512.465	17482.66
512.667	17730.46
512.87	17839
513.072	18338.71
513.274	18682.77
513.477	19442.56
513.679	19676.03
513.881	19934.07
514.084	20642.67
514.286	20636.53
514.488	21357.41
514.69	22242.14
514.893	22403.92
515.095	22870.86
515.297	23171.91
515.499	23565.12
515.701	23862.08
515.904	24896.3
516.106	25266.99
516.308	25889.57
516.51	26219.29
516.712	26346.26
516.914	27280.14
517.116	27675.4
517.318	28117.76
517.52	28504.82
517.722	28957.42
517.925	29223.66
518.127	30155.49
518.329	30419.67
518.531	30452.44
518.733	31498.95
518.935	31996.61
519.136	32324.29
519.338	32821.94
519.54	33438.38
519.742	34030.24
519.944	34411.17
520.146	34890.39
520.348	35197.59
520.55	35429.01
520.752	35891.85
520.954	36905.59
521.155	36416.13
521.357	37098.1
521.559	37988.97
521.761	38570.59
521.963	38447.71
522.164	38599.26
522.366	39365.2
522.568	39645.77
522.77	39858.76
522.971	40628.8
523.173	40245.83
523.375	40796.73
523.576	40532.54
523.778	40518.21
523.98	40778.3
524.181	41251.38
524.383	40948.28
524.584	41695.79
524.786	41622.06
524.988	41275.96
525.189	41835.05
525.391	41998.89
525.592	41945.64
525.794	41728.56
525.995	41640.5
526.197	41691.69
526.398	41564.72
526.6	41630.26
526.801	41388.6
527.003	41550.38
527.204	41220.66
527.406	41355.83
527.607	41036.34
527.808	40819.26
528.01	39742.03
528.211	40239.68
528.412	40059.46
528.614	39889.48
528.815	39598.67
529.016	39430.74
529.218	38865.5
529.419	38369.89
529.62	38505.06
529.822	37939.82
530.023	37483.12
530.224	37608.04
530.425	36874.87
530.626	36254.34
530.828	35938.95
531.029	36516.48
531.23	35400.33
531.431	34882.2
531.632	34783.9
531.833	34394.78
532.035	34146.98
532.236	33315.5
532.437	33540.78
532.638	32672.44
532.839	32355
533.04	32201.41
533.241	31249.1
533.442	31226.57
533.643	30720.73
533.844	30278.36
534.045	30223.07
534.246	29156.08
534.447	29143.79
534.648	28488.44
534.849	28330.75
535.05	27749.12
535.251	27327.24
535.451	26854.16
535.652	26841.87
535.853	26549.01
536.054	25735.97
536.255	25613.09
536.456	25269.03
536.657	25154.35
536.857	24746.8
537.058	24103.74
537.259	24189.75
537.46	23890.75
537.66	23274.31
537.861	23110.47
538.062	22776.66
538.263	22610.77
538.463	22190.94
538.664	22039.39
538.865	21629.79
539.065	21537.63
539.266	21181.29
539.466	20894.57
539.667	20607.86
539.868	20355.96
540.068	20200.31
540.269	19800.96
540.469	19692.41
540.67	19327.88
540.87	19299.2
541.071	18961.29
541.271	18848.65
541.472	18369.43
541.672	18123.67
541.873	18006.94
542.073	17552.29
542.274	17662.88
542.474	17634.21
542.675	17275.81
542.875	17138.6
543.075	16843.69
543.276	16731.05
543.476	16561.07
543.676	16309.17
543.877	16073.65
544.077	16253.87
544.277	15944.63
544.478	15700.92
544.678	15600.57
544.878	15205.31
545.078	15203.27
545.279	14846.92
545.479	14537.68
545.679	14592.97
545.879	14330.83
546.079	14420.94
546.28	14164.95
546.48	13792.22
546.68	13984.73
546.88	13816.79
547.08	13519.84
547.28	13386.72
547.48	13097.95
547.68	13321.18
547.88	12690.41
548.081	12796.9
548.281	12577.77
548.481	12309.49
548.681	12336.11
548.881	12125.17
549.081	11785.21
549.28	11674.62
549.48	11619.32
549.68	11484.16
549.88	11484.16
550.08	10814.47
550.28	10941.44
550.48	10996.74
550.68	10894.34
550.88	10499.08
551.08	10343.44
551.279	10269.71
551.479	10032.15
551.679	10152.98
551.879	9829.4
552.079	9892.88
552.278	9471
552.478	9528.35
552.678	9120.8
552.878	9268.25
553.077	8905.76
553.277	8746.02
553.477	8657.96
553.676	8606.76
553.876	8358.96
554.076	8295.47
554.275	8164.4
554.475	7980.08
554.674	8168.49
554.874	7717.94
555.074	7631.93
555.273	7498.81
555.473	7691.32
555.672	7324.73
555.872	7322.68
556.071	7130.17
556.271	7052.35
556.47	7009.34
556.67	6722.63
556.869	6825.03
557.068	6556.74
557.268	6595.65
557.467	6499.4
557.667	6329.42
557.866	6245.45
558.065	5901.39
558.265	6032.46
558.464	5833.81
558.663	5755.99
558.863	5565.53
559.062	5618.77
559.261	5491.8
559.461	5452.89
559.66	5399.64
559.859	5110.88
560.058	4998.24
560.258	4965.47
560.457	4983.9
560.656	5110.88
560.855	4785.25
561.054	4871.26
561.253	4689
561.453	4713.57
561.652	4625.51
561.851	4582.5
562.05	4443.24
562.249	4346.98
562.448	4279.4
562.647	4170.86
562.846	4072.56
563.045	4154.48
563.244	3968.11
563.443	3947.63
563.642	3890.29
563.841	3894.38
564.04	3834.99
564.239	3671.15
564.438	3699.83
564.637	3626.1
564.836	3593.33
565.035	3527.8
565.234	3511.41
565.432	3273.85
565.631	3376.25
565.83	3382.39
566.029	3277.94
566.228	3204.22
566.427	3458.17
566.625	3095.68
566.824	3179.64
567.023	3122.3
567.222	3030.14
567.42	2999.42
567.619	3079.29
567.818	3077.24
568.016	3134.59
568.215	2892.93
568.414	2931.84
568.612	2763.9
568.811	2827.39
569.01	2686.08
569.208	2589.83
569.407	2739.33
569.605	2612.35
569.804	2616.45
570.002	2501.76
570.201	2366.6
570.4	2477.19
570.598	2466.95
570.797	2436.23
570.995	2243.72
571.193	2315.4
571.392	2286.73
571.59	2239.62
571.789	2221.19
571.987	2262.15
572.186	2182.28
572.384	2143.37
572.582	2055.31
572.781	2219.14
572.979	1909.9
573.177	1930.38
573.376	1930.38
573.574	2014.35
573.772	1766.54
573.971	1717.39
574.169	1690.77
574.367	1897.61
574.565	1801.36
574.763	1834.13
574.962	1780.88
575.16	1780.88
575.358	1578.13
575.556	1586.32
575.754	1731.73
575.952	1637.52
576.151	1672.34
576.349	1576.08
576.547	1475.73
576.745	1600.66
576.943	1490.07
577.141	1528.98
577.339	1340.57
577.537	1387.67
577.735	1479.83
577.933	1455.25
578.131	1199.26
578.329	1424.53
578.527	1275.03
578.725	1272.98
578.923	1232.02
579.121	1359
579.319	1111.19
579.516	1180.82
579.714	1342.61
579.912	1193.11
580.11	1053.85
580.308	1117.34
580.506	1113.24
580.704	1008.8
580.901	1025.18
581.099	1162.39
581.297	1019.04
581.495	1037.47
581.692	1107.1
581.89	1123.48
582.088	1098.91
582.285	949.4
582.483	976.03
582.681	910.49
582.878	978.08
583.076	912.54
583.274	887.97
583.471	1113.24
583.669	912.54
583.866	777.37
584.064	826.53
584.262	730.27
584.459	834.72
584.657	941.21
584.854	951.45
585.052	859.29
585.249	883.87
585.447	859.29
585.644	664.74
585.841	844.96
586.039	824.48
586.236	885.92
586.434	756.9
586.631	679.07
586.828	717.98
587.026	715.94
587.223	685.22
587.42	660.64
587.618	744.61
587.815	781.47
588.012	705.7
588.21	664.74
588.407	756.9
588.604	668.83
588.801	697.5
588.999	666.78
589.196	646.3
589.393	603.3
589.59	650.4
589.787	621.73
589.984	634.02
590.182	537.76
590.379	533.67
590.576	521.38
590.773	552.1
590.97	593.06
591.167	599.2
591.364	615.59
591.561	617.63
591.758	744.61
591.955	668.83
592.152	588.96
592.349	541.86
592.546	576.67
592.743	513.19
592.94	605.35
593.137	572.58
593.334	625.83
593.531	625.83
593.727	689.31
593.924	584.87
594.121	666.78
594.318	634.02
594.515	619.68
594.712	732.32
594.908	615.59
595.105	507.04
595.302	636.06
595.499	709.79
595.696	779.42
595.892	572.58
596.089	756.9
596.286	687.26
596.482	742.56
596.679	709.79
596.876	711.84
597.072	838.81
597.269	738.46
597.466	781.47
597.662	738.46
597.859	847.01
598.055	763.04
598.252	928.92
598.448	971.93
598.645	990.36
598.841	1029.27
599.038	1037.47
599.234	1119.39
599.431	1150.11
599.627	1150.11
599.824	1262.74
600.02	1242.26
600.217	1213.59
600.413	1326.23
600.609	1377.43
600.806	1637.52
601.002	1428.63
601.198	1287.32
601.395	1629.33
601.591	1606.8
601.787	1625.23
601.984	1668.24
602.18	1762.45
602.376	1952.91
602.572	2071.69
602.769	2018.44
602.965	2100.36
603.161	2163.85
603.357	2319.5
603.553	2278.54
603.75	2313.35
603.946	2501.76
604.142	2624.64
604.338	2679.94
604.534	2790.53
604.73	2778.24
604.926	2839.68
605.122	3042.43
605.318	3071.1
605.514	3284.09
605.71	3128.44
605.906	3376.25
606.102	3406.97
606.298	3615.86
606.494	3791.98
606.69	3878
606.886	3910.77
607.082	3902.58
607.278	4134
607.474	4355.18
607.67	4213.87
607.866	4271.21
608.062	4748.39
608.257	4936.8
608.453	4662.37
608.649	5211.23
608.845	4944.99
609.041	5100.64
609.236	5413.98
609.432	5440.6
609.628	5721.17
609.824	5798.99
610.019	5962.83
610.215	6136.91
610.411	6349.9
610.606	6618.18
610.802	6636.61
610.998	6966.34
611.193	7117.89
611.389	7195.71
611.584	7355.45
611.78	7529.53
611.976	7842.87
612.171	8082.48
612.367	8219.69
612.562	8471.59
612.758	8711.21
612.953	8750.12
613.149	9133.09
613.344	9233.44
613.539	9335.84
613.735	9817.11
613.93	10087.44
614.126	10005.52
614.321	10486.79
614.517	10724.36
614.712	11068.42
614.907	11324.41
615.103	11840.5
615.298	11942.9
615.493	12217.33
615.688	12215.28
615.884	13300.7
616.079	13018.08
616.274	13558.75
616.47	13771.74
616.665	14054.36
616.86	14431.18
617.055	14887.88
617.25	15190.98
617.445	15750.07
617.641	15815.61
617.836	16655.28
618.031	16640.94
618.226	17290.15
618.421	17621.92
618.616	18146.2
618.811	18322.32
619.006	18983.82
619.201	18959.24
619.396	19860.35
619.591	20116.34
619.786	20384.63
619.981	20941.68
620.176	21693.28
620.371	21875.55
620.566	22238.04
620.761	23225.16
620.956	23276.36
621.151	23667.52
621.346	24523.57
621.541	24468.28
621.735	25164.59
621.93	25342.76
622.125	26045.21
622.32	26020.64
622.515	27038.48
622.709	27368.2
622.904	28160.76
623.099	28230.4
623.294	29016.82
623.488	28994.29
623.683	30139.1
623.878	30235.36
624.072	30935.76
624.267	31271.63
624.462	31789.77
624.656	32174.78
624.851	32860.85
625.046	33151.66
625.24	33628.84
625.435	34093.73
625.629	34622.11
625.824	34933.4
626.018	35377.81
626.213	35308.18
626.407	36377.22
626.602	36493.95
626.796	37343.86
626.991	37659.24
627.185	37671.53
627.38	37390.96
627.574	38161
627.768	38441.57
627.963	38304.35
628.157	38906.46
628.352	38990.42
628.546	38609.5
628.74	39021.14
628.935	38734.43
629.129	39092.82
629.323	38787.67
629.517	38883.93
629.712	38623.84
629.906	38363.75
630.1	37751.4
630.294	37540.46
630.489	37094
630.683	36913.78
630.877	35908.23
631.071	35584.65
631.265	35332.75
631.459	34554.52
631.653	33938.08
631.848	33284.78
632.042	32512.7
632.236	31982.27
632.43	30929.62
632.624	30524.12
632.818	29072.11
633.012	28392.19
633.206	27499.27
633.4	26788.63
633.594	25568.04
633.788	24832.82
633.982	24066.88
634.176	23726.91
634.369	22573.91
634.563	21631.84
634.757	20913
634.951	20339.57
635.145	19573.63
635.339	18860.94
635.533	17814.43
635.726	17304.48
635.92	16315.31
636.114	15625.15
636.308	15233.99
636.501	14521.29
636.695	13941.72
636.889	13493.21
637.083	12776.42
637.276	12358.64
637.47	11566.07
637.664	11361.28
637.857	11052.03
638.051	10408.97
638.244	9939.99
638.438	9817.11
638.632	9190.43
638.825	8801.32
639.019	8619.05
639.212	8129.58
639.406	8066.1
639.599	7640.12
639.793	7398.46
639.986	7076.93
640.18	6990.91
640.373	6509.64
640.567	6243.4
640.76	5966.93
640.954	5895.25
641.147	5524.57
641.34	5141.6
641.534	5143.64
641.727	5059.68
641.92	4832.35
642.114	4582.5
642.307	4535.4
642.5	4379.75
642.694	4037.74
642.887	4023.41
643.08	4017.26
643.273	3724.4
643.467	3470.45
643.66	3445.88
643.853	3179.64
644.046	3198.07
644.239	3048.57
644.432	2882.69
644.626	2577.54
644.819	2602.11
645.012	2606.21
645.205	2628.74
645.398	2610.31
645.591	2315.4
645.784	2192.52
645.977	2090.12
646.17	2016.4
646.363	2000.01
646.556	1842.32
646.749	1776.78
646.942	1707.15
647.135	1830.03
647.328	1590.42
647.521	1596.56
647.714	1604.75
647.907	1488.02
648.099	1465.49
648.292	1447.06
648.485	1402.01
648.678	1338.52
648.871	1160.34
649.064	1178.78
649.256	1041.56
649.449	1053.85
649.642	1004.7
649.835	949.4
650.027	1004.7
650.22	922.78
650.413	861.34
650.605	957.6
650.798	756.9
650.991	930.97
651.183	855.2
651.376	756.9
651.568	877.73
651.761	724.13
651.954	791.71
652.146	670.88
652.339	730.27
652.531	691.36
652.724	541.86
652.916	588.96
653.109	423.08
653.301	668.83
653.494	652.45
653.686	609.44
653.879	638.11
654.071	611.49
654.263	439.46
654.456	443.56
654.648	572.58
654.84	535.71
655.033	513.19
655.225	507.04
655.417	320.68
655.61	488.61
655.802	431.27
655.994	509.09
656.186	269.48
656.379	423.08
656.571	351.4
656.763	351.4
656.955	318.63
657.148	314.53
657.34	414.88
657.532	312.49
657.724	205.99
657.916	367.78
658.108	453.8
658.3	357.54
658.492	396.45
658.684	218.28
658.876	332.97
659.068	226.47
659.26	148.65
659.452	189.61
659.644	324.77
659.836	382.12
660.028	183.46
660.22	302.25
660.412	232.62
660.604	208.04
660.796	269.48
660.988	294.05
661.18	226.47
661.372	251.05
661.563	232.62
661.755	208.04
661.947	113.83
662.139	210.09
662.331	208.04
662.522	193.7
662.714	246.95
662.906	173.22
663.097	93.35
663.289	201.9
663.481	74.92
663.673	173.22
663.864	197.8
664.056	341.16
664.247	138.41
664.439	263.33
664.631	154.79
664.822	244.9
665.014	228.52
665.205	79.02
665.397	109.74
665.588	240.81
665.78	171.18
665.971	128.17
666.163	156.84
666.354	191.66
666.546	138.41
666.737	230.57
666.929	130.22
667.12	146.6
667.311	136.36
667.503	177.32
667.694	148.65
667.885	134.31
668.077	52.39
668.268	60.59
668.459	105.64
668.651	177.32
668.842	146.6
669.033	64.68
669.224	68.78
669.416	273.57
669.607	238.76
669.798	44.2
669.989	189.61
670.18	173.22
670.371	146.6
670.563	36.01
670.754	238.76
670.945	177.32
671.136	281.77
671.327	103.59
671.518	271.53
671.709	224.42
671.9	195.75
672.091	228.52
672.282	212.14
672.473	158.89
672.664	83.11
672.855	83.11
673.046	238.76
673.237	144.55
673.428	165.03
673.619	230.57
673.809	89.26
674	304.29
674.191	210.09
674.382	199.85
674.573	103.59
674.764	132.26
674.954	259.24
675.145	85.16
675.336	97.45
675.527	115.88
675.717	142.5
675.908	179.37
676.099	91.31
676.289	199.85
676.48	21.67
676.671	144.55
676.861	122.02
677.052	136.36
677.243	89.26
677.433	21.67
677.624	130.22
677.814	154.79
678.005	99.5
678.195	236.71
678.386	134.31
678.576	150.7
678.767	64.68
678.957	187.56
679.148	279.72
679.338	324.77
679.529	218.28
679.719	152.74
679.909	205.99
680.1	205.99
680.29	140.46
680.481	70.83
680.671	144.55
680.861	216.23
681.052	183.46
681.242	128.17
681.432	132.26
681.622	132.26
681.813	70.83
682.003	177.32
682.193	79.02
682.383	156.84
682.573	165.03
682.764	105.64
682.954	181.42
683.144	294.05
683.334	185.51
683.524	179.37
683.714	238.76
683.904	169.13
684.094	138.41
684.284	277.67
684.474	203.94
684.664	199.85
684.854	199.85
685.044	169.13
685.234	236.71
685.424	232.62
685.614	134.31
685.804	357.54
685.994	212.14
686.184	220.33
686.374	189.61
686.564	185.51
686.753	210.09
686.943	111.78
687.133	165.03
687.323	148.65
687.513	228.52
687.702	187.56
687.892	105.64
688.082	230.57
688.272	199.85
688.461	222.38
688.651	251.05
688.841	269.48
689.03	158.89
689.22	205.99
689.41	214.18
689.599	249
689.789	154.79
689.979	332.97
690.168	140.46
690.358	205.99
690.547	152.74
690.737	140.46
690.926	216.23
691.116	158.89
691.305	304.29
691.495	326.82
691.684	122.02
691.874	140.46
692.063	300.2
692.252	201.9
692.442	183.46
692.631	195.75
692.82	83.11
693.01	199.85
693.199	158.89
693.388	218.28
693.578	236.71
693.767	269.48
693.956	230.57
694.146	146.6
694.335	124.07
694.524	138.41
694.713	308.39
694.902	185.51
695.092	142.5
695.281	212.14
695.47	119.98
695.659	85.16
695.848	197.8
696.037	113.83
696.226	271.53
696.415	177.32
696.604	158.89
696.793	257.19
696.982	203.94
697.171	230.57
697.36	115.88
697.549	169.13
697.738	128.17
697.927	62.63
698.116	99.5
698.305	169.13
698.494	210.09
698.683	169.13
698.872	249
699.061	189.61
699.25	187.56
699.438	234.66
699.627	130.22
699.816	292.01
700.005	93.35
700.193	138.41
700.382	185.51
700.571	146.6
700.76	189.61
700.948	265.38
701.137	122.02
701.326	179.37
701.514	93.35
701.703	236.71
701.892	191.66
702.08	318.63
702.269	128.17
702.457	111.78
702.646	197.8
702.834	117.93
703.023	191.66
703.212	165.03
703.4	160.94
703.589	97.45
703.777	160.94
703.965	167.08
704.154	158.89
704.342	134.31
704.531	218.28
704.719	144.55
704.907	246.95
705.096	99.5
705.284	113.83
705.472	171.18
705.661	150.7
705.849	201.9
706.037	294.05
706.226	60.59
706.414	193.7
706.602	42.15
706.79	304.29
706.979	76.97
707.167	189.61
707.355	48.3
707.543	205.99
707.731	171.18
707.919	205.99
708.107	183.46
708.296	136.36
708.484	148.65
708.672	228.52
708.86	185.51
709.048	154.79
709.236	83.11
709.424	177.32
709.612	181.42
709.8	85.16
709.988	189.61
710.176	287.91
710.364	263.33
710.551	183.46
710.739	158.89
710.927	136.36
711.115	146.6
711.303	304.29
711.491	269.48
711.679	97.45
711.866	205.99
712.054	136.36
712.242	224.42
712.43	287.91
712.617	66.73
712.805	287.91
712.993	220.33
713.181	126.12
713.368	259.24
713.556	210.09
713.744	187.56
713.931	345.25
714.119	240.81
714.306	171.18
714.494	111.78
714.682	115.88
714.869	83.11
715.057	162.98
715.244	107.69
715.432	167.08
715.619	240.81
715.807	199.85
715.994	132.26
716.182	148.65
716.369	212.14
716.556	234.66
716.744	50.35
716.931	101.55
717.119	191.66
717.306	124.07
717.493	142.5
717.681	103.59
717.868	173.22
718.055	257.19
718.242	181.42
718.43	165.03
718.617	242.85
718.804	154.79
718.991	232.62
719.179	173.22
719.366	226.47
719.553	236.71
719.74	195.75
719.927	212.14
720.114	199.85
720.301	148.65
720.488	79.02
720.676	154.79
720.863	296.1
721.05	283.81
721.237	208.04
721.424	222.38
721.611	165.03
721.798	165.03
721.985	68.78
722.172	156.84
722.358	160.94
722.545	259.24
722.732	316.58
722.919	222.38
723.106	251.05
723.293	255.14
723.48	292.01
723.667	128.17
723.853	306.34
724.04	249
724.227	326.82
724.414	148.65
724.6	271.53
724.787	324.77
724.974	300.2
725.161	236.71
725.347	99.5
725.534	226.47
725.72	191.66
725.907	285.86
726.094	218.28
726.28	152.74
726.467	253.09
726.653	197.8
726.84	308.39
727.027	326.82
727.213	269.48
727.4	267.43
727.586	238.76
727.773	257.19
727.959	257.19
728.145	238.76
728.332	287.91
728.518	249
728.705	246.95
728.891	308.39
729.077	269.48
729.264	244.9
729.45	160.94
729.636	271.53
729.823	349.35
730.009	335.01
730.195	236.71
730.382	285.86
730.568	169.13
730.754	310.44
730.94	306.34
731.126	279.72
731.313	279.72
731.499	210.09
731.685	320.68
731.871	326.82
732.057	330.92
732.243	347.3
732.429	312.49
732.615	324.77
732.801	281.77
732.987	220.33
733.173	259.24
733.359	277.67
733.545	300.2
733.731	285.86
733.917	322.73
734.103	320.68
734.289	314.53
734.475	154.79
734.661	484.52
734.847	298.15
735.033	314.53
735.219	332.97
735.404	320.68
735.59	269.48
735.776	261.29
735.962	201.9
736.148	306.34
736.333	341.16
736.519	318.63
736.705	281.77
736.89	312.49
737.076	279.72
737.262	302.25
737.447	306.34
737.633	308.39
737.819	423.08
738.004	304.29
738.19	300.2
738.375	369.83
738.561	251.05
738.747	312.49
738.932	150.7
739.118	480.42
739.303	277.67
739.489	281.77
739.674	242.85
739.859	193.7
740.045	365.73
740.23	261.29
740.416	236.71
740.601	265.38
740.786	300.2
740.972	195.75
741.157	251.05
741.342	265.38
741.528	220.33
741.713	380.07
741.898	283.81
742.084	322.73
742.269	273.57
742.454	406.69
742.639	339.11
742.824	226.47
743.01	310.44
743.195	412.84
743.38	386.21
743.565	320.68
743.75	263.33
743.935	365.73
744.12	396.45
744.305	230.57
744.49	380.07
744.675	308.39
744.86	289.96
745.045	343.21
745.23	226.47
745.415	191.66
745.6	398.5
745.785	195.75
745.97	394.4
746.155	380.07
746.34	238.76
746.525	240.81
746.71	328.87
746.895	261.29
747.079	208.04
747.264	314.53
747.449	314.53
747.634	292.01
747.819	261.29
748.003	226.47
748.188	222.38
748.373	308.39
748.557	304.29
748.742	249
748.927	287.91
749.111	255.14
749.296	304.29
749.481	289.96
749.665	337.06
749.85	244.9
750.034	271.53
750.219	267.43
750.404	251.05
750.588	257.19
750.773	210.09
750.957	277.67
751.141	242.85
751.326	279.72
751.51	214.18
751.695	197.8
751.879	257.19
752.064	380.07
752.248	230.57
752.432	369.83
752.617	294.05
752.801	214.18
752.985	218.28
753.17	308.39
753.354	283.81
753.538	279.72
753.722	275.62
753.907	212.14
754.091	173.22
754.275	193.7
754.459	152.74
754.643	191.66
754.828	277.67
755.012	267.43
755.196	210.09
755.38	179.37
755.564	287.91
755.748	197.8
755.932	265.38
756.116	236.71
756.3	216.23
756.484	160.94
756.668	292.01
756.852	138.41
757.036	244.9
757.22	232.62
757.404	156.84
757.588	140.46
757.772	261.29
757.956	169.13
758.14	300.2
758.323	111.78
758.507	191.66
758.691	240.81
758.875	236.71
759.059	224.42
759.242	99.5
759.426	230.57
759.61	214.18
759.794	138.41
759.977	240.81
760.161	408.74
760.345	300.2
760.528	259.24
760.712	212.14
760.895	210.09
761.079	103.59
761.263	85.16
761.446	146.6
761.63	218.28
761.813	281.77
761.997	27.82
762.18	117.93
762.364	191.66
762.547	72.87
762.731	175.27
762.914	169.13
763.098	107.69
763.281	181.42
763.464	132.26
763.648	150.7
763.831	132.26
764.015	173.22
764.198	203.94
764.381	158.89
764.564	234.66
764.748	169.13
764.931	246.95
765.114	83.11
765.297	253.09
765.481	101.55
765.664	128.17
765.847	154.79
766.03	154.79
766.213	130.22
766.397	79.02
766.58	40.11
766.763	156.84
766.946	124.07
767.129	99.5
767.312	83.11
767.495	189.61
767.678	162.98
767.861	169.13
768.044	150.7
768.227	220.33
768.41	93.35
768.593	238.76
768.776	177.32
768.959	146.6
769.142	246.95
769.324	169.13
769.507	105.64
769.69	72.87
769.873	109.74
770.056	269.48
770.239	150.7
770.421	218.28
770.604	138.41
770.787	261.29
770.97	232.62
771.152	91.31
771.335	167.08
771.518	74.92
771.7	165.03
771.883	212.14
772.066	175.27
772.248	173.22
772.431	271.53
772.613	156.84
772.796	105.64
772.978	103.59
773.161	210.09
773.343	3.24
773.526	93.35
773.708	-17.24
773.891	13.48
774.073	122.02
774.256	66.73
774.438	249
774.621	52.39
774.803	185.51
774.985	83.11
775.168	150.7
775.35	115.88
775.532	173.22
775.715	50.35
775.897	113.83
776.079	89.26
776.261	140.46
776.444	66.73
776.626	148.65
776.808	85.16
776.99	-37.72
777.173	126.12
777.355	1.19
777.537	89.26
777.719	126.12
777.901	33.96
778.083	48.3
778.265	101.55
778.447	199.85
778.629	42.15
778.811	156.84
778.993	156.84
779.175	119.98
779.357	83.11
779.539	42.15
779.721	76.97
779.903	177.32
780.085	95.4
780.267	62.63
780.449	130.22
780.631	210.09
780.812	181.42
780.994	72.87
781.176	46.25
781.358	29.87
781.54	148.65
781.721	111.78
781.903	113.83
782.085	46.25
782.267	160.94
782.448	-21.33
782.63	66.73
782.812	105.64
782.993	124.07
783.175	91.31
783.357	103.59
783.538	109.74
783.72	40.11
783.901	-17.24
784.083	154.79
784.264	126.12
784.446	-15.19
784.627	-33.62
784.809	101.55
784.99	29.87
785.172	193.7
785.353	79.02
785.535	50.35
785.716	-80.72
785.897	9.39
786.079	119.98
786.26	95.4
786.441	132.26
786.623	5.29
786.804	72.87
786.985	27.82
787.167	119.98
787.348	-29.52
787.529	13.48
787.71	224.42
787.891	119.98
788.073	85.16
788.254	-11.09
788.435	167.08
788.616	11.43
788.797	3.24
788.978	-4.95
789.159	85.16
789.34	50.35
789.522	9.39
789.703	-27.48
789.884	95.4
790.065	50.35
790.246	87.21
790.427	-39.76
790.607	101.55
790.788	173.22
790.969	-4.95
791.15	54.44
791.331	-7
791.512	72.87
791.693	-13.14
791.874	1.19
792.054	230.57
792.235	68.78
792.416	15.53
792.597	5.29
792.778	42.15
792.958	62.63
793.139	38.06
793.32	50.35
793.5	-62.29
793.681	162.98
793.862	113.83
794.042	76.97
794.223	-54.1
794.404	-37.72
794.584	-80.72
794.765	126.12
794.945	68.78
795.126	87.21
795.306	54.44
795.487	105.64
795.667	66.73
795.848	117.93
796.028	36.01
796.209	132.26
796.389	40.11
796.57	33.96
796.75	38.06
796.93	46.25
797.111	1.19
797.291	-23.38
797.471	87.21
797.652	3.24
797.832	7.34
798.012	68.78
798.192	-4.95
798.373	-23.38
798.553	38.06
798.733	54.44
798.913	-43.86
799.093	42.15
799.274	-11.09
799.454	46.25
799.634	40.11
799.814	91.31
799.994	74.92
800.174	50.35
800.354	42.15
800.534	-50
800.714	99.5
800.894	-37.72
801.074	-45.91
801.254	54.44
801.434	158.89
801.614	29.87
801.794	-0.85
801.974	2008.2
802.154	29.87
802.334	72.87
802.514	-11.09
802.693	27.82
802.873	1.19
803.053	52.39
803.233	66.73
803.413	-0.85
803.592	46.25
803.772	-7
803.952	93.35
804.131	70.83
804.311	91.31
804.491	126.12
804.67	-60.24
804.85	38.06
805.03	105.64
805.209	87.21
805.389	-62.29
805.568	33.96
805.748	27.82
805.928	-0.85
806.107	117.93
806.287	1.19
806.466	54.44
806.646	38.06
806.825	-9.05
807.004	95.4
807.184	58.54
807.363	101.55
807.543	128.17
807.722	17.58
807.901	119.98
808.081	136.36
808.26	-58.2
808.439	103.59
808.619	87.21
808.798	-54.1
808.977	60.59
809.156	17.58
809.336	60.59
809.515	38.06
809.694	17.58
809.873	17.58
810.052	38.06
810.231	119.98
810.411	7.34
810.59	95.4
810.769	113.83
810.948	93.35
811.127	-129.88
811.306	25.77
811.485	-15.19
811.664	130.22
811.843	29.87
812.022	48.3
812.201	46.25
812.38	38.06
812.559	101.55
812.737	89.26
812.916	-60.24
813.095	-21.33
813.274	109.74
813.453	5.29
813.632	70.83
813.811	126.12
813.989	-78.68
814.168	70.83
814.347	-107.35
814.526	-17.24
814.704	169.13
814.883	187.56
815.062	-21.33
815.24	146.6
815.419	-29.52
815.598	-31.57
815.776	-76.63
815.955	-13.14
816.133	-56.15
816.312	58.54
816.49	3.24
816.669	76.97
816.847	-11.09
817.026	56.49
817.204	9.39
817.383	9.39
817.561	-64.34
817.74	38.06
817.918	-21.33
818.097	13.48
818.275	48.3
818.453	46.25
818.632	66.73
818.81	29.87
818.988	-19.29
819.167	-31.57
819.345	46.25
819.523	23.72
819.701	38.06
819.879	66.73
820.058	54.44
820.236	46.25
820.414	27.82
820.592	76.97
820.77	-19.29
820.948	-19.29
821.127	1.19
821.305	-13.14
821.483	-9.05
821.661	119.98
821.839	13.48
822.017	-47.96
822.195	31.91
822.373	119.98
822.551	-7
822.729	89.26
822.907	-95.06
823.085	97.45
823.262	36.01
823.44	-45.91
823.618	-66.39
823.796	-9.05
823.974	-13.14
824.152	27.82
824.329	-11.09
824.507	25.77
824.685	89.26
824.863	-64.34
825.04	85.16
825.218	95.4
825.396	25.77
825.574	50.35
825.751	13.48
825.929	117.93
826.107	-13.14
826.284	3.24
826.462	-45.91
826.639	-9.05
826.817	13.48
826.994	5.29
827.172	-84.82
827.349	177.32
827.527	36.01
827.704	50.35
827.882	72.87
828.059	-31.57
828.237	-31.57
828.414	81.07
828.591	-82.77
828.769	-19.29
828.946	-23.38
829.124	107.69
829.301	81.07
829.478	17.58
829.655	76.97
829.833	5.29
830.01	-80.72
830.187	40.11
830.364	58.54
830.542	3.24
830.719	101.55
830.896	62.63
831.073	3.24
831.25	85.16
831.427	17.58
831.604	-37.72
831.782	33.96
831.959	115.88
832.136	36.01
832.313	89.26
832.49	3.24
832.667	85.16
832.844	-15.19
833.021	146.6
833.198	17.58
833.374	21.67
833.551	113.83
833.728	33.96
833.905	60.59
834.082	-109.4
834.259	27.82
834.436	122.02
834.612	-64.34
834.789	95.4
834.966	13.48
835.143	36.01
835.319	-15.19
835.496	101.55
835.673	-4.95
835.85	-35.67
836.026	5.29
836.203	83.11
836.38	-68.44
836.556	-27.48
836.733	-45.91
836.909	193.7
837.086	-52.05
837.262	-86.87
837.439	-56.15
837.616	-54.1
837.792	42.15
837.968	29.87
838.145	-101.2
838.321	13.48
838.498	81.07
838.674	81.07
838.851	-17.24
839.027	-72.53
839.203	38.06
839.38	70.83
839.556	13.48
839.732	29.87
839.909	-43.86
840.085	97.45
840.261	-29.52
840.437	38.06
840.614	50.35
840.79	27.82
840.966	54.44
841.142	111.78
841.318	-4.95
841.494	46.25
841.671	109.74
841.847	-11.09
842.023	-84.82
842.199	103.59
842.375	81.07
842.551	-35.67
842.727	-76.63
842.903	171.18
843.079	-95.06
843.255	40.11
843.431	9.39
843.607	29.87
843.783	-131.92
843.959	50.35
844.134	-60.24
844.31	85.16
844.486	-25.43
844.662	-27.48
844.838	-54.1
845.013	31.91
845.189	83.11
845.365	54.44
845.541	95.4
845.716	-54.1
845.892	83.11
846.068	-43.86
846.244	-0.85
846.419	91.31
846.595	-72.53
846.77	-97.11
846.946	70.83
847.122	-86.87
847.297	-95.06
847.473	95.4
847.648	-33.62
847.824	87.21
847.999	-86.87
848.175	3.24
848.35	93.35
848.526	103.59
848.701	117.93
848.876	95.4
849.052	56.49
849.227	38.06
849.403	54.44
849.578	3.24
849.753	42.15
849.929	79.02
850.104	-54.1
850.279	66.73
850.454	58.54
850.63	5.29
850.805	-54.1
850.98	42.15
851.155	27.82
851.33	-33.62
851.505	-52.05
851.681	85.16
851.856	-78.68
852.031	42.15
852.206	50.35
852.381	-39.76
852.556	-19.29
852.731	25.77
852.906	113.83
853.081	-7
853.256	232.62
853.431	-2.9
853.606	1.19
853.781	72.87
853.956	-74.58
854.131	85.16
854.305	-105.3
854.48	-33.62
854.655	-0.85
854.83	7.34
855.005	-17.24
855.18	66.73
855.354	-9.05
855.529	38.06
855.704	40.11
855.879	29.87
856.053	-7
856.228	42.15
856.403	-74.58
856.577	93.35
856.752	-33.62
856.926	27.82
857.101	76.97
857.276	-54.1
857.45	31.91
857.625	72.87
857.799	66.73
857.974	76.97
858.148	-113.49
858.323	1.19
858.497	-7
858.672	-47.96
858.846	-15.19
859.02	9.39
859.195	-80.72
859.369	74.92
859.543	-52.05
859.718	-39.76
859.892	42.15
860.066	62.63
860.241	-43.86
860.415	-33.62
860.589	-2.9
860.763	62.63
860.938	-25.43
861.112	62.63
861.286	36.01
861.46	70.83
861.634	36.01
861.808	79.02
861.982	-25.43
862.157	-76.63
862.331	-23.38
862.505	-64.34
862.679	-64.34
862.853	-23.38
863.027	-23.38
863.201	87.21
863.375	-21.33
863.549	48.3
863.722	50.35
863.896	89.26
864.07	-35.67
864.244	-35.67
864.418	19.63
864.592	1.19
864.766	-47.96
864.939	-33.62
865.113	-4.95
865.287	99.5
865.461	-50
865.634	56.49
865.808	64.68
865.982	-121.68
866.156	-41.81
866.329	-76.63
866.503	60.59
866.676	83.11
866.85	1.19
867.024	33.96
867.197	19.63
867.371	105.64
867.544	48.3
867.718	-43.86
867.891	119.98
868.065	-58.2
868.238	-17.24
868.412	50.35
868.585	-80.72
868.759	-27.48
868.932	-37.72
869.105	-99.16
869.279	38.06
869.452	-72.53
869.625	5.29
869.799	-47.96
869.972	-62.29
870.145	62.63
870.319	70.83
870.492	-0.85
870.665	-15.19
870.838	-45.91
871.011	-82.77
871.185	-62.29
871.358	-2.9
871.531	21.67
871.704	-37.72
871.877	-17.24
872.05	74.92
872.223	-43.86
872.396	48.3
872.569	74.92
872.742	-21.33
872.915	11.43
873.088	72.87
873.261	-62.29
873.434	64.68
873.607	-13.14
873.78	142.5
873.953	-97.11
874.126	17.58
874.299	76.97
874.471	-45.91
874.644	-31.57
874.817	1.19
874.99	101.55
875.163	11.43
875.335	13.48
875.508	15.53
875.681	119.98
875.853	-52.05
876.026	-41.81
876.199	87.21
876.371	-15.19
876.544	42.15
876.717	48.3
876.889	15.53
877.062	-7
877.234	-105.3
877.407	31.91
877.579	50.35
877.752	17.58
877.924	38.06
878.097	9.39
878.269	42.15
878.442	-15.19
878.614	-0.85
878.786	5.29
878.959	15.53
879.131	79.02
879.303	27.82
879.476	5.29
879.648	33.96
879.82	50.35
879.993	-35.67
880.165	13.48
880.337	-84.82
880.509	21.67
880.681	-142.16
880.854	70.83
881.026	122.02
881.198	152.74
881.37	42.15
881.542	-68.44
881.714	38.06
881.886	52.39
882.058	60.59
882.23	-45.91
882.402	-33.62
882.574	-70.48
882.746	95.4
882.918	58.54
883.09	56.49
883.262	-15.19
883.434	15.53
883.606	-90.96
883.778	-21.33
883.95	79.02
884.122	-35.67
884.293	91.31
884.465	54.44
884.637	46.25
884.809	-37.72
884.98	33.96
885.152	81.07
885.324	5.29
885.496	-60.24
885.667	-54.1
885.839	-56.15
886.011	33.96
886.182	7.34
886.354	97.45
886.525	130.22
886.697	58.54
886.869	-41.81
887.04	-35.67
887.212	9.39
887.383	132.26
887.555	13.48
887.726	-33.62
887.897	-50
888.069	1.19
888.24	33.96
888.412	-0.85
888.583	-31.57
888.754	52.39
888.926	-68.44
889.097	-21.33
889.268	-64.34
889.44	25.77
889.611	-86.87
889.782	-15.19
889.953	52.39
890.125	99.5
890.296	-64.34
890.467	-54.1
890.638	25.77
890.809	64.68
890.98	-37.72
891.151	83.11
891.323	148.65
891.494	44.2
891.665	-2.9
891.836	-41.81
892.007	25.77
892.178	52.39
892.349	15.53
892.52	7.34
892.691	11.43
892.862	-43.86
893.032	-84.82
893.203	42.15
893.374	70.83
893.545	83.11
893.716	-45.91
893.887	-31.57
894.057	-80.72
894.228	-90.96
894.399	-66.39
894.57	191.66
894.74	21.67
894.911	13.48
895.082	-11.09
895.253	-21.33
895.423	111.78
895.594	42.15
895.764	83.11
895.935	-97.11
896.106	50.35
896.276	-25.43
896.447	21.67
896.617	-35.67
896.788	-47.96
896.958	-78.68
897.129	-74.58
897.299	-113.49
897.47	103.59
897.64	109.74
897.81	-4.95
897.981	50.35
898.151	42.15
898.322	40.11
898.492	79.02
898.662	-11.09
898.832	-9.05
899.003	-4.95
899.173	27.82
899.343	-33.62
899.513	29.87
