Data from USB4F104151__46__10-25-16-935.txt Node

Date: Wed Feb 26 10:25:16 EST 2025
User: louis
Spectrometer: USB4F10415
Trigger mode: 4
Integration Time (sec): 1.000000E-1
Scans to average: 1
Electric dark correction enabled: true
Nonlinearity correction enabled: false
Boxcar width: 0
XAxis mode: Wavelengths
Number of Pixels in Spectrum: 3648
>>>>>Begin Spectral Data<<<<<
178.204	-373.92
178.424	-373.92
178.644	-373.92
178.864	-433.32
179.084	-404.64
179.304	43.86
179.524	-17.58
179.744	9.05
179.964	19.29
180.184	-1.19
180.404	17.24
180.624	54.1
180.844	-7.34
181.064	-50.35
181.283	15.19
181.503	-101.55
181.723	19.29
181.943	-91.31
182.163	183.12
182.383	-9.39
182.602	62.29
182.822	84.82
183.042	129.88
183.262	-5.29
183.482	-25.77
183.701	76.63
183.921	33.62
184.141	-56.49
184.361	133.97
184.58	19.29
184.8	37.72
185.02	72.53
185.239	131.92
185.459	117.59
185.679	109.4
185.898	15.19
186.118	62.29
186.338	39.76
186.557	54.1
186.777	-50.35
186.997	17.24
187.216	72.53
187.436	164.69
187.655	68.44
187.875	56.15
188.095	56.15
188.314	84.82
188.534	189.27
188.753	-36.01
188.973	117.59
189.192	179.03
189.412	43.86
189.631	31.57
189.851	119.64
190.07	119.64
190.29	7
190.509	-25.77
190.729	2.9
190.948	254.8
191.168	285.52
191.387	76.63
191.607	78.68
191.826	121.68
192.045	0.85
192.265	35.67
192.484	136.02
192.704	27.48
192.923	-54.44
193.142	213.84
193.362	127.83
193.581	107.35
193.8	148.31
194.02	197.46
194.239	58.2
194.458	56.15
194.678	88.92
194.897	13.14
195.116	76.63
195.335	99.16
195.555	39.76
195.774	25.43
195.993	158.55
196.212	90.96
196.432	9.05
196.651	19.29
196.87	35.67
197.089	254.8
197.308	58.2
197.528	13.14
197.747	0.85
197.966	11.09
198.185	103.25
198.404	-95.4
198.623	52.05
198.842	86.87
199.062	117.59
199.281	78.68
199.5	-21.67
199.719	109.4
199.938	111.44
200.157	41.81
200.376	101.2
200.595	82.77
200.814	52.05
201.033	27.48
201.252	238.42
201.471	82.77
201.69	142.16
201.909	56.15
202.128	109.4
202.347	25.43
202.566	66.39
202.785	13.14
203.004	-7.34
203.223	174.93
203.442	74.58
203.661	-48.3
203.879	70.48
204.098	205.65
204.317	-33.96
204.536	86.87
204.755	125.78
204.974	113.49
205.193	-56.49
205.411	123.73
205.63	111.44
205.849	95.06
206.068	140.12
206.287	-81.07
206.505	275.28
206.724	111.44
206.943	-5.29
207.162	0.85
207.381	41.81
207.599	-38.06
207.818	111.44
208.037	-15.53
208.255	111.44
208.474	-17.58
208.693	93.01
208.911	19.29
209.13	109.4
209.349	70.48
209.567	125.78
209.786	86.87
210.005	123.73
210.223	54.1
210.442	-62.63
210.661	25.43
210.879	45.91
211.098	60.24
211.316	-7.34
211.535	17.24
211.753	70.48
211.972	93.01
212.191	-31.91
212.409	52.05
212.628	90.96
212.846	4.95
213.065	68.44
213.283	160.59
213.502	70.48
213.72	76.63
213.938	56.15
214.157	-11.43
214.375	127.83
214.594	0.85
214.812	60.24
215.031	17.24
215.249	90.96
215.467	45.91
215.686	39.76
215.904	150.36
216.122	76.63
216.341	84.82
216.559	58.2
216.778	88.92
216.996	125.78
217.214	-19.63
217.432	78.68
217.651	58.2
217.869	43.86
218.087	95.06
218.306	37.72
218.524	37.72
218.742	27.48
218.96	154.45
219.179	-5.29
219.397	152.4
219.615	219.99
219.833	99.16
220.051	43.86
220.27	97.11
220.488	72.53
220.706	97.11
220.924	70.48
221.142	0.85
221.36	111.44
221.578	60.24
221.796	45.91
222.015	45.91
222.233	27.48
222.451	146.26
222.669	-42.15
222.887	136.02
223.105	25.43
223.323	97.11
223.541	15.19
223.759	37.72
223.977	29.52
224.195	172.88
224.413	185.17
224.631	76.63
224.849	88.92
225.067	246.61
225.285	74.58
225.503	-56.49
225.721	-87.21
225.939	64.34
226.157	31.57
226.375	201.55
226.592	21.33
226.81	80.72
227.028	52.05
227.246	86.87
227.464	70.48
227.682	117.59
227.9	90.96
228.117	88.92
228.335	86.87
228.553	39.76
228.771	56.15
228.989	41.81
229.206	74.58
229.424	-36.01
229.642	23.38
229.86	-44.2
230.077	140.12
230.295	140.12
230.513	156.5
230.731	121.68
230.948	183.12
231.166	162.64
231.384	-52.39
231.601	17.24
231.819	113.49
232.037	25.43
232.254	-54.44
232.472	-27.82
232.689	-5.29
232.907	136.02
233.125	41.81
233.342	-15.53
233.56	39.76
233.777	-27.82
233.995	4.95
234.213	82.77
234.43	0.85
234.648	66.39
234.865	82.77
235.083	88.92
235.3	76.63
235.518	129.88
235.735	154.45
235.953	68.44
236.17	39.76
236.388	50
236.605	4.95
236.822	215.89
237.04	97.11
237.257	119.64
237.475	-33.96
237.692	13.14
237.909	52.05
238.127	72.53
238.344	58.2
238.562	80.72
238.779	-38.06
238.996	-40.11
239.214	78.68
239.431	95.06
239.648	7
239.865	50
240.083	111.44
240.3	23.38
240.517	47.96
240.735	54.1
240.952	125.78
241.169	103.25
241.386	113.49
241.603	-9.39
241.821	-52.39
242.038	138.07
242.255	160.59
242.472	-17.58
242.689	117.59
242.907	101.2
243.124	31.57
243.341	82.77
243.558	-1.19
243.775	-19.63
243.992	-62.63
244.209	99.16
244.426	203.6
244.643	37.72
244.86	41.81
245.078	107.35
245.295	99.16
245.512	41.81
245.729	13.14
245.946	33.62
246.163	103.25
246.38	4.95
246.597	47.96
246.814	-5.29
247.031	41.81
247.248	93.01
247.464	107.35
247.681	-3.24
247.898	119.64
248.115	133.97
248.332	-31.91
248.549	115.54
248.766	136.02
248.983	117.59
249.2	111.44
249.417	140.12
249.633	-13.48
249.85	43.86
250.067	35.67
250.284	39.76
250.501	72.53
250.717	66.39
250.934	-111.78
251.151	-5.29
251.368	84.82
251.585	117.59
251.801	56.15
252.018	-58.54
252.235	121.68
252.451	-66.73
252.668	13.14
252.885	156.5
253.102	45.91
253.318	-17.58
253.535	15.19
253.752	56.15
253.968	11.09
254.185	-13.48
254.401	29.52
254.618	35.67
254.835	-42.15
255.051	47.96
255.268	25.43
255.484	93.01
255.701	84.82
255.917	54.1
256.134	-36.01
256.351	58.2
256.567	-27.82
256.784	76.63
257	-46.25
257.217	84.82
257.433	60.24
257.65	37.72
257.866	125.78
258.082	-23.72
258.299	45.91
258.515	43.86
258.732	123.73
258.948	-5.29
259.165	86.87
259.381	-13.48
259.597	160.59
259.814	45.91
260.03	23.38
260.246	54.1
260.463	197.46
260.679	117.59
260.895	45.91
261.112	56.15
261.328	0.85
261.544	2.9
261.761	201.55
261.977	43.86
262.193	-7.34
262.409	133.97
262.626	88.92
262.842	13.14
263.058	-27.82
263.274	121.68
263.49	93.01
263.707	101.2
263.923	74.58
264.139	-3.24
264.355	90.96
264.571	74.58
264.787	54.1
265.004	146.26
265.22	29.52
265.436	-56.49
265.652	50
265.868	93.01
266.084	-29.87
266.3	0.85
266.516	43.86
266.732	23.38
266.948	84.82
267.164	15.19
267.38	115.54
267.596	74.58
267.812	144.21
268.028	74.58
268.244	43.86
268.46	45.91
268.676	-7.34
268.892	-1.19
269.108	31.57
269.324	47.96
269.54	17.24
269.756	54.1
269.972	-40.11
270.188	-15.53
270.403	25.43
270.619	74.58
270.835	99.16
271.051	47.96
271.267	-5.29
271.483	-31.91
271.698	43.86
271.914	95.06
272.13	31.57
272.346	64.34
272.562	136.02
272.777	125.78
272.993	13.14
273.209	17.24
273.425	50
273.64	41.81
273.856	43.86
274.072	19.29
274.287	17.24
274.503	86.87
274.719	107.35
274.934	70.48
275.15	-87.21
275.366	47.96
275.581	-62.63
275.797	33.62
276.012	84.82
276.228	-48.3
276.444	2.9
276.659	7
276.875	0.85
277.09	41.81
277.306	-48.3
277.521	37.72
277.737	146.26
277.952	58.2
278.168	111.44
278.383	2.9
278.599	93.01
278.814	125.78
279.03	-3.24
279.245	154.45
279.461	50
279.676	129.88
279.892	-91.31
280.107	-42.15
280.322	82.77
280.538	21.33
280.753	-11.43
280.969	90.96
281.184	107.35
281.399	142.16
281.615	70.48
281.83	54.1
282.045	-68.78
282.26	88.92
282.476	54.1
282.691	136.02
282.906	50
283.122	33.62
283.337	-58.54
283.552	93.01
283.767	35.67
283.983	88.92
284.198	17.24
284.413	25.43
284.628	-101.55
284.843	101.2
285.058	68.44
285.274	82.77
285.489	19.29
285.704	148.31
285.919	-9.39
286.134	-17.58
286.349	41.81
286.564	45.91
286.779	209.75
286.995	-33.96
287.21	-68.78
287.425	41.81
287.64	-9.39
287.855	52.05
288.07	0.85
288.285	117.59
288.5	105.3
288.715	158.55
288.93	50
289.145	15.19
289.36	142.16
289.575	15.19
289.79	119.64
290.004	142.16
290.219	117.59
290.434	-99.5
290.649	-25.77
290.864	13.14
291.079	19.29
291.294	47.96
291.509	52.05
291.724	27.48
291.938	-3.24
292.153	86.87
292.368	103.25
292.583	54.1
292.798	168.79
293.012	88.92
293.227	111.44
293.442	0.85
293.657	86.87
293.871	138.07
294.086	109.4
294.301	252.75
294.516	131.92
294.73	97.11
294.945	-76.97
295.16	60.24
295.374	127.83
295.589	109.4
295.804	-52.39
296.018	58.2
296.233	119.64
296.447	15.19
296.662	-25.77
296.877	80.72
297.091	156.5
297.306	37.72
297.52	17.24
297.735	19.29
297.949	47.96
298.164	64.34
298.378	64.34
298.593	31.57
298.807	-58.54
299.022	103.25
299.236	119.64
299.451	-36.01
299.665	47.96
299.88	84.82
300.094	136.02
300.309	60.24
300.523	17.24
300.737	115.54
300.952	39.76
301.166	50
301.381	-31.91
301.595	-3.24
301.809	45.91
302.024	-7.34
302.238	0.85
302.452	179.03
302.667	60.24
302.881	183.12
303.095	144.21
303.309	109.4
303.524	-60.59
303.738	70.48
303.952	54.1
304.166	-9.39
304.381	-79.02
304.595	146.26
304.809	37.72
305.023	95.06
305.237	25.43
305.452	111.44
305.666	138.07
305.88	117.59
306.094	144.21
306.308	187.22
306.522	99.16
306.736	105.3
306.95	54.1
307.164	72.53
307.379	41.81
307.593	144.21
307.807	156.5
308.021	95.06
308.235	152.4
308.449	0.85
308.663	58.2
308.877	248.66
309.091	50
309.305	39.76
309.519	-60.59
309.733	121.68
309.947	-46.25
310.161	131.92
310.374	117.59
310.588	101.2
310.802	-62.63
311.016	-27.82
311.23	4.95
311.444	-76.97
311.658	7
311.872	121.68
312.085	86.87
312.299	189.27
312.513	125.78
312.727	86.87
312.941	-156.84
313.154	0.85
313.368	41.81
313.582	33.62
313.796	45.91
314.009	41.81
314.223	123.73
314.437	68.44
314.651	164.69
314.864	-44.2
315.078	-13.48
315.292	-17.58
315.505	25.43
315.719	45.91
315.933	31.57
316.146	-60.59
316.36	-72.87
316.573	93.01
316.787	133.97
317.001	66.39
317.214	0.85
317.428	95.06
317.641	64.34
317.855	21.33
318.068	72.53
318.282	62.29
318.495	119.64
318.709	23.38
318.922	70.48
319.136	166.74
319.349	129.88
319.563	-15.53
319.776	29.52
319.99	-105.64
320.203	101.2
320.417	-7.34
320.63	66.39
320.843	174.93
321.057	78.68
321.27	62.29
321.483	136.02
321.697	123.73
321.91	172.88
322.124	86.87
322.337	76.63
322.55	-68.78
322.763	21.33
322.977	58.2
323.19	-9.39
323.403	72.53
323.617	37.72
323.83	111.44
324.043	21.33
324.256	107.35
324.469	-23.72
324.683	236.37
324.896	21.33
325.109	41.81
325.322	-9.39
325.535	58.2
325.748	111.44
325.962	56.15
326.175	70.48
326.388	105.3
326.601	111.44
326.814	13.14
327.027	60.24
327.24	164.69
327.453	-109.74
327.666	60.24
327.879	168.79
328.092	90.96
328.305	138.07
328.518	11.09
328.731	45.91
328.944	2.9
329.157	88.92
329.37	41.81
329.583	203.6
329.796	76.63
330.009	-27.82
330.222	154.45
330.435	68.44
330.648	52.05
330.861	37.72
331.073	56.15
331.286	152.4
331.499	82.77
331.712	45.91
331.925	21.33
332.138	-42.15
332.35	156.5
332.563	2.9
332.776	174.93
332.989	45.91
333.202	33.62
333.414	95.06
333.627	45.91
333.84	56.15
334.053	37.72
334.265	80.72
334.478	17.24
334.691	7
334.903	66.39
335.116	-17.58
335.329	-60.59
335.541	107.35
335.754	162.64
335.966	-64.68
336.179	31.57
336.392	58.2
336.604	76.63
336.817	160.59
337.029	105.3
337.242	136.02
337.454	84.82
337.667	-54.44
337.88	129.88
338.092	41.81
338.305	152.4
338.517	4.95
338.729	131.92
338.942	117.59
339.154	-44.2
339.367	23.38
339.579	62.29
339.792	9.05
340.004	72.53
340.217	7
340.429	144.21
340.641	-48.3
340.854	11.09
341.066	43.86
341.278	90.96
341.491	193.36
341.703	64.34
341.915	47.96
342.128	113.49
342.34	60.24
342.552	-7.34
342.764	66.39
342.977	-9.39
343.189	-40.11
343.401	54.1
343.613	-13.48
343.826	84.82
344.038	43.86
344.25	78.68
344.462	27.48
344.674	31.57
344.886	86.87
345.099	13.14
345.311	148.31
345.523	56.15
345.735	-21.67
345.947	115.54
346.159	119.64
346.371	70.48
346.583	50
346.795	226.13
347.007	52.05
347.219	33.62
347.431	45.91
347.643	121.68
347.855	41.81
348.067	142.16
348.279	-56.49
348.491	72.53
348.703	125.78
348.915	35.67
349.127	41.81
349.339	76.63
349.551	-64.68
349.763	101.2
349.975	37.72
350.187	84.82
350.399	224.08
350.61	-27.82
350.822	-19.63
351.034	39.76
351.246	125.78
351.458	27.48
351.669	105.3
351.881	74.58
352.093	45.91
352.305	183.12
352.517	70.48
352.728	205.65
352.94	33.62
353.152	45.91
353.363	-40.11
353.575	103.25
353.787	172.88
353.999	23.38
354.21	179.03
354.422	17.24
354.633	47.96
354.845	33.62
355.057	7
355.268	43.86
355.48	80.72
355.692	-5.29
355.903	66.39
356.115	-1.19
356.326	-3.24
356.538	82.77
356.749	68.44
356.961	234.32
357.172	-1.19
357.384	-21.67
357.595	181.07
357.807	56.15
358.018	17.24
358.23	45.91
358.441	95.06
358.653	82.77
358.864	13.14
359.075	-50.35
359.287	58.2
359.498	101.2
359.709	115.54
359.921	52.05
360.132	115.54
360.344	64.34
360.555	-23.72
360.766	58.2
360.977	17.24
361.189	140.12
361.4	-11.43
361.611	162.64
361.823	105.3
362.034	54.1
362.245	-70.83
362.456	-48.3
362.667	111.44
362.879	62.29
363.09	74.58
363.301	58.2
363.512	41.81
363.723	23.38
363.935	97.11
364.146	133.97
364.357	25.43
364.568	121.68
364.779	17.24
364.99	168.79
365.201	17.24
365.412	93.01
365.623	-91.31
365.834	99.16
366.045	50
366.256	72.53
366.467	125.78
366.678	72.53
366.889	74.58
367.1	19.29
367.311	138.07
367.522	-38.06
367.733	119.64
367.944	80.72
368.155	31.57
368.366	90.96
368.577	86.87
368.788	90.96
368.999	-15.53
369.209	105.3
369.42	250.71
369.631	230.23
369.842	129.88
370.053	66.39
370.264	125.78
370.474	17.24
370.685	76.63
370.896	0.85
371.107	107.35
371.317	86.87
371.528	-48.3
371.739	127.83
371.95	97.11
372.16	101.2
372.371	-17.58
372.582	-48.3
372.792	172.88
373.003	140.12
373.214	115.54
373.424	82.77
373.635	7
373.846	101.2
374.056	97.11
374.267	39.76
374.477	62.29
374.688	70.48
374.898	43.86
375.109	56.15
375.319	68.44
375.53	158.55
375.74	150.36
375.951	60.24
376.161	62.29
376.372	150.36
376.582	13.14
376.793	35.67
377.003	27.48
377.214	68.44
377.424	129.88
377.635	50
377.845	13.14
378.055	68.44
378.266	-62.63
378.476	0.85
378.686	37.72
378.897	107.35
379.107	113.49
379.317	156.5
379.528	-5.29
379.738	131.92
379.948	-31.91
380.158	107.35
380.369	4.95
380.579	66.39
380.789	33.62
380.999	107.35
381.21	117.59
381.42	230.23
381.63	29.52
381.84	156.5
382.05	82.77
382.261	80.72
382.471	133.97
382.681	115.54
382.891	199.51
383.101	23.38
383.311	2.9
383.521	-15.53
383.731	129.88
383.941	111.44
384.151	113.49
384.361	13.14
384.571	23.38
384.781	4.95
384.991	199.51
385.201	154.45
385.411	25.43
385.621	127.83
385.831	47.96
386.041	9.05
386.251	39.76
386.461	174.93
386.671	142.16
386.881	45.91
387.091	21.33
387.301	183.12
387.511	43.86
387.72	-5.29
387.93	76.63
388.14	-3.24
388.35	82.77
388.56	78.68
388.769	54.1
388.979	21.33
389.189	50
389.399	115.54
389.609	152.4
389.818	164.69
390.028	138.07
390.238	90.96
390.447	97.11
390.657	97.11
390.867	82.77
391.076	0.85
391.286	25.43
391.496	64.34
391.705	62.29
391.915	129.88
392.125	162.64
392.334	50
392.544	138.07
392.753	31.57
392.963	-113.83
393.172	86.87
393.382	54.1
393.591	273.23
393.801	78.68
394.01	164.69
394.22	103.25
394.429	29.52
394.639	66.39
394.848	47.96
395.058	111.44
395.267	9.05
395.477	138.07
395.686	170.83
395.895	228.18
396.105	232.27
396.314	144.21
396.524	107.35
396.733	37.72
396.942	176.98
397.152	101.2
397.361	70.48
397.57	86.87
397.78	115.54
397.989	88.92
398.198	181.07
398.407	31.57
398.617	29.52
398.826	70.48
399.035	-3.24
399.244	121.68
399.453	107.35
399.663	54.1
399.872	70.48
400.081	-93.35
400.29	133.97
400.499	0.85
400.708	113.49
400.917	43.86
401.127	64.34
401.336	17.24
401.545	125.78
401.754	148.31
401.963	47.96
402.172	39.76
402.381	-25.77
402.59	35.67
402.799	70.48
403.008	172.88
403.217	31.57
403.426	82.77
403.635	-19.63
403.844	-5.29
404.053	86.87
404.262	-23.72
404.471	187.22
404.68	62.29
404.888	45.91
405.097	45.91
405.306	56.15
405.515	62.29
405.724	125.78
405.933	142.16
406.142	80.72
406.35	136.02
406.559	45.91
406.768	50
406.977	148.31
407.185	99.16
407.394	80.72
407.603	-54.44
407.812	125.78
408.02	103.25
408.229	62.29
408.438	103.25
408.646	-19.63
408.855	43.86
409.064	101.2
409.272	21.33
409.481	66.39
409.69	-9.39
409.898	9.05
410.107	-1.19
410.315	107.35
410.524	11.09
410.733	68.44
410.941	58.2
411.15	76.63
411.358	84.82
411.567	80.72
411.775	-9.39
411.984	66.39
412.192	150.36
412.401	-31.91
412.609	156.5
412.818	109.4
413.026	103.25
413.234	76.63
413.443	56.15
413.651	27.48
413.86	39.76
414.068	105.3
414.276	158.55
414.485	15.19
414.693	174.93
414.901	203.6
415.11	88.92
415.318	19.29
415.526	93.01
415.734	217.94
415.943	107.35
416.151	95.06
416.359	43.86
416.567	121.68
416.776	119.64
416.984	115.54
417.192	215.89
417.4	-1.19
417.608	27.48
417.817	-1.19
418.025	127.83
418.233	144.21
418.441	4.95
418.649	13.14
418.857	99.16
419.065	185.17
419.273	19.29
419.481	93.01
419.689	-29.87
419.897	25.43
420.105	9.05
420.313	164.69
420.521	179.03
420.729	183.12
420.937	62.29
421.145	29.52
421.353	129.88
421.561	131.92
421.769	80.72
421.977	76.63
422.185	158.55
422.393	56.15
422.601	230.23
422.809	160.59
423.017	86.87
423.224	13.14
423.432	144.21
423.64	76.63
423.848	68.44
424.056	19.29
424.263	187.22
424.471	74.58
424.679	215.89
424.887	-21.67
425.094	105.3
425.302	215.89
425.51	35.67
425.718	205.65
425.925	54.1
426.133	64.34
426.341	136.02
426.548	82.77
426.756	45.91
426.964	213.84
427.171	-19.63
427.379	105.3
427.586	84.82
427.794	84.82
428.001	113.49
428.209	90.96
428.417	252.75
428.624	164.69
428.832	140.12
429.039	105.3
429.247	133.97
429.454	181.07
429.662	246.61
429.869	158.55
430.076	168.79
430.284	193.36
430.491	193.36
430.699	138.07
430.906	185.17
431.114	168.79
431.321	162.64
431.528	107.35
431.736	201.55
431.943	156.5
432.15	86.87
432.358	183.12
432.565	271.19
432.772	41.81
432.979	189.27
433.187	127.83
433.394	326.48
433.601	136.02
433.808	193.36
434.016	191.31
434.223	244.56
434.43	234.32
434.637	219.99
434.844	246.61
435.052	234.32
435.259	287.57
435.466	342.86
435.673	287.57
435.88	273.23
436.087	377.68
436.294	299.86
436.501	346.96
436.708	330.58
436.915	314.19
437.122	328.53
437.329	236.37
437.537	287.57
437.743	328.53
437.95	377.68
438.157	277.33
438.364	369.49
438.571	328.53
438.778	473.93
438.985	447.31
439.192	496.46
439.399	441.17
439.606	410.45
439.813	576.33
440.02	551.76
440.227	572.24
440.433	570.19
440.64	545.61
440.847	518.99
441.054	590.67
441.261	779.08
441.467	648.01
441.674	682.83
441.881	754.51
442.088	629.58
442.294	650.06
442.501	842.57
442.708	787.27
442.914	783.18
443.121	871.24
443.328	930.63
443.534	918.34
443.741	783.18
443.948	777.03
444.154	990.02
444.361	1119.04
444.568	1000.26
444.774	996.17
444.981	996.17
445.187	1166.15
445.394	1176.39
445.6	1102.66
445.807	1291.07
446.013	1258.31
446.22	1203.01
446.426	1479.49
446.633	1547.07
446.839	1743.67
447.046	1411.9
447.252	1645.37
447.459	1620.8
447.665	1612.6
447.871	1862.46
448.078	1876.79
448.284	1878.84
448.491	2020.15
448.697	2067.25
448.903	2235.19
449.11	2257.71
449.316	2095.93
449.522	2478.9
449.728	2415.41
449.935	2558.77
450.141	2534.19
450.347	2702.12
450.553	2618.16
450.76	2808.62
450.966	2855.72
451.172	2921.26
451.378	3179.3
451.584	3099.43
451.791	3474.21
451.997	3472.16
452.203	3468.06
452.409	3713.82
452.615	4076.31
452.821	3801.88
453.027	3777.31
453.233	4219.67
453.44	4174.61
453.646	4352.79
453.852	4477.71
454.058	4813.58
454.264	4844.3
454.47	5165.83
454.676	5282.56
454.882	5780.22
455.088	5399.3
455.294	5692.16
455.5	6165.24
455.705	6574.83
455.911	6404.85
456.117	6626.03
456.323	6908.65
456.529	6935.28
456.735	7578.34
456.941	7539.43
457.147	8000.22
457.352	8288.98
457.558	8516.31
457.764	8985.29
457.97	9286.34
458.176	9571.01
458.381	10269.37
458.587	10273.46
458.793	10906.29
458.999	10793.65
459.204	12135.07
459.41	12413.59
459.616	12239.51
459.821	13087.37
460.027	13724.29
460.233	14113.41
460.438	14262.91
460.644	14987.89
460.85	15493.74
461.055	15747.69
461.261	16609.88
461.466	15995.49
461.672	16544.34
461.878	18227.78
462.083	18416.19
462.289	18680.38
462.494	19616.3
462.7	19499.56
462.905	19747.37
463.111	21365.26
463.316	22589.95
463.522	22764.03
463.727	23890.41
463.932	24848.86
464.138	25741.77
464.343	26276.29
464.549	26587.58
464.754	28217.77
464.959	29288.85
465.165	29565.33
465.37	29473.17
465.575	29497.75
465.781	31009.15
465.986	32233.83
466.191	31654.26
466.397	32072.04
466.602	31431.03
466.807	33163.61
467.012	33810.77
467.218	34197.84
467.423	34373.96
467.628	35647.8
467.833	37394.71
468.038	36442.41
468.244	36141.36
468.449	38033.68
468.654	37036.32
468.859	36757.8
469.064	36534.57
469.269	36051.25
469.474	36360.49
469.679	37554.46
469.885	36301.1
470.09	37083.42
470.295	37290.27
470.5	36108.59
470.705	36243.76
470.91	35375.42
471.115	35049.79
471.32	35504.44
471.525	35375.42
471.73	34554.18
471.935	34361.67
472.139	32874.85
472.344	33012.06
472.549	32776.55
472.754	31910.25
472.959	31631.73
473.164	30493.06
473.369	29895.05
473.574	30931.33
473.778	30243.21
473.983	29823.37
474.188	29366.68
474.393	27691.44
474.598	27656.62
474.802	26845.63
475.007	26794.43
475.212	26153.41
475.417	25622.99
475.621	25438.67
475.826	24799.71
476.031	24052.2
476.235	24121.83
476.44	23769.58
476.645	23454.19
476.849	22931.96
477.054	22731.26
477.259	22200.83
477.463	22247.94
477.668	21586.44
477.872	21355.02
478.077	20873.75
478.282	20468.25
478.486	20089.38
478.691	19864.1
478.895	19722.79
479.1	19591.72
479.304	19696.17
479.509	18707
479.713	19028.53
479.918	18788.92
480.122	18326.08
480.326	18623.03
480.531	18633.27
480.735	18084.42
480.94	17893.96
481.144	18438.72
481.348	17474.12
481.553	17840.71
481.757	17003.09
481.961	17312.33
482.166	17480.27
482.37	17078.86
482.574	16865.88
482.778	16628.31
482.983	17062.48
483.187	16466.52
483.391	16761.43
483.595	16265.82
483.8	16087.65
484.004	16144.99
484.208	16241.25
484.412	15872.61
484.616	15710.82
484.821	15518.31
485.025	15034.99
485.229	15200.88
485.433	14787.19
485.637	14813.81
485.841	14506.62
486.045	14353.02
486.249	14350.97
486.453	13902.47
486.657	13771.4
486.861	13697.67
487.065	13087.37
487.269	13298.31
487.473	12714.64
487.677	12894.86
487.881	12909.2
488.085	12528.28
488.289	12268.19
488.493	11799.2
488.697	11866.78
488.901	11682.47
489.105	11563.68
489.309	11264.68
489.512	11029.17
489.716	11059.88
489.92	10699.44
490.124	10367.67
490.328	10402.49
490.531	10277.56
490.735	10152.63
490.939	9896.64
491.143	9663.17
491.346	9601.73
491.55	9550.53
491.754	9095.88
491.958	8927.95
492.161	8897.23
492.365	8815.31
492.569	8540.88
492.772	8579.79
492.976	8745.68
493.18	8256.22
493.383	8477.4
493.587	8274.65
493.79	8194.78
493.994	7903.96
494.197	7869.15
494.401	7727.84
494.605	7656.16
494.808	7703.26
495.012	7611.11
495.215	7570.15
495.419	7652.06
495.622	7471.84
495.825	7359.21
496.029	7422.69
496.232	7617.25
496.436	7244.52
496.639	7672.54
496.843	7400.16
497.046	7402.21
497.249	7594.72
497.453	7381.73
497.656	7373.54
497.859	7342.82
498.063	7426.79
498.266	7396.07
498.469	7400.16
498.673	7178.98
498.876	7586.53
499.079	7394.02
499.282	7414.5
499.485	7781.09
499.689	7858.91
499.892	7985.88
500.095	7611.11
500.298	7805.66
500.501	7598.82
500.705	7979.74
500.908	7946.97
501.111	7906.01
501.314	8094.43
501.517	8258.26
501.72	8309.46
501.923	8262.36
502.126	8485.59
502.329	8686.29
502.532	8762.06
502.735	8647.38
502.938	8950.48
503.141	9085.64
503.344	8958.67
503.547	9167.56
503.75	9255.62
503.953	9300.68
504.156	9409.22
504.359	9452.23
504.562	9878.21
504.765	10130.11
504.968	10040
505.17	10289.85
505.373	10224.31
505.576	10554.04
505.779	10506.93
505.982	10791.6
506.185	10932.91
506.387	11330.22
506.59	11383.46
506.793	11782.82
506.996	11770.53
507.198	12403.35
507.401	12317.34
507.604	12700.31
507.807	12984.98
508.009	12987.02
508.212	13036.17
508.415	13501.06
508.617	13703.81
508.82	13857.41
509.022	14189.18
509.225	14684.79
509.428	15047.28
509.63	15200.88
509.833	15501.93
510.035	16243.29
510.238	16196.19
510.44	16487
510.643	17195.6
510.845	17263.18
511.048	17494.6
511.25	18131.52
511.453	18498.11
511.655	19216.94
511.858	19499.56
512.06	19761.7
512.262	20292.13
512.465	20378.14
512.667	20959.77
512.87	21477.9
513.072	21871.11
513.274	22471.17
513.477	23005.69
513.679	23325.17
513.881	23796.2
514.084	24226.28
514.286	24869.34
514.488	25166.29
514.69	26126.79
514.893	26579.39
515.095	26806.72
515.297	27568.56
515.499	28211.62
515.701	28922.27
515.904	29182.36
516.106	29970.83
516.308	30497.16
516.51	30927.23
516.712	31365.49
516.914	32149.87
517.116	32821.6
517.318	33098.08
517.52	33694.04
517.722	33976.65
517.925	35240.25
518.127	35924.27
518.329	36342.06
518.531	36487.46
518.733	37261.6
518.935	38156.56
519.136	38684.94
519.338	39407.87
519.54	39758.07
519.742	40548.59
519.944	40866.02
520.146	41474.27
520.348	42275.02
520.55	42692.81
520.752	42555.6
520.954	43604.16
521.155	43477.18
521.357	44658.86
521.559	44830.89
521.761	45963.42
521.963	45875.35
522.164	46127.25
522.366	45996.18
522.568	47437.95
522.77	47046.79
522.971	48052.34
523.173	47890.55
523.375	48662.64
523.576	48197.75
523.778	48324.72
523.98	49440.87
524.181	49205.35
524.383	49123.43
524.584	49731.68
524.786	49723.49
524.988	49023.08
525.189	50118.74
525.391	49920.09
525.592	49909.85
525.794	49801.31
525.995	49860.7
526.197	49627.23
526.398	49475.68
526.6	49408.1
526.801	49373.28
527.003	49174.63
527.204	49166.44
527.406	49397.86
527.607	48762.99
527.808	48973.93
528.01	48251
528.211	48121.98
528.412	48547.95
528.614	47700.09
528.815	47423.62
529.016	47454.34
529.218	46479.5
529.419	46057.62
529.62	46049.43
529.822	45443.23
530.023	45545.63
530.224	44800.17
530.425	44275.89
530.626	43710.65
530.828	42760.39
531.029	43759.8
531.23	42215.63
531.431	42105.04
531.632	42008.79
531.833	41541.85
532.035	40730.86
532.236	40065.27
532.437	40052.98
532.638	39381.24
532.839	38844.68
533.04	38631.69
533.241	37624.09
533.442	37878.04
533.643	37157.15
533.844	36559.14
534.045	36032.82
534.246	35459.38
534.447	34990.4
534.648	34578.76
534.849	34580.81
535.05	33429.85
535.251	33517.91
535.451	32756.07
535.652	32299.37
535.853	31920.49
536.054	31828.34
536.255	31193.47
536.456	30421.38
536.657	30570.88
536.857	29716.88
537.058	29637.01
537.259	29385.11
537.46	28869.02
537.66	28365.22
537.861	28150.18
538.062	27634.1
538.263	27308.47
538.463	27068.86
538.664	26425.79
538.865	26204.61
539.065	26010.06
539.266	25448.91
539.466	25627.09
539.667	24908.25
539.868	24676.83
540.068	24506.85
540.269	24140.26
540.469	23949.8
540.67	23634.41
540.87	23296.5
541.071	22659.58
541.271	23017.97
541.472	22548.99
541.672	22485.5
541.873	22133.25
542.073	21436.94
542.274	21899.78
542.474	21535.24
542.675	21066.26
542.875	20740.63
543.075	20599.32
543.276	20242.98
543.476	20124.19
543.676	19794.47
543.877	19892.77
544.077	19561
544.277	19518
544.478	19022.39
544.678	18958.9
544.878	18512.44
545.078	18561.59
545.279	17988.16
545.479	18090.56
545.679	17689.16
545.879	17576.52
546.079	17570.38
546.28	17097.3
546.48	16878.16
546.68	17035.86
546.88	16855.64
547.08	16271.97
547.28	16167.52
547.48	15975.01
547.68	15948.39
547.88	15262.32
548.081	15542.89
548.281	15274.6
548.481	14975.6
548.681	15082.1
548.881	14862.96
549.081	14748.28
549.28	14099.07
549.48	14154.37
549.68	13886.08
549.88	13765.25
550.08	13468.3
550.28	13343.37
550.48	13456.01
550.68	13103.76
550.88	12810.9
551.08	12628.63
551.279	12524.18
551.479	12397.21
551.679	12178.08
551.879	12028.57
552.079	12071.58
552.278	11569.83
552.478	11543.21
552.678	11356.84
552.878	11248.3
553.077	11084.46
553.277	10855.09
553.477	10678.96
553.676	10461.88
553.876	10447.54
554.076	10197.69
554.275	9990.84
554.475	9757.38
554.674	9702.08
554.874	9560.77
555.074	9296.58
555.273	9450.18
555.473	9075.4
555.672	9042.64
555.872	8796.88
556.071	8833.74
556.271	8610.51
556.47	8293.08
556.67	8438.48
556.869	8229.59
557.068	8053.47
557.268	7615.2
557.467	7908.06
557.667	7754.46
557.866	7623.39
558.065	7500.51
558.265	7334.63
558.464	7160.55
558.663	7193.32
558.863	6779.63
559.062	6863.6
559.261	6666.99
559.461	6828.78
559.66	6462.19
559.859	6413.04
560.058	6275.83
560.258	6083.32
560.457	6087.42
560.656	6095.61
560.855	5876.48
561.054	6009.59
561.253	5561.09
561.453	5616.38
561.652	5569.28
561.851	5477.12
562.05	5352.2
562.249	5348.1
562.448	5294.85
562.647	5225.22
562.846	4958.99
563.045	5090.06
563.244	4913.93
563.443	4969.23
563.642	4764.43
563.841	4688.65
564.04	4637.45
564.239	4643.6
564.438	4514.58
564.637	4367.12
564.836	4418.32
565.035	4274.96
565.234	4174.61
565.432	4272.92
565.631	4191
565.83	4231.96
566.029	4004.63
566.228	4053.78
566.427	4039.45
566.625	3830.55
566.824	3838.75
567.023	3728.16
567.222	3660.57
567.42	3476.26
567.619	3588.89
567.818	3412.77
568.016	3584.8
568.215	3498.78
568.414	3412.77
568.612	3451.68
568.811	3355.43
569.01	3201.83
569.208	3232.55
569.407	3248.93
569.605	3121.96
569.804	3138.34
570.002	3144.49
570.201	2851.63
570.4	3097.38
570.598	2845.48
570.797	2853.67
570.995	2716.46
571.193	2863.91
571.392	2767.66
571.59	2743.08
571.789	2745.13
571.987	2730.8
572.186	2679.6
572.384	2626.35
572.582	2634.54
572.781	2579.25
572.979	2331.44
573.177	2388.78
573.376	2413.36
573.574	2446.13
573.772	2315.06
573.971	2243.38
574.169	2161.46
574.367	2169.65
574.565	2136.88
574.763	2204.47
574.962	2112.31
575.16	2124.6
575.358	1897.27
575.556	1977.14
575.754	1956.66
575.952	1938.23
576.151	2126.64
576.349	1911.61
576.547	1807.16
576.745	1899.32
576.943	1862.46
577.141	1807.16
577.339	1647.42
577.537	1676.09
577.735	1745.72
577.933	1743.67
578.131	1516.35
578.329	1676.09
578.527	1557.31
578.725	1663.8
578.923	1420.1
579.121	1555.26
579.319	1403.71
579.516	1424.19
579.714	1715
579.912	1446.72
580.11	1327.94
580.308	1442.62
580.506	1387.33
580.704	1219.39
580.901	1239.87
581.099	1387.33
581.297	1301.31
581.495	1352.51
581.692	1147.72
581.89	1323.84
582.088	1241.92
582.285	1219.39
582.483	1188.68
582.681	1110.85
582.878	1092.42
583.076	1194.82
583.274	1100.61
583.471	1246.02
583.669	1117
583.866	1061.7
584.064	1088.32
584.262	1000.26
584.459	963.4
584.657	1108.8
584.854	1082.18
585.052	1135.43
585.249	949.06
585.447	1051.46
585.644	940.87
585.841	998.21
586.039	969.54
586.236	979.78
586.434	871.24
586.631	854.86
586.828	793.42
587.026	885.58
587.223	789.32
587.42	842.57
587.618	811.85
587.815	793.42
588.012	740.17
588.21	746.31
588.407	791.37
588.604	846.66
588.801	774.99
588.999	807.75
589.196	858.95
589.393	754.51
589.59	760.65
589.787	721.74
589.984	758.6
590.182	770.89
590.379	699.21
590.576	645.96
590.773	684.87
590.97	617.29
591.167	754.51
591.364	686.92
591.561	674.64
591.758	901.96
591.955	756.55
592.152	734.03
592.349	742.22
592.546	631.63
592.743	623.44
592.94	699.21
593.137	686.92
593.334	842.57
593.531	725.83
593.727	787.27
593.924	756.55
594.121	670.54
594.318	674.64
594.515	809.8
594.712	783.18
594.908	910.15
595.105	566.09
595.302	754.51
595.499	861
595.696	801.61
595.892	740.17
596.089	869.19
596.286	721.74
596.482	940.87
596.679	828.23
596.876	785.23
597.072	973.64
597.269	910.15
597.466	977.73
597.662	783.18
597.859	973.64
598.055	957.25
598.252	1037.13
598.448	1065.8
598.645	1104.71
598.841	1117
599.038	1172.29
599.234	1278.79
599.431	1205.06
599.627	1241.92
599.824	1319.75
600.02	1354.56
600.217	1407.81
600.413	1512.25
600.609	1616.7
600.806	1864.5
601.002	1717.05
601.198	1674.04
601.395	1852.22
601.591	1971
601.787	1913.66
601.984	2075.45
602.18	2130.74
602.376	2089.78
602.572	2335.54
602.769	2327.35
602.965	2464.56
603.161	2632.49
603.357	2601.77
603.553	2792.23
603.75	2786.09
603.946	2919.21
604.142	2868.01
604.338	3076.9
604.534	3156.77
604.73	3187.49
604.926	3271.46
605.122	3560.22
605.318	3537.7
605.514	3742.49
605.71	3732.25
605.906	3973.91
606.102	4012.82
606.298	4100.89
606.494	4307.73
606.69	4287.25
606.886	4541.2
607.082	4655.89
607.278	4784.91
607.474	4866.83
607.67	5063.43
607.866	5026.57
608.062	5470.98
608.257	5706.49
608.453	5542.66
608.649	5690.11
608.845	5790.46
609.041	6077.18
609.236	6251.25
609.432	6351.6
609.628	6675.18
609.824	6742.77
610.019	6845.16
610.215	7095.02
610.411	7396.07
610.606	7658.21
610.802	7746.27
610.998	7906.01
611.193	8315.61
611.389	8303.32
611.584	8510.16
611.78	8624.85
611.976	8880.85
612.171	9446.09
612.367	9351.88
612.562	9683.65
612.758	9910.97
612.953	9927.36
613.149	10502.84
613.344	10547.89
613.539	11106.99
613.735	11408.04
613.93	11737.76
614.126	11934.37
614.321	12321.43
614.517	12704.4
614.712	12870.29
614.907	13189.77
615.103	13625.99
615.298	13570.69
615.493	14412.41
615.688	14326.39
615.884	15264.36
616.079	15149.68
616.274	15762.02
616.47	15841.89
616.665	16339.55
616.86	16714.33
617.055	17257.04
617.25	17523.27
617.445	18367.04
617.641	18459.2
617.836	19266.1
618.031	19305.01
618.226	20251.17
618.421	20439.58
618.616	21164.56
618.811	21340.69
619.006	22172.16
619.201	21991.94
619.396	23009.78
619.591	23554.54
619.786	24134.12
619.981	24314.34
620.176	25285.08
620.371	24961.5
620.566	25866.7
620.761	26214.85
620.956	27163.06
621.151	27322.8
621.346	27980.2
621.541	28250.53
621.735	29497.75
621.93	29448.6
622.125	30163.34
622.32	30468.48
622.515	31369.59
622.709	31844.72
622.904	32289.13
623.099	32772.45
623.294	33485.14
623.488	34087.25
623.683	35033.41
623.878	34779.46
624.072	35680.56
624.267	36360.49
624.462	36835.62
624.656	37058.85
624.851	38043.92
625.046	38639.88
625.24	39053.57
625.435	39325.95
625.629	40356.08
625.824	40411.37
626.018	41130.21
626.213	40976.61
626.407	41949.4
626.602	41785.56
626.796	42862.79
626.991	43706.55
627.185	43706.55
627.38	43628.73
627.574	44339.38
627.768	44038.33
627.963	44306.61
628.157	44861.61
628.352	45213.86
628.546	44193.97
628.74	45768.86
628.935	44933.29
629.129	45320.35
629.323	44650.67
629.517	44366
629.712	44501.17
629.906	44173.49
630.1	43299.01
630.294	43276.48
630.489	42957
630.683	42653.9
630.877	41609.43
631.071	41144.55
631.265	40552.68
631.459	39778.55
631.653	39049.47
631.848	38035.73
632.042	37314.84
632.236	36403.5
632.43	35414.33
632.624	34617.67
632.818	33601.88
633.012	32412.01
633.206	31523.19
633.4	30437.76
633.594	29354.39
633.788	28776.86
633.982	27931.05
634.176	26827.2
634.369	25663.95
634.563	24906.2
634.757	23738.86
634.951	23179.76
635.145	22266.37
635.339	21252.63
635.533	20222.5
635.726	19509.8
635.92	18700.86
636.114	17953.35
636.308	17359.44
636.501	16892.5
636.695	16317.02
636.889	15254.12
637.083	14455.42
637.276	13947.52
637.47	13232.78
637.664	13218.44
637.857	12296.86
638.051	12233.37
638.244	11598.5
638.438	10959.53
638.632	10562.23
638.825	10062.52
639.019	9824.96
639.212	9327.3
639.406	9067.21
639.599	8667.86
639.793	8407.77
639.986	7975.64
640.18	7807.71
640.373	7547.62
640.567	7123.69
640.76	6957.8
640.954	6607.6
641.147	6226.68
641.34	5982.97
641.534	5903.1
641.727	5800.7
641.92	5501.7
642.114	5217.03
642.307	5053.19
642.5	4928.27
642.694	4584.21
642.887	4543.25
643.08	4440.85
643.273	4350.74
643.467	4045.59
643.66	3863.32
643.853	3740.44
644.046	3756.83
644.239	3529.5
644.432	3222.31
644.626	3021.61
644.819	3103.53
645.012	3015.46
645.205	2859.82
645.398	2829.1
645.591	2636.59
645.784	2460.46
645.977	2407.22
646.17	2396.98
646.363	2310.96
646.556	2075.45
646.749	1966.9
646.942	1985.34
647.135	1899.32
647.328	1891.13
647.521	1833.79
647.714	1737.53
647.907	1798.97
648.099	1596.22
648.292	1633.08
648.485	1450.82
648.678	1301.31
648.871	1268.55
649.064	1311.55
649.256	1188.68
649.449	1262.4
649.642	1049.41
649.835	1108.8
650.027	1041.22
650.22	1207.11
650.413	1039.17
650.605	1010.5
650.798	897.86
650.991	899.91
651.183	889.67
651.376	813.9
651.568	908.1
651.761	832.33
651.954	869.19
652.146	703.31
652.339	768.84
652.531	795.47
652.724	697.16
652.916	623.44
653.109	586.57
653.301	670.54
653.494	666.44
653.686	566.09
653.879	693.07
654.071	664.4
654.263	539.47
654.456	441.17
654.648	609.1
654.84	490.32
655.033	443.21
655.225	539.47
655.417	400.21
655.61	566.09
655.802	498.51
655.994	525.13
656.186	375.63
656.379	514.89
656.571	398.16
656.763	373.58
656.955	361.3
657.148	334.67
657.34	469.84
657.532	344.91
657.724	346.96
657.916	379.73
658.108	488.27
658.3	365.39
658.492	310.1
658.684	285.52
658.876	351.06
659.068	252.75
659.26	234.32
659.452	224.08
659.644	346.96
659.836	402.26
660.028	336.72
660.22	189.27
660.412	271.19
660.604	256.85
660.796	310.1
660.988	314.19
661.18	297.81
661.372	295.76
661.563	226.13
661.755	254.8
661.947	201.55
662.139	131.92
662.331	195.41
662.522	285.52
662.714	93.01
662.906	101.2
663.097	226.13
663.289	226.13
663.481	64.34
663.673	213.84
663.864	140.12
664.056	219.99
664.247	133.97
664.439	269.14
664.631	176.98
664.822	258.9
665.014	217.94
665.205	68.44
665.397	183.12
665.588	213.84
665.78	189.27
665.971	133.97
666.163	187.22
666.354	158.55
666.546	168.79
666.737	123.73
666.929	115.54
667.12	109.4
667.311	185.17
667.503	72.53
667.694	187.22
667.885	183.12
668.077	189.27
668.268	111.44
668.459	162.64
668.651	240.47
668.842	136.02
669.033	70.48
669.224	13.14
669.416	314.19
669.607	152.4
669.798	115.54
669.989	191.31
670.18	123.73
670.371	125.78
670.563	72.53
670.754	310.1
670.945	179.03
671.136	226.13
671.327	86.87
671.518	336.72
671.709	217.94
671.9	156.5
672.091	199.51
672.282	131.92
672.473	160.59
672.664	119.64
672.855	156.5
673.046	181.07
673.237	248.66
673.428	160.59
673.619	219.99
673.809	101.2
674	213.84
674.191	183.12
674.382	162.64
674.573	207.7
674.764	138.07
674.954	207.7
675.145	78.68
675.336	101.2
675.527	70.48
675.717	101.2
675.908	72.53
676.099	162.64
676.289	183.12
676.48	2.9
676.671	109.4
676.861	152.4
677.052	207.7
677.243	60.24
677.433	193.36
677.624	191.31
677.814	158.55
678.005	74.58
678.195	236.37
678.386	88.92
678.576	209.75
678.767	115.54
678.957	136.02
679.148	219.99
679.338	246.61
679.529	254.8
679.719	222.03
679.909	226.13
680.1	215.89
680.29	258.9
680.481	144.21
680.671	287.57
680.861	224.08
681.052	219.99
681.242	11.09
681.432	289.62
681.622	201.55
681.813	133.97
682.003	222.03
682.193	90.96
682.383	201.55
682.573	250.71
682.764	211.79
682.954	162.64
683.144	262.99
683.334	121.68
683.524	209.75
683.714	140.12
683.904	260.95
684.094	201.55
684.284	209.75
684.474	336.72
684.664	224.08
684.854	146.26
685.044	226.13
685.234	129.88
685.424	256.85
685.614	166.74
685.804	357.2
685.994	234.32
686.184	152.4
686.374	283.47
686.564	262.99
686.753	242.51
686.943	207.7
687.133	117.59
687.323	158.55
687.513	279.38
687.702	215.89
687.892	181.07
688.082	375.63
688.272	301.9
688.461	199.51
688.651	394.06
688.841	222.03
689.03	150.36
689.22	226.13
689.41	332.62
689.599	258.9
689.789	174.93
689.979	308.05
690.168	234.32
690.358	328.53
690.547	179.03
690.737	267.09
690.926	215.89
691.116	283.47
691.305	312.14
691.495	217.94
691.684	174.93
691.874	203.6
692.063	299.86
692.252	250.71
692.442	219.99
692.631	203.6
692.82	215.89
693.01	250.71
693.199	164.69
693.388	156.5
693.578	193.36
693.767	222.03
693.956	195.41
694.146	172.88
694.335	265.04
694.524	211.79
694.713	213.84
694.902	203.6
695.092	195.41
695.281	160.59
695.47	168.79
695.659	205.65
695.848	244.56
696.037	160.59
696.226	281.43
696.415	164.69
696.604	248.66
696.793	269.14
696.982	215.89
697.171	283.47
697.36	160.59
697.549	197.46
697.738	74.58
697.927	168.79
698.116	156.5
698.305	195.41
698.494	250.71
698.683	252.75
698.872	209.75
699.061	176.98
699.25	193.36
699.438	213.84
699.627	164.69
699.816	330.58
700.005	115.54
700.193	66.39
700.382	240.47
700.571	246.61
700.76	197.46
700.948	269.14
701.137	281.43
701.326	215.89
701.514	146.26
701.703	162.64
701.892	189.27
702.08	314.19
702.269	179.03
702.457	140.12
702.646	228.18
702.834	215.89
703.023	250.71
703.212	209.75
703.4	136.02
703.589	168.79
703.777	154.45
703.965	174.93
704.154	140.12
704.342	140.12
704.531	119.64
704.719	199.51
704.907	271.19
705.096	168.79
705.284	111.44
705.472	207.7
705.661	197.46
705.849	250.71
706.037	330.58
706.226	140.12
706.414	174.93
706.602	148.31
706.79	168.79
706.979	207.7
707.167	224.08
707.355	39.76
707.543	203.6
707.731	199.51
707.919	185.17
708.107	183.12
708.296	172.88
708.484	117.59
708.672	254.8
708.86	181.07
709.048	236.37
709.236	160.59
709.424	293.71
709.612	97.11
709.8	78.68
709.988	195.41
710.176	226.13
710.364	299.86
710.551	289.62
710.739	105.3
710.927	183.12
711.115	179.03
711.303	279.38
711.491	224.08
711.679	176.98
711.866	244.56
712.054	234.32
712.242	152.4
712.43	248.66
712.617	176.98
712.805	238.42
712.993	174.93
713.181	70.48
713.368	193.36
713.556	185.17
713.744	181.07
713.931	349.01
714.119	197.46
714.306	193.36
714.494	201.55
714.682	207.7
714.869	148.31
715.057	168.79
715.244	148.31
715.432	242.51
715.619	160.59
715.807	195.41
715.994	140.12
716.182	174.93
716.369	328.53
716.556	238.42
716.744	105.3
716.931	197.46
717.119	289.62
717.306	211.79
717.493	308.05
717.681	131.92
717.868	226.13
718.055	244.56
718.242	211.79
718.43	246.61
718.617	365.39
718.804	174.93
718.991	330.58
719.179	312.14
719.366	287.57
719.553	193.36
719.74	203.6
719.927	209.75
720.114	279.38
720.301	174.93
720.488	168.79
720.676	226.13
720.863	408.4
721.05	324.43
721.237	314.19
721.424	238.42
721.611	365.39
721.798	164.69
721.985	158.55
722.172	209.75
722.358	312.14
722.545	277.33
722.732	228.18
722.919	338.77
723.106	222.03
723.293	205.65
723.48	240.47
723.667	195.41
723.853	373.58
724.04	338.77
724.227	336.72
724.414	236.37
724.6	338.77
724.787	418.64
724.974	383.82
725.161	248.66
725.347	277.33
725.534	236.37
725.72	262.99
725.907	279.38
726.094	334.67
726.28	217.94
726.467	301.9
726.653	248.66
726.84	420.69
727.027	418.64
727.213	271.19
727.4	367.44
727.586	328.53
727.773	355.15
727.959	234.32
728.145	234.32
728.332	209.75
728.518	260.95
728.705	342.86
728.891	254.8
729.077	170.83
729.264	238.42
729.45	269.14
729.636	426.83
729.823	314.19
730.009	346.96
730.195	289.62
730.382	340.82
730.568	226.13
730.754	316.24
730.94	262.99
731.126	334.67
731.313	328.53
731.499	269.14
731.685	349.01
731.871	365.39
732.057	297.81
732.243	396.11
732.429	236.37
732.615	443.21
732.801	357.2
732.987	279.38
733.173	326.48
733.359	287.57
733.545	336.72
733.731	324.43
733.917	432.97
734.103	346.96
734.289	359.25
734.475	301.9
734.661	486.22
734.847	187.22
735.033	289.62
735.219	381.78
735.404	306
735.59	379.73
735.776	281.43
735.962	297.81
736.148	394.06
736.333	387.92
736.519	330.58
736.705	365.39
736.89	326.48
737.076	314.19
737.262	275.28
737.447	310.1
737.633	291.66
737.819	361.3
738.004	377.68
738.19	377.68
738.375	289.62
738.561	504.65
738.747	330.58
738.932	295.76
739.118	484.17
739.303	355.15
739.489	414.54
739.674	361.3
739.859	279.38
740.045	332.62
740.23	375.63
740.416	285.52
740.601	283.47
740.786	338.77
740.972	338.77
741.157	275.28
741.342	279.38
741.528	254.8
741.713	398.16
741.898	277.33
742.084	293.71
742.269	271.19
742.454	408.4
742.639	406.35
742.824	316.24
743.01	346.96
743.195	420.69
743.38	361.3
743.565	281.43
743.75	365.39
743.935	406.35
744.12	353.1
744.305	287.57
744.49	312.14
744.675	293.71
744.86	328.53
745.045	334.67
745.23	316.24
745.415	285.52
745.6	514.89
745.785	289.62
745.97	361.3
746.155	353.1
746.34	385.87
746.525	389.97
746.71	418.64
746.895	205.65
747.079	285.52
747.264	336.72
747.449	375.63
747.634	453.45
747.819	322.38
748.003	279.38
748.188	164.69
748.373	396.11
748.557	371.54
748.742	306
748.927	361.3
749.111	353.1
749.296	267.09
749.481	279.38
749.665	287.57
749.85	314.19
750.034	340.82
750.219	320.34
750.404	265.04
750.588	349.01
750.773	230.23
750.957	258.9
751.141	248.66
751.326	328.53
751.51	183.12
751.695	262.99
751.879	303.95
752.064	412.5
752.248	179.03
752.432	373.58
752.617	338.77
752.801	219.99
752.985	273.23
753.17	351.06
753.354	373.58
753.538	236.37
753.722	275.28
753.907	179.03
754.091	250.71
754.275	279.38
754.459	201.55
754.643	185.17
754.828	234.32
755.012	271.19
755.196	217.94
755.38	203.6
755.564	123.73
755.748	144.21
755.932	332.62
756.116	258.9
756.3	240.47
756.484	267.09
756.668	277.33
756.852	90.96
757.036	203.6
757.22	176.98
757.404	117.59
757.588	105.3
757.772	217.94
757.956	193.36
758.14	262.99
758.323	45.91
758.507	254.8
758.691	166.74
758.875	273.23
759.059	355.15
759.242	115.54
759.426	189.27
759.61	211.79
759.794	191.31
759.977	357.2
760.161	381.78
760.345	291.66
760.528	346.96
760.712	234.32
760.895	236.37
761.079	181.07
761.263	119.64
761.446	140.12
761.63	215.89
761.813	248.66
761.997	64.34
762.18	152.4
762.364	287.57
762.547	115.54
762.731	187.22
762.914	148.31
763.098	144.21
763.281	160.59
763.464	176.98
763.648	301.9
763.831	162.64
764.015	162.64
764.198	252.75
764.381	119.64
764.564	125.78
764.748	144.21
764.931	201.55
765.114	113.49
765.297	236.37
765.481	142.16
765.664	179.03
765.847	244.56
766.03	281.43
766.213	144.21
766.397	185.17
766.58	62.29
766.763	265.04
766.946	115.54
767.129	117.59
767.312	50
767.495	127.83
767.678	76.63
767.861	205.65
768.044	197.46
768.227	166.74
768.41	164.69
768.593	119.64
768.776	183.12
768.959	72.53
769.142	281.43
769.324	125.78
769.507	144.21
769.69	142.16
769.873	123.73
770.056	322.38
770.239	138.07
770.421	283.47
770.604	174.93
770.787	154.45
770.97	170.83
771.152	72.53
771.335	185.17
771.518	39.76
771.7	144.21
771.883	234.32
772.066	64.34
772.248	181.07
772.431	146.26
772.613	211.79
772.796	138.07
772.978	140.12
773.161	205.65
773.343	136.02
773.526	164.69
773.708	-23.72
773.891	37.72
774.073	-5.29
774.256	93.01
774.438	203.6
774.621	0.85
774.803	217.94
774.985	107.35
775.168	103.25
775.35	60.24
775.532	172.88
775.715	127.83
775.897	219.99
776.079	99.16
776.261	176.98
776.444	117.59
776.626	109.4
776.808	15.19
776.99	-9.39
777.173	107.35
777.355	133.97
777.537	60.24
777.719	148.31
777.901	19.29
778.083	107.35
778.265	33.62
778.447	88.92
778.629	76.63
778.811	146.26
778.993	119.64
779.175	103.25
779.357	82.77
779.539	-11.43
779.721	54.1
779.903	62.29
780.085	13.14
780.267	88.92
780.449	72.53
780.631	117.59
780.812	154.45
780.994	109.4
781.176	52.05
781.358	56.15
781.54	78.68
781.721	123.73
781.903	170.83
782.085	17.24
782.267	105.3
782.448	-36.01
782.63	74.58
782.812	47.96
782.993	113.49
783.175	119.64
783.357	99.16
783.538	93.01
783.72	-17.58
783.901	93.01
784.083	142.16
784.264	136.02
784.446	-25.77
784.627	-17.58
784.809	140.12
784.99	4.95
785.172	82.77
785.353	107.35
785.535	127.83
785.716	-48.3
785.897	-40.11
786.079	107.35
786.26	70.48
786.441	148.31
786.623	-56.49
786.804	88.92
786.985	25.43
787.167	113.49
787.348	109.4
787.529	56.15
787.71	209.75
787.891	84.82
788.073	62.29
788.254	17.24
788.435	152.4
788.616	113.49
788.797	-31.91
788.978	25.43
789.159	25.43
789.34	33.62
789.522	66.39
789.703	70.48
789.884	88.92
790.065	90.96
790.246	236.37
790.427	60.24
790.607	176.98
790.788	80.72
790.969	25.43
791.15	50
791.331	9.05
791.512	-52.39
791.693	19.29
791.874	31.57
792.054	172.88
792.235	133.97
792.416	56.15
792.597	-66.73
792.778	62.29
792.958	88.92
793.139	138.07
793.32	64.34
793.5	-60.59
793.681	181.07
793.862	131.92
794.042	13.14
794.223	-31.91
794.404	62.29
794.584	-3.24
794.765	70.48
794.945	43.86
795.126	129.88
795.306	84.82
795.487	25.43
795.667	45.91
795.848	66.39
796.028	105.3
796.209	74.58
796.389	52.05
796.57	70.48
796.75	-46.25
796.93	54.1
797.111	2.9
797.291	50
797.471	66.39
797.652	72.53
797.832	-19.63
798.012	148.31
798.192	-3.24
798.373	-81.07
798.553	47.96
798.733	133.97
798.913	0.85
799.093	25.43
799.274	52.05
799.454	33.62
799.634	154.45
799.814	117.59
799.994	142.16
800.174	107.35
800.354	29.52
800.534	-42.15
800.714	54.1
800.894	-68.78
801.074	2.9
801.254	64.34
801.434	125.78
801.614	-70.83
801.794	-54.44
801.974	1608.51
802.154	11.09
802.334	68.44
802.514	-3.24
802.693	80.72
802.873	2.9
803.053	140.12
803.233	84.82
803.413	-11.43
803.592	-11.43
803.772	31.57
803.952	76.63
804.131	-111.78
804.311	166.74
804.491	78.68
804.67	-23.72
804.85	-74.92
805.03	60.24
805.209	64.34
805.389	74.58
805.568	9.05
805.748	9.05
805.928	31.57
806.107	74.58
806.287	84.82
806.466	176.98
806.646	-19.63
806.825	70.48
807.004	0.85
807.184	58.2
807.363	47.96
807.543	103.25
807.722	29.52
807.901	4.95
808.081	74.58
808.26	-97.45
808.439	17.24
808.619	9.05
808.798	-68.78
808.977	70.48
809.156	97.11
809.336	-19.63
809.515	113.49
809.694	-25.77
809.873	-36.01
810.052	-17.58
810.231	152.4
810.411	29.52
810.59	105.3
810.769	39.76
810.948	60.24
811.127	-109.74
811.306	-52.39
811.485	-17.58
811.664	185.17
811.843	33.62
812.022	4.95
812.201	52.05
812.38	68.44
812.559	-46.25
812.737	23.38
812.916	-126.12
813.095	-11.43
813.274	4.95
813.453	74.58
813.632	9.05
813.811	191.31
813.989	-68.78
814.168	74.58
814.347	-13.48
814.526	9.05
814.704	213.84
814.883	80.72
815.062	-54.44
815.24	-1.19
815.419	27.48
815.598	99.16
815.776	-70.83
815.955	72.53
816.133	-146.6
816.312	58.2
816.49	-50.35
816.669	-36.01
816.847	9.05
817.026	0.85
817.204	2.9
817.383	72.53
817.561	-11.43
817.74	23.38
817.918	47.96
818.097	-23.72
818.275	-31.91
818.453	29.52
818.632	154.45
818.81	2.9
818.988	-42.15
819.167	-7.34
819.345	90.96
819.523	-95.4
819.701	-7.34
819.879	70.48
820.058	54.1
820.236	-21.67
820.414	7
820.592	-15.53
820.77	0.85
820.948	-29.87
821.127	-36.01
821.305	-29.87
821.483	58.2
821.661	76.63
821.839	56.15
822.017	21.33
822.195	-19.63
822.373	90.96
822.551	43.86
822.729	58.2
822.907	58.2
823.085	47.96
823.262	-15.53
823.44	7
823.618	41.81
823.796	-15.53
823.974	-33.96
824.152	-42.15
824.329	76.63
824.507	62.29
824.685	131.92
824.863	7
825.04	35.67
825.218	68.44
825.396	13.14
825.574	-7.34
825.751	39.76
825.929	35.67
826.107	-33.96
826.284	-17.58
826.462	37.72
826.639	-29.87
826.817	-11.43
826.994	68.44
827.172	-130.22
827.349	181.07
827.527	70.48
827.704	-46.25
827.882	97.11
828.059	21.33
828.237	-50.35
828.414	84.82
828.591	-124.07
828.769	45.91
828.946	-89.26
829.124	142.16
829.301	103.25
829.478	-56.49
829.655	45.91
829.833	45.91
830.01	-64.68
830.187	115.54
830.364	39.76
830.542	-9.39
830.719	47.96
830.896	95.06
831.073	23.38
831.25	0.85
831.427	-9.39
831.604	43.86
831.782	-68.78
831.959	45.91
832.136	-66.73
832.313	41.81
832.49	29.52
832.667	-21.67
832.844	-21.67
833.021	52.05
833.198	-7.34
833.374	-7.34
833.551	-62.63
833.728	-25.77
833.905	47.96
834.082	-117.93
834.259	35.67
834.436	52.05
834.612	-60.59
834.789	74.58
834.966	-19.63
835.143	29.52
835.319	-31.91
835.496	127.83
835.673	62.29
835.85	105.3
836.026	82.77
836.203	93.01
836.38	41.81
836.556	45.91
836.733	-19.63
836.909	160.59
837.086	-15.53
837.262	-87.21
837.439	52.05
837.616	-31.91
837.792	4.95
837.968	-5.29
838.145	-64.68
838.321	7
838.498	15.19
838.674	43.86
838.851	-3.24
839.027	17.24
839.203	-52.39
839.38	4.95
839.556	-27.82
839.732	15.19
839.909	23.38
840.085	54.1
840.261	-58.54
840.437	-91.31
840.614	-5.29
840.79	121.68
840.966	93.01
841.142	2.9
841.318	43.86
841.494	19.29
841.671	140.12
841.847	-38.06
842.023	31.57
842.199	117.59
842.375	80.72
842.551	-42.15
842.727	-23.72
842.903	86.87
843.079	-27.82
843.255	50
843.431	-23.72
843.607	43.86
843.783	-130.22
843.959	43.86
844.134	64.34
844.31	174.93
844.486	-38.06
844.662	-79.02
844.838	35.67
845.013	-5.29
845.189	111.44
845.365	56.15
845.541	54.1
845.716	-27.82
845.892	101.2
846.068	-91.31
846.244	-7.34
846.419	-23.72
846.595	-27.82
846.77	-66.73
846.946	121.68
847.122	9.05
847.297	-7.34
847.473	117.59
847.648	-117.93
847.824	131.92
847.999	-132.26
848.175	-72.87
848.35	88.92
848.526	41.81
848.701	88.92
848.876	43.86
849.052	80.72
849.227	19.29
849.403	-21.67
849.578	-25.77
849.753	-23.72
849.929	54.1
850.104	-60.59
850.279	17.24
850.454	-1.19
850.63	82.77
850.805	72.53
850.98	45.91
851.155	13.14
851.33	-7.34
851.505	-15.53
851.681	70.48
851.856	-68.78
852.031	78.68
852.206	-33.96
852.381	-66.73
852.556	-62.63
852.731	52.05
852.906	66.39
853.081	64.34
853.256	74.58
853.431	-11.43
853.606	-48.3
853.781	-95.4
853.956	-101.55
854.131	-19.63
854.305	-70.83
854.48	-103.59
854.655	39.76
854.83	-81.07
855.005	-9.39
855.18	41.81
855.354	15.19
855.529	43.86
855.704	29.52
855.879	-9.39
856.053	-91.31
856.228	23.38
856.403	-52.39
856.577	72.53
856.752	-52.39
856.926	-62.63
857.101	21.33
857.276	-60.59
857.45	31.57
857.625	74.58
857.799	-7.34
857.974	15.19
858.148	-93.35
858.323	68.44
858.497	-70.83
858.672	-38.06
858.846	-99.5
859.02	99.16
859.195	-52.39
859.369	13.14
859.543	9.05
859.718	23.38
859.892	76.63
860.066	109.4
860.241	13.14
860.415	-3.24
860.589	11.09
860.763	-21.67
860.938	-7.34
861.112	19.29
861.286	-17.58
861.46	27.48
861.634	-13.48
861.808	84.82
861.982	-33.96
862.157	-93.35
862.331	-62.63
862.505	-76.97
862.679	-134.31
862.853	-52.39
863.027	-56.49
863.201	64.34
863.375	-17.58
863.549	95.06
863.722	35.67
863.896	84.82
864.07	-40.11
864.244	-66.73
864.418	60.24
864.592	-42.15
864.766	-1.19
864.939	117.59
865.113	-36.01
865.287	86.87
865.461	-21.67
865.634	31.57
865.808	-21.67
865.982	13.14
866.156	-66.73
866.329	-31.91
866.503	11.09
866.676	52.05
866.85	17.24
867.024	-66.73
867.197	17.24
867.371	76.63
867.544	-40.11
867.718	-83.11
867.891	136.02
868.065	-58.54
868.238	-3.24
868.412	76.63
868.585	-19.63
868.759	-54.44
868.932	2.9
869.105	-79.02
869.279	27.48
869.452	-15.53
869.625	56.15
869.799	-5.29
869.972	-3.24
870.145	-91.31
870.319	146.26
870.492	29.52
870.665	-58.54
870.838	-97.45
871.011	-105.64
871.185	-27.82
871.358	-38.06
871.531	54.1
871.704	-85.16
871.877	43.86
872.05	56.15
872.223	-81.07
872.396	-15.53
872.569	74.58
872.742	-79.02
872.915	-15.53
873.088	11.09
873.261	-13.48
873.434	4.95
873.607	4.95
873.78	68.44
873.953	-74.92
874.126	27.48
874.299	62.29
874.471	0.85
874.644	-89.26
874.817	50
874.99	117.59
875.163	-29.87
875.335	45.91
875.508	-27.82
875.681	50
875.853	15.19
876.026	-89.26
876.199	37.72
876.371	-101.55
876.544	29.52
876.717	-81.07
876.889	-48.3
877.062	-52.39
877.234	-29.87
877.407	-85.16
877.579	68.44
877.752	-58.54
877.924	11.09
878.097	50
878.269	-23.72
878.442	2.9
878.614	54.1
878.786	58.2
878.959	88.92
879.131	11.09
879.303	-48.3
879.476	-1.19
879.648	84.82
879.82	-9.39
879.993	-7.34
880.165	9.05
880.337	-154.79
880.509	80.72
880.681	-46.25
880.854	-60.59
881.026	-7.34
881.198	107.35
881.37	60.24
881.542	-7.34
881.714	-27.82
881.886	-25.77
882.058	17.24
882.23	-42.15
882.402	-23.72
882.574	103.25
882.746	123.73
882.918	99.16
883.09	7
883.262	-31.91
883.434	37.72
883.606	-122.02
883.778	-36.01
883.95	101.2
884.122	21.33
884.293	105.3
884.465	-54.44
884.637	52.05
884.809	4.95
884.98	88.92
885.152	52.05
885.324	54.1
885.496	19.29
885.667	-76.97
885.839	-58.54
886.011	86.87
886.182	70.48
886.354	25.43
886.525	-15.53
886.697	-1.19
886.869	31.57
887.04	9.05
887.212	45.91
887.383	138.07
887.555	25.43
887.726	27.48
887.897	-62.63
888.069	-46.25
888.24	43.86
888.412	66.39
888.583	39.76
888.754	-48.3
888.926	-62.63
889.097	21.33
889.268	-107.69
889.44	17.24
889.611	-134.31
889.782	-68.78
889.953	-95.4
890.125	43.86
890.296	-36.01
890.467	31.57
890.638	33.62
890.809	15.19
890.98	11.09
891.151	-7.34
891.323	56.15
891.494	37.72
891.665	60.24
891.836	-42.15
892.007	-7.34
892.178	74.58
892.349	39.76
892.52	-87.21
892.691	84.82
892.862	-29.87
893.032	-42.15
893.203	-19.63
893.374	0.85
893.545	35.67
893.716	15.19
893.887	60.24
894.057	41.81
894.228	-9.39
894.399	-56.49
894.57	142.16
894.74	-13.48
894.911	29.52
895.082	-64.68
895.253	-48.3
895.423	47.96
895.594	39.76
895.764	60.24
895.935	-89.26
896.106	-46.25
896.276	-7.34
896.447	2.9
896.617	-85.16
896.788	-56.49
896.958	-50.35
897.129	-46.25
897.299	7
897.47	99.16
897.64	17.24
897.81	-62.63
897.981	-52.39
898.151	-58.54
898.322	43.86
898.492	17.24
898.662	-76.97
898.832	-56.49
899.003	35.67
899.173	21.33
899.343	-3.24
899.513	-81.07
