Data from USB4F104151__25__10-24-02-043.txt Node

Date: Wed Feb 26 10:24:02 EST 2025
User: louis
Spectrometer: USB4F10415
Trigger mode: 4
Integration Time (sec): 1.000000E-1
Scans to average: 1
Electric dark correction enabled: true
Nonlinearity correction enabled: false
Boxcar width: 0
XAxis mode: Wavelengths
Number of Pixels in Spectrum: 3648
>>>>>Begin Spectral Data<<<<<
178.204	-431.95
178.424	-431.95
178.644	-431.95
178.864	-470.86
179.084	-452.43
179.304	-59.22
179.524	-12.12
179.744	94.38
179.964	59.56
180.184	-5.97
180.404	49.32
180.624	14.51
180.844	-24.4
181.064	-63.32
181.283	-3.93
181.503	-63.32
181.723	14.51
181.943	-53.08
182.163	170.15
182.383	65.71
182.602	43.18
182.822	135.34
183.042	34.99
183.262	0.17
183.482	49.32
183.701	6.31
183.921	12.46
184.141	-42.84
184.361	63.66
184.58	73.9
184.8	14.51
185.02	-96.08
185.239	104.62
185.459	116.9
185.679	92.33
185.898	-65.36
186.118	55.47
186.338	16.55
186.557	80.04
186.777	-26.45
186.997	-14.17
187.216	26.79
187.436	184.49
187.655	77.99
187.875	90.28
188.095	14.51
188.314	32.94
188.534	127.14
188.753	-1.88
188.973	110.76
189.192	172.2
189.412	4.27
189.631	-42.84
189.851	71.85
190.07	94.38
190.29	-32.6
190.509	-16.21
190.729	53.42
190.948	198.82
191.168	295.08
191.387	69.8
191.607	-22.36
191.826	26.79
192.045	51.37
192.265	24.75
192.484	-22.36
192.704	67.75
192.923	-3.93
193.142	123.05
193.362	34.99
193.581	135.34
193.8	71.85
194.02	102.57
194.239	16.55
194.458	32.94
194.678	59.56
194.897	71.85
195.116	20.65
195.335	34.99
195.555	-16.21
195.774	16.55
195.993	121
196.212	12.46
196.432	0.17
196.651	57.51
196.87	71.85
197.089	252.07
197.308	-3.93
197.528	102.57
197.747	-104.28
197.966	12.46
198.185	145.58
198.404	-16.21
198.623	61.61
198.842	176.3
199.062	32.94
199.281	98.47
199.5	26.79
199.719	94.38
199.938	22.7
200.157	106.67
200.376	104.62
200.595	194.73
200.814	59.56
201.033	-24.4
201.252	215.21
201.471	59.56
201.69	41.13
201.909	43.18
202.128	59.56
202.347	-26.45
202.566	-36.69
202.785	-79.7
203.004	-18.26
203.223	202.92
203.442	43.18
203.661	-34.64
203.879	114.86
204.098	149.67
204.317	-75.6
204.536	80.04
204.755	149.67
204.974	41.13
205.193	37.03
205.411	235.69
205.63	137.38
205.849	112.81
206.068	63.66
206.287	-1.88
206.505	118.95
206.724	55.47
206.943	-30.55
207.162	30.89
207.381	63.66
207.599	55.47
207.818	4.27
208.037	-79.7
208.255	18.6
208.474	-36.69
208.693	84.14
208.911	-5.97
209.13	73.9
209.349	121
209.567	98.47
209.786	51.37
210.005	170.15
210.223	43.18
210.442	-147.28
210.661	6.31
210.879	32.94
211.098	51.37
211.316	4.27
211.535	131.24
211.753	82.09
211.972	2.22
212.191	-28.5
212.409	104.62
212.628	161.96
212.846	-1.88
213.065	-12.12
213.283	112.81
213.502	10.41
213.72	-16.21
213.938	6.31
214.157	-40.79
214.375	106.67
214.594	-10.07
214.812	67.75
215.031	96.43
215.249	65.71
215.467	67.75
215.686	61.61
215.904	67.75
216.122	75.95
216.341	84.14
216.559	106.67
216.778	110.76
216.996	96.43
217.214	-108.37
217.432	37.03
217.651	-112.47
217.869	121
218.087	63.66
218.306	55.47
218.524	30.89
218.742	82.09
218.96	90.28
219.179	-18.26
219.397	26.79
219.615	268.45
219.833	131.24
220.051	-46.93
220.27	63.66
220.488	155.82
220.706	63.66
220.924	-81.75
221.142	10.41
221.36	49.32
221.578	6.31
221.796	45.23
222.015	102.57
222.233	77.99
222.451	100.52
222.669	30.89
222.887	55.47
223.105	4.27
223.323	96.43
223.541	0.17
223.759	80.04
223.977	65.71
224.195	170.15
224.413	67.75
224.631	34.99
224.849	32.94
225.067	170.15
225.285	-12.12
225.503	-3.93
225.721	-51.03
225.939	-26.45
226.157	55.47
226.375	252.07
226.592	20.65
226.81	43.18
227.028	161.96
227.246	129.19
227.464	16.55
227.682	24.75
227.9	133.29
228.117	4.27
228.335	90.28
228.553	26.79
228.771	28.84
228.989	32.94
229.206	112.81
229.424	-61.27
229.642	10.41
229.86	-24.4
230.077	176.3
230.295	37.03
230.513	116.9
230.731	8.36
230.948	108.71
231.166	229.54
231.384	24.75
231.601	34.99
231.819	221.35
232.037	16.55
232.254	-32.6
232.472	90.28
232.689	-57.17
232.907	116.9
233.125	-10.07
233.342	-22.36
233.56	-22.36
233.777	63.66
233.995	26.79
234.213	96.43
234.43	104.62
234.648	45.23
234.865	18.6
235.083	51.37
235.3	-16.21
235.518	98.47
235.735	131.24
235.953	34.99
236.17	43.18
236.388	4.27
236.605	47.27
236.822	104.62
237.04	118.95
237.257	65.71
237.475	-61.27
237.692	39.08
237.909	55.47
238.127	-46.93
238.344	39.08
238.562	49.32
238.779	6.31
238.996	2.22
239.214	12.46
239.431	133.29
239.648	45.23
239.865	57.51
240.083	-18.26
240.3	26.79
240.517	82.09
240.735	55.47
240.952	80.04
241.169	80.04
241.386	106.67
241.603	30.89
241.821	6.31
242.038	116.9
242.255	215.21
242.472	-12.12
242.689	28.84
242.907	104.62
243.124	2.22
243.341	53.42
243.558	0.17
243.775	-69.46
243.992	-20.31
244.209	69.8
244.426	161.96
244.643	39.08
244.86	30.89
245.078	116.9
245.295	10.41
245.512	22.7
245.729	26.79
245.946	98.47
246.163	65.71
246.38	-14.17
246.597	-38.74
246.814	39.08
247.031	88.23
247.248	86.19
247.464	67.75
247.681	55.47
247.898	55.47
248.115	22.7
248.332	16.55
248.549	118.95
248.766	190.63
248.983	147.62
249.2	41.13
249.417	75.95
249.633	-5.97
249.85	20.65
250.067	49.32
250.284	41.13
250.501	14.51
250.717	88.23
250.934	34.99
251.151	-30.55
251.368	45.23
251.585	2.22
251.801	98.47
252.018	14.51
252.235	30.89
252.451	-42.84
252.668	0.17
252.885	86.19
253.102	30.89
253.318	26.79
253.535	-28.5
253.752	-28.5
253.968	37.03
254.185	12.46
254.401	123.05
254.618	41.13
254.835	-40.79
255.051	184.49
255.268	96.43
255.484	133.29
255.701	24.75
255.917	57.51
256.134	47.27
256.351	67.75
256.567	-42.84
256.784	-18.26
257	-71.51
257.217	82.09
257.433	100.52
257.65	39.08
257.866	98.47
258.082	-38.74
258.299	-59.22
258.515	59.56
258.732	41.13
258.948	-46.93
259.165	80.04
259.381	-8.02
259.597	100.52
259.814	37.03
260.03	-22.36
260.246	51.37
260.463	84.14
260.679	143.53
260.895	80.04
261.112	-20.31
261.328	16.55
261.544	-8.02
261.761	88.23
261.977	-28.5
262.193	-63.32
262.409	88.23
262.626	75.95
262.842	61.61
263.058	-63.32
263.274	137.38
263.49	47.27
263.707	123.05
263.923	18.6
264.139	-55.12
264.355	26.79
264.571	94.38
264.787	67.75
265.004	92.33
265.22	63.66
265.436	-3.93
265.652	-1.88
265.868	77.99
266.084	-34.64
266.3	63.66
266.516	-18.26
266.732	170.15
266.948	84.14
267.164	57.51
267.38	32.94
267.596	14.51
267.812	149.67
268.028	18.6
268.244	-10.07
268.46	71.85
268.676	24.75
268.892	65.71
269.108	32.94
269.324	24.75
269.54	-24.4
269.756	88.23
269.972	-14.17
270.188	-28.5
270.403	28.84
270.619	-12.12
270.835	129.19
271.051	-12.12
271.267	12.46
271.483	-28.5
271.698	53.42
271.914	22.7
272.13	43.18
272.346	28.84
272.562	49.32
272.777	139.43
272.993	49.32
273.209	43.18
273.425	145.58
273.64	2.22
273.856	110.76
274.072	-110.42
274.287	-1.88
274.503	100.52
274.719	88.23
274.934	-22.36
275.15	-106.32
275.366	-38.74
275.581	-18.26
275.797	8.36
276.012	4.27
276.228	26.79
276.444	22.7
276.659	75.95
276.875	22.7
277.09	53.42
277.306	51.37
277.521	116.9
277.737	20.65
277.952	86.19
278.168	82.09
278.383	16.55
278.599	86.19
278.814	143.53
279.03	8.36
279.245	121
279.461	26.79
279.676	88.23
279.892	-34.64
280.107	-53.08
280.322	6.31
280.538	106.67
280.753	-55.12
280.969	80.04
281.184	102.57
281.399	207.02
281.615	26.79
281.83	43.18
282.045	-1.88
282.26	-32.6
282.476	116.9
282.691	98.47
282.906	61.61
283.122	55.47
283.337	-94.04
283.552	106.67
283.767	-16.21
283.983	110.76
284.198	96.43
284.413	32.94
284.628	-38.74
284.843	-51.03
285.058	88.23
285.274	-24.4
285.489	-51.03
285.704	100.52
285.919	10.41
286.134	51.37
286.349	-14.17
286.564	10.41
286.779	145.58
286.995	-1.88
287.21	-12.12
287.425	61.61
287.64	-16.21
287.855	30.89
288.07	-85.84
288.285	73.9
288.5	86.19
288.715	108.71
288.93	-18.26
289.145	-38.74
289.36	37.03
289.575	43.18
289.79	92.33
290.004	-118.61
290.219	49.32
290.434	37.03
290.649	-20.31
290.864	67.75
291.079	22.7
291.294	96.43
291.509	-32.6
291.724	41.13
291.938	-34.64
292.153	82.09
292.368	-5.97
292.583	96.43
292.798	92.33
293.012	61.61
293.227	26.79
293.442	28.84
293.657	77.99
293.871	106.67
294.086	49.32
294.301	141.48
294.516	10.41
294.73	-65.36
294.945	-73.56
295.16	153.77
295.374	121
295.589	49.32
295.804	20.65
296.018	63.66
296.233	61.61
296.447	16.55
296.662	55.47
296.877	77.99
297.091	145.58
297.306	14.51
297.52	-12.12
297.735	47.27
297.949	133.29
298.164	39.08
298.378	45.23
298.593	12.46
298.807	-34.64
299.022	57.51
299.236	90.28
299.451	20.65
299.665	53.42
299.88	53.42
300.094	55.47
300.309	59.56
300.523	57.51
300.737	43.18
300.952	67.75
301.166	55.47
301.381	-26.45
301.595	-3.93
301.809	90.28
302.024	-32.6
302.238	-53.08
302.452	102.57
302.667	127.14
302.881	131.24
303.095	82.09
303.309	28.84
303.524	59.56
303.738	63.66
303.952	-69.46
304.166	75.95
304.381	-85.84
304.595	149.67
304.809	-3.93
305.023	41.13
305.237	-16.21
305.452	22.7
305.666	159.91
305.88	141.48
306.094	127.14
306.308	61.61
306.522	86.19
306.736	116.9
306.95	116.9
307.164	6.31
307.379	24.75
307.593	170.15
307.807	73.9
308.021	67.75
308.235	71.85
308.449	-10.07
308.663	53.42
308.877	166.06
309.091	41.13
309.305	147.62
309.519	-40.79
309.733	104.62
309.947	-24.4
310.161	88.23
310.374	110.76
310.588	86.19
310.802	-10.07
311.016	-20.31
311.23	112.81
311.444	-57.17
311.658	6.31
311.872	178.34
312.085	121
312.299	164.01
312.513	96.43
312.727	59.56
312.941	-40.79
313.154	43.18
313.368	-16.21
313.582	90.28
313.796	155.82
314.009	43.18
314.223	24.75
314.437	34.99
314.651	-16.21
314.864	65.71
315.078	59.56
315.292	-53.08
315.505	45.23
315.719	41.13
315.933	145.58
316.146	4.27
316.36	-32.6
316.573	114.86
316.787	137.38
317.001	14.51
317.214	-10.07
317.428	65.71
317.641	-30.55
317.855	-16.21
318.068	96.43
318.282	121
318.495	211.11
318.709	164.01
318.922	-10.07
319.136	135.34
319.349	172.2
319.563	10.41
319.776	67.75
319.99	-149.33
320.203	106.67
320.417	49.32
320.63	69.8
320.843	190.63
321.057	57.51
321.27	6.31
321.483	34.99
321.697	186.54
321.91	73.9
322.124	30.89
322.337	39.08
322.55	53.42
322.763	12.46
322.977	34.99
323.19	53.42
323.403	43.18
323.617	-20.31
323.83	139.43
324.043	32.94
324.256	47.27
324.469	-81.75
324.683	213.16
324.896	71.85
325.109	82.09
325.322	-46.93
325.535	108.71
325.748	114.86
325.962	-5.97
326.175	47.27
326.388	67.75
326.601	123.05
326.814	18.6
327.027	65.71
327.24	219.3
327.453	-126.8
327.666	65.71
327.879	98.47
328.092	153.77
328.305	80.04
328.518	30.89
328.731	57.51
328.944	59.56
329.157	61.61
329.37	0.17
329.583	127.14
329.796	77.99
330.009	10.41
330.222	77.99
330.435	123.05
330.648	123.05
330.861	41.13
331.073	92.33
331.286	55.47
331.499	51.37
331.712	-5.97
331.925	104.62
332.138	37.03
332.35	129.19
332.563	-5.97
332.776	96.43
332.989	-1.88
333.202	-26.45
333.414	65.71
333.627	-3.93
333.84	-22.36
334.053	90.28
334.265	-51.03
334.478	39.08
334.691	-30.55
334.903	53.42
335.116	61.61
335.329	16.55
335.541	61.61
335.754	209.06
335.966	-10.07
336.179	8.36
336.392	73.9
336.604	57.51
336.817	178.34
337.029	-14.17
337.242	39.08
337.454	80.04
337.667	16.55
337.88	153.77
338.092	127.14
338.305	90.28
338.517	-22.36
338.729	145.58
338.942	159.91
339.154	-42.84
339.367	61.61
339.579	22.7
339.792	-34.64
340.004	147.62
340.217	90.28
340.429	45.23
340.641	-69.46
340.854	-5.97
341.066	39.08
341.278	94.38
341.491	151.72
341.703	88.23
341.915	53.42
342.128	137.38
342.34	90.28
342.552	-22.36
342.764	30.89
342.977	22.7
343.189	6.31
343.401	98.47
343.613	4.27
343.826	24.75
344.038	4.27
344.25	55.47
344.462	10.41
344.674	57.51
344.886	24.75
345.099	28.84
345.311	39.08
345.523	14.51
345.735	-87.89
345.947	-8.02
346.159	37.03
346.371	16.55
346.583	57.51
346.795	151.72
347.007	-65.36
347.219	92.33
347.431	0.17
347.643	88.23
347.855	51.37
348.067	139.43
348.279	-10.07
348.491	22.7
348.703	100.52
348.915	4.27
349.127	-3.93
349.339	12.46
349.551	28.84
349.763	65.71
349.975	51.37
350.187	110.76
350.399	137.38
350.61	73.9
350.822	18.6
351.034	34.99
351.246	20.65
351.458	88.23
351.669	53.42
351.881	-3.93
352.093	104.62
352.305	108.71
352.517	114.86
352.728	127.14
352.94	96.43
353.152	14.51
353.363	-26.45
353.575	106.67
353.787	198.82
353.999	96.43
354.21	174.25
354.422	-14.17
354.633	63.66
354.845	37.03
355.057	30.89
355.268	34.99
355.48	125.1
355.692	-65.36
355.903	-12.12
356.115	-20.31
356.326	-89.94
356.538	143.53
356.749	41.13
356.961	131.24
357.172	51.37
357.384	8.36
357.595	157.86
357.807	20.65
358.018	22.7
358.23	41.13
358.441	211.11
358.653	73.9
358.864	-8.02
359.075	-59.22
359.287	82.09
359.498	82.09
359.709	39.08
359.921	28.84
360.132	125.1
360.344	20.65
360.555	-46.93
360.766	75.95
360.977	-24.4
361.189	141.48
361.4	10.41
361.611	125.1
361.823	116.9
362.034	57.51
362.245	22.7
362.456	98.47
362.667	121
362.879	-61.27
363.09	63.66
363.301	65.71
363.512	22.7
363.723	0.17
363.935	39.08
364.146	18.6
364.357	45.23
364.568	77.99
364.779	16.55
364.99	96.43
365.201	6.31
365.412	88.23
365.623	-59.22
365.834	77.99
366.045	86.19
366.256	30.89
366.467	69.8
366.678	59.56
366.889	26.79
367.1	-8.02
367.311	123.05
367.522	12.46
367.733	102.57
367.944	47.27
368.155	-42.84
368.366	47.27
368.577	176.3
368.788	106.67
368.999	-8.02
369.209	63.66
369.42	202.92
369.631	141.48
369.842	28.84
370.053	20.65
370.264	59.56
370.474	-40.79
370.685	110.76
370.896	32.94
371.107	129.19
371.317	112.81
371.528	-42.84
371.739	137.38
371.95	106.67
372.16	145.58
372.371	-22.36
372.582	-1.88
372.792	51.37
373.003	39.08
373.214	-46.93
373.424	49.32
373.635	-8.02
373.846	172.2
374.056	57.51
374.267	-26.45
374.477	73.9
374.688	-38.74
374.898	86.19
375.109	125.1
375.319	2.22
375.53	41.13
375.74	135.34
375.951	20.65
376.161	61.61
376.372	166.06
376.582	10.41
376.793	51.37
377.003	-32.6
377.214	30.89
377.424	90.28
377.635	-10.07
377.845	8.36
378.055	178.34
378.266	-73.56
378.476	-77.65
378.686	71.85
378.897	77.99
379.107	55.47
379.317	69.8
379.528	-14.17
379.738	92.33
379.948	16.55
380.158	139.43
380.369	45.23
380.579	82.09
380.789	80.04
380.999	61.61
381.21	32.94
381.42	213.16
381.63	-48.98
381.84	202.92
382.05	59.56
382.261	137.38
382.471	133.29
382.681	12.46
382.891	100.52
383.101	47.27
383.311	63.66
383.521	6.31
383.731	82.09
383.941	123.05
384.151	127.14
384.361	51.37
384.571	28.84
384.781	67.75
384.991	155.82
385.201	237.74
385.411	129.19
385.621	55.47
385.831	80.04
386.041	110.76
386.251	41.13
386.461	94.38
386.671	96.43
386.881	110.76
387.091	65.71
387.301	184.49
387.511	67.75
387.72	-36.69
387.93	53.42
388.14	-59.22
388.35	26.79
388.56	131.24
388.769	24.75
388.979	55.47
389.189	-30.55
389.399	10.41
389.609	16.55
389.818	53.42
390.028	-10.07
390.238	45.23
390.447	86.19
390.657	55.47
390.867	-40.79
391.076	-108.37
391.286	51.37
391.496	18.6
391.705	75.95
391.915	90.28
392.125	168.1
392.334	18.6
392.544	166.06
392.753	96.43
392.963	-16.21
393.172	6.31
393.382	-16.21
393.591	151.72
393.801	90.28
394.01	157.86
394.22	45.23
394.429	43.18
394.639	41.13
394.848	20.65
395.058	80.04
395.267	-30.55
395.477	82.09
395.686	-14.17
395.895	182.44
396.105	178.34
396.314	82.09
396.524	57.51
396.733	34.99
396.942	80.04
397.152	47.27
397.361	129.19
397.57	30.89
397.78	63.66
397.989	61.61
398.198	141.48
398.407	-83.8
398.617	65.71
398.826	47.27
399.035	53.42
399.244	116.9
399.453	94.38
399.663	84.14
399.872	143.53
400.081	-61.27
400.29	94.38
400.499	-51.03
400.708	82.09
400.917	94.38
401.127	6.31
401.336	-53.08
401.545	139.43
401.754	118.95
401.963	141.48
402.172	75.95
402.381	-3.93
402.59	16.55
402.799	-38.74
403.008	100.52
403.217	121
403.426	59.56
403.635	12.46
403.844	75.95
404.053	39.08
404.262	18.6
404.471	143.53
404.68	139.43
404.888	59.56
405.097	-32.6
405.306	112.81
405.515	80.04
405.724	-5.97
405.933	100.52
406.142	59.56
406.35	94.38
406.559	-10.07
406.768	75.95
406.977	116.9
407.185	104.62
407.394	75.95
407.603	26.79
407.812	34.99
408.02	135.34
408.229	41.13
408.438	55.47
408.646	-59.22
408.855	53.42
409.064	63.66
409.272	24.75
409.481	98.47
409.69	-12.12
409.898	-42.84
410.107	41.13
410.315	176.3
410.524	18.6
410.733	129.19
410.941	8.36
411.15	104.62
411.358	51.37
411.567	63.66
411.775	43.18
411.984	86.19
412.192	55.47
412.401	71.85
412.609	133.29
412.818	55.47
413.026	51.37
413.234	20.65
413.443	67.75
413.651	12.46
413.86	0.17
414.068	155.82
414.276	151.72
414.485	24.75
414.693	116.9
414.901	114.86
415.11	63.66
415.318	77.99
415.526	92.33
415.734	131.24
415.943	73.9
416.151	202.92
416.359	24.75
416.567	28.84
416.776	90.28
416.984	82.09
417.192	86.19
417.4	34.99
417.608	51.37
417.817	-46.93
418.025	106.67
418.233	176.3
418.441	-3.93
418.649	-32.6
418.857	59.56
419.065	213.16
419.273	65.71
419.481	-10.07
419.689	86.19
419.897	84.14
420.105	-18.26
420.313	190.63
420.521	118.95
420.729	184.49
420.937	84.14
421.145	63.66
421.353	30.89
421.561	118.95
421.769	73.9
421.977	18.6
422.185	127.14
422.393	96.43
422.601	211.11
422.809	43.18
423.017	37.03
423.224	75.95
423.432	137.38
423.64	30.89
423.848	116.9
424.056	-16.21
424.263	166.06
424.471	18.6
424.679	184.49
424.887	10.41
425.094	137.38
425.302	53.42
425.51	45.23
425.718	141.48
425.925	45.23
426.133	-16.21
426.341	227.5
426.548	12.46
426.756	45.23
426.964	75.95
427.171	-12.12
427.379	96.43
427.586	114.86
427.794	71.85
428.001	114.86
428.209	55.47
428.417	149.67
428.624	217.26
428.832	149.67
429.039	96.43
429.247	96.43
429.454	106.67
429.662	235.69
429.869	71.85
430.076	73.9
430.284	118.95
430.491	227.5
430.699	229.54
430.906	301.22
431.114	100.52
431.321	100.52
431.528	88.23
431.736	106.67
431.943	176.3
432.15	135.34
432.358	170.15
432.565	215.21
432.772	-5.97
432.979	102.57
433.187	200.87
433.394	223.4
433.601	98.47
433.808	168.1
434.016	237.74
434.223	137.38
434.43	204.97
434.637	215.21
434.844	170.15
435.052	225.45
435.259	282.79
435.466	299.17
435.673	266.41
435.88	317.61
436.087	329.89
436.294	264.36
436.501	274.6
436.708	241.83
436.915	258.21
437.122	366.76
437.329	278.69
437.537	311.46
437.743	346.28
437.95	456.87
438.157	297.13
438.364	358.57
438.571	364.71
438.778	309.41
438.985	415.91
439.192	465.06
439.399	237.74
439.606	403.62
439.813	522.4
440.02	585.89
440.227	632.99
440.433	524.45
440.64	501.92
440.847	454.82
441.054	596.13
441.261	647.33
441.467	491.68
441.674	514.21
441.881	534.69
442.088	501.92
442.294	716.96
442.501	743.58
442.708	712.86
442.914	714.91
443.121	774.3
443.328	872.61
443.534	991.39
443.741	776.35
443.948	669.86
444.154	770.21
444.361	1058.97
444.568	831.65
444.774	942.24
444.981	817.31
445.187	1028.25
445.394	960.67
445.6	944.28
445.807	1214.62
446.013	1114.27
446.22	1067.16
446.426	1216.66
446.633	1310.87
446.839	1464.47
447.046	1210.52
447.252	1413.27
447.459	1405.08
447.665	1431.7
447.871	1607.83
448.078	1638.55
448.284	1634.45
448.491	1757.33
448.697	1843.34
448.903	1831.05
449.11	2009.23
449.316	1906.83
449.522	2115.72
449.728	2099.34
449.935	2281.61
450.141	2267.27
450.347	2431.11
450.553	2318.47
450.76	2531.46
450.966	2549.89
451.172	2609.28
451.378	2670.72
451.584	2764.93
451.791	3035.26
451.997	2984.06
452.203	3238.01
452.409	3299.45
452.615	3405.94
452.821	3281.02
453.027	3344.5
453.233	3858.54
453.44	3657.84
453.646	3811.44
453.852	4040.81
454.058	4124.78
454.264	4288.62
454.47	4573.28
454.676	4640.87
454.882	5050.46
455.088	4991.07
455.294	4991.07
455.5	5398.62
455.705	5785.68
455.911	5599.32
456.117	5808.21
456.323	6164.56
456.529	6094.93
456.735	6533.19
456.941	6781
457.147	7026.75
457.352	7231.55
457.558	7577.66
457.764	7880.75
457.97	8108.08
458.176	8443.95
458.381	8728.61
458.587	8996.9
458.793	9367.58
458.999	9574.42
459.204	10926.08
459.41	10973.19
459.616	10985.48
459.821	11517.95
460.027	11935.73
460.233	12724.2
460.438	12804.07
460.644	13445.09
460.85	13201.38
461.055	14057.43
461.261	14755.79
461.466	14637
461.672	14483.41
461.878	16392.11
462.083	16019.38
462.289	16433.07
462.494	17219.49
462.7	17309.6
462.905	17508.26
463.111	19079.05
463.316	20055.93
463.522	20457.33
463.727	20944.75
463.932	21667.68
464.138	22441.81
464.343	23203.66
464.549	23334.73
464.754	25030.44
464.959	25716.51
465.165	26277.66
465.37	26122.01
465.575	25896.74
465.781	27490.06
465.986	28626.68
466.191	27993.86
466.397	28387.07
466.602	27528.97
466.807	29355.75
467.012	30265.05
467.218	30273.24
467.423	30381.79
467.628	31469.26
467.833	32835.25
468.038	32409.28
468.244	31782.6
468.449	33332.91
468.654	32562.87
468.859	32427.71
469.064	32556.73
469.269	31776.45
469.474	32245.44
469.679	33222.32
469.885	31735.49
470.09	32612.03
470.295	32814.77
470.5	31766.21
470.705	32241.34
470.91	31018.71
471.115	31088.34
471.32	31598.28
471.525	31338.19
471.73	30224.09
471.935	30129.89
472.139	29124.33
472.344	29394.67
472.549	29048.56
472.754	28364.54
472.959	27768.58
473.164	26552.09
473.369	26017.57
473.574	26912.53
473.778	26640.15
473.983	26515.22
474.188	25573.16
474.393	24788.78
474.598	24751.92
474.802	23738.18
475.007	23379.78
475.212	23519.04
475.417	22509.4
475.621	22263.64
475.826	22062.94
476.031	21426.02
476.235	21149.54
476.44	21194.6
476.645	20422.52
476.849	20426.61
477.054	20082.55
477.259	19609.47
477.463	19705.73
477.668	18855.82
477.872	18755.47
478.077	18534.29
478.282	17874.84
478.486	17903.51
478.691	17614.75
478.895	17272.74
479.1	17307.55
479.304	17317.79
479.509	16566.19
479.713	16799.66
479.918	16199.6
480.122	16189.36
480.326	16279.47
480.531	16347.06
480.735	15986.61
480.94	15929.27
481.144	16136.12
481.348	15355.84
481.553	15644.6
481.757	15366.08
481.961	15325.12
482.166	15540.16
482.37	15181.76
482.574	14938.05
482.778	14745.55
482.983	14860.23
483.187	14667.72
483.391	14645.2
483.595	14557.13
483.8	14149.59
484.004	14325.71
484.208	14129.11
484.412	13684.7
484.616	13864.92
484.821	13639.64
485.025	13268.96
485.229	13205.47
485.433	13107.17
485.637	12980.2
485.841	12783.59
486.045	12408.81
486.249	12531.69
486.453	12314.61
486.657	12054.51
486.861	11972.6
487.065	11382.78
487.269	11448.32
487.473	11114.5
487.677	11321.34
487.881	11567.1
488.085	10940.42
488.289	10971.14
488.493	10543.11
488.697	10536.97
488.901	10266.64
489.105	9857.04
489.309	9801.75
489.512	9574.42
489.716	9705.49
489.92	9142.3
490.124	9353.24
490.328	9076.77
490.531	8767.52
490.735	8847.4
490.939	8484.91
491.143	8202.29
491.346	8206.38
491.55	8192.05
491.754	7958.58
491.958	8003.63
492.161	7864.37
492.365	7751.73
492.569	7534.65
492.772	7176.25
492.976	7321.66
493.18	7194.68
493.383	7147.58
493.587	7143.49
493.79	7219.26
493.994	6733.89
494.197	7010.37
494.401	6813.76
494.605	6740.04
494.808	6766.66
495.012	6672.45
495.215	6461.51
495.419	6647.88
495.622	6332.49
495.825	6312.01
496.029	6473.8
496.232	6494.28
496.436	6269
496.639	6344.78
496.843	6373.45
497.046	6256.72
497.249	6324.3
497.453	6404.17
497.656	6062.16
497.859	6187.08
498.063	6377.55
498.266	6342.73
498.469	6096.97
498.673	6137.93
498.876	6432.84
499.079	6408.26
499.282	6203.47
499.485	6629.45
499.689	6461.51
499.892	6637.64
500.095	6402.12
500.298	6510.66
500.501	6457.42
500.705	6658.12
500.908	6830.15
501.111	6781
501.314	7039.04
501.517	7022.66
501.72	6936.64
501.923	6836.29
502.126	7034.94
502.329	7350.33
502.532	7313.47
502.735	7204.92
502.938	7477.3
503.141	7442.49
503.344	7516.22
503.547	7704.63
503.75	7673.91
503.953	7688.25
504.156	7915.57
504.359	7997.49
504.562	7925.81
504.765	7972.91
504.968	8173.61
505.17	8548.39
505.373	8607.78
505.576	8693.8
505.779	8824.87
505.982	8810.53
506.185	9240.61
506.387	9146.4
506.59	9334.81
506.793	9574.42
506.996	9627.67
507.198	10039.31
507.401	10063.89
507.604	10190.86
507.807	10706.95
508.009	10723.34
508.212	10817.54
508.415	11022.34
508.617	11485.18
508.82	11388.92
509.022	11440.12
509.225	12130.29
509.428	12105.71
509.63	12404.72
509.833	12527.6
510.035	13017.06
510.238	13127.65
510.44	13101.03
510.643	13602.78
510.845	14299.09
511.048	14084.05
511.25	14458.83
511.453	14952.39
511.655	15415.23
511.858	15562.69
512.06	16089.01
512.262	16084.92
512.465	16525.23
512.667	16801.71
512.87	17084.33
513.072	17524.64
513.274	18208.66
513.477	18642.83
513.679	18870.15
513.881	19216.26
514.084	19679.1
514.286	20047.74
514.488	20371.32
514.69	21145.45
514.893	21620.58
515.095	21667.68
515.297	22214.49
515.499	22757.2
515.701	23320.39
515.904	23521.09
516.106	24178.49
516.308	24530.74
516.51	25300.78
516.712	25407.27
516.914	25939.74
517.116	26238.75
517.318	26769.17
517.52	27340.55
517.722	27496.2
517.925	28389.11
518.127	29163.25
518.329	29589.22
518.531	29535.98
518.733	30387.93
518.935	30680.79
519.136	31241.93
519.338	31823.56
519.54	31909.57
519.742	32276.16
519.944	32708.28
520.146	33543.85
520.348	33742.5
520.55	34004.64
520.752	34547.36
520.954	35378.83
521.155	35118.74
521.357	35661.45
521.559	36566.65
521.761	36937.34
521.963	37068.41
522.164	37475.95
522.366	37641.84
522.568	38325.86
522.77	38375.01
522.971	38989.4
523.173	38624.86
523.375	39065.17
523.576	38907.48
523.778	39087.7
523.98	39292.5
524.181	39841.35
524.383	39855.69
524.584	40310.34
524.786	39681.61
524.988	39902.79
525.189	40187.46
525.391	39986.76
525.592	40369.73
525.794	40625.73
525.995	40136.26
526.197	39892.55
526.398	40058.44
526.6	39849.55
526.801	39956.04
527.003	39884.36
527.204	39384.66
527.406	39941.71
527.607	39138.9
527.808	39276.12
528.01	38403.68
528.211	38444.64
528.412	39018.07
528.614	38624.86
528.815	38348.39
529.016	38223.46
529.218	37404.27
529.419	37142.13
529.62	36906.62
529.822	36294.27
530.023	36030.08
530.224	35946.12
530.425	35466.89
530.626	34823.83
530.828	34549.4
531.029	34969.24
531.23	33949.35
531.431	33810.09
531.632	33574.57
531.833	33115.83
532.035	33134.26
532.236	32165.57
532.437	32247.49
532.638	31467.21
532.839	31227.6
533.04	30871.25
533.241	30170.85
533.442	30369.5
533.643	29470.44
533.844	29173.49
534.045	28991.22
534.246	28237.56
534.447	28036.86
534.648	27807.49
534.849	27588.36
535.05	26922.77
535.251	26627.86
535.451	26048.29
535.652	26036
535.853	25392.94
536.054	25440.04
536.255	24813.36
536.456	24545.08
536.657	24205.11
536.857	23662.4
537.058	23502.66
537.259	23058.25
537.46	22896.46
537.66	22404.95
537.861	22263.64
538.062	22431.57
538.263	21802.85
538.463	21509.99
538.664	21188.46
538.865	20918.12
539.065	20709.23
539.266	20184.95
539.466	20514.67
539.667	19928.95
539.868	19869.56
540.068	19613.57
540.269	19345.28
540.469	19134.34
540.67	18982.79
540.87	18861.96
541.071	18515.86
541.271	18177.94
541.472	18489.23
541.672	17801.12
541.873	17520.54
542.073	17162.15
542.274	17321.89
542.474	17100.71
542.675	16990.12
542.875	16359.35
543.075	16312.24
543.276	16195.51
543.476	16332.72
543.676	15941.56
543.877	15660.99
544.077	15650.75
544.277	15370.18
544.478	15169.48
544.678	15255.49
544.878	14944.2
545.078	14604.24
545.279	14260.18
545.479	14485.45
545.679	14145.49
545.879	13979.61
546.079	13840.34
546.28	13447.13
546.48	13322.21
546.68	13828.06
546.88	13467.61
547.08	13205.47
547.28	12883.94
547.48	12689.39
547.68	12713.96
547.88	12441.58
548.081	12437.48
548.281	12204.02
548.481	12042.23
548.681	11790.33
548.881	11728.89
549.081	11735.03
549.28	11446.27
549.48	11141.12
549.68	11196.42
549.88	11130.88
550.08	10694.66
550.28	10629.13
550.48	10680.33
550.68	10356.75
550.88	10098.7
551.08	9967.63
551.279	10217.49
551.479	9801.75
551.679	9754.65
551.879	9572.38
552.079	9648.15
552.278	9347.1
552.478	9179.17
552.678	9140.26
552.878	9031.71
553.077	8771.62
553.277	8437.8
553.477	8642.6
553.676	8142.89
553.876	8306.73
554.076	7944.24
554.275	8028.21
554.475	7718.96
554.674	7821.36
554.874	7518.26
555.074	7434.3
555.273	7417.91
555.473	7243.84
555.672	7133.25
555.872	6981.7
556.071	6869.06
556.271	6985.79
556.47	6617.16
556.67	6629.45
556.869	6477.9
557.068	6377.55
557.268	6230.09
557.467	6285.39
557.667	6262.86
557.866	6074.45
558.065	5976.14
558.265	5918.8
558.464	5691.48
558.663	5660.76
558.863	5503.06
559.062	5587.03
559.261	5304.41
559.461	5361.75
559.66	4954.21
559.859	4929.63
560.058	4960.35
560.258	4868.19
560.457	4786.27
560.656	4876.38
560.855	4632.68
561.054	4747.36
561.253	4604
561.453	4499.56
561.652	4323.43
561.851	4544.61
562.05	4216.94
562.249	4124.78
562.448	4212.84
562.647	4114.54
562.846	4149.36
563.045	4094.06
563.244	3858.54
563.443	4057.2
563.642	3885.17
563.841	3870.83
564.04	3676.27
564.239	3655.79
564.438	3696.75
564.637	3563.64
564.836	3412.09
565.035	3489.91
565.234	3324.02
565.432	3432.57
565.631	3446.9
565.83	3356.79
566.029	3266.68
566.228	3151.99
566.427	3039.36
566.625	2922.62
566.824	3080.32
567.023	3043.45
567.222	3035.26
567.42	2791.55
567.619	2936.96
567.818	2900.09
568.016	2945.15
568.215	2820.22
568.414	2713.73
568.612	2758.78
568.811	2619.52
569.01	2572.42
569.208	2570.37
569.407	2527.36
569.605	2547.84
569.804	2492.55
570.002	2414.73
570.201	2334.86
570.4	2449.54
570.598	2365.57
570.797	2351.24
570.995	2220.17
571.193	2156.68
571.392	2214.02
571.59	2103.43
571.789	2113.67
571.987	2154.63
572.186	2222.22
572.384	2009.23
572.582	1931.41
572.781	2148.49
572.979	1865.87
573.177	1994.89
573.376	1878.16
573.574	1955.98
573.772	1773.71
573.971	1665.17
574.169	1630.35
574.367	1812.62
574.565	1742.99
574.763	1622.16
574.962	1742.99
575.16	1534.1
575.358	1642.64
575.556	1693.84
575.754	1554.58
575.952	1573.01
576.151	1636.5
576.349	1593.49
576.547	1366.17
576.745	1480.85
576.943	1462.42
577.141	1405.08
577.339	1255.58
577.537	1380.5
577.735	1407.13
577.933	1398.93
578.131	1263.77
578.329	1484.95
578.527	1274.01
578.725	1204.38
578.923	1224.86
579.121	1314.97
579.319	1147.03
579.516	1118.36
579.714	1321.11
579.912	1177.75
580.11	1038.49
580.308	1099.93
580.506	1056.92
580.704	907.42
580.901	1005.72
581.099	1097.88
581.297	1089.69
581.495	921.76
581.692	1009.82
581.89	1079.45
582.088	1083.55
582.285	1030.3
582.483	938.14
582.681	950.43
582.878	878.75
583.076	977.05
583.274	923.8
583.471	993.44
583.669	813.21
583.866	800.93
584.064	915.61
584.262	749.73
584.459	809.12
584.657	921.76
584.854	888.99
585.052	796.83
585.249	858.27
585.447	790.69
585.644	635.04
585.841	743.58
586.039	755.87
586.236	874.65
586.434	710.82
586.631	682.14
586.828	612.51
587.026	678.05
587.223	649.38
587.42	630.95
587.618	753.82
587.815	817.31
588.012	581.79
588.21	678.05
588.407	710.82
588.604	630.95
588.801	544.93
588.999	583.84
589.196	733.34
589.393	528.55
589.59	589.99
589.787	628.9
589.984	661.66
590.182	532.64
590.379	516.26
590.576	555.17
590.773	639.14
590.97	628.9
591.167	624.8
591.364	616.61
591.561	491.68
591.758	536.74
591.955	612.51
592.152	612.51
592.349	532.64
592.546	493.73
592.743	585.89
592.94	448.68
593.137	624.8
593.334	651.42
593.531	616.61
593.727	557.22
593.924	729.25
594.121	495.78
594.318	452.77
594.515	551.07
594.712	745.63
594.908	749.73
595.105	495.78
595.302	555.17
595.499	637.09
595.696	698.53
595.892	528.55
596.089	655.52
596.286	686.24
596.482	741.54
596.679	764.06
596.876	696.48
597.072	784.54
597.269	655.52
597.466	764.06
597.662	735.39
597.859	762.02
598.055	776.35
598.252	878.75
598.448	903.32
598.645	919.71
598.841	993.44
599.038	1087.64
599.234	1132.7
599.431	1054.87
599.627	1061.02
599.824	1081.5
600.02	1202.33
600.217	1202.33
600.413	1339.54
600.609	1235.1
600.806	1579.15
601.002	1265.82
601.198	1204.38
601.395	1505.43
601.591	1530
601.787	1558.67
601.984	1597.59
602.18	1753.23
602.376	1773.71
602.572	1927.31
602.769	2003.08
602.965	2062.48
603.161	2115.72
603.357	2181.26
603.553	2322.57
603.75	2263.18
603.946	2189.45
604.142	2394.25
604.338	2523.27
604.534	2650.24
604.73	2584.71
604.926	2797.7
605.122	2889.85
605.318	2953.34
605.514	3154.04
605.71	3102.84
605.906	3246.2
606.102	3301.5
606.298	3537.01
606.494	3688.56
606.69	3747.95
606.886	3686.51
607.082	3817.58
607.278	3905.65
607.474	3995.76
607.67	4227.18
607.866	4198.51
608.062	4503.65
608.257	4569.19
608.453	4597.86
608.649	4833.38
608.845	4870.24
609.041	5136.48
609.236	5175.39
609.432	5240.92
609.628	5453.91
609.824	5619.8
610.019	5572.69
610.215	6008.91
610.411	6166.6
610.606	6389.83
610.802	6178.89
610.998	6473.8
611.193	6875.2
611.389	6819.91
611.584	7024.7
611.78	7231.55
611.976	7544.89
612.171	7845.94
612.367	8030.26
612.562	8187.95
612.758	8124.46
612.953	8396.84
613.149	8599.59
613.344	9021.47
613.539	9310.24
613.735	9297.95
613.93	9674.78
614.126	9990.16
614.321	10283.02
614.517	10426.38
614.712	10696.71
614.907	11167.74
615.103	11214.85
615.298	11476.99
615.493	11835.38
615.688	11898.87
615.884	12562.41
616.079	12679.15
616.274	12894.18
616.47	13264.86
616.665	13510.62
616.86	14133.2
617.055	14608.33
617.25	14774.22
617.445	15196.1
617.641	15017.93
617.836	16054.2
618.031	16244.66
618.226	16885.67
618.421	16926.63
618.616	17420.19
618.811	17602.46
619.006	18302.87
619.201	18487.18
619.396	19175.3
619.591	19392.39
619.786	20275.06
619.981	20174.71
620.176	20866.92
620.371	20979.56
620.566	21575.52
620.761	22042.46
620.956	22708.05
621.151	23131.98
621.346	23498.56
621.541	23203.66
621.735	24207.16
621.93	24604.47
622.125	25171.75
622.32	25468.71
622.515	26062.62
622.709	26629.91
622.904	26842.9
623.099	27449.1
623.294	28292.86
623.488	28077.82
623.683	28729.08
623.878	29177.58
624.072	29830.88
624.267	30498.52
624.462	30852.82
624.656	31284.94
624.851	31932.1
625.046	31987.39
625.24	32353.98
625.435	33074.87
625.629	33771.18
625.824	33785.51
626.018	34389.66
626.213	34207.39
626.407	34897.56
626.602	35319.44
626.796	35845.77
626.991	36327.04
627.185	36472.45
627.38	36589.18
627.574	36943.48
627.768	37131.89
627.963	37260.91
628.157	37052.02
628.352	37711.47
628.546	37219.95
628.74	38170.21
628.935	37772.91
629.129	37695.08
629.323	37437.04
629.517	37211.76
629.712	36882.04
629.906	36710.01
630.1	36212.35
630.294	36363.9
630.489	35501.71
630.683	35364.5
630.877	34764.44
631.071	34240.16
631.265	34029.22
631.459	33142.45
631.653	32370.36
631.848	31946.44
632.042	30838.48
632.236	30265.05
632.43	29462.25
632.624	28821.23
632.818	27965.18
633.012	26879.76
633.206	26361.62
633.4	25491.24
633.594	24633.14
633.788	24006.46
633.982	22968.14
634.176	22318.93
634.369	21444.45
634.563	20516.72
634.757	19726.21
634.951	19140.49
635.145	18481.04
635.339	17481.63
635.533	16979.88
635.726	16402.35
635.92	15411.14
636.114	14915.53
636.308	14270.42
636.501	14057.43
636.695	13307.87
636.889	12451.82
637.083	12320.75
637.276	11558.91
637.47	11227.14
637.664	10760.2
637.857	10516.49
638.051	10141.71
638.244	9566.23
638.438	9320.48
638.632	8810.53
638.825	8345.64
639.019	8140.85
639.212	7804.98
639.406	7721.01
639.599	7239.74
639.793	6989.89
639.986	6793.28
640.18	6580.29
640.373	6182.99
640.567	5951.57
640.76	5820.5
640.954	5605.46
641.147	5376.09
641.34	4993.12
641.534	4851.81
641.727	4835.42
641.92	4649.06
642.114	4675.68
642.307	4229.23
642.5	4155.5
642.694	3917.93
642.887	3901.55
643.08	3778.67
643.273	3528.82
643.467	3350.65
643.66	3203.19
643.853	3094.65
644.046	3170.43
644.239	2762.88
644.432	2820.22
644.626	2574.47
644.819	2652.29
645.012	2437.25
645.205	2535.56
645.398	2291.85
645.591	2216.07
645.784	2154.63
645.977	1982.6
646.17	1964.17
646.363	1998.99
646.556	1806.48
646.749	1618.07
646.942	1796.24
647.135	1718.42
647.328	1489.04
647.521	1538.2
647.714	1497.24
647.907	1372.31
648.099	1368.21
648.292	1384.6
648.485	1265.82
648.678	1224.86
648.871	1159.32
649.064	1087.64
649.256	1050.78
649.449	1042.59
649.642	934.04
649.835	946.33
650.027	891.04
650.22	972.96
650.413	833.69
650.605	817.31
650.798	819.36
650.991	719.01
651.183	716.96
651.376	825.5
651.568	690.34
651.761	712.86
651.954	706.72
652.146	622.75
652.339	663.71
652.531	694.43
652.724	516.26
652.916	555.17
653.109	426.15
653.301	698.53
653.494	600.23
653.686	485.54
653.879	618.66
654.071	387.24
654.263	401.57
654.456	452.77
654.648	534.69
654.84	489.64
655.033	370.85
655.225	479.4
655.417	243.88
655.61	510.11
655.802	436.39
655.994	444.58
656.186	338.09
656.379	415.91
656.571	323.75
656.763	229.54
656.955	239.78
657.148	366.76
657.34	493.73
657.532	350.37
657.724	313.51
657.916	270.5
658.108	405.67
658.3	350.37
658.492	299.17
658.684	250.02
658.876	325.8
659.068	194.73
659.26	176.3
659.452	190.63
659.644	215.21
659.836	411.81
660.028	297.13
660.22	268.45
660.412	170.15
660.604	237.74
660.796	280.74
660.988	348.33
661.18	225.45
661.372	229.54
661.563	247.97
661.755	209.06
661.947	133.29
662.139	82.09
662.331	262.31
662.522	172.2
662.714	143.53
662.906	96.43
663.097	121
663.289	151.72
663.481	88.23
663.673	209.06
663.864	114.86
664.056	225.45
664.247	96.43
664.439	245.93
664.631	170.15
664.822	243.88
665.014	147.62
665.205	118.95
665.397	145.58
665.588	178.34
665.78	176.3
665.971	229.54
666.163	77.99
666.354	172.2
666.546	32.94
666.737	43.18
666.929	0.17
667.12	108.71
667.311	231.59
667.503	164.01
667.694	180.39
667.885	131.24
668.077	235.69
668.268	26.79
668.459	75.95
668.651	137.38
668.842	209.06
669.033	100.52
669.224	102.57
669.416	356.52
669.607	108.71
669.798	86.19
669.989	207.02
670.18	63.66
670.371	133.29
670.563	22.7
670.754	164.01
670.945	135.34
671.136	223.4
671.327	67.75
671.518	223.4
671.709	219.3
671.9	153.77
672.091	282.79
672.282	204.97
672.473	202.92
672.664	65.71
672.855	184.49
673.046	157.86
673.237	252.07
673.428	204.97
673.619	166.06
673.809	110.76
674	264.36
674.191	172.2
674.382	98.47
674.573	32.94
674.764	172.2
674.954	184.49
675.145	149.67
675.336	77.99
675.527	141.48
675.717	80.04
675.908	174.25
676.099	94.38
676.289	153.77
676.48	45.23
676.671	184.49
676.861	77.99
677.052	211.11
677.243	145.58
677.433	121
677.624	141.48
677.814	164.01
678.005	151.72
678.195	284.84
678.386	139.43
678.576	176.3
678.767	157.86
678.957	209.06
679.148	309.41
679.338	301.22
679.529	243.88
679.719	88.23
679.909	182.44
680.1	174.25
680.29	198.82
680.481	170.15
680.671	256.17
680.861	170.15
681.052	200.87
681.242	207.02
681.432	221.35
681.622	215.21
681.813	164.01
682.003	219.3
682.193	157.86
682.383	182.44
682.573	168.1
682.764	129.19
682.954	311.46
683.144	217.26
683.334	198.82
683.524	256.17
683.714	276.65
683.904	262.31
684.094	161.96
684.284	299.17
684.474	297.13
684.664	262.31
684.854	272.55
685.044	239.78
685.234	204.97
685.424	200.87
685.614	217.26
685.804	327.85
685.994	276.65
686.184	190.63
686.374	254.12
686.564	272.55
686.753	256.17
686.943	168.1
687.133	186.54
687.323	164.01
687.513	239.78
687.702	239.78
687.892	231.59
688.082	225.45
688.272	276.65
688.461	252.07
688.651	381.09
688.841	286.89
689.03	243.88
689.22	237.74
689.41	231.59
689.599	270.5
689.789	139.43
689.979	393.38
690.168	233.64
690.358	250.02
690.547	190.63
690.737	184.49
690.926	305.32
691.116	243.88
691.305	323.75
691.495	207.02
691.684	178.34
691.874	178.34
692.063	204.97
692.252	258.21
692.442	231.59
692.631	88.23
692.82	233.64
693.01	284.84
693.199	227.5
693.388	209.06
693.578	147.62
693.767	268.45
693.956	184.49
694.146	213.16
694.335	346.28
694.524	198.82
694.713	231.59
694.902	172.2
695.092	209.06
695.281	276.65
695.47	200.87
695.659	178.34
695.848	219.3
696.037	196.78
696.226	213.16
696.415	157.86
696.604	321.7
696.793	235.69
696.982	182.44
697.171	323.75
697.36	112.81
697.549	170.15
697.738	100.52
697.927	141.48
698.116	137.38
698.305	190.63
698.494	168.1
698.683	196.78
698.872	346.28
699.061	293.03
699.25	112.81
699.438	190.63
699.627	145.58
699.816	370.85
700.005	133.29
700.193	104.62
700.382	252.07
700.571	272.55
700.76	221.35
700.948	301.22
701.137	264.36
701.326	188.58
701.514	176.3
701.703	266.41
701.892	217.26
702.08	323.75
702.269	145.58
702.457	213.16
702.646	198.82
702.834	184.49
703.023	276.65
703.212	241.83
703.4	143.53
703.589	168.1
703.777	172.2
703.965	145.58
704.154	151.72
704.342	155.82
704.531	200.87
704.719	155.82
704.907	256.17
705.096	157.86
705.284	96.43
705.472	207.02
705.661	258.21
705.849	237.74
706.037	284.84
706.226	143.53
706.414	225.45
706.602	108.71
706.79	215.21
706.979	131.24
707.167	235.69
707.355	90.28
707.543	196.78
707.731	221.35
707.919	207.02
708.107	127.14
708.296	88.23
708.484	133.29
708.672	198.82
708.86	223.4
709.048	219.3
709.236	139.43
709.424	186.54
709.612	233.64
709.8	92.33
709.988	143.53
710.176	354.47
710.364	329.89
710.551	137.38
710.739	184.49
710.927	161.96
711.115	207.02
711.303	225.45
711.491	295.08
711.679	125.1
711.866	262.31
712.054	149.67
712.242	317.61
712.43	280.74
712.617	215.21
712.805	276.65
712.993	178.34
713.181	67.75
713.368	256.17
713.556	239.78
713.744	196.78
713.931	428.2
714.119	284.84
714.306	266.41
714.494	219.3
714.682	200.87
714.869	92.33
715.057	196.78
715.244	125.1
715.432	290.98
715.619	170.15
715.807	131.24
715.994	178.34
716.182	247.97
716.369	327.85
716.556	219.3
716.744	106.67
716.931	157.86
717.119	243.88
717.306	186.54
717.493	202.92
717.681	180.39
717.868	125.1
718.055	147.62
718.242	260.26
718.43	256.17
718.617	200.87
718.804	217.26
718.991	305.32
719.179	258.21
719.366	295.08
719.553	204.97
719.74	258.21
719.927	223.4
720.114	215.21
720.301	151.72
720.488	182.44
720.676	149.67
720.863	340.13
721.05	413.86
721.237	327.85
721.424	194.73
721.611	268.45
721.798	164.01
721.985	166.06
722.172	243.88
722.358	245.93
722.545	290.98
722.732	321.7
722.919	286.89
723.106	315.56
723.293	270.5
723.48	274.6
723.667	153.77
723.853	209.06
724.04	243.88
724.227	299.17
724.414	190.63
724.6	268.45
724.787	356.52
724.974	333.99
725.161	290.98
725.347	200.87
725.534	268.45
725.72	272.55
725.907	297.13
726.094	235.69
726.28	307.37
726.467	239.78
726.653	153.77
726.84	344.23
727.027	385.19
727.213	280.74
727.4	301.22
727.586	209.06
727.773	247.97
727.959	280.74
728.145	268.45
728.332	198.82
728.518	264.36
728.705	340.13
728.891	360.61
729.077	370.85
729.264	241.83
729.45	231.59
729.636	344.23
729.823	321.7
730.009	471.2
730.195	307.37
730.382	387.24
730.568	241.83
730.754	327.85
730.94	266.41
731.126	327.85
731.313	381.09
731.499	278.69
731.685	311.46
731.871	391.33
732.057	366.76
732.243	331.94
732.429	391.33
732.615	364.71
732.801	407.72
732.987	397.48
733.173	366.76
733.359	278.69
733.545	372.9
733.731	241.83
733.917	452.77
734.103	428.2
734.289	350.37
734.475	215.21
734.661	495.78
734.847	342.18
735.033	374.95
735.219	454.82
735.404	358.57
735.59	266.41
735.776	329.89
735.962	395.43
736.148	526.5
736.333	512.16
736.519	333.99
736.705	284.84
736.89	358.57
737.076	307.37
737.262	219.3
737.447	325.8
737.633	286.89
737.819	368.81
738.004	370.85
738.19	313.51
738.375	377
738.561	516.26
738.747	362.66
738.932	301.22
739.118	460.96
739.303	391.33
739.489	362.66
739.674	288.93
739.859	268.45
740.045	391.33
740.23	331.94
740.416	262.31
740.601	383.14
740.786	352.42
740.972	268.45
741.157	260.26
741.342	202.92
741.528	243.88
741.713	446.63
741.898	348.33
742.084	331.94
742.269	368.81
742.454	383.14
742.639	360.61
742.824	280.74
743.01	485.54
743.195	407.72
743.38	387.24
743.565	352.42
743.75	333.99
743.935	315.56
744.12	460.96
744.305	323.75
744.49	250.02
744.675	372.9
744.86	395.43
745.045	288.93
745.23	348.33
745.415	331.94
745.6	463.01
745.785	356.52
745.97	475.3
746.155	387.24
746.34	471.2
746.525	366.76
746.71	481.44
746.895	403.62
747.079	333.99
747.264	370.85
747.449	354.47
747.634	387.24
747.819	313.51
748.003	241.83
748.188	301.22
748.373	258.21
748.557	336.04
748.742	360.61
748.927	321.7
749.111	336.04
749.296	231.59
749.481	315.56
749.665	346.28
749.85	309.41
750.034	344.23
750.219	307.37
750.404	301.22
750.588	401.57
750.773	241.83
750.957	250.02
751.141	239.78
751.326	315.56
751.51	213.16
751.695	274.6
751.879	276.65
752.064	422.05
752.248	288.93
752.432	342.18
752.617	288.93
752.801	407.72
752.985	250.02
753.17	286.89
753.354	315.56
753.538	366.76
753.722	274.6
753.907	280.74
754.091	174.25
754.275	262.31
754.459	215.21
754.643	184.49
754.828	305.32
755.012	307.37
755.196	80.04
755.38	268.45
755.564	272.55
755.748	223.4
755.932	379.04
756.116	360.61
756.3	239.78
756.484	309.41
756.668	202.92
756.852	161.96
757.036	209.06
757.22	219.3
757.404	219.3
757.588	227.5
757.772	202.92
757.956	149.67
758.14	319.65
758.323	141.48
758.507	272.55
758.691	268.45
758.875	276.65
759.059	223.4
759.242	188.58
759.426	194.73
759.61	247.97
759.794	121
759.977	327.85
760.161	370.85
760.345	276.65
760.528	274.6
760.712	247.97
760.895	155.82
761.079	233.64
761.263	137.38
761.446	198.82
761.63	219.3
761.813	288.93
761.997	98.47
762.18	231.59
762.364	170.15
762.547	73.9
762.731	151.72
762.914	182.44
763.098	178.34
763.281	237.74
763.464	204.97
763.648	229.54
763.831	157.86
764.015	137.38
764.198	278.69
764.381	133.29
764.564	147.62
764.748	235.69
764.931	227.5
765.114	92.33
765.297	239.78
765.481	96.43
765.664	141.48
765.847	112.81
766.03	198.82
766.213	151.72
766.397	92.33
766.58	77.99
766.763	235.69
766.946	145.58
767.129	166.06
767.312	67.75
767.495	221.35
767.678	174.25
767.861	200.87
768.044	139.43
768.227	186.54
768.41	151.72
768.593	188.58
768.776	98.47
768.959	106.67
769.142	235.69
769.324	112.81
769.507	164.01
769.69	80.04
769.873	192.68
770.056	284.84
770.239	77.99
770.421	284.84
770.604	188.58
770.787	100.52
770.97	252.07
771.152	-22.36
771.335	207.02
771.518	143.53
771.7	153.77
771.883	274.6
772.066	86.19
772.248	186.54
772.431	217.26
772.613	172.2
772.796	135.34
772.978	161.96
773.161	202.92
773.343	55.47
773.526	63.66
773.708	59.56
773.891	0.17
774.073	65.71
774.256	24.75
774.438	229.54
774.621	106.67
774.803	121
774.985	45.23
775.168	159.91
775.35	77.99
775.532	178.34
775.715	65.71
775.897	223.4
776.079	133.29
776.261	176.3
776.444	65.71
776.626	37.03
776.808	131.24
776.99	-30.55
777.173	190.63
777.355	114.86
777.537	86.19
777.719	77.99
777.901	34.99
778.083	51.37
778.265	47.27
778.447	166.06
778.629	32.94
778.811	100.52
778.993	166.06
779.175	166.06
779.357	90.28
779.539	30.89
779.721	84.14
779.903	149.67
780.085	88.23
780.267	86.19
780.449	53.42
780.631	157.86
780.812	155.82
780.994	112.81
781.176	92.33
781.358	55.47
781.54	37.03
781.721	118.95
781.903	155.82
782.085	112.81
782.267	125.1
782.448	-26.45
782.63	80.04
782.812	104.62
782.993	147.62
783.175	168.1
783.357	139.43
783.538	80.04
783.72	-1.88
783.901	-10.07
784.083	174.25
784.264	69.8
784.446	53.42
784.627	-20.31
784.809	98.47
784.99	-8.02
785.172	84.14
785.353	77.99
785.535	51.37
785.716	-30.55
785.897	-42.84
786.079	-12.12
786.26	67.75
786.441	73.9
786.623	-3.93
786.804	-10.07
786.985	69.8
787.167	108.71
787.348	73.9
787.529	106.67
787.71	223.4
787.891	65.71
788.073	-36.69
788.254	-40.79
788.435	204.97
788.616	49.32
788.797	-26.45
788.978	43.18
789.159	92.33
789.34	88.23
789.522	41.13
789.703	39.08
789.884	112.81
790.065	28.84
790.246	125.1
790.427	80.04
790.607	243.88
790.788	98.47
790.969	59.56
791.15	61.61
791.331	-30.55
791.512	61.61
791.693	-5.97
791.874	61.61
792.054	225.45
792.235	129.19
792.416	-55.12
792.597	-3.93
792.778	100.52
792.958	108.71
793.139	59.56
793.32	45.23
793.5	-20.31
793.681	96.43
793.862	84.14
794.042	43.18
794.223	-75.6
794.404	-22.36
794.584	18.6
794.765	26.79
794.945	63.66
795.126	100.52
795.306	188.58
795.487	6.31
795.667	45.23
795.848	102.57
796.028	37.03
796.209	131.24
796.389	63.66
796.57	10.41
796.75	51.37
796.93	-42.84
797.111	-8.02
797.291	45.23
797.471	16.55
797.652	69.8
797.832	10.41
798.012	80.04
798.192	-16.21
798.373	-57.17
798.553	39.08
798.733	86.19
798.913	-69.46
799.093	51.37
799.274	123.05
799.454	71.85
799.634	80.04
799.814	47.27
799.994	127.14
800.174	37.03
800.354	80.04
800.534	-69.46
800.714	125.1
800.894	-69.46
801.074	-42.84
801.254	-112.47
801.434	153.77
801.614	-87.89
801.794	-30.55
801.974	1908.88
802.154	45.23
802.334	104.62
802.514	-108.37
802.693	55.47
802.873	12.46
803.053	94.38
803.233	-8.02
803.413	-75.6
803.592	-79.7
803.772	-44.88
803.952	71.85
804.131	-77.65
804.311	100.52
804.491	96.43
804.67	16.55
804.85	-36.69
805.03	100.52
805.209	123.05
805.389	41.13
805.568	-12.12
805.748	53.42
805.928	30.89
806.107	37.03
806.287	73.9
806.466	69.8
806.646	28.84
806.825	-26.45
807.004	-14.17
807.184	92.33
807.363	131.24
807.543	30.89
807.722	8.36
807.901	92.33
808.081	53.42
808.26	-65.36
808.439	45.23
808.619	22.7
808.798	32.94
808.977	88.23
809.156	41.13
809.336	41.13
809.515	108.71
809.694	12.46
809.873	53.42
810.052	39.08
810.231	164.01
810.411	77.99
810.59	45.23
810.769	67.75
810.948	77.99
811.127	-55.12
811.306	-42.84
811.485	45.23
811.664	116.9
811.843	14.51
812.022	12.46
812.201	75.95
812.38	18.6
812.559	-16.21
812.737	37.03
812.916	20.65
813.095	-71.51
813.274	8.36
813.453	37.03
813.632	145.58
813.811	55.47
813.989	-87.89
814.168	84.14
814.347	41.13
814.526	14.51
814.704	82.09
814.883	53.42
815.062	-34.64
815.24	121
815.419	-75.6
815.598	16.55
815.776	-130.9
815.955	-18.26
816.133	-63.32
816.312	-18.26
816.49	-161.62
816.669	4.27
816.847	47.27
817.026	24.75
817.204	0.17
817.383	-34.64
817.561	-32.6
817.74	-24.4
817.918	-53.08
818.097	-53.08
818.275	-14.17
818.453	51.37
818.632	92.33
818.81	-26.45
818.988	-20.31
819.167	-32.6
819.345	65.71
819.523	-55.12
819.701	88.23
819.879	112.81
820.058	61.61
820.236	10.41
820.414	65.71
820.592	-10.07
820.77	16.55
820.948	-20.31
821.127	-24.4
821.305	4.27
821.483	-40.79
821.661	49.32
821.839	-5.97
822.017	-61.27
822.195	14.51
822.373	30.89
822.551	80.04
822.729	-8.02
822.907	8.36
823.085	75.95
823.262	24.75
823.44	-67.41
823.618	-30.55
823.796	67.75
823.974	-59.22
824.152	-53.08
824.329	-12.12
824.507	2.22
824.685	82.09
824.863	57.51
825.04	18.6
825.218	102.57
825.396	69.8
825.574	26.79
825.751	12.46
825.929	75.95
826.107	-16.21
826.284	-8.02
826.462	-24.4
826.639	-3.93
826.817	-40.79
826.994	-59.22
827.172	-73.56
827.349	114.86
827.527	90.28
827.704	43.18
827.882	71.85
828.059	-57.17
828.237	2.22
828.414	151.72
828.591	-55.12
828.769	0.17
828.946	-20.31
829.124	125.1
829.301	190.63
829.478	-63.32
829.655	14.51
829.833	28.84
830.01	-167.76
830.187	26.79
830.364	108.71
830.542	30.89
830.719	147.62
830.896	100.52
831.073	32.94
831.25	28.84
831.427	59.56
831.604	55.47
831.782	-22.36
831.959	-10.07
832.136	-20.31
832.313	4.27
832.49	-53.08
832.667	88.23
832.844	-44.88
833.021	41.13
833.198	-18.26
833.374	86.19
833.551	-10.07
833.728	-55.12
833.905	73.9
834.082	-118.61
834.259	-8.02
834.436	151.72
834.612	-98.13
834.789	45.23
834.966	-18.26
835.143	16.55
835.319	-114.52
835.496	90.28
835.673	80.04
835.85	-12.12
836.026	16.55
836.203	63.66
836.38	-71.51
836.556	-71.51
836.733	-75.6
836.909	194.73
837.086	55.47
837.262	-89.94
837.439	-46.93
837.616	-22.36
837.792	-28.5
837.968	30.89
838.145	-96.08
838.321	4.27
838.498	-12.12
838.674	61.61
838.851	86.19
839.027	-5.97
839.203	-59.22
839.38	30.89
839.556	-5.97
839.732	96.43
839.909	2.22
840.085	20.65
840.261	-10.07
840.437	-71.51
840.614	37.03
840.79	131.24
840.966	139.43
841.142	-28.5
841.318	18.6
841.494	43.18
841.671	100.52
841.847	-18.26
842.023	-20.31
842.199	14.51
842.375	129.19
842.551	-67.41
842.727	-75.6
842.903	123.05
843.079	-53.08
843.255	90.28
843.431	-59.22
843.607	88.23
843.783	-75.6
843.959	61.61
844.134	-30.55
844.31	114.86
844.486	-55.12
844.662	-44.88
844.838	57.51
845.013	77.99
845.189	45.23
845.365	49.32
845.541	2.22
845.716	24.75
845.892	149.67
846.068	-46.93
846.244	-46.93
846.419	-10.07
846.595	-114.52
846.77	-104.28
846.946	26.79
847.122	-36.69
847.297	-22.36
847.473	131.24
847.648	-46.93
847.824	127.14
847.999	-87.89
848.175	34.99
848.35	30.89
848.526	2.22
848.701	43.18
848.876	57.51
849.052	112.81
849.227	51.37
849.403	-42.84
849.578	-40.79
849.753	10.41
849.929	22.7
850.104	-108.37
850.279	18.6
850.454	51.37
850.63	32.94
850.805	39.08
850.98	69.8
851.155	63.66
851.33	-1.88
851.505	-12.12
851.681	110.76
851.856	-24.4
852.031	71.85
852.206	-5.97
852.381	-91.99
852.556	-59.22
852.731	-16.21
852.906	41.13
853.081	2.22
853.256	153.77
853.431	-18.26
853.606	-98.13
853.781	-79.7
853.956	-75.6
854.131	86.19
854.305	4.27
854.48	-44.88
854.655	-14.17
854.83	-73.56
855.005	16.55
855.18	77.99
855.354	2.22
855.529	30.89
855.704	-1.88
855.879	16.55
856.053	-67.41
856.228	-10.07
856.403	-94.04
856.577	55.47
856.752	-51.03
856.926	-73.56
857.101	26.79
857.276	-46.93
857.45	22.7
857.625	104.62
857.799	10.41
857.974	26.79
858.148	-116.56
858.323	43.18
858.497	-67.41
858.672	-73.56
858.846	-10.07
859.02	-71.51
859.195	2.22
859.369	26.79
859.543	-24.4
859.718	4.27
859.892	-22.36
860.066	0.17
860.241	18.6
860.415	30.89
860.589	-79.7
860.763	20.65
860.938	45.23
861.112	-24.4
861.286	-30.55
861.46	-16.21
861.634	-34.64
861.808	86.19
861.982	10.41
862.157	-89.94
862.331	-48.98
862.505	-77.65
862.679	-130.9
862.853	16.55
863.027	6.31
863.201	96.43
863.375	-40.79
863.549	26.79
863.722	-89.94
863.896	180.39
864.07	-51.03
864.244	-16.21
864.418	16.55
864.592	24.75
864.766	24.75
864.939	-16.21
865.113	-57.17
865.287	14.51
865.461	24.75
865.634	-10.07
865.808	-36.69
865.982	18.6
866.156	-67.41
866.329	-42.84
866.503	53.42
866.676	57.51
866.85	41.13
867.024	-5.97
867.197	10.41
867.371	-87.89
867.544	34.99
867.718	-98.13
867.891	129.19
868.065	-141.14
868.238	-32.6
868.412	112.81
868.585	59.56
868.759	-83.8
868.932	0.17
869.105	-65.36
869.279	0.17
869.452	-87.89
869.625	51.37
869.799	-34.64
869.972	-26.45
870.145	-48.98
870.319	55.47
870.492	14.51
870.665	67.75
870.838	-55.12
871.011	-120.66
871.185	20.65
871.358	-51.03
871.531	106.67
871.704	-18.26
871.877	96.43
872.05	32.94
872.223	-40.79
872.396	39.08
872.569	69.8
872.742	-106.32
872.915	53.42
873.088	-48.98
873.261	-67.41
873.434	55.47
873.607	28.84
873.78	32.94
873.953	-40.79
874.126	-12.12
874.299	-1.88
874.471	-79.7
874.644	-110.42
874.817	14.51
874.99	75.95
875.163	10.41
875.335	6.31
875.508	-71.51
875.681	47.27
875.853	-59.22
876.026	24.75
876.199	55.47
876.371	43.18
876.544	-38.74
876.717	2.22
876.889	-87.89
877.062	24.75
877.234	-89.94
877.407	-77.65
877.579	-94.04
877.752	32.94
877.924	84.14
878.097	8.36
878.269	-16.21
878.442	14.51
878.614	-34.64
878.786	53.42
878.959	32.94
879.131	-26.45
879.303	-122.71
879.476	-20.31
879.648	8.36
879.82	24.75
879.993	-77.65
880.165	2.22
880.337	-120.66
880.509	-20.31
880.681	-130.9
880.854	-42.84
881.026	14.51
881.198	141.48
881.37	34.99
881.542	43.18
881.714	71.85
881.886	-1.88
882.058	-24.4
882.23	28.84
882.402	0.17
882.574	28.84
882.746	0.17
882.918	114.86
883.09	57.51
883.262	-40.79
883.434	8.36
883.606	-104.28
883.778	-8.02
883.95	127.14
884.122	-51.03
884.293	18.6
884.465	-44.88
884.637	110.76
884.809	-40.79
884.98	-5.97
885.152	51.37
885.324	30.89
885.496	-63.32
885.667	-32.6
885.839	26.79
886.011	71.85
886.182	12.46
886.354	61.61
886.525	102.57
886.697	-1.88
886.869	-42.84
887.04	-32.6
887.212	67.75
887.383	108.71
887.555	-63.32
887.726	-48.98
887.897	24.75
888.069	-1.88
888.24	104.62
888.412	28.84
888.583	-61.27
888.754	-34.64
888.926	-40.79
889.097	0.17
889.268	-106.32
889.44	53.42
889.611	-91.99
889.782	-57.17
889.953	-114.52
890.125	22.7
890.296	-63.32
890.467	-53.08
890.638	-32.6
890.809	-32.6
890.98	-63.32
891.151	6.31
891.323	61.61
891.494	6.31
891.665	-28.5
891.836	-16.21
892.007	-12.12
892.178	86.19
892.349	34.99
892.52	-75.6
892.691	26.79
892.862	-71.51
893.032	-38.74
893.203	-20.31
893.374	-32.6
893.545	16.55
893.716	18.6
893.887	55.47
894.057	12.46
894.228	-30.55
894.399	-87.89
894.57	53.42
894.74	20.65
894.911	51.37
895.082	-8.02
895.253	-110.42
895.423	-34.64
895.594	69.8
895.764	53.42
895.935	39.08
896.106	16.55
896.276	-51.03
896.447	-32.6
896.617	-67.41
896.788	-98.13
896.958	-40.79
897.129	-85.84
897.299	-46.93
897.47	116.9
897.64	73.9
897.81	-38.74
897.981	43.18
898.151	-40.79
898.322	73.9
898.492	55.47
898.662	12.46
898.832	-57.17
899.003	-22.36
899.173	59.56
899.343	-42.84
899.513	-83.8
