Data from USB4F104151__59__11-30-49-665.txt Node

Date: Wed Feb 26 11:30:49 EST 2025
User: louis
Spectrometer: USB4F10415
Trigger mode: 4
Integration Time (sec): 1.000000E-1
Scans to average: 1
Electric dark correction enabled: true
Nonlinearity correction enabled: false
Boxcar width: 0
XAxis mode: Wavelengths
Number of Pixels in Spectrum: 3648
>>>>>Begin Spectral Data<<<<<
178.204	-418.98
178.424	-418.98
178.644	-418.98
178.864	-404.64
179.084	-388.26
179.304	-1.19
179.524	-58.54
179.744	86.87
179.964	64.34
180.184	-33.96
180.404	15.19
180.624	25.43
180.844	-13.48
181.064	-64.68
181.283	-52.39
181.503	-46.25
181.723	78.68
181.943	-105.64
182.163	195.41
182.383	-72.87
182.602	52.05
182.822	193.36
183.042	117.59
183.262	4.95
183.482	-42.15
183.701	23.38
183.921	80.72
184.141	-11.43
184.361	97.11
184.58	45.91
184.8	52.05
185.02	-38.06
185.239	136.02
185.459	9.05
185.679	138.07
185.898	-68.78
186.118	60.24
186.338	7
186.557	103.25
186.777	-113.83
186.997	-56.49
187.216	27.48
187.436	199.51
187.655	115.54
187.875	82.77
188.095	99.16
188.314	88.92
188.534	140.12
188.753	33.62
188.973	103.25
189.192	215.89
189.412	25.43
189.631	88.92
189.851	162.64
190.07	138.07
190.29	-68.78
190.509	-3.24
190.729	29.52
190.948	162.64
191.168	283.47
191.387	109.4
191.607	-7.34
191.826	72.53
192.045	76.63
192.265	13.14
192.484	37.72
192.704	-11.43
192.923	-15.53
193.142	201.55
193.362	62.29
193.581	84.82
193.8	158.55
194.02	103.25
194.239	58.2
194.458	80.72
194.678	-33.96
194.897	11.09
195.116	21.33
195.335	84.82
195.555	115.54
195.774	13.14
195.993	179.03
196.212	27.48
196.432	37.72
196.651	-5.29
196.87	37.72
197.089	275.28
197.308	35.67
197.528	119.64
197.747	-54.44
197.966	84.82
198.185	109.4
198.404	-29.87
198.623	50
198.842	142.16
199.062	174.93
199.281	168.79
199.5	25.43
199.719	50
199.938	54.1
200.157	90.96
200.376	158.55
200.595	107.35
200.814	-36.01
201.033	27.48
201.252	127.83
201.471	109.4
201.69	160.59
201.909	17.24
202.128	205.65
202.347	111.44
202.566	21.33
202.785	31.57
203.004	70.48
203.223	254.8
203.442	-9.39
203.661	-117.93
203.879	93.01
204.098	158.55
204.317	-54.44
204.536	101.2
204.755	64.34
204.974	105.3
205.193	50
205.411	129.88
205.63	142.16
205.849	58.2
206.068	2.9
206.287	-1.19
206.505	154.45
206.724	170.83
206.943	25.43
207.162	-3.24
207.381	101.2
207.599	70.48
207.818	47.96
208.037	-15.53
208.255	37.72
208.474	-46.25
208.693	76.63
208.911	33.62
209.13	88.92
209.349	45.91
209.567	117.59
209.786	21.33
210.005	95.06
210.223	41.81
210.442	-31.91
210.661	68.44
210.879	78.68
211.098	-23.72
211.316	68.44
211.535	82.77
211.753	70.48
211.972	47.96
212.191	-15.53
212.409	64.34
212.628	50
212.846	-23.72
213.065	-23.72
213.283	95.06
213.502	95.06
213.72	-50.35
213.938	33.62
214.157	47.96
214.375	164.69
214.594	-25.77
214.812	125.78
215.031	-9.39
215.249	58.2
215.467	54.1
215.686	95.06
215.904	23.38
216.122	50
216.341	164.69
216.559	21.33
216.778	179.03
216.996	127.83
217.214	21.33
217.432	-15.53
217.651	-62.63
217.869	64.34
218.087	95.06
218.306	45.91
218.524	52.05
218.742	39.76
218.96	88.92
219.179	-42.15
219.397	41.81
219.615	248.66
219.833	74.58
220.051	-7.34
220.27	103.25
220.488	111.44
220.706	88.92
220.924	0.85
221.142	50
221.36	95.06
221.578	7
221.796	39.76
222.015	76.63
222.233	121.68
222.451	213.84
222.669	17.24
222.887	78.68
223.105	-7.34
223.323	39.76
223.541	-5.29
223.759	154.45
223.977	50
224.195	219.99
224.413	43.86
224.631	31.57
224.849	74.58
225.067	232.27
225.285	0.85
225.503	-36.01
225.721	-95.4
225.939	33.62
226.157	47.96
226.375	275.28
226.592	-60.59
226.81	72.53
227.028	58.2
227.246	125.78
227.464	105.3
227.682	121.68
227.9	78.68
228.117	54.1
228.335	84.82
228.553	99.16
228.771	43.86
228.989	50
229.206	97.11
229.424	-44.2
229.642	47.96
229.86	0.85
230.077	99.16
230.295	54.1
230.513	78.68
230.731	93.01
230.948	222.03
231.166	185.17
231.384	11.09
231.601	25.43
231.819	95.06
232.037	88.92
232.254	-1.19
232.472	27.48
232.689	-17.58
232.907	70.48
233.125	25.43
233.342	37.72
233.56	-11.43
233.777	45.91
233.995	-19.63
234.213	113.49
234.43	60.24
234.648	21.33
234.865	52.05
235.083	52.05
235.3	31.57
235.518	123.73
235.735	144.21
235.953	45.91
236.17	138.07
236.388	27.48
236.605	45.91
236.822	127.83
237.04	211.79
237.257	76.63
237.475	-72.87
237.692	62.29
237.909	80.72
238.127	-9.39
238.344	84.82
238.562	-11.43
238.779	-31.91
238.996	-42.15
239.214	-21.67
239.431	72.53
239.648	-7.34
239.865	41.81
240.083	101.2
240.3	23.38
240.517	4.95
240.735	58.2
240.952	117.59
241.169	41.81
241.386	121.68
241.603	-58.54
241.821	-50.35
242.038	105.3
242.255	107.35
242.472	23.38
242.689	123.73
242.907	103.25
243.124	43.86
243.341	66.39
243.558	-11.43
243.775	-40.11
243.992	-76.97
244.209	117.59
244.426	133.97
244.643	80.72
244.86	25.43
245.078	148.31
245.295	43.86
245.512	68.44
245.729	29.52
245.946	111.44
246.163	19.29
246.38	60.24
246.597	54.1
246.814	41.81
247.031	99.16
247.248	21.33
247.464	90.96
247.681	133.97
247.898	95.06
248.115	95.06
248.332	-36.01
248.549	78.68
248.766	99.16
248.983	82.77
249.2	62.29
249.417	95.06
249.633	15.19
249.85	109.4
250.067	80.72
250.284	78.68
250.501	35.67
250.717	109.4
250.934	29.52
251.151	23.38
251.368	47.96
251.585	125.78
251.801	41.81
252.018	-48.3
252.235	90.96
252.451	-1.19
252.668	103.25
252.885	185.17
253.102	60.24
253.318	7
253.535	9.05
253.752	-44.2
253.968	25.43
254.185	-99.5
254.401	72.53
254.618	174.93
254.835	88.92
255.051	82.77
255.268	56.15
255.484	101.2
255.701	-48.3
255.917	78.68
256.134	-33.96
256.351	-11.43
256.567	13.14
256.784	64.34
257	-76.97
257.217	109.4
257.433	107.35
257.65	37.72
257.866	68.44
258.082	-7.34
258.299	-23.72
258.515	-27.82
258.732	62.29
258.948	-7.34
259.165	133.97
259.381	-40.11
259.597	72.53
259.814	70.48
260.03	15.19
260.246	27.48
260.463	125.78
260.679	123.73
260.895	103.25
261.112	82.77
261.328	50
261.544	-23.72
261.761	156.5
261.977	50
262.193	-17.58
262.409	70.48
262.626	13.14
262.842	11.09
263.058	29.52
263.274	107.35
263.49	107.35
263.707	62.29
263.923	142.16
264.139	-60.59
264.355	127.83
264.571	111.44
264.787	45.91
265.004	148.31
265.22	19.29
265.436	-46.25
265.652	43.86
265.868	47.96
266.084	9.05
266.3	2.9
266.516	-19.63
266.732	72.53
266.948	33.62
267.164	-15.53
267.38	95.06
267.596	80.72
267.812	181.07
268.028	93.01
268.244	43.86
268.46	33.62
268.676	-11.43
268.892	60.24
269.108	41.81
269.324	-58.54
269.54	29.52
269.756	84.82
269.972	-89.26
270.188	37.72
270.403	23.38
270.619	-5.29
270.835	19.29
271.051	43.86
271.267	74.58
271.483	-1.19
271.698	185.17
271.914	142.16
272.13	95.06
272.346	35.67
272.562	70.48
272.777	136.02
272.993	-3.24
273.209	64.34
273.425	76.63
273.64	-76.97
273.856	101.2
274.072	-29.87
274.287	-62.63
274.503	58.2
274.719	41.81
274.934	54.1
275.15	-83.11
275.366	60.24
275.581	-13.48
275.797	52.05
276.012	66.39
276.228	15.19
276.444	84.82
276.659	39.76
276.875	-38.06
277.09	4.95
277.306	11.09
277.521	115.54
277.737	17.24
277.952	78.68
278.168	70.48
278.383	52.05
278.599	41.81
278.814	54.1
279.03	62.29
279.245	97.11
279.461	21.33
279.676	56.15
279.892	-64.68
280.107	27.48
280.322	-42.15
280.538	60.24
280.753	29.52
280.969	54.1
281.184	37.72
281.399	152.4
281.615	54.1
281.83	88.92
282.045	-66.73
282.26	-11.43
282.476	-7.34
282.691	101.2
282.906	105.3
283.122	86.87
283.337	78.68
283.552	64.34
283.767	72.53
283.983	123.73
284.198	-3.24
284.413	101.2
284.628	-5.29
284.843	52.05
285.058	50
285.274	21.33
285.489	-11.43
285.704	154.45
285.919	21.33
286.134	93.01
286.349	19.29
286.564	78.68
286.779	136.02
286.995	7
287.21	-97.45
287.425	121.68
287.64	-42.15
287.855	52.05
288.07	-81.07
288.285	129.88
288.5	101.2
288.715	41.81
288.93	-5.29
289.145	68.44
289.36	101.2
289.575	76.63
289.79	148.31
290.004	50
290.219	90.96
290.434	-25.77
290.649	-64.68
290.864	76.63
291.079	47.96
291.294	84.82
291.509	76.63
291.724	80.72
291.938	21.33
292.153	154.45
292.368	56.15
292.583	54.1
292.798	113.49
293.012	66.39
293.227	86.87
293.442	-21.67
293.657	109.4
293.871	119.64
294.086	78.68
294.301	117.59
294.516	101.2
294.73	80.72
294.945	-62.63
295.16	47.96
295.374	105.3
295.589	129.88
295.804	-42.15
296.018	78.68
296.233	154.45
296.447	93.01
296.662	11.09
296.877	146.26
297.091	60.24
297.306	131.92
297.52	25.43
297.735	82.77
297.949	72.53
298.164	58.2
298.378	54.1
298.593	-48.3
298.807	-66.73
299.022	13.14
299.236	101.2
299.451	-15.53
299.665	39.76
299.88	64.34
300.094	84.82
300.309	131.92
300.523	21.33
300.737	17.24
300.952	72.53
301.166	88.92
301.381	-25.77
301.595	39.76
301.809	25.43
302.024	70.48
302.238	-85.16
302.452	119.64
302.667	15.19
302.881	154.45
303.095	74.58
303.309	17.24
303.524	-62.63
303.738	25.43
303.952	41.81
304.166	111.44
304.381	-158.89
304.595	207.7
304.809	7
305.023	86.87
305.237	27.48
305.452	17.24
305.666	138.07
305.88	88.92
306.094	41.81
306.308	95.06
306.522	105.3
306.736	58.2
306.95	115.54
307.164	45.91
307.379	-13.48
307.593	117.59
307.807	176.98
308.021	123.73
308.235	115.54
308.449	-62.63
308.663	125.78
308.877	205.65
309.091	113.49
309.305	41.81
309.519	-89.26
309.733	152.4
309.947	-21.67
310.161	76.63
310.374	123.73
310.588	123.73
310.802	-101.55
311.016	9.05
311.23	52.05
311.444	-70.83
311.658	15.19
311.872	236.37
312.085	119.64
312.299	164.69
312.513	172.88
312.727	109.4
312.941	-40.11
313.154	21.33
313.368	31.57
313.582	23.38
313.796	-3.24
314.009	17.24
314.223	160.59
314.437	15.19
314.651	150.36
314.864	54.1
315.078	-15.53
315.292	19.29
315.505	25.43
315.719	64.34
315.933	131.92
316.146	9.05
316.36	15.19
316.573	52.05
316.787	152.4
317.001	136.02
317.214	43.86
317.428	37.72
317.641	-58.54
317.855	95.06
318.068	107.35
318.282	62.29
318.495	213.84
318.709	21.33
318.922	168.79
319.136	138.07
319.349	131.92
319.563	54.1
319.776	39.76
319.99	-62.63
320.203	170.83
320.417	15.19
320.63	105.3
320.843	285.52
321.057	39.76
321.27	-50.35
321.483	52.05
321.697	164.69
321.91	95.06
322.124	205.65
322.337	70.48
322.55	-76.97
322.763	97.11
322.977	4.95
323.19	37.72
323.403	15.19
323.617	62.29
323.83	107.35
324.043	15.19
324.256	88.92
324.469	-13.48
324.683	230.23
324.896	7
325.109	4.95
325.322	52.05
325.535	95.06
325.748	150.36
325.962	33.62
326.175	47.96
326.388	90.96
326.601	144.21
326.814	-44.2
327.027	80.72
327.24	109.4
327.453	-33.96
327.666	82.77
327.879	133.97
328.092	-27.82
328.305	68.44
328.518	60.24
328.731	11.09
328.944	31.57
329.157	101.2
329.37	43.86
329.583	219.99
329.796	199.51
330.009	-144.55
330.222	140.12
330.435	191.31
330.648	2.9
330.861	88.92
331.073	52.05
331.286	64.34
331.499	21.33
331.712	29.52
331.925	31.57
332.138	-25.77
332.35	99.16
332.563	-25.77
332.776	113.49
332.989	-40.11
333.202	39.76
333.414	19.29
333.627	2.9
333.84	-46.25
334.053	97.11
334.265	-42.15
334.478	43.86
334.691	31.57
334.903	27.48
335.116	-25.77
335.329	15.19
335.541	179.03
335.754	123.73
335.966	-36.01
336.179	58.2
336.392	99.16
336.604	93.01
336.817	158.55
337.029	90.96
337.242	41.81
337.454	146.26
337.667	80.72
337.88	109.4
338.092	72.53
338.305	99.16
338.517	74.58
338.729	64.34
338.942	193.36
339.154	7
339.367	19.29
339.579	9.05
339.792	19.29
340.004	109.4
340.217	-38.06
340.429	70.48
340.641	11.09
340.854	35.67
341.066	31.57
341.278	117.59
341.491	185.17
341.703	56.15
341.915	-23.72
342.128	115.54
342.34	-21.67
342.552	-1.19
342.764	88.92
342.977	45.91
343.189	113.49
343.401	17.24
343.613	-56.49
343.826	78.68
344.038	-48.3
344.25	45.91
344.462	17.24
344.674	82.77
344.886	31.57
345.099	13.14
345.311	70.48
345.523	19.29
345.735	-85.16
345.947	-11.43
346.159	117.59
346.371	101.2
346.583	62.29
346.795	203.6
347.007	33.62
347.219	68.44
347.431	43.86
347.643	78.68
347.855	56.15
348.067	133.97
348.279	-50.35
348.491	68.44
348.703	107.35
348.915	-5.29
349.127	23.38
349.339	90.96
349.551	17.24
349.763	123.73
349.975	88.92
350.187	148.31
350.399	150.36
350.61	29.52
350.822	39.76
351.034	-23.72
351.246	95.06
351.458	88.92
351.669	68.44
351.881	99.16
352.093	158.55
352.305	52.05
352.517	93.01
352.728	107.35
352.94	2.9
353.152	72.53
353.363	58.2
353.575	29.52
353.787	150.36
353.999	107.35
354.21	129.88
354.422	11.09
354.633	39.76
354.845	29.52
355.057	45.91
355.268	0.85
355.48	72.53
355.692	-7.34
355.903	78.68
356.115	-1.19
356.326	-101.55
356.538	185.17
356.749	50
356.961	146.26
357.172	101.2
357.384	93.01
357.595	185.17
357.807	19.29
358.018	33.62
358.23	78.68
358.441	211.79
358.653	60.24
358.864	17.24
359.075	-38.06
359.287	43.86
359.498	99.16
359.709	56.15
359.921	47.96
360.132	56.15
360.344	52.05
360.555	117.59
360.766	140.12
360.977	109.4
361.189	152.4
361.4	-52.39
361.611	164.69
361.823	158.55
362.034	9.05
362.245	-29.87
362.456	9.05
362.667	82.77
362.879	2.9
363.09	90.96
363.301	86.87
363.512	97.11
363.723	9.05
363.935	-33.96
364.146	133.97
364.357	-52.39
364.568	50
364.779	-7.34
364.99	82.77
365.201	4.95
365.412	119.64
365.623	-17.58
365.834	64.34
366.045	90.96
366.256	45.91
366.467	99.16
366.678	119.64
366.889	86.87
367.1	17.24
367.311	133.97
367.522	19.29
367.733	74.58
367.944	109.4
368.155	47.96
368.366	11.09
368.577	74.58
368.788	160.59
368.999	-62.63
369.209	43.86
369.42	189.27
369.631	265.04
369.842	109.4
370.053	-7.34
370.264	154.45
370.474	56.15
370.685	37.72
370.896	50
371.107	127.83
371.317	90.96
371.528	-15.53
371.739	99.16
371.95	144.21
372.16	95.06
372.371	-40.11
372.582	9.05
372.792	129.88
373.003	123.73
373.214	70.48
373.424	115.54
373.635	-15.53
373.846	109.4
374.056	-9.39
374.267	-3.24
374.477	109.4
374.688	-52.39
374.898	140.12
375.109	152.4
375.319	86.87
375.53	138.07
375.74	64.34
375.951	58.2
376.161	50
376.372	90.96
376.582	39.76
376.793	56.15
377.003	-58.54
377.214	31.57
377.424	33.62
377.635	25.43
377.845	88.92
378.055	150.36
378.266	-56.49
378.476	-13.48
378.686	19.29
378.897	4.95
379.107	115.54
379.317	52.05
379.528	25.43
379.738	160.59
379.948	-25.77
380.158	99.16
380.369	37.72
380.579	35.67
380.789	105.3
380.999	144.21
381.21	70.48
381.42	238.42
381.63	84.82
381.84	70.48
382.05	95.06
382.261	111.44
382.471	211.79
382.681	66.39
382.891	217.94
383.101	15.19
383.311	-15.53
383.521	50
383.731	82.77
383.941	111.44
384.151	11.09
384.361	62.29
384.571	99.16
384.781	62.29
384.991	142.16
385.201	211.79
385.411	144.21
385.621	97.11
385.831	95.06
386.041	74.58
386.251	66.39
386.461	150.36
386.671	41.81
386.881	-3.24
387.091	129.88
387.301	142.16
387.511	4.95
387.72	111.44
387.93	111.44
388.14	-101.55
388.35	156.5
388.56	113.49
388.769	230.23
388.979	-5.29
389.189	21.33
389.399	66.39
389.609	58.2
389.818	201.55
390.028	90.96
390.238	-60.59
390.447	-62.63
390.657	66.39
390.867	54.1
391.076	-97.45
391.286	95.06
391.496	11.09
391.705	56.15
391.915	80.72
392.125	131.92
392.334	2.9
392.544	80.72
392.753	7
392.963	37.72
393.172	74.58
393.382	-56.49
393.591	162.64
393.801	142.16
394.01	133.97
394.22	103.25
394.429	25.43
394.639	-36.01
394.848	117.59
395.058	72.53
395.267	125.78
395.477	103.25
395.686	76.63
395.895	185.17
396.105	203.6
396.314	43.86
396.524	90.96
396.733	29.52
396.942	76.63
397.152	80.72
397.361	158.55
397.57	56.15
397.78	160.59
397.989	90.96
398.198	142.16
398.407	-11.43
398.617	58.2
398.826	47.96
399.035	47.96
399.244	183.12
399.453	70.48
399.663	74.58
399.872	43.86
400.081	-29.87
400.29	121.68
400.499	-70.83
400.708	84.82
400.917	41.81
401.127	31.57
401.336	111.44
401.545	142.16
401.754	168.79
401.963	123.73
402.172	60.24
402.381	35.67
402.59	84.82
402.799	105.3
403.008	84.82
403.217	70.48
403.426	54.1
403.635	-83.11
403.844	23.38
404.053	50
404.262	-11.43
404.471	230.23
404.68	90.96
404.888	115.54
405.097	70.48
405.306	2.9
405.515	162.64
405.724	23.38
405.933	72.53
406.142	78.68
406.35	172.88
406.559	25.43
406.768	62.29
406.977	160.59
407.185	150.36
407.394	70.48
407.603	-23.72
407.812	54.1
408.02	142.16
408.229	101.2
408.438	43.86
408.646	-42.15
408.855	64.34
409.064	95.06
409.272	17.24
409.481	86.87
409.69	23.38
409.898	4.95
410.107	54.1
410.315	97.11
410.524	23.38
410.733	121.68
410.941	121.68
411.15	56.15
411.358	148.31
411.567	144.21
411.775	-5.29
411.984	52.05
412.192	156.5
412.401	19.29
412.609	283.47
412.818	103.25
413.026	78.68
413.234	62.29
413.443	78.68
413.651	-15.53
413.86	9.05
414.068	197.46
414.276	217.94
414.485	-13.48
414.693	287.57
414.901	172.88
415.11	43.86
415.318	-1.19
415.526	50
415.734	97.11
415.943	74.58
416.151	74.58
416.359	97.11
416.567	103.25
416.776	103.25
416.984	90.96
417.192	211.79
417.4	11.09
417.608	43.86
417.817	11.09
418.025	160.59
418.233	170.83
418.441	4.95
418.649	58.2
418.857	23.38
419.065	168.79
419.273	54.1
419.481	72.53
419.689	88.92
419.897	-11.43
420.105	50
420.313	109.4
420.521	146.26
420.729	160.59
420.937	45.91
421.145	15.19
421.353	78.68
421.561	152.4
421.769	119.64
421.977	60.24
422.185	86.87
422.393	105.3
422.601	176.98
422.809	113.49
423.017	119.64
423.224	78.68
423.432	119.64
423.64	54.1
423.848	246.61
424.056	-89.26
424.263	140.12
424.471	35.67
424.679	193.36
424.887	35.67
425.094	189.27
425.302	47.96
425.51	-46.25
425.718	211.79
425.925	101.2
426.133	19.29
426.341	217.94
426.548	90.96
426.756	90.96
426.964	70.48
427.171	-58.54
427.379	31.57
427.586	140.12
427.794	164.69
428.001	201.55
428.209	62.29
428.417	234.32
428.624	148.31
428.832	189.27
429.039	90.96
429.247	90.96
429.454	127.83
429.662	226.13
429.869	152.4
430.076	93.01
430.284	68.44
430.491	183.12
430.699	140.12
430.906	246.61
431.114	136.02
431.321	166.74
431.528	131.92
431.736	179.03
431.943	306
432.15	183.12
432.358	285.52
432.565	289.62
432.772	103.25
432.979	219.99
433.187	183.12
433.394	303.95
433.601	72.53
433.808	322.38
434.016	258.9
434.223	240.47
434.43	242.51
434.637	394.06
434.844	273.23
435.052	308.05
435.259	299.86
435.466	402.26
435.673	275.28
435.88	279.38
436.087	439.12
436.294	439.12
436.501	381.78
436.708	287.57
436.915	355.15
437.122	451.41
437.329	289.62
437.537	361.3
437.743	273.23
437.95	500.56
438.157	389.97
438.364	518.99
438.571	488.27
438.778	549.71
438.985	607.05
439.192	559.95
439.399	512.85
439.606	637.77
439.813	648.01
440.02	639.82
440.227	756.55
440.433	738.12
440.64	631.63
440.847	521.04
441.054	764.75
441.261	817.99
441.467	811.85
441.674	664.4
441.881	750.41
442.088	785.23
442.294	897.86
442.501	922.44
442.708	922.44
442.914	955.21
443.121	971.59
443.328	1022.79
443.534	1080.13
443.741	1106.76
443.948	1117
444.154	1270.59
444.361	1440.58
444.568	1311.55
444.774	1299.27
444.981	1200.96
445.187	1407.81
445.394	1329.99
445.6	1424.19
445.807	1688.38
446.013	1516.35
446.22	1567.55
446.426	1680.19
446.633	1751.87
446.839	2040.63
447.046	1717.05
447.252	2061.11
447.459	1958.71
447.665	1952.57
447.871	2192.18
448.078	2265.91
448.284	2337.59
448.491	2362.16
448.697	2589.49
448.903	2655.02
449.11	2706.22
449.316	2763.56
449.522	2947.88
449.728	2898.73
449.935	3132.2
450.141	3142.44
450.347	3359.52
450.553	3322.66
450.76	3506.98
450.966	3732.25
451.172	3609.37
451.378	3943.19
451.584	3912.47
451.791	4289.3
451.997	4381.46
452.203	4461.33
452.409	4702.99
452.615	4911.88
452.821	4739.85
453.027	4598.54
453.233	5395.2
453.44	5309.19
453.646	5579.52
453.852	5679.87
454.058	6099.7
454.264	6169.34
454.47	6646.51
454.676	6757.1
454.882	7293.67
455.088	6812.4
455.294	7338.73
455.5	7959.26
455.705	8291.03
455.911	8286.93
456.117	8446.68
456.323	8745.68
456.529	8807.12
456.735	9663.17
456.941	9806.53
457.147	10146.49
457.352	10457.78
457.558	10828.46
457.764	11379.37
457.97	11676.32
458.176	12094.11
458.381	12925.58
458.587	12898.96
458.793	13650.57
458.999	13793.92
459.204	15288.94
459.41	16122.46
459.616	15737.45
459.821	16661.08
460.027	17361.48
460.233	18129.47
460.438	18166.34
460.644	19167.79
460.85	19413.55
461.055	20320.8
461.261	21084.69
461.466	20812.31
461.672	21203.47
461.878	23601.65
462.083	23325.17
462.289	23994.86
462.494	25065.94
462.7	25061.85
462.905	25500.11
463.111	27785.65
463.316	28615.07
463.522	29747.6
463.727	30419.33
463.932	31711.6
464.138	32553.32
464.343	33927.5
464.549	33909.07
464.754	35850.55
464.959	37081.38
465.165	37560.6
465.37	37323.04
465.575	37759.25
465.781	40028.4
465.986	41552.09
466.191	40380.65
466.397	41191.65
466.602	40042.74
466.807	42592.46
467.012	42932.42
467.218	43575.48
467.423	43745.47
467.628	44841.13
467.833	47392.9
468.038	46557.33
468.244	45791.39
468.449	47437.95
468.654	47147.14
468.859	46663.82
469.064	46833.8
469.269	45678.75
469.474	46090.39
469.679	47698.05
469.885	45893.79
470.09	46579.85
470.295	46885
470.5	45797.53
470.705	46342.29
470.91	44968.1
471.115	44372.14
471.32	45330.59
471.525	44800.17
471.73	43198.66
471.935	43385.02
472.139	42047.7
472.344	41674.97
472.549	41326.81
472.754	40835.3
472.959	39938.29
473.164	38455.56
473.369	37773.59
473.574	38932.74
473.778	37949.71
473.983	37361.95
474.188	36929.83
474.393	35146.05
474.598	34568.52
474.802	34593.09
475.007	33753.43
475.212	33458.52
475.417	32059.76
475.621	31572.34
475.826	31826.29
476.031	30695.81
476.235	30132.62
476.44	30034.32
476.645	29469.08
476.849	29200.79
477.054	28740
477.259	27756.97
477.463	27920.81
477.668	27247.03
477.872	27146.68
478.077	26427.84
478.282	25508.3
478.486	25661.9
478.691	25207.25
478.895	25049.56
479.1	24838.62
479.304	24965.59
479.509	23785.96
479.713	24388.07
479.918	23816.68
480.122	23267.83
480.326	23454.19
480.531	23302.64
480.735	22925.82
480.94	22784.51
481.144	23491.05
481.348	22272.51
481.553	22413.82
481.757	21762.57
481.961	22049.28
482.166	22225.41
482.37	21830.15
482.574	21269.01
482.778	21289.49
482.983	21525
483.187	21002.77
483.391	21062.16
483.595	20677.15
483.8	20228.64
484.004	20511.26
484.208	20462.11
484.412	20146.72
484.616	19927.59
484.821	19544.62
485.025	19212.85
485.229	19388.97
485.433	18883.13
485.637	18870.84
485.841	18453.05
486.045	18117.18
486.249	18008.64
486.453	17707.59
486.657	17467.98
486.861	17218.13
487.065	16677.46
487.269	17087.06
487.473	15999.59
487.677	16296.54
487.881	16298.59
488.085	15663.72
488.289	15495.78
488.493	14922.35
488.697	15204.97
488.901	14875.25
489.105	14391.93
489.309	14334.59
489.512	14121.6
489.716	13677.19
489.92	13546.12
490.124	13195.92
490.328	13202.06
490.531	12755.6
490.735	12602.01
490.939	12343.96
491.143	11819.68
491.346	11713.19
491.55	11915.94
491.754	11610.79
491.958	11588.26
492.161	11068.08
492.365	10861.23
492.569	10717.87
492.772	10511.03
492.976	10850.99
493.18	10416.82
493.383	10472.12
493.587	10197.69
493.79	10183.35
493.994	9796.29
494.197	9728.7
494.401	9822.91
494.605	9728.7
494.808	9456.33
495.012	9401.03
495.215	9634.5
495.419	9347.78
495.622	9102.03
495.825	9280.2
496.029	8999.63
496.232	9093.83
496.436	9102.03
496.639	9163.47
496.843	9075.4
497.046	9196.23
497.249	9265.86
497.453	9077.45
497.656	9147.08
497.859	8966.86
498.063	8932.05
498.266	9067.21
498.469	9032.4
498.673	9081.55
498.876	9224.9
499.079	9200.33
499.282	9075.4
499.485	9378.5
499.689	9253.58
499.892	9468.61
500.095	9433.8
500.298	9616.07
500.501	9284.3
500.705	9755.33
500.908	9827.01
501.111	9884.35
501.314	9820.86
501.517	9882.3
501.72	9988.8
501.923	9986.75
502.126	10046.14
502.329	10379.96
502.532	10265.27
502.735	10713.78
502.938	10863.28
503.141	10945.2
503.344	10994.35
503.547	11231.91
503.75	11236.01
503.953	11319.98
504.156	11532.97
504.359	11668.13
504.562	11743.91
504.765	11907.74
504.968	12262.04
505.17	12268.19
505.373	12350.1
505.576	12876.43
505.779	12845.71
505.982	13175.44
506.185	13408.9
506.387	13341.32
506.59	13867.65
506.793	14045.82
506.996	13957.76
507.198	14727.8
507.401	14934.64
507.604	15088.24
507.807	15512.17
508.009	15759.97
508.212	15888.99
508.415	16278.11
508.617	16538.2
508.82	16763.48
509.022	16915.03
509.225	17764.93
509.428	17963.59
509.63	18129.47
509.833	18336.32
510.035	19302.96
510.238	19425.84
510.44	19497.52
510.643	20322.85
510.845	20994.58
511.048	20906.52
511.25	21385.74
511.453	21950.98
511.655	23110.13
511.858	23214.58
512.06	23632.36
512.262	24041.96
512.465	24754.65
512.667	25121.24
512.87	25844.17
513.072	26112.45
513.274	26810.81
513.477	27646.38
513.679	28232.1
513.881	28649.89
514.084	29159.83
514.286	29876.62
514.488	30405
514.69	31785.33
514.893	31971.69
515.095	32487.78
515.297	33411.42
515.499	34072.91
515.701	34613.57
515.904	35547.45
516.106	36184.37
516.308	37110.05
516.51	37818.64
516.712	37718.29
516.914	38580.49
517.116	39856.37
517.318	40372.46
517.52	40958.18
517.722	41519.32
517.925	42389.71
518.127	43538.62
518.329	44271.79
518.531	44224.69
518.733	45322.4
518.935	46536.85
519.136	47100.04
519.338	47526.02
519.54	48586.86
519.742	49035.37
519.944	49907.8
520.146	50581.59
520.348	50884.68
520.55	51777.6
520.752	52205.62
520.954	53514.28
521.155	52719.66
521.357	53790.75
521.559	54478.87
521.761	55625.73
521.963	55255.05
522.164	56096.77
522.366	56313.85
522.568	56987.63
522.77	56909.81
522.971	58431.45
523.173	57667.56
523.375	58253.28
523.576	58263.52
523.778	58769.36
523.98	59148.24
524.181	59742.15
524.383	59606.98
524.584	59928.51
524.786	60073.92
524.988	59787.21
525.189	60377.02
525.391	60303.29
525.592	60633.02
525.794	60581.82
525.995	60489.66
526.197	60434.36
526.398	60434.36
526.6	60598.2
526.801	60379.07
527.003	60471.23
527.204	59656.14
527.406	60065.73
527.607	59506.63
527.808	59557.83
528.01	58539.99
528.211	58560.47
528.412	58945.49
528.614	58189.79
528.815	57874.4
529.016	57743.33
529.218	56829.94
529.419	56662
529.62	55932.93
529.822	55390.22
530.023	54888.46
530.224	54667.28
530.425	54073.37
530.626	53442.6
530.828	52723.76
531.029	53221.42
531.23	51734.59
531.431	50952.27
531.632	51300.42
531.833	50542.67
532.035	49854.56
532.236	49637.47
532.437	48971.88
532.638	48070.78
532.839	47851.64
533.04	47507.58
533.241	46420.11
533.442	46497.94
533.643	45244.58
533.844	44828.84
534.045	44638.38
534.246	43677.88
534.447	43116.74
534.648	42229.97
534.849	42275.02
535.05	41298.14
535.251	41021.67
535.451	40343.79
535.652	39846.13
535.853	39524.6
536.054	38967.55
536.255	38695.17
536.456	37320.99
536.657	37648.66
536.857	36702.5
537.058	36006.19
537.259	35840.31
537.46	35797.3
537.66	34984.26
537.861	34931.01
538.062	34249.03
538.263	33904.98
538.463	33032.54
538.664	32672.1
538.865	32176.49
539.065	32379.24
539.266	31320.44
539.466	31799.66
539.667	30865.79
539.868	31054.2
540.068	30460.29
540.269	29962.64
540.469	29575.57
540.67	29483.41
540.87	29090.2
541.071	28746.14
541.271	28203.43
541.472	27941.29
541.672	27842.99
541.873	27167.16
542.073	26630.59
542.274	26988.99
542.474	26294.72
542.675	25792.97
542.875	26212.81
543.075	25598.41
543.276	24977.88
543.476	25291.22
543.676	24615.39
543.877	24697.31
544.077	24525.28
544.277	24095.21
544.478	23675.37
544.678	23497.2
544.878	23263.73
545.078	23032.31
545.279	22622.72
545.479	22497.79
545.679	21991.94
545.879	22071.81
546.079	21881.35
546.28	21377.55
546.48	20929.05
546.68	21101.08
546.88	20656.67
547.08	20242.98
547.28	20142.63
547.48	19821.09
547.68	19509.8
547.88	19380.78
548.081	19331.63
548.281	19094.07
548.481	18743.86
548.681	18786.87
548.881	18434.62
549.081	18190.91
549.28	17893.96
549.48	17961.54
549.68	17396.3
549.88	17164.88
550.08	16880.21
550.28	16644.7
550.48	16720.47
550.68	16536.15
550.88	15968.87
551.08	15940.19
551.279	15612.52
551.479	15444.59
551.679	15344.24
551.879	14934.64
552.079	14948.98
552.278	14670.45
552.478	14539.38
552.678	14160.51
552.878	14054.01
553.077	13877.89
553.277	13193.87
553.477	13369.99
553.676	13103.76
553.876	13081.23
554.076	12460.7
554.275	12438.17
554.475	12102.3
554.674	12280.47
554.874	11942.56
555.074	11774.63
555.273	11657.89
555.473	11592.36
555.672	11127.47
555.872	11000.49
556.071	10924.72
556.271	11090.6
556.47	10293.94
556.67	10392.25
556.869	10068.67
557.068	10230.46
557.268	10072.76
557.467	9788.1
557.667	9743.04
557.866	9274.06
558.065	9251.53
558.265	9163.47
558.464	8884.94
558.663	9026.25
558.863	8514.26
559.062	8655.57
559.261	8340.18
559.461	8368.85
559.66	7989.98
559.859	8012.51
560.058	7815.9
560.258	7838.43
560.457	7865.05
560.656	7682.78
560.855	7402.21
561.054	7426.79
561.253	7260.9
561.453	7187.18
561.652	7113.45
561.851	6882.03
562.05	6857.45
562.249	6406.9
562.448	6787.82
562.647	6400.76
562.846	6445.81
563.045	6339.32
563.244	6159.1
563.443	6187.77
563.642	6095.61
563.841	6046.46
564.04	5747.45
564.239	6134.52
564.438	5661.44
564.637	5575.42
564.836	5595.9
565.035	5427.97
565.234	5305.09
565.432	5329.67
565.631	5233.41
565.83	5292.8
566.029	5047.05
566.228	5088.01
566.427	5022.47
566.625	4737.81
566.824	4875.02
567.023	4815.63
567.222	4778.76
567.42	4686.61
567.619	4592.4
567.818	4541.2
568.016	4483.86
568.215	4234
568.414	4373.27
568.612	4377.36
568.811	4111.13
569.01	4258.58
569.208	3955.48
569.407	3937.05
569.605	3885.85
569.804	3949.34
570.002	3840.79
570.201	3732.25
570.4	3740.44
570.598	3560.22
570.797	3558.18
570.995	3527.46
571.193	3429.15
571.392	3478.3
571.59	3416.87
571.789	3375.91
571.987	3320.61
572.186	3267.36
572.384	3218.21
572.582	3177.25
572.781	3124.01
572.979	2976.55
573.177	3234.6
573.376	2988.84
573.574	2927.4
573.772	2831.15
573.971	2890.54
574.169	2687.79
574.367	2730.8
574.565	2743.08
574.763	2679.6
574.962	2698.03
575.16	2591.53
575.358	2448.18
575.556	2462.51
575.754	2517.81
575.952	2419.5
576.151	2366.26
576.349	2345.78
576.547	2190.13
576.745	2413.36
576.943	2341.68
577.141	2186.04
577.339	2071.35
577.537	2171.7
577.735	2243.38
577.933	2124.6
578.131	2208.56
578.329	2065.21
578.527	2059.06
578.725	1989.43
578.923	1852.22
579.121	2016.05
579.319	1825.59
579.516	1784.63
579.714	2003.77
579.912	1817.4
580.11	1647.42
580.308	1733.43
580.506	1737.53
580.704	1450.82
580.901	1682.24
581.099	1766.2
581.297	1641.28
581.495	1522.49
581.692	1577.79
581.89	1655.61
582.088	1432.38
582.285	1553.21
582.483	1530.69
582.681	1530.69
582.878	1420.1
583.076	1465.15
583.274	1446.72
583.471	1481.53
583.669	1295.17
583.866	1305.41
584.064	1420.1
584.262	1219.39
584.459	1246.02
584.657	1385.28
584.854	1258.31
585.052	1293.12
585.249	1338.18
585.447	1264.45
585.644	1090.37
585.841	1293.12
586.039	1188.68
586.236	1186.63
586.434	1133.38
586.631	1213.25
586.828	1121.09
587.026	1086.28
587.223	1092.42
587.42	1010.5
587.618	1069.89
587.815	1174.34
588.012	1078.08
588.21	969.54
588.407	1112.9
588.604	990.02
588.801	817.99
588.999	1057.61
589.196	1022.79
589.393	1000.26
589.59	1010.5
589.787	953.16
589.984	936.78
590.182	936.78
590.379	846.66
590.576	940.87
590.773	758.6
590.97	875.34
591.167	906.06
591.364	926.54
591.561	844.62
591.758	936.78
591.955	963.4
592.152	899.91
592.349	895.82
592.546	801.61
592.743	830.28
592.94	799.56
593.137	863.05
593.334	932.68
593.531	928.58
593.727	934.73
593.924	951.11
594.121	856.9
594.318	861
594.515	1014.6
594.712	1035.08
594.908	1010.5
595.105	811.85
595.302	1084.23
595.499	1104.71
595.696	1151.81
595.892	899.91
596.089	1090.37
596.286	942.92
596.482	1176.39
596.679	1176.39
596.876	1102.66
597.072	1235.78
597.269	1215.3
597.466	1200.96
597.662	1252.16
597.859	1252.16
598.055	1360.7
598.252	1313.6
598.448	1524.54
598.645	1684.28
598.841	1514.3
599.038	1633.08
599.234	1762.11
599.431	1764.15
599.627	1753.91
599.824	1868.6
600.02	1930.04
600.217	1985.34
600.413	2218.8
600.609	2169.65
600.806	2497.33
601.002	2380.59
601.198	2343.73
601.395	2569.01
601.591	2583.34
601.787	2612.01
601.984	2810.67
602.18	2954.02
602.376	3064.61
602.572	3142.44
602.769	3218.21
602.965	3336.99
603.161	3537.7
603.357	3738.4
603.553	3707.68
603.75	3748.64
603.946	3945.24
604.142	4012.82
604.338	4293.4
604.534	4289.3
604.73	4473.62
604.926	4483.86
605.122	4754.19
605.318	4854.54
605.514	5024.52
605.71	5094.15
605.906	5475.07
606.102	5628.67
606.298	5837.56
606.494	5868.28
606.69	6044.41
606.886	6163.19
607.082	6374.13
607.278	6484.72
607.474	6712.05
607.67	6963.95
607.866	7033.58
608.062	7525.09
608.257	7658.21
608.453	7766.75
608.649	7826.14
608.845	8092.38
609.041	8325.85
609.236	8719.06
609.432	8827.6
609.628	9118.41
609.824	9206.47
610.019	9632.45
610.215	9956.03
610.411	10238.65
610.606	10525.36
610.802	10662.58
610.998	11104.94
611.193	11362.98
611.389	11610.79
611.584	11975.33
611.78	12063.39
611.976	12642.96
612.171	12933.78
612.367	13148.81
612.562	13548.17
612.758	13679.24
612.953	14045.82
613.149	14506.62
613.344	14877.3
613.539	15377
613.735	15854.18
613.93	16419.42
614.126	16429.66
614.321	17046.1
614.517	17635.91
614.712	17699.4
614.907	18250.3
615.103	18821.69
615.298	19368.49
615.493	19925.54
615.688	20150.82
615.884	21037.59
616.079	21254.67
616.274	22223.36
616.47	22315.52
616.665	23151.09
616.86	23525.87
617.055	24095.21
617.25	24525.28
617.445	25690.57
617.641	25645.52
617.836	27001.27
618.031	27302.32
618.226	27986.35
618.421	28596.64
618.616	29682.06
618.811	29870.48
619.006	30556.55
619.201	30730.62
619.396	32438.63
619.591	31869.3
619.786	33372.5
619.981	33571.16
620.176	34855.23
620.371	35182.91
620.566	36077.87
620.761	36948.26
620.956	37787.92
621.151	38029.59
621.346	39239.93
621.541	39467.26
621.735	40331.5
621.93	40636.65
622.125	41976.02
622.32	41988.31
622.515	43380.93
622.709	43972.79
622.904	45240.48
623.099	45443.23
623.294	46620.81
623.488	47106.18
623.683	48154.74
623.878	48048.25
624.072	49506.4
624.267	50458.71
624.462	50815.05
624.656	51341.38
624.851	52418.61
625.046	52897.84
625.24	53848.1
625.435	54245.4
625.629	55015.44
625.824	55242.76
626.018	55891.97
626.213	56020.99
626.407	57907.17
626.602	57397.23
626.796	58410.97
626.991	58855.38
627.185	59080.66
627.38	59252.69
627.574	59230.16
627.768	60004.29
627.963	59619.27
628.157	59944.9
628.352	60792.76
628.546	59670.47
628.74	60565.43
628.935	59912.13
629.129	59756.49
629.323	59076.56
629.517	59166.67
629.712	58890.19
629.906	58249.18
630.1	57554.92
630.294	57128.94
630.489	56236.03
630.683	55867.39
630.877	54317.08
631.071	53463.08
631.265	53227.56
631.459	51849.28
631.653	50499.67
631.848	49414.24
632.042	48490.61
632.236	47696
632.43	45467.81
632.624	45064.36
632.818	42893.51
633.012	41480.41
633.206	40380.65
633.4	39696.63
633.594	37404.95
633.788	36964.64
633.982	35662.13
634.176	34138.44
634.369	32751.97
634.563	31814
634.757	30083.47
634.951	29286.81
635.145	28297.64
635.339	27398.58
635.533	25766.35
635.726	24988.12
635.92	23667.18
636.114	22784.51
636.308	21737.99
636.501	21068.31
636.695	20116
636.889	19161.65
637.083	18780.73
637.276	17828.42
637.47	17039.95
637.664	16581.21
637.857	15778.4
638.051	15055.47
638.244	14498.42
638.438	13902.47
638.632	13380.23
638.825	12632.72
639.019	12399.26
639.212	11811.49
639.406	11453.09
639.599	10754.74
639.793	10502.84
639.986	9915.07
640.18	9761.47
640.373	9374.41
640.567	8862.41
640.76	8897.23
640.954	8411.86
641.147	7797.47
641.34	7774.94
641.534	7502.56
641.727	7213.8
641.92	6804.21
642.114	6570.74
642.307	6441.72
642.5	6298.36
642.694	5886.72
642.887	5481.22
643.08	5468.93
643.273	5374.72
643.467	5294.85
643.66	4827.92
643.853	4672.27
644.046	4483.86
644.239	4258.58
644.432	4078.36
644.626	3932.95
644.819	3838.75
645.012	3863.32
645.205	3656.48
645.398	3527.46
645.591	3334.95
645.784	3271.46
645.977	2951.98
646.17	2954.02
646.363	2825
646.556	2579.25
646.749	2532.14
646.942	2556.72
647.135	2509.62
647.328	2253.62
647.521	2222.9
647.714	2089.78
647.907	2235.19
648.099	1964.86
648.292	1954.62
648.485	1942.33
648.678	1790.78
648.871	1647.42
649.064	1612.6
649.256	1530.69
649.449	1475.39
649.642	1368.9
649.835	1352.51
650.027	1319.75
650.22	1379.14
650.413	1321.79
650.605	1297.22
650.798	1211.2
650.991	1209.15
651.183	1164.1
651.376	1149.76
651.568	1166.15
651.761	998.21
651.954	1119.04
652.146	848.71
652.339	1063.75
652.531	1073.99
652.724	856.9
652.916	764.75
653.109	699.21
653.301	912.2
653.494	811.85
653.686	777.03
653.879	777.03
654.071	721.74
654.263	719.69
654.456	635.72
654.648	727.88
654.84	715.59
655.033	625.48
655.225	756.55
655.417	598.86
655.61	756.55
655.802	629.58
655.994	703.31
656.186	562
656.379	523.09
656.571	527.18
656.763	457.55
656.955	461.65
657.148	455.5
657.34	615.24
657.532	432.97
657.724	418.64
657.916	506.7
658.108	525.13
658.3	389.97
658.492	475.98
658.684	332.62
658.876	482.13
659.068	297.81
659.26	344.91
659.452	224.08
659.644	346.96
659.836	447.31
660.028	316.24
660.22	295.76
660.412	375.63
660.604	334.67
660.796	326.48
660.988	420.69
661.18	387.92
661.372	314.19
661.563	258.9
661.755	306
661.947	115.54
662.139	215.89
662.331	279.38
662.522	250.71
662.714	176.98
662.906	283.47
663.097	222.03
663.289	250.71
663.481	125.78
663.673	228.18
663.864	191.31
664.056	260.95
664.247	222.03
664.439	336.72
664.631	193.36
664.822	230.23
665.014	191.31
665.205	127.83
665.397	146.26
665.588	162.64
665.78	230.23
665.971	215.89
666.163	174.93
666.354	232.27
666.546	125.78
666.737	179.03
666.929	142.16
667.12	158.55
667.311	222.03
667.503	170.83
667.694	246.61
667.885	250.71
668.077	209.75
668.268	-38.06
668.459	117.59
668.651	119.64
668.842	252.75
669.033	125.78
669.224	90.96
669.416	332.62
669.607	133.97
669.798	127.83
669.989	326.48
670.18	78.68
670.371	189.27
670.563	45.91
670.754	260.95
670.945	129.88
671.136	254.8
671.327	107.35
671.518	232.27
671.709	226.13
671.9	203.6
672.091	262.99
672.282	123.73
672.473	136.02
672.664	105.3
672.855	154.45
673.046	93.01
673.237	191.31
673.428	103.25
673.619	199.51
673.809	127.83
674	285.52
674.191	238.42
674.382	113.49
674.573	125.78
674.764	195.41
674.954	203.6
675.145	93.01
675.336	125.78
675.527	152.4
675.717	66.39
675.908	136.02
676.099	107.35
676.289	140.12
676.48	39.76
676.671	156.5
676.861	99.16
677.052	160.59
677.243	195.41
677.433	103.25
677.624	168.79
677.814	168.79
678.005	150.36
678.195	320.34
678.386	64.34
678.576	152.4
678.767	23.38
678.957	146.26
679.148	252.75
679.338	283.47
679.529	203.6
679.719	166.74
679.909	320.34
680.1	211.79
680.29	207.7
680.481	93.01
680.671	285.52
680.861	211.79
681.052	136.02
681.242	95.06
681.432	181.07
681.622	183.12
681.813	82.77
682.003	195.41
682.193	230.23
682.383	205.65
682.573	154.45
682.764	193.36
682.954	193.36
683.144	281.43
683.334	142.16
683.524	150.36
683.714	203.6
683.904	222.03
684.094	172.88
684.284	181.07
684.474	285.52
684.664	232.27
684.854	230.23
685.044	217.94
685.234	240.47
685.424	236.37
685.614	121.68
685.804	385.87
685.994	289.62
686.184	222.03
686.374	121.68
686.564	344.91
686.753	238.42
686.943	74.58
687.133	123.73
687.323	250.71
687.513	230.23
687.702	176.98
687.892	254.8
688.082	289.62
688.272	293.71
688.461	250.71
688.651	394.06
688.841	238.42
689.03	232.27
689.22	217.94
689.41	330.58
689.599	234.32
689.789	166.74
689.979	359.25
690.168	172.88
690.358	310.1
690.547	260.95
690.737	254.8
690.926	246.61
691.116	93.01
691.305	234.32
691.495	318.29
691.684	72.53
691.874	258.9
692.063	152.4
692.252	242.51
692.442	353.1
692.631	174.93
692.82	275.28
693.01	242.51
693.199	232.27
693.388	242.51
693.578	213.84
693.767	355.15
693.956	291.66
694.146	285.52
694.335	232.27
694.524	183.12
694.713	256.85
694.902	152.4
695.092	224.08
695.281	242.51
695.47	170.83
695.659	154.45
695.848	158.55
696.037	187.22
696.226	303.95
696.415	187.22
696.604	230.23
696.793	320.34
696.982	195.41
697.171	351.06
697.36	191.31
697.549	236.37
697.738	115.54
697.927	197.46
698.116	222.03
698.305	316.24
698.494	262.99
698.683	176.98
698.872	375.63
699.061	201.55
699.25	252.75
699.438	215.89
699.627	156.5
699.816	314.19
700.005	136.02
700.193	203.6
700.382	293.71
700.571	308.05
700.76	258.9
700.948	306
701.137	250.71
701.326	238.42
701.514	209.75
701.703	281.43
701.892	258.9
702.08	383.82
702.269	215.89
702.457	213.84
702.646	326.48
702.834	133.97
703.023	303.95
703.212	297.81
703.4	260.95
703.589	215.89
703.777	248.66
703.965	226.13
704.154	244.56
704.342	187.22
704.531	246.61
704.719	209.75
704.907	291.66
705.096	115.54
705.284	154.45
705.472	230.23
705.661	191.31
705.849	224.08
706.037	271.19
706.226	258.9
706.414	209.75
706.602	127.83
706.79	246.61
706.979	160.59
707.167	289.62
707.355	68.44
707.543	322.38
707.731	215.89
707.919	224.08
708.107	193.36
708.296	140.12
708.484	78.68
708.672	217.94
708.86	265.04
709.048	203.6
709.236	148.31
709.424	271.19
709.612	222.03
709.8	148.31
709.988	283.47
710.176	353.1
710.364	318.29
710.551	181.07
710.739	207.7
710.927	195.41
711.115	301.9
711.303	293.71
711.491	342.86
711.679	224.08
711.866	346.96
712.054	179.03
712.242	254.8
712.43	338.77
712.617	193.36
712.805	265.04
712.993	217.94
713.181	76.63
713.368	277.33
713.556	209.75
713.744	205.65
713.931	392.02
714.119	205.65
714.306	199.51
714.494	211.79
714.682	260.95
714.869	146.26
715.057	176.98
715.244	222.03
715.432	258.9
715.619	176.98
715.807	211.79
715.994	217.94
716.182	250.71
716.369	351.06
716.556	332.62
716.744	201.55
716.931	193.36
717.119	285.52
717.306	285.52
717.493	201.55
717.681	158.55
717.868	199.51
718.055	359.25
718.242	289.62
718.43	310.1
718.617	273.23
718.804	230.23
718.991	295.76
719.179	312.14
719.366	287.57
719.553	228.18
719.74	252.75
719.927	342.86
720.114	258.9
720.301	205.65
720.488	172.88
720.676	230.23
720.863	377.68
721.05	418.64
721.237	248.66
721.424	330.58
721.611	269.14
721.798	136.02
721.985	234.32
722.172	256.85
722.358	283.47
722.545	426.83
722.732	308.05
722.919	410.45
723.106	320.34
723.293	281.43
723.48	254.8
723.667	258.9
723.853	404.3
724.04	357.2
724.227	377.68
724.414	256.85
724.6	332.62
724.787	287.57
724.974	461.65
725.161	232.27
725.347	207.7
725.534	205.65
725.72	236.37
725.907	299.86
726.094	248.66
726.28	289.62
726.467	238.42
726.653	269.14
726.84	330.58
727.027	455.5
727.213	308.05
727.4	291.66
727.586	219.99
727.773	365.39
727.959	252.75
728.145	215.89
728.332	254.8
728.518	273.23
728.705	303.95
728.891	312.14
729.077	308.05
729.264	299.86
729.45	250.71
729.636	389.97
729.823	285.52
730.009	371.54
730.195	293.71
730.382	365.39
730.568	281.43
730.754	297.81
730.94	248.66
731.126	287.57
731.313	414.54
731.499	219.99
731.685	377.68
731.871	357.2
732.057	312.14
732.243	361.3
732.429	334.67
732.615	432.97
732.801	392.02
732.987	324.43
733.173	336.72
733.359	316.24
733.545	371.54
733.731	375.63
733.917	398.16
734.103	379.73
734.289	287.57
734.475	254.8
734.661	445.26
734.847	252.75
735.033	330.58
735.219	396.11
735.404	330.58
735.59	265.04
735.776	279.38
735.962	312.14
736.148	338.77
736.333	541.52
736.519	351.06
736.705	275.28
736.89	340.82
737.076	312.14
737.262	244.56
737.447	314.19
737.633	291.66
737.819	375.63
738.004	330.58
738.19	279.38
738.375	355.15
738.561	428.88
738.747	287.57
738.932	209.75
739.118	469.84
739.303	437.07
739.489	404.3
739.674	254.8
739.859	324.43
740.045	361.3
740.23	392.02
740.416	105.3
740.601	353.1
740.786	385.87
740.972	308.05
741.157	213.84
741.342	234.32
741.528	211.79
741.713	400.21
741.898	322.38
742.084	357.2
742.269	322.38
742.454	459.6
742.639	416.59
742.824	312.14
743.01	365.39
743.195	430.93
743.38	369.49
743.565	308.05
743.75	344.91
743.935	381.78
744.12	408.4
744.305	174.93
744.49	312.14
744.675	312.14
744.86	281.43
745.045	316.24
745.23	359.25
745.415	289.62
745.6	394.06
745.785	209.75
745.97	455.5
746.155	377.68
746.34	361.3
746.525	330.58
746.71	359.25
746.895	242.51
747.079	324.43
747.264	277.33
747.449	410.45
747.634	279.38
747.819	392.02
748.003	332.62
748.188	222.03
748.373	361.3
748.557	285.52
748.742	207.7
748.927	279.38
749.111	246.61
749.296	281.43
749.481	314.19
749.665	238.42
749.85	205.65
750.034	252.75
750.219	291.66
750.404	301.9
750.588	336.72
750.773	195.41
750.957	306
751.141	279.38
751.326	338.77
751.51	228.18
751.695	176.98
751.879	230.23
752.064	392.02
752.248	236.37
752.432	250.71
752.617	260.95
752.801	379.73
752.985	193.36
753.17	211.79
753.354	242.51
753.538	217.94
753.722	230.23
753.907	226.13
754.091	174.93
754.275	299.86
754.459	158.55
754.643	222.03
754.828	213.84
755.012	252.75
755.196	117.59
755.38	125.78
755.564	183.12
755.748	240.47
755.932	301.9
756.116	289.62
756.3	301.9
756.484	156.5
756.668	215.89
756.852	123.73
757.036	170.83
757.22	176.98
757.404	166.74
757.588	189.27
757.772	285.52
757.956	203.6
758.14	346.96
758.323	185.17
758.507	203.6
758.691	187.22
758.875	269.14
759.059	260.95
759.242	152.4
759.426	201.55
759.61	260.95
759.794	125.78
759.977	328.53
760.161	451.41
760.345	273.23
760.528	273.23
760.712	232.27
760.895	201.55
761.079	140.12
761.263	179.03
761.446	133.97
761.63	146.26
761.813	213.84
761.997	125.78
762.18	150.36
762.364	226.13
762.547	88.92
762.731	185.17
762.914	166.74
763.098	119.64
763.281	109.4
763.464	127.83
763.648	103.25
763.831	133.97
764.015	107.35
764.198	133.97
764.381	193.36
764.564	183.12
764.748	131.92
764.931	156.5
765.114	115.54
765.297	154.45
765.481	33.62
765.664	164.69
765.847	150.36
766.03	250.71
766.213	31.57
766.397	150.36
766.58	72.53
766.763	224.08
766.946	119.64
767.129	97.11
767.312	58.2
767.495	125.78
767.678	66.39
767.861	123.73
768.044	142.16
768.227	142.16
768.41	88.92
768.593	170.83
768.776	199.51
768.959	148.31
769.142	189.27
769.324	170.83
769.507	103.25
769.69	64.34
769.873	136.02
770.056	367.44
770.239	152.4
770.421	224.08
770.604	138.07
770.787	142.16
770.97	160.59
771.152	62.29
771.335	160.59
771.518	52.05
771.7	189.27
771.883	199.51
772.066	72.53
772.248	93.01
772.431	199.51
772.613	142.16
772.796	74.58
772.978	142.16
773.161	273.23
773.343	125.78
773.526	90.96
773.708	17.24
773.891	54.1
774.073	156.5
774.256	82.77
774.438	187.22
774.621	-5.29
774.803	78.68
774.985	58.2
775.168	179.03
775.35	95.06
775.532	138.07
775.715	31.57
775.897	146.26
776.079	80.72
776.261	64.34
776.444	95.06
776.626	80.72
776.808	80.72
776.99	35.67
777.173	109.4
777.355	129.88
777.537	72.53
777.719	84.82
777.901	121.68
778.083	103.25
778.265	31.57
778.447	90.96
778.629	29.52
778.811	47.96
778.993	176.98
779.175	170.83
779.357	191.31
779.539	-3.24
779.721	72.53
779.903	191.31
780.085	13.14
780.267	90.96
780.449	39.76
780.631	172.88
780.812	97.11
780.994	19.29
781.176	31.57
781.358	54.1
781.54	148.31
781.721	150.36
781.903	125.78
782.085	86.87
782.267	115.54
782.448	-19.63
782.63	-31.91
782.812	105.3
782.993	70.48
783.175	64.34
783.357	95.06
783.538	52.05
783.72	-25.77
783.901	15.19
784.083	88.92
784.264	78.68
784.446	-72.87
784.627	-1.19
784.809	119.64
784.99	-54.44
785.172	90.96
785.353	111.44
785.535	133.97
785.716	47.96
785.897	15.19
786.079	90.96
786.26	33.62
786.441	88.92
786.623	-60.59
786.804	4.95
786.985	82.77
787.167	29.52
787.348	43.86
787.529	56.15
787.71	191.31
787.891	80.72
788.073	-15.53
788.254	-11.43
788.435	166.74
788.616	-13.48
788.797	11.09
788.978	58.2
789.159	-13.48
789.34	121.68
789.522	47.96
789.703	25.43
789.884	9.05
790.065	148.31
790.246	138.07
790.427	90.96
790.607	224.08
790.788	86.87
790.969	13.14
791.15	80.72
791.331	-3.24
791.512	119.64
791.693	-52.39
791.874	0.85
792.054	105.3
792.235	115.54
792.416	37.72
792.597	13.14
792.778	82.77
792.958	9.05
793.139	107.35
793.32	99.16
793.5	-48.3
793.681	142.16
793.862	160.59
794.042	62.29
794.223	-19.63
794.404	11.09
794.584	-99.5
794.765	21.33
794.945	17.24
795.126	97.11
795.306	50
795.487	29.52
795.667	66.39
795.848	76.63
796.028	43.86
796.209	-52.39
796.389	99.16
796.57	7
796.75	15.19
796.93	33.62
797.111	-76.97
797.291	0.85
797.471	-36.01
797.652	-40.11
797.832	25.43
798.012	129.88
798.192	-52.39
798.373	-9.39
798.553	82.77
798.733	11.09
798.913	-66.73
799.093	-58.54
799.274	107.35
799.454	41.81
799.634	129.88
799.814	99.16
799.994	97.11
800.174	4.95
800.354	31.57
800.534	-9.39
800.714	50
800.894	-72.87
801.074	-40.11
801.254	-48.3
801.434	136.02
801.614	33.62
801.794	27.48
801.974	2024.25
802.154	4.95
802.334	123.73
802.514	4.95
802.693	19.29
802.873	-5.29
803.053	152.4
803.233	56.15
803.413	-13.48
803.592	-21.67
803.772	45.91
803.952	21.33
804.131	29.52
804.311	105.3
804.491	146.26
804.67	9.05
804.85	21.33
805.03	31.57
805.209	66.39
805.389	-13.48
805.568	-13.48
805.748	-44.2
805.928	-7.34
806.107	121.68
806.287	-27.82
806.466	62.29
806.646	-9.39
806.825	-13.48
807.004	-52.39
807.184	31.57
807.363	123.73
807.543	84.82
807.722	35.67
807.901	138.07
808.081	27.48
808.26	-119.98
808.439	-5.29
808.619	15.19
808.798	-17.58
808.977	95.06
809.156	41.81
809.336	27.48
809.515	78.68
809.694	-40.11
809.873	-54.44
810.052	109.4
810.231	78.68
810.411	146.26
810.59	144.21
810.769	41.81
810.948	95.06
811.127	-72.87
811.306	-33.96
811.485	58.2
811.664	125.78
811.843	82.77
812.022	4.95
812.201	-58.54
812.38	21.33
812.559	23.38
812.737	60.24
812.916	-99.5
813.095	-38.06
813.274	88.92
813.453	21.33
813.632	84.82
813.811	84.82
813.989	-103.59
814.168	43.86
814.347	-81.07
814.526	4.95
814.704	113.49
814.883	226.13
815.062	9.05
815.24	97.11
815.419	-72.87
815.598	27.48
815.776	-62.63
815.955	68.44
816.133	-93.35
816.312	72.53
816.49	-9.39
816.669	47.96
816.847	-13.48
817.026	-50.35
817.204	-1.19
817.383	9.05
817.561	-1.19
817.74	107.35
817.918	4.95
818.097	-56.49
818.275	-56.49
818.453	82.77
818.632	41.81
818.81	39.76
818.988	-56.49
819.167	-42.15
819.345	0.85
819.523	-56.49
819.701	2.9
819.879	-15.53
820.058	-19.63
820.236	-7.34
820.414	19.29
820.592	4.95
820.77	66.39
820.948	0.85
821.127	-11.43
821.305	47.96
821.483	-66.73
821.661	11.09
821.839	35.67
822.017	-15.53
822.195	19.29
822.373	60.24
822.551	17.24
822.729	9.05
822.907	-13.48
823.085	103.25
823.262	25.43
823.44	-62.63
823.618	-19.63
823.796	62.29
823.974	60.24
824.152	-3.24
824.329	78.68
824.507	31.57
824.685	9.05
824.863	54.1
825.04	35.67
825.218	56.15
825.396	-19.63
825.574	-52.39
825.751	15.19
825.929	82.77
826.107	-83.11
826.284	-5.29
826.462	29.52
826.639	-111.78
826.817	-52.39
826.994	-27.82
827.172	-42.15
827.349	70.48
827.527	-19.63
827.704	64.34
827.882	39.76
828.059	45.91
828.237	-17.58
828.414	62.29
828.591	-138.41
828.769	-40.11
828.946	-23.72
829.124	88.92
829.301	140.12
829.478	-13.48
829.655	17.24
829.833	43.86
830.01	-56.49
830.187	56.15
830.364	-62.63
830.542	13.14
830.719	123.73
830.896	29.52
831.073	66.39
831.25	86.87
831.427	88.92
831.604	-3.24
831.782	4.95
831.959	88.92
832.136	-87.21
832.313	45.91
832.49	31.57
832.667	13.14
832.844	-60.59
833.021	86.87
833.198	9.05
833.374	52.05
833.551	45.91
833.728	-79.02
833.905	47.96
834.082	-60.59
834.259	33.62
834.436	138.07
834.612	-54.44
834.789	90.96
834.966	-38.06
835.143	-9.39
835.319	-15.53
835.496	4.95
835.673	19.29
835.85	37.72
836.026	33.62
836.203	74.58
836.38	25.43
836.556	-1.19
836.733	-36.01
836.909	93.01
837.086	-66.73
837.262	-72.87
837.439	-9.39
837.616	-44.2
837.792	70.48
837.968	-15.53
838.145	-85.16
838.321	13.14
838.498	58.2
838.674	27.48
838.851	64.34
839.027	-52.39
839.203	29.52
839.38	47.96
839.556	4.95
839.732	29.52
839.909	21.33
840.085	15.19
840.261	-56.49
840.437	-7.34
840.614	-15.53
840.79	15.19
840.966	64.34
841.142	17.24
841.318	-81.07
841.494	35.67
841.671	74.58
841.847	-1.19
842.023	-46.25
842.199	-40.11
842.375	78.68
842.551	-54.44
842.727	-117.93
842.903	156.5
843.079	-70.83
843.255	115.54
843.431	52.05
843.607	64.34
843.783	-152.74
843.959	39.76
844.134	-36.01
844.31	54.1
844.486	-56.49
844.662	-15.53
844.838	78.68
845.013	54.1
845.189	52.05
845.365	56.15
845.541	-5.29
845.716	41.81
845.892	-9.39
846.068	-70.83
846.244	-27.82
846.419	-23.72
846.595	-42.15
846.77	-15.53
846.946	95.06
847.122	-19.63
847.297	29.52
847.473	121.68
847.648	-87.21
847.824	35.67
847.999	-124.07
848.175	-91.31
848.35	68.44
848.526	60.24
848.701	119.64
848.876	-19.63
849.052	160.59
849.227	-1.19
849.403	103.25
849.578	45.91
849.753	74.58
849.929	31.57
850.104	-138.41
850.279	-9.39
850.454	25.43
850.63	52.05
850.805	-60.59
850.98	-27.82
851.155	17.24
851.33	35.67
851.505	-99.5
851.681	56.15
851.856	4.95
852.031	45.91
852.206	-13.48
852.381	-13.48
852.556	50
852.731	68.44
852.906	95.06
853.081	21.33
853.256	86.87
853.431	-19.63
853.606	-15.53
853.781	9.05
853.956	-117.93
854.131	19.29
854.305	-31.91
854.48	-29.87
854.655	-27.82
854.83	-25.77
855.005	31.57
855.18	54.1
855.354	-48.3
855.529	-1.19
855.704	-31.91
855.879	21.33
856.053	-52.39
856.228	13.14
856.403	-27.82
856.577	-1.19
856.752	-89.26
856.926	-64.68
857.101	35.67
857.276	-33.96
857.45	25.43
857.625	103.25
857.799	13.14
857.974	17.24
858.148	-83.11
858.323	11.09
858.497	-36.01
858.672	-76.97
858.846	-107.69
859.02	9.05
859.195	-60.59
859.369	-91.31
859.543	37.72
859.718	78.68
859.892	9.05
860.066	27.48
860.241	-15.53
860.415	-89.26
860.589	13.14
860.763	74.58
860.938	33.62
861.112	31.57
861.286	17.24
861.46	58.2
861.634	17.24
861.808	37.72
861.982	13.14
862.157	-68.78
862.331	-119.98
862.505	-58.54
862.679	-21.67
862.853	-21.67
863.027	-27.82
863.201	117.59
863.375	-68.78
863.549	9.05
863.722	-5.29
863.896	136.02
864.07	50
864.244	-13.48
864.418	9.05
864.592	45.91
864.766	-9.39
864.939	-93.35
865.113	-64.68
865.287	97.11
865.461	-40.11
865.634	80.72
865.808	-3.24
865.982	-21.67
866.156	13.14
866.329	-60.59
866.503	-29.87
866.676	-54.44
866.85	-21.67
867.024	21.33
867.197	50
867.371	82.77
867.544	-27.82
867.718	-169.13
867.891	162.64
868.065	-99.5
868.238	-3.24
868.412	25.43
868.585	-36.01
868.759	-25.77
868.932	-56.49
869.105	-46.25
869.279	-1.19
869.452	-31.91
869.625	-13.48
869.799	-56.49
869.972	-62.63
870.145	0.85
870.319	45.91
870.492	-52.39
870.665	-17.58
870.838	-79.02
871.011	-40.11
871.185	-33.96
871.358	-11.43
871.531	21.33
871.704	-93.35
871.877	29.52
872.05	-74.92
872.223	-56.49
872.396	43.86
872.569	82.77
872.742	-126.12
872.915	13.14
873.088	-89.26
873.261	-74.92
873.434	88.92
873.607	35.67
873.78	-5.29
873.953	-103.59
874.126	-1.19
874.299	54.1
874.471	-27.82
874.644	-42.15
874.817	115.54
874.99	129.88
875.163	-91.31
875.335	7
875.508	-42.15
875.681	95.06
875.853	31.57
876.026	-21.67
876.199	62.29
876.371	-70.83
876.544	23.38
876.717	2.9
876.889	-38.06
877.062	-21.67
877.234	-60.59
877.407	-13.48
877.579	-72.87
877.752	-95.4
877.924	13.14
878.097	19.29
878.269	54.1
878.442	11.09
878.614	-5.29
878.786	41.81
878.959	29.52
879.131	-7.34
879.303	-70.83
879.476	-29.87
879.648	41.81
879.82	-3.24
879.993	-83.11
880.165	-54.44
880.337	-107.69
880.509	-64.68
880.681	-11.43
880.854	-111.78
881.026	99.16
881.198	164.69
881.37	-42.15
881.542	27.48
881.714	-44.2
881.886	-27.82
882.058	74.58
882.23	2.9
882.402	29.52
882.574	-31.91
882.746	70.48
882.918	133.97
883.09	11.09
883.262	-58.54
883.434	17.24
883.606	-68.78
883.778	-97.45
883.95	138.07
884.122	0.85
884.293	11.09
884.465	-40.11
884.637	54.1
884.809	-74.92
884.98	19.29
885.152	4.95
885.324	66.39
885.496	-183.46
885.667	-1.19
885.839	-42.15
886.011	74.58
886.182	80.72
886.354	93.01
886.525	13.14
886.697	-62.63
886.869	-40.11
887.04	23.38
887.212	58.2
887.383	101.2
887.555	13.14
887.726	-25.77
887.897	-95.4
888.069	29.52
888.24	74.58
888.412	21.33
888.583	-13.48
888.754	-52.39
888.926	-74.92
889.097	-70.83
889.268	-122.02
889.44	4.95
889.611	-101.55
889.782	-48.3
889.953	-60.59
890.125	45.91
890.296	21.33
890.467	-72.87
890.638	-40.11
890.809	60.24
890.98	-21.67
891.151	41.81
891.323	-17.58
891.494	-9.39
891.665	-103.59
891.836	-17.58
892.007	25.43
892.178	13.14
892.349	29.52
892.52	-81.07
892.691	23.38
892.862	-5.29
893.032	-150.7
893.203	-25.77
893.374	2.9
893.545	23.38
893.716	-87.21
893.887	58.2
894.057	62.29
894.228	-11.43
894.399	-56.49
894.57	19.29
894.74	-7.34
894.911	-13.48
895.082	37.72
895.253	-11.43
895.423	-122.02
895.594	50
895.764	64.34
895.935	-13.48
896.106	-3.24
896.276	-31.91
896.447	19.29
896.617	-89.26
896.788	-58.54
896.958	-33.96
897.129	-42.15
897.299	-72.87
897.47	64.34
897.64	62.29
897.81	7
897.981	-7.34
898.151	15.19
898.322	-3.24
898.492	52.05
898.662	-54.44
898.832	-25.77
899.003	-81.07
899.173	-5.29
899.343	-23.72
899.513	-62.63
