Data from USB4F104151__33__11-24-59-204.txt Node

Date: Wed Feb 26 11:24:59 EST 2025
User: louis
Spectrometer: USB4F10415
Trigger mode: 4
Integration Time (sec): 1.000000E-1
Scans to average: 1
Electric dark correction enabled: true
Nonlinearity correction enabled: false
Boxcar width: 0
XAxis mode: Wavelengths
Number of Pixels in Spectrum: 3648
>>>>>Begin Spectral Data<<<<<
178.204	-372.05
178.424	-372.05
178.644	-372.05
178.864	-378.19
179.084	-427.34
179.304	98.99
179.524	45.74
179.744	-34.13
179.964	43.69
180.184	35.5
180.404	78.51
180.624	-58.71
180.844	-99.67
181.064	-56.66
181.283	25.26
181.503	-85.33
181.723	6.83
181.943	-71
182.163	144.04
182.383	-19.8
182.602	-23.89
182.822	168.62
183.042	49.83
183.262	-36.18
183.482	-30.04
183.701	10.92
183.921	39.59
184.141	-99.67
184.361	47.79
184.58	6.83
184.8	78.51
185.02	-44.37
185.239	53.93
185.459	29.35
185.679	160.42
185.898	-101.72
186.118	70.31
186.338	-15.7
186.557	86.7
186.777	-46.42
186.997	-5.46
187.216	76.46
187.436	121.51
187.655	78.51
187.875	33.45
188.095	25.26
188.314	107.18
188.534	156.33
188.753	-1.37
188.973	103.08
189.192	148.14
189.412	84.65
189.631	6.83
189.851	139.94
190.07	187.05
190.29	-111.96
190.509	-42.32
190.729	-38.23
190.948	174.76
191.168	228.01
191.387	58.03
191.607	51.88
191.826	68.27
192.045	-11.61
192.265	-3.41
192.484	55.98
192.704	70.31
192.923	-3.41
193.142	191.14
193.362	84.65
193.581	92.84
193.8	125.61
194.02	96.94
194.239	43.69
194.458	53.93
194.678	-1.37
194.897	-3.41
195.116	68.27
195.335	37.55
195.555	19.11
195.774	-7.51
195.993	55.98
196.212	68.27
196.432	-5.46
196.651	-62.8
196.87	25.26
197.089	234.15
197.308	-9.56
197.528	58.03
197.747	-34.13
197.966	133.8
198.185	123.56
198.404	-73.04
198.623	123.56
198.842	133.8
199.062	96.94
199.281	98.99
199.5	35.5
199.719	70.31
199.938	72.36
200.157	144.04
200.376	64.17
200.595	115.37
200.814	51.88
201.033	39.59
201.252	131.75
201.471	49.83
201.69	76.46
201.909	31.4
202.128	47.79
202.347	78.51
202.566	-44.37
202.785	-56.66
203.004	27.31
203.223	322.21
203.442	-9.56
203.661	-19.8
203.879	90.79
204.098	197.29
204.317	-30.04
204.536	123.56
204.755	105.13
204.974	66.22
205.193	-95.57
205.411	72.36
205.63	64.17
205.849	82.6
206.068	12.97
206.287	23.21
206.505	129.7
206.724	39.59
206.943	17.07
207.162	-66.9
207.381	10.92
207.599	62.12
207.818	12.97
208.037	-13.65
208.255	25.26
208.474	105.13
208.693	43.69
208.911	-44.37
209.13	101.03
209.349	150.18
209.567	105.13
209.786	86.7
210.005	137.9
210.223	88.75
210.442	-91.48
210.661	98.99
210.879	88.75
211.098	-15.7
211.316	23.21
211.535	80.55
211.753	64.17
211.972	115.37
212.191	55.98
212.409	17.07
212.628	68.27
212.846	-62.8
213.065	25.26
213.283	68.27
213.502	84.65
213.72	66.22
213.938	43.69
214.157	-68.95
214.375	113.32
214.594	12.97
214.812	111.27
215.031	-15.7
215.249	64.17
215.467	39.59
215.686	-9.56
215.904	88.75
216.122	10.92
216.341	86.7
216.559	51.88
216.778	101.03
216.996	86.7
217.214	17.07
217.432	-9.56
217.651	-68.95
217.869	53.93
218.087	37.55
218.306	-56.66
218.524	15.02
218.742	88.75
218.96	-58.71
219.179	-3.41
219.397	51.88
219.615	295.59
219.833	80.55
220.051	2.73
220.27	92.84
220.488	121.51
220.706	152.23
220.924	-1.37
221.142	-21.85
221.36	64.17
221.578	58.03
221.796	33.45
222.015	117.42
222.233	31.4
222.451	70.31
222.669	-32.08
222.887	39.59
223.105	-44.37
223.323	-7.51
223.541	-25.94
223.759	55.98
223.977	-15.7
224.195	111.27
224.413	86.7
224.631	17.07
224.849	17.07
225.067	223.91
225.285	-66.9
225.503	-27.99
225.721	-81.24
225.939	37.55
226.157	15.02
226.375	203.43
226.592	-95.57
226.81	-17.75
227.028	137.9
227.246	107.18
227.464	84.65
227.682	127.66
227.9	47.79
228.117	72.36
228.335	60.07
228.553	62.12
228.771	-54.61
228.989	-3.41
229.206	66.22
229.424	19.11
229.642	47.79
229.86	-42.32
230.077	105.13
230.295	43.69
230.513	53.93
230.731	29.35
230.948	146.09
231.166	117.42
231.384	8.87
231.601	-34.13
231.819	170.66
232.037	-9.56
232.254	-46.42
232.472	17.07
232.689	53.93
232.907	152.23
233.125	-3.41
233.342	-85.33
233.56	-105.81
233.777	96.94
233.995	0.68
234.213	49.83
234.43	123.56
234.648	60.07
234.865	-38.23
235.083	141.99
235.3	23.21
235.518	129.7
235.735	125.61
235.953	84.65
236.17	51.88
236.388	-54.61
236.605	37.55
236.822	70.31
237.04	82.6
237.257	72.36
237.475	-58.71
237.692	8.87
237.909	131.75
238.127	0.68
238.344	82.6
238.562	31.4
238.779	-48.47
238.996	45.74
239.214	64.17
239.431	10.92
239.648	-25.94
239.865	41.64
240.083	31.4
240.3	-54.61
240.517	8.87
240.735	33.45
240.952	55.98
241.169	0.68
241.386	101.03
241.603	53.93
241.821	-81.24
242.038	111.27
242.255	127.66
242.472	19.11
242.689	113.32
242.907	23.21
243.124	37.55
243.341	2.73
243.558	-36.18
243.775	-42.32
243.992	-19.8
244.209	135.85
244.426	242.34
244.643	66.22
244.86	27.31
245.078	66.22
245.295	129.7
245.512	-17.75
245.729	-21.85
245.946	47.79
246.163	55.98
246.38	29.35
246.597	117.42
246.814	37.55
247.031	19.11
247.248	21.16
247.464	92.84
247.681	19.11
247.898	115.37
248.115	72.36
248.332	-68.95
248.549	154.28
248.766	150.18
248.983	135.85
249.2	39.59
249.417	105.13
249.633	-9.56
249.85	94.89
250.067	107.18
250.284	53.93
250.501	-11.61
250.717	119.46
250.934	-91.48
251.151	25.26
251.368	-54.61
251.585	6.83
251.801	84.65
252.018	-25.94
252.235	84.65
252.451	-54.61
252.668	29.35
252.885	133.8
253.102	92.84
253.318	64.17
253.535	41.64
253.752	2.73
253.968	0.68
254.185	-23.89
254.401	-17.75
254.618	-11.61
254.835	-30.04
255.051	135.85
255.268	45.74
255.484	43.69
255.701	-11.61
255.917	58.03
256.134	37.55
256.351	23.21
256.567	-27.99
256.784	25.26
257	-66.9
257.217	182.95
257.433	90.79
257.65	96.94
257.866	101.03
258.082	-66.9
258.299	27.31
258.515	113.32
258.732	-44.37
258.948	-62.8
259.165	-3.41
259.381	-62.8
259.597	82.6
259.814	25.26
260.03	-58.71
260.246	-60.76
260.463	103.08
260.679	164.52
260.895	92.84
261.112	58.03
261.328	47.79
261.544	-17.75
261.761	148.14
261.977	-48.47
262.193	-107.86
262.409	35.5
262.626	21.16
262.842	80.55
263.058	2.73
263.274	148.14
263.49	60.07
263.707	53.93
263.923	37.55
264.139	-58.71
264.355	55.98
264.571	103.08
264.787	70.31
265.004	146.09
265.22	82.6
265.436	-21.85
265.652	45.74
265.868	84.65
266.084	-1.37
266.3	-23.89
266.516	-25.94
266.732	72.36
266.948	2.73
267.164	-66.9
267.38	117.42
267.596	129.7
267.812	193.19
268.028	41.64
268.244	-60.76
268.46	-11.61
268.676	-13.65
268.892	25.26
269.108	-32.08
269.324	-42.32
269.54	-64.85
269.756	109.23
269.972	-77.14
270.188	39.59
270.403	80.55
270.619	-25.94
270.835	23.21
271.051	154.28
271.267	12.97
271.483	27.31
271.698	131.75
271.914	70.31
272.13	92.84
272.346	2.73
272.562	113.32
272.777	141.99
272.993	70.31
273.209	-42.32
273.425	74.41
273.64	-103.76
273.856	119.46
274.072	-27.99
274.287	-30.04
274.503	103.08
274.719	12.97
274.934	-85.33
275.15	-66.9
275.366	43.69
275.581	-42.32
275.797	43.69
276.012	49.83
276.228	-23.89
276.444	12.97
276.659	90.79
276.875	-11.61
277.09	76.46
277.306	-58.71
277.521	80.55
277.737	-46.42
277.952	62.12
278.168	84.65
278.383	72.36
278.599	55.98
278.814	86.7
279.03	58.03
279.245	119.46
279.461	-56.66
279.676	41.64
279.892	-62.8
280.107	-25.94
280.322	-25.94
280.538	86.7
280.753	12.97
280.969	111.27
281.184	84.65
281.399	101.03
281.615	49.83
281.83	64.17
282.045	-48.47
282.26	17.07
282.476	21.16
282.691	150.18
282.906	94.89
283.122	90.79
283.337	0.68
283.552	35.5
283.767	-5.46
283.983	55.98
284.198	109.23
284.413	53.93
284.628	-73.04
284.843	51.88
285.058	-27.99
285.274	-3.41
285.489	-1.37
285.704	103.08
285.919	-81.24
286.134	4.78
286.349	51.88
286.564	-50.52
286.779	158.38
286.995	-19.8
287.21	-101.72
287.425	92.84
287.64	25.26
287.855	39.59
288.07	-42.32
288.285	105.13
288.5	187.05
288.715	31.4
288.93	45.74
289.145	-27.99
289.36	55.98
289.575	10.92
289.79	88.75
290.004	33.45
290.219	115.37
290.434	-58.71
290.649	-34.13
290.864	23.21
291.079	-56.66
291.294	90.79
291.509	62.12
291.724	39.59
291.938	2.73
292.153	74.41
292.368	33.45
292.583	111.27
292.798	105.13
293.012	133.8
293.227	35.5
293.442	-23.89
293.657	66.22
293.871	127.66
294.086	47.79
294.301	146.09
294.516	88.75
294.73	15.02
294.945	-105.81
295.16	23.21
295.374	123.56
295.589	113.32
295.804	-50.52
296.018	-15.7
296.233	160.42
296.447	12.97
296.662	98.99
296.877	76.46
297.091	72.36
297.306	-15.7
297.52	-62.8
297.735	64.17
297.949	58.03
298.164	90.79
298.378	66.22
298.593	-56.66
298.807	-21.85
299.022	-40.28
299.236	193.19
299.451	-25.94
299.665	-66.9
299.88	-25.94
300.094	70.31
300.309	33.45
300.523	27.31
300.737	39.59
300.952	37.55
301.166	45.74
301.381	4.78
301.595	39.59
301.809	43.69
302.024	107.18
302.238	29.35
302.452	107.18
302.667	60.07
302.881	150.18
303.095	84.65
303.309	82.6
303.524	-9.56
303.738	43.69
303.952	-34.13
304.166	62.12
304.381	-179.54
304.595	113.32
304.809	-50.52
305.023	8.87
305.237	-13.65
305.452	-1.37
305.666	72.36
305.88	64.17
306.094	123.56
306.308	98.99
306.522	141.99
306.736	72.36
306.95	121.51
307.164	-7.51
307.379	-1.37
307.593	72.36
307.807	47.79
308.021	39.59
308.235	88.75
308.449	-71
308.663	64.17
308.877	223.91
309.091	150.18
309.305	105.13
309.519	-66.9
309.733	156.33
309.947	-132.44
310.161	47.79
310.374	43.69
310.588	180.9
310.802	-30.04
311.016	58.03
311.23	55.98
311.444	-34.13
311.658	68.27
311.872	70.31
312.085	141.99
312.299	137.9
312.513	164.52
312.727	70.31
312.941	-44.37
313.154	23.21
313.368	47.79
313.582	53.93
313.796	-7.51
314.009	17.07
314.223	137.9
314.437	107.18
314.651	68.27
314.864	-21.85
315.078	58.03
315.292	-40.28
315.505	21.16
315.719	55.98
315.933	76.46
316.146	-34.13
316.36	66.22
316.573	180.9
316.787	43.69
317.001	66.22
317.214	-9.56
317.428	2.73
317.641	-25.94
317.855	19.11
318.068	-11.61
318.282	17.07
318.495	156.33
318.709	0.68
318.922	21.16
319.136	182.95
319.349	94.89
319.563	10.92
319.776	174.76
319.99	-68.95
320.203	80.55
320.417	21.16
320.63	70.31
320.843	129.7
321.057	39.59
321.27	49.83
321.483	117.42
321.697	113.32
321.91	27.31
322.124	60.07
322.337	105.13
322.55	-19.8
322.763	86.7
322.977	64.17
323.19	-19.8
323.403	49.83
323.617	51.88
323.83	45.74
324.043	15.02
324.256	25.26
324.469	0.68
324.683	55.98
324.896	33.45
325.109	43.69
325.322	-15.7
325.535	103.08
325.748	103.08
325.962	45.74
326.175	47.79
326.388	68.27
326.601	150.18
326.814	84.65
327.027	47.79
327.24	199.34
327.453	-81.24
327.666	121.51
327.879	146.09
328.092	60.07
328.305	94.89
328.518	17.07
328.731	2.73
328.944	-23.89
329.157	72.36
329.37	-15.7
329.583	209.58
329.796	154.28
330.009	-5.46
330.222	-3.41
330.435	84.65
330.648	55.98
330.861	33.45
331.073	37.55
331.286	113.32
331.499	51.88
331.712	-1.37
331.925	2.73
332.138	45.74
332.35	43.69
332.563	-25.94
332.776	166.57
332.989	-68.95
333.202	-23.89
333.414	33.45
333.627	15.02
333.84	-23.89
334.053	70.31
334.265	-15.7
334.478	25.26
334.691	2.73
334.903	80.55
335.116	-62.8
335.329	0.68
335.541	43.69
335.754	191.14
335.966	6.83
336.179	-30.04
336.392	60.07
336.604	25.26
336.817	117.42
337.029	121.51
337.242	64.17
337.454	76.46
337.667	-11.61
337.88	84.65
338.092	-71
338.305	78.51
338.517	-11.61
338.729	72.36
338.942	182.95
339.154	15.02
339.367	-38.23
339.579	19.11
339.792	-27.99
340.004	158.38
340.217	-7.51
340.429	68.27
340.641	-38.23
340.854	21.16
341.066	23.21
341.278	119.46
341.491	127.66
341.703	72.36
341.915	8.87
342.128	101.03
342.34	-7.51
342.552	-66.9
342.764	-79.19
342.977	-9.56
343.189	27.31
343.401	131.75
343.613	-52.56
343.826	12.97
344.038	-71
344.25	-3.41
344.462	8.87
344.674	39.59
344.886	92.84
345.099	90.79
345.311	21.16
345.523	-42.32
345.735	-3.41
345.947	-15.7
346.159	148.14
346.371	-1.37
346.583	29.35
346.795	166.57
347.007	-13.65
347.219	58.03
347.431	-42.32
347.643	168.62
347.855	41.64
348.067	164.52
348.279	-62.8
348.491	62.12
348.703	33.45
348.915	-85.33
349.127	39.59
349.339	8.87
349.551	21.16
349.763	101.03
349.975	33.45
350.187	82.6
350.399	94.89
350.61	117.42
350.822	41.64
351.034	-13.65
351.246	51.88
351.458	68.27
351.669	90.79
351.881	90.79
352.093	8.87
352.305	86.7
352.517	80.55
352.728	178.86
352.94	125.61
353.152	55.98
353.363	41.64
353.575	103.08
353.787	141.99
353.999	60.07
354.21	182.95
354.422	-48.47
354.633	64.17
354.845	4.78
355.057	-15.7
355.268	51.88
355.48	103.08
355.692	-109.91
355.903	8.87
356.115	-30.04
356.326	-9.56
356.538	80.55
356.749	113.32
356.961	53.93
357.172	90.79
357.384	-21.85
357.595	117.42
357.807	4.78
358.018	6.83
358.23	31.4
358.441	141.99
358.653	8.87
358.864	-13.65
359.075	-9.56
359.287	109.23
359.498	15.02
359.709	94.89
359.921	113.32
360.132	113.32
360.344	12.97
360.555	-25.94
360.766	72.36
360.977	68.27
361.189	148.14
361.4	35.5
361.611	101.03
361.823	115.37
362.034	58.03
362.245	-93.52
362.456	43.69
362.667	70.31
362.879	-44.37
363.09	21.16
363.301	86.7
363.512	-48.47
363.723	-89.43
363.935	0.68
364.146	103.08
364.357	-9.56
364.568	58.03
364.779	-73.04
364.99	92.84
365.201	-40.28
365.412	109.23
365.623	12.97
365.834	92.84
366.045	10.92
366.256	144.04
366.467	123.56
366.678	39.59
366.889	127.66
367.1	-36.18
367.311	105.13
367.522	-25.94
367.733	-3.41
367.944	66.22
368.155	39.59
368.366	86.7
368.577	109.23
368.788	82.6
368.999	19.11
369.209	72.36
369.42	195.24
369.631	244.39
369.842	-27.99
370.053	-15.7
370.264	98.99
370.474	-23.89
370.685	55.98
370.896	86.7
371.107	94.89
371.317	82.6
371.528	-75.09
371.739	117.42
371.95	31.4
372.16	55.98
372.371	-79.19
372.582	-9.56
372.792	55.98
373.003	90.79
373.214	29.35
373.424	72.36
373.635	-36.18
373.846	131.75
374.056	2.73
374.267	31.4
374.477	-34.13
374.688	-97.62
374.898	49.83
375.109	10.92
375.319	74.41
375.53	162.47
375.74	76.46
375.951	-7.51
376.161	131.75
376.372	105.13
376.582	47.79
376.793	31.4
377.003	51.88
377.214	80.55
377.424	76.46
377.635	17.07
377.845	25.26
378.055	121.51
378.266	0.68
378.476	27.31
378.686	101.03
378.897	115.37
379.107	127.66
379.317	49.83
379.528	49.83
379.738	39.59
379.948	15.02
380.158	70.31
380.369	-23.89
380.579	15.02
380.789	31.4
380.999	-23.89
381.21	58.03
381.42	141.99
381.63	-11.61
381.84	88.75
382.05	135.85
382.261	160.42
382.471	170.66
382.681	19.11
382.891	139.94
383.101	66.22
383.311	-30.04
383.521	-42.32
383.731	66.22
383.941	27.31
384.151	111.27
384.361	51.88
384.571	25.26
384.781	-46.42
384.991	178.86
385.201	135.85
385.411	-1.37
385.621	68.27
385.831	66.22
386.041	33.45
386.251	-62.8
386.461	121.51
386.671	-13.65
386.881	68.27
387.091	-38.23
387.301	23.21
387.511	53.93
387.72	43.69
387.93	64.17
388.14	-107.86
388.35	55.98
388.56	180.9
388.769	150.18
388.979	33.45
389.189	-21.85
389.399	39.59
389.609	88.75
389.818	55.98
390.028	105.13
390.238	115.37
390.447	-21.85
390.657	84.65
390.867	55.98
391.076	-30.04
391.286	98.99
391.496	8.87
391.705	-3.41
391.915	162.47
392.125	111.27
392.334	41.64
392.544	144.04
392.753	-60.76
392.963	-19.8
393.172	76.46
393.382	-71
393.591	193.19
393.801	41.64
394.01	150.18
394.22	66.22
394.429	31.4
394.639	92.84
394.848	51.88
395.058	123.56
395.267	-42.32
395.477	-3.41
395.686	15.02
395.895	164.52
396.105	162.47
396.314	58.03
396.524	76.46
396.733	64.17
396.942	113.32
397.152	105.13
397.361	152.23
397.57	15.02
397.78	29.35
397.989	119.46
398.198	232.1
398.407	55.98
398.617	51.88
398.826	-1.37
399.035	-21.85
399.244	121.51
399.453	6.83
399.663	86.7
399.872	-40.28
400.081	-21.85
400.29	127.66
400.499	-15.7
400.708	105.13
400.917	88.75
401.127	33.45
401.336	-64.85
401.545	133.8
401.754	141.99
401.963	105.13
402.172	10.92
402.381	15.02
402.59	6.83
402.799	25.26
403.008	115.37
403.217	29.35
403.426	29.35
403.635	-46.42
403.844	31.4
404.053	23.21
404.262	6.83
404.471	166.57
404.68	74.41
404.888	109.23
405.097	66.22
405.306	-15.7
405.515	98.99
405.724	86.7
405.933	133.8
406.142	78.51
406.35	70.31
406.559	-15.7
406.768	64.17
406.977	189.1
407.185	64.17
407.394	62.12
407.603	-40.28
407.812	6.83
408.02	121.51
408.229	121.51
408.438	62.12
408.646	-54.61
408.855	15.02
409.064	47.79
409.272	33.45
409.481	78.51
409.69	-23.89
409.898	-25.94
410.107	25.26
410.315	82.6
410.524	-13.65
410.733	45.74
410.941	35.5
411.15	148.14
411.358	58.03
411.567	117.42
411.775	88.75
411.984	47.79
412.192	137.9
412.401	-17.75
412.609	115.37
412.818	187.05
413.026	96.94
413.234	10.92
413.443	76.46
413.651	-109.91
413.86	80.55
414.068	113.32
414.276	129.7
414.485	15.02
414.693	131.75
414.901	185
415.11	29.35
415.318	45.74
415.526	164.52
415.734	105.13
415.943	60.07
416.151	109.23
416.359	23.21
416.567	-7.51
416.776	33.45
416.984	141.99
417.192	178.86
417.4	51.88
417.608	29.35
417.817	-25.94
418.025	174.76
418.233	137.9
418.441	51.88
418.649	-46.42
418.857	129.7
419.065	225.96
419.273	-34.13
419.481	105.13
419.689	72.36
419.897	-56.66
420.105	23.21
420.313	115.37
420.521	135.85
420.729	105.13
420.937	-17.75
421.145	29.35
421.353	158.38
421.561	266.92
421.769	109.23
421.977	33.45
422.185	156.33
422.393	-9.56
422.601	76.46
422.809	117.42
423.017	135.85
423.224	103.08
423.432	139.94
423.64	80.55
423.848	90.79
424.056	66.22
424.263	92.84
424.471	64.17
424.679	144.04
424.887	6.83
425.094	58.03
425.302	72.36
425.51	-89.43
425.718	162.47
425.925	23.21
426.133	0.68
426.341	219.82
426.548	211.62
426.756	78.51
426.964	88.75
427.171	-1.37
427.379	39.59
427.586	135.85
427.794	162.47
428.001	152.23
428.209	129.7
428.417	127.66
428.624	156.33
428.832	107.18
429.039	43.69
429.247	76.46
429.454	80.55
429.662	156.33
429.869	103.08
430.076	152.23
430.284	131.75
430.491	215.72
430.699	197.29
430.906	168.62
431.114	148.14
431.321	88.75
431.528	39.59
431.736	215.72
431.943	51.88
432.15	172.71
432.358	168.62
432.565	236.2
432.772	39.59
432.979	238.25
433.187	115.37
433.394	236.2
433.601	197.29
433.808	242.34
434.016	236.2
434.223	195.24
434.43	207.53
434.637	240.3
434.844	242.34
435.052	201.38
435.259	230.06
435.466	334.5
435.673	213.67
435.88	330.41
436.087	324.26
436.294	379.56
436.501	330.41
436.708	238.25
436.915	305.83
437.122	352.93
437.329	264.87
437.537	305.83
437.743	275.11
437.95	363.17
438.157	279.21
438.364	309.93
438.571	348.84
438.778	404.13
438.985	449.19
439.192	404.13
439.399	371.37
439.606	432.8
439.813	443.04
440.02	594.59
440.227	666.27
440.433	514.72
440.64	469.67
440.847	441
441.054	578.21
441.261	635.55
441.467	557.73
441.674	588.45
441.881	668.32
442.088	590.5
442.294	688.8
442.501	725.66
442.708	840.35
442.914	744.1
443.121	787.1
443.328	791.2
443.534	795.29
443.741	879.26
443.948	823.97
444.154	996
444.361	1170.07
444.568	993.95
444.774	996
444.981	936.6
445.187	1143.45
445.394	1051.29
445.6	1092.25
445.807	1264.28
446.013	1188.5
446.22	1157.79
446.426	1426.07
446.633	1358.49
446.839	1591.95
447.046	1366.68
447.252	1540.76
447.459	1567.38
447.665	1634.96
447.871	1747.6
448.078	1901.2
448.284	1864.33
448.491	1880.72
448.697	1907.34
448.903	2118.28
449.11	2058.89
449.316	1993.36
449.522	2329.22
449.728	2388.61
449.935	2443.91
450.141	2372.23
450.347	2505.35
450.553	2574.98
450.76	2640.51
450.966	2884.22
451.172	2816.64
451.378	2998.91
451.584	2986.62
451.791	3267.19
451.997	3271.29
452.203	3455.61
452.409	3660.4
452.615	3644.02
452.821	3662.45
453.027	3736.18
453.233	4282.99
453.44	4008.56
453.646	4170.35
453.852	4532.84
454.058	4569.7
454.264	4659.81
454.47	5173.85
454.676	4932.19
454.882	5642.84
455.088	5259.87
455.294	5470.81
455.5	6097.49
455.705	6195.79
455.911	6306.38
456.117	6382.15
456.323	6844.99
456.529	6660.68
456.735	7320.12
456.941	7416.38
457.147	7598.65
457.352	7911.99
457.558	8155.69
457.764	8692.26
457.97	8831.52
458.176	9089.57
458.381	9689.62
458.587	9832.98
458.793	10338.83
458.999	10234.38
459.204	11733.5
459.41	12032.5
459.616	11870.71
459.821	12536.3
460.027	12919.27
460.233	13795.8
460.438	13722.07
460.644	14375.38
460.85	14680.52
461.055	15315.39
461.261	16099.76
461.466	15778.23
461.672	15933.88
461.878	17772.96
462.083	17430.94
462.289	18069.91
462.494	18717.07
462.7	18917.77
462.905	19126.66
463.111	20793.71
463.316	21713.25
463.522	22100.31
463.727	22604.11
463.932	23374.15
464.138	24400.18
464.343	25219.37
464.549	25561.38
464.754	27175.18
464.959	27932.93
465.165	28373.24
465.37	28274.94
465.575	28614.9
465.781	30279.9
465.986	31168.72
466.191	30718.17
466.397	31092.94
466.602	30296.28
466.807	32268.48
467.012	32329.92
467.218	33271.98
467.423	33355.95
467.628	34388.13
467.833	36057.22
468.038	35213.46
468.244	34629.79
468.449	36534.4
468.654	35324.05
468.859	35731.59
469.064	35864.71
469.269	34926.74
469.474	35295.38
469.679	36143.24
469.885	34996.37
470.09	35508.36
470.295	35639.43
470.5	34599.07
470.705	35209.36
470.91	33908.9
471.115	33679.53
471.32	34351.26
471.525	34273.44
471.73	33507.5
471.935	32903.35
472.139	31912.13
472.344	31953.09
472.549	31797.45
472.754	31074.51
472.959	30298.33
473.164	29376.75
473.369	28907.76
473.574	29905.12
473.778	29241.58
473.983	28420.35
474.188	28219.64
474.393	26861.84
474.598	26910.99
474.802	26083.61
475.007	25776.42
475.212	25469.22
475.417	24385.85
475.621	24254.78
475.826	23826.75
476.031	23460.16
476.235	23261.51
476.44	22800.72
476.645	22331.73
476.849	22536.53
477.054	21893.47
477.259	21027.18
477.463	21315.94
477.668	20529.52
477.872	20742.51
478.077	20136.31
478.282	19706.24
478.486	19462.53
478.691	19227.01
478.895	19016.07
479.1	18674.06
479.304	18659.73
479.509	18057.62
479.713	18383.25
479.918	18020.76
480.122	17551.77
480.326	17768.86
480.531	17439.14
480.735	17283.49
480.94	17158.56
481.144	17557.92
481.348	16746.92
481.553	16763.31
481.757	16433.58
481.961	16431.54
482.166	16722.35
482.37	16269.75
482.574	15841.72
482.778	16087.48
482.983	16107.96
483.187	15903.16
483.391	15741.37
483.595	15507.9
483.8	15309.25
484.004	15423.94
484.208	15518.14
484.412	15106.5
484.616	14701
484.821	14891.46
485.025	14266.83
485.229	14619.08
485.433	14131.67
485.637	14297.55
485.841	13832.66
486.045	13736.41
486.249	13369.82
486.453	13511.13
486.657	13310.43
486.861	12935.65
487.065	12497.39
487.269	12757.48
487.473	12167.66
487.677	12442.09
487.881	12263.92
488.085	11749.88
488.289	11696.63
488.493	11321.85
488.697	11495.93
488.901	11102.72
489.105	10957.32
489.309	10848.77
489.512	10680.84
489.716	10371.6
489.92	10052.11
490.124	10211.85
490.328	10037.78
490.531	9511.45
490.735	9710.1
490.939	9454.11
491.143	9146.91
491.346	9048.61
491.55	8817.19
491.754	8878.63
491.958	8653.35
492.161	8579.62
492.365	8323.63
492.569	8102.45
492.772	8016.43
492.976	8034.86
493.18	7811.64
493.383	7795.25
493.587	7588.41
493.79	7617.08
493.994	7576.12
494.197	7469.62
494.401	7320.12
494.605	7025.22
494.808	7307.84
495.012	7225.92
495.215	7258.68
495.419	7148.09
495.622	6875.71
495.825	6900.29
496.029	6885.95
496.232	7172.67
496.436	6965.82
496.639	7086.65
496.843	6763.08
497.046	6734.4
497.249	6904.39
497.453	6824.51
497.656	6830.66
497.859	6771.27
498.063	6959.68
498.266	6871.62
498.469	6715.97
498.673	6881.86
498.876	6863.43
499.079	6834.75
499.282	6838.85
499.485	7166.53
499.689	6879.81
499.892	7047.74
500.095	6965.82
500.298	7199.29
500.501	6869.57
500.705	7336.51
500.908	7465.53
501.111	7488.06
501.314	7557.69
501.517	7647.8
501.72	7639.61
501.923	7774.77
502.126	7807.54
502.329	7774.77
502.532	7940.66
502.735	8079.92
502.938	8081.97
503.141	8251.95
503.344	8208.94
503.547	8428.07
503.75	8272.43
503.953	8524.33
504.156	8759.84
504.359	8755.75
504.562	9003.55
504.765	9034.27
504.968	9153.05
505.17	9300.51
505.373	9402.91
505.576	9802.26
505.779	9794.07
505.982	9966.1
506.185	10140.18
506.387	10254.86
506.59	10410.51
506.793	10783.24
506.996	10777.09
507.198	11282.94
507.401	11338.24
507.604	11545.08
507.807	11762.17
508.009	11966.96
508.212	12204.53
508.415	12157.43
508.617	12442.09
508.82	12986.85
509.022	12827.11
509.225	13568.48
509.428	13529.56
509.63	14062.04
509.833	14180.82
510.035	14752.2
510.238	14647.76
510.44	14971.33
510.643	15364.54
510.845	16005.56
511.048	15856.06
511.25	16370.1
511.453	16527.79
511.655	17547.68
511.858	17695.13
512.06	18104.73
512.262	18475.41
512.465	18688.4
512.667	19376.51
512.87	19341.7
513.072	19775.87
513.274	20427.12
513.477	21066.09
513.679	21283.17
513.881	22014.3
514.084	22620.5
514.286	22583.63
514.488	23388.49
514.69	24043.84
514.893	24516.92
515.095	24785.2
515.297	25422.12
515.499	26028.32
515.701	26552.6
515.904	27031.82
516.106	27816.19
516.308	28176.64
516.51	28920.05
516.712	29348.07
516.914	29944.03
517.116	30529.75
517.318	30767.32
517.52	31617.22
517.722	32102.59
517.925	32698.55
518.127	33810.6
518.329	34402.46
518.531	34011.3
518.733	35180.69
518.935	35690.63
519.136	36077.7
519.338	37036.15
519.54	37206.13
519.742	38176.87
519.944	38592.61
520.146	39506
520.348	39657.55
520.55	40118.34
520.752	40562.75
520.954	41275.44
521.155	41379.89
521.357	42489.89
521.559	43055.13
521.761	43663.38
521.963	43284.5
522.164	43917.32
522.366	44902.4
522.568	45330.42
522.77	45156.35
522.971	45957.1
523.173	45701.11
523.375	46610.4
523.576	46067.69
523.778	46774.24
523.98	47198.17
524.181	47663.06
524.383	47278.04
524.584	47736.79
524.786	47433.69
524.988	47812.56
525.189	48314.31
525.391	48502.73
525.592	48353.22
525.794	48406.47
525.995	48199.63
526.197	48195.53
526.398	48299.98
526.6	48510.92
526.801	48367.56
527.003	48218.06
527.204	47630.29
527.406	48170.96
527.607	47816.66
527.808	47771.6
528.01	46723.04
528.211	46731.23
528.412	47259.61
528.614	46788.58
528.815	46190.57
529.016	46720.99
529.218	45363.19
529.419	45490.16
529.62	44929.02
529.822	44587.01
530.023	44201.99
530.224	43880.46
530.425	43495.44
530.626	42674.21
530.828	42629.15
531.029	42989.59
531.23	41762.86
531.431	40876.09
531.632	41396.28
531.833	40544.32
532.035	39690.32
532.236	40089.67
532.437	39194.71
532.638	38672.48
532.839	38258.79
533.04	38084.71
533.241	37226.61
533.442	37421.17
533.643	36190.34
533.844	35934.34
534.045	35158.16
534.246	34963.61
534.447	34742.42
534.648	34203.81
534.849	33730.73
535.05	33149.1
535.251	32790.71
535.451	32692.41
535.652	31852.74
535.853	31170.77
536.054	31283.41
536.255	30709.97
536.456	29966.56
536.657	30124.26
536.857	29307.12
537.058	29348.07
537.259	28948.72
537.46	28598.52
537.66	27980.03
537.861	27894.02
538.062	26997.01
538.263	26796.31
538.463	26583.32
538.664	26110.24
538.865	25889.06
539.065	25739.55
539.266	25209.13
539.466	24856.88
539.667	24572.21
539.868	24443.19
540.068	24238.39
540.269	23746.88
540.469	23599.43
540.67	23056.71
540.87	23183.69
541.071	22909.26
541.271	22716.75
541.472	22294.87
541.672	22073.69
541.873	21477.73
542.073	21100.9
542.274	21459.3
542.474	21268.84
542.675	20668.78
542.875	20881.77
543.075	20027.77
543.276	19587.46
543.476	19896.7
543.676	19644.8
543.877	19507.58
544.077	19347.84
544.277	18891.15
544.478	18876.81
544.678	18690.45
544.878	18373.01
545.078	18162.07
545.279	17799.58
545.479	17777.05
545.679	17652.13
545.879	17252.77
546.079	16974.25
546.28	16949.67
546.48	16517.55
546.68	16718.25
546.88	16349.62
547.08	16083.38
547.28	16046.52
547.48	15589.82
547.68	15727.03
547.88	15497.66
548.081	15595.96
548.281	14930.37
548.481	14848.46
548.681	14772.68
548.881	14354.9
549.081	13951.45
549.28	14109.14
549.48	13994.45
549.68	13683.16
549.88	13650.39
550.08	13423.07
550.28	13429.21
550.48	13103.59
550.68	13062.63
550.88	12472.81
551.08	12677.61
551.279	12347.89
551.479	11913.72
551.679	12089.84
551.879	11690.49
552.079	11590.14
552.278	11514.36
552.478	11418.11
552.678	11100.67
552.878	11352.57
553.077	10826.25
553.277	10598.92
553.477	10322.45
553.676	10406.41
553.876	10191.38
554.076	10052.11
554.275	9781.78
554.475	9628.18
554.674	9742.87
554.874	9374.24
555.074	9220.64
555.273	9089.57
555.473	8825.38
555.672	8729.13
555.872	8782.37
556.071	8651.3
556.271	8391.21
556.47	8223.28
556.67	7969.33
556.869	7977.52
557.068	7942.71
557.268	7742
557.467	7692.85
557.667	7572.02
557.866	7324.22
558.065	7125.57
558.265	7178.81
558.464	7103.04
558.663	6951.49
558.863	6799.94
559.062	6824.51
559.261	6439.5
559.461	6683.2
559.66	6333
559.859	6187.6
560.058	6103.63
560.258	5808.72
560.457	5821.01
560.656	5956.18
560.855	5622.36
561.054	5890.64
561.253	5567.06
561.453	5425.75
561.652	5565.01
561.851	5249.63
562.05	5055.07
562.249	5055.07
562.448	5235.29
562.647	5081.69
562.846	4924
563.045	4858.46
563.244	4921.95
563.443	4813.41
563.642	4625
563.841	4534.89
564.04	4485.73
564.239	4375.14
564.438	4401.77
564.637	4239.98
564.836	4194.92
565.035	4254.31
565.234	4164.2
565.432	4031.09
565.631	3967.6
565.83	3992.17
566.029	3830.38
566.228	3820.14
566.427	3881.58
566.625	3635.83
566.824	3740.27
567.023	3580.53
567.222	3564.15
567.42	3687.03
567.619	3586.68
567.818	3314.3
568.016	3637.88
568.215	3338.87
568.414	3297.91
568.612	3310.2
568.811	3199.61
569.01	3070.59
569.208	3064.44
569.407	3148.41
569.605	3033.72
569.804	2884.22
570.002	3011.2
570.201	2779.78
570.4	2841.22
570.598	2695.81
570.797	2712.19
570.995	2689.67
571.193	2540.16
571.392	2652.8
571.59	2499.2
571.789	2570.88
571.987	2548.36
572.186	2499.2
572.384	2486.92
572.582	2372.23
572.781	2368.13
572.979	2290.31
573.177	2239.11
573.376	2173.58
573.574	2282.12
573.772	2126.47
573.971	2136.71
574.169	2011.79
574.367	2093.71
574.565	1974.92
574.763	2028.17
574.962	2017.93
575.16	1907.34
575.358	1972.88
575.556	1784.46
575.754	2019.98
575.952	1782.42
576.151	1927.82
576.349	1876.62
576.547	1604.24
576.745	1792.66
576.943	1723.02
577.141	1612.43
577.339	1538.71
577.537	1589.91
577.735	1661.59
577.933	1577.62
578.131	1440.4
578.329	1569.43
578.527	1532.56
578.725	1510.04
578.923	1356.44
579.121	1503.89
579.319	1182.36
579.516	1362.58
579.714	1542.8
579.912	1391.25
580.11	1200.79
580.308	1229.46
580.506	1170.07
580.704	1180.31
580.901	1149.59
581.099	1303.19
581.297	1174.17
581.495	1145.5
581.692	1170.07
581.89	1219.22
582.088	1039
582.285	1120.92
582.483	996
582.681	1082.01
582.878	1100.44
583.076	1094.3
583.274	1067.67
583.471	1198.74
583.669	1030.81
583.866	979.61
584.064	844.45
584.262	795.29
584.459	783.01
584.657	920.22
584.854	948.89
585.052	903.84
585.249	942.75
585.447	852.64
585.644	754.34
585.841	942.75
586.039	879.26
586.236	871.07
586.434	854.69
586.631	754.34
586.828	791.2
587.026	832.16
587.223	703.14
587.42	758.43
587.618	780.96
587.815	764.58
588.012	721.57
588.21	729.76
588.407	783.01
588.604	766.62
588.801	596.64
588.999	688.8
589.196	789.15
589.393	664.22
589.59	731.81
589.787	621.22
589.984	692.9
590.182	776.86
590.379	537.25
590.576	619.17
590.773	610.98
590.97	678.56
591.167	756.38
591.364	666.27
591.561	547.49
591.758	760.48
591.955	711.33
592.152	629.41
592.349	590.5
592.546	668.32
592.743	576.16
592.94	662.18
593.137	686.75
593.334	709.28
593.531	703.14
593.727	664.22
593.924	676.51
594.121	666.27
594.318	576.16
594.515	617.12
594.712	813.73
594.908	750.24
595.105	557.73
595.302	762.53
595.499	727.71
595.696	889.5
595.892	696.99
596.089	766.62
596.286	643.74
596.482	830.11
596.679	772.77
596.876	735.9
597.072	826.01
597.269	840.35
597.466	791.2
597.662	729.76
597.859	840.35
598.055	955.04
598.252	893.6
598.448	950.94
598.645	1067.67
598.841	1030.81
599.038	1155.74
599.234	1176.22
599.431	1200.79
599.627	1251.99
599.824	1272.47
600.02	1251.99
600.217	1325.72
600.413	1372.82
600.609	1383.06
600.806	1639.06
601.002	1481.36
601.198	1555.09
601.395	1720.98
601.591	1774.22
601.787	1796.75
601.984	1915.53
602.18	1915.53
602.376	2026.12
602.572	2062.99
602.769	2235.02
602.965	2212.49
603.161	2239.11
603.357	2374.28
603.553	2570.88
603.75	2437.77
603.946	2708.1
604.142	2550.4
604.338	2867.84
604.534	2779.78
604.73	3031.68
604.926	3011.2
605.122	3213.95
605.318	3181.18
605.514	3422.84
605.71	3404.41
605.906	3641.97
606.102	3586.68
606.298	3883.63
606.494	3938.93
606.69	3971.69
606.886	4205.16
607.082	4102.76
607.278	4401.77
607.474	4508.26
607.67	4745.83
607.866	4676.2
608.062	4856.42
608.257	4987.49
608.453	5098.08
608.649	5276.25
608.845	5370.46
609.041	5589.59
609.236	5835.35
609.432	5898.83
609.628	6271.56
609.824	6306.38
610.019	6402.63
610.215	6433.35
610.411	6935.1
610.606	7129.66
610.802	6937.15
610.998	7307.84
611.193	7572.02
611.389	7465.53
611.584	7983.66
611.78	7991.86
611.976	8188.46
612.171	8469.03
612.367	8612.39
612.562	8757.8
612.758	9230.88
612.953	9151.01
613.149	9636.38
613.344	9630.23
613.539	10048.02
613.735	10390.03
613.93	10564.11
614.126	10807.81
614.321	11268.61
614.517	11506.17
614.712	11706.87
614.907	12159.47
615.103	12397.04
615.298	12495.34
615.493	13216.22
615.688	13267.42
615.884	13849.05
616.079	13945.3
616.274	14698.95
616.47	14784.97
616.665	15030.73
616.86	15636.92
617.055	15835.58
617.25	15817.15
617.445	16849.32
617.641	16630.19
617.836	17529.25
618.031	17791.39
618.226	18420.11
618.421	18655.63
618.616	19317.12
618.811	19485.06
619.006	20271.48
619.201	20257.14
619.396	20707.69
619.591	20967.79
619.786	21811.55
619.981	22016.35
620.176	22794.57
620.371	22903.12
620.566	23886.14
620.761	24688.95
620.956	24631.6
621.151	24842.54
621.346	25764.13
621.541	25905.44
621.735	26919.18
621.93	26943.76
622.125	27754.76
622.32	27828.48
622.515	28700.92
622.709	28805.36
622.904	29251.82
623.099	30253.28
623.294	31006.93
623.488	30771.41
623.683	31697.1
623.878	31713.48
624.072	32682.17
624.267	33050.8
624.462	33493.16
624.656	33740.97
624.851	34601.11
625.046	35025.04
625.24	35561.61
625.435	35723.4
625.629	36612.22
625.824	36718.71
626.018	37650.54
626.213	37374.06
626.407	38320.23
626.602	38166.63
626.796	39241.81
626.991	39696.46
627.185	39594.06
627.38	40003.66
627.574	40423.49
627.768	40054.86
627.963	41041.98
628.157	40556.61
628.352	40964.15
628.546	40624.19
628.74	41080.89
628.935	40423.49
629.129	40808.51
629.323	40511.55
629.517	40808.51
629.712	40243.27
629.906	40001.61
630.1	39510.1
630.294	39100.5
630.489	38817.88
630.683	38545.5
630.877	37306.48
631.071	37490.8
631.265	36585.6
631.459	36171.91
631.653	35461.26
631.848	34289.82
632.042	33673.38
632.236	33290.41
632.43	31789.25
632.624	31404.24
632.818	30314.72
633.012	29423.85
633.206	28563.7
633.4	27691.27
633.594	26632.47
633.788	26214.68
633.982	25116.97
634.176	24353.08
634.369	23304.52
634.563	22591.83
634.757	21631.33
634.951	20951.4
635.145	19958.14
635.339	19249.54
635.533	18350.48
635.726	17957.27
635.92	17004.97
636.114	16222.64
636.308	15808.95
636.501	15014.34
636.695	14666.19
636.889	13789.66
637.083	13238.75
637.276	12712.42
637.47	12081.65
637.664	11692.54
637.857	11266.56
638.051	10947.08
638.244	10392.08
638.438	9974.29
638.632	9753.11
638.825	8946.21
639.019	8929.83
639.212	8421.93
639.406	8143.41
639.599	8004.14
639.793	7594.55
639.986	7336.51
640.18	6857.28
640.373	6554.18
640.567	6308.43
640.76	6210.12
640.954	6017.61
641.147	5605.97
641.34	5556.82
641.534	5237.34
641.727	5263.96
641.92	4942.43
642.114	4874.85
642.307	4551.27
642.5	4534.89
642.694	4158.06
642.887	4100.72
643.08	3854.96
643.273	3730.03
643.467	3543.67
643.66	3488.37
643.853	3316.34
644.046	3119.74
644.239	3072.64
644.432	2884.22
644.626	2722.43
644.819	2763.39
645.012	2683.52
645.205	2554.5
645.398	2550.4
645.591	2218.63
645.784	2169.48
645.977	2134.67
646.17	2087.56
646.363	2007.69
646.556	1897.1
646.749	1774.22
646.942	1706.64
647.135	1821.33
647.328	1661.59
647.521	1565.33
647.714	1462.93
647.907	1540.76
648.099	1395.35
648.292	1505.94
648.485	1372.82
648.678	1180.31
648.871	1176.22
649.064	1219.22
649.256	1059.48
649.449	1069.72
649.642	977.56
649.835	1055.39
650.027	1024.67
650.22	1043.1
650.413	1026.71
650.605	922.27
650.798	807.58
650.991	864.93
651.183	801.44
651.376	791.2
651.568	840.35
651.761	684.7
651.954	725.66
652.146	610.98
652.339	805.53
652.531	709.28
652.724	545.44
652.916	508.58
653.109	459.43
653.301	602.79
653.494	584.35
653.686	574.11
653.879	629.41
654.071	541.35
654.263	400.04
654.456	541.35
654.648	490.15
654.84	500.39
655.033	410.28
655.225	463.52
655.417	301.73
655.61	500.39
655.802	434.85
655.994	475.81
656.186	301.73
656.379	432.8
656.571	334.5
656.763	279.21
656.955	305.83
657.148	326.31
657.34	430.76
657.532	324.26
657.724	297.64
657.916	246.44
658.108	314.02
658.3	254.63
658.492	363.17
658.684	193.19
658.876	361.13
659.068	195.24
659.26	121.51
659.452	230.06
659.644	236.2
659.836	338.6
660.028	273.06
660.22	217.77
660.412	248.49
660.604	277.16
660.796	248.49
660.988	379.56
661.18	244.39
661.372	191.14
661.563	133.8
661.755	121.51
661.947	152.23
662.139	176.81
662.331	260.77
662.522	129.7
662.714	60.07
662.906	84.65
663.097	193.19
663.289	203.43
663.481	19.11
663.673	170.66
663.864	174.76
664.056	174.76
664.247	119.46
664.439	262.82
664.631	285.35
664.822	193.19
665.014	211.62
665.205	82.6
665.397	174.76
665.588	225.96
665.78	113.32
665.971	180.9
666.163	152.23
666.354	121.51
666.546	107.18
666.737	119.46
666.929	58.03
667.12	88.75
667.311	160.42
667.503	150.18
667.694	164.52
667.885	176.81
668.077	221.86
668.268	121.51
668.459	141.99
668.651	68.27
668.842	146.09
669.033	121.51
669.224	90.79
669.416	342.69
669.607	158.38
669.798	92.84
669.989	199.34
670.18	62.12
670.371	170.66
670.563	0.68
670.754	258.73
670.945	129.7
671.136	187.05
671.327	39.59
671.518	197.29
671.709	248.49
671.9	148.14
672.091	232.1
672.282	144.04
672.473	166.57
672.664	74.41
672.855	72.36
673.046	201.38
673.237	164.52
673.428	125.61
673.619	182.95
673.809	119.46
674	264.87
674.191	178.86
674.382	133.8
674.573	150.18
674.764	160.42
674.954	228.01
675.145	131.75
675.336	137.9
675.527	111.27
675.717	80.55
675.908	117.42
676.099	68.27
676.289	176.81
676.48	6.83
676.671	111.27
676.861	76.46
677.052	156.33
677.243	115.37
677.433	119.46
677.624	223.91
677.814	141.99
678.005	123.56
678.195	176.81
678.386	107.18
678.576	146.09
678.767	29.35
678.957	164.52
679.148	178.86
679.338	221.86
679.529	146.09
679.719	141.99
679.909	275.11
680.1	336.55
680.29	221.86
680.481	107.18
680.671	250.53
680.861	193.19
681.052	166.57
681.242	152.23
681.432	176.81
681.622	195.24
681.813	125.61
682.003	162.47
682.193	139.94
682.383	189.1
682.573	158.38
682.764	105.13
682.954	162.47
683.144	234.15
683.334	213.67
683.524	187.05
683.714	215.72
683.904	144.04
684.094	141.99
684.284	240.3
684.474	234.15
684.664	230.06
684.854	223.91
685.044	219.82
685.234	213.67
685.424	180.9
685.614	174.76
685.804	385.7
685.994	187.05
686.184	230.06
686.374	236.2
686.564	199.34
686.753	191.14
686.943	193.19
687.133	185
687.323	205.48
687.513	246.44
687.702	170.66
687.892	168.62
688.082	236.2
688.272	285.35
688.461	234.15
688.651	318.12
688.841	199.34
689.03	201.38
689.22	133.8
689.41	232.1
689.599	299.69
689.789	129.7
689.979	346.79
690.168	195.24
690.358	228.01
690.547	213.67
690.737	189.1
690.926	205.48
691.116	266.92
691.305	191.14
691.495	221.86
691.684	168.62
691.874	152.23
692.063	205.48
692.252	238.25
692.442	373.41
692.631	193.19
692.82	178.86
693.01	150.18
693.199	146.09
693.388	189.1
693.578	168.62
693.767	178.86
693.956	268.97
694.146	72.36
694.335	215.72
694.524	232.1
694.713	289.45
694.902	182.95
695.092	168.62
695.281	209.58
695.47	141.99
695.659	139.94
695.848	166.57
696.037	105.13
696.226	279.21
696.415	156.33
696.604	256.68
696.793	287.4
696.982	96.94
697.171	277.16
697.36	127.66
697.549	172.71
697.738	39.59
697.927	178.86
698.116	187.05
698.305	160.42
698.494	252.58
698.683	178.86
698.872	322.21
699.061	242.34
699.25	137.9
699.438	119.46
699.627	148.14
699.816	301.73
700.005	150.18
700.193	185
700.382	193.19
700.571	221.86
700.76	144.04
700.948	236.2
701.137	258.73
701.326	242.34
701.514	127.66
701.703	162.47
701.892	125.61
702.08	369.32
702.269	232.1
702.457	148.14
702.646	238.25
702.834	193.19
703.023	215.72
703.212	189.1
703.4	105.13
703.589	129.7
703.777	86.7
703.965	178.86
704.154	31.4
704.342	64.17
704.531	168.62
704.719	215.72
704.907	195.24
705.096	135.85
705.284	86.7
705.472	207.53
705.661	205.48
705.849	162.47
706.037	279.21
706.226	193.19
706.414	207.53
706.602	98.99
706.79	228.01
706.979	135.85
707.167	84.65
707.355	62.12
707.543	164.52
707.731	207.53
707.919	197.29
708.107	156.33
708.296	55.98
708.484	101.03
708.672	225.96
708.86	219.82
709.048	182.95
709.236	103.08
709.424	203.43
709.612	172.71
709.8	82.6
709.988	150.18
710.176	213.67
710.364	268.97
710.551	166.57
710.739	189.1
710.927	168.62
711.115	195.24
711.303	230.06
711.491	240.3
711.679	121.51
711.866	250.53
712.054	201.38
712.242	260.77
712.43	348.84
712.617	158.38
712.805	221.86
712.993	135.85
713.181	33.45
713.368	205.48
713.556	185
713.744	105.13
713.931	316.07
714.119	230.06
714.306	123.56
714.494	182.95
714.682	209.58
714.869	125.61
715.057	131.75
715.244	107.18
715.432	185
715.619	162.47
715.807	205.48
715.994	133.8
716.182	158.38
716.369	215.72
716.556	197.29
716.744	131.75
716.931	68.27
717.119	215.72
717.306	101.03
717.493	320.17
717.681	176.81
717.868	207.53
718.055	191.14
718.242	217.77
718.43	203.43
718.617	320.17
718.804	185
718.991	246.44
719.179	178.86
719.366	164.52
719.553	176.81
719.74	330.41
719.927	123.56
720.114	195.24
720.301	219.82
720.488	182.95
720.676	101.03
720.863	234.15
721.05	264.87
721.237	236.2
721.424	209.58
721.611	223.91
721.798	137.9
721.985	150.18
722.172	205.48
722.358	178.86
722.545	213.67
722.732	150.18
722.919	309.93
723.106	318.12
723.293	199.34
723.48	174.76
723.667	111.27
723.853	273.06
724.04	232.1
724.227	316.07
724.414	133.8
724.6	277.16
724.787	266.92
724.974	316.07
725.161	176.81
725.347	90.79
725.534	225.96
725.72	297.64
725.907	305.83
726.094	309.93
726.28	262.82
726.467	277.16
726.653	135.85
726.84	291.49
727.027	344.74
727.213	262.82
727.4	301.73
727.586	201.38
727.773	156.33
727.959	236.2
728.145	178.86
728.332	238.25
728.518	189.1
728.705	326.31
728.891	256.68
729.077	244.39
729.264	129.7
729.45	170.66
729.636	309.93
729.823	125.61
730.009	352.93
730.195	223.91
730.382	221.86
730.568	131.75
730.754	258.73
730.94	197.29
731.126	348.84
731.313	307.88
731.499	262.82
731.685	395.94
731.871	344.74
732.057	232.1
732.243	299.69
732.429	346.79
732.615	373.41
732.801	258.73
732.987	332.45
733.173	258.73
733.359	232.1
733.545	295.59
733.731	258.73
733.917	375.46
734.103	193.19
734.289	338.6
734.475	213.67
734.661	371.37
734.847	275.11
735.033	256.68
735.219	328.36
735.404	172.71
735.59	279.21
735.776	271.01
735.962	266.92
736.148	266.92
736.333	283.3
736.519	250.53
736.705	248.49
736.89	316.07
737.076	230.06
737.262	236.2
737.447	197.29
737.633	240.3
737.819	352.93
738.004	293.54
738.19	322.21
738.375	217.77
738.561	416.42
738.747	279.21
738.932	240.3
739.118	412.32
739.303	400.04
739.489	383.65
739.674	195.24
739.859	211.62
740.045	273.06
740.23	254.63
740.416	88.75
740.601	236.2
740.786	248.49
740.972	166.57
741.157	205.48
741.342	131.75
741.528	234.15
741.713	297.64
741.898	185
742.084	256.68
742.269	273.06
742.454	352.93
742.639	389.8
742.824	262.82
743.01	406.18
743.195	389.8
743.38	250.53
743.565	266.92
743.75	225.96
743.935	258.73
744.12	383.65
744.305	207.53
744.49	246.44
744.675	213.67
744.86	205.48
745.045	248.49
745.23	252.58
745.415	230.06
745.6	309.93
745.785	199.34
745.97	285.35
746.155	256.68
746.34	395.94
746.525	174.76
746.71	391.84
746.895	187.05
747.079	168.62
747.264	217.77
747.449	359.08
747.634	299.69
747.819	256.68
748.003	127.66
748.188	162.47
748.373	334.5
748.557	293.54
748.742	287.4
748.927	201.38
749.111	209.58
749.296	223.91
749.481	211.62
749.665	268.97
749.85	260.77
750.034	238.25
750.219	275.11
750.404	187.05
750.588	281.25
750.773	158.38
750.957	197.29
751.141	260.77
751.326	238.25
751.51	191.14
751.695	182.95
751.879	185
752.064	324.26
752.248	164.52
752.432	279.21
752.617	336.55
752.801	285.35
752.985	162.47
753.17	301.73
753.354	158.38
753.538	256.68
753.722	144.04
753.907	141.99
754.091	101.03
754.275	195.24
754.459	12.97
754.643	92.84
754.828	166.57
755.012	225.96
755.196	109.23
755.38	162.47
755.564	131.75
755.748	101.03
755.932	246.44
756.116	135.85
756.3	191.14
756.484	74.41
756.668	197.29
756.852	84.65
757.036	129.7
757.22	248.49
757.404	98.99
757.588	117.42
757.772	205.48
757.956	162.47
758.14	301.73
758.323	135.85
758.507	256.68
758.691	111.27
758.875	264.87
759.059	225.96
759.242	158.38
759.426	160.42
759.61	96.94
759.794	133.8
759.977	213.67
760.161	375.46
760.345	230.06
760.528	225.96
760.712	150.18
760.895	199.34
761.079	230.06
761.263	129.7
761.446	58.03
761.63	137.9
761.813	180.9
761.997	68.27
762.18	129.7
762.364	207.53
762.547	66.22
762.731	160.42
762.914	135.85
763.098	10.92
763.281	113.32
763.464	154.28
763.648	121.51
763.831	72.36
764.015	90.79
764.198	205.48
764.381	90.79
764.564	119.46
764.748	217.77
764.931	105.13
765.114	150.18
765.297	197.29
765.481	10.92
765.664	117.42
765.847	92.84
766.03	203.43
766.213	-30.04
766.397	119.46
766.58	119.46
766.763	176.81
766.946	150.18
767.129	72.36
767.312	109.23
767.495	131.75
767.678	109.23
767.861	101.03
768.044	125.61
768.227	121.51
768.41	74.41
768.593	113.32
768.776	92.84
768.959	98.99
769.142	141.99
769.324	107.18
769.507	58.03
769.69	90.79
769.873	47.79
770.056	283.3
770.239	115.37
770.421	219.82
770.604	88.75
770.787	49.83
770.97	197.29
771.152	35.5
771.335	182.95
771.518	-19.8
771.7	152.23
771.883	174.76
772.066	88.75
772.248	80.55
772.431	74.41
772.613	197.29
772.796	66.22
772.978	31.4
773.161	264.87
773.343	-25.94
773.526	33.45
773.708	-17.75
773.891	-15.7
774.073	29.35
774.256	72.36
774.438	166.57
774.621	41.64
774.803	107.18
774.985	133.8
775.168	115.37
775.35	94.89
775.532	135.85
775.715	66.22
775.897	141.99
776.079	115.37
776.261	55.98
776.444	98.99
776.626	96.94
776.808	68.27
776.99	-15.7
777.173	39.59
777.355	92.84
777.537	43.69
777.719	58.03
777.901	43.69
778.083	82.6
778.265	-5.46
778.447	158.38
778.629	29.35
778.811	58.03
778.993	113.32
779.175	117.42
779.357	133.8
779.539	-42.32
779.721	125.61
779.903	187.05
780.085	-21.85
780.267	117.42
780.449	53.93
780.631	146.09
780.812	148.14
780.994	90.79
781.176	47.79
781.358	6.83
781.54	119.46
781.721	121.51
781.903	113.32
782.085	2.73
782.267	152.23
782.448	-13.65
782.63	23.21
782.812	98.99
782.993	101.03
783.175	98.99
783.357	21.16
783.538	80.55
783.72	-68.95
783.901	33.45
784.083	127.66
784.264	41.64
784.446	-44.37
784.627	51.88
784.809	49.83
784.99	-7.51
785.172	-19.8
785.353	53.93
785.535	51.88
785.716	-46.42
785.897	-68.95
786.079	58.03
786.26	58.03
786.441	60.07
786.623	-77.14
786.804	15.02
786.985	96.94
787.167	70.31
787.348	96.94
787.529	12.97
787.71	195.24
787.891	74.41
788.073	-30.04
788.254	-122.2
788.435	174.76
788.616	-60.76
788.797	31.4
788.978	68.27
789.159	-9.56
789.34	84.65
789.522	94.89
789.703	8.87
789.884	80.55
790.065	47.79
790.246	137.9
790.427	-79.19
790.607	129.7
790.788	43.69
790.969	-7.51
791.15	33.45
791.331	6.83
791.512	45.74
791.693	-23.89
791.874	-25.94
792.054	141.99
792.235	144.04
792.416	-107.86
792.597	-25.94
792.778	109.23
792.958	78.51
793.139	51.88
793.32	90.79
793.5	0.68
793.681	98.99
793.862	8.87
794.042	23.21
794.223	-48.47
794.404	41.64
794.584	-7.51
794.765	62.12
794.945	12.97
795.126	53.93
795.306	119.46
795.487	-58.71
795.667	-83.28
795.848	-13.65
796.028	-13.65
796.209	53.93
796.389	60.07
796.57	-60.76
796.75	-34.13
796.93	25.26
797.111	-21.85
797.291	-66.9
797.471	105.13
797.652	-79.19
797.832	6.83
798.012	39.59
798.192	-34.13
798.373	-79.19
798.553	-30.04
798.733	31.4
798.913	-30.04
799.093	31.4
799.274	60.07
799.454	43.69
799.634	94.89
799.814	53.93
799.994	98.99
800.174	92.84
800.354	-3.41
800.534	-93.52
800.714	66.22
800.894	-87.38
801.074	-73.04
801.254	-66.9
801.434	70.31
801.614	39.59
801.794	-71
801.974	1798.8
802.154	41.64
802.334	37.55
802.514	-75.09
802.693	19.11
802.873	-27.99
803.053	150.18
803.233	-19.8
803.413	35.5
803.592	-1.37
803.772	-27.99
803.952	98.99
804.131	-116.05
804.311	148.14
804.491	47.79
804.67	-19.8
804.85	-42.32
805.03	-5.46
805.209	84.65
805.389	-15.7
805.568	51.88
805.748	15.02
805.928	55.98
806.107	27.31
806.287	23.21
806.466	47.79
806.646	27.31
806.825	-1.37
807.004	-93.52
807.184	-7.51
807.363	88.75
807.543	94.89
807.722	41.64
807.901	115.37
808.081	12.97
808.26	-148.82
808.439	-15.7
808.619	21.16
808.798	-27.99
808.977	-9.56
809.156	35.5
809.336	10.92
809.515	41.64
809.694	-27.99
809.873	37.55
810.052	51.88
810.231	109.23
810.411	-21.85
810.59	68.27
810.769	-23.89
810.948	94.89
811.127	-138.58
811.306	2.73
811.485	-11.61
811.664	141.99
811.843	-52.56
812.022	27.31
812.201	-62.8
812.38	10.92
812.559	-9.56
812.737	55.98
812.916	-64.85
813.095	31.4
813.274	39.59
813.453	-3.41
813.632	27.31
813.811	78.51
813.989	-138.58
814.168	-9.56
814.347	-81.24
814.526	-13.65
814.704	92.84
814.883	84.65
815.062	-40.28
815.24	39.59
815.419	-54.61
815.598	86.7
815.776	-85.33
815.955	-25.94
816.133	-148.82
816.312	45.74
816.49	-97.62
816.669	-19.8
816.847	37.55
817.026	23.21
817.204	-36.18
817.383	51.88
817.561	-5.46
817.74	10.92
817.918	-62.8
818.097	17.07
818.275	-23.89
818.453	90.79
818.632	72.36
818.81	49.83
818.988	-64.85
819.167	-75.09
819.345	25.26
819.523	-140.63
819.701	51.88
819.879	39.59
820.058	2.73
820.236	-32.08
820.414	0.68
820.592	4.78
820.77	-3.41
820.948	-42.32
821.127	-46.42
821.305	6.83
821.483	-95.57
821.661	33.45
821.839	64.17
822.017	-23.89
822.195	-85.33
822.373	109.23
822.551	-83.28
822.729	47.79
822.907	-25.94
823.085	0.68
823.262	12.97
823.44	-85.33
823.618	-42.32
823.796	-62.8
823.974	-5.46
824.152	15.02
824.329	-83.28
824.507	-5.46
824.685	41.64
824.863	-9.56
825.04	10.92
825.218	35.5
825.396	-7.51
825.574	19.11
825.751	55.98
825.929	-27.99
826.107	-77.14
826.284	-40.28
826.462	-11.61
826.639	-54.61
826.817	-36.18
826.994	-1.37
827.172	-116.05
827.349	72.36
827.527	-62.8
827.704	-17.75
827.882	141.99
828.059	25.26
828.237	51.88
828.414	53.93
828.591	-159.06
828.769	80.55
828.946	-103.76
829.124	55.98
829.301	80.55
829.478	27.31
829.655	60.07
829.833	-15.7
830.01	-97.62
830.187	17.07
830.364	49.83
830.542	-48.47
830.719	53.93
830.896	41.64
831.073	62.12
831.25	-21.85
831.427	29.35
831.604	-17.75
831.782	-44.37
831.959	12.97
832.136	-36.18
832.313	0.68
832.49	-81.24
832.667	84.65
832.844	68.27
833.021	80.55
833.198	4.78
833.374	51.88
833.551	-40.28
833.728	-17.75
833.905	125.61
834.082	-161.11
834.259	35.5
834.436	43.69
834.612	-111.96
834.789	70.31
834.966	-17.75
835.143	15.02
835.319	-62.8
835.496	-21.85
835.673	43.69
835.85	37.55
836.026	53.93
836.203	0.68
836.38	-58.71
836.556	-21.85
836.733	-25.94
836.909	21.16
837.086	-5.46
837.262	-79.19
837.439	15.02
837.616	-13.65
837.792	-54.61
837.968	8.87
838.145	-105.81
838.321	-19.8
838.498	-11.61
838.674	39.59
838.851	-9.56
839.027	84.65
839.203	10.92
839.38	6.83
839.556	-9.56
839.732	123.56
839.909	-17.75
840.085	49.83
840.261	-50.52
840.437	-50.52
840.614	21.16
840.79	105.13
840.966	41.64
841.142	21.16
841.318	-54.61
841.494	62.12
841.671	-23.89
841.847	-99.67
842.023	-64.85
842.199	55.98
842.375	70.31
842.551	-126.29
842.727	-75.09
842.903	109.23
843.079	-122.2
843.255	133.8
843.431	29.35
843.607	33.45
843.783	-218.45
843.959	-52.56
844.134	-81.24
844.31	121.51
844.486	-23.89
844.662	-60.76
844.838	-11.61
845.013	76.46
845.189	70.31
845.365	-52.56
845.541	6.83
845.716	35.5
845.892	49.83
846.068	-15.7
846.244	-50.52
846.419	37.55
846.595	-77.14
846.77	-52.56
846.946	45.74
847.122	-62.8
847.297	-36.18
847.473	148.14
847.648	-52.56
847.824	-7.51
847.999	-130.39
848.175	-42.32
848.35	41.64
848.526	111.27
848.701	76.46
848.876	-13.65
849.052	103.08
849.227	-36.18
849.403	-54.61
849.578	15.02
849.753	-9.56
849.929	45.74
850.104	-89.43
850.279	-68.95
850.454	2.73
850.63	-1.37
850.805	-15.7
850.98	29.35
851.155	-81.24
851.33	49.83
851.505	-103.76
851.681	41.64
851.856	-36.18
852.031	-19.8
852.206	101.03
852.381	-83.28
852.556	-44.37
852.731	-15.7
852.906	96.94
853.081	62.12
853.256	62.12
853.431	-9.56
853.606	-44.37
853.781	-75.09
853.956	-179.54
854.131	37.55
854.305	-66.9
854.48	-15.7
854.655	-109.91
854.83	-17.75
855.005	-134.48
855.18	15.02
855.354	-73.04
855.529	-9.56
855.704	12.97
855.879	35.5
856.053	-46.42
856.228	29.35
856.403	-68.95
856.577	2.73
856.752	-107.86
856.926	-77.14
857.101	29.35
857.276	-118.1
857.45	51.88
857.625	55.98
857.799	64.17
857.974	2.73
858.148	-185.68
858.323	-58.71
858.497	-1.37
858.672	-99.67
858.846	-60.76
859.02	6.83
859.195	-73.04
859.369	-32.08
859.543	88.75
859.718	35.5
859.892	-1.37
860.066	15.02
860.241	25.26
860.415	-23.89
860.589	-13.65
860.763	-54.61
860.938	47.79
861.112	-34.13
861.286	6.83
861.46	15.02
861.634	-83.28
861.808	148.14
861.982	-91.48
862.157	-60.76
862.331	-116.05
862.505	-38.23
862.679	-122.2
862.853	-95.57
863.027	0.68
863.201	98.99
863.375	-83.28
863.549	-38.23
863.722	-38.23
863.896	96.94
864.07	-66.9
864.244	-64.85
864.418	39.59
864.592	4.78
864.766	-54.61
864.939	-34.13
865.113	-17.75
865.287	146.09
865.461	-89.43
865.634	10.92
865.808	-38.23
865.982	-87.38
866.156	-54.61
866.329	-71
866.503	39.59
866.676	23.21
866.85	41.64
867.024	-71
867.197	29.35
867.371	15.02
867.544	31.4
867.718	-48.47
867.891	17.07
868.065	-89.43
868.238	60.07
868.412	27.31
868.585	41.64
868.759	-130.39
868.932	-40.28
869.105	-46.42
869.279	-46.42
869.452	-40.28
869.625	55.98
869.799	-5.46
869.972	-134.48
870.145	-50.52
870.319	72.36
870.492	-40.28
870.665	-38.23
870.838	-114
871.011	-124.24
871.185	31.4
871.358	-97.62
871.531	-27.99
871.704	-27.99
871.877	15.02
872.05	-42.32
872.223	-97.62
872.396	43.69
872.569	15.02
872.742	-120.15
872.915	-5.46
873.088	-42.32
873.261	-23.89
873.434	86.7
873.607	-40.28
873.78	109.23
873.953	-87.38
874.126	-27.99
874.299	0.68
874.471	-44.37
874.644	-52.56
874.817	0.68
874.99	111.27
875.163	-11.61
875.335	-42.32
875.508	37.55
875.681	72.36
875.853	-87.38
876.026	-40.28
876.199	49.83
876.371	2.73
876.544	-87.38
876.717	-11.61
876.889	17.07
877.062	68.27
877.234	-122.2
877.407	35.5
877.579	-62.8
877.752	-32.08
877.924	47.79
878.097	-9.56
878.269	-25.94
878.442	15.02
878.614	35.5
878.786	41.64
878.959	6.83
879.131	-30.04
879.303	-79.19
879.476	-34.13
879.648	90.79
879.82	-19.8
879.993	43.69
880.165	-32.08
880.337	-111.96
880.509	-40.28
880.681	-77.14
880.854	-111.96
881.026	41.64
881.198	141.99
881.37	-13.65
881.542	15.02
881.714	-17.75
881.886	-13.65
882.058	-5.46
882.23	76.46
882.402	-11.61
882.574	-21.85
882.746	-21.85
882.918	94.89
883.09	66.22
883.262	-36.18
883.434	0.68
883.606	-75.09
883.778	10.92
883.95	60.07
884.122	0.68
884.293	74.41
884.465	15.02
884.637	17.07
884.809	-44.37
884.98	37.55
885.152	39.59
885.324	45.74
885.496	-114
885.667	-68.95
885.839	-56.66
886.011	8.87
886.182	47.79
886.354	29.35
886.525	31.4
886.697	-21.85
886.869	-46.42
887.04	10.92
887.212	90.79
887.383	176.81
887.555	-77.14
887.726	-21.85
887.897	-54.61
888.069	39.59
888.24	31.4
888.412	12.97
888.583	-62.8
888.754	-56.66
888.926	-105.81
889.097	-75.09
889.268	-66.9
889.44	4.78
889.611	-79.19
889.782	-56.66
889.953	-114
890.125	84.65
890.296	-54.61
890.467	-103.76
890.638	-85.33
890.809	29.35
890.98	-38.23
891.151	70.31
891.323	105.13
891.494	-50.52
891.665	80.55
891.836	8.87
892.007	-46.42
892.178	4.78
892.349	-19.8
892.52	-79.19
892.691	19.11
892.862	-101.72
893.032	-181.59
893.203	-38.23
893.374	-27.99
893.545	47.79
893.716	-73.04
893.887	-17.75
894.057	-58.71
894.228	-48.47
894.399	-64.85
894.57	-27.99
894.74	27.31
894.911	-21.85
895.082	31.4
895.253	-111.96
895.423	45.74
895.594	-44.37
895.764	-21.85
895.935	-19.8
896.106	12.97
896.276	-62.8
896.447	29.35
896.617	-38.23
896.788	-95.57
896.958	-9.56
897.129	-62.8
897.299	-71
897.47	51.88
897.64	-17.75
897.81	17.07
897.981	-36.18
898.151	-17.75
898.322	-38.23
898.492	-19.8
898.662	-17.75
898.832	-38.23
899.003	-40.28
899.173	45.74
899.343	-38.23
899.513	-144.72
