Data from USB4F104151__70__10-31-53-152.txt Node

Date: Wed Feb 26 10:31:53 EST 2025
User: louis
Spectrometer: USB4F10415
Trigger mode: 4
Integration Time (sec): 1.000000E-1
Scans to average: 1
Electric dark correction enabled: true
Nonlinearity correction enabled: false
Boxcar width: 0
XAxis mode: Wavelengths
Number of Pixels in Spectrum: 3648
>>>>>Begin Spectral Data<<<<<
178.204	-333.14
178.424	-333.14
178.644	-333.14
178.864	-392.53
179.084	-376.14
179.304	-42.32
179.524	-3.41
179.744	8.87
179.964	-17.75
180.184	21.16
180.404	31.4
180.624	17.07
180.844	-17.75
181.064	-99.67
181.283	66.22
181.503	-15.7
181.723	51.88
181.943	-83.28
182.163	182.95
182.383	8.87
182.602	29.35
182.822	162.47
183.042	58.03
183.262	10.92
183.482	-21.84
183.701	88.75
183.921	94.89
184.141	-46.42
184.361	121.51
184.58	51.88
184.8	115.37
185.02	62.12
185.239	148.14
185.459	78.51
185.679	129.7
185.898	-25.94
186.118	115.37
186.338	74.41
186.557	150.18
186.777	-105.81
186.997	8.87
187.216	27.31
187.436	203.43
187.655	98.99
187.875	49.83
188.095	74.41
188.314	29.35
188.534	172.71
188.753	12.97
188.973	129.7
189.192	172.71
189.412	10.92
189.631	27.31
189.851	47.79
190.07	152.23
190.29	62.12
190.509	-50.52
190.729	92.84
190.948	150.18
191.168	211.62
191.387	74.41
191.607	12.97
191.826	84.65
192.045	-17.75
192.265	-23.89
192.484	74.41
192.704	33.45
192.923	-62.8
193.142	187.05
193.362	139.94
193.581	178.86
193.8	12.97
194.02	115.37
194.239	135.85
194.458	141.99
194.678	-9.56
194.897	-30.04
195.116	101.03
195.335	-42.32
195.555	21.16
195.774	29.35
195.993	195.24
196.212	33.45
196.432	45.74
196.651	-75.09
196.87	-42.32
197.089	271.01
197.308	35.5
197.528	68.27
197.747	-109.91
197.966	41.64
198.185	123.56
198.404	-60.76
198.623	135.85
198.842	109.23
199.062	55.98
199.281	66.22
199.5	35.5
199.719	119.46
199.938	123.56
200.157	78.51
200.376	205.48
200.595	152.23
200.814	72.36
201.033	-34.13
201.252	213.67
201.471	-30.04
201.69	92.84
201.909	-7.51
202.128	35.5
202.347	74.41
202.566	70.31
202.785	-15.7
203.004	35.5
203.223	176.81
203.442	80.55
203.661	-42.32
203.879	33.45
204.098	119.46
204.317	0.68
204.536	131.75
204.755	74.41
204.974	178.86
205.193	70.31
205.411	185
205.63	105.13
205.849	31.4
206.068	27.31
206.287	33.45
206.505	111.27
206.724	12.97
206.943	-64.85
207.162	-34.13
207.381	10.92
207.599	-36.18
207.818	-30.04
208.037	-5.46
208.255	4.78
208.474	80.55
208.693	10.92
208.911	-9.56
209.13	86.7
209.349	51.88
209.567	90.79
209.786	84.65
210.005	117.42
210.223	66.22
210.442	-126.29
210.661	66.22
210.879	62.12
211.098	111.27
211.316	133.8
211.535	82.6
211.753	60.07
211.972	72.36
212.191	-38.23
212.409	76.46
212.628	117.42
212.846	64.17
213.065	19.11
213.283	131.75
213.502	33.45
213.72	66.22
213.938	-9.56
214.157	17.07
214.375	86.7
214.594	49.83
214.812	107.18
215.031	98.99
215.249	70.31
215.467	96.94
215.686	70.31
215.904	58.03
216.122	60.07
216.341	105.13
216.559	76.46
216.778	96.94
216.996	76.46
217.214	43.69
217.432	25.26
217.651	-11.61
217.869	68.27
218.087	76.46
218.306	17.07
218.524	88.75
218.742	66.22
218.96	98.99
219.179	80.55
219.397	105.13
219.615	238.25
219.833	88.75
220.051	-11.61
220.27	49.83
220.488	29.35
220.706	98.99
220.924	31.4
221.142	-21.84
221.36	107.18
221.578	39.59
221.796	23.21
222.015	31.4
222.233	64.17
222.451	109.23
222.669	-21.84
222.887	86.7
223.105	-27.99
223.323	12.97
223.541	-44.37
223.759	96.94
223.977	25.26
224.195	123.56
224.413	68.27
224.631	-13.65
224.849	37.55
225.067	201.38
225.285	33.45
225.503	-25.94
225.721	-54.61
225.939	8.87
226.157	35.5
226.375	187.05
226.592	15.02
226.81	29.35
227.028	37.55
227.246	113.32
227.464	12.97
227.682	41.64
227.9	53.93
228.117	31.4
228.335	-27.99
228.553	78.51
228.771	23.21
228.989	49.83
229.206	107.18
229.424	27.31
229.642	23.21
229.86	45.74
230.077	53.93
230.295	8.87
230.513	109.23
230.731	8.87
230.948	152.23
231.166	189.1
231.384	62.12
231.601	-54.61
231.819	205.48
232.037	35.5
232.254	-44.37
232.472	19.11
232.689	17.07
232.907	105.13
233.125	74.41
233.342	17.07
233.56	-5.46
233.777	-64.85
233.995	45.74
234.213	123.56
234.43	131.75
234.648	-13.65
234.865	53.93
235.083	68.27
235.3	103.08
235.518	58.03
235.735	133.8
235.953	158.38
236.17	72.36
236.388	15.02
236.605	45.74
236.822	76.46
237.04	139.94
237.257	-19.8
237.475	-34.13
237.692	66.22
237.909	37.55
238.127	-1.37
238.344	105.13
238.562	12.97
238.779	6.83
238.996	33.45
239.214	43.69
239.431	80.55
239.648	51.88
239.865	84.65
240.083	96.94
240.3	-46.42
240.517	-7.51
240.735	74.41
240.952	76.46
241.169	62.12
241.386	107.18
241.603	70.31
241.821	-38.23
242.038	146.09
242.255	133.8
242.472	-56.66
242.689	144.04
242.907	105.13
243.124	37.55
243.341	0.68
243.558	-56.66
243.775	-48.47
243.992	39.59
244.209	98.99
244.426	78.51
244.643	37.55
244.86	31.4
245.078	27.31
245.295	-34.13
245.512	47.79
245.729	-5.46
245.946	10.92
246.163	64.17
246.38	39.59
246.597	29.35
246.814	37.55
247.031	58.03
247.248	23.21
247.464	168.62
247.681	70.31
247.898	10.92
248.115	76.46
248.332	-46.42
248.549	172.71
248.766	211.62
248.983	68.27
249.2	55.98
249.417	150.18
249.633	47.79
249.85	70.31
250.067	125.61
250.284	152.23
250.501	64.17
250.717	82.6
250.934	-64.85
251.151	64.17
251.368	-13.65
251.585	133.8
251.801	37.55
252.018	-7.51
252.235	168.62
252.451	-11.61
252.668	39.59
252.885	174.76
253.102	64.17
253.318	-40.28
253.535	74.41
253.752	-19.8
253.968	-11.61
254.185	-73.04
254.401	29.35
254.618	21.16
254.835	-30.04
255.051	113.32
255.268	84.65
255.484	47.79
255.701	-50.52
255.917	37.55
256.134	21.16
256.351	25.26
256.567	-124.24
256.784	78.51
257	-91.48
257.217	80.55
257.433	25.26
257.65	70.31
257.866	199.34
258.082	-105.81
258.299	-54.61
258.515	37.55
258.732	37.55
258.948	-27.99
259.165	55.98
259.381	-95.57
259.597	70.31
259.814	55.98
260.03	66.22
260.246	60.07
260.463	101.03
260.679	115.37
260.895	41.64
261.112	43.69
261.328	-11.61
261.544	76.46
261.761	244.39
261.977	23.21
262.193	-36.18
262.409	103.08
262.626	70.31
262.842	49.83
263.058	33.45
263.274	180.9
263.49	58.03
263.707	72.36
263.923	207.53
264.139	-79.19
264.355	47.79
264.571	96.94
264.787	90.79
265.004	74.41
265.22	17.07
265.436	-19.8
265.652	2.73
265.868	58.03
266.084	-30.04
266.3	12.97
266.516	-64.85
266.732	19.11
266.948	45.74
267.164	-30.04
267.38	88.75
267.596	96.94
267.812	225.96
268.028	113.32
268.244	10.92
268.46	76.46
268.676	-3.41
268.892	68.27
269.108	41.64
269.324	-64.85
269.54	-71
269.756	90.79
269.972	-30.04
270.188	43.69
270.403	-7.51
270.619	35.5
270.835	123.56
271.051	86.7
271.267	39.59
271.483	23.21
271.698	103.08
271.914	43.69
272.13	23.21
272.346	6.83
272.562	66.22
272.777	154.28
272.993	-25.94
273.209	45.74
273.425	121.51
273.64	-15.7
273.856	82.6
274.072	-9.56
274.287	19.11
274.503	103.08
274.719	78.51
274.934	4.78
275.15	-52.56
275.366	-21.84
275.581	-9.56
275.797	58.03
276.012	27.31
276.228	-71
276.444	55.98
276.659	156.33
276.875	62.12
277.09	72.36
277.306	-13.65
277.521	68.27
277.737	-13.65
277.952	105.13
278.168	105.13
278.383	-3.41
278.599	21.16
278.814	92.84
279.03	62.12
279.245	148.14
279.461	72.36
279.676	94.89
279.892	47.79
280.107	-52.56
280.322	-54.61
280.538	74.41
280.753	15.02
280.969	-3.41
281.184	39.59
281.399	162.47
281.615	6.83
281.83	51.88
282.045	-68.95
282.26	29.35
282.476	17.07
282.691	68.27
282.906	58.03
283.122	131.75
283.337	37.55
283.552	70.31
283.767	-32.08
283.983	96.94
284.198	88.75
284.413	94.89
284.628	-32.08
284.843	51.88
285.058	33.45
285.274	68.27
285.489	47.79
285.704	58.03
285.919	-93.52
286.134	58.03
286.349	78.51
286.564	68.27
286.779	139.94
286.995	-11.61
287.21	-48.47
287.425	25.26
287.64	29.35
287.855	84.65
288.07	-54.61
288.285	160.42
288.5	185
288.715	170.66
288.93	74.41
289.145	-11.61
289.36	51.88
289.575	37.55
289.79	217.77
290.004	-38.23
290.219	168.62
290.434	27.31
290.649	-19.8
290.864	17.07
291.079	17.07
291.294	92.84
291.509	86.7
291.724	0.68
291.938	-77.14
292.153	55.98
292.368	58.03
292.583	23.21
292.798	70.31
293.012	68.27
293.227	43.69
293.442	6.83
293.657	119.46
293.871	172.71
294.086	33.45
294.301	156.33
294.516	141.99
294.73	-7.51
294.945	-85.33
295.16	15.02
295.374	113.32
295.589	78.51
295.804	-83.28
296.018	35.5
296.233	129.7
296.447	-19.8
296.662	-5.46
296.877	154.28
297.091	117.42
297.306	58.03
297.52	39.59
297.735	12.97
297.949	70.31
298.164	55.98
298.378	60.07
298.593	-44.37
298.807	31.4
299.022	33.45
299.236	109.23
299.451	-89.43
299.665	33.45
299.88	33.45
300.094	98.99
300.309	31.4
300.523	47.79
300.737	-44.37
300.952	43.69
301.166	88.75
301.381	45.74
301.595	51.88
301.809	21.16
302.024	-44.37
302.238	90.79
302.452	139.94
302.667	-75.09
302.881	113.32
303.095	66.22
303.309	51.88
303.524	41.64
303.738	43.69
303.952	-32.08
304.166	60.07
304.381	-103.76
304.595	168.62
304.809	12.97
305.023	88.75
305.237	31.4
305.452	0.68
305.666	131.75
305.88	105.13
306.094	74.41
306.308	123.56
306.522	158.38
306.736	25.26
306.95	180.9
307.164	115.37
307.379	72.36
307.593	103.08
307.807	135.85
308.021	68.27
308.235	17.07
308.449	-36.18
308.663	-46.42
308.877	211.62
309.091	45.74
309.305	131.75
309.519	-136.53
309.733	74.41
309.947	4.78
310.161	64.17
310.374	107.18
310.588	152.23
310.802	-38.23
311.016	-36.18
311.23	53.93
311.444	-15.7
311.658	6.83
311.872	70.31
312.085	156.33
312.299	103.08
312.513	96.94
312.727	88.75
312.941	-19.8
313.154	70.31
313.368	94.89
313.582	58.03
313.796	12.97
314.009	80.55
314.223	129.7
314.437	68.27
314.651	76.46
314.864	-17.75
315.078	76.46
315.292	-13.65
315.505	-19.8
315.719	107.18
315.933	37.55
316.146	-27.99
316.36	-7.51
316.573	197.29
316.787	78.51
317.001	123.56
317.214	29.35
317.428	37.55
317.641	-13.65
317.855	35.5
318.068	-27.99
318.282	76.46
318.495	197.29
318.709	125.61
318.922	-3.41
319.136	139.94
319.349	115.37
319.563	58.03
319.776	60.07
319.99	-54.61
320.203	80.55
320.417	-21.84
320.63	139.94
320.843	139.94
321.057	117.42
321.27	-52.56
321.483	58.03
321.697	117.42
321.91	86.7
322.124	58.03
322.337	8.87
322.55	55.98
322.763	45.74
322.977	-30.04
323.19	41.64
323.403	80.55
323.617	66.22
323.83	170.66
324.043	82.6
324.256	21.16
324.469	43.69
324.683	197.29
324.896	19.11
325.109	92.84
325.322	-34.13
325.535	58.03
325.748	123.56
325.962	-21.84
326.175	76.46
326.388	4.78
326.601	129.7
326.814	-3.41
327.027	72.36
327.24	139.94
327.453	-7.51
327.666	164.52
327.879	113.32
328.092	66.22
328.305	127.66
328.518	0.68
328.731	19.11
328.944	37.55
329.157	21.16
329.37	12.97
329.583	164.52
329.796	160.42
330.009	-54.61
330.222	76.46
330.435	115.37
330.648	94.89
330.861	72.36
331.073	29.35
331.286	154.28
331.499	25.26
331.712	-1.37
331.925	37.55
332.138	68.27
332.35	70.31
332.563	-1.37
332.776	103.08
332.989	-48.47
333.202	-1.37
333.414	-7.51
333.627	76.46
333.84	37.55
334.053	103.08
334.265	-38.23
334.478	21.16
334.691	43.69
334.903	64.17
335.116	-25.94
335.329	25.26
335.541	94.89
335.754	121.51
335.966	27.31
336.179	21.16
336.392	-38.23
336.604	68.27
336.817	39.59
337.029	49.83
337.242	37.55
337.454	76.46
337.667	49.83
337.88	37.55
338.092	88.75
338.305	90.79
338.517	21.16
338.729	94.89
338.942	152.23
339.154	62.12
339.367	-17.75
339.579	41.64
339.792	23.21
340.004	49.83
340.217	33.45
340.429	27.31
340.641	21.16
340.854	35.5
341.066	-1.37
341.278	90.79
341.491	131.75
341.703	-7.51
341.915	47.79
342.128	49.83
342.34	21.16
342.552	-19.8
342.764	90.79
342.977	31.4
343.189	92.84
343.401	94.89
343.613	41.64
343.826	-62.8
344.038	4.78
344.25	139.94
344.462	-87.38
344.674	49.83
344.886	29.35
345.099	94.89
345.311	82.6
345.523	119.46
345.735	-79.19
345.947	152.23
346.159	-17.75
346.371	-7.51
346.583	-1.37
346.795	228.01
347.007	2.73
347.219	84.65
347.431	-30.04
347.643	72.36
347.855	-21.84
348.067	160.42
348.279	-50.52
348.491	109.23
348.703	72.36
348.915	33.45
349.127	-7.51
349.339	33.45
349.551	35.5
349.763	53.93
349.975	66.22
350.187	156.33
350.399	82.6
350.61	49.83
350.822	51.88
351.034	35.5
351.246	80.55
351.458	70.31
351.669	70.31
351.881	96.94
352.093	121.51
352.305	109.23
352.517	68.27
352.728	232.1
352.94	60.07
353.152	103.08
353.363	90.79
353.575	90.79
353.787	133.8
353.999	84.65
354.21	156.33
354.422	70.31
354.633	-25.94
354.845	41.64
355.057	51.88
355.268	25.26
355.48	92.84
355.692	-30.04
355.903	88.75
356.115	-11.61
356.326	-71
356.538	162.47
356.749	86.7
356.961	158.38
357.172	12.97
357.384	-36.18
357.595	191.14
357.807	33.45
358.018	-40.28
358.23	105.13
358.441	144.04
358.653	78.51
358.864	96.94
359.075	-17.75
359.287	21.16
359.498	137.9
359.709	19.11
359.921	-9.56
360.132	84.65
360.344	53.93
360.555	-27.99
360.766	88.75
360.977	37.55
361.189	129.7
361.4	68.27
361.611	107.18
361.823	178.86
362.034	-9.56
362.245	-93.52
362.456	43.69
362.667	107.18
362.879	-36.18
363.09	94.89
363.301	39.59
363.512	33.45
363.723	-1.37
363.935	41.64
364.146	76.46
364.357	25.26
364.568	31.4
364.779	12.97
364.99	105.13
365.201	-19.8
365.412	158.38
365.623	-114
365.834	88.75
366.045	-30.04
366.256	68.27
366.467	-27.99
366.678	-38.23
366.889	72.36
367.1	6.83
367.311	88.75
367.522	25.26
367.733	53.93
367.944	78.51
368.155	82.6
368.366	107.18
368.577	148.14
368.788	70.31
368.999	-32.08
369.209	170.66
369.42	203.43
369.631	168.62
369.842	84.65
370.053	17.07
370.264	90.79
370.474	-52.56
370.685	25.26
370.896	0.68
371.107	105.13
371.317	101.03
371.528	-1.37
371.739	84.65
371.95	139.94
372.16	76.46
372.371	0.68
372.582	-44.37
372.792	127.66
373.003	45.74
373.214	41.64
373.424	133.8
373.635	-19.8
373.846	160.42
374.056	31.4
374.267	55.98
374.477	29.35
374.688	12.97
374.898	182.95
375.109	-9.56
375.319	53.93
375.53	144.04
375.74	137.9
375.951	29.35
376.161	107.18
376.372	133.8
376.582	-46.42
376.793	109.23
377.003	-3.41
377.214	2.73
377.424	82.6
377.635	-79.19
377.845	-73.04
378.055	207.53
378.266	47.79
378.476	68.27
378.686	53.93
378.897	29.35
379.107	209.58
379.317	33.45
379.528	-1.37
379.738	141.99
379.948	-66.9
380.158	129.7
380.369	-3.41
380.579	-30.04
380.789	12.97
380.999	139.94
381.21	107.18
381.42	197.29
381.63	-30.04
381.84	156.33
382.05	170.66
382.261	139.94
382.471	131.75
382.681	-60.76
382.891	156.33
383.101	103.08
383.311	0.68
383.521	27.31
383.731	123.56
383.941	64.17
384.151	66.22
384.361	55.98
384.571	70.31
384.781	47.79
384.991	232.1
385.201	203.43
385.411	133.8
385.621	33.45
385.831	72.36
386.041	76.46
386.251	-9.56
386.461	121.51
386.671	-3.41
386.881	45.74
387.091	45.74
387.301	78.51
387.511	-3.41
387.72	90.79
387.93	127.66
388.14	-148.82
388.35	92.84
388.56	125.61
388.769	96.94
388.979	41.64
389.189	39.59
389.399	82.6
389.609	103.08
389.818	82.6
390.028	39.59
390.238	96.94
390.447	-81.24
390.657	-5.46
390.867	-27.99
391.076	-52.56
391.286	86.7
391.496	70.31
391.705	-7.51
391.915	103.08
392.125	70.31
392.334	49.83
392.544	146.09
392.753	64.17
392.963	-15.7
393.172	115.37
393.382	-54.61
393.591	139.94
393.801	-3.41
394.01	129.7
394.22	230.06
394.429	-23.89
394.639	37.55
394.848	74.41
395.058	21.16
395.267	-11.61
395.477	90.79
395.686	47.79
395.895	213.67
396.105	195.24
396.314	58.03
396.524	-7.51
396.733	6.83
396.942	160.42
397.152	96.94
397.361	121.51
397.57	98.99
397.78	21.16
397.989	-1.37
398.198	201.38
398.407	47.79
398.617	58.03
398.826	103.08
399.035	6.83
399.244	55.98
399.453	78.51
399.663	10.92
399.872	76.46
400.081	-101.72
400.29	137.9
400.499	12.97
400.708	115.37
400.917	41.64
401.127	55.98
401.336	-11.61
401.545	185
401.754	225.96
401.963	141.99
402.172	8.87
402.381	51.88
402.59	-11.61
402.799	58.03
403.008	84.65
403.217	101.03
403.426	37.55
403.635	2.73
403.844	66.22
404.053	-48.47
404.262	-5.46
404.471	166.57
404.68	119.46
404.888	12.97
405.097	15.02
405.306	70.31
405.515	17.07
405.724	10.92
405.933	78.51
406.142	72.36
406.35	90.79
406.559	78.51
406.768	-15.7
406.977	201.38
407.185	12.97
407.394	82.6
407.603	-71
407.812	60.07
408.02	70.31
408.229	19.11
408.438	41.64
408.646	-32.08
408.855	6.83
409.064	47.79
409.272	23.21
409.481	53.93
409.69	-7.51
409.898	2.73
410.107	88.75
410.315	113.32
410.524	19.11
410.733	82.6
410.941	27.31
411.15	150.18
411.358	41.64
411.567	96.94
411.775	15.02
411.984	74.41
412.192	64.17
412.401	55.98
412.609	191.14
412.818	105.13
413.026	117.42
413.234	25.26
413.443	41.64
413.651	31.4
413.86	33.45
414.068	139.94
414.276	129.7
414.485	35.5
414.693	115.37
414.901	148.14
415.11	105.13
415.318	158.38
415.526	45.74
415.734	123.56
415.943	31.4
416.151	139.94
416.359	64.17
416.567	82.6
416.776	101.03
416.984	64.17
417.192	168.62
417.4	96.94
417.608	12.97
417.817	-34.13
418.025	123.56
418.233	166.57
418.441	64.17
418.649	-44.37
418.857	35.5
419.065	160.42
419.273	-15.7
419.481	111.27
419.689	84.65
419.897	-23.89
420.105	23.21
420.313	43.69
420.521	109.23
420.729	137.9
420.937	51.88
421.145	19.11
421.353	107.18
421.561	144.04
421.769	41.64
421.977	8.87
422.185	172.71
422.393	-3.41
422.601	94.89
422.809	74.41
423.017	86.7
423.224	64.17
423.432	137.9
423.64	121.51
423.848	96.94
424.056	39.59
424.263	185
424.471	37.55
424.679	189.1
424.887	-73.04
425.094	109.23
425.302	84.65
425.51	125.61
425.718	123.56
425.925	82.6
426.133	-23.89
426.341	219.82
426.548	19.11
426.756	21.16
426.964	94.89
427.171	82.6
427.379	66.22
427.586	101.03
427.794	172.71
428.001	25.26
428.209	144.04
428.417	154.28
428.624	98.99
428.832	137.9
429.039	6.83
429.247	101.03
429.454	174.76
429.662	246.44
429.869	84.65
430.076	156.33
430.284	135.85
430.491	223.91
430.699	115.37
430.906	182.95
431.114	94.89
431.321	133.8
431.528	154.28
431.736	125.61
431.943	164.52
432.15	139.94
432.358	164.52
432.565	215.72
432.772	-17.75
432.979	264.87
433.187	113.32
433.394	242.34
433.601	86.7
433.808	266.92
434.016	182.95
434.223	199.34
434.43	164.52
434.637	187.05
434.844	242.34
435.052	189.1
435.259	213.67
435.466	291.49
435.673	209.58
435.88	195.24
436.087	295.59
436.294	367.27
436.501	268.97
436.708	221.86
436.915	238.25
437.122	330.41
437.329	199.34
437.537	305.83
437.743	228.01
437.95	453.28
438.157	365.22
438.364	352.93
438.571	318.12
438.778	395.94
438.985	428.71
439.192	354.98
439.399	408.23
439.606	410.28
439.813	531.11
440.02	500.39
440.227	559.78
440.433	512.67
440.64	496.29
440.847	406.18
441.054	434.85
441.261	588.45
441.467	522.91
441.674	426.66
441.881	615.07
442.088	641.7
442.294	670.37
442.501	721.57
442.708	823.97
442.914	692.9
443.121	735.9
443.328	770.72
443.534	815.77
443.741	735.9
443.948	752.29
444.154	875.17
444.361	963.23
444.568	856.73
444.774	840.35
444.981	830.11
445.187	1014.43
445.394	975.52
445.6	969.37
445.807	1122.97
446.013	1188.5
446.22	977.56
446.426	1221.27
446.633	1249.94
446.839	1426.07
447.046	1266.33
447.252	1411.73
447.459	1458.84
447.665	1477.27
447.871	1600.15
448.078	1669.78
448.284	1632.91
448.491	1637.01
448.697	1753.74
448.903	1796.75
449.11	1979.02
449.316	1829.52
449.522	2108.04
449.728	2099.85
449.935	2189.96
450.141	2312.84
450.347	2427.53
450.553	2407.05
450.76	2491.01
450.966	2529.92
451.172	2656.9
451.378	2753.15
451.584	2802.3
451.791	3072.64
451.997	3017.34
452.203	3068.54
452.409	3299.96
452.615	3476.09
452.821	3392.12
453.027	3322.49
453.233	3799.66
453.44	3691.12
453.646	3918.45
453.852	3879.54
454.058	4041.32
454.264	4297.32
454.47	4612.71
454.676	4729.44
454.882	5050.97
455.088	4770.4
455.294	5067.36
455.5	5409.37
455.705	5567.06
455.911	5601.88
456.117	5737.04
456.323	6136.4
456.529	6193.74
456.735	6746.69
456.941	6902.34
457.147	7115.33
457.352	7379.51
457.558	7467.58
457.764	7885.36
457.97	8079.92
458.176	8335.92
458.381	8915.49
458.587	8878.63
458.793	9585.18
458.999	9296.41
459.204	10631.69
459.41	10918.4
459.616	10777.09
459.821	11635.19
460.027	11848.18
460.233	12403.18
460.438	12311.02
460.644	13244.9
460.85	13500.89
461.055	13986.26
461.261	14514.64
461.466	14393.81
461.672	14438.86
461.878	16105.91
462.083	15894.97
462.289	16216.5
462.494	17131.94
462.7	17070.5
462.905	17326.5
463.111	19044.74
463.316	19847.55
463.522	20187.51
463.727	20814.19
463.932	21434.72
464.138	22204.76
464.343	23193.93
464.549	23343.43
464.754	24848.69
464.959	25553.19
465.165	25854.24
465.37	25528.61
465.575	26073.37
465.781	27283.72
465.986	28107.01
466.191	27932.93
466.397	28289.27
466.602	27343.11
466.807	29247.72
467.012	29864.16
467.218	30236.89
467.423	30269.66
467.628	31154.38
467.833	32573.63
468.038	32125.12
468.244	31473.87
468.449	33220.78
468.654	32305.34
468.859	32532.67
469.064	32301.25
469.269	32012.48
469.474	32131.26
469.679	33212.59
469.885	32315.58
470.09	32495.8
470.295	32528.57
470.5	31905.99
470.705	31699.14
470.91	31164.62
471.115	30976.21
471.32	31293.65
471.525	31551.69
471.73	30499.03
471.935	30273.76
472.139	28741.88
472.344	29159.66
472.549	28909.81
472.754	28328.19
472.959	27373.83
473.164	26464.53
473.369	26419.48
473.574	27300.11
473.778	26497.3
473.983	26321.18
474.188	25891.1
474.393	24301.88
474.598	24545.59
474.802	23771.46
475.007	23679.3
475.212	23335.24
475.417	22548.82
475.621	21987.68
475.826	22208.86
476.031	21180.78
476.235	20980.07
476.44	21281.13
476.645	20302.2
476.849	20347.25
477.054	20038.01
477.259	19528.06
477.463	19452.29
477.668	18839.95
477.872	18778.51
478.077	18618.77
478.282	18041.24
478.486	17645.98
478.691	17439.14
478.895	17428.9
479.1	17037.73
479.304	17293.73
479.509	16529.84
479.713	17047.97
479.918	16296.37
480.122	16069.05
480.326	16261.55
480.531	16202.16
480.735	15858.1
480.94	15542.72
481.144	16056.76
481.348	15182.27
481.553	15561.15
481.757	14860.74
481.961	15311.3
482.166	15356.35
482.37	14942.66
482.574	14789.06
482.778	14729.67
482.983	14842.31
483.187	14533.07
483.391	14375.38
483.595	14320.08
483.8	13806.04
484.004	14086.61
484.208	14004.69
484.412	13949.4
484.616	13820.38
484.821	13320.67
485.025	13064.68
485.229	13443.55
485.433	12970.47
485.637	13083.11
485.841	12888.55
486.045	12683.75
486.249	12567.02
486.453	12032.5
486.657	12284.4
486.861	11966.96
487.065	11583.99
487.269	11661.82
487.473	11280.89
487.677	11332.09
487.881	11436.54
488.085	11045.38
488.289	10742.28
488.493	10359.31
488.697	10347.02
488.901	10205.71
489.105	9988.63
489.309	9824.79
489.512	9718.29
489.716	9589.27
489.92	9216.54
490.124	9015.84
490.328	9167.39
490.531	8612.39
490.735	8843.81
490.939	8643.11
491.143	8196.65
491.346	8124.97
491.55	8059.44
491.754	7987.76
491.958	7823.92
492.161	7612.98
492.365	7488.06
492.569	7273.02
492.772	7490.1
492.976	7375.42
493.18	7309.88
493.383	7135.81
493.587	7221.82
493.79	7154.24
493.994	6949.44
494.197	6857.28
494.401	6689.35
494.605	6687.3
494.808	6566.47
495.012	6634.05
495.215	6472.26
495.419	6513.22
495.622	6341.19
495.825	6271.56
496.029	6163.02
496.232	6306.38
496.436	6285.9
496.639	6255.18
496.843	6195.79
497.046	6171.21
497.249	6408.78
497.453	6017.61
497.656	6259.28
497.859	6312.52
498.063	6324.81
498.266	6279.75
498.469	6111.82
498.673	6183.5
498.876	6279.75
499.079	6302.28
499.282	6447.69
499.485	6462.02
499.689	6513.22
499.892	6554.18
500.095	6472.26
500.298	6640.2
500.501	6402.63
500.705	6609.48
500.908	6597.19
501.111	6703.68
501.314	6722.12
501.517	6877.76
501.72	6926.91
501.923	6838.85
502.126	6992.45
502.329	7158.33
502.532	7119.42
502.735	7017.02
502.938	7230.01
503.141	7256.64
503.344	7397.95
503.547	7574.07
503.75	7563.83
503.953	7617.08
504.156	7889.46
504.359	7952.95
504.562	7950.9
504.765	8090.16
504.968	8317.48
505.17	8413.74
505.373	8516.14
505.576	8788.52
505.779	8976.93
505.982	8870.44
506.185	9157.15
506.387	9116.19
506.59	9353.76
506.793	9597.46
506.996	9712.15
507.198	9863.7
507.401	10336.78
507.604	10267.15
507.807	10607.11
508.009	10592.78
508.212	10746.37
508.415	11006.47
508.617	11340.29
508.82	11500.03
509.022	11653.62
509.225	12063.22
509.428	12239.34
509.63	12270.06
509.833	12421.61
510.035	13246.94
510.238	13246.94
510.44	13543.9
510.643	14012.88
510.845	14180.82
511.048	14485.97
511.25	14490.06
511.453	15167.94
511.655	15718.84
511.858	15587.77
512.06	16126.39
512.262	16546.22
512.465	16632.24
512.667	17338.79
512.87	17629.6
513.072	17869.21
513.274	18407.83
513.477	18682.25
513.679	19317.12
513.881	19534.21
514.084	19980.67
514.286	20418.93
514.488	20881.77
514.69	21537.12
514.893	21807.45
515.095	22200.66
515.297	22872.4
515.499	23155.02
515.701	23652.67
515.904	24445.24
516.106	25082.16
516.308	25456.93
516.51	25895.2
516.712	25950.49
516.914	26595.6
517.116	26913.04
517.318	27711.75
517.52	28193.02
517.722	28743.92
517.925	29114.61
518.127	30091.49
518.329	30243.04
518.531	30804.18
518.733	31578.31
518.935	32090.31
519.136	32295.1
519.338	33151.15
519.54	33224.88
519.742	33865.89
519.944	34474.14
520.146	34994.32
520.348	35389.58
520.55	35590.28
520.752	36219.01
520.954	37017.72
521.155	36798.59
521.357	37660.78
521.559	38033.51
521.761	38836.31
521.963	38916.18
522.164	39207
522.366	39024.73
522.568	40130.63
522.77	40126.53
522.971	40966.2
523.173	40529.98
523.375	41146.42
523.576	40972.35
523.778	41371.7
523.98	41979.95
524.181	41924.65
524.383	42473.51
524.584	42575.9
524.786	42557.47
524.988	42272.81
525.189	42215.46
525.391	42672.16
525.592	42721.31
525.794	42752.03
525.995	42520.61
526.197	42410.02
526.398	42747.93
526.6	42764.32
526.801	42653.73
527.003	42248.23
527.204	42405.92
527.406	42098.73
527.607	42063.91
527.808	42405.92
528.01	40958.01
528.211	41437.23
528.412	41709.61
528.614	41224.25
528.815	40761.4
529.016	41125.94
529.218	40173.64
529.419	39872.59
529.62	39874.63
529.822	38991.96
530.023	38901.85
530.224	38314.08
530.425	38303.84
530.626	37439.6
530.828	37232.75
531.029	37767.27
531.23	36571.26
531.431	36079.75
531.632	36464.77
531.833	35645.58
532.035	35209.36
532.236	34971.8
532.437	34334.88
532.638	33644.71
532.839	33378.48
533.04	33423.53
533.241	32755.89
533.442	32747.7
533.643	32016.58
533.844	31264.97
534.045	31215.82
534.246	30204.13
534.447	30386.39
534.648	29833.44
534.849	29542.63
535.05	29038.83
535.251	28635.38
535.451	28211.45
535.652	27752.71
535.853	27523.33
536.054	27212.04
536.255	26857.74
536.456	26501.4
536.657	26321.18
536.857	25844
537.058	25221.42
537.259	25540.9
537.46	24893.74
537.66	24222.01
537.861	24142.14
538.062	23781.7
538.263	23423.3
538.463	23134.54
538.664	23159.11
538.865	22772.05
539.065	22645.07
539.266	21934.43
539.466	21801.31
539.667	21395.81
539.868	21520.74
540.068	21313.89
540.269	20853.1
540.469	20582.77
540.67	20470.13
540.87	20119.93
541.071	19753.34
541.271	19640.7
541.472	19265.92
541.672	19054.98
541.873	19046.79
542.073	18282.9
542.274	18731.4
542.474	18145.69
542.675	18450.83
542.875	18121.11
543.075	17668.51
543.276	17316.26
543.476	17476
543.676	17260.96
543.877	17109.41
544.077	16882.09
544.277	16538.03
544.478	16427.44
544.678	16175.54
544.878	15983.03
545.078	15870.39
545.279	15471.04
545.479	15374.78
545.679	15124.93
545.879	15245.76
546.079	15045.06
546.28	14660.04
546.48	14461.39
546.68	14520.78
546.88	14369.23
547.08	13814.23
547.28	14059.99
547.48	13406.69
547.68	13629.91
547.88	13128.16
548.081	13507.04
548.281	12802.54
548.481	13054.44
548.681	12978.66
548.881	12460.52
549.081	12411.37
549.28	12116.47
549.48	12032.5
549.68	11839.99
549.88	11772.41
550.08	11502.08
550.28	11538.94
550.48	11278.85
550.68	11215.36
550.88	11237.89
551.08	10746.37
551.279	10758.66
551.479	10576.39
551.679	10523.15
551.879	10201.61
552.079	10043.92
552.278	9787.93
552.478	9966.1
552.678	9624.09
552.878	9681.43
553.077	9331.23
553.277	8956.45
553.477	9093.66
553.676	8985.12
553.876	8774.18
554.076	8573.48
554.275	8419.88
554.475	8270.38
554.674	8548.9
554.874	8073.78
555.074	7797.3
555.273	7903.79
555.473	7883.31
555.672	7549.5
555.872	7434.81
556.071	7447.1
556.271	7420.47
556.47	7152.19
556.67	6945.34
556.869	6820.42
557.068	6748.74
557.268	6711.88
557.467	6517.32
557.667	6599.24
557.866	6261.32
558.065	6115.92
558.265	6079.05
558.464	6077.01
558.663	6230.6
558.863	6017.61
559.062	5794.39
559.261	5425.75
559.461	5696.08
559.66	5341.79
559.859	5483.09
560.058	5270.11
560.258	5157.47
560.457	5077.6
560.656	5194.33
560.855	4887.14
561.054	5063.26
561.253	4932.19
561.453	4854.37
561.652	4860.51
561.851	4778.59
562.05	4487.78
562.249	4416.1
562.448	4401.77
562.647	4389.48
562.846	4297.32
563.045	4375.14
563.244	4264.55
563.443	4153.96
563.642	4008.56
563.841	4090.48
564.04	3721.84
564.239	3842.67
564.438	3803.76
564.637	3611.25
564.836	3807.86
565.035	3664.5
565.234	3525.24
565.432	3486.33
565.631	3510.9
565.83	3498.61
566.029	3392.12
566.228	3250.81
566.427	3242.62
566.625	3082.88
566.824	3187.32
567.023	3113.6
567.222	2976.38
567.42	3017.34
567.619	3140.22
567.818	3009.15
568.016	3086.97
568.215	2867.84
568.414	2787.97
568.612	2929.28
568.811	2771.58
569.01	2716.29
569.208	2583.17
569.407	2693.76
569.605	2597.51
569.804	2640.51
570.002	2544.26
570.201	2499.2
570.4	2486.92
570.598	2405
570.797	2421.38
570.995	2194.06
571.193	2296.46
571.392	2261.64
571.59	2136.71
571.789	2278.02
571.987	2304.65
572.186	2241.16
572.384	2003.6
572.582	2085.51
572.781	2198.15
572.979	1925.77
573.177	1903.25
573.376	1917.58
573.574	1940.11
573.772	2038.41
573.971	1858.19
574.169	1759.89
574.367	1843.85
574.565	1688.21
574.763	1739.41
574.962	1800.85
575.16	1710.74
575.358	1589.91
575.556	1634.96
575.754	1641.11
575.952	1585.81
576.151	1542.8
576.349	1649.3
576.547	1350.29
576.745	1460.88
576.943	1481.36
577.141	1495.7
577.339	1413.78
577.537	1348.25
577.735	1512.08
577.933	1387.16
578.131	1348.25
578.329	1456.79
578.527	1325.72
578.725	1317.53
578.923	1219.22
579.121	1231.51
579.319	1010.33
579.516	1194.65
579.714	1399.45
579.912	1223.32
580.11	1004.19
580.308	1157.79
580.506	1071.77
580.704	998.04
580.901	1057.43
581.099	1106.59
581.297	1073.82
581.495	1045.15
581.692	989.85
581.89	1098.39
582.088	1000.09
582.285	952.99
582.483	1002.14
582.681	969.37
582.878	924.32
583.076	920.22
583.274	930.46
583.471	1049.24
583.669	805.53
583.866	817.82
584.064	836.25
584.262	828.06
584.459	733.86
584.657	885.41
584.854	778.91
585.052	842.4
585.249	901.79
585.447	840.35
585.644	678.56
585.841	815.77
586.039	744.1
586.236	723.62
586.434	647.84
586.631	733.86
586.828	690.85
587.026	703.14
587.223	580.26
587.42	600.74
587.618	690.85
587.815	832.16
588.012	658.08
588.21	541.35
588.407	744.1
588.604	615.07
588.801	494.24
588.999	656.03
589.196	668.32
589.393	516.77
589.59	731.81
589.787	586.4
589.984	561.83
590.182	656.03
590.379	537.25
590.576	537.25
590.773	479.91
590.97	586.4
591.167	639.65
591.364	600.74
591.561	549.54
591.758	527.01
591.955	596.64
592.152	506.53
592.349	508.58
592.546	463.52
592.743	490.15
592.94	602.79
593.137	584.35
593.334	680.61
593.531	555.68
593.727	586.4
593.924	516.77
594.121	592.55
594.318	582.31
594.515	567.97
594.712	662.18
594.908	733.86
595.105	500.39
595.302	608.93
595.499	522.91
595.696	742.05
595.892	604.83
596.089	670.37
596.286	627.36
596.482	639.65
596.679	604.83
596.876	563.87
597.072	778.91
597.269	674.46
597.466	680.61
597.662	725.66
597.859	787.1
598.055	791.2
598.252	791.2
598.448	871.07
598.645	875.17
598.841	852.64
599.038	1034.91
599.234	973.47
599.431	1059.48
599.627	1067.67
599.824	1022.62
600.02	1147.55
600.217	1084.06
600.413	1186.46
600.609	1227.42
600.806	1460.88
601.002	1362.58
601.198	1315.48
601.395	1452.69
601.591	1426.07
601.787	1561.23
601.984	1604.24
602.18	1524.37
602.376	1675.92
602.572	1854.09
602.769	1925.77
602.965	1976.97
603.161	1993.36
603.357	1942.16
603.553	2171.53
603.75	2116.23
603.946	2208.39
604.142	2278.02
604.338	2493.06
604.534	2427.53
604.73	2478.72
604.926	2462.34
605.122	2673.28
605.318	2712.19
605.514	2806.4
605.71	2859.65
605.906	3046.01
606.102	3064.44
606.298	3289.72
606.494	3312.25
606.69	3639.92
606.886	3381.88
607.082	3613.3
607.278	3654.26
607.474	3641.97
607.67	3834.48
607.866	3752.56
608.062	4235.88
608.257	4201.07
608.453	4293.23
608.649	4479.59
608.845	4395.62
609.041	4684.39
609.236	4817.51
609.432	4866.66
609.628	5075.55
609.824	5200.48
610.019	5266.01
610.215	5452.38
610.411	5755.47
610.606	5864.02
610.802	6003.28
610.998	6210.12
611.193	6423.11
611.389	6232.65
611.584	6535.75
611.78	6564.42
611.976	7010.88
612.171	7176.77
612.367	7123.52
612.562	7496.25
612.758	7782.96
612.953	7678.52
613.149	8137.26
613.344	8079.92
613.539	8512.04
613.735	8679.97
613.93	9157.15
614.126	9077.28
614.321	9499.16
614.517	9663
614.712	9875.99
614.907	9953.81
615.103	10383.88
615.298	10416.65
615.493	10951.17
615.688	10914.31
615.884	11641.34
616.079	11706.87
616.274	12143.09
616.47	12286.45
616.665	12614.12
616.86	12902.89
617.055	13173.22
617.25	13679.07
617.445	14107.09
617.641	14014.93
617.836	14764.49
618.031	14612.94
618.226	15598.01
618.421	15608.25
618.616	16130.48
618.811	16130.48
619.006	16857.51
619.201	16738.73
619.396	17369.51
619.591	17502.62
619.786	18227.6
619.981	18588.05
620.176	19167.62
620.371	19339.65
620.566	19696
620.761	20275.57
620.956	20615.54
621.151	20930.92
621.346	21682.53
621.541	21596.51
621.735	22471
621.93	22331.73
622.125	22976.84
622.32	23159.11
622.515	23527.75
622.709	24119.61
622.904	24549.68
623.099	24860.98
623.294	25680.16
623.488	25639.2
623.683	26454.29
623.878	26480.92
624.072	27226.38
624.267	27480.33
624.462	28023.04
624.656	28111.1
624.851	29020.4
625.046	29030.64
625.24	29575.4
625.435	29810.92
625.629	30419.16
625.824	30836.95
626.018	31394
626.213	31506.63
626.407	31785.16
626.602	32106.69
626.796	32508.09
626.991	33036.47
627.185	33216.69
627.38	33355.95
627.574	33665.19
627.768	33687.72
627.963	33857.7
628.157	33990.82
628.352	34207.9
628.546	33818.79
628.74	34523.29
628.935	34158.75
629.129	34265.25
629.323	33454.25
629.517	33732.78
629.712	33464.49
629.906	33472.68
630.1	32483.51
630.294	32747.7
630.489	32336.06
630.683	32245.95
630.877	31195.34
631.071	30871.76
631.265	30963.92
631.459	29810.92
631.653	29479.14
631.848	28780.79
632.042	28137.73
632.236	27441.42
632.43	26718.48
632.624	26200.35
632.818	25334.06
633.012	24613.17
633.206	23765.31
633.4	23212.36
633.594	22247.77
633.788	21760.35
633.982	20873.58
634.176	20265.33
634.369	19288.45
634.563	18698.64
634.757	17875.35
634.951	17478.05
635.145	16583.09
635.339	15972.79
635.533	15391.17
635.726	14883.27
635.92	14152.15
636.114	13404.64
636.308	13189.6
636.501	12376.56
636.695	12071.41
636.889	11438.59
637.083	11033.09
637.276	10713.61
637.47	10179.09
637.664	9648.66
637.857	9376.28
638.051	9103.9
638.244	8596.01
638.438	8270.38
638.632	8047.15
638.825	7436.86
639.019	7627.32
639.212	7031.36
639.406	6834.75
639.599	6476.36
639.793	6140.49
639.986	5831.25
640.18	5802.58
640.373	5646.93
640.567	5390.94
640.76	5270.11
640.954	5061.21
641.147	4551.27
641.34	4436.58
641.534	4428.39
641.727	4233.83
641.92	4156.01
642.114	3865.2
642.307	3816.05
642.5	3713.65
642.694	3506.81
642.887	3385.97
643.08	3291.77
643.273	3213.95
643.467	2847.36
643.66	2919.04
643.853	2697.86
644.046	2747.01
644.239	2581.12
644.432	2439.81
644.626	2368.13
644.819	2101.9
645.012	2263.69
645.205	2204.3
645.398	2114.19
645.591	1923.73
645.784	1729.17
645.977	1682.06
646.17	1833.61
646.363	1647.25
646.556	1534.61
646.749	1526.42
646.942	1475.22
647.135	1536.66
647.328	1340.05
647.521	1297.05
647.714	1243.8
647.907	1241.75
648.099	1098.39
648.292	1290.9
648.485	1049.24
648.678	1022.62
648.871	946.84
649.064	934.56
649.256	877.21
649.449	785.05
649.642	864.93
649.835	844.45
650.027	721.57
650.22	848.54
650.413	690.85
650.605	778.91
650.798	615.07
650.991	625.31
651.183	703.14
651.376	696.99
651.568	715.42
651.761	533.15
651.954	537.25
652.146	567.97
652.339	699.04
652.531	621.22
652.724	420.52
652.916	428.71
653.109	373.41
653.301	522.91
653.494	576.16
653.686	510.63
653.879	432.8
654.071	518.82
654.263	422.56
654.456	457.38
654.648	414.37
654.84	524.96
655.033	311.97
655.225	418.47
655.417	291.49
655.61	408.23
655.802	428.71
655.994	506.53
656.186	309.93
656.379	316.07
656.571	297.64
656.763	260.77
656.955	240.3
657.148	326.31
657.34	397.99
657.532	283.3
657.724	311.97
657.916	293.54
658.108	324.26
658.3	287.4
658.492	357.03
658.684	197.29
658.876	289.45
659.068	197.29
659.26	174.76
659.452	221.86
659.644	176.81
659.836	344.74
660.028	207.53
660.22	189.1
660.412	178.86
660.604	250.53
660.796	217.77
660.988	281.25
661.18	182.95
661.372	197.29
661.563	213.67
661.755	221.86
661.947	117.42
662.139	152.23
662.331	223.91
662.522	133.8
662.714	62.12
662.906	152.23
663.097	82.6
663.289	131.75
663.481	88.75
663.673	162.47
663.864	123.56
664.056	137.9
664.247	101.03
664.439	168.62
664.631	168.62
664.822	242.34
665.014	148.14
665.205	127.66
665.397	39.59
665.588	215.72
665.78	176.81
665.971	230.06
666.163	185
666.354	246.44
666.546	4.78
666.737	66.22
666.929	101.03
667.12	111.27
667.311	152.23
667.503	144.04
667.694	185
667.885	111.27
668.077	156.33
668.268	37.55
668.459	221.86
668.651	152.23
668.842	135.85
669.033	96.94
669.224	51.88
669.416	311.97
669.607	164.52
669.798	98.99
669.989	152.23
670.18	123.56
670.371	131.75
670.563	72.36
670.754	256.68
670.945	162.47
671.136	189.1
671.327	21.16
671.518	150.18
671.709	230.06
671.9	205.48
672.091	230.06
672.282	141.99
672.473	139.94
672.664	60.07
672.855	154.28
673.046	127.66
673.237	146.09
673.428	150.18
673.619	258.73
673.809	133.8
674	193.19
674.191	137.9
674.382	152.23
674.573	84.65
674.764	205.48
674.954	166.57
675.145	-15.7
675.336	90.79
675.527	86.7
675.717	103.08
675.908	19.11
676.099	150.18
676.289	139.94
676.48	49.83
676.671	115.37
676.861	139.94
677.052	76.46
677.243	45.74
677.433	94.89
677.624	207.53
677.814	139.94
678.005	103.08
678.195	197.29
678.386	94.89
678.576	201.38
678.767	41.64
678.957	133.8
679.148	203.43
679.338	240.3
679.529	228.01
679.719	96.94
679.909	287.4
680.1	189.1
680.29	203.43
680.481	146.09
680.671	279.21
680.861	209.58
681.052	139.94
681.242	121.51
681.432	162.47
681.622	146.09
681.813	55.98
682.003	189.1
682.193	117.42
682.383	318.12
682.573	203.43
682.764	185
682.954	221.86
683.144	254.63
683.334	94.89
683.524	123.56
683.714	322.21
683.904	273.06
684.094	133.8
684.284	160.42
684.474	244.39
684.664	264.87
684.854	199.34
685.044	137.9
685.234	217.77
685.424	228.01
685.614	121.51
685.804	297.64
685.994	248.49
686.184	172.71
686.374	232.1
686.564	154.28
686.753	225.96
686.943	109.23
687.133	156.33
687.323	170.66
687.513	211.62
687.702	139.94
687.892	121.51
688.082	228.01
688.272	187.05
688.461	164.52
688.651	309.93
688.841	299.69
689.03	182.95
689.22	144.04
689.41	273.06
689.599	193.19
689.789	113.32
689.979	314.02
690.168	209.58
690.358	262.82
690.547	160.42
690.737	207.53
690.926	187.05
691.116	189.1
691.305	291.49
691.495	236.2
691.684	121.51
691.874	156.33
692.063	90.79
692.252	238.25
692.442	215.72
692.631	86.7
692.82	221.86
693.01	172.71
693.199	115.37
693.388	254.63
693.578	105.13
693.767	187.05
693.956	228.01
694.146	131.75
694.335	172.71
694.524	180.9
694.713	314.02
694.902	66.22
695.092	141.99
695.281	244.39
695.47	195.24
695.659	101.03
695.848	236.2
696.037	146.09
696.226	242.34
696.415	228.01
696.604	279.21
696.793	258.73
696.982	119.46
697.171	287.4
697.36	90.79
697.549	178.86
697.738	37.55
697.927	115.37
698.116	49.83
698.305	242.34
698.494	166.57
698.683	201.38
698.872	258.73
699.061	225.96
699.25	152.23
699.438	160.42
699.627	121.51
699.816	273.06
700.005	113.32
700.193	135.85
700.382	232.1
700.571	209.58
700.76	199.34
700.948	266.92
701.137	176.81
701.326	268.97
701.514	103.08
701.703	170.66
701.892	152.23
702.08	307.88
702.269	74.41
702.457	168.62
702.646	185
702.834	127.66
703.023	137.9
703.212	174.76
703.4	201.38
703.589	156.33
703.777	76.46
703.965	84.65
704.154	193.19
704.342	115.37
704.531	58.03
704.719	141.99
704.907	199.34
705.096	60.07
705.284	119.46
705.472	215.72
705.661	82.6
705.849	289.45
706.037	283.3
706.226	189.1
706.414	201.38
706.602	90.79
706.79	252.58
706.979	49.83
707.167	234.15
707.355	55.98
707.543	207.53
707.731	205.48
707.919	197.29
708.107	164.52
708.296	82.6
708.484	76.46
708.672	170.66
708.86	283.3
709.048	133.8
709.236	166.57
709.424	211.62
709.612	215.72
709.8	113.32
709.988	152.23
710.176	250.53
710.364	275.11
710.551	123.56
710.739	170.66
710.927	174.76
711.115	146.09
711.303	189.1
711.491	266.92
711.679	111.27
711.866	213.67
712.054	105.13
712.242	242.34
712.43	205.48
712.617	180.9
712.805	221.86
712.993	172.71
713.181	64.17
713.368	201.38
713.556	58.03
713.744	98.99
713.931	391.84
714.119	262.82
714.306	160.42
714.494	146.09
714.682	195.24
714.869	115.37
715.057	86.7
715.244	-15.7
715.432	156.33
715.619	150.18
715.807	156.33
715.994	160.42
716.182	144.04
716.369	250.53
716.556	211.62
716.744	90.79
716.931	88.75
717.119	189.1
717.306	185
717.493	182.95
717.681	176.81
717.868	121.51
718.055	152.23
718.242	164.52
718.43	271.01
718.617	291.49
718.804	156.33
718.991	248.49
719.179	264.87
719.366	244.39
719.553	250.53
719.74	248.49
719.927	156.33
720.114	221.86
720.301	68.27
720.488	68.27
720.676	166.57
720.863	258.73
721.05	385.7
721.237	178.86
721.424	289.45
721.611	162.47
721.798	51.88
721.985	152.23
722.172	180.9
722.358	246.44
722.545	252.58
722.732	189.1
722.919	268.97
723.106	203.43
723.293	144.04
723.48	172.71
723.667	123.56
723.853	213.67
724.04	242.34
724.227	314.02
724.414	236.2
724.6	244.39
724.787	293.54
724.974	336.55
725.161	172.71
725.347	150.18
725.534	182.95
725.72	303.78
725.907	228.01
726.094	248.49
726.28	199.34
726.467	201.38
726.653	172.71
726.84	344.74
727.027	299.69
727.213	148.14
727.4	234.15
727.586	248.49
727.773	254.63
727.959	180.9
728.145	115.37
728.332	182.95
728.518	207.53
728.705	256.68
728.891	197.29
729.077	301.73
729.264	148.14
729.45	205.48
729.636	309.93
729.823	301.73
730.009	363.17
730.195	207.53
730.382	301.73
730.568	207.53
730.754	213.67
730.94	197.29
731.126	258.73
731.313	289.45
731.499	156.33
731.685	260.77
731.871	248.49
732.057	309.93
732.243	336.55
732.429	242.34
732.615	316.07
732.801	268.97
732.987	258.73
733.173	197.29
733.359	213.67
733.545	250.53
733.731	228.01
733.917	289.45
734.103	297.64
734.289	318.12
734.475	123.56
734.661	385.7
734.847	240.3
735.033	273.06
735.219	320.17
735.404	189.1
735.59	185
735.776	201.38
735.962	203.43
736.148	262.82
736.333	250.53
736.519	191.14
736.705	146.09
736.89	228.01
737.076	275.11
737.262	178.86
737.447	248.49
737.633	162.47
737.819	244.39
738.004	187.05
738.19	258.73
738.375	322.21
738.561	287.4
738.747	242.34
738.932	252.58
739.118	430.76
739.303	250.53
739.489	379.56
739.674	268.97
739.859	201.38
740.045	256.68
740.23	293.54
740.416	144.04
740.601	195.24
740.786	287.4
740.972	201.38
741.157	254.63
741.342	189.1
741.528	164.52
741.713	258.73
741.898	156.33
742.084	244.39
742.269	281.25
742.454	318.12
742.639	250.53
742.824	221.86
743.01	381.6
743.195	397.99
743.38	264.87
743.565	252.58
743.75	221.86
743.935	193.19
744.12	268.97
744.305	170.66
744.49	172.71
744.675	238.25
744.86	252.58
745.045	287.4
745.23	291.49
745.415	250.53
745.6	307.88
745.785	242.34
745.97	328.36
746.155	250.53
746.34	215.72
746.525	244.39
746.71	381.6
746.895	180.9
747.079	125.61
747.264	166.57
747.449	228.01
747.634	342.69
747.819	213.67
748.003	248.49
748.188	168.62
748.373	266.92
748.557	209.58
748.742	211.62
748.927	211.62
749.111	131.75
749.296	260.77
749.481	268.97
749.665	201.38
749.85	205.48
750.034	240.3
750.219	162.47
750.404	154.28
750.588	260.77
750.773	109.23
750.957	203.43
751.141	154.28
751.326	258.73
751.51	135.85
751.695	189.1
751.879	160.42
752.064	328.36
752.248	211.62
752.432	424.61
752.617	314.02
752.801	234.15
752.985	180.9
753.17	297.64
753.354	180.9
753.538	248.49
753.722	156.33
753.907	180.9
754.091	133.8
754.275	172.71
754.459	125.61
754.643	197.29
754.828	180.9
755.012	176.81
755.196	115.37
755.38	268.97
755.564	201.38
755.748	168.62
755.932	150.18
756.116	205.48
756.3	205.48
756.484	105.13
756.668	250.53
756.852	43.69
757.036	156.33
757.22	223.91
757.404	180.9
757.588	94.89
757.772	168.62
757.956	133.8
758.14	295.59
758.323	92.84
758.507	178.86
758.691	219.82
758.875	166.57
759.059	375.46
759.242	148.14
759.426	135.85
759.61	176.81
759.794	82.6
759.977	275.11
760.161	402.08
760.345	197.29
760.528	185
760.712	203.43
760.895	150.18
761.079	176.81
761.263	23.21
761.446	82.6
761.63	131.75
761.813	228.01
761.997	133.8
762.18	98.99
762.364	137.9
762.547	76.46
762.731	107.18
762.914	152.23
763.098	158.38
763.281	98.99
763.464	23.21
763.648	98.99
763.831	68.27
764.015	53.93
764.198	193.19
764.381	164.52
764.564	172.71
764.748	137.9
764.931	74.41
765.114	168.62
765.297	193.19
765.481	4.78
765.664	86.7
765.847	90.79
766.03	215.72
766.213	41.64
766.397	162.47
766.58	-15.7
766.763	164.52
766.946	139.94
767.129	90.79
767.312	113.32
767.495	125.61
767.678	76.46
767.861	144.04
768.044	103.08
768.227	15.02
768.41	72.36
768.593	189.1
768.776	64.17
768.959	123.56
769.142	111.27
769.324	49.83
769.507	109.23
769.69	72.36
769.873	23.21
770.056	295.59
770.239	55.98
770.421	166.57
770.604	125.61
770.787	82.6
770.97	127.66
771.152	21.16
771.335	205.48
771.518	70.31
771.7	176.81
771.883	141.99
772.066	76.46
772.248	189.1
772.431	144.04
772.613	164.52
772.796	135.85
772.978	213.67
773.161	117.42
773.343	58.03
773.526	92.84
773.708	-34.13
773.891	-3.41
774.073	139.94
774.256	82.6
774.438	176.81
774.621	58.03
774.803	131.75
774.985	119.46
775.168	150.18
775.35	74.41
775.532	103.08
775.715	58.03
775.897	166.57
776.079	47.79
776.261	129.7
776.444	58.03
776.626	129.7
776.808	66.22
776.99	-64.85
777.173	101.03
777.355	37.55
777.537	76.46
777.719	72.36
777.901	37.55
778.083	45.74
778.265	-7.51
778.447	84.65
778.629	74.41
778.811	62.12
778.993	164.52
779.175	121.51
779.357	92.84
779.539	4.78
779.721	66.22
779.903	80.55
780.085	15.02
780.267	72.36
780.449	119.46
780.631	123.56
780.812	191.14
780.994	-30.04
781.176	-1.37
781.358	25.26
781.54	41.64
781.721	33.45
781.903	92.84
782.085	-7.51
782.267	180.9
782.448	82.6
782.63	-7.51
782.812	82.6
782.993	144.04
783.175	127.66
783.357	8.87
783.538	127.66
783.72	-68.95
783.901	76.46
784.083	148.14
784.264	82.6
784.446	6.83
784.627	15.02
784.809	92.84
784.99	-19.8
785.172	82.6
785.353	8.87
785.535	58.03
785.716	23.21
785.897	21.16
786.079	31.4
786.26	-11.61
786.441	125.61
786.623	-58.71
786.804	-36.18
786.985	29.35
787.167	51.88
787.348	2.73
787.529	43.69
787.71	176.81
787.891	141.99
788.073	-7.51
788.254	-9.56
788.435	152.23
788.616	0.68
788.797	-40.28
788.978	70.31
789.159	-7.51
789.34	6.83
789.522	-30.04
789.703	47.79
789.884	51.88
790.065	55.98
790.246	141.99
790.427	64.17
790.607	107.18
790.788	78.51
790.969	19.11
791.15	76.46
791.331	-17.75
791.512	47.79
791.693	58.03
791.874	107.18
792.054	141.99
792.235	72.36
792.416	-73.04
792.597	-30.04
792.778	76.46
792.958	72.36
793.139	21.16
793.32	96.94
793.5	-83.28
793.681	86.7
793.862	33.45
794.042	12.97
794.223	-17.75
794.404	17.07
794.584	17.07
794.765	21.16
794.945	45.74
795.126	43.69
795.306	199.34
795.487	31.4
795.667	53.93
795.848	103.08
796.028	45.74
796.209	88.75
796.389	45.74
796.57	31.4
796.75	-9.56
796.93	-42.32
797.111	-52.56
797.291	58.03
797.471	78.51
797.652	47.79
797.832	-44.37
798.012	27.31
798.192	-3.41
798.373	-36.18
798.553	31.4
798.733	96.94
798.913	6.83
799.093	17.07
799.274	137.9
799.454	60.07
799.634	27.31
799.814	60.07
799.994	58.03
800.174	23.21
800.354	78.51
800.534	6.83
800.714	70.31
800.894	-38.23
801.074	-23.89
801.254	-13.65
801.434	170.66
801.614	-9.56
801.794	10.92
801.974	1698.45
802.154	-60.76
802.334	115.37
802.514	6.83
802.693	-5.46
802.873	2.73
803.053	156.33
803.233	123.56
803.413	-71
803.592	6.83
803.772	-23.89
803.952	-54.61
804.131	-11.61
804.311	8.87
804.491	135.85
804.67	-75.09
804.85	-64.85
805.03	80.55
805.209	82.6
805.389	-25.94
805.568	-46.42
805.748	-58.71
805.928	29.35
806.107	92.84
806.287	37.55
806.466	68.27
806.646	-1.37
806.825	60.07
807.004	39.59
807.184	135.85
807.363	133.8
807.543	43.69
807.722	-15.7
807.901	98.99
808.081	74.41
808.26	-83.28
808.439	31.4
808.619	31.4
808.798	-50.52
808.977	55.98
809.156	70.31
809.336	74.41
809.515	72.36
809.694	-1.37
809.873	-19.8
810.052	15.02
810.231	125.61
810.411	47.79
810.59	33.45
810.769	47.79
810.948	-3.41
811.127	-48.47
811.306	15.02
811.485	-23.89
811.664	98.99
811.843	-5.46
812.022	21.16
812.201	-11.61
812.38	86.7
812.559	-25.94
812.737	64.17
812.916	-77.14
813.095	-71
813.274	125.61
813.453	60.07
813.632	111.27
813.811	58.03
813.989	-25.94
814.168	19.11
814.347	-27.99
814.526	8.87
814.704	109.23
814.883	107.18
815.062	-27.99
815.24	74.41
815.419	-66.9
815.598	15.02
815.776	-68.95
815.955	64.17
816.133	-77.14
816.312	29.35
816.49	-64.85
816.669	35.5
816.847	-38.23
817.026	68.27
817.204	19.11
817.383	-9.56
817.561	-1.37
817.74	76.46
817.918	94.89
818.097	-68.95
818.275	-48.47
818.453	15.02
818.632	55.98
818.81	-62.8
818.988	-40.28
819.167	15.02
819.345	-64.85
819.523	17.07
819.701	21.16
819.879	27.31
820.058	-5.46
820.236	31.4
820.414	58.03
820.592	-44.37
820.77	-60.76
820.948	15.02
821.127	-1.37
821.305	96.94
821.483	-75.09
821.661	80.55
821.839	43.69
822.017	43.69
822.195	-34.13
822.373	107.18
822.551	-36.18
822.729	66.22
822.907	-11.61
823.085	39.59
823.262	58.03
823.44	-9.56
823.618	-64.85
823.796	12.97
823.974	-15.7
824.152	12.97
824.329	-44.37
824.507	12.97
824.685	74.41
824.863	-56.66
825.04	2.73
825.218	92.84
825.396	4.78
825.574	37.55
825.751	6.83
825.929	94.89
826.107	-60.76
826.284	43.69
826.462	53.93
826.639	25.26
826.817	-83.28
826.994	8.87
827.172	-85.33
827.349	113.32
827.527	-1.37
827.704	51.88
827.882	78.51
828.059	-23.89
828.237	-11.61
828.414	64.17
828.591	-79.19
828.769	-11.61
828.946	-42.32
829.124	70.31
829.301	123.56
829.478	51.88
829.655	10.92
829.833	-46.42
830.01	-91.48
830.187	55.98
830.364	17.07
830.542	-73.04
830.719	113.32
830.896	47.79
831.073	129.7
831.25	-17.75
831.427	78.51
831.604	12.97
831.782	-36.18
831.959	37.55
832.136	-11.61
832.313	-9.56
832.49	-38.23
832.667	115.37
832.844	-58.71
833.021	135.85
833.198	-3.41
833.374	-17.75
833.551	64.17
833.728	29.35
833.905	86.7
834.082	-93.52
834.259	-21.84
834.436	66.22
834.612	37.55
834.789	49.83
834.966	-15.7
835.143	105.13
835.319	-93.52
835.496	55.98
835.673	66.22
835.85	66.22
836.026	19.11
836.203	96.94
836.38	-77.14
836.556	-62.8
836.733	-25.94
836.909	76.46
837.086	6.83
837.262	-54.61
837.439	-17.75
837.616	-7.51
837.792	37.55
837.968	-13.65
838.145	-114
838.321	23.21
838.498	-68.95
838.674	70.31
838.851	2.73
839.027	-93.52
839.203	-17.75
839.38	45.74
839.556	-7.51
839.732	25.26
839.909	2.73
840.085	58.03
840.261	-34.13
840.437	68.27
840.614	-25.94
840.79	-5.46
840.966	2.73
841.142	78.51
841.318	-48.47
841.494	-1.37
841.671	107.18
841.847	-7.51
842.023	-75.09
842.199	41.64
842.375	60.07
842.551	-42.32
842.727	29.35
842.903	68.27
843.079	-109.91
843.255	139.94
843.431	21.16
843.607	84.65
843.783	-126.29
843.959	98.99
844.134	-30.04
844.31	80.55
844.486	-60.76
844.662	-44.37
844.838	-13.65
845.013	66.22
845.189	90.79
845.365	-17.75
845.541	-13.65
845.716	31.4
845.892	174.76
846.068	-56.66
846.244	-44.37
846.419	68.27
846.595	-11.61
846.77	-105.81
846.946	25.26
847.122	-21.84
847.297	-54.61
847.473	135.85
847.648	-159.06
847.824	35.5
847.999	-116.05
848.175	-7.51
848.35	33.45
848.526	154.28
848.701	45.74
848.876	55.98
849.052	58.03
849.227	-54.61
849.403	-44.37
849.578	-54.61
849.753	17.07
849.929	41.64
850.104	-95.57
850.279	82.6
850.454	6.83
850.63	-19.8
850.805	-5.46
850.98	8.87
851.155	39.59
851.33	82.6
851.505	-21.84
851.681	127.66
851.856	-36.18
852.031	47.79
852.206	17.07
852.381	-3.41
852.556	10.92
852.731	4.78
852.906	53.93
853.081	-5.46
853.256	131.75
853.431	-11.61
853.606	-7.51
853.781	-42.32
853.956	-99.67
854.131	-11.61
854.305	-50.52
854.48	-11.61
854.655	-95.57
854.83	-19.8
855.005	-40.28
855.18	-5.46
855.354	23.21
855.529	-30.04
855.704	-64.85
855.879	96.94
856.053	-23.89
856.228	64.17
856.403	-79.19
856.577	162.47
856.752	-71
856.926	-52.56
857.101	-30.04
857.276	-48.47
857.45	41.64
857.625	103.08
857.799	60.07
857.974	4.78
858.148	-64.85
858.323	-17.75
858.497	4.78
858.672	-71
858.846	-17.75
859.02	68.27
859.195	-109.91
859.369	-23.89
859.543	25.26
859.718	53.93
859.892	-56.66
860.066	29.35
860.241	-68.95
860.415	-38.23
860.589	-11.61
860.763	37.55
860.938	-13.65
861.112	72.36
861.286	2.73
861.46	4.78
861.634	8.87
861.808	131.75
861.982	-62.8
862.157	-185.68
862.331	-95.57
862.505	-109.91
862.679	-95.57
862.853	-95.57
863.027	-40.28
863.201	139.94
863.375	-50.52
863.549	-11.61
863.722	-3.41
863.896	88.75
864.07	-71
864.244	-32.08
864.418	23.21
864.592	-34.13
864.766	2.73
864.939	-17.75
865.113	-103.76
865.287	-13.65
865.461	-52.56
865.634	98.99
865.808	-9.56
865.982	45.74
866.156	-77.14
866.329	-142.68
866.503	-9.56
866.676	121.51
866.85	-21.84
867.024	-25.94
867.197	64.17
867.371	72.36
867.544	78.51
867.718	-21.84
867.891	123.56
868.065	-91.48
868.238	17.07
868.412	15.02
868.585	-15.7
868.759	-27.99
868.932	-81.24
869.105	-62.8
869.279	-25.94
869.452	-85.33
869.625	64.17
869.799	-46.42
869.972	-52.56
870.145	-62.8
870.319	66.22
870.492	-83.28
870.665	-66.9
870.838	-44.37
871.011	-54.61
871.185	-17.75
871.358	-42.32
871.531	156.33
871.704	37.55
871.877	31.4
872.05	2.73
872.223	-54.61
872.396	70.31
872.569	15.02
872.742	-62.8
872.915	-17.75
873.088	8.87
873.261	-73.04
873.434	4.78
873.607	35.5
873.78	129.7
873.953	-171.35
874.126	68.27
874.299	8.87
874.471	-38.23
874.644	25.26
874.817	82.6
874.99	199.34
875.163	-58.71
875.335	55.98
875.508	-15.7
875.681	154.28
875.853	2.73
876.026	43.69
876.199	47.79
876.371	47.79
876.544	-1.37
876.717	-11.61
876.889	-13.65
877.062	25.26
877.234	-7.51
877.407	-58.71
877.579	-11.61
877.752	-19.8
877.924	101.03
878.097	82.6
878.269	17.07
878.442	72.36
878.614	19.11
878.786	64.17
878.959	41.64
879.131	-23.89
879.303	-42.32
879.476	-77.14
879.648	107.18
879.82	-1.37
879.993	-95.57
880.165	-97.62
880.337	-109.91
880.509	-11.61
880.681	-79.19
880.854	-83.28
881.026	125.61
881.198	131.75
881.37	-44.37
881.542	33.45
881.714	-30.04
881.886	-11.61
882.058	-5.46
882.23	64.17
882.402	37.55
882.574	78.51
882.746	17.07
882.918	162.47
883.09	4.78
883.262	39.59
883.434	74.41
883.606	-64.85
883.778	-23.89
883.95	107.18
884.122	-11.61
884.293	117.42
884.465	19.11
884.637	82.6
884.809	-68.95
884.98	-46.42
885.152	12.97
885.324	15.02
885.496	-52.56
885.667	-15.7
885.839	23.21
886.011	107.18
886.182	98.99
886.354	23.21
886.525	58.03
886.697	8.87
886.869	-44.37
887.04	0.68
887.212	90.79
887.383	152.23
887.555	4.78
887.726	-23.89
887.897	21.16
888.069	25.26
888.24	15.02
888.412	66.22
888.583	-15.7
888.754	-89.43
888.926	-83.28
889.097	17.07
889.268	-32.08
889.44	4.78
889.611	-77.14
889.782	-136.53
889.953	-13.65
890.125	152.23
890.296	-48.47
890.467	-66.9
890.638	-60.76
890.809	-50.52
890.98	-44.37
891.151	41.64
891.323	96.94
891.494	-32.08
891.665	21.16
891.836	-52.56
892.007	49.83
892.178	51.88
892.349	-23.89
892.52	-25.94
892.691	31.4
892.862	-38.23
893.032	-40.28
893.203	-66.9
893.374	29.35
893.545	25.26
893.716	-52.56
893.887	10.92
894.057	-21.84
894.228	-87.38
894.399	-27.99
894.57	80.55
894.74	-87.38
894.911	37.55
895.082	12.97
895.253	-50.52
895.423	84.65
895.594	55.98
895.764	62.12
895.935	-27.99
896.106	27.31
896.276	-7.51
896.447	21.16
896.617	-25.94
896.788	-89.43
896.958	-42.32
897.129	-42.32
897.299	-60.76
897.47	49.83
897.64	17.07
897.81	-68.95
897.981	37.55
898.151	-50.52
898.322	6.83
898.492	27.31
898.662	-7.51
898.832	-11.61
899.003	-34.13
899.173	49.83
899.343	15.02
899.513	2.73
