Data from USB4F104151__66__09-29-22-696.txt Node

Date: Wed Feb 26 09:29:22 EST 2025
User: louis
Spectrometer: USB4F10415
Trigger mode: 4
Integration Time (sec): 1.000000E-1
Scans to average: 1
Electric dark correction enabled: true
Nonlinearity correction enabled: false
Boxcar width: 0
XAxis mode: Wavelengths
Number of Pixels in Spectrum: 3648
>>>>>Begin Spectral Data<<<<<
178.204	-336.89
178.424	-336.89
178.644	-336.89
178.864	-316.41
179.084	-310.27
179.304	-7.17
179.524	33.79
179.744	39.94
179.964	-1.02
180.184	66.56
180.404	58.37
180.624	-23.55
180.844	-97.28
181.064	-115.71
181.283	72.7
181.503	25.6
181.723	-52.22
181.943	5.12
182.163	211.96
182.383	50.18
182.602	117.76
182.822	138.24
183.042	99.33
183.262	-52.22
183.482	82.94
183.701	58.37
183.921	56.32
184.141	-80.89
184.361	105.47
184.58	54.27
184.8	64.51
185.02	56.32
185.239	189.44
185.459	148.48
185.679	125.95
185.898	-99.33
186.118	35.84
186.338	109.57
186.557	68.61
186.777	9.22
186.997	46.08
187.216	105.47
187.436	199.68
187.655	89.09
187.875	21.5
188.095	-13.31
188.314	150.53
188.534	119.81
188.753	25.6
188.973	164.86
189.192	128
189.412	111.61
189.631	13.31
189.851	5.12
190.07	160.77
190.29	7.17
190.509	-11.26
190.729	52.22
190.948	138.24
191.168	275.45
191.387	76.8
191.607	29.7
191.826	89.09
192.045	7.17
192.265	58.37
192.484	46.08
192.704	64.51
192.923	-72.7
193.142	205.82
193.362	164.86
193.581	191.49
193.8	119.81
194.02	121.85
194.239	46.08
194.458	74.75
194.678	48.13
194.897	-7.17
195.116	91.13
195.335	70.65
195.555	23.55
195.774	13.31
195.993	128
196.212	78.85
196.432	-41.98
196.651	29.7
196.87	70.65
197.089	199.68
197.308	87.04
197.528	91.13
197.747	-89.09
197.966	138.24
198.185	89.09
198.404	-29.7
198.623	128
198.842	93.18
199.062	62.46
199.281	121.85
199.5	37.89
199.719	5.12
199.938	25.6
200.157	68.61
200.376	31.74
200.595	99.33
200.814	48.13
201.033	60.42
201.252	138.24
201.471	-9.22
201.69	72.7
201.909	31.74
202.128	152.57
202.347	101.37
202.566	66.56
202.785	-19.46
203.004	-1.02
203.223	232.44
203.442	74.75
203.661	56.32
203.879	93.18
204.098	160.77
204.317	-19.46
204.536	177.15
204.755	52.22
204.974	72.7
205.193	9.22
205.411	132.09
205.63	173.05
205.849	46.08
206.068	33.79
206.287	-41.98
206.505	150.53
206.724	25.6
206.943	62.46
207.162	17.41
207.381	132.09
207.599	17.41
207.818	-15.36
208.037	-15.36
208.255	95.23
208.474	74.75
208.693	5.12
208.911	-15.36
209.13	56.32
209.349	119.81
209.567	13.31
209.786	103.42
210.005	140.29
210.223	50.18
210.442	-39.94
210.661	29.7
210.879	82.94
211.098	82.94
211.316	72.7
211.535	105.47
211.753	-23.55
211.972	119.81
212.191	5.12
212.409	-27.65
212.628	80.89
212.846	-5.12
213.065	82.94
213.283	99.33
213.502	60.42
213.72	82.94
213.938	74.75
214.157	-23.55
214.375	148.48
214.594	89.09
214.812	117.76
215.031	33.79
215.249	9.22
215.467	44.03
215.686	84.99
215.904	101.37
216.122	58.37
216.341	138.24
216.559	60.42
216.778	74.75
216.996	80.89
217.214	13.31
217.432	31.74
217.651	-58.37
217.869	82.94
218.087	29.7
218.306	17.41
218.524	70.65
218.742	9.22
218.96	82.94
219.179	33.79
219.397	87.04
219.615	154.62
219.833	66.56
220.051	31.74
220.27	-25.6
220.488	105.47
220.706	39.94
220.924	41.98
221.142	84.99
221.36	136.19
221.578	11.26
221.796	107.52
222.015	54.27
222.233	72.7
222.451	60.42
222.669	17.41
222.887	95.23
223.105	31.74
223.323	107.52
223.541	21.5
223.759	82.94
223.977	89.09
224.195	99.33
224.413	150.53
224.631	27.65
224.849	78.85
225.067	144.38
225.285	66.56
225.503	62.46
225.721	41.98
225.939	54.27
226.157	68.61
226.375	193.53
226.592	7.17
226.81	29.7
227.028	80.89
227.246	162.81
227.464	54.27
227.682	62.46
227.9	41.98
228.117	179.2
228.335	56.32
228.553	82.94
228.771	48.13
228.989	95.23
229.206	123.9
229.424	-7.17
229.642	25.6
229.86	23.55
230.077	103.42
230.295	140.29
230.513	97.28
230.731	130.05
230.948	197.63
231.166	132.09
231.384	-29.7
231.601	46.08
231.819	138.24
232.037	3.07
232.254	-50.18
232.472	80.89
232.689	17.41
232.907	160.77
233.125	27.65
233.342	109.57
233.56	-5.12
233.777	91.13
233.995	132.09
234.213	150.53
234.43	78.85
234.648	13.31
234.865	37.89
235.083	39.94
235.3	25.6
235.518	70.65
235.735	105.47
235.953	70.65
236.17	7.17
236.388	19.46
236.605	66.56
236.822	185.34
237.04	128
237.257	82.94
237.475	-15.36
237.692	-11.26
237.909	91.13
238.127	-13.31
238.344	25.6
238.562	78.85
238.779	17.41
238.996	-13.31
239.214	50.18
239.431	78.85
239.648	7.17
239.865	70.65
240.083	56.32
240.3	41.98
240.517	-3.07
240.735	87.04
240.952	123.9
241.169	70.65
241.386	111.61
241.603	95.23
241.821	-82.94
242.038	78.85
242.255	125.95
242.472	-15.36
242.689	136.19
242.907	146.43
243.124	21.5
243.341	-35.84
243.558	-17.41
243.775	-78.85
243.992	13.31
244.209	99.33
244.426	177.15
244.643	56.32
244.86	35.84
245.078	111.61
245.295	82.94
245.512	35.84
245.729	27.65
245.946	107.52
246.163	101.37
246.38	54.27
246.597	113.66
246.814	87.04
247.031	21.5
247.248	-3.07
247.464	76.8
247.681	64.51
247.898	91.13
248.115	89.09
248.332	82.94
248.549	164.86
248.766	201.72
248.983	99.33
249.2	37.89
249.417	125.95
249.633	-9.22
249.85	105.47
250.067	48.13
250.284	29.7
250.501	103.42
250.717	152.57
250.934	-9.22
251.151	52.22
251.368	72.7
251.585	48.13
251.801	-1.02
252.018	-11.26
252.235	89.09
252.451	19.46
252.668	-17.41
252.885	117.76
253.102	25.6
253.318	-39.94
253.535	13.31
253.752	82.94
253.968	99.33
254.185	-3.07
254.401	58.37
254.618	99.33
254.835	-19.46
255.051	177.15
255.268	142.33
255.484	99.33
255.701	58.37
255.917	152.57
256.134	-5.12
256.351	68.61
256.567	-17.41
256.784	-11.26
257	-7.17
257.217	74.75
257.433	72.7
257.65	58.37
257.866	74.75
258.082	-7.17
258.299	107.52
258.515	58.37
258.732	15.36
258.948	19.46
259.165	125.95
259.381	-1.02
259.597	56.32
259.814	33.79
260.03	50.18
260.246	58.37
260.463	162.81
260.679	68.61
260.895	111.61
261.112	115.71
261.328	33.79
261.544	23.55
261.761	187.39
261.977	7.17
262.193	-3.07
262.409	39.94
262.626	97.28
262.842	74.75
263.058	-33.79
263.274	119.81
263.49	-1.02
263.707	11.26
263.923	39.94
264.139	-39.94
264.355	17.41
264.571	144.38
264.787	93.18
265.004	44.03
265.22	37.89
265.436	-11.26
265.652	74.75
265.868	68.61
266.084	-74.75
266.3	91.13
266.516	-27.65
266.732	60.42
266.948	29.7
267.164	29.7
267.38	105.47
267.596	64.51
267.812	173.05
268.028	80.89
268.244	74.75
268.46	37.89
268.676	11.26
268.892	134.14
269.108	7.17
269.324	-5.12
269.54	-15.36
269.756	66.56
269.972	31.74
270.188	72.7
270.403	13.31
270.619	25.6
270.835	148.48
271.051	35.84
271.267	-76.8
271.483	35.84
271.698	70.65
271.914	37.89
272.13	76.8
272.346	64.51
272.562	41.98
272.777	80.89
272.993	15.36
273.209	5.12
273.425	74.75
273.64	-15.36
273.856	156.67
274.072	-13.31
274.287	37.89
274.503	70.65
274.719	140.29
274.934	82.94
275.15	-41.98
275.366	70.65
275.581	-7.17
275.797	29.7
276.012	23.55
276.228	31.74
276.444	66.56
276.659	84.99
276.875	17.41
277.09	33.79
277.306	82.94
277.521	80.89
277.737	80.89
277.952	64.51
278.168	37.89
278.383	56.32
278.599	46.08
278.814	121.85
279.03	15.36
279.245	168.96
279.461	58.37
279.676	64.51
279.892	-31.74
280.107	-1.02
280.322	-15.36
280.538	23.55
280.753	41.98
280.969	74.75
281.184	62.46
281.399	70.65
281.615	91.13
281.83	-9.22
282.045	-17.41
282.26	21.5
282.476	54.27
282.691	33.79
282.906	93.18
283.122	68.61
283.337	27.65
283.552	109.57
283.767	-27.65
283.983	70.65
284.198	80.89
284.413	82.94
284.628	-105.47
284.843	48.13
285.058	132.09
285.274	58.37
285.489	-60.42
285.704	95.23
285.919	1.02
286.134	39.94
286.349	68.61
286.564	-9.22
286.779	130.05
286.995	113.66
287.21	-7.17
287.425	41.98
287.64	13.31
287.855	91.13
288.07	15.36
288.285	113.66
288.5	164.86
288.715	60.42
288.93	82.94
289.145	11.26
289.36	56.32
289.575	11.26
289.79	164.86
290.004	13.31
290.219	117.76
290.434	37.89
290.649	-52.22
290.864	66.56
291.079	9.22
291.294	46.08
291.509	-19.46
291.724	48.13
291.938	27.65
292.153	-23.55
292.368	41.98
292.583	78.85
292.798	101.37
293.012	64.51
293.227	119.81
293.442	-27.65
293.657	56.32
293.871	144.38
294.086	93.18
294.301	121.85
294.516	130.05
294.73	93.18
294.945	-35.84
295.16	74.75
295.374	99.33
295.589	132.09
295.804	-17.41
296.018	-11.26
296.233	168.96
296.447	99.33
296.662	82.94
296.877	160.77
297.091	37.89
297.306	84.99
297.52	41.98
297.735	99.33
297.949	17.41
298.164	101.37
298.378	89.09
298.593	54.27
298.807	-72.7
299.022	21.5
299.236	123.9
299.451	41.98
299.665	46.08
299.88	50.18
300.094	150.53
300.309	103.42
300.523	41.98
300.737	46.08
300.952	50.18
301.166	82.94
301.381	3.07
301.595	33.79
301.809	50.18
302.024	13.31
302.238	-19.46
302.452	97.28
302.667	56.32
302.881	152.57
303.095	60.42
303.309	60.42
303.524	-29.7
303.738	82.94
303.952	29.7
304.166	111.61
304.381	-66.56
304.595	166.91
304.809	-48.13
305.023	9.22
305.237	99.33
305.452	54.27
305.666	70.65
305.88	84.99
306.094	136.19
306.308	97.28
306.522	91.13
306.736	105.47
306.95	185.34
307.164	13.31
307.379	-7.17
307.593	136.19
307.807	60.42
308.021	125.95
308.235	113.66
308.449	-70.65
308.663	27.65
308.877	179.2
309.091	39.94
309.305	95.23
309.519	-62.46
309.733	138.24
309.947	-1.02
310.161	95.23
310.374	31.74
310.588	203.77
310.802	-35.84
311.016	103.42
311.23	39.94
311.444	33.79
311.658	5.12
311.872	154.62
312.085	142.33
312.299	76.8
312.513	199.68
312.727	-15.36
312.941	-82.94
313.154	78.85
313.368	25.6
313.582	113.66
313.796	64.51
314.009	46.08
314.223	82.94
314.437	-44.03
314.651	142.33
314.864	29.7
315.078	97.28
315.292	-3.07
315.505	-23.55
315.719	123.9
315.933	97.28
316.146	-58.37
316.36	-46.08
316.573	113.66
316.787	130.05
317.001	130.05
317.214	5.12
317.428	60.42
317.641	17.41
317.855	37.89
318.068	9.22
318.282	123.9
318.495	160.77
318.709	23.55
318.922	-23.55
319.136	216.06
319.349	140.29
319.563	48.13
319.776	46.08
319.99	-44.03
320.203	107.52
320.417	56.32
320.63	91.13
320.843	162.81
321.057	68.61
321.27	115.71
321.483	109.57
321.697	125.95
321.91	91.13
322.124	107.52
322.337	54.27
322.55	-39.94
322.763	87.04
322.977	-3.07
323.19	17.41
323.403	13.31
323.617	132.09
323.83	173.05
324.043	82.94
324.256	97.28
324.469	-84.99
324.683	70.65
324.896	44.03
325.109	-13.31
325.322	-164.86
325.535	115.71
325.748	103.42
325.962	105.47
326.175	50.18
326.388	1.02
326.601	162.81
326.814	82.94
327.027	89.09
327.24	144.38
327.453	-130.05
327.666	115.71
327.879	62.46
328.092	125.95
328.305	15.36
328.518	-11.26
328.731	1.02
328.944	5.12
329.157	103.42
329.37	35.84
329.583	171.01
329.796	132.09
330.009	25.6
330.222	64.51
330.435	66.56
330.648	11.26
330.861	89.09
331.073	66.56
331.286	74.75
331.499	50.18
331.712	-9.22
331.925	13.31
332.138	-1.02
332.35	164.86
332.563	33.79
332.776	144.38
332.989	-39.94
333.202	27.65
333.414	48.13
333.627	39.94
333.84	13.31
334.053	91.13
334.265	-7.17
334.478	70.65
334.691	-5.12
334.903	78.85
335.116	3.07
335.329	123.9
335.541	62.46
335.754	211.96
335.966	-35.84
336.179	39.94
336.392	19.46
336.604	46.08
336.817	3.07
337.029	99.33
337.242	152.57
337.454	25.6
337.667	76.8
337.88	119.81
338.092	82.94
338.305	33.79
338.517	17.41
338.729	80.89
338.942	136.19
339.154	3.07
339.367	37.89
339.579	97.28
339.792	21.5
340.004	87.04
340.217	-27.65
340.429	132.09
340.641	1.02
340.854	9.22
341.066	91.13
341.278	148.48
341.491	173.05
341.703	64.51
341.915	17.41
342.128	62.46
342.34	105.47
342.552	-91.13
342.764	3.07
342.977	-7.17
343.189	-3.07
343.401	35.84
343.613	-84.99
343.826	68.61
344.038	-19.46
344.25	66.56
344.462	46.08
344.674	101.37
344.886	1.02
345.099	111.61
345.311	76.8
345.523	54.27
345.735	-23.55
345.947	23.55
346.159	66.56
346.371	23.55
346.583	-17.41
346.795	152.57
347.007	58.37
347.219	-3.07
347.431	-23.55
347.643	156.67
347.855	-15.36
348.067	121.85
348.279	-7.17
348.491	107.52
348.703	7.17
348.915	66.56
349.127	17.41
349.339	-29.7
349.551	-41.98
349.763	136.19
349.975	109.57
350.187	115.71
350.399	181.25
350.61	25.6
350.822	19.46
351.034	44.03
351.246	56.32
351.458	52.22
351.669	84.99
351.881	123.9
352.093	111.61
352.305	158.72
352.517	70.65
352.728	175.1
352.94	68.61
353.152	54.27
353.363	89.09
353.575	64.51
353.787	123.9
353.999	89.09
354.21	128
354.422	21.5
354.633	-11.26
354.845	25.6
355.057	97.28
355.268	87.04
355.48	107.52
355.692	-50.18
355.903	-17.41
356.115	1.02
356.326	-27.65
356.538	101.37
356.749	166.91
356.961	162.81
357.172	82.94
357.384	48.13
357.595	285.69
357.807	78.85
358.018	-41.98
358.23	27.65
358.441	218.11
358.653	62.46
358.864	29.7
359.075	27.65
359.287	177.15
359.498	37.89
359.709	87.04
359.921	74.75
360.132	48.13
360.344	66.56
360.555	-11.26
360.766	123.9
360.977	46.08
361.189	189.44
361.4	27.65
361.611	117.76
361.823	107.52
362.034	123.9
362.245	-72.7
362.456	93.18
362.667	54.27
362.879	-27.65
363.09	37.89
363.301	89.09
363.512	-7.17
363.723	33.79
363.935	78.85
364.146	66.56
364.357	52.22
364.568	25.6
364.779	58.37
364.99	130.05
365.201	-11.26
365.412	156.67
365.623	-25.6
365.834	60.42
366.045	72.7
366.256	125.95
366.467	146.43
366.678	17.41
366.889	70.65
367.1	7.17
367.311	111.61
367.522	-56.32
367.733	128
367.944	119.81
368.155	72.7
368.366	121.85
368.577	162.81
368.788	146.43
368.999	74.75
369.209	-9.22
369.42	173.05
369.631	252.92
369.842	162.81
370.053	21.5
370.264	134.14
370.474	17.41
370.685	54.27
370.896	58.37
371.107	138.24
371.317	29.7
371.528	54.27
371.739	97.28
371.95	107.52
372.16	97.28
372.371	-7.17
372.582	17.41
372.792	56.32
373.003	64.51
373.214	64.51
373.424	171.01
373.635	-27.65
373.846	74.75
374.056	70.65
374.267	111.61
374.477	23.55
374.688	-35.84
374.898	-15.36
375.109	89.09
375.319	93.18
375.53	214.01
375.74	84.99
375.951	50.18
376.161	60.42
376.372	156.67
376.582	-66.56
376.793	82.94
377.003	41.98
377.214	-31.74
377.424	115.71
377.635	33.79
377.845	15.36
378.055	138.24
378.266	-17.41
378.476	46.08
378.686	1.02
378.897	80.89
379.107	146.43
379.317	113.66
379.528	5.12
379.738	144.38
379.948	5.12
380.158	150.53
380.369	97.28
380.579	132.09
380.789	52.22
380.999	76.8
381.21	87.04
381.42	154.62
381.63	15.36
381.84	132.09
382.05	99.33
382.261	72.7
382.471	140.29
382.681	46.08
382.891	134.14
383.101	56.32
383.311	-23.55
383.521	23.55
383.731	121.85
383.941	162.81
384.151	101.37
384.361	29.7
384.571	158.72
384.781	41.98
384.991	109.57
385.201	121.85
385.411	87.04
385.621	103.42
385.831	99.33
386.041	15.36
386.251	17.41
386.461	105.47
386.671	1.02
386.881	70.65
387.091	-7.17
387.301	113.66
387.511	23.55
387.72	62.46
387.93	117.76
388.14	-13.31
388.35	109.57
388.56	74.75
388.769	144.38
388.979	44.03
389.189	21.5
389.399	48.13
389.609	164.86
389.818	84.99
390.028	33.79
390.238	46.08
390.447	-35.84
390.657	48.13
390.867	87.04
391.076	-23.55
391.286	80.89
391.496	48.13
391.705	3.07
391.915	89.09
392.125	39.94
392.334	62.46
392.544	89.09
392.753	13.31
392.963	21.5
393.172	13.31
393.382	-41.98
393.591	201.72
393.801	15.36
394.01	230.4
394.22	91.13
394.429	21.5
394.639	60.42
394.848	50.18
395.058	99.33
395.267	111.61
395.477	183.29
395.686	50.18
395.895	234.49
396.105	248.83
396.314	74.75
396.524	41.98
396.733	-7.17
396.942	189.44
397.152	11.26
397.361	107.52
397.57	19.46
397.78	62.46
397.989	-62.46
398.198	168.96
398.407	66.56
398.617	130.05
398.826	62.46
399.035	76.8
399.244	89.09
399.453	64.51
399.663	-25.6
399.872	89.09
400.081	17.41
400.29	123.9
400.499	-3.07
400.708	111.61
400.917	93.18
401.127	31.74
401.336	-27.65
401.545	115.71
401.754	66.56
401.963	103.42
402.172	1.02
402.381	-19.46
402.59	62.46
402.799	64.51
403.008	123.9
403.217	70.65
403.426	82.94
403.635	19.46
403.844	46.08
404.053	-23.55
404.262	44.03
404.471	136.19
404.68	7.17
404.888	70.65
405.097	-1.02
405.306	146.43
405.515	82.94
405.724	-48.13
405.933	58.37
406.142	74.75
406.35	111.61
406.559	-27.65
406.768	68.61
406.977	158.72
407.185	11.26
407.394	128
407.603	5.12
407.812	130.05
408.02	123.9
408.229	-25.6
408.438	9.22
408.646	-27.65
408.855	46.08
409.064	115.71
409.272	11.26
409.481	80.89
409.69	50.18
409.898	-48.13
410.107	78.85
410.315	171.01
410.524	-11.26
410.733	70.65
410.941	56.32
411.15	95.23
411.358	97.28
411.567	93.18
411.775	54.27
411.984	80.89
412.192	132.09
412.401	-3.07
412.609	128
412.818	101.37
413.026	66.56
413.234	78.85
413.443	46.08
413.651	66.56
413.86	52.22
414.068	109.57
414.276	144.38
414.485	78.85
414.693	117.76
414.901	142.33
415.11	29.7
415.318	1.02
415.526	99.33
415.734	78.85
415.943	23.55
416.151	111.61
416.359	70.65
416.567	99.33
416.776	56.32
416.984	175.1
417.192	238.59
417.4	-33.79
417.608	58.37
417.817	58.37
418.025	138.24
418.233	197.63
418.441	37.89
418.649	25.6
418.857	119.81
419.065	134.14
419.273	23.55
419.481	123.9
419.689	70.65
419.897	-7.17
420.105	-15.36
420.313	107.52
420.521	119.81
420.729	89.09
420.937	78.85
421.145	-99.33
421.353	91.13
421.561	173.05
421.769	72.7
421.977	52.22
422.185	25.6
422.393	52.22
422.601	156.67
422.809	48.13
423.017	87.04
423.224	58.37
423.432	27.65
423.64	72.7
423.848	148.48
424.056	15.36
424.263	136.19
424.471	95.23
424.679	164.86
424.887	-1.02
425.094	93.18
425.302	99.33
425.51	99.33
425.718	125.95
425.925	72.7
426.133	25.6
426.341	154.62
426.548	80.89
426.756	23.55
426.964	60.42
427.171	21.5
427.379	62.46
427.586	101.37
427.794	82.94
428.001	80.89
428.209	87.04
428.417	244.73
428.624	89.09
428.832	138.24
429.039	132.09
429.247	5.12
429.454	148.48
429.662	181.25
429.869	70.65
430.076	54.27
430.284	189.44
430.491	267.26
430.699	142.33
430.906	222.2
431.114	89.09
431.321	113.66
431.528	74.75
431.736	95.23
431.943	136.19
432.15	35.84
432.358	119.81
432.565	164.86
432.772	-95.23
432.979	80.89
433.187	87.04
433.394	93.18
433.601	70.65
433.808	160.77
434.016	209.92
434.223	103.42
434.43	168.96
434.637	214.01
434.844	166.91
435.052	195.58
435.259	226.3
435.466	189.44
435.673	181.25
435.88	177.15
436.087	232.44
436.294	238.59
436.501	218.11
436.708	197.63
436.915	179.2
437.122	318.46
437.329	205.82
437.537	263.16
437.743	205.82
437.95	365.56
438.157	214.01
438.364	300.03
438.571	254.97
438.778	324.6
438.985	259.07
439.192	320.51
439.399	285.69
439.606	345.08
439.813	353.27
440.02	375.8
440.227	560.12
440.433	369.66
440.64	365.56
440.847	295.93
441.054	531.45
441.261	392.19
441.467	519.16
441.674	431.1
441.881	535.54
442.088	457.72
442.294	508.92
442.501	590.84
442.708	527.35
442.914	476.15
443.121	564.22
443.328	623.61
443.534	510.97
443.741	629.75
443.948	427
444.154	691.19
444.361	738.29
444.568	648.18
444.774	674.81
444.981	683
445.187	799.73
445.394	758.77
445.6	783.35
445.807	844.79
446.013	826.36
446.22	752.63
446.426	893.94
446.633	943.09
446.839	1098.74
447.046	967.67
447.252	1022.96
447.459	973.81
447.665	1065.97
447.871	1217.52
448.078	1270.76
448.284	1250.28
448.491	1315.82
448.697	1393.64
448.903	1422.31
449.11	1426.41
449.316	1469.42
449.522	1530.86
449.728	1588.2
449.935	1676.26
450.141	1680.36
450.347	1809.38
450.553	1709.03
450.76	1838.05
450.966	1741.8
451.172	1969.12
451.378	1975.27
451.584	2116.58
451.791	2235.36
451.997	2130.91
452.203	2225.12
452.409	2446.3
452.615	2589.66
452.821	2454.49
453.027	2429.91
453.233	2790.36
453.44	2681.82
453.646	2851.8
453.852	2966.48
454.058	2995.15
454.264	3144.66
454.47	3257.29
454.676	3347.4
454.882	3507.15
455.088	3611.59
455.294	3736.52
455.5	3922.88
455.705	4094.91
455.911	4146.11
456.117	4363.2
456.323	4312
456.529	4418.49
456.735	4662.2
456.941	4944.82
457.147	5108.66
457.352	5252.02
457.558	5268.4
457.764	5680.04
457.97	6038.44
458.176	6157.22
458.381	6402.97
458.587	6552.48
458.793	6828.95
458.999	6882.2
459.204	7609.23
459.41	7943.05
459.616	7701.39
459.821	8219.52
460.027	8594.3
460.233	9063.29
460.438	9061.24
460.644	9431.92
460.85	9450.35
461.055	9982.82
461.261	10503.01
461.466	10310.5
461.672	10525.54
461.878	11658.06
462.083	11563.86
462.289	11826
462.494	12276.55
462.7	12378.95
462.905	12761.92
463.111	13511.47
463.316	14261.03
463.522	14463.78
463.727	15256.34
463.932	15399.7
464.138	16026.38
464.343	16843.52
464.549	16771.84
464.754	17924.85
464.959	18453.22
465.165	18778.85
465.37	18848.48
465.575	18526.95
465.781	19851.99
465.986	20431.56
466.191	20077.26
466.397	20599.49
466.602	19821.27
466.807	21267.13
467.012	21418.68
467.218	21779.12
467.423	21975.73
467.628	22289.07
467.833	23544.47
468.038	23313.05
468.244	22880.93
468.449	23923.35
468.654	23732.89
468.859	23448.22
469.064	23779.99
469.269	22743.72
469.474	23386.78
469.679	23765.65
469.885	23323.29
470.09	23487.13
470.295	23593.62
470.5	23272.09
470.705	23329.44
470.91	22751.91
471.115	22577.83
471.32	23028.38
471.525	22903.46
471.73	22233.77
471.935	22155.95
472.139	21097.15
472.344	21373.63
472.549	21232.32
472.754	20867.78
472.959	20079.31
473.164	19700.44
473.369	19446.49
473.574	19913.42
473.778	19417.82
473.983	19170.01
474.188	18795.23
474.393	18012.91
474.598	17783.54
474.802	17597.17
475.007	17275.64
475.212	17076.99
475.417	16536.32
475.621	16380.68
475.826	16182.03
476.031	15557.39
476.235	15528.72
476.44	15577.87
476.645	15160.09
476.849	14994.2
477.054	14687.01
477.259	14240.55
477.463	14402.34
477.668	13959.98
477.872	13806.38
478.077	13478.71
478.282	12899.13
478.486	12933.95
478.691	12792.64
478.895	12677.95
479.1	12485.44
479.304	12530.5
479.509	12061.51
479.713	12110.66
479.918	11920.2
480.122	11768.65
480.326	11690.83
480.531	11864.91
480.735	11649.87
480.94	11330.39
481.144	11850.57
481.348	11074.39
481.553	11537.23
481.757	10802.01
481.961	11094.87
482.166	11219.8
482.37	10937.18
482.574	10523.49
482.778	10652.51
482.983	10883.93
483.187	10605.41
483.391	10347.36
483.595	10181.48
483.8	10263.4
484.004	10206.05
484.208	10353.51
484.412	10150.76
484.616	9984.87
484.821	9784.17
485.025	9677.68
485.229	9642.86
485.433	9444.21
485.637	9479.02
485.841	9145.2
486.045	9261.94
486.249	9012.09
486.453	8768.38
486.657	8733.56
486.861	8475.52
487.065	8297.35
487.269	8520.57
487.473	7922.57
487.677	8153.99
487.881	8256.39
488.085	7748.49
488.289	7984.01
488.493	7443.34
488.697	7570.32
488.901	7392.14
489.105	7314.32
489.309	7097.24
489.512	7218.07
489.716	7105.43
489.92	6792.09
490.124	6661.02
490.328	6609.82
490.531	6362.01
490.735	6331.3
490.939	6325.15
491.143	5942.18
491.346	5919.65
491.55	5878.69
491.754	5741.48
491.958	5698.47
492.161	5481.39
492.365	5528.49
492.569	5483.44
492.772	5381.04
492.976	5311.41
493.18	5114.8
493.383	5143.47
493.587	5012.4
493.79	5004.21
493.994	4936.63
494.197	4864.95
494.401	4842.42
494.605	4688.82
494.808	4711.35
495.012	4680.63
495.215	4686.78
495.419	4717.5
495.622	4481.98
495.825	4488.12
496.029	4389.82
496.232	4504.51
496.436	4486.08
496.639	4408.25
496.843	4260.8
497.046	4248.51
497.249	4447.16
497.453	4256.7
497.656	4393.92
497.859	4252.61
498.063	4340.67
498.266	4436.92
498.469	4318.14
498.673	4201.41
498.876	4428.73
499.079	4207.55
499.282	4264.89
499.485	4570.04
499.689	4381.63
499.892	4346.81
500.095	4416.44
500.298	4553.66
500.501	4309.95
500.705	4408.25
500.908	4471.74
501.111	4395.96
501.314	4572.09
501.517	4584.38
501.72	4662.2
501.923	4584.38
502.126	4725.69
502.329	4770.74
502.532	4905.91
502.735	4856.76
502.938	4965.3
503.141	5084.08
503.344	4948.92
503.547	5184.43
503.75	5145.52
503.953	5116.85
504.156	5290.93
504.359	5405.61
504.562	5428.14
504.765	5467.05
504.968	5465
505.17	5645.23
505.373	5682.09
505.576	5753.77
505.779	5876.65
505.982	5839.78
506.185	6106.02
506.387	6052.77
506.59	6108.07
506.793	6464.41
506.996	6417.31
507.198	6575
507.401	6642.59
507.604	6773.66
507.807	6892.44
508.009	7019.41
508.212	7074.71
508.415	7345.04
508.617	7336.85
508.82	7308.18
509.022	7451.53
509.225	7832.46
509.428	7857.03
509.63	8100.74
509.833	8133.51
510.035	8668.03
510.238	8448.9
510.44	8553.34
510.643	9057.14
510.845	9233.27
511.048	9266.03
511.25	9366.39
511.453	9694.06
511.655	10341.22
511.858	10244.96
512.06	10290.02
512.262	10654.56
512.465	10879.83
512.667	10912.6
512.87	11207.51
513.072	11563.86
513.274	11719.5
513.477	12202.82
513.679	12237.64
513.881	12708.67
514.084	12763.97
514.286	13214.52
514.488	13450.03
514.69	13841.2
514.893	14091.05
515.095	14367.52
515.297	14471.97
515.499	14785.31
515.701	15266.58
515.904	15528.72
516.106	15831.82
516.308	16282.38
516.51	16638.72
516.712	16804.61
516.914	17117.95
517.116	17689.33
517.318	17789.68
517.52	18207.47
517.722	18361.06
517.925	18760.42
518.127	19208.92
518.329	19682
518.531	19944.14
518.733	20394.7
518.935	20638.41
519.136	21043.9
519.338	21469.88
519.54	21815.99
519.742	21746.36
519.944	22209.2
520.146	22637.22
520.348	22813.35
520.55	23427.74
520.752	23427.74
520.954	24052.37
521.155	23677.59
521.357	24668.81
521.559	24869.51
521.761	25385.6
521.963	25232
522.164	25434.75
522.366	25772.66
522.568	26126.96
522.77	26485.36
522.971	26563.18
523.173	26487.4
523.375	26915.43
523.576	27038.31
523.778	26905.19
523.98	27538.01
524.181	27572.83
524.383	27490.91
524.584	27787.86
524.786	27707.99
524.988	27589.21
525.189	28156.5
525.391	28439.12
525.592	28400.21
525.794	28303.95
525.995	28056.15
526.197	28156.5
526.398	28332.62
526.6	28299.86
526.801	28025.43
527.003	28027.48
527.204	27884.12
527.406	27998.8
527.607	28037.72
527.808	27994.71
528.01	27626.07
528.211	27298.4
528.412	28021.33
528.614	27570.78
528.815	27279.97
529.016	27142.75
529.218	26954.34
529.419	26921.57
529.62	26638.95
529.822	26309.23
530.023	25889.4
530.224	25721.46
530.425	25244.29
530.626	25158.27
530.828	25041.54
531.029	25240.19
531.23	24773.25
531.431	24423.05
531.632	24009.36
531.833	24117.9
532.035	23448.22
532.236	23050.91
532.437	23499.42
532.638	22803.11
532.839	22610.6
533.04	22299.31
533.241	22006.45
533.442	22233.77
533.643	21541.56
533.844	21123.77
534.045	20959.94
534.246	20697.8
534.447	20411.08
534.648	20189.9
534.849	19854.03
535.05	19573.46
535.251	19565.27
535.451	19264.22
535.652	18909.92
535.853	18717.41
536.054	18408.17
536.255	18133.74
536.456	17840.88
536.657	17941.23
536.857	17398.52
537.058	17081.08
537.259	16960.25
537.46	16939.77
537.66	16481.03
537.861	16513.8
538.062	15999.76
538.263	15940.36
538.463	15491.86
538.664	15522.58
538.865	15311.64
539.065	15184.66
539.266	14635.81
539.466	14840.61
539.667	14885.66
539.868	14318.37
540.068	14482.21
540.269	14029.61
540.469	14215.98
540.67	13538.1
540.87	13460.27
541.071	13413.17
541.271	13312.82
541.472	13130.55
541.672	12798.78
541.873	12649.28
542.073	12632.9
542.274	12583.74
542.474	12415.81
542.675	12215.11
542.875	12249.93
543.075	11828.04
543.276	11742.03
543.476	11713.36
543.676	11629.39
543.877	11344.72
544.077	11285.33
544.277	11379.54
544.478	10976.09
544.678	10969.94
544.878	10814.3
545.078	10759
545.279	10427.23
545.479	10328.93
545.679	10341.22
545.879	10310.5
546.079	10296.16
546.28	9886.57
546.48	9921.38
546.68	9847.66
546.88	9483.12
547.08	9665.39
547.28	9413.49
547.48	9192.31
547.68	8964.98
547.88	8864.63
548.081	9032.57
548.281	8715.13
548.481	8665.98
548.681	8721.27
548.881	8586.11
549.081	8534.91
549.28	8401.79
549.48	8252.29
549.68	8127.36
549.88	7957.38
550.08	7840.65
550.28	7920.52
550.48	7713.67
550.68	7773.07
550.88	7539.6
551.08	7420.81
551.279	7435.15
551.479	7166.87
551.679	7103.38
551.879	6896.53
552.079	6779.8
552.278	6874.01
552.478	6726.55
552.678	6624.15
552.878	6497.18
553.077	6212.51
553.277	6185.89
553.477	6204.32
553.676	6161.31
553.876	6017.96
554.076	5944.23
554.275	5753.77
554.475	5692.33
554.674	5807.02
554.874	5473.2
555.074	5522.35
555.273	5368.75
555.473	5247.92
555.672	5014.45
555.872	5137.33
556.071	5006.26
556.271	5172.15
556.47	4836.28
556.67	4813.75
556.869	4826.04
557.068	4539.32
557.268	4600.76
557.467	4334.53
557.667	4578.23
557.866	4268.99
558.065	4281.28
558.265	4146.11
558.464	4090.82
558.663	4113.35
558.863	3871.68
559.062	4023.23
559.261	3808.2
559.461	3969.99
559.66	3703.75
559.859	3668.94
560.058	3591.11
560.258	3572.68
560.457	3472.33
560.656	3550.15
560.855	3441.61
561.054	3384.27
561.253	3232.72
561.453	3371.98
561.652	3326.93
561.851	3113.94
562.05	2939.86
562.249	3046.35
562.448	3138.51
562.647	2835.41
562.846	2788.31
563.045	2980.82
563.244	2829.27
563.443	2839.51
563.642	2671.58
563.841	2786.26
564.04	2638.81
564.239	2632.66
564.438	2603.99
564.637	2544.6
564.836	2462.68
565.035	2382.81
565.234	2368.48
565.432	2438.11
565.631	2409.44
565.83	2401.24
566.029	2264.03
566.228	2272.22
566.427	2352.09
566.625	2128.86
566.824	2194.4
567.023	1973.22
567.222	1967.07
567.42	2079.71
567.619	1979.36
567.818	1930.21
568.016	2114.53
568.215	1876.96
568.414	1879.01
568.612	1926.11
568.811	1897.44
569.01	1784.8
569.208	1754.09
569.407	1868.77
569.605	1780.71
569.804	1700.84
570.002	1786.85
570.201	1590.25
570.4	1719.27
570.598	1577.96
570.797	1537
570.995	1516.52
571.193	1530.86
571.392	1508.33
571.59	1450.99
571.789	1422.31
571.987	1444.84
572.186	1571.82
572.384	1324.01
572.582	1291.24
572.781	1375.21
572.979	1293.29
573.177	1354.73
573.376	1340.4
573.574	1364.97
573.772	1223.66
573.971	1154.03
574.169	1121.26
574.367	1233.9
574.565	1350.64
574.763	1166.32
574.962	1205.23
575.16	1090.54
575.358	1041.39
575.556	1041.39
575.754	1074.16
575.952	1154.03
576.151	947.19
576.349	1053.68
576.547	992.24
576.745	1074.16
576.943	967.67
577.141	1014.77
577.339	877.55
577.537	924.66
577.735	1018.86
577.933	889.84
578.131	893.94
578.329	1000.43
578.527	869.36
578.725	920.56
578.923	740.34
579.121	912.37
579.319	676.85
579.516	762.87
579.714	963.57
579.912	791.54
580.11	693.24
580.308	674.81
580.506	676.85
580.704	631.8
580.901	646.13
581.099	797.68
581.297	703.48
581.495	697.33
581.692	695.29
581.89	771.06
582.088	625.65
582.285	609.27
582.483	631.8
582.681	627.7
582.878	594.93
583.076	685.05
583.274	658.42
583.471	654.33
583.669	644.09
583.866	558.07
584.064	531.45
584.262	492.54
584.459	506.87
584.657	558.07
584.854	533.5
585.052	574.46
585.249	500.73
585.447	623.61
585.644	404.47
585.841	596.98
586.039	508.92
586.236	603.13
586.434	418.81
586.631	478.2
586.828	455.67
587.026	490.49
587.223	320.51
587.42	363.51
587.618	527.35
587.815	513.02
588.012	386.04
588.21	418.81
588.407	533.5
588.604	416.76
588.801	441.34
588.999	433.15
589.196	422.91
589.393	422.91
589.59	406.52
589.787	457.72
589.984	484.34
590.182	412.67
590.379	439.29
590.576	373.75
590.773	328.7
590.97	328.7
591.167	377.85
591.364	439.29
591.561	383.99
591.758	412.67
591.955	427
592.152	383.99
592.349	418.81
592.546	416.76
592.743	357.37
592.94	359.42
593.137	451.58
593.334	519.16
593.531	386.04
593.727	435.19
593.924	377.85
594.121	300.03
594.318	408.57
594.515	488.44
594.712	408.57
594.908	455.67
595.105	316.41
595.302	422.91
595.499	498.68
595.696	470.01
595.892	357.37
596.089	467.96
596.286	416.76
596.482	488.44
596.679	517.11
596.876	443.39
597.072	517.11
597.269	363.51
597.466	439.29
597.662	492.54
597.859	447.48
598.055	523.26
598.252	584.7
598.448	543.74
598.645	705.53
598.841	580.6
599.038	676.85
599.234	715.77
599.431	697.33
599.627	697.33
599.824	701.43
600.02	607.22
600.217	775.16
600.413	740.34
600.609	758.77
600.806	1041.39
601.002	947.19
601.198	904.18
601.395	1041.39
601.591	1004.53
601.787	957.43
601.984	1012.72
602.18	1180.65
602.376	1137.65
602.572	1184.75
602.769	1184.75
602.965	1246.19
603.161	1289.2
603.357	1360.88
603.553	1471.47
603.75	1389.55
603.946	1487.85
604.142	1512.42
604.338	1719.27
604.534	1702.89
604.73	1696.74
604.926	1780.71
605.122	1991.65
605.318	1819.62
605.514	2104.29
605.71	1911.78
605.906	2126.82
606.102	2130.91
606.298	2204.64
606.494	2300.89
606.69	2304.99
606.886	2366.43
607.082	2386.91
607.278	2431.96
607.474	2624.47
607.67	2540.51
607.866	2673.62
608.062	2720.73
608.257	2907.09
608.453	2810.84
608.649	2964.43
608.845	2986.96
609.041	3046.35
609.236	3324.88
609.432	3447.76
609.628	3421.13
609.824	3541.96
610.019	3472.33
610.215	3666.89
610.411	3783.62
610.606	4025.28
610.802	4064.19
610.998	4123.59
611.193	4209.6
611.389	4355.01
611.584	4381.63
611.78	4537.27
611.976	4682.68
612.171	4981.68
612.367	4854.71
612.562	5008.31
612.758	5039.03
612.953	4920.24
613.149	5411.76
613.344	5415.85
613.539	5778.34
613.735	5796.78
613.93	6046.63
614.126	6046.63
614.321	6323.1
614.517	6349.73
614.712	6482.85
614.907	6751.13
615.103	6980.5
615.298	7150.48
615.493	7256.98
615.688	7277.46
615.884	7756.68
616.079	7693.19
616.274	8024.97
616.47	8141.7
616.665	8338.3
616.86	8606.59
617.055	8778.62
617.25	8772.47
617.445	9253.75
617.641	9446.26
617.836	9808.75
618.031	9864.04
618.226	10228.58
618.421	10386.27
618.616	10720.09
618.811	10900.31
619.006	11217.75
619.201	11438.93
619.396	11737.93
619.591	11606.86
619.786	12096.33
619.981	12325.7
620.176	12663.61
620.371	12907.32
620.566	13032.25
620.761	13409.08
620.956	13654.83
621.151	13876.01
621.346	14089
621.541	14410.53
621.735	14971.68
621.93	15033.11
622.125	15426.32
622.32	15586.07
622.515	15678.22
622.709	15989.52
622.904	16745.22
623.099	16718.59
623.294	17099.52
623.488	17199.87
623.683	17750.77
623.878	17631.99
624.072	18215.66
624.267	18445.03
624.462	18686.69
624.656	18731.75
624.851	19399.38
625.046	19385.05
625.24	19831.51
625.435	20036.3
625.629	20525.77
625.824	20755.14
626.018	21054.14
626.213	20544.2
626.407	21559.99
626.602	21332.67
626.796	21856.95
626.991	22117.04
627.185	22106.8
627.38	22194.86
627.574	22346.41
627.768	22897.31
627.963	22758.05
628.157	22514.34
628.352	22901.41
628.546	22643.37
628.74	23327.39
628.935	23073.44
629.129	23253.66
629.323	23102.11
629.517	22794.92
629.712	22852.26
629.906	22719.14
630.1	22583.98
630.294	22592.17
630.489	22002.35
630.683	22043.31
630.877	21398.2
631.071	21015.23
631.265	21478.07
631.459	20689.6
631.653	20081.36
631.848	19796.69
632.042	19473.11
632.236	19200.73
632.43	18377.45
632.624	17978.09
632.818	17427.19
633.012	16921.34
633.206	16438.02
633.4	15985.42
633.594	15356.69
633.788	15227.67
633.982	14666.53
634.176	14285.61
634.369	13390.64
634.563	13069.11
634.757	12583.74
634.951	12182.34
635.145	11864.91
635.339	11375.44
635.533	10679.13
635.726	10365.79
635.92	9929.58
636.114	9683.82
636.308	8973.18
636.501	8792.95
636.695	8594.3
636.889	8117.12
637.083	7728.01
637.276	7398.29
637.47	6992.79
637.664	6831
637.857	6740.89
638.051	6431.65
638.244	6020
638.438	5899.17
638.632	5606.31
638.825	5231.54
639.019	5301.17
639.212	4742.07
639.406	4733.88
639.599	4559.8
639.793	4459.45
639.986	4172.74
640.18	4232.13
640.373	3947.46
640.567	3779.53
640.76	3591.11
640.954	3453.9
641.147	3261.39
641.34	3152.85
641.534	3140.56
641.727	3122.13
641.92	2866.13
642.114	2835.41
642.307	2700.25
642.5	2563.03
642.694	2429.91
642.887	2354.14
643.08	2421.72
643.273	2257.89
643.467	2135.01
643.66	2057.18
643.853	1893.35
644.046	1872.87
644.239	1793
644.432	1737.7
644.626	1577.96
644.819	1635.3
645.012	1559.53
645.205	1442.79
645.398	1573.86
645.591	1446.89
645.784	1254.38
645.977	1192.94
646.17	1291.24
646.363	1250.28
646.556	1090.54
646.749	1049.58
646.942	1057.78
647.135	1074.16
647.328	1020.91
647.521	1045.49
647.714	814.07
647.907	912.37
648.099	781.3
648.292	875.51
648.485	869.36
648.678	783.35
648.871	740.34
649.064	760.82
649.256	607.22
649.449	719.86
649.642	549.88
649.835	537.59
650.027	617.46
650.22	578.55
650.413	633.85
650.605	654.33
650.798	558.07
650.991	451.58
651.183	435.19
651.376	445.43
651.568	531.45
651.761	439.29
651.954	467.96
652.146	394.23
652.339	443.39
652.531	445.43
652.724	306.17
652.916	416.76
653.109	230.4
653.301	461.82
653.494	467.96
653.686	349.18
653.879	381.95
654.071	320.51
654.263	324.6
654.456	287.74
654.648	398.33
654.84	312.32
655.033	187.39
655.225	328.7
655.417	162.81
655.61	361.47
655.802	353.27
655.994	365.56
656.186	156.67
656.379	261.12
656.571	156.67
656.763	220.16
656.955	293.88
657.148	252.92
657.34	316.41
657.532	211.96
657.724	244.73
657.916	259.07
658.108	205.82
658.3	205.82
658.492	177.15
658.684	197.63
658.876	349.18
659.068	103.42
659.26	193.53
659.452	140.29
659.644	183.29
659.836	246.78
660.028	171.01
660.22	154.62
660.412	136.19
660.604	130.05
660.796	246.78
660.988	224.25
661.18	142.33
661.372	181.25
661.563	119.81
661.755	244.73
661.947	31.74
662.139	158.72
662.331	91.13
662.522	152.57
662.714	166.91
662.906	113.66
663.097	136.19
663.289	117.76
663.481	25.6
663.673	113.66
663.864	107.52
664.056	218.11
664.247	89.09
664.439	199.68
664.631	87.04
664.822	211.96
665.014	144.38
665.205	25.6
665.397	91.13
665.588	154.62
665.78	101.37
665.971	136.19
666.163	70.65
666.354	189.44
666.546	91.13
666.737	97.28
666.929	5.12
667.12	54.27
667.311	171.01
667.503	97.28
667.694	103.42
667.885	117.76
668.077	191.49
668.268	-7.17
668.459	136.19
668.651	95.23
668.842	140.29
669.033	-7.17
669.224	111.61
669.416	281.6
669.607	97.28
669.798	74.75
669.989	222.2
670.18	132.09
670.371	214.01
670.563	-31.74
670.754	181.25
670.945	156.67
671.136	142.33
671.327	35.84
671.518	214.01
671.709	162.81
671.9	87.04
672.091	197.63
672.282	148.48
672.473	80.89
672.664	93.18
672.855	152.57
673.046	130.05
673.237	158.72
673.428	121.85
673.619	158.72
673.809	130.05
674	211.96
674.191	177.15
674.382	99.33
674.573	74.75
674.764	177.15
674.954	148.48
675.145	44.03
675.336	46.08
675.527	121.85
675.717	160.77
675.908	91.13
676.099	54.27
676.289	142.33
676.48	87.04
676.671	132.09
676.861	87.04
677.052	177.15
677.243	119.81
677.433	121.85
677.624	193.53
677.814	105.47
678.005	76.8
678.195	224.25
678.386	111.61
678.576	109.57
678.767	37.89
678.957	138.24
679.148	189.44
679.338	304.12
679.529	203.77
679.719	48.13
679.909	168.96
680.1	214.01
680.29	207.87
680.481	37.89
680.671	207.87
680.861	185.34
681.052	132.09
681.242	91.13
681.432	107.52
681.622	173.05
681.813	242.68
682.003	211.96
682.193	173.05
682.383	115.71
682.573	123.9
682.764	99.33
682.954	238.59
683.144	293.88
683.334	179.2
683.524	111.61
683.714	162.81
683.904	148.48
684.094	156.67
684.284	183.29
684.474	318.46
684.664	252.92
684.854	179.2
685.044	84.99
685.234	201.72
685.424	160.77
685.614	115.71
685.804	199.68
685.994	140.29
686.184	101.37
686.374	216.06
686.564	130.05
686.753	263.16
686.943	111.61
687.133	33.79
687.323	199.68
687.513	220.16
687.702	230.4
687.892	160.77
688.082	156.67
688.272	211.96
688.461	138.24
688.651	222.2
688.841	224.25
689.03	115.71
689.22	84.99
689.41	205.82
689.599	136.19
689.789	93.18
689.979	291.84
690.168	144.38
690.358	220.16
690.547	150.53
690.737	232.44
690.926	242.68
691.116	191.49
691.305	195.58
691.495	246.78
691.684	128
691.874	101.37
692.063	115.71
692.252	226.3
692.442	236.54
692.631	123.9
692.82	183.29
693.01	181.25
693.199	123.9
693.388	171.01
693.578	158.72
693.767	250.88
693.956	254.97
694.146	177.15
694.335	197.63
694.524	140.29
694.713	236.54
694.902	123.9
695.092	91.13
695.281	148.48
695.47	125.95
695.659	109.57
695.848	123.9
696.037	148.48
696.226	230.4
696.415	181.25
696.604	226.3
696.793	177.15
696.982	156.67
697.171	277.5
697.36	78.85
697.549	191.49
697.738	97.28
697.927	162.81
698.116	76.8
698.305	142.33
698.494	185.34
698.683	214.01
698.872	214.01
699.061	101.37
699.25	138.24
699.438	222.2
699.627	128
699.816	361.47
700.005	148.48
700.193	140.29
700.382	162.81
700.571	162.81
700.76	224.25
700.948	164.86
701.137	211.96
701.326	295.93
701.514	91.13
701.703	240.64
701.892	173.05
702.08	283.64
702.269	62.46
702.457	146.43
702.646	111.61
702.834	142.33
703.023	164.86
703.212	230.4
703.4	156.67
703.589	54.27
703.777	93.18
703.965	91.13
704.154	89.09
704.342	91.13
704.531	105.47
704.719	142.33
704.907	228.35
705.096	111.61
705.284	-11.26
705.472	68.61
705.661	97.28
705.849	203.77
706.037	244.73
706.226	214.01
706.414	115.71
706.602	115.71
706.79	218.11
706.979	144.38
707.167	234.49
707.355	80.89
707.543	173.05
707.731	140.29
707.919	173.05
708.107	105.47
708.296	148.48
708.484	82.94
708.672	144.38
708.86	113.66
709.048	128
709.236	146.43
709.424	189.44
709.612	189.44
709.8	111.61
709.988	150.53
710.176	201.72
710.364	193.53
710.551	191.49
710.739	203.77
710.927	220.16
711.115	181.25
711.303	214.01
711.491	244.73
711.679	142.33
711.866	175.1
712.054	138.24
712.242	277.5
712.43	244.73
712.617	130.05
712.805	201.72
712.993	74.75
713.181	-1.02
713.368	230.4
713.556	158.72
713.744	162.81
713.931	295.93
714.119	175.1
714.306	185.34
714.494	138.24
714.682	160.77
714.869	64.51
715.057	250.88
715.244	62.46
715.432	144.38
715.619	140.29
715.807	160.77
715.994	146.43
716.182	132.09
716.369	181.25
716.556	234.49
716.744	111.61
716.931	74.75
717.119	164.86
717.306	232.44
717.493	230.4
717.681	132.09
717.868	201.72
718.055	308.22
718.242	179.2
718.43	195.58
718.617	214.01
718.804	138.24
718.991	234.49
719.179	183.29
719.366	271.36
719.553	259.07
719.74	162.81
719.927	183.29
720.114	156.67
720.301	173.05
720.488	87.04
720.676	44.03
720.863	154.62
721.05	199.68
721.237	168.96
721.424	232.44
721.611	220.16
721.798	109.57
721.985	115.71
722.172	185.34
722.358	171.01
722.545	316.41
722.732	259.07
722.919	238.59
723.106	263.16
723.293	218.11
723.48	207.87
723.667	152.57
723.853	269.31
724.04	224.25
724.227	259.07
724.414	211.96
724.6	242.68
724.787	248.83
724.974	332.79
725.161	197.63
725.347	171.01
725.534	205.82
725.72	267.26
725.907	295.93
726.094	224.25
726.28	173.05
726.467	287.74
726.653	164.86
726.84	316.41
727.027	336.89
727.213	197.63
727.4	285.69
727.586	306.17
727.773	244.73
727.959	230.4
728.145	197.63
728.332	216.06
728.518	164.86
728.705	297.98
728.891	189.44
729.077	283.64
729.264	177.15
729.45	173.05
729.636	289.79
729.823	187.39
730.009	259.07
730.195	242.68
730.382	297.98
730.568	214.01
730.754	214.01
730.94	214.01
731.126	177.15
731.313	130.05
731.499	214.01
731.685	304.12
731.871	244.73
732.057	222.2
732.243	254.97
732.429	287.74
732.615	404.47
732.801	189.44
732.987	156.67
733.173	316.41
733.359	238.59
733.545	287.74
733.731	203.77
733.917	302.08
734.103	248.83
734.289	263.16
734.475	136.19
734.661	410.62
734.847	242.68
735.033	244.73
735.219	287.74
735.404	357.37
735.59	130.05
735.776	226.3
735.962	277.5
736.148	269.31
736.333	328.7
736.519	314.36
736.705	214.01
736.89	193.53
737.076	254.97
737.262	150.53
737.447	160.77
737.633	302.08
737.819	390.14
738.004	193.53
738.19	324.6
738.375	177.15
738.561	312.32
738.747	197.63
738.932	230.4
739.118	390.14
739.303	295.93
739.489	318.46
739.674	195.58
739.859	171.01
740.045	279.55
740.23	295.93
740.416	113.66
740.601	244.73
740.786	269.31
740.972	211.96
741.157	257.02
741.342	150.53
741.528	107.52
741.713	363.51
741.898	228.35
742.084	209.92
742.269	199.68
742.454	269.31
742.639	291.84
742.824	230.4
743.01	295.93
743.195	371.71
743.38	312.32
743.565	216.06
743.75	316.41
743.935	267.26
744.12	361.47
744.305	197.63
744.49	203.77
744.675	121.85
744.86	279.55
745.045	252.92
745.23	156.67
745.415	226.3
745.6	400.38
745.785	168.96
745.97	332.79
746.155	222.2
746.34	369.66
746.525	320.51
746.71	379.9
746.895	119.81
747.079	177.15
747.264	168.96
747.449	304.12
747.634	347.13
747.819	236.54
748.003	211.96
748.188	238.59
748.373	297.98
748.557	238.59
748.742	185.34
748.927	230.4
749.111	261.12
749.296	203.77
749.481	312.32
749.665	248.83
749.85	148.48
750.034	275.45
750.219	226.3
750.404	154.62
750.588	254.97
750.773	275.45
750.957	224.25
751.141	117.76
751.326	265.21
751.51	115.71
751.695	160.77
751.879	173.05
752.064	306.17
752.248	214.01
752.432	273.4
752.617	240.64
752.801	230.4
752.985	164.86
753.17	275.45
753.354	254.97
753.538	224.25
753.722	132.09
753.907	189.44
754.091	154.62
754.275	201.72
754.459	105.47
754.643	160.77
754.828	218.11
755.012	257.02
755.196	146.43
755.38	197.63
755.564	123.9
755.748	107.52
755.932	189.44
756.116	132.09
756.3	232.44
756.484	166.91
756.668	103.42
756.852	66.56
757.036	144.38
757.22	205.82
757.404	164.86
757.588	150.53
757.772	214.01
757.956	183.29
758.14	211.96
758.323	123.9
758.507	216.06
758.691	168.96
758.875	164.86
759.059	297.98
759.242	173.05
759.426	173.05
759.61	191.49
759.794	87.04
759.977	218.11
760.161	361.47
760.345	168.96
760.528	234.49
760.712	218.11
760.895	156.67
761.079	115.71
761.263	68.61
761.446	185.34
761.63	132.09
761.813	187.39
761.997	121.85
762.18	95.23
762.364	195.58
762.547	76.8
762.731	9.22
762.914	91.13
763.098	66.56
763.281	130.05
763.464	99.33
763.648	46.08
763.831	89.09
764.015	9.22
764.198	138.24
764.381	78.85
764.564	164.86
764.748	171.01
764.931	156.67
765.114	72.7
765.297	171.01
765.481	82.94
765.664	70.65
765.847	97.28
766.03	150.53
766.213	31.74
766.397	123.9
766.58	15.36
766.763	254.97
766.946	87.04
767.129	144.38
767.312	-7.17
767.495	64.51
767.678	111.61
767.861	125.95
768.044	123.9
768.227	144.38
768.41	41.98
768.593	115.71
768.776	62.46
768.959	84.99
769.142	226.3
769.324	37.89
769.507	99.33
769.69	99.33
769.873	31.74
770.056	275.45
770.239	89.09
770.421	195.58
770.604	91.13
770.787	74.75
770.97	78.85
771.152	-9.22
771.335	97.28
771.518	80.89
771.7	220.16
771.883	222.2
772.066	50.18
772.248	125.95
772.431	216.06
772.613	70.65
772.796	168.96
772.978	101.37
773.161	173.05
773.343	64.51
773.526	74.75
773.708	15.36
773.891	25.6
774.073	33.79
774.256	7.17
774.438	197.63
774.621	130.05
774.803	123.9
774.985	58.37
775.168	132.09
775.35	117.76
775.532	205.82
775.715	97.28
775.897	66.56
776.079	76.8
776.261	148.48
776.444	48.13
776.626	89.09
776.808	68.61
776.99	15.36
777.173	99.33
777.355	37.89
777.537	138.24
777.719	89.09
777.901	58.37
778.083	68.61
778.265	-56.32
778.447	134.14
778.629	-37.89
778.811	80.89
778.993	62.46
779.175	115.71
779.357	113.66
779.539	-3.07
779.721	95.23
779.903	203.77
780.085	78.85
780.267	103.42
780.449	64.51
780.631	117.76
780.812	136.19
780.994	48.13
781.176	107.52
781.358	62.46
781.54	93.18
781.721	29.7
781.903	168.96
782.085	29.7
782.267	146.43
782.448	21.5
782.63	97.28
782.812	23.55
782.993	146.43
783.175	105.47
783.357	66.56
783.538	72.7
783.72	46.08
783.901	70.65
784.083	121.85
784.264	25.6
784.446	140.29
784.627	87.04
784.809	5.12
784.99	41.98
785.172	25.6
785.353	54.27
785.535	56.32
785.716	-3.07
785.897	-1.02
786.079	17.41
786.26	29.7
786.441	97.28
786.623	-13.31
786.804	41.98
786.985	-15.36
787.167	74.75
787.348	-17.41
787.529	80.89
787.71	181.25
787.891	103.42
788.073	-105.47
788.254	-29.7
788.435	201.72
788.616	78.85
788.797	-23.55
788.978	13.31
789.159	31.74
789.34	62.46
789.522	11.26
789.703	41.98
789.884	138.24
790.065	37.89
790.246	211.96
790.427	91.13
790.607	39.94
790.788	89.09
790.969	50.18
791.15	105.47
791.331	25.6
791.512	-56.32
791.693	44.03
791.874	5.12
792.054	121.85
792.235	117.76
792.416	-7.17
792.597	7.17
792.778	64.51
792.958	95.23
793.139	39.94
793.32	33.79
793.5	13.31
793.681	173.05
793.862	115.71
794.042	-5.12
794.223	-7.17
794.404	7.17
794.584	-66.56
794.765	21.5
794.945	72.7
795.126	17.41
795.306	64.51
795.487	21.5
795.667	50.18
795.848	68.61
796.028	70.65
796.209	93.18
796.389	60.42
796.57	37.89
796.75	-15.36
796.93	37.89
797.111	-23.55
797.291	27.65
797.471	164.86
797.652	7.17
797.832	-60.42
798.012	54.27
798.192	13.31
798.373	-17.41
798.553	54.27
798.733	107.52
798.913	-46.08
799.093	5.12
799.274	-15.36
799.454	103.42
799.634	84.99
799.814	136.19
799.994	146.43
800.174	17.41
800.354	23.55
800.534	-68.61
800.714	91.13
800.894	3.07
801.074	-48.13
801.254	9.22
801.434	144.38
801.614	31.74
801.794	13.31
801.974	1616.87
802.154	41.98
802.334	175.1
802.514	-19.46
802.693	33.79
802.873	64.51
803.053	33.79
803.233	66.56
803.413	13.31
803.592	-1.02
803.772	17.41
803.952	50.18
804.131	-35.84
804.311	105.47
804.491	152.57
804.67	-48.13
804.85	17.41
805.03	101.37
805.209	84.99
805.389	66.56
805.568	7.17
805.748	1.02
805.928	62.46
806.107	84.99
806.287	9.22
806.466	107.52
806.646	35.84
806.825	25.6
807.004	41.98
807.184	115.71
807.363	29.7
807.543	44.03
807.722	19.46
807.901	168.96
808.081	17.41
808.26	-99.33
808.439	50.18
808.619	37.89
808.798	62.46
808.977	91.13
809.156	107.52
809.336	3.07
809.515	64.51
809.694	-9.22
809.873	82.94
810.052	50.18
810.231	168.96
810.411	70.65
810.59	91.13
810.769	13.31
810.948	95.23
811.127	-19.46
811.306	41.98
811.485	-62.46
811.664	197.63
811.843	41.98
812.022	23.55
812.201	56.32
812.38	-19.46
812.559	9.22
812.737	107.52
812.916	-72.7
813.095	-13.31
813.274	-9.22
813.453	91.13
813.632	93.18
813.811	87.04
813.989	-54.27
814.168	29.7
814.347	68.61
814.526	52.22
814.704	103.42
814.883	99.33
815.062	-31.74
815.24	84.99
815.419	-11.26
815.598	17.41
815.776	-31.74
815.955	7.17
816.133	-44.03
816.312	1.02
816.49	-64.51
816.669	31.74
816.847	58.37
817.026	74.75
817.204	15.36
817.383	13.31
817.561	17.41
817.74	76.8
817.918	44.03
818.097	44.03
818.275	7.17
818.453	52.22
818.632	105.47
818.81	39.94
818.988	-23.55
819.167	-9.22
819.345	-27.65
819.523	25.6
819.701	70.65
819.879	33.79
820.058	35.84
820.236	31.74
820.414	5.12
820.592	-11.26
820.77	-15.36
820.948	-72.7
821.127	50.18
821.305	62.46
821.483	17.41
821.661	99.33
821.839	13.31
822.017	-31.74
822.195	-80.89
822.373	50.18
822.551	-1.02
822.729	9.22
822.907	1.02
823.085	99.33
823.262	64.51
823.44	31.74
823.618	-76.8
823.796	48.13
823.974	41.98
824.152	-60.42
824.329	25.6
824.507	-9.22
824.685	128
824.863	-33.79
825.04	9.22
825.218	72.7
825.396	48.13
825.574	29.7
825.751	41.98
825.929	82.94
826.107	-70.65
826.284	74.75
826.462	105.47
826.639	-46.08
826.817	-37.89
826.994	-5.12
827.172	-44.03
827.349	123.9
827.527	39.94
827.704	58.37
827.882	105.47
828.059	87.04
828.237	-11.26
828.414	136.19
828.591	-33.79
828.769	-7.17
828.946	-1.02
829.124	140.29
829.301	91.13
829.478	-9.22
829.655	31.74
829.833	-7.17
830.01	-48.13
830.187	78.85
830.364	13.31
830.542	103.42
830.719	91.13
830.896	39.94
831.073	91.13
831.25	46.08
831.427	105.47
831.604	80.89
831.782	-3.07
831.959	84.99
832.136	7.17
832.313	70.65
832.49	19.46
832.667	-5.12
832.844	3.07
833.021	111.61
833.198	31.74
833.374	107.52
833.551	156.67
833.728	-23.55
833.905	1.02
834.082	-25.6
834.259	1.02
834.436	93.18
834.612	-58.37
834.789	87.04
834.966	78.85
835.143	21.5
835.319	-11.26
835.496	1.02
835.673	64.51
835.85	27.65
836.026	31.74
836.203	11.26
836.38	-7.17
836.556	-52.22
836.733	1.02
836.909	93.18
837.086	35.84
837.262	-46.08
837.439	15.36
837.616	25.6
837.792	33.79
837.968	101.37
838.145	-93.18
838.321	29.7
838.498	74.75
838.674	82.94
838.851	80.89
839.027	7.17
839.203	1.02
839.38	60.42
839.556	27.65
839.732	101.37
839.909	-1.02
840.085	44.03
840.261	-17.41
840.437	-11.26
840.614	-9.22
840.79	99.33
840.966	101.37
841.142	-25.6
841.318	-72.7
841.494	74.75
841.671	60.42
841.847	-66.56
842.023	-64.51
842.199	132.09
842.375	152.57
842.551	-121.85
842.727	-17.41
842.903	136.19
843.079	50.18
843.255	82.94
843.431	9.22
843.607	87.04
843.783	-113.66
843.959	136.19
844.134	-9.22
844.31	46.08
844.486	-19.46
844.662	-27.65
844.838	-11.26
845.013	72.7
845.189	31.74
845.365	41.98
845.541	44.03
845.716	87.04
845.892	15.36
846.068	-48.13
846.244	-1.02
846.419	72.7
846.595	-46.08
846.77	5.12
846.946	62.46
847.122	11.26
847.297	-97.28
847.473	125.95
847.648	-128
847.824	25.6
847.999	-58.37
848.175	-64.51
848.35	48.13
848.526	99.33
848.701	89.09
848.876	80.89
849.052	99.33
849.227	-119.81
849.403	-82.94
849.578	25.6
849.753	39.94
849.929	13.31
850.104	46.08
850.279	27.65
850.454	101.37
850.63	13.31
850.805	39.94
850.98	9.22
851.155	-44.03
851.33	41.98
851.505	-29.7
851.681	93.18
851.856	-25.6
852.031	80.89
852.206	54.27
852.381	-33.79
852.556	-25.6
852.731	27.65
852.906	89.09
853.081	-3.07
853.256	60.42
853.431	-17.41
853.606	25.6
853.781	-48.13
853.956	-48.13
854.131	25.6
854.305	-11.26
854.48	-56.32
854.655	-39.94
854.83	-50.18
855.005	-50.18
855.18	9.22
855.354	-29.7
855.529	56.32
855.704	-7.17
855.879	-31.74
856.053	41.98
856.228	111.61
856.403	-19.46
856.577	-17.41
856.752	-62.46
856.926	-31.74
857.101	64.51
857.276	-9.22
857.45	-15.36
857.625	80.89
857.799	-37.89
857.974	-15.36
858.148	-15.36
858.323	15.36
858.497	-25.6
858.672	9.22
858.846	-31.74
859.02	21.5
859.195	-72.7
859.369	3.07
859.543	9.22
859.718	99.33
859.892	52.22
860.066	11.26
860.241	-50.18
860.415	-58.37
860.589	37.89
860.763	64.51
860.938	15.36
861.112	-9.22
861.286	5.12
861.46	58.37
861.634	11.26
861.808	50.18
861.982	-97.28
862.157	-46.08
862.331	-15.36
862.505	23.55
862.679	-99.33
862.853	5.12
863.027	-11.26
863.201	123.9
863.375	-39.94
863.549	58.37
863.722	91.13
863.896	95.23
864.07	-23.55
864.244	-64.51
864.418	99.33
864.592	13.31
864.766	-1.02
864.939	-5.12
865.113	-15.36
865.287	103.42
865.461	78.85
865.634	74.75
865.808	37.89
865.982	50.18
866.156	-11.26
866.329	-56.32
866.503	70.65
866.676	33.79
866.85	27.65
867.024	21.5
867.197	-31.74
867.371	72.7
867.544	74.75
867.718	-72.7
867.891	39.94
868.065	-46.08
868.238	76.8
868.412	62.46
868.585	19.46
868.759	-15.36
868.932	74.75
869.105	-80.89
869.279	66.56
869.452	-82.94
869.625	-13.31
869.799	13.31
869.972	-58.37
870.145	-50.18
870.319	130.05
870.492	-50.18
870.665	25.6
870.838	-15.36
871.011	-101.37
871.185	29.7
871.358	-64.51
871.531	66.56
871.704	7.17
871.877	41.98
872.05	-91.13
872.223	-132.09
872.396	21.5
872.569	3.07
872.742	-115.71
872.915	80.89
873.088	1.02
873.261	-50.18
873.434	9.22
873.607	-17.41
873.78	107.52
873.953	-41.98
874.126	89.09
874.299	95.23
874.471	-35.84
874.644	62.46
874.817	99.33
874.99	74.75
875.163	5.12
875.335	15.36
875.508	-29.7
875.681	60.42
875.853	23.55
876.026	15.36
876.199	130.05
876.371	41.98
876.544	48.13
876.717	17.41
876.889	-31.74
877.062	33.79
877.234	-72.7
877.407	39.94
877.579	-5.12
877.752	41.98
877.924	70.65
878.097	-31.74
878.269	82.94
878.442	29.7
878.614	64.51
878.786	52.22
878.959	97.28
879.131	-19.46
879.303	-25.6
879.476	50.18
879.648	113.66
879.82	-11.26
879.993	-7.17
880.165	37.89
880.337	-93.18
880.509	21.5
880.681	-74.75
880.854	62.46
881.026	107.52
881.198	158.72
881.37	50.18
881.542	17.41
881.714	-13.31
881.886	33.79
882.058	-48.13
882.23	41.98
882.402	-35.84
882.574	62.46
882.746	97.28
882.918	173.05
883.09	50.18
883.262	-7.17
883.434	-39.94
883.606	-35.84
883.778	13.31
883.95	111.61
884.122	-5.12
884.293	84.99
884.465	-15.36
884.637	68.61
884.809	1.02
884.98	95.23
885.152	56.32
885.324	80.89
885.496	-66.56
885.667	-11.26
885.839	-39.94
886.011	87.04
886.182	68.61
886.354	82.94
886.525	-7.17
886.697	-7.17
886.869	-11.26
887.04	-21.5
887.212	29.7
887.383	107.52
887.555	82.94
887.726	11.26
887.897	-27.65
888.069	87.04
888.24	41.98
888.412	54.27
888.583	-7.17
888.754	-1.02
888.926	-74.75
889.097	-95.23
889.268	-52.22
889.44	99.33
889.611	-107.52
889.782	-41.98
889.953	-64.51
890.125	70.65
890.296	41.98
890.467	-25.6
890.638	21.5
890.809	25.6
890.98	-19.46
891.151	-17.41
891.323	46.08
891.494	-1.02
891.665	13.31
891.836	52.22
892.007	17.41
892.178	109.57
892.349	37.89
892.52	-66.56
892.691	11.26
892.862	1.02
893.032	-9.22
893.203	-48.13
893.374	7.17
893.545	70.65
893.716	-1.02
893.887	48.13
894.057	-48.13
894.228	-1.02
894.399	-15.36
894.57	50.18
894.74	17.41
894.911	-11.26
895.082	11.26
895.253	56.32
895.423	50.18
895.594	21.5
895.764	9.22
895.935	-60.42
896.106	21.5
896.276	72.7
896.447	-15.36
896.617	-5.12
896.788	-80.89
896.958	-37.89
897.129	15.36
897.299	7.17
897.47	95.23
897.64	58.37
897.81	-13.31
897.981	150.53
898.151	41.98
898.322	-1.02
898.492	121.85
898.662	-29.7
898.832	-15.36
899.003	-11.26
899.173	103.42
899.343	-105.47
899.513	-64.51
