Data from USB4F104151__61__11-30-50-965.txt Node

Date: Wed Feb 26 11:30:50 EST 2025
User: louis
Spectrometer: USB4F10415
Trigger mode: 4
Integration Time (sec): 1.000000E-1
Scans to average: 1
Electric dark correction enabled: true
Nonlinearity correction enabled: false
Boxcar width: 0
XAxis mode: Wavelengths
Number of Pixels in Spectrum: 3648
>>>>>Begin Spectral Data<<<<<
178.204	-427.51
178.424	-427.51
178.644	-427.51
178.864	-374.27
179.084	-337.4
179.304	-48.64
179.524	-28.16
179.744	57.86
179.964	59.9
180.184	8.7
180.404	20.99
180.624	-69.12
180.844	37.38
181.064	-13.82
181.283	61.95
181.503	-62.98
181.723	-24.06
181.943	-89.6
182.163	193.02
182.383	23.04
182.602	107.01
182.822	166.4
183.042	41.47
183.262	-44.54
183.482	59.9
183.701	86.53
183.921	14.85
184.141	-60.93
184.361	68.09
184.58	31.23
184.8	31.23
185.02	-5.63
185.239	121.34
185.459	125.44
185.679	74.24
185.898	-58.88
186.118	72.19
186.338	45.57
186.557	68.09
186.777	-56.83
186.997	47.62
187.216	76.29
187.436	209.4
187.655	78.33
187.875	94.72
188.095	86.53
188.314	61.95
188.534	74.24
188.753	78.33
188.973	139.77
189.192	207.36
189.412	-40.45
189.631	61.95
189.851	156.16
190.07	260.6
190.29	-83.45
190.509	-30.21
190.729	111.1
190.948	47.62
191.168	227.84
191.387	70.14
191.607	82.43
191.826	51.71
192.045	41.47
192.265	23.04
192.484	39.42
192.704	100.86
192.923	-73.21
193.142	152.06
193.362	170.49
193.581	164.35
193.8	80.38
194.02	119.29
194.239	61.95
194.458	53.76
194.678	-5.63
194.897	10.75
195.116	12.8
195.335	47.62
195.555	74.24
195.774	66.05
195.993	145.92
196.212	47.62
196.432	-40.45
196.651	66.05
196.87	8.7
197.089	281.08
197.308	131.58
197.528	43.52
197.747	-54.78
197.966	23.04
198.185	141.82
198.404	-65.02
198.623	119.29
198.842	109.05
199.062	107.01
199.281	39.42
199.5	117.25
199.719	80.38
199.938	107.01
200.157	121.34
200.376	133.63
200.595	176.64
200.814	113.15
201.033	-32.26
201.252	158.21
201.471	74.24
201.69	111.1
201.909	74.24
202.128	137.73
202.347	33.28
202.566	102.91
202.785	-36.35
203.004	-30.21
203.223	270.84
203.442	143.87
203.661	-9.73
203.879	113.15
204.098	139.77
204.317	27.14
204.536	76.29
204.755	51.71
204.974	156.16
205.193	49.66
205.411	158.21
205.63	107.01
205.849	133.63
206.068	4.61
206.287	29.18
206.505	152.06
206.724	51.71
206.943	41.47
207.162	27.14
207.381	55.81
207.599	47.62
207.818	80.38
208.037	-22.02
208.255	55.81
208.474	115.2
208.693	127.49
208.911	29.18
209.13	102.91
209.349	111.1
209.567	115.2
209.786	115.2
210.005	141.82
210.223	133.63
210.442	-60.93
210.661	39.42
210.879	27.14
211.098	53.76
211.316	51.71
211.535	64
211.753	45.57
211.972	-3.58
212.191	-36.35
212.409	107.01
212.628	96.77
212.846	31.23
213.065	23.04
213.283	180.73
213.502	39.42
213.72	88.57
213.938	41.47
214.157	8.7
214.375	164.35
214.594	2.56
214.812	94.72
215.031	80.38
215.249	57.86
215.467	45.57
215.686	49.66
215.904	10.75
216.122	100.86
216.341	152.06
216.559	145.92
216.778	143.87
216.996	141.82
217.214	39.42
217.432	16.9
217.651	-48.64
217.869	111.1
218.087	47.62
218.306	-42.5
218.524	66.05
218.742	86.53
218.96	139.77
219.179	31.23
219.397	4.61
219.615	293.37
219.833	172.54
220.051	23.04
220.27	107.01
220.488	131.58
220.706	100.86
220.924	35.33
221.142	-48.64
221.36	164.35
221.578	98.81
221.796	76.29
222.015	23.04
222.233	20.99
222.451	102.91
222.669	-75.26
222.887	88.57
223.105	57.86
223.323	33.28
223.541	59.9
223.759	18.94
223.977	61.95
224.195	158.21
224.413	12.8
224.631	61.95
224.849	80.38
225.067	238.08
225.285	31.23
225.503	59.9
225.721	-75.26
225.939	18.94
226.157	51.71
226.375	176.64
226.592	33.28
226.81	82.43
227.028	133.63
227.246	117.25
227.464	164.35
227.682	215.55
227.9	117.25
228.117	113.15
228.335	100.86
228.553	33.28
228.771	70.14
228.989	170.49
229.206	109.05
229.424	33.28
229.642	4.61
229.86	-15.87
230.077	170.49
230.295	-19.97
230.513	152.06
230.731	82.43
230.948	121.34
231.166	145.92
231.384	16.9
231.601	51.71
231.819	141.82
232.037	70.14
232.254	-65.02
232.472	-34.3
232.689	25.09
232.907	168.45
233.125	86.53
233.342	74.24
233.56	23.04
233.777	18.94
233.995	43.52
234.213	170.49
234.43	84.48
234.648	49.66
234.865	39.42
235.083	82.43
235.3	74.24
235.518	80.38
235.735	195.07
235.953	25.09
236.17	49.66
236.388	18.94
236.605	90.62
236.822	160.25
237.04	205.31
237.257	27.14
237.475	37.38
237.692	68.09
237.909	102.91
238.127	27.14
238.344	88.57
238.562	90.62
238.779	57.86
238.996	-50.69
239.214	39.42
239.431	143.87
239.648	20.99
239.865	80.38
240.083	27.14
240.3	37.38
240.517	25.09
240.735	80.38
240.952	119.29
241.169	145.92
241.386	176.64
241.603	25.09
241.821	2.56
242.038	59.9
242.255	127.49
242.472	-75.26
242.689	84.48
242.907	86.53
243.124	55.81
243.341	64
243.558	33.28
243.775	-124.41
243.992	16.9
244.209	119.29
244.426	197.12
244.643	68.09
244.86	102.91
245.078	121.34
245.295	135.68
245.512	45.57
245.729	76.29
245.946	86.53
246.163	133.63
246.38	53.76
246.597	64
246.814	88.57
247.031	-1.54
247.248	68.09
247.464	66.05
247.681	31.23
247.898	147.97
248.115	117.25
248.332	-1.54
248.549	129.53
248.766	238.08
248.983	80.38
249.2	98.81
249.417	150.01
249.633	18.94
249.85	178.69
250.067	43.52
250.284	41.47
250.501	80.38
250.717	104.96
250.934	25.09
251.151	74.24
251.368	45.57
251.585	-44.54
251.801	41.47
252.018	6.66
252.235	170.49
252.451	-26.11
252.668	-7.68
252.885	111.1
253.102	129.53
253.318	16.9
253.535	135.68
253.752	70.14
253.968	53.76
254.185	-1.54
254.401	66.05
254.618	131.58
254.835	20.99
255.051	135.68
255.268	154.11
255.484	156.16
255.701	8.7
255.917	121.34
256.134	23.04
256.351	59.9
256.567	-28.16
256.784	6.66
257	-38.4
257.217	156.16
257.433	86.53
257.65	14.85
257.866	70.14
258.082	-3.58
258.299	-40.45
258.515	104.96
258.732	68.09
258.948	-3.58
259.165	-15.87
259.381	0.51
259.597	70.14
259.814	31.23
260.03	-3.58
260.246	102.91
260.463	141.82
260.679	133.63
260.895	61.95
261.112	123.39
261.328	57.86
261.544	-15.87
261.761	158.21
261.977	-69.12
262.193	-11.78
262.409	111.1
262.626	-13.82
262.842	4.61
263.058	-1.54
263.274	102.91
263.49	109.05
263.707	117.25
263.923	76.29
264.139	-7.68
264.355	53.76
264.571	113.15
264.787	135.68
265.004	156.16
265.22	102.91
265.436	-44.54
265.652	-13.82
265.868	90.62
266.084	-17.92
266.3	39.42
266.516	-13.82
266.732	88.57
266.948	14.85
267.164	0.51
267.38	111.1
267.596	107.01
267.812	160.25
268.028	61.95
268.244	-5.63
268.46	90.62
268.676	18.94
268.892	119.29
269.108	-34.3
269.324	25.09
269.54	59.9
269.756	115.2
269.972	-62.98
270.188	80.38
270.403	-62.98
270.619	90.62
270.835	145.92
271.051	12.8
271.267	27.14
271.483	-9.73
271.698	80.38
271.914	57.86
272.13	-3.58
272.346	61.95
272.562	119.29
272.777	127.49
272.993	61.95
273.209	23.04
273.425	90.62
273.64	-85.5
273.856	170.49
274.072	-85.5
274.287	6.66
274.503	82.43
274.719	145.92
274.934	35.33
275.15	-85.5
275.366	-17.92
275.581	41.47
275.797	98.81
276.012	68.09
276.228	-48.64
276.444	61.95
276.659	133.63
276.875	41.47
277.09	-11.78
277.306	4.61
277.521	35.33
277.737	23.04
277.952	182.78
278.168	27.14
278.383	33.28
278.599	88.57
278.814	197.12
279.03	55.81
279.245	158.21
279.461	55.81
279.676	92.67
279.892	-1.54
280.107	10.75
280.322	6.66
280.538	35.33
280.753	43.52
280.969	51.71
281.184	51.71
281.399	158.21
281.615	-22.02
281.83	90.62
282.045	6.66
282.26	61.95
282.476	86.53
282.691	43.52
282.906	55.81
283.122	41.47
283.337	37.38
283.552	133.63
283.767	61.95
283.983	94.72
284.198	20.99
284.413	72.19
284.628	-71.17
284.843	68.09
285.058	92.67
285.274	33.28
285.489	0.51
285.704	107.01
285.919	135.68
286.134	61.95
286.349	43.52
286.564	6.66
286.779	150.01
286.995	70.14
287.21	25.09
287.425	113.15
287.64	-38.4
287.855	80.38
288.07	-32.26
288.285	158.21
288.5	37.38
288.715	47.62
288.93	70.14
289.145	-11.78
289.36	195.07
289.575	0.51
289.79	70.14
290.004	-9.73
290.219	74.24
290.434	51.71
290.649	23.04
290.864	59.9
291.079	80.38
291.294	-97.79
291.509	78.33
291.724	-15.87
291.938	35.33
292.153	100.86
292.368	-15.87
292.583	12.8
292.798	125.44
293.012	98.81
293.227	107.01
293.442	-50.69
293.657	131.58
293.871	176.64
294.086	133.63
294.301	162.3
294.516	145.92
294.73	107.01
294.945	-7.68
295.16	147.97
295.374	160.25
295.589	154.11
295.804	16.9
296.018	141.82
296.233	178.69
296.447	113.15
296.662	2.56
296.877	158.21
297.091	94.72
297.306	33.28
297.52	111.1
297.735	78.33
297.949	16.9
298.164	111.1
298.378	-7.68
298.593	-67.07
298.807	8.7
299.022	82.43
299.236	178.69
299.451	4.61
299.665	23.04
299.88	82.43
300.094	154.11
300.309	12.8
300.523	82.43
300.737	35.33
300.952	29.18
301.166	98.81
301.381	18.94
301.595	8.7
301.809	68.09
302.024	35.33
302.238	49.66
302.452	92.67
302.667	23.04
302.881	147.97
303.095	160.25
303.309	102.91
303.524	-44.54
303.738	53.76
303.952	-13.82
304.166	68.09
304.381	-75.26
304.595	182.78
304.809	27.14
305.023	33.28
305.237	4.61
305.452	121.34
305.666	102.91
305.88	176.64
306.094	160.25
306.308	61.95
306.522	186.88
306.736	33.28
306.95	135.68
307.164	41.47
307.379	53.76
307.593	141.82
307.807	164.35
308.021	41.47
308.235	111.1
308.449	-36.35
308.663	20.99
308.877	279.04
309.091	90.62
309.305	166.4
309.519	-81.41
309.733	150.01
309.947	-73.21
310.161	107.01
310.374	133.63
310.588	119.29
310.802	64
311.016	18.94
311.23	80.38
311.444	-13.82
311.658	-13.82
311.872	172.54
312.085	205.31
312.299	156.16
312.513	129.53
312.727	43.52
312.941	47.62
313.154	100.86
313.368	98.81
313.582	16.9
313.796	82.43
314.009	47.62
314.223	96.77
314.437	139.77
314.651	133.63
314.864	74.24
315.078	8.7
315.292	-17.92
315.505	33.28
315.719	78.33
315.933	127.49
316.146	-50.69
316.36	-5.63
316.573	229.88
316.787	102.91
317.001	68.09
317.214	-7.68
317.428	-19.97
317.641	33.28
317.855	115.2
318.068	45.57
318.282	92.67
318.495	186.88
318.709	119.29
318.922	64
319.136	158.21
319.349	123.39
319.563	39.42
319.776	111.1
319.99	-46.59
320.203	107.01
320.417	72.19
320.63	111.1
320.843	178.69
321.057	107.01
321.27	-22.02
321.483	10.75
321.697	221.69
321.91	39.42
322.124	68.09
322.337	0.51
322.55	-19.97
322.763	16.9
322.977	64
323.19	-73.21
323.403	64
323.617	45.57
323.83	158.21
324.043	6.66
324.256	70.14
324.469	12.8
324.683	178.69
324.896	33.28
325.109	37.38
325.322	-24.06
325.535	182.78
325.748	184.83
325.962	64
326.175	80.38
326.388	94.72
326.601	125.44
326.814	14.85
327.027	68.09
327.24	129.53
327.453	-83.45
327.666	64
327.879	166.4
328.092	41.47
328.305	84.48
328.518	57.86
328.731	49.66
328.944	102.91
329.157	80.38
329.37	-1.54
329.583	147.97
329.796	127.49
330.009	-17.92
330.222	154.11
330.435	109.05
330.648	102.91
330.861	39.42
331.073	51.71
331.286	133.63
331.499	84.48
331.712	-9.73
331.925	59.9
332.138	90.62
332.35	131.58
332.563	-71.17
332.776	68.09
332.989	-11.78
333.202	123.39
333.414	66.05
333.627	102.91
333.84	51.71
334.053	20.99
334.265	43.52
334.478	49.66
334.691	29.18
334.903	147.97
335.116	12.8
335.329	102.91
335.541	150.01
335.754	184.83
335.966	18.94
336.179	61.95
336.392	59.9
336.604	90.62
336.817	152.06
337.029	39.42
337.242	74.24
337.454	147.97
337.667	61.95
337.88	178.69
338.092	84.48
338.305	117.25
338.517	74.24
338.729	90.62
338.942	150.01
339.154	33.28
339.367	-87.55
339.579	154.11
339.792	0.51
340.004	133.63
340.217	31.23
340.429	92.67
340.641	-3.58
340.854	-30.21
341.066	102.91
341.278	164.35
341.491	182.78
341.703	23.04
341.915	55.81
342.128	164.35
342.34	82.43
342.552	-13.82
342.764	29.18
342.977	68.09
343.189	111.1
343.401	129.53
343.613	-52.74
343.826	68.09
344.038	10.75
344.25	39.42
344.462	27.14
344.674	78.33
344.886	16.9
345.099	55.81
345.311	39.42
345.523	12.8
345.735	-34.3
345.947	16.9
346.159	41.47
346.371	8.7
346.583	-9.73
346.795	211.45
347.007	14.85
347.219	0.51
347.431	121.34
347.643	107.01
347.855	20.99
348.067	121.34
348.279	-3.58
348.491	68.09
348.703	154.11
348.915	55.81
349.127	35.33
349.339	147.97
349.551	64
349.763	51.71
349.975	35.33
350.187	174.59
350.399	193.02
350.61	43.52
350.822	33.28
351.034	98.81
351.246	123.39
351.458	96.77
351.669	100.86
351.881	74.24
352.093	113.15
352.305	172.54
352.517	100.86
352.728	186.88
352.94	59.9
353.152	72.19
353.363	4.61
353.575	164.35
353.787	158.21
353.999	88.57
354.21	250.36
354.422	39.42
354.633	61.95
354.845	98.81
355.057	29.18
355.268	68.09
355.48	168.45
355.692	12.8
355.903	66.05
356.115	-36.35
356.326	4.61
356.538	172.54
356.749	94.72
356.961	184.83
357.172	41.47
357.384	-17.92
357.595	137.73
357.807	20.99
358.018	-60.93
358.23	55.81
358.441	233.98
358.653	121.34
358.864	109.05
359.075	45.57
359.287	27.14
359.498	66.05
359.709	100.86
359.921	49.66
360.132	45.57
360.344	23.04
360.555	-32.26
360.766	86.53
360.977	14.85
361.189	96.77
361.4	31.23
361.611	129.53
361.823	98.81
362.034	109.05
362.245	-128.51
362.456	88.57
362.667	129.53
362.879	-15.87
363.09	117.25
363.301	117.25
363.512	107.01
363.723	-7.68
363.935	33.28
364.146	143.87
364.357	29.18
364.568	20.99
364.779	2.56
364.99	119.29
365.201	-36.35
365.412	139.77
365.623	-52.74
365.834	170.49
366.045	41.47
366.256	107.01
366.467	100.86
366.678	20.99
366.889	145.92
367.1	51.71
367.311	143.87
367.522	-24.06
367.733	72.19
367.944	137.73
368.155	41.47
368.366	125.44
368.577	78.33
368.788	174.59
368.999	8.7
369.209	47.62
369.42	252.41
369.631	178.69
369.842	47.62
370.053	-32.26
370.264	115.2
370.474	8.7
370.685	-11.78
370.896	64
371.107	70.14
371.317	121.34
371.528	31.23
371.739	111.1
371.95	168.45
372.16	147.97
372.371	-3.58
372.582	-24.06
372.792	111.1
373.003	55.81
373.214	139.77
373.424	100.86
373.635	-36.35
373.846	150.01
374.056	84.48
374.267	76.29
374.477	125.44
374.688	29.18
374.898	90.62
375.109	51.71
375.319	74.24
375.53	55.81
375.74	61.95
375.951	47.62
376.161	94.72
376.372	168.45
376.582	51.71
376.793	78.33
377.003	82.43
377.214	14.85
377.424	125.44
377.635	43.52
377.845	25.09
378.055	188.93
378.266	-24.06
378.476	35.33
378.686	109.05
378.897	33.28
379.107	143.87
379.317	35.33
379.528	-56.83
379.738	96.77
379.948	35.33
380.158	51.71
380.369	53.76
380.579	184.83
380.789	45.57
380.999	109.05
381.21	88.57
381.42	207.36
381.63	20.99
381.84	119.29
382.05	78.33
382.261	84.48
382.471	145.92
382.681	16.9
382.891	172.54
383.101	98.81
383.311	18.94
383.521	-17.92
383.731	137.73
383.941	119.29
384.151	72.19
384.361	51.71
384.571	37.38
384.781	51.71
384.991	135.68
385.201	160.25
385.411	129.53
385.621	133.63
385.831	133.63
386.041	96.77
386.251	61.95
386.461	145.92
386.671	4.61
386.881	31.23
387.091	115.2
387.301	76.29
387.511	29.18
387.72	111.1
387.93	94.72
388.14	2.56
388.35	66.05
388.56	127.49
388.769	107.01
388.979	25.09
389.189	-19.97
389.399	90.62
389.609	158.21
389.818	47.62
390.028	152.06
390.238	127.49
390.447	16.9
390.657	66.05
390.867	16.9
391.076	-30.21
391.286	20.99
391.496	6.66
391.705	12.8
391.915	154.11
392.125	139.77
392.334	68.09
392.544	156.16
392.753	74.24
392.963	4.61
393.172	111.1
393.382	43.52
393.591	98.81
393.801	12.8
394.01	193.02
394.22	90.62
394.429	64
394.639	33.28
394.848	88.57
395.058	102.91
395.267	76.29
395.477	107.01
395.686	70.14
395.895	193.02
396.105	215.55
396.314	-1.54
396.524	111.1
396.733	-7.68
396.942	156.16
397.152	88.57
397.361	129.53
397.57	119.29
397.78	45.57
397.989	131.58
398.198	219.64
398.407	76.29
398.617	66.05
398.826	82.43
399.035	18.94
399.244	94.72
399.453	14.85
399.663	6.66
399.872	98.81
400.081	20.99
400.29	156.16
400.499	-17.92
400.708	47.62
400.917	51.71
401.127	98.81
401.336	78.33
401.545	279.04
401.754	111.1
401.963	107.01
402.172	43.52
402.381	72.19
402.59	45.57
402.799	72.19
403.008	141.82
403.217	92.67
403.426	37.38
403.635	-91.65
403.844	23.04
404.053	-17.92
404.262	31.23
404.471	221.69
404.68	166.4
404.888	-1.54
405.097	76.29
405.306	113.15
405.515	90.62
405.724	31.23
405.933	111.1
406.142	145.92
406.35	143.87
406.559	16.9
406.768	49.66
406.977	172.54
407.185	84.48
407.394	113.15
407.603	2.56
407.812	139.77
408.02	123.39
408.229	41.47
408.438	80.38
408.646	2.56
408.855	100.86
409.064	78.33
409.272	92.67
409.481	107.01
409.69	29.18
409.898	-24.06
410.107	51.71
410.315	82.43
410.524	-1.54
410.733	96.77
410.941	72.19
411.15	123.39
411.358	193.02
411.567	178.69
411.775	-9.73
411.984	98.81
412.192	88.57
412.401	23.04
412.609	244.22
412.818	76.29
413.026	184.83
413.234	131.58
413.443	49.66
413.651	-28.16
413.86	4.61
414.068	190.97
414.276	250.36
414.485	59.9
414.693	209.4
414.901	227.84
415.11	100.86
415.318	41.47
415.526	139.77
415.734	70.14
415.943	82.43
416.151	117.25
416.359	113.15
416.567	51.71
416.776	168.45
416.984	139.77
417.192	133.63
417.4	29.18
417.608	68.09
417.817	6.66
418.025	90.62
418.233	180.73
418.441	57.86
418.649	14.85
418.857	170.49
419.065	113.15
419.273	33.28
419.481	92.67
419.689	53.76
419.897	-7.68
420.105	-15.87
420.313	137.73
420.521	147.97
420.729	147.97
420.937	35.33
421.145	23.04
421.353	82.43
421.561	184.83
421.769	109.05
421.977	59.9
422.185	166.4
422.393	78.33
422.601	145.92
422.809	115.2
423.017	96.77
423.224	145.92
423.432	135.68
423.64	86.53
423.848	86.53
424.056	10.75
424.263	125.44
424.471	104.96
424.679	195.07
424.887	14.85
425.094	213.5
425.302	129.53
425.51	23.04
425.718	129.53
425.925	123.39
426.133	70.14
426.341	225.79
426.548	113.15
426.756	125.44
426.964	113.15
427.171	59.9
427.379	96.77
427.586	94.72
427.794	164.35
428.001	150.01
428.209	178.69
428.417	209.4
428.624	164.35
428.832	82.43
429.039	117.25
429.247	168.45
429.454	74.24
429.662	205.31
429.869	176.64
430.076	150.01
430.284	211.45
430.491	246.27
430.699	156.16
430.906	238.08
431.114	176.64
431.321	172.54
431.528	150.01
431.736	209.4
431.943	201.21
432.15	205.31
432.358	174.59
432.565	270.84
432.772	117.25
432.979	201.21
433.187	162.3
433.394	289.28
433.601	158.21
433.808	307.71
434.016	301.56
434.223	244.22
434.43	256.51
434.637	352.76
434.844	270.84
435.052	221.69
435.259	291.32
435.466	272.89
435.673	295.42
435.88	340.47
436.087	424.44
436.294	457.21
436.501	383.48
436.708	324.09
436.915	401.91
437.122	395.77
437.329	338.43
437.537	422.39
437.743	397.82
437.95	449.02
438.157	451.07
438.364	567.8
438.571	461.3
438.778	573.94
438.985	600.57
439.192	598.52
439.399	578.04
439.606	582.14
439.813	709.11
440.02	805.36
440.227	877.04
440.433	705.01
440.64	692.73
440.847	664.05
441.054	662.01
441.261	870.9
441.467	799.22
441.674	682.49
441.881	858.61
442.088	825.84
442.294	846.32
442.501	915.95
442.708	983.54
442.914	954.87
443.121	1112.56
443.328	1143.28
443.534	1085.94
443.741	1118.7
443.948	954.87
444.154	1122.8
444.361	1323.5
444.568	1253.87
444.774	1303.02
444.981	1174
445.187	1427.95
445.394	1497.58
445.6	1393.13
445.807	1657.32
446.013	1561.06
446.22	1552.87
446.426	1749.48
446.633	1886.69
446.839	1984.99
447.046	1790.44
447.252	2015.71
447.459	2095.58
447.665	1946.08
447.871	2253.28
448.078	2482.65
448.284	2277.85
448.491	2470.36
448.697	2515.42
448.903	2734.55
449.11	2662.87
449.316	2693.59
449.522	2839
449.728	3133.9
449.935	3269.07
450.141	3099.09
450.347	3447.24
450.553	3379.66
450.76	3394
450.966	3779.01
451.172	3768.77
451.378	3758.53
451.584	3924.42
451.791	4311.49
451.997	4196.8
452.203	4532.67
452.409	4712.89
452.615	4843.96
452.821	4813.24
453.027	4774.33
453.233	5181.87
453.44	5237.17
453.646	5607.85
453.852	5863.85
454.058	6007.2
454.264	6207.91
454.47	6668.7
454.676	6599.07
454.882	7180.69
455.088	6939.03
455.294	7377.3
455.5	7889.29
455.705	8313.22
455.911	8284.55
456.117	8454.53
456.323	8788.35
456.529	8761.72
456.735	9423.22
456.941	9967.98
457.147	10176.87
457.352	10109.29
457.558	10791.26
457.764	11354.45
457.97	11839.82
458.176	12083.53
458.381	13019.45
458.587	12831.04
458.793	13769.01
458.999	13646.13
459.204	15655.19
459.41	15866.13
459.616	15477.01
459.821	16615.68
460.027	17291.51
460.233	18122.99
460.438	18284.78
460.644	19273.95
460.85	19388.63
461.055	20121.8
461.261	20988.1
461.466	21100.73
461.672	21231.8
461.878	23670.93
462.083	23363.74
462.289	23955.6
462.494	25290.88
462.7	25120.9
462.905	25397.37
463.111	27619.42
463.316	28901.45
463.522	29513.79
463.727	30699.56
463.932	31698.97
464.138	32438.29
464.343	34017.27
464.549	33947.64
464.754	35915.74
464.959	37083.08
465.165	38057.92
465.37	37615.55
465.575	37752.77
465.781	39974.81
465.986	41203.6
466.191	41117.58
466.397	40867.73
466.602	40099.74
466.807	42514.3
467.012	43374.44
467.218	43804.52
467.423	43951.97
467.628	45225.81
467.833	47304.49
468.038	46696.25
468.244	45860.68
468.449	47851.3
468.654	46962.48
468.859	46528.31
469.064	46790.45
469.269	45815.62
469.474	46421.82
469.679	47454
469.885	45942.59
470.09	46573.37
470.295	46802.74
470.5	45934.4
470.705	46221.12
470.91	44984.15
471.115	44502.87
471.32	45176.65
471.525	45406.03
471.73	43605.86
471.935	43605.86
472.139	41322.38
472.344	41985.92
472.549	41295.75
472.754	40654.74
472.959	39921.57
473.164	38860.72
473.369	37937.09
473.574	38973.36
473.778	38098.87
473.983	37447.62
474.188	37144.52
474.393	35659.74
474.598	34852.84
474.802	34310.13
475.007	34009.08
475.212	33634.3
475.417	32180.24
475.621	31776.8
475.826	31385.63
476.031	30900.26
476.235	30064.69
476.44	30312.5
476.645	29734.97
476.849	29214.79
477.054	28952.65
477.259	27975.77
477.463	27883.61
477.668	26855.53
477.872	27220.06
478.077	26462.32
478.282	25909.36
478.486	25614.46
478.691	25368.7
478.895	25348.22
479.1	24803.46
479.304	24797.32
479.509	23795.86
479.713	24543.37
479.918	23658.65
480.122	23208.09
480.326	23644.31
480.531	23503
480.735	23074.98
480.94	22806.69
481.144	23419.03
481.348	22200.49
481.553	22235.31
481.757	21862.58
481.961	22165.68
482.166	22272.17
482.37	21739.7
482.574	21434.55
482.778	21569.72
482.983	21717.17
483.187	21250.24
483.391	20756.68
483.595	20992.19
483.8	20467.91
484.004	20482.25
484.208	20586.69
484.412	20156.62
484.616	20191.44
484.821	19648.72
485.025	18972.89
485.229	19321.05
485.433	18890.98
485.637	18829.54
485.841	18581.73
486.045	18401.51
486.249	18170.09
486.453	17586.42
486.657	17654
486.861	17332.47
487.065	16849.15
487.269	17002.75
487.473	16173.32
487.677	16589.06
487.881	16302.34
488.085	15757.58
488.289	15714.58
488.493	15163.67
488.697	15061.27
488.901	14846.24
489.105	14262.57
489.309	14223.65
489.512	14240.04
489.716	13678.9
489.92	13513.01
490.124	13363.51
490.328	13295.93
490.531	12679.49
490.735	12878.14
490.939	12241.22
491.143	12124.49
491.346	11886.92
491.55	11675.98
491.754	11698.51
491.958	11413.84
492.161	11030.87
492.365	10938.71
492.569	10969.43
492.772	10535.26
492.976	10692.96
493.18	10482.02
493.383	10393.95
493.587	10324.32
493.79	10307.94
493.994	9683.31
494.197	9787.75
494.401	9781.61
494.605	9730.41
494.808	9650.54
495.012	9556.33
495.215	9521.52
495.419	9527.66
495.622	9412.98
495.825	9357.68
496.029	9105.78
496.232	9290.1
496.436	8964.47
496.639	9279.86
496.843	9040.25
497.046	9113.97
497.249	9286
497.453	9212.28
497.656	9001.33
497.859	9064.82
498.063	9165.17
498.266	9044.34
498.469	9060.73
498.673	9107.83
498.876	9193.84
499.079	9054.58
499.282	9050.49
499.485	9558.38
499.689	9378.16
499.892	9668.97
500.095	9181.56
500.298	9683.31
500.501	9369.97
500.705	9507.18
500.908	9558.38
501.111	9832.81
501.314	9871.72
501.517	9888.11
501.72	9869.67
501.923	9984.36
502.126	10242.4
502.329	10516.83
502.532	10760.54
502.735	10639.71
502.938	10553.69
503.141	10750.3
503.344	11139.41
503.547	11086.17
503.75	11163.99
503.953	11374.93
504.156	11290.96
504.359	11585.87
504.562	11788.62
504.765	12138.82
504.968	12245.32
505.17	12458.31
505.373	12462.4
505.576	12804.41
505.779	12867.9
505.982	13023.55
506.185	13281.59
506.387	13498.67
506.59	13801.77
506.793	14076.2
506.996	14127.4
507.198	14745.89
507.401	14864.67
507.604	14946.59
507.807	15221.02
508.009	15659.28
508.212	15823.12
508.415	16173.32
508.617	16609.54
508.82	16713.98
509.022	16978.17
509.225	17768.69
509.428	18096.36
509.63	18301.16
509.833	18542.82
510.035	19232.99
510.238	19511.51
510.44	19810.51
510.643	20744.39
510.845	20848.83
511.048	20693.19
511.25	21526.71
511.453	22149.29
511.655	22956.19
511.858	22937.76
512.06	23603.35
512.262	23992.47
512.465	24451.21
512.667	25460.86
512.87	25559.16
513.072	26374.25
513.274	27314.27
513.477	27492.44
513.679	28338.26
513.881	28454.99
514.084	29481.02
514.286	29708.35
514.488	30498.86
514.69	31844.38
514.893	32135.19
515.095	32122.9
515.297	33556.48
515.499	33423.36
515.701	34854.89
515.904	35432.42
516.106	36485.08
516.308	36917.2
516.51	37394.37
516.712	38240.18
516.914	38770.61
517.116	40193.95
517.318	40167.32
517.52	40724.37
517.722	41381.77
517.925	42604.41
518.127	43349.87
518.329	44244.83
518.531	44001.12
518.733	45537.1
518.935	46481.21
519.136	46444.35
519.338	47638.31
519.54	48090.91
519.742	48822.04
519.944	49735.43
520.146	50564.86
520.348	51281.65
520.55	51818.22
520.752	52260.58
520.954	53034.71
521.155	53120.73
521.357	54306.5
521.559	54230.72
521.761	55596.72
521.963	55379.63
522.164	55584.43
522.366	56280.74
522.568	57165.46
522.77	57159.32
522.971	58009.23
523.173	57710.22
523.375	58488.45
523.576	58713.73
523.778	58685.06
523.98	59446.9
524.181	59504.24
524.383	59709.04
524.584	60202.6
524.786	59825.78
524.988	59926.13
525.189	60413.54
525.391	60237.42
525.592	60429.93
525.794	60716.64
525.995	60503.65
526.197	60583.52
526.398	59940.46
526.6	60208.75
526.801	60073.58
527.003	59876.97
527.204	59936.37
527.406	59711.09
527.607	59807.34
527.808	60225.13
528.01	58336.9
528.211	58273.41
528.412	58775.17
528.614	58003.08
528.815	57677.46
529.016	58341
529.218	56278.69
529.419	56555.17
529.62	55809.71
529.822	55871.15
530.023	54947.51
530.224	54648.51
530.425	54118.09
530.626	53290.71
530.828	52831.96
531.029	52819.67
531.23	51853.03
531.431	51576.56
531.632	50755.32
531.833	50718.46
532.035	49702.67
532.236	49673.99
532.437	48932.63
532.638	47939.36
532.839	47882.02
533.04	47095.6
533.241	46217.02
533.442	46425.92
533.643	46001.99
533.844	44502.87
534.045	44392.28
534.246	43020.14
534.447	43333.48
534.648	42981.23
534.849	42121.09
535.05	41336.71
535.251	41172.88
535.451	40550.29
535.652	40159.13
535.853	39202.73
536.054	39147.43
536.255	38244.28
536.456	37705.66
536.657	37564.35
536.857	37138.38
537.058	35938.27
537.259	36151.26
537.46	35753.95
537.66	34369.52
537.861	34416.63
538.062	33964.03
538.263	33751.04
538.463	33372.16
538.664	32823.31
538.865	32843.79
539.065	32335.89
539.266	31807.51
539.466	31471.65
539.667	30679.08
539.868	30926.89
540.068	30470.19
540.269	30140.47
540.469	29597.76
540.67	28844.1
540.87	28942.41
541.071	28432.46
541.271	28504.14
541.472	28088.4
541.672	27324.51
541.873	26976.36
542.073	26703.98
542.274	26597.48
542.474	26726.5
542.675	26163.31
542.875	25809.01
543.075	25424
543.276	25098.37
543.476	25213.06
543.676	24594.57
543.877	24270.99
544.077	24311.95
544.277	23976.08
544.478	23638.17
544.678	23928.98
544.878	23224.48
545.078	22964.39
545.279	22757.54
545.479	22341.8
545.679	22354.09
545.879	21733.56
546.079	21819.57
546.28	21385.4
546.48	21110.97
546.68	21139.65
546.88	20572.36
547.08	20662.47
547.28	20271.31
547.48	19816.66
547.68	20046.03
547.88	19476.69
548.081	19210.46
548.281	19040.48
548.481	18669.8
548.681	18835.68
548.881	18352.36
549.081	18225.39
549.28	17873.14
549.48	17668.34
549.68	17565.94
549.88	17504.5
550.08	16914.69
550.28	16634.11
550.48	16689.41
550.68	16507.14
550.88	16048.4
551.08	15735.06
551.279	15610.13
551.479	15280.41
551.679	15094.04
551.879	14901.53
552.079	14684.45
552.278	14346.53
552.478	14332.2
552.678	14151.98
552.878	14059.82
553.077	13685.04
553.277	13357.36
553.477	13551.92
553.676	13117.75
553.876	12958.01
554.076	12788.03
554.275	12585.28
554.475	12267.84
554.674	12226.89
554.874	12007.75
555.074	11762
555.273	11688.27
555.473	11491.66
555.672	11106.65
555.872	11094.36
556.071	10926.43
556.271	10744.16
556.47	10576.22
556.67	10223.97
556.869	10221.92
557.068	10109.29
557.268	9726.32
557.467	9808.23
557.667	9544.05
557.866	9275.76
558.065	9193.84
558.265	9187.7
558.464	8946.04
558.663	8935.8
558.863	8577.41
559.062	8503.68
559.261	8255.87
559.461	8270.21
559.66	7993.73
559.859	7909.77
560.058	7807.37
560.258	7719.31
560.457	7469.45
560.656	7686.54
560.855	7371.15
561.054	7215.51
561.253	7303.57
561.453	7289.23
561.652	7080.34
561.851	7023
562.05	6855.06
562.249	6668.7
562.448	6545.82
562.647	6418.85
562.846	6287.78
563.045	6216.1
563.244	6195.62
563.443	6095.27
563.642	5849.51
563.841	5949.86
564.04	6023.59
564.239	5829.03
564.438	5775.78
564.637	5521.84
564.836	5398.96
565.035	5349.81
565.234	5409.2
565.432	5323.18
565.631	5030.32
565.83	5235.12
566.029	5085.62
566.228	4825.53
566.427	5026.23
566.625	4647.35
566.824	4676.02
567.023	4716.98
567.222	4626.87
567.42	4563.39
567.619	4551.1
567.818	4542.91
568.016	4495.8
568.215	4221.38
568.414	4446.65
568.612	4280.77
568.811	4241.86
569.01	4073.92
569.208	4063.68
569.407	4168.13
569.605	3996.1
569.804	3813.83
570.002	3785.16
570.201	3719.62
570.4	3791.3
570.598	3531.21
570.797	3658.18
570.995	3592.65
571.193	3471.82
571.392	3453.39
571.59	3181.01
571.789	3459.53
571.987	3160.53
572.186	3262.93
572.384	3199.44
572.582	3140.05
572.781	3060.18
572.979	2951.63
573.177	3033.55
573.376	2949.59
573.574	3047.89
573.772	2912.72
573.971	2824.66
574.169	2705.88
574.367	2722.26
574.565	2744.79
574.763	2752.98
574.962	2572.76
575.16	2617.82
575.358	2574.81
575.556	2496.99
575.754	2486.75
575.952	2281.95
576.151	2417.12
576.349	2529.75
576.547	2232.8
576.745	2331.1
576.943	2341.34
577.141	2284
577.339	2087.39
577.537	2226.65
577.735	2167.26
577.933	2111.97
578.131	2023.91
578.329	2157.02
578.527	1913.31
578.725	2034.14
578.923	1778.15
579.121	2005.47
579.319	1802.72
579.516	1831.4
579.714	2038.24
579.912	1827.3
580.11	1667.56
580.308	1747.43
580.506	1737.19
580.704	1540.58
580.901	1630.7
581.099	1673.7
581.297	1733.09
581.495	1589.74
581.692	1556.97
581.89	1784.29
582.088	1624.55
582.285	1604.07
582.483	1427.95
582.681	1479.15
582.878	1481.19
583.076	1491.43
583.274	1511.91
583.471	1530.34
583.669	1411.56
583.866	1262.06
584.064	1362.41
584.262	1278.44
584.459	1341.93
584.657	1282.54
584.854	1331.69
585.052	1339.88
585.249	1290.73
585.447	1290.73
585.644	1163.76
585.841	1227.25
586.039	1188.33
586.236	1212.91
586.434	1096.18
586.631	1044.98
586.828	1087.98
587.026	1055.22
587.223	975.35
587.42	1075.7
587.618	1090.03
587.815	1151.47
588.012	1040.88
588.21	995.82
588.407	1171.95
588.604	1055.22
588.801	983.54
588.999	936.43
589.196	1018.35
589.393	1014.26
589.59	1001.97
589.787	930.29
589.984	1065.46
590.182	909.81
590.379	883.19
590.576	1040.88
590.773	877.04
590.97	907.76
591.167	989.68
591.364	850.42
591.561	930.29
591.758	985.58
591.955	844.28
592.152	981.49
592.349	903.67
592.546	854.51
592.743	848.37
592.94	942.58
593.137	1055.22
593.334	989.68
593.531	983.54
593.727	979.44
593.924	829.94
594.121	926.19
594.318	932.34
594.515	1022.45
594.712	1008.11
594.908	1122.8
595.105	973.3
595.302	928.24
595.499	987.63
595.696	1094.13
595.892	971.25
596.089	1188.33
596.286	1057.26
596.482	1278.44
596.679	1116.65
596.876	1112.56
597.072	1253.87
597.269	1202.67
597.466	1210.86
597.662	1229.29
597.859	1247.72
598.055	1358.32
598.252	1466.86
598.448	1483.24
598.645	1556.97
598.841	1563.11
599.038	1720.81
599.234	1745.38
599.431	1729
599.627	1790.44
599.824	1913.31
600.02	1872.36
600.217	1976.8
600.413	1987.04
600.609	2073.06
600.806	2427.35
601.002	2372.06
601.198	2390.49
601.395	2529.75
601.591	2591.19
601.787	2599.38
601.984	2666.97
602.18	2959.83
602.376	2949.59
602.572	3174.86
602.769	3340.75
602.965	3224.01
603.161	3457.48
603.357	3625.42
603.553	3862.98
603.75	3758.53
603.946	4098.5
604.142	4057.54
604.338	4379.07
604.534	4325.82
604.73	4479.42
604.926	4673.98
605.122	4858.29
605.318	4846.01
605.514	5093.81
605.71	5269.94
605.906	5468.59
606.102	5540.27
606.298	5671.34
606.494	6082.98
606.69	6099.36
606.886	6193.57
607.082	6388.13
607.278	6625.69
607.474	6713.75
607.67	7012.76
607.866	7143.83
608.062	7487.89
608.257	7637.39
608.453	7838.09
608.649	7899.53
608.845	8028.55
609.041	8225.15
609.236	8601.98
609.432	9077.11
609.628	9091.45
609.824	9369.97
610.019	9523.57
610.215	9873.77
610.411	10455.39
610.606	10570.08
610.802	10600.8
610.998	11184.47
611.193	11258.2
611.389	11280.72
611.584	11946.31
611.78	11966.79
611.976	12529.98
612.171	12996.92
612.367	13394.23
612.562	13533.49
612.758	13691.18
612.953	14078.25
613.149	14686.5
613.344	14862.62
613.539	15462.68
613.735	16036.11
613.93	16181.51
614.126	16537.86
614.321	17162.49
614.517	17574.13
614.712	17971.44
614.907	18309.35
615.103	19034.33
615.298	19290.33
615.493	19935.44
615.688	20089.04
615.884	21076.16
616.079	21221.56
616.274	21993.65
616.47	22481.06
616.665	23120.03
616.86	23077.02
617.055	23914.64
617.25	24574.09
617.445	25682.04
617.641	25434.24
617.836	26974.31
618.031	26851.43
618.226	28110.93
618.421	28467.28
618.616	29311.04
618.811	30017.59
619.006	30787.63
619.201	30808.11
619.396	32069.65
619.591	32270.36
619.786	33294.34
619.981	33880.06
620.176	35248.1
620.371	34777.07
620.566	36149.21
620.761	36564.95
620.956	37711.81
621.151	37867.45
621.346	39049.13
621.541	39110.57
621.735	40613.78
621.93	40961.93
622.125	41807.75
622.32	41895.81
622.515	43349.87
622.709	44349.28
622.904	44808.02
623.099	45533
623.294	46694.2
623.488	47046.45
623.683	48211.74
623.878	48039.71
624.072	49497.87
624.267	50355.97
624.462	50743.03
624.656	51549.93
624.851	52242.15
625.046	52489.95
625.24	53821.13
625.435	54021.83
625.629	54671.04
625.824	55555.76
626.018	56182.44
626.213	55666.35
626.407	57294.49
626.602	57185.94
626.796	57888.4
626.991	58447.49
627.185	59063.93
627.38	59303.54
627.574	59684.47
627.768	59582.07
627.963	59713.14
628.157	60143.21
628.352	60587.62
628.546	59805.3
628.74	60741.22
628.935	59496.05
629.129	60434.02
629.323	59412.09
629.517	59072.12
629.712	58949.24
629.906	58381.96
630.1	57382.55
630.294	57357.97
630.489	56061.61
630.683	56092.33
630.877	54359.75
631.071	53958.34
631.265	53255.89
631.459	51404.53
631.653	50358.02
631.848	49870.6
632.042	48281.38
632.236	47279.92
632.43	46151.49
632.624	45176.65
632.818	43247.47
633.012	41836.42
633.206	40314.78
633.4	39761.83
633.594	37849.02
633.788	36980.68
633.982	35672.03
634.176	34453.49
634.369	32788.49
634.563	31754.27
634.757	30091.32
634.951	29411.39
635.145	28330.06
635.339	27191.39
635.533	25927.8
635.726	25192.58
635.92	23865.49
636.114	22921.38
636.308	21907.63
636.501	20975.81
636.695	20365.51
636.889	19359.96
637.083	18559.2
637.276	17957.1
637.47	17180.92
637.664	16464.13
637.857	15806.73
638.051	15214.87
638.244	14782.75
638.438	13807.92
638.632	13470
638.825	12697.92
639.019	12378.44
639.212	11915.59
639.406	11462.99
639.599	11063.64
639.793	10590.56
639.986	10082.66
640.18	9720.17
640.373	9402.74
640.567	9017.72
640.76	8862.07
640.954	8225.15
641.147	7942.53
641.34	7653.77
641.534	7453.07
641.727	7270.8
641.92	6984.09
642.114	6652.31
642.307	6408.61
642.5	6117.79
642.694	5906.85
642.887	5689.77
643.08	5536.17
643.273	5310.89
643.467	5192.11
643.66	4837.81
643.853	4499.9
644.046	4602.3
644.239	4405.69
644.432	4188.61
644.626	3951.04
644.819	3854.79
645.012	3789.25
645.205	3631.56
645.398	3606.98
645.591	3320.27
645.784	3133.9
645.977	2912.72
646.17	3011.03
646.363	2781.65
646.556	2671.06
646.749	2513.37
646.942	2566.62
647.135	2499.03
647.328	2169.31
647.521	2179.55
647.714	2253.28
647.907	2007.52
648.099	1927.65
648.292	2118.11
648.485	1890.79
648.678	1765.86
648.871	1772
649.064	1702.37
649.256	1593.83
649.449	1493.48
649.642	1491.43
649.835	1401.32
650.027	1403.37
650.22	1311.21
650.413	1276.4
650.605	1341.93
650.798	1233.39
650.991	1188.33
651.183	1034.74
651.376	1124.85
651.568	1128.94
651.761	997.87
651.954	973.3
652.146	1026.54
652.339	1036.78
652.531	936.43
652.724	846.32
652.916	754.16
653.109	750.07
653.301	918
653.494	897.52
653.686	776.69
653.879	834.04
654.071	778.74
654.263	688.63
654.456	700.92
654.648	776.69
654.84	662.01
655.033	532.98
655.225	766.45
655.417	485.88
655.61	752.12
655.802	700.92
655.994	694.77
656.186	432.63
656.379	674.29
656.571	455.16
656.763	408.06
656.955	440.83
657.148	475.64
657.34	520.7
657.532	420.35
657.724	354.81
657.916	481.78
658.108	592.37
658.3	502.26
658.492	463.35
658.684	328.19
658.876	451.07
659.068	358.91
659.26	287.23
659.452	287.23
659.644	352.76
659.836	465.4
660.028	363
660.22	385.53
660.412	375.29
660.604	229.88
660.796	381.43
660.988	342.52
661.18	264.7
661.372	322.04
661.563	326.14
661.755	313.85
661.947	154.11
662.139	270.84
662.331	268.8
662.522	256.51
662.714	260.6
662.906	256.51
663.097	262.65
663.289	164.35
663.481	135.68
663.673	154.11
663.864	326.14
664.056	270.84
664.247	279.04
664.439	295.42
664.631	262.65
664.822	260.6
665.014	270.84
665.205	174.59
665.397	223.74
665.588	246.27
665.78	145.92
665.971	279.04
666.163	176.64
666.354	287.23
666.546	113.15
666.737	166.4
666.929	254.46
667.12	229.88
667.311	248.32
667.503	168.45
667.694	219.64
667.885	264.7
668.077	272.89
668.268	80.38
668.459	205.31
668.651	256.51
668.842	184.83
669.033	96.77
669.224	80.38
669.416	403.96
669.607	121.34
669.798	117.25
669.989	371.19
670.18	172.54
670.371	199.16
670.563	127.49
670.754	270.84
670.945	268.8
671.136	225.79
671.327	104.96
671.518	221.69
671.709	320
671.9	229.88
672.091	281.08
672.282	154.11
672.473	172.54
672.664	55.81
672.855	121.34
673.046	238.08
673.237	291.32
673.428	215.55
673.619	299.52
673.809	76.29
674	238.08
674.191	207.36
674.382	217.6
674.573	113.15
674.764	203.26
674.954	240.12
675.145	127.49
675.336	111.1
675.527	121.34
675.717	127.49
675.908	156.16
676.099	86.53
676.289	213.5
676.48	129.53
676.671	129.53
676.861	94.72
677.052	145.92
677.243	162.3
677.433	158.21
677.624	193.02
677.814	199.16
678.005	190.97
678.195	289.28
678.386	168.45
678.576	133.63
678.767	90.62
678.957	266.75
679.148	287.23
679.338	317.95
679.529	141.82
679.719	195.07
679.909	272.89
680.1	285.18
680.29	270.84
680.481	156.16
680.671	203.26
680.861	203.26
681.052	178.69
681.242	53.76
681.432	287.23
681.622	205.31
681.813	127.49
682.003	209.4
682.193	199.16
682.383	174.59
682.573	152.06
682.764	256.51
682.954	281.08
683.144	270.84
683.334	233.98
683.524	217.6
683.714	260.6
683.904	221.69
684.094	160.25
684.284	201.21
684.474	330.23
684.664	227.84
684.854	256.51
685.044	262.65
685.234	170.49
685.424	150.01
685.614	156.16
685.804	381.43
685.994	256.51
686.184	211.45
686.374	190.97
686.564	297.47
686.753	209.4
686.943	145.92
687.133	162.3
687.323	250.36
687.513	274.94
687.702	262.65
687.892	260.6
688.082	363
688.272	260.6
688.461	242.17
688.651	340.47
688.841	266.75
689.03	250.36
689.22	248.32
689.41	207.36
689.599	186.88
689.789	213.5
689.979	338.43
690.168	260.6
690.358	270.84
690.547	266.75
690.737	246.27
690.926	270.84
691.116	231.93
691.305	246.27
691.495	238.08
691.684	168.45
691.874	240.12
692.063	199.16
692.252	285.18
692.442	354.81
692.631	240.12
692.82	190.97
693.01	256.51
693.199	229.88
693.388	299.52
693.578	336.38
693.767	262.65
693.956	238.08
694.146	172.54
694.335	315.9
694.524	213.5
694.713	311.8
694.902	236.03
695.092	207.36
695.281	262.65
695.47	195.07
695.659	258.56
695.848	207.36
696.037	217.6
696.226	272.89
696.415	236.03
696.604	293.37
696.793	367.1
696.982	258.56
697.171	367.1
697.36	172.54
697.549	190.97
697.738	172.54
697.927	256.51
698.116	186.88
698.305	297.47
698.494	272.89
698.683	221.69
698.872	381.43
699.061	252.41
699.25	258.56
699.438	238.08
699.627	330.23
699.816	287.23
700.005	156.16
700.193	221.69
700.382	287.23
700.571	291.32
700.76	254.46
700.948	365.05
701.137	350.71
701.326	272.89
701.514	221.69
701.703	305.66
701.892	285.18
702.08	387.58
702.269	274.94
702.457	242.17
702.646	274.94
702.834	172.54
703.023	209.4
703.212	369.15
703.4	264.7
703.589	176.64
703.777	184.83
703.965	162.3
704.154	236.03
704.342	158.21
704.531	227.84
704.719	303.61
704.907	281.08
705.096	168.45
705.284	156.16
705.472	219.64
705.661	252.41
705.849	246.27
706.037	330.23
706.226	272.89
706.414	225.79
706.602	178.69
706.79	240.12
706.979	158.21
707.167	254.46
707.355	156.16
707.543	215.55
707.731	291.32
707.919	276.99
708.107	195.07
708.296	186.88
708.484	215.55
708.672	266.75
708.86	299.52
709.048	289.28
709.236	209.4
709.424	227.84
709.612	307.71
709.8	147.97
709.988	211.45
710.176	303.61
710.364	360.95
710.551	209.4
710.739	252.41
710.927	219.64
711.115	205.31
711.303	332.28
711.491	406.01
711.679	242.17
711.866	332.28
712.054	213.5
712.242	264.7
712.43	371.19
712.617	166.4
712.805	350.71
712.993	244.22
713.181	174.59
713.368	299.52
713.556	324.09
713.744	244.22
713.931	395.77
714.119	328.19
714.306	248.32
714.494	229.88
714.682	233.98
714.869	172.54
715.057	303.61
715.244	154.11
715.432	236.03
715.619	213.5
715.807	201.21
715.994	236.03
716.182	266.75
716.369	311.8
716.556	297.47
716.744	217.6
716.931	205.31
717.119	190.97
717.306	233.98
717.493	301.56
717.681	205.31
717.868	283.13
718.055	264.7
718.242	276.99
718.43	211.45
718.617	338.43
718.804	238.08
718.991	352.76
719.179	326.14
719.366	348.67
719.553	276.99
719.74	276.99
719.927	221.69
720.114	330.23
720.301	170.49
720.488	197.12
720.676	215.55
720.863	436.73
721.05	387.58
721.237	317.95
721.424	367.1
721.611	295.42
721.798	285.18
721.985	328.19
722.172	295.42
722.358	264.7
722.545	393.72
722.732	356.86
722.919	383.48
723.106	365.05
723.293	274.94
723.48	311.8
723.667	211.45
723.853	324.09
724.04	326.14
724.227	363
724.414	231.93
724.6	350.71
724.787	434.68
724.974	453.11
725.161	293.37
725.347	303.61
725.534	283.13
725.72	342.52
725.907	430.59
726.094	373.24
726.28	322.04
726.467	326.14
726.653	227.84
726.84	379.39
727.027	453.11
727.213	272.89
727.4	279.04
727.586	330.23
727.773	262.65
727.959	350.71
728.145	315.9
728.332	320
728.518	326.14
728.705	373.24
728.891	305.66
729.077	428.54
729.264	260.6
729.45	229.88
729.636	373.24
729.823	309.76
730.009	416.25
730.195	301.56
730.382	301.56
730.568	295.42
730.754	369.15
730.94	334.33
731.126	295.42
731.313	315.9
731.499	266.75
731.685	420.35
731.871	328.19
732.057	342.52
732.243	369.15
732.429	272.89
732.615	483.83
732.801	410.11
732.987	383.48
733.173	418.3
733.359	227.84
733.545	369.15
733.731	248.32
733.917	320
734.103	348.67
734.289	373.24
734.475	266.75
734.661	557.56
734.847	291.32
735.033	346.62
735.219	365.05
735.404	305.66
735.59	346.62
735.776	410.11
735.962	307.71
736.148	434.68
736.333	473.59
736.519	299.52
736.705	291.32
736.89	311.8
737.076	418.3
737.262	283.13
737.447	346.62
737.633	256.51
737.819	436.73
738.004	346.62
738.19	330.23
738.375	432.63
738.561	442.87
738.747	477.69
738.932	352.76
739.118	479.74
739.303	373.24
739.489	401.91
739.674	317.95
739.859	207.36
740.045	354.81
740.23	270.84
740.416	205.31
740.601	287.23
740.786	324.09
740.972	281.08
741.157	305.66
741.342	324.09
741.528	221.69
741.713	481.78
741.898	305.66
742.084	320
742.269	412.15
742.454	393.72
742.639	422.39
742.824	324.09
743.01	481.78
743.195	436.73
743.38	385.53
743.565	307.71
743.75	293.37
743.935	365.05
744.12	383.48
744.305	254.46
744.49	272.89
744.675	276.99
744.86	272.89
745.045	449.02
745.23	383.48
745.415	315.9
745.6	430.59
745.785	293.37
745.97	401.91
746.155	320
746.34	426.49
746.525	356.86
746.71	408.06
746.895	209.4
747.079	217.6
747.264	324.09
747.449	332.28
747.634	381.43
747.819	385.53
748.003	205.31
748.188	221.69
748.373	403.96
748.557	369.15
748.742	385.53
748.927	332.28
749.111	293.37
749.296	227.84
749.481	363
749.665	311.8
749.85	264.7
750.034	287.23
750.219	303.61
750.404	227.84
750.588	270.84
750.773	246.27
750.957	305.66
751.141	309.76
751.326	293.37
751.51	197.12
751.695	313.85
751.879	344.57
752.064	451.07
752.248	238.08
752.432	281.08
752.617	276.99
752.801	305.66
752.985	182.78
753.17	326.14
753.354	317.95
753.538	311.8
753.722	274.94
753.907	240.12
754.091	209.4
754.275	354.81
754.459	156.16
754.643	133.63
754.828	215.55
755.012	201.21
755.196	170.49
755.38	231.93
755.564	215.55
755.748	205.31
755.932	268.8
756.116	322.04
756.3	330.23
756.484	121.34
756.668	264.7
756.852	109.05
757.036	168.45
757.22	283.13
757.404	203.26
757.588	188.93
757.772	272.89
757.956	156.16
758.14	373.24
758.323	195.07
758.507	246.27
758.691	121.34
758.875	313.85
759.059	270.84
759.242	197.12
759.426	233.98
759.61	197.12
759.794	98.81
759.977	252.41
760.161	342.52
760.345	381.43
760.528	307.71
760.712	225.79
760.895	197.12
761.079	182.78
761.263	186.88
761.446	172.54
761.63	252.41
761.813	254.46
761.997	100.86
762.18	209.4
762.364	176.64
762.547	135.68
762.731	90.62
762.914	197.12
763.098	160.25
763.281	209.4
763.464	141.82
763.648	154.11
763.831	111.1
764.015	135.68
764.198	182.78
764.381	147.97
764.564	182.78
764.748	184.83
764.931	195.07
765.114	188.93
765.297	219.64
765.481	125.44
765.664	100.86
765.847	145.92
766.03	276.99
766.213	82.43
766.397	225.79
766.58	53.76
766.763	168.45
766.946	150.01
767.129	117.25
767.312	59.9
767.495	139.77
767.678	102.91
767.861	121.34
768.044	195.07
768.227	107.01
768.41	96.77
768.593	152.06
768.776	137.73
768.959	166.4
769.142	270.84
769.324	35.33
769.507	119.29
769.69	158.21
769.873	55.81
770.056	336.38
770.239	135.68
770.421	201.21
770.604	188.93
770.787	160.25
770.97	152.06
771.152	131.58
771.335	162.3
771.518	117.25
771.7	246.27
771.883	188.93
772.066	162.3
772.248	143.87
772.431	225.79
772.613	211.45
772.796	66.05
772.978	186.88
773.161	262.65
773.343	111.1
773.526	82.43
773.708	86.53
773.891	98.81
774.073	145.92
774.256	23.04
774.438	250.36
774.621	29.18
774.803	211.45
774.985	96.77
775.168	166.4
775.35	72.19
775.532	205.31
775.715	66.05
775.897	102.91
776.079	80.38
776.261	248.32
776.444	53.76
776.626	68.09
776.808	117.25
776.99	74.24
777.173	135.68
777.355	100.86
777.537	80.38
777.719	88.57
777.901	82.43
778.083	74.24
778.265	29.18
778.447	117.25
778.629	45.57
778.811	152.06
778.993	96.77
779.175	111.1
779.357	100.86
779.539	47.62
779.721	156.16
779.903	160.25
780.085	166.4
780.267	102.91
780.449	170.49
780.631	182.78
780.812	195.07
780.994	86.53
781.176	100.86
781.358	37.38
781.54	92.67
781.721	121.34
781.903	156.16
782.085	82.43
782.267	193.02
782.448	-50.69
782.63	68.09
782.812	213.5
782.993	125.44
783.175	129.53
783.357	113.15
783.538	137.73
783.72	74.24
783.901	51.71
784.083	121.34
784.264	129.53
784.446	37.38
784.627	-26.11
784.809	154.11
784.99	-3.58
785.172	147.97
785.353	47.62
785.535	107.01
785.716	27.14
785.897	-7.68
786.079	-15.87
786.26	74.24
786.441	121.34
786.623	-62.98
786.804	20.99
786.985	133.63
787.167	51.71
787.348	57.86
787.529	64
787.71	227.84
787.891	61.95
788.073	10.75
788.254	-58.88
788.435	190.97
788.616	86.53
788.797	-73.21
788.978	109.05
789.159	96.77
789.34	139.77
789.522	35.33
789.703	39.42
789.884	86.53
790.065	92.67
790.246	217.6
790.427	49.66
790.607	258.56
790.788	127.49
790.969	-30.21
791.15	53.76
791.331	-3.58
791.512	-32.26
791.693	-19.97
791.874	59.9
792.054	219.64
792.235	14.85
792.416	-13.82
792.597	14.85
792.778	51.71
792.958	70.14
793.139	41.47
793.32	0.51
793.5	-11.78
793.681	129.53
793.862	61.95
794.042	86.53
794.223	-15.87
794.404	4.61
794.584	-22.02
794.765	66.05
794.945	29.18
795.126	74.24
795.306	154.11
795.487	-26.11
795.667	23.04
795.848	29.18
796.028	45.57
796.209	90.62
796.389	66.05
796.57	129.53
796.75	-11.78
796.93	25.09
797.111	-32.26
797.291	-1.54
797.471	121.34
797.652	8.7
797.832	-48.64
798.012	152.06
798.192	-34.3
798.373	-44.54
798.553	12.8
798.733	84.48
798.913	8.7
799.093	98.81
799.274	59.9
799.454	94.72
799.634	-1.54
799.814	164.35
799.994	92.67
800.174	35.33
800.354	45.57
800.534	-89.6
800.714	90.62
800.894	39.42
801.074	-24.06
801.254	-19.97
801.434	141.82
801.614	27.14
801.794	6.66
801.974	1821.16
802.154	0.51
802.334	84.48
802.514	-62.98
802.693	-17.92
802.873	18.94
803.053	129.53
803.233	86.53
803.413	100.86
803.592	-60.93
803.772	-38.4
803.952	-9.73
804.131	-44.54
804.311	94.72
804.491	215.55
804.67	68.09
804.85	76.29
805.03	109.05
805.209	72.19
805.389	78.33
805.568	53.76
805.748	47.62
805.928	90.62
806.107	133.63
806.287	129.53
806.466	10.75
806.646	25.09
806.825	29.18
807.004	41.47
807.184	109.05
807.363	131.58
807.543	104.96
807.722	-28.16
807.901	102.91
808.081	82.43
808.26	-89.6
808.439	72.19
808.619	78.33
808.798	16.9
808.977	-36.35
809.156	92.67
809.336	100.86
809.515	158.21
809.694	-48.64
809.873	92.67
810.052	133.63
810.231	225.79
810.411	90.62
810.59	86.53
810.769	96.77
810.948	70.14
811.127	-91.65
811.306	-26.11
811.485	-101.89
811.664	156.16
811.843	35.33
812.022	-26.11
812.201	18.94
812.38	29.18
812.559	14.85
812.737	88.57
812.916	-40.45
813.095	-24.06
813.274	72.19
813.453	-13.82
813.632	64
813.811	107.01
813.989	-52.74
814.168	107.01
814.347	-46.59
814.526	41.47
814.704	139.77
814.883	100.86
815.062	59.9
815.24	12.8
815.419	-58.88
815.598	158.21
815.776	-73.21
815.955	-13.82
816.133	-73.21
816.312	33.28
816.49	-83.45
816.669	53.76
816.847	35.33
817.026	4.61
817.204	41.47
817.383	-7.68
817.561	-112.13
817.74	137.73
817.918	55.81
818.097	-3.58
818.275	18.94
818.453	119.29
818.632	39.42
818.81	37.38
818.988	23.04
819.167	-42.5
819.345	66.05
819.523	-32.26
819.701	94.72
819.879	74.24
820.058	100.86
820.236	-1.54
820.414	-50.69
820.592	-17.92
820.77	-56.83
820.948	-15.87
821.127	-38.4
821.305	45.57
821.483	14.85
821.661	43.52
821.839	-48.64
822.017	-56.83
822.195	-58.88
822.373	186.88
822.551	70.14
822.729	188.93
822.907	-46.59
823.085	74.24
823.262	111.1
823.44	-22.02
823.618	-32.26
823.796	33.28
823.974	-30.21
824.152	-24.06
824.329	-28.16
824.507	14.85
824.685	55.81
824.863	107.01
825.04	55.81
825.218	-34.3
825.396	-15.87
825.574	35.33
825.751	57.86
825.929	49.66
826.107	-65.02
826.284	31.23
826.462	2.56
826.639	-52.74
826.817	-54.78
826.994	2.56
827.172	-36.35
827.349	88.57
827.527	74.24
827.704	86.53
827.882	57.86
828.059	25.09
828.237	-17.92
828.414	37.38
828.591	-101.89
828.769	-5.63
828.946	25.09
829.124	117.25
829.301	125.44
829.478	-3.58
829.655	80.38
829.833	80.38
830.01	-71.17
830.187	39.42
830.364	64
830.542	80.38
830.719	104.96
830.896	-17.92
831.073	47.62
831.25	18.94
831.427	66.05
831.604	92.67
831.782	53.76
831.959	51.71
832.136	18.94
832.313	41.47
832.49	-5.63
832.667	25.09
832.844	-44.54
833.021	80.38
833.198	4.61
833.374	-1.54
833.551	-7.68
833.728	4.61
833.905	49.66
834.082	-110.08
834.259	-38.4
834.436	53.76
834.612	-69.12
834.789	12.8
834.966	35.33
835.143	18.94
835.319	-89.6
835.496	55.81
835.673	-11.78
835.85	49.66
836.026	53.76
836.203	61.95
836.38	25.09
836.556	-1.54
836.733	-85.5
836.909	84.48
837.086	68.09
837.262	-11.78
837.439	-3.58
837.616	-30.21
837.792	33.28
837.968	-42.5
838.145	-142.85
838.321	35.33
838.498	-11.78
838.674	125.44
838.851	-11.78
839.027	-24.06
839.203	-50.69
839.38	33.28
839.556	-62.98
839.732	82.43
839.909	39.42
840.085	98.81
840.261	-28.16
840.437	0.51
840.614	-32.26
840.79	127.49
840.966	82.43
841.142	0.51
841.318	-58.88
841.494	88.57
841.671	25.09
841.847	0.51
842.023	-19.97
842.199	31.23
842.375	123.39
842.551	-79.36
842.727	-44.54
842.903	133.63
843.079	-69.12
843.255	109.05
843.431	29.18
843.607	107.01
843.783	-77.31
843.959	23.04
844.134	-13.82
844.31	76.29
844.486	-26.11
844.662	-42.5
844.838	-13.82
845.013	66.05
845.189	104.96
845.365	72.19
845.541	-56.83
845.716	49.66
845.892	41.47
846.068	0.51
846.244	-34.3
846.419	-9.73
846.595	0.51
846.77	-71.17
846.946	72.19
847.122	-38.4
847.297	-1.54
847.473	102.91
847.648	-58.88
847.824	74.24
847.999	-101.89
848.175	20.99
848.35	41.47
848.526	92.67
848.701	123.39
848.876	84.48
849.052	45.57
849.227	4.61
849.403	37.38
849.578	10.75
849.753	29.18
849.929	111.1
850.104	-120.32
850.279	31.23
850.454	23.04
850.63	92.67
850.805	-30.21
850.98	43.52
851.155	45.57
851.33	8.7
851.505	-52.74
851.681	111.1
851.856	-30.21
852.031	33.28
852.206	90.62
852.381	-67.07
852.556	-69.12
852.731	23.04
852.906	121.34
853.081	27.14
853.256	100.86
853.431	-26.11
853.606	-13.82
853.781	-3.58
853.956	-71.17
854.131	10.75
854.305	-91.65
854.48	-26.11
854.655	-1.54
854.83	-58.88
855.005	-17.92
855.18	-1.54
855.354	10.75
855.529	80.38
855.704	10.75
855.879	53.76
856.053	-36.35
856.228	31.23
856.403	-105.98
856.577	72.19
856.752	-138.75
856.926	-7.68
857.101	47.62
857.276	-110.08
857.45	49.66
857.625	37.38
857.799	12.8
857.974	37.38
858.148	-202.24
858.323	41.47
858.497	16.9
858.672	23.04
858.846	8.7
859.02	68.09
859.195	2.56
859.369	37.38
859.543	94.72
859.718	27.14
859.892	-5.63
860.066	59.9
860.241	-34.3
860.415	-36.35
860.589	35.33
860.763	10.75
860.938	6.66
861.112	29.18
861.286	-134.65
861.46	47.62
861.634	-65.02
861.808	59.9
861.982	-77.31
862.157	-62.98
862.331	-19.97
862.505	-54.78
862.679	-26.11
862.853	72.19
863.027	-3.58
863.201	111.1
863.375	-73.21
863.549	33.28
863.722	74.24
863.896	143.87
864.07	-101.89
864.244	-7.68
864.418	66.05
864.592	61.95
864.766	20.99
864.939	-101.89
865.113	-42.5
865.287	125.44
865.461	-28.16
865.634	64
865.808	10.75
865.982	-34.3
866.156	-3.58
866.329	-42.5
866.503	-19.97
866.676	92.67
866.85	100.86
867.024	-19.97
867.197	53.76
867.371	0.51
867.544	23.04
867.718	-65.02
867.891	98.81
868.065	-44.54
868.238	10.75
868.412	127.49
868.585	49.66
868.759	-24.06
868.932	37.38
869.105	-54.78
869.279	90.62
869.452	-24.06
869.625	117.25
869.799	-42.5
869.972	-103.93
870.145	-38.4
870.319	90.62
870.492	-50.69
870.665	-54.78
870.838	-108.03
871.011	-114.17
871.185	-1.54
871.358	-24.06
871.531	84.48
871.704	-9.73
871.877	68.09
872.05	-26.11
872.223	-42.5
872.396	33.28
872.569	139.77
872.742	-58.88
872.915	102.91
873.088	-24.06
873.261	-79.36
873.434	111.1
873.607	45.57
873.78	129.53
873.953	-73.21
874.126	55.81
874.299	72.19
874.471	-30.21
874.644	23.04
874.817	70.14
874.99	88.57
875.163	-34.3
875.335	-40.45
875.508	-58.88
875.681	164.35
875.853	-36.35
876.026	-91.65
876.199	74.24
876.371	68.09
876.544	-19.97
876.717	-46.59
876.889	-34.3
877.062	49.66
877.234	-19.97
877.407	49.66
877.579	8.7
877.752	57.86
877.924	104.96
878.097	78.33
878.269	12.8
878.442	45.57
878.614	115.2
878.786	18.94
878.959	-28.16
879.131	39.42
879.303	-116.22
879.476	-34.3
879.648	78.33
879.82	-36.35
879.993	-77.31
880.165	6.66
880.337	-97.79
880.509	139.77
880.681	-67.07
880.854	-40.45
881.026	137.73
881.198	207.36
881.37	-22.02
881.542	-38.4
881.714	-15.87
881.886	4.61
882.058	51.71
882.23	-38.4
882.402	-93.69
882.574	14.85
882.746	8.7
882.918	135.68
883.09	145.92
883.262	-62.98
883.434	8.7
883.606	-32.26
883.778	-13.82
883.95	154.11
884.122	43.52
884.293	70.14
884.465	-50.69
884.637	104.96
884.809	70.14
884.98	14.85
885.152	27.14
885.324	14.85
885.496	-83.45
885.667	20.99
885.839	18.94
886.011	143.87
886.182	-40.45
886.354	104.96
886.525	23.04
886.697	68.09
886.869	-56.83
887.04	-34.3
887.212	111.1
887.383	205.31
887.555	-11.78
887.726	-65.02
887.897	10.75
888.069	18.94
888.24	78.33
888.412	33.28
888.583	-42.5
888.754	-56.83
888.926	-140.8
889.097	-26.11
889.268	-110.08
889.44	-52.74
889.611	-50.69
889.782	-62.98
889.953	31.23
890.125	74.24
890.296	-34.3
890.467	-36.35
890.638	-67.07
890.809	10.75
890.98	-5.63
891.151	33.28
891.323	115.2
891.494	-5.63
891.665	6.66
891.836	18.94
892.007	27.14
892.178	59.9
892.349	57.86
892.52	-77.31
892.691	8.7
892.862	6.66
893.032	-48.64
893.203	-114.17
893.374	-28.16
893.545	152.06
893.716	-56.83
893.887	14.85
894.057	-40.45
894.228	-30.21
894.399	-7.68
894.57	80.38
894.74	-7.68
894.911	80.38
895.082	-30.21
895.253	-122.37
895.423	-24.06
895.594	37.38
895.764	29.18
895.935	-1.54
896.106	27.14
896.276	-13.82
896.447	49.66
896.617	-50.69
896.788	-85.5
896.958	-79.36
897.129	0.51
897.299	-22.02
897.47	25.09
897.64	86.53
897.81	-11.78
897.981	-42.5
898.151	-93.69
898.322	20.99
898.492	90.62
898.662	-5.63
898.832	70.14
899.003	-15.87
899.173	-9.73
899.343	-124.41
899.513	-32.26
