Data from USB4F104151__33__09-26-56-911.txt Node

Date: Wed Feb 26 09:26:56 EST 2025
User: louis
Spectrometer: USB4F10415
Trigger mode: 4
Integration Time (sec): 1.000000E-1
Scans to average: 1
Electric dark correction enabled: true
Nonlinearity correction enabled: false
Boxcar width: 0
XAxis mode: Wavelengths
Number of Pixels in Spectrum: 3648
>>>>>Begin Spectral Data<<<<<
178.204	-354.3
178.424	-354.3
178.644	-354.3
178.864	-354.3
179.084	-329.72
179.304	16.38
179.524	-71.68
179.744	-6.14
179.964	73.73
180.184	26.62
180.404	-14.34
180.624	24.58
180.844	-2.05
181.064	-59.39
181.283	34.82
181.503	-36.86
181.723	14.34
181.943	-81.92
182.163	118.78
182.383	4.1
182.602	55.3
182.822	182.27
183.042	38.91
183.262	-26.62
183.482	-38.91
183.701	116.73
183.921	38.91
184.141	-51.2
184.361	155.65
184.58	18.43
184.8	65.54
185.02	30.72
185.239	71.68
185.459	-6.14
185.679	126.97
185.898	-6.14
186.118	90.11
186.338	106.49
186.557	149.5
186.777	51.2
186.997	28.67
187.216	69.63
187.436	169.98
187.655	149.5
187.875	51.2
188.095	26.62
188.314	92.16
188.534	141.31
188.753	-36.86
188.973	114.69
189.192	96.25
189.412	0
189.631	20.48
189.851	67.58
190.07	182.27
190.29	-88.06
190.509	47.1
190.729	55.3
190.948	188.41
191.168	270.33
191.387	63.49
191.607	30.72
191.826	96.25
192.045	51.2
192.265	-34.82
192.484	73.73
192.704	81.92
192.923	-83.97
193.142	223.23
193.362	141.31
193.581	141.31
193.8	79.87
194.02	92.16
194.239	55.3
194.458	120.83
194.678	38.91
194.897	10.24
195.116	55.3
195.335	92.16
195.555	30.72
195.774	16.38
195.993	59.39
196.212	18.43
196.432	16.38
196.651	47.1
196.87	36.86
197.089	237.56
197.308	124.93
197.528	49.15
197.747	-18.43
197.966	100.35
198.185	112.64
198.404	-65.53
198.623	-6.14
198.842	167.93
199.062	124.93
199.281	116.73
199.5	18.43
199.719	57.34
199.938	116.73
200.157	112.64
200.376	32.77
200.595	169.98
200.814	83.97
201.033	-6.14
201.252	112.64
201.471	55.3
201.69	34.82
201.909	98.3
202.128	184.32
202.347	90.11
202.566	67.58
202.785	10.24
203.004	-26.62
203.223	178.17
203.442	26.62
203.661	-36.86
203.879	-71.68
204.098	108.54
204.317	-20.48
204.536	102.4
204.755	92.16
204.974	108.54
205.193	59.39
205.411	190.46
205.63	139.26
205.849	137.21
206.068	47.1
206.287	-16.38
206.505	34.82
206.724	59.39
206.943	67.58
207.162	26.62
207.381	122.88
207.599	-47.1
207.818	28.67
208.037	38.91
208.255	-32.77
208.474	18.43
208.693	43.01
208.911	20.48
209.13	18.43
209.349	149.5
209.567	155.65
209.786	59.39
210.005	98.3
210.223	26.62
210.442	-49.15
210.661	51.2
210.879	86.01
211.098	38.91
211.316	-6.14
211.535	106.49
211.753	73.73
211.972	92.16
212.191	-14.34
212.409	34.82
212.628	118.78
212.846	-71.68
213.065	2.05
213.283	118.78
213.502	-49.15
213.72	8.19
213.938	38.91
214.157	26.62
214.375	120.83
214.594	4.1
214.812	67.58
215.031	-12.29
215.249	14.34
215.467	88.06
215.686	-40.96
215.904	100.35
216.122	98.3
216.341	100.35
216.559	122.88
216.778	122.88
216.996	40.96
217.214	-16.38
217.432	47.1
217.651	-40.96
217.869	92.16
218.087	-10.24
218.306	20.48
218.524	16.38
218.742	49.15
218.96	120.83
219.179	47.1
219.397	47.1
219.615	182.27
219.833	20.48
220.051	-8.19
220.27	59.39
220.488	165.89
220.706	14.34
220.924	40.96
221.142	18.43
221.36	22.53
221.578	32.77
221.796	26.62
222.015	90.11
222.233	14.34
222.451	124.93
222.669	18.43
222.887	81.92
223.105	-32.77
223.323	49.15
223.541	0
223.759	6.14
223.977	43.01
224.195	182.27
224.413	139.26
224.631	57.34
224.849	30.72
225.067	247.8
225.285	26.62
225.503	-8.19
225.721	-108.54
225.939	153.6
226.157	34.82
226.375	223.23
226.592	-22.53
226.81	4.1
227.028	118.78
227.246	126.97
227.464	16.38
227.682	108.54
227.9	2.05
228.117	57.34
228.335	28.67
228.553	49.15
228.771	120.83
228.989	110.59
229.206	-47.1
229.424	55.3
229.642	34.82
229.86	18.43
230.077	196.61
230.295	57.34
230.513	120.83
230.731	63.49
230.948	249.85
231.166	69.63
231.384	6.14
231.601	20.48
231.819	122.88
232.037	-49.15
232.254	34.82
232.472	-18.43
232.689	18.43
232.907	75.77
233.125	22.53
233.342	45.06
233.56	-32.77
233.777	28.67
233.995	69.63
234.213	141.31
234.43	51.2
234.648	86.01
234.865	-59.39
235.083	106.49
235.3	36.86
235.518	176.13
235.735	153.6
235.953	75.77
236.17	8.19
236.388	83.97
236.605	-12.29
236.822	194.56
237.04	106.49
237.257	86.01
237.475	8.19
237.692	67.58
237.909	108.54
238.127	-24.58
238.344	75.77
238.562	14.34
238.779	-45.06
238.996	-63.49
239.214	59.39
239.431	83.97
239.648	38.91
239.865	59.39
240.083	88.06
240.3	2.05
240.517	18.43
240.735	-28.67
240.952	141.31
241.169	73.73
241.386	32.77
241.603	129.02
241.821	-18.43
242.038	57.34
242.255	81.92
242.472	-100.35
242.689	81.92
242.907	32.77
243.124	110.59
243.341	-22.53
243.558	34.82
243.775	-75.77
243.992	-22.53
244.209	26.62
244.426	180.22
244.643	36.86
244.86	73.73
245.078	34.82
245.295	133.12
245.512	22.53
245.729	-22.53
245.946	55.3
246.163	73.73
246.38	18.43
246.597	61.44
246.814	28.67
247.031	22.53
247.248	34.82
247.464	55.3
247.681	63.49
247.898	57.34
248.115	137.21
248.332	-30.72
248.549	143.36
248.766	98.3
248.983	96.25
249.2	49.15
249.417	75.77
249.633	16.38
249.85	63.49
250.067	8.19
250.284	43.01
250.501	63.49
250.717	141.31
250.934	-79.87
251.151	26.62
251.368	47.1
251.585	92.16
251.801	65.54
252.018	67.58
252.235	83.97
252.451	-88.06
252.668	30.72
252.885	141.31
253.102	69.63
253.318	32.77
253.535	-10.24
253.752	51.2
253.968	24.58
254.185	10.24
254.401	36.86
254.618	104.45
254.835	-32.77
255.051	126.97
255.268	100.35
255.484	108.54
255.701	2.05
255.917	55.3
256.134	-18.43
256.351	-14.34
256.567	43.01
256.784	-18.43
257	-55.3
257.217	100.35
257.433	79.87
257.65	51.2
257.866	71.68
258.082	-16.38
258.299	-38.91
258.515	98.3
258.732	-53.25
258.948	8.19
259.165	30.72
259.381	-55.3
259.597	59.39
259.814	-34.82
260.03	-34.82
260.246	-6.14
260.463	83.97
260.679	77.82
260.895	83.97
261.112	65.54
261.328	-26.62
261.544	34.82
261.761	237.56
261.977	-34.82
262.193	51.2
262.409	104.45
262.626	116.73
262.842	108.54
263.058	-26.62
263.274	51.2
263.49	59.39
263.707	49.15
263.923	34.82
264.139	-40.96
264.355	49.15
264.571	100.35
264.787	43.01
265.004	81.92
265.22	67.58
265.436	18.43
265.652	75.77
265.868	133.12
266.084	-38.91
266.3	65.54
266.516	0
266.732	83.97
266.948	-24.58
267.164	71.68
267.38	135.17
267.596	61.44
267.812	174.08
268.028	59.39
268.244	43.01
268.46	67.58
268.676	-14.34
268.892	43.01
269.108	40.96
269.324	12.29
269.54	0
269.756	133.12
269.972	-36.86
270.188	10.24
270.403	-65.53
270.619	36.86
270.835	43.01
271.051	32.77
271.267	16.38
271.483	14.34
271.698	43.01
271.914	96.25
272.13	28.67
272.346	18.43
272.562	69.63
272.777	157.69
272.993	6.14
273.209	34.82
273.425	116.73
273.64	-8.19
273.856	96.25
274.072	30.72
274.287	2.05
274.503	43.01
274.719	73.73
274.934	43.01
275.15	-79.87
275.366	120.83
275.581	61.44
275.797	34.82
276.012	79.87
276.228	69.63
276.444	51.2
276.659	141.31
276.875	-63.49
277.09	36.86
277.306	-2.05
277.521	139.26
277.737	92.16
277.952	92.16
278.168	59.39
278.383	-59.39
278.599	51.2
278.814	83.97
279.03	22.53
279.245	225.28
279.461	59.39
279.676	47.1
279.892	-12.29
280.107	8.19
280.322	26.62
280.538	47.1
280.753	6.14
280.969	86.01
281.184	51.2
281.399	137.21
281.615	55.3
281.83	28.67
282.045	18.43
282.26	-4.1
282.476	67.58
282.691	51.2
282.906	8.19
283.122	22.53
283.337	43.01
283.552	18.43
283.767	59.39
283.983	94.21
284.198	-16.38
284.413	34.82
284.628	-12.29
284.843	32.77
285.058	96.25
285.274	32.77
285.489	-71.68
285.704	65.54
285.919	-18.43
286.134	51.2
286.349	81.92
286.564	6.14
286.779	108.54
286.995	49.15
287.21	-73.73
287.425	157.69
287.64	10.24
287.855	100.35
288.07	30.72
288.285	200.7
288.5	100.35
288.715	149.5
288.93	24.58
289.145	81.92
289.36	92.16
289.575	63.49
289.79	131.07
290.004	79.87
290.219	63.49
290.434	88.06
290.649	18.43
290.864	43.01
291.079	53.25
291.294	26.62
291.509	88.06
291.724	38.91
291.938	96.25
292.153	98.3
292.368	6.14
292.583	2.05
292.798	14.34
293.012	51.2
293.227	-6.14
293.442	22.53
293.657	55.3
293.871	118.78
294.086	55.3
294.301	118.78
294.516	133.12
294.73	30.72
294.945	-45.06
295.16	2.05
295.374	141.31
295.589	59.39
295.804	55.3
296.018	32.77
296.233	145.41
296.447	26.62
296.662	14.34
296.877	94.21
297.091	69.63
297.306	51.2
297.52	0
297.735	30.72
297.949	32.77
298.164	51.2
298.378	92.16
298.593	-32.77
298.807	-28.67
299.022	75.77
299.236	169.98
299.451	75.77
299.665	2.05
299.88	26.62
300.094	2.05
300.309	6.14
300.523	96.25
300.737	59.39
300.952	20.48
301.166	-6.14
301.381	-28.67
301.595	-18.43
301.809	10.24
302.024	2.05
302.238	32.77
302.452	61.44
302.667	92.16
302.881	153.6
303.095	81.92
303.309	141.31
303.524	-22.53
303.738	53.25
303.952	10.24
304.166	106.49
304.381	-38.91
304.595	149.5
304.809	4.1
305.023	51.2
305.237	79.87
305.452	36.86
305.666	100.35
305.88	133.12
306.094	114.69
306.308	63.49
306.522	106.49
306.736	79.87
306.95	194.56
307.164	-47.1
307.379	18.43
307.593	124.93
307.807	165.89
308.021	112.64
308.235	53.25
308.449	4.1
308.663	20.48
308.877	212.99
309.091	47.1
309.305	100.35
309.519	-63.49
309.733	153.6
309.947	-79.87
310.161	71.68
310.374	96.25
310.588	161.79
310.802	-6.14
311.016	-16.38
311.23	69.63
311.444	-43.01
311.658	-34.82
311.872	153.6
312.085	49.15
312.299	126.97
312.513	108.54
312.727	118.78
312.941	30.72
313.154	49.15
313.368	-14.34
313.582	67.58
313.796	114.69
314.009	6.14
314.223	120.83
314.437	59.39
314.651	67.58
314.864	14.34
315.078	-71.68
315.292	24.58
315.505	-14.34
315.719	83.97
315.933	112.64
316.146	28.67
316.36	-98.3
316.573	129.02
316.787	88.06
317.001	63.49
317.214	30.72
317.428	12.29
317.641	-16.38
317.855	-75.77
318.068	98.3
318.282	143.36
318.495	126.97
318.709	90.11
318.922	88.06
319.136	100.35
319.349	-10.24
319.563	2.05
319.776	143.36
319.99	-110.59
320.203	63.49
320.417	-47.1
320.63	188.41
320.843	79.87
321.057	104.45
321.27	34.82
321.483	83.97
321.697	116.73
321.91	112.64
322.124	45.06
322.337	124.93
322.55	26.62
322.763	22.53
322.977	-6.14
323.19	-59.39
323.403	73.73
323.617	38.91
323.83	186.37
324.043	24.58
324.256	45.06
324.469	-43.01
324.683	157.69
324.896	69.63
325.109	69.63
325.322	-59.39
325.535	131.07
325.748	118.78
325.962	47.1
326.175	90.11
326.388	51.2
326.601	112.64
326.814	40.96
327.027	-10.24
327.24	159.74
327.453	-8.19
327.666	34.82
327.879	165.89
328.092	61.44
328.305	71.68
328.518	24.58
328.731	-38.91
328.944	-24.58
329.157	-14.34
329.37	18.43
329.583	186.37
329.796	212.99
330.009	-96.25
330.222	153.6
330.435	120.83
330.648	75.77
330.861	12.29
331.073	-8.19
331.286	77.82
331.499	81.92
331.712	40.96
331.925	59.39
332.138	0
332.35	149.5
332.563	-83.97
332.776	182.27
332.989	-20.48
333.202	18.43
333.414	49.15
333.627	32.77
333.84	34.82
334.053	139.26
334.265	-75.77
334.478	-24.58
334.691	43.01
334.903	22.53
335.116	14.34
335.329	-36.86
335.541	34.82
335.754	165.89
335.966	73.73
336.179	16.38
336.392	16.38
336.604	79.87
336.817	79.87
337.029	79.87
337.242	67.58
337.454	81.92
337.667	30.72
337.88	133.12
338.092	92.16
338.305	55.3
338.517	59.39
338.729	110.59
338.942	131.07
339.154	4.1
339.367	34.82
339.579	-2.05
339.792	6.14
340.004	83.97
340.217	65.54
340.429	108.54
340.641	-40.96
340.854	14.34
341.066	18.43
341.278	116.73
341.491	178.17
341.703	14.34
341.915	-12.29
342.128	106.49
342.34	139.26
342.552	-83.97
342.764	2.05
342.977	-6.14
343.189	47.1
343.401	53.25
343.613	10.24
343.826	77.82
344.038	32.77
344.25	92.16
344.462	36.86
344.674	126.97
344.886	-26.62
345.099	47.1
345.311	63.49
345.523	86.01
345.735	-24.58
345.947	108.54
346.159	49.15
346.371	10.24
346.583	10.24
346.795	227.32
347.007	10.24
347.219	86.01
347.431	83.97
347.643	129.02
347.855	38.91
348.067	153.6
348.279	-112.64
348.491	45.06
348.703	55.3
348.915	-34.82
349.127	16.38
349.339	81.92
349.551	-32.77
349.763	108.54
349.975	22.53
350.187	112.64
350.399	139.26
350.61	108.54
350.822	43.01
351.034	57.34
351.246	43.01
351.458	176.13
351.669	100.35
351.881	65.54
352.093	155.65
352.305	133.12
352.517	51.2
352.728	79.87
352.94	118.78
353.152	94.21
353.363	-6.14
353.575	18.43
353.787	108.54
353.999	96.25
354.21	198.65
354.422	104.45
354.633	-2.05
354.845	47.1
355.057	43.01
355.268	40.96
355.48	110.59
355.692	-67.58
355.903	-16.38
356.115	-12.29
356.326	-90.11
356.538	133.12
356.749	90.11
356.961	178.17
357.172	40.96
357.384	51.2
357.595	239.61
357.807	20.48
358.018	71.68
358.23	-38.91
358.441	198.65
358.653	79.87
358.864	40.96
359.075	-22.53
359.287	81.92
359.498	71.68
359.709	159.74
359.921	71.68
360.132	20.48
360.344	-18.43
360.555	-6.14
360.766	112.64
360.977	83.97
361.189	22.53
361.4	106.49
361.611	43.01
361.823	110.59
362.034	45.06
362.245	-2.05
362.456	63.49
362.667	43.01
362.879	12.29
363.09	114.69
363.301	43.01
363.512	90.11
363.723	-47.1
363.935	-47.1
364.146	161.79
364.357	6.14
364.568	114.69
364.779	24.58
364.99	83.97
365.201	18.43
365.412	139.26
365.623	-55.3
365.834	71.68
366.045	51.2
366.256	83.97
366.467	149.5
366.678	4.1
366.889	79.87
367.1	-8.19
367.311	51.2
367.522	63.49
367.733	38.91
367.944	108.54
368.155	26.62
368.366	40.96
368.577	180.22
368.788	100.35
368.999	-10.24
369.209	18.43
369.42	182.27
369.631	194.56
369.842	112.64
370.053	-14.34
370.264	81.92
370.474	36.86
370.685	145.41
370.896	71.68
371.107	108.54
371.317	145.41
371.528	43.01
371.739	59.39
371.95	77.82
372.16	133.12
372.371	-22.53
372.582	34.82
372.792	77.82
373.003	34.82
373.214	69.63
373.424	49.15
373.635	45.06
373.846	159.74
374.056	55.3
374.267	26.62
374.477	112.64
374.688	-47.1
374.898	26.62
375.109	86.01
375.319	157.69
375.53	131.07
375.74	45.06
375.951	-2.05
376.161	4.1
376.372	133.12
376.582	26.62
376.793	88.06
377.003	22.53
377.214	49.15
377.424	81.92
377.635	40.96
377.845	32.77
378.055	133.12
378.266	0
378.476	26.62
378.686	34.82
378.897	34.82
379.107	112.64
379.317	131.07
379.528	0
379.738	75.77
379.948	-6.14
380.158	126.97
380.369	47.1
380.579	88.06
380.789	100.35
380.999	92.16
381.21	88.06
381.42	133.12
381.63	-8.19
381.84	65.54
382.05	104.45
382.261	88.06
382.471	133.12
382.681	47.1
382.891	149.5
383.101	149.5
383.311	-49.15
383.521	18.43
383.731	98.3
383.941	131.07
384.151	26.62
384.361	-4.1
384.571	120.83
384.781	96.25
384.991	151.55
385.201	178.17
385.411	98.3
385.621	40.96
385.831	26.62
386.041	-2.05
386.251	30.72
386.461	139.26
386.671	71.68
386.881	57.34
387.091	36.86
387.301	182.27
387.511	12.29
387.72	49.15
387.93	112.64
388.14	0
388.35	77.82
388.56	135.17
388.769	137.21
388.979	90.11
389.189	-2.05
389.399	36.86
389.609	153.6
389.818	126.97
390.028	75.77
390.238	30.72
390.447	51.2
390.657	47.1
390.867	28.67
391.076	-22.53
391.286	75.77
391.496	24.58
391.705	92.16
391.915	118.78
392.125	126.97
392.334	16.38
392.544	100.35
392.753	-22.53
392.963	6.14
393.172	45.06
393.382	67.58
393.591	147.45
393.801	38.91
394.01	198.65
394.22	100.35
394.429	8.19
394.639	110.59
394.848	-14.34
395.058	51.2
395.267	26.62
395.477	133.12
395.686	34.82
395.895	172.03
396.105	153.6
396.314	67.58
396.524	18.43
396.733	-10.24
396.942	106.49
397.152	141.31
397.361	180.22
397.57	86.01
397.78	43.01
397.989	73.73
398.198	227.32
398.407	51.2
398.617	8.19
398.826	79.87
399.035	14.34
399.244	129.02
399.453	47.1
399.663	57.34
399.872	24.58
400.081	38.91
400.29	83.97
400.499	-6.14
400.708	165.89
400.917	22.53
401.127	49.15
401.336	-2.05
401.545	112.64
401.754	86.01
401.963	59.39
402.172	-8.19
402.381	-71.68
402.59	-65.53
402.799	69.63
403.008	100.35
403.217	34.82
403.426	14.34
403.635	-96.25
403.844	59.39
404.053	126.97
404.262	51.2
404.471	198.65
404.68	24.58
404.888	12.29
405.097	20.48
405.306	55.3
405.515	71.68
405.724	57.34
405.933	149.5
406.142	94.21
406.35	153.6
406.559	34.82
406.768	131.07
406.977	149.5
407.185	100.35
407.394	114.69
407.603	-14.34
407.812	118.78
408.02	153.6
408.229	30.72
408.438	63.49
408.646	-55.3
408.855	43.01
409.064	108.54
409.272	10.24
409.481	94.21
409.69	92.16
409.898	16.38
410.107	83.97
410.315	92.16
410.524	26.62
410.733	40.96
410.941	47.1
411.15	112.64
411.358	77.82
411.567	229.37
411.775	55.3
411.984	0
412.192	149.5
412.401	18.43
412.609	215.04
412.818	110.59
413.026	92.16
413.234	14.34
413.443	45.06
413.651	-18.43
413.86	88.06
414.068	165.89
414.276	178.17
414.485	-6.14
414.693	206.84
414.901	161.79
415.11	104.45
415.318	112.64
415.526	40.96
415.734	110.59
415.943	96.25
416.151	124.93
416.359	59.39
416.567	63.49
416.776	106.49
416.984	120.83
417.192	176.13
417.4	86.01
417.608	108.54
417.817	-43.01
418.025	141.31
418.233	133.12
418.441	16.38
418.649	-36.86
418.857	28.67
419.065	120.83
419.273	6.14
419.481	155.65
419.689	51.2
419.897	71.68
420.105	-8.19
420.313	178.17
420.521	108.54
420.729	169.98
420.937	-34.82
421.145	22.53
421.353	104.45
421.561	147.45
421.769	92.16
421.977	79.87
422.185	135.17
422.393	26.62
422.601	137.21
422.809	65.54
423.017	86.01
423.224	116.73
423.432	24.58
423.64	32.77
423.848	167.93
424.056	67.58
424.263	81.92
424.471	59.39
424.679	204.8
424.887	32.77
425.094	157.69
425.302	100.35
425.51	-38.91
425.718	165.89
425.925	116.73
426.133	-40.96
426.341	202.75
426.548	102.4
426.756	90.11
426.964	124.93
427.171	83.97
427.379	96.25
427.586	22.53
427.794	77.82
428.001	186.37
428.209	92.16
428.417	135.17
428.624	141.31
428.832	153.6
429.039	126.97
429.247	81.92
429.454	69.63
429.662	256
429.869	253.95
430.076	92.16
430.284	192.51
430.491	120.83
430.699	124.93
430.906	243.71
431.114	124.93
431.321	155.65
431.528	110.59
431.736	122.88
431.943	200.7
432.15	190.46
432.358	180.22
432.565	227.32
432.772	96.25
432.979	180.22
433.187	145.41
433.394	169.98
433.601	194.56
433.808	305.15
434.016	251.9
434.223	235.52
434.43	212.99
434.637	251.9
434.844	247.8
435.052	260.09
435.259	296.96
435.466	325.63
435.673	288.76
435.88	286.72
436.087	362.49
436.294	352.25
436.501	329.72
436.708	260.09
436.915	274.43
437.122	411.64
437.329	256
437.537	358.39
437.743	376.83
437.95	497.66
438.157	405.5
438.364	389.11
438.571	487.42
438.778	468.98
438.985	516.09
439.192	518.14
439.399	452.6
439.606	505.85
439.813	583.67
440.02	626.68
440.227	630.77
440.433	649.21
440.64	638.97
440.847	509.94
441.054	606.2
441.261	759.8
441.467	780.28
441.674	632.82
441.881	681.97
442.088	780.28
442.294	731.12
442.501	845.81
442.708	866.29
442.914	851.96
443.121	983.02
443.328	960.5
443.534	1050.61
443.741	950.26
443.948	931.83
444.154	964.59
444.361	1243.12
444.568	1140.72
444.774	1023.98
444.981	1083.38
445.187	1255.4
445.394	1220.59
445.6	1222.64
445.807	1482.73
446.013	1398.76
446.22	1384.43
446.426	1544.17
446.633	1640.42
446.839	1746.92
447.046	1558.5
447.252	1832.93
447.459	1859.56
447.665	1640.42
447.871	1910.75
448.078	1998.82
448.284	1904.61
448.491	2113.5
448.697	2279.39
448.903	2367.45
449.11	2428.89
449.316	2342.88
449.522	2494.43
449.728	2557.91
449.935	2656.22
450.141	2676.7
450.347	3104.72
450.553	2916.31
450.76	3100.62
450.966	3090.38
451.172	3151.82
451.378	3391.44
451.584	3366.86
451.791	3669.96
451.997	3913.67
452.203	3768.26
452.409	4071.36
452.615	4306.88
452.821	4130.75
453.027	4179.9
453.233	4722.62
453.44	4626.36
453.646	5003.19
453.852	5044.15
454.058	5250.99
454.264	5482.41
454.47	5666.73
454.676	5459.88
454.882	6299.55
455.088	6090.66
455.294	6148
455.5	6698.91
455.705	6909.85
455.911	7004.05
456.117	7323.54
456.323	7511.95
456.529	7536.52
456.735	8206.21
456.941	8492.93
457.147	8888.18
457.352	8877.94
457.558	9179
457.764	9713.52
457.97	10002.28
458.176	10442.59
458.381	11003.74
458.587	11128.66
458.793	11745.1
458.999	11892.55
459.204	13072.18
459.41	13672.24
459.616	13377.33
459.821	14145.32
460.027	15011.61
460.233	15517.46
460.438	15478.55
460.644	16451.33
460.85	16660.23
461.055	17041.15
461.261	17895.15
461.466	17819.38
461.672	18056.94
461.878	20209.36
462.083	19984.08
462.289	20510.41
462.494	21110.46
462.7	21331.64
462.905	21714.61
463.111	23621.27
463.316	24592.01
463.522	25044.61
463.727	25654.9
463.932	26834.53
464.138	27672.15
464.343	28646.99
464.549	28706.38
464.754	30805.55
464.959	31819.29
465.165	32341.52
465.37	32220.69
465.575	32075.29
465.781	34393.59
465.986	35302.89
466.191	34840.04
466.397	34979.31
466.602	34434.55
466.807	36113.88
467.012	36527.57
467.218	37201.35
467.423	37463.49
467.628	38657.46
467.833	40398.23
468.038	39507.37
468.244	39198.12
468.449	41000.33
468.654	40404.38
468.859	40293.79
469.064	40342.94
469.269	38878.64
469.474	39607.72
469.679	40775.06
469.885	39386.53
470.09	40078.75
470.295	40316.31
470.5	39282.09
470.705	39589.28
470.91	38178.23
471.115	38188.47
471.32	38786.48
471.525	38262.2
471.73	37264.84
471.935	37006.8
472.139	35827.17
472.344	36040.15
472.549	36007.39
472.754	34956.78
472.959	34491.89
473.164	33369.6
473.369	32783.88
473.574	33285.64
473.778	32704.01
473.983	32405.01
474.188	31938.07
474.393	30361.14
474.598	30158.39
474.802	29720.12
475.007	29328.96
475.212	29011.53
475.417	27641.43
475.621	27534.94
475.826	27211.36
476.031	26525.29
476.235	25960.05
476.44	26062.45
476.645	25482.88
476.849	25321.09
477.054	25269.89
477.259	24157.84
477.463	23778.97
477.668	23469.72
477.872	23455.39
478.077	22927.01
478.282	21935.79
478.486	21925.55
478.691	21589.69
478.895	21671.61
479.1	21362.36
479.304	21239.48
479.509	20608.71
479.713	20907.71
479.918	20541.13
480.122	20022.99
480.326	20057.81
480.531	20154.06
480.735	19695.32
480.94	19511
481.144	20145.87
481.348	19087.07
481.553	19222.23
481.757	18673.38
481.961	18763.49
482.166	19025.63
482.37	18747.11
482.574	18300.65
482.778	18331.37
482.983	18525.93
483.187	18267.88
483.391	17925.87
483.595	17794.8
483.8	17317.62
484.004	17506.04
484.208	17616.63
484.412	17307.38
484.616	16897.79
484.821	17149.69
485.025	16469.76
485.229	16615.17
485.433	16305.93
485.637	16043.79
485.841	15634.19
486.045	15605.52
486.249	15675.15
486.453	15083.29
486.657	15013.66
486.861	14968.6
487.065	14554.91
487.269	14698.27
487.473	14151.46
487.677	14094.12
487.881	13901.61
488.085	13401.91
488.289	13467.44
488.493	13127.48
488.697	13227.83
488.901	13117.24
489.105	12349.25
489.309	12146.5
489.512	12107.59
489.716	11880.27
489.92	11626.32
490.124	11587.41
490.328	11341.65
490.531	11269.97
490.735	11011.93
490.939	10792.8
491.143	10645.34
491.346	10499.94
491.55	10461.02
491.754	10116.97
491.958	9910.12
492.161	9742.19
492.365	9631.6
492.569	9404.27
492.772	9367.41
492.976	9244.53
493.18	9389.94
493.383	9289.59
493.587	9074.55
493.79	9054.07
493.994	8845.18
494.197	8523.65
494.401	8783.74
494.605	8562.56
494.808	8632.19
495.012	8562.56
495.215	8429.44
495.419	8525.69
495.622	8048.52
495.825	8353.66
496.029	8206.21
496.232	8308.61
496.436	8200.07
496.639	8392.58
496.843	8335.23
497.046	8499.07
497.249	8546.17
497.453	8431.49
497.656	8423.3
497.859	8415.1
498.063	8322.94
498.266	8384.38
498.469	8304.51
498.673	8214.4
498.876	8599.42
499.079	8488.83
499.282	8368
499.485	8705.92
499.689	8820.6
499.892	8873.85
500.095	8685.44
500.298	8787.83
500.501	8849.27
500.705	9131.89
500.908	9017.21
501.111	9113.46
501.314	9299.83
501.517	9561.97
501.72	9564.01
501.923	9439.09
502.126	9750.38
502.329	9822.06
502.532	9844.59
502.735	9846.63
502.938	10180.45
503.141	10258.28
503.344	10383.2
503.547	10438.5
503.75	10614.62
503.953	10876.76
504.156	11077.46
504.359	11278.16
504.562	11175.77
504.765	11601.74
504.968	11712.33
505.17	11947.85
505.373	11798.35
505.576	12263.24
505.779	12517.18
505.982	12617.54
506.185	13068.09
506.387	13068.09
506.59	13268.79
506.793	13686.58
506.996	13965.1
507.198	14292.77
507.401	14294.82
507.604	14595.87
507.807	15134.49
508.009	15251.22
508.212	15535.89
508.415	15912.72
508.617	16029.45
508.82	16502.53
509.022	16350.98
509.225	17319.67
509.428	17649.39
509.63	17802.99
509.833	18349.8
510.035	18814.69
510.238	19068.64
510.44	19283.67
510.643	19891.92
510.845	20203.21
511.048	20842.18
511.25	21200.57
511.453	21399.23
511.655	22367.91
511.858	22642.34
512.06	23154.33
512.262	23369.37
512.465	24020.63
512.667	24620.68
512.87	25286.27
513.072	25681.53
513.274	26254.96
513.477	27119.2
513.679	27547.23
513.881	28212.82
514.084	28608.08
514.286	29285.95
514.488	29939.26
514.69	30985.77
514.893	31387.17
515.095	31807
515.297	32988.68
515.499	32970.25
515.701	33768.96
515.904	34799.08
516.106	35227.11
516.308	36181.46
516.51	36707.79
516.712	37363.14
516.914	38223.29
517.116	39212.46
517.318	39572.9
517.52	40082.84
517.722	40887.7
517.925	41661.83
518.127	42380.67
518.329	43611.49
518.531	43681.13
518.733	44625.24
518.935	45133.14
519.136	45776.2
519.338	46347.58
519.54	46923.06
519.742	48248.1
519.944	48608.54
520.146	49759.5
520.348	50015.49
520.55	50568.44
520.752	50797.82
520.954	52198.63
521.155	51838.18
521.357	53019.86
521.559	53374.16
521.761	54590.65
521.963	54488.26
522.164	54860.99
522.366	55395.51
522.568	55866.54
522.77	56472.74
522.971	57027.74
523.173	57158.81
523.375	57703.57
523.576	57359.51
523.778	57476.24
523.98	58545.28
524.181	58387.59
524.383	58530.95
524.584	58821.76
524.786	58936.44
524.988	58735.74
525.189	59358.33
525.391	59387
525.592	59253.88
525.794	59255.93
525.995	59415.67
526.197	59182.2
526.398	58956.92
526.6	59634.8
526.801	58854.53
527.003	59116.67
527.204	58444.93
527.406	58657.92
527.607	58461.32
527.808	58621.06
528.01	57052.31
528.211	57277.59
528.412	57834.64
528.614	56994.97
528.815	56945.82
529.016	56917.15
529.218	55573.68
529.419	55559.34
529.62	54914.23
529.822	54678.72
530.023	53947.59
530.224	53337.3
530.425	53228.76
530.626	52233.44
530.828	51621.1
531.029	52067.56
531.23	50683.13
531.431	50433.28
531.632	50283.78
531.833	49507.6
532.035	49368.33
532.236	48338.21
532.437	47983.91
532.638	47199.54
532.839	47045.94
533.04	46497.08
533.241	45391.18
533.442	45960.51
533.643	44305.76
533.844	44297.56
534.045	43302.25
534.246	42491.26
534.447	42268.03
534.648	41608.58
534.849	41100.68
535.05	40750.48
535.251	40240.54
535.451	39419.3
535.652	38989.23
535.853	38530.48
536.054	37891.52
536.255	37451.2
536.456	36781.52
536.657	36908.49
536.857	36034.01
537.058	35458.53
537.259	35132.9
537.46	34778.61
537.66	34219.51
537.861	33791.48
538.062	33308.16
538.263	32804.36
538.463	32423.44
538.664	32165.4
538.865	32015.9
539.065	31727.13
539.266	30754.35
539.466	30621.23
539.667	29701.69
539.868	30084.66
540.068	29302.34
540.269	29109.83
540.469	28739.15
540.67	28749.39
540.87	27811.42
541.071	27553.37
541.271	27639.39
541.472	27162.21
541.672	27039.33
541.873	26381.93
542.073	25785.97
542.274	26019.44
542.474	25706.1
542.675	25222.78
542.875	25499.26
543.075	24551.05
543.276	24264.33
543.476	24272.53
543.676	23791.25
543.877	23518.87
544.077	23512.73
544.277	23238.3
544.478	22746.79
544.678	22720.17
544.878	22582.95
545.078	22357.67
545.279	21681.85
545.479	21493.43
545.679	21483.19
545.879	20967.1
546.079	21061.31
546.28	20487.88
546.48	20227.79
546.68	20360.91
546.88	20096.72
547.08	19572.44
547.28	19384.02
547.48	19277.53
547.68	19017.44
547.88	18810.59
548.081	18671.33
548.281	18425.57
548.481	17882.86
548.681	17946.35
548.881	17688.31
549.081	17557.24
549.28	17067.77
549.48	16944.89
549.68	16740.1
549.88	16625.41
550.08	15972.11
550.28	15961.87
550.48	15873.81
550.68	15740.69
550.88	15224.6
551.08	15027.99
551.279	14825.25
551.479	14700.32
551.679	14888.73
551.879	14305.06
552.079	14231.33
552.278	13989.67
552.478	13852.46
552.678	13578.03
552.878	13225.78
553.077	12844.86
553.277	12771.13
553.477	12812.09
553.676	12652.35
553.876	12359.49
554.076	12019.53
554.275	12001.1
554.475	11626.32
554.674	11683.66
554.874	11462.48
555.074	10979.16
555.273	10944.34
555.473	10903.39
555.672	10905.43
555.872	10540.9
556.071	10481.5
556.271	10409.83
556.47	9971.56
556.67	9908.07
556.869	9598.83
557.068	9609.07
557.268	9346.93
557.467	9293.68
557.667	9062.26
557.866	9099.13
558.065	8810.36
558.265	8712.06
558.464	8642.43
558.663	8480.64
558.863	8138.63
559.062	8136.58
559.261	8023.94
559.461	8001.41
559.66	7755.66
559.859	7626.64
560.058	7405.45
560.258	7243.67
560.457	7210.9
560.656	7264.15
560.855	6803.35
561.054	7063.44
561.253	7051.16
561.453	6780.82
561.652	6508.44
561.851	6606.75
562.05	6354.85
562.249	6123.43
562.448	6389.66
562.647	6133.67
562.846	6035.36
563.045	6041.51
563.244	5791.66
563.443	5910.44
563.642	5605.29
563.841	5744.55
564.04	5472.17
564.239	5564.33
564.438	5375.92
564.637	5150.64
564.836	5189.55
565.035	5031.86
565.234	4927.41
565.432	4925.36
565.631	5038
565.83	4882.36
566.029	4945.84
566.228	4589.5
566.427	4771.77
566.625	4530.11
566.824	4483
567.023	4394.94
567.222	4351.93
567.42	4261.82
567.619	4300.73
567.818	4177.86
568.016	4380.61
568.215	4077.51
568.414	4102.08
568.612	3901.38
568.811	3811.27
569.01	3819.46
569.208	3815.37
569.407	3686.34
569.605	3669.96
569.804	3553.23
570.002	3557.32
570.201	3555.27
570.4	3442.64
570.598	3487.69
570.797	3325.9
570.995	3295.18
571.193	3274.7
571.392	3258.32
571.59	3215.31
571.789	3080.14
571.987	3123.15
572.186	3090.38
572.384	2994.13
572.582	2942.93
572.781	3063.76
572.979	2750.42
573.177	2830.29
573.376	2686.93
573.574	2678.74
573.772	2641.88
573.971	2535.39
574.169	2490.33
574.367	2615.26
574.565	2467.8
574.763	2523.1
574.962	2426.84
575.16	2389.98
575.358	2340.83
575.556	2312.16
575.754	2240.48
575.952	2213.85
576.151	2179.04
576.349	2258.91
576.547	2215.9
576.745	2197.47
576.943	2154.46
577.141	2146.27
577.339	1988.58
577.537	1923.04
577.735	2019.3
577.933	1877.99
578.131	1839.08
578.329	1914.85
578.527	1859.56
578.725	1865.7
578.923	1748.97
579.121	1767.4
579.319	1634.28
579.516	1615.85
579.714	1882.08
579.912	1638.38
580.11	1589.22
580.308	1474.54
580.506	1546.22
580.704	1394.67
580.901	1449.96
581.099	1525.74
581.297	1378.28
581.495	1435.63
581.692	1390.57
581.89	1576.94
582.088	1396.71
582.285	1425.39
582.483	1380.33
582.681	1247.21
582.878	1320.94
583.076	1173.49
583.274	1349.61
583.471	1470.44
583.669	1122.29
583.866	1165.29
584.064	1198.06
584.262	1050.61
584.459	1136.62
584.657	1148.91
584.854	1185.77
585.052	1075.18
585.249	1236.97
585.447	1071.09
585.644	995.31
585.841	1091.57
586.039	1099.76
586.236	1103.86
586.434	1007.6
586.631	1026.03
586.828	978.93
587.026	944.11
587.223	860.15
587.42	909.3
587.618	1009.65
587.815	1073.14
588.012	927.73
588.21	825.33
588.407	1083.38
588.604	950.26
588.801	817.14
588.999	837.62
589.196	1017.84
589.393	833.52
589.59	851.96
589.787	831.48
589.984	849.91
590.182	909.3
590.379	778.23
590.576	804.85
590.773	841.72
590.97	858.1
591.167	792.56
591.364	870.39
591.561	747.51
591.758	829.43
591.955	813.04
592.152	694.26
592.349	800.76
592.546	751.6
592.743	792.56
592.94	763.89
593.137	800.76
593.334	866.29
593.531	909.3
593.727	813.04
593.924	868.34
594.121	821.24
594.318	739.32
594.515	851.96
594.712	849.91
594.908	970.74
595.105	753.65
595.302	860.15
595.499	874.48
595.696	968.69
595.892	851.96
596.089	935.92
596.286	776.18
596.482	1107.95
596.679	911.35
596.876	931.83
597.072	1040.37
597.269	1034.22
597.466	1046.51
597.662	985.07
597.859	1019.89
598.055	1048.56
598.252	1187.82
598.448	1165.29
598.645	1222.64
598.841	1386.47
599.038	1316.84
599.234	1411.05
599.431	1480.68
599.627	1398.76
599.824	1501.16
600.02	1540.07
600.217	1509.35
600.413	1544.17
600.609	1695.72
600.806	1902.56
601.002	1789.92
601.198	1785.83
601.395	1990.63
601.591	2054.11
601.787	2017.25
601.984	2260.96
602.18	2133.98
602.376	2316.25
602.572	2435.03
602.769	2555.86
602.965	2525.15
603.161	2801.62
603.357	2791.38
603.553	2707.41
603.75	2942.93
603.946	3026.9
604.142	3176.4
604.338	3340.24
604.534	3385.29
604.73	3461.07
604.926	3516.36
605.122	3747.78
605.318	3661.77
605.514	4001.73
605.71	3987.4
605.906	4157.38
606.102	4306.88
606.298	4585.4
606.494	4454.33
606.69	4822.97
606.886	4835.25
607.082	4999.09
607.278	5197.74
607.474	5339.05
607.67	5431.21
607.866	5476.27
608.062	5851.05
608.257	5865.38
608.453	5805.99
608.649	6285.22
608.845	6313.89
609.041	6399.9
609.236	6678.43
609.432	6920.09
609.628	7108.5
609.824	7339.92
610.019	7251.86
610.215	7397.26
610.411	7841.67
610.606	7987.08
610.802	8019.85
610.998	8302.47
611.193	8800.12
611.389	8718.2
611.584	9207.67
611.78	9023.35
611.976	9578.35
612.171	9885.55
612.367	10180.45
612.562	10479.46
612.758	10694.49
612.953	10702.68
613.149	10983.26
613.344	11425.62
613.539	11962.19
613.735	11730.76
613.93	12543.81
614.126	12658.49
614.321	13115.19
614.517	13442.87
614.712	13596.46
614.907	14036.78
615.103	14305.06
615.298	14567.2
615.493	15163.16
615.688	15091.48
615.884	16051.98
616.079	16353.03
616.274	16660.23
616.47	17291
616.665	17798.9
616.86	17884.91
617.055	18405.1
617.25	18507.49
617.445	19478.23
617.641	19640.02
617.836	20414.15
618.031	20262.6
618.226	21358.27
618.421	21706.42
618.616	22267.56
618.811	22783.65
619.006	23303.84
619.201	23373.47
619.396	24428.17
619.591	24546.95
619.786	25452.16
619.981	25534.07
620.176	26416.75
620.371	26617.45
620.566	27502.17
620.761	27907.67
620.956	28700.23
621.151	28780.1
621.346	29500.99
621.541	29849.14
621.735	31145.51
621.93	31067.69
622.125	31778.33
622.32	32200.21
622.515	33064.46
622.709	33314.31
622.904	34258.42
623.099	34760.17
623.294	35393
623.488	35788.25
623.683	36806.09
623.878	36634.06
624.072	37705.15
624.267	38094.27
624.462	38833.58
624.656	39335.34
624.851	40031.65
625.046	40168.86
625.24	40506.77
625.435	41198.99
625.629	41792.9
625.824	42659.19
626.018	43195.76
626.213	42993.01
626.407	44117.34
626.602	44234.08
626.796	45049.17
626.991	45286.73
627.185	45727.05
627.38	45733.19
627.574	46165.31
627.768	46468.41
627.963	46789.94
628.157	46468.41
628.352	47373.61
628.546	46546.23
628.74	47461.68
628.935	46669.11
629.129	47398.19
629.323	46767.41
629.517	46730.55
629.712	45964.61
629.906	46013.76
630.1	45235.53
630.294	45352.27
630.489	44914
630.683	44662.1
630.877	43617.64
631.071	42734.96
631.265	42761.59
631.459	41670.02
631.653	40643.99
631.848	40021.41
632.042	39163.31
632.236	38548.92
632.43	37205.45
632.624	36486.61
632.818	35028.46
633.012	34219.51
633.206	33003.02
633.4	32245.27
633.594	30770.73
633.788	30127.67
633.982	29005.38
634.176	28223.06
634.369	27074.15
634.563	26113.65
634.757	24897.16
634.951	24196.75
635.145	23246.49
635.339	22380.2
635.533	21550.78
635.726	20664
635.92	19484.37
636.114	19089.12
636.308	18089.71
636.501	17700.59
636.695	17057.53
636.889	15972.11
637.083	15386.39
637.276	14907.16
637.47	14331.69
637.664	13778.73
637.857	13213.49
638.051	12633.92
638.244	11925.32
638.438	11519.82
638.632	11394.9
638.825	10633.05
639.019	10235.75
639.212	9752.43
639.406	9592.69
639.599	9320.31
639.793	8855.42
639.986	8423.3
640.18	8138.63
640.373	7724.94
640.567	7415.69
640.76	7280.53
640.954	6977.43
641.147	6385.57
641.34	6481.82
641.534	6227.87
641.727	5973.92
641.92	5543.85
642.114	5681.07
642.307	5253.04
642.5	5242.8
642.694	4900.79
642.887	4675.51
643.08	4556.73
643.273	4454.33
643.467	4310.97
643.66	4085.7
643.853	3862.47
644.046	3669.96
644.239	3563.47
644.432	3563.47
644.626	3270.61
644.819	3139.54
645.012	3145.68
645.205	3026.9
645.398	2973.65
645.591	2725.85
645.784	2504.67
645.977	2488.28
646.17	2504.67
646.363	2529.24
646.556	2211.81
646.749	2174.94
646.942	2056.16
647.135	2043.87
647.328	1867.75
647.521	1943.52
647.714	1708.01
647.907	1806.31
648.099	1613.8
648.292	1660.9
648.485	1538.02
648.678	1478.63
648.871	1361.9
649.064	1419.24
649.256	1304.56
649.449	1222.64
649.642	1206.25
649.835	1198.06
650.027	1110
650.22	1093.62
650.413	1110
650.605	1089.52
650.798	923.63
650.991	1069.04
651.183	909.3
651.376	950.26
651.568	942.07
651.761	884.72
651.954	919.54
652.146	743.41
652.339	821.24
652.531	831.48
652.724	720.88
652.916	767.99
653.109	612.34
653.301	800.76
653.494	661.49
653.686	659.45
653.879	655.35
654.071	675.83
654.263	581.62
654.456	497.66
654.648	679.93
654.84	536.57
655.033	516.09
655.225	563.19
655.417	448.51
655.61	561.14
655.802	532.47
655.994	548.86
656.186	370.68
656.379	589.82
656.571	405.5
656.763	468.98
656.955	323.58
657.148	337.91
657.34	538.62
657.532	403.45
657.724	264.19
657.916	401.4
658.108	452.6
658.3	370.68
658.492	403.45
658.684	251.9
658.876	360.44
659.068	253.95
659.26	223.23
659.452	245.76
659.644	337.91
659.836	346.11
660.028	319.48
660.22	229.37
660.412	327.68
660.604	196.61
660.796	307.2
660.988	317.44
661.18	251.9
661.372	303.1
661.563	280.57
661.755	268.28
661.947	157.69
662.139	133.12
662.331	204.8
662.522	237.56
662.714	145.41
662.906	186.37
663.097	139.26
663.289	180.22
663.481	73.73
663.673	184.32
663.864	249.85
664.056	237.56
664.247	141.31
664.439	309.24
664.631	219.13
664.822	223.23
665.014	157.69
665.205	163.84
665.397	83.97
665.588	221.18
665.78	198.65
665.971	151.55
666.163	141.31
666.354	202.75
666.546	145.41
666.737	131.07
666.929	43.01
667.12	126.97
667.311	165.89
667.503	155.65
667.694	147.45
667.885	129.02
668.077	161.79
668.268	47.1
668.459	139.26
668.651	182.27
668.842	153.6
669.033	104.45
669.224	30.72
669.416	227.32
669.607	106.49
669.798	71.68
669.989	223.23
670.18	104.45
670.371	124.93
670.563	135.17
670.754	169.98
670.945	104.45
671.136	235.52
671.327	116.73
671.518	243.71
671.709	280.57
671.9	206.84
672.091	165.89
672.282	229.37
672.473	53.25
672.664	110.59
672.855	174.08
673.046	212.99
673.237	235.52
673.428	206.84
673.619	137.21
673.809	98.3
674	303.1
674.191	212.99
674.382	165.89
674.573	133.12
674.764	143.36
674.954	202.75
675.145	131.07
675.336	147.45
675.527	155.65
675.717	174.08
675.908	133.12
676.099	206.84
676.289	204.8
676.48	92.16
676.671	116.73
676.861	63.49
677.052	145.41
677.243	198.65
677.433	147.45
677.624	180.22
677.814	221.18
678.005	100.35
678.195	307.2
678.386	96.25
678.576	225.28
678.767	83.97
678.957	163.84
679.148	208.89
679.338	276.48
679.529	124.93
679.719	172.03
679.909	192.51
680.1	233.47
680.29	210.94
680.481	131.07
680.671	284.67
680.861	151.55
681.052	241.66
681.242	73.73
681.432	190.46
681.622	206.84
681.813	174.08
682.003	157.69
682.193	174.08
682.383	251.9
682.573	149.5
682.764	145.41
682.954	135.17
683.144	225.28
683.334	186.37
683.524	184.32
683.714	227.32
683.904	243.71
684.094	229.37
684.284	151.55
684.474	288.76
684.664	245.76
684.854	256
685.044	278.52
685.234	190.46
685.424	237.56
685.614	184.32
685.804	272.38
685.994	194.56
686.184	161.79
686.374	227.32
686.564	176.13
686.753	204.8
686.943	182.27
687.133	153.6
687.323	172.03
687.513	198.65
687.702	180.22
687.892	212.99
688.082	313.34
688.272	284.67
688.461	221.18
688.651	260.09
688.841	262.14
689.03	112.64
689.22	108.54
689.41	325.63
689.599	243.71
689.789	139.26
689.979	249.85
690.168	145.41
690.358	266.24
690.547	217.08
690.737	221.18
690.926	186.37
691.116	174.08
691.305	282.62
691.495	342.01
691.684	165.89
691.874	231.42
692.063	190.46
692.252	311.29
692.442	239.61
692.631	92.16
692.82	188.41
693.01	169.98
693.199	202.75
693.388	186.37
693.578	180.22
693.767	247.8
693.956	296.96
694.146	215.04
694.335	192.51
694.524	88.06
694.713	243.71
694.902	194.56
695.092	137.21
695.281	245.76
695.47	194.56
695.659	153.6
695.848	223.23
696.037	219.13
696.226	186.37
696.415	194.56
696.604	288.76
696.793	253.95
696.982	159.74
697.171	264.19
697.36	188.41
697.549	202.75
697.738	124.93
697.927	198.65
698.116	124.93
698.305	219.13
698.494	202.75
698.683	147.45
698.872	301.05
699.061	120.83
699.25	178.17
699.438	161.79
699.627	110.59
699.816	282.62
700.005	135.17
700.193	122.88
700.382	161.79
700.571	129.02
700.76	217.08
700.948	202.75
701.137	169.98
701.326	247.8
701.514	129.02
701.703	241.66
701.892	188.41
702.08	411.64
702.269	141.31
702.457	71.68
702.646	186.37
702.834	98.3
703.023	180.22
703.212	210.94
703.4	223.23
703.589	192.51
703.777	165.89
703.965	147.45
704.154	157.69
704.342	100.35
704.531	86.01
704.719	196.61
704.907	210.94
705.096	94.21
705.284	49.15
705.472	212.99
705.661	169.98
705.849	217.08
706.037	155.65
706.226	155.65
706.414	208.89
706.602	86.01
706.79	194.56
706.979	90.11
707.167	137.21
707.355	61.44
707.543	153.6
707.731	225.28
707.919	79.87
708.107	174.08
708.296	114.69
708.484	116.73
708.672	147.45
708.86	143.36
709.048	129.02
709.236	163.84
709.424	231.42
709.612	247.8
709.8	161.79
709.988	137.21
710.176	290.81
710.364	352.25
710.551	163.84
710.739	200.7
710.927	153.6
711.115	237.56
711.303	272.38
711.491	245.76
711.679	69.63
711.866	309.24
712.054	147.45
712.242	184.32
712.43	237.56
712.617	196.61
712.805	235.52
712.993	256
713.181	124.93
713.368	190.46
713.556	108.54
713.744	141.31
713.931	370.68
714.119	221.18
714.306	260.09
714.494	139.26
714.682	241.66
714.869	210.94
715.057	137.21
715.244	73.73
715.432	188.41
715.619	169.98
715.807	253.95
715.994	239.61
716.182	157.69
716.369	174.08
716.556	225.28
716.744	159.74
716.931	133.12
717.119	239.61
717.306	163.84
717.493	153.6
717.681	159.74
717.868	223.23
718.055	223.23
718.242	141.31
718.43	223.23
718.617	204.8
718.804	223.23
718.991	212.99
719.179	202.75
719.366	221.18
719.553	202.75
719.74	253.95
719.927	221.18
720.114	206.84
720.301	133.12
720.488	253.95
720.676	133.12
720.863	321.53
721.05	337.91
721.237	243.71
721.424	223.23
721.611	249.85
721.798	153.6
721.985	266.24
722.172	198.65
722.358	212.99
722.545	321.53
722.732	215.04
722.919	348.15
723.106	219.13
723.293	112.64
723.48	186.37
723.667	225.28
723.853	262.14
724.04	219.13
724.227	210.94
724.414	141.31
724.6	290.81
724.787	231.42
724.974	303.1
725.161	208.89
725.347	198.65
725.534	258.04
725.72	202.75
725.907	280.57
726.094	296.96
726.28	215.04
726.467	174.08
726.653	256
726.84	352.25
727.027	315.39
727.213	212.99
727.4	346.11
727.586	202.75
727.773	210.94
727.959	243.71
728.145	272.38
728.332	280.57
728.518	196.61
728.705	266.24
728.891	253.95
729.077	215.04
729.264	165.89
729.45	165.89
729.636	280.57
729.823	284.67
730.009	182.27
730.195	210.94
730.382	342.01
730.568	286.72
730.754	221.18
730.94	253.95
731.126	256
731.313	280.57
731.499	270.33
731.685	278.52
731.871	296.96
732.057	296.96
732.243	301.05
732.429	200.7
732.615	358.39
732.801	208.89
732.987	178.17
733.173	233.47
733.359	182.27
733.545	303.1
733.731	229.37
733.917	325.63
734.103	319.48
734.289	223.23
734.475	155.65
734.661	382.97
734.847	309.24
735.033	235.52
735.219	313.34
735.404	208.89
735.59	251.9
735.776	299
735.962	333.82
736.148	327.68
736.333	368.63
736.519	247.8
736.705	335.87
736.89	200.7
737.076	319.48
737.262	258.04
737.447	282.62
737.633	223.23
737.819	319.48
738.004	321.53
738.19	288.76
738.375	247.8
738.561	329.72
738.747	299
738.932	231.42
739.118	450.55
739.303	354.3
739.489	206.84
739.674	243.71
739.859	200.7
740.045	348.15
740.23	266.24
740.416	139.26
740.601	344.06
740.786	294.91
740.972	272.38
741.157	210.94
741.342	219.13
741.528	141.31
741.713	274.43
741.898	237.56
742.084	292.86
742.269	294.91
742.454	370.68
742.639	264.19
742.824	264.19
743.01	346.11
743.195	403.45
743.38	223.23
743.565	276.48
743.75	288.76
743.935	235.52
744.12	339.96
744.305	233.47
744.49	292.86
744.675	241.66
744.86	223.23
745.045	321.53
745.23	344.06
745.415	215.04
745.6	321.53
745.785	241.66
745.97	305.15
746.155	317.44
746.34	294.91
746.525	260.09
746.71	296.96
746.895	184.32
747.079	135.17
747.264	180.22
747.449	317.44
747.634	321.53
747.819	323.58
748.003	262.14
748.188	237.56
748.373	278.52
748.557	299
748.742	342.01
748.927	301.05
749.111	237.56
749.296	165.89
749.481	311.29
749.665	286.72
749.85	165.89
750.034	268.28
750.219	253.95
750.404	155.65
750.588	212.99
750.773	141.31
750.957	266.24
751.141	305.15
751.326	370.68
751.51	157.69
751.695	196.61
751.879	258.04
752.064	331.77
752.248	204.8
752.432	262.14
752.617	206.84
752.801	268.28
752.985	186.37
753.17	329.72
753.354	188.41
753.538	206.84
753.722	75.77
753.907	225.28
754.091	112.64
754.275	266.24
754.459	182.27
754.643	139.26
754.828	192.51
755.012	305.15
755.196	182.27
755.38	200.7
755.564	159.74
755.748	147.45
755.932	288.76
756.116	174.08
756.3	260.09
756.484	182.27
756.668	165.89
756.852	36.86
757.036	167.93
757.22	153.6
757.404	114.69
757.588	147.45
757.772	229.37
757.956	104.45
758.14	294.91
758.323	77.82
758.507	260.09
758.691	100.35
758.875	206.84
759.059	305.15
759.242	172.03
759.426	65.54
759.61	180.22
759.794	94.21
759.977	239.61
760.161	378.87
760.345	149.5
760.528	243.71
760.712	217.08
760.895	206.84
761.079	202.75
761.263	61.44
761.446	79.87
761.63	182.27
761.813	163.84
761.997	90.11
762.18	145.41
762.364	165.89
762.547	124.93
762.731	210.94
762.914	141.31
763.098	157.69
763.281	92.16
763.464	112.64
763.648	126.97
763.831	114.69
764.015	110.59
764.198	215.04
764.381	126.97
764.564	108.54
764.748	59.39
764.931	194.56
765.114	169.98
765.297	256
765.481	14.34
765.664	116.73
765.847	100.35
766.03	200.7
766.213	30.72
766.397	118.78
766.58	-43.01
766.763	139.26
766.946	69.63
767.129	151.55
767.312	65.54
767.495	194.56
767.678	40.96
767.861	256
768.044	51.2
768.227	92.16
768.41	65.54
768.593	104.45
768.776	231.42
768.959	96.25
769.142	167.93
769.324	61.44
769.507	131.07
769.69	43.01
769.873	116.73
770.056	274.43
770.239	122.88
770.421	57.34
770.604	98.3
770.787	51.2
770.97	22.53
771.152	47.1
771.335	155.65
771.518	-2.05
771.7	145.41
771.883	221.18
772.066	133.12
772.248	165.89
772.431	165.89
772.613	165.89
772.796	98.3
772.978	53.25
773.161	122.88
773.343	55.3
773.526	38.91
773.708	83.97
773.891	-10.24
774.073	26.62
774.256	53.25
774.438	174.08
774.621	73.73
774.803	79.87
774.985	53.25
775.168	126.97
775.35	143.36
775.532	110.59
775.715	30.72
775.897	157.69
776.079	79.87
776.261	147.45
776.444	90.11
776.626	28.67
776.808	57.34
776.99	-69.63
777.173	124.93
777.355	86.01
777.537	59.39
777.719	143.36
777.901	-6.14
778.083	-6.14
778.265	14.34
778.447	49.15
778.629	-16.38
778.811	88.06
778.993	131.07
779.175	102.4
779.357	96.25
779.539	20.48
779.721	16.38
779.903	151.55
780.085	116.73
780.267	67.58
780.449	28.67
780.631	75.77
780.812	149.5
780.994	63.49
781.176	133.12
781.358	24.58
781.54	24.58
781.721	172.03
781.903	88.06
782.085	28.67
782.267	88.06
782.448	-14.34
782.63	43.01
782.812	92.16
782.993	139.26
783.175	77.82
783.357	34.82
783.538	79.87
783.72	-59.39
783.901	43.01
784.083	102.4
784.264	145.41
784.446	-26.62
784.627	8.19
784.809	96.25
784.99	34.82
785.172	100.35
785.353	90.11
785.535	79.87
785.716	47.1
785.897	28.67
786.079	32.77
786.26	77.82
786.441	81.92
786.623	38.91
786.804	73.73
786.985	43.01
787.167	71.68
787.348	92.16
787.529	30.72
787.71	184.32
787.891	149.5
788.073	55.3
788.254	34.82
788.435	200.7
788.616	92.16
788.797	10.24
788.978	71.68
789.159	53.25
789.34	79.87
789.522	47.1
789.703	96.25
789.884	28.67
790.065	57.34
790.246	182.27
790.427	10.24
790.607	75.77
790.788	114.69
790.969	-10.24
791.15	61.44
791.331	-34.82
791.512	30.72
791.693	-34.82
791.874	20.48
792.054	206.84
792.235	100.35
792.416	24.58
792.597	24.58
792.778	65.54
792.958	2.05
793.139	108.54
793.32	24.58
793.5	26.62
793.681	67.58
793.862	79.87
794.042	-6.14
794.223	-63.49
794.404	10.24
794.584	-18.43
794.765	61.44
794.945	22.53
795.126	116.73
795.306	141.31
795.487	30.72
795.667	10.24
795.848	129.02
796.028	104.45
796.209	47.1
796.389	98.3
796.57	67.58
796.75	-38.91
796.93	67.58
797.111	6.14
797.291	4.1
797.471	8.19
797.652	43.01
797.832	-73.73
798.012	79.87
798.192	-47.1
798.373	-20.48
798.553	36.86
798.733	81.92
798.913	0
799.093	-53.25
799.274	51.2
799.454	90.11
799.634	141.31
799.814	92.16
799.994	145.41
800.174	79.87
800.354	55.3
800.534	-14.34
800.714	47.1
800.894	-30.72
801.074	-26.62
801.254	-4.1
801.434	133.12
801.614	-8.19
801.794	-16.38
801.974	1578.98
802.154	14.34
802.334	114.69
802.514	-47.1
802.693	-22.53
802.873	2.05
803.053	149.5
803.233	106.49
803.413	8.19
803.592	-24.58
803.772	30.72
803.952	38.91
804.131	-28.67
804.311	86.01
804.491	22.53
804.67	-65.53
804.85	-18.43
805.03	34.82
805.209	90.11
805.389	-12.29
805.568	-32.77
805.748	2.05
805.928	-57.34
806.107	108.54
806.287	86.01
806.466	-10.24
806.646	-18.43
806.825	40.96
807.004	-4.1
807.184	18.43
807.363	69.63
807.543	32.77
807.722	65.54
807.901	75.77
808.081	45.06
808.26	-47.1
808.439	120.83
808.619	-6.14
808.798	-43.01
808.977	55.3
809.156	86.01
809.336	28.67
809.515	81.92
809.694	45.06
809.873	53.25
810.052	22.53
810.231	94.21
810.411	16.38
810.59	43.01
810.769	106.49
810.948	129.02
811.127	-32.77
811.306	-38.91
811.485	-2.05
811.664	149.5
811.843	65.54
812.022	63.49
812.201	10.24
812.38	49.15
812.559	26.62
812.737	47.1
812.916	-16.38
813.095	16.38
813.274	30.72
813.453	36.86
813.632	40.96
813.811	104.45
813.989	-79.87
814.168	65.54
814.347	-47.1
814.526	-14.34
814.704	186.37
814.883	149.5
815.062	-32.77
815.24	169.98
815.419	6.14
815.598	73.73
815.776	-65.53
815.955	28.67
816.133	-67.58
816.312	6.14
816.49	-8.19
816.669	-28.67
816.847	30.72
817.026	86.01
817.204	63.49
817.383	51.2
817.561	18.43
817.74	69.63
817.918	30.72
818.097	-30.72
818.275	20.48
818.453	75.77
818.632	67.58
818.81	47.1
818.988	49.15
819.167	-2.05
819.345	26.62
819.523	-36.86
819.701	18.43
819.879	81.92
820.058	8.19
820.236	4.1
820.414	4.1
820.592	-96.25
820.77	-26.62
820.948	-38.91
821.127	4.1
821.305	34.82
821.483	10.24
821.661	92.16
821.839	-22.53
822.017	-57.34
822.195	28.67
822.373	65.54
822.551	24.58
822.729	83.97
822.907	-6.14
823.085	106.49
823.262	59.39
823.44	-55.3
823.618	6.14
823.796	-14.34
823.974	-6.14
824.152	-38.91
824.329	59.39
824.507	100.35
824.685	59.39
824.863	26.62
825.04	-16.38
825.218	26.62
825.396	22.53
825.574	16.38
825.751	49.15
825.929	40.96
826.107	-47.1
826.284	36.86
826.462	81.92
826.639	-49.15
826.817	-104.45
826.994	16.38
827.172	-34.82
827.349	106.49
827.527	20.48
827.704	-38.91
827.882	36.86
828.059	-6.14
828.237	14.34
828.414	51.2
828.591	-65.53
828.769	18.43
828.946	-26.62
829.124	40.96
829.301	47.1
829.478	0
829.655	2.05
829.833	2.05
830.01	-143.36
830.187	28.67
830.364	-30.72
830.542	-6.14
830.719	161.79
830.896	43.01
831.073	-30.72
831.25	40.96
831.427	57.34
831.604	-22.53
831.782	-6.14
831.959	30.72
832.136	10.24
832.313	0
832.49	-14.34
832.667	32.77
832.844	-32.77
833.021	88.06
833.198	-16.38
833.374	36.86
833.551	30.72
833.728	34.82
833.905	53.25
834.082	-63.49
834.259	-6.14
834.436	112.64
834.612	10.24
834.789	141.31
834.966	34.82
835.143	30.72
835.319	-63.49
835.496	34.82
835.673	34.82
835.85	112.64
836.026	79.87
836.203	77.82
836.38	-8.19
836.556	2.05
836.733	-49.15
836.909	38.91
837.086	16.38
837.262	34.82
837.439	2.05
837.616	55.3
837.792	71.68
837.968	49.15
838.145	-43.01
838.321	-18.43
838.498	122.88
838.674	104.45
838.851	26.62
839.027	-22.53
839.203	20.48
839.38	83.97
839.556	55.3
839.732	65.54
839.909	43.01
840.085	-28.67
840.261	18.43
840.437	57.34
840.614	-55.3
840.79	96.25
840.966	0
841.142	38.91
841.318	30.72
841.494	73.73
841.671	73.73
841.847	-81.92
842.023	24.58
842.199	59.39
842.375	149.5
842.551	-45.06
842.727	-28.67
842.903	108.54
843.079	-38.91
843.255	71.68
843.431	40.96
843.607	24.58
843.783	-43.01
843.959	2.05
844.134	-45.06
844.31	145.41
844.486	-10.24
844.662	-45.06
844.838	26.62
845.013	-4.1
845.189	92.16
845.365	-38.91
845.541	28.67
845.716	30.72
845.892	45.06
846.068	10.24
846.244	-116.73
846.419	92.16
846.595	-90.11
846.77	-18.43
846.946	108.54
847.122	-36.86
847.297	-14.34
847.473	63.49
847.648	-67.58
847.824	53.25
847.999	-47.1
848.175	12.29
848.35	53.25
848.526	75.77
848.701	55.3
848.876	71.68
849.052	55.3
849.227	-18.43
849.403	-45.06
849.578	59.39
849.753	47.1
849.929	6.14
850.104	43.01
850.279	-10.24
850.454	-12.29
850.63	73.73
850.805	-57.34
850.98	-63.49
851.155	-26.62
851.33	40.96
851.505	-90.11
851.681	30.72
851.856	-53.25
852.031	43.01
852.206	38.91
852.381	-38.91
852.556	-30.72
852.731	61.44
852.906	10.24
853.081	81.92
853.256	51.2
853.431	79.87
853.606	10.24
853.781	24.58
853.956	-116.73
854.131	-73.73
854.305	14.34
854.48	26.62
854.655	-49.15
854.83	-73.73
855.005	-18.43
855.18	34.82
855.354	-67.58
855.529	-14.34
855.704	-88.06
855.879	63.49
856.053	30.72
856.228	124.93
856.403	-43.01
856.577	10.24
856.752	-16.38
856.926	16.38
857.101	2.05
857.276	-61.44
857.45	83.97
857.625	28.67
857.799	32.77
857.974	-20.48
858.148	-71.68
858.323	22.53
858.497	12.29
858.672	-22.53
858.846	-79.87
859.02	32.77
859.195	-28.67
859.369	-16.38
859.543	90.11
859.718	81.92
859.892	0
860.066	14.34
860.241	-20.48
860.415	-6.14
860.589	34.82
860.763	-20.48
860.938	0
861.112	24.58
861.286	32.77
861.46	24.58
861.634	22.53
861.808	75.77
861.982	-22.53
862.157	-75.77
862.331	-71.68
862.505	-81.92
862.679	-73.73
862.853	-22.53
863.027	18.43
863.201	190.46
863.375	-92.16
863.549	10.24
863.722	-10.24
863.896	51.2
864.07	-98.3
864.244	-49.15
864.418	38.91
864.592	-12.29
864.766	6.14
864.939	47.1
865.113	-2.05
865.287	40.96
865.461	18.43
865.634	6.14
865.808	30.72
865.982	-16.38
866.156	-18.43
866.329	-106.49
866.503	8.19
866.676	30.72
866.85	-18.43
867.024	-24.58
867.197	65.54
867.371	59.39
867.544	26.62
867.718	-59.39
867.891	86.01
868.065	-47.1
868.238	51.2
868.412	73.73
868.585	71.68
868.759	-8.19
868.932	10.24
869.105	24.58
869.279	45.06
869.452	4.1
869.625	116.73
869.799	-90.11
869.972	-83.97
870.145	-30.72
870.319	92.16
870.492	24.58
870.665	-92.16
870.838	-26.62
871.011	-75.77
871.185	-16.38
871.358	-61.44
871.531	75.77
871.704	-14.34
871.877	22.53
872.05	32.77
872.223	-47.1
872.396	49.15
872.569	-8.19
872.742	2.05
872.915	65.54
873.088	-79.87
873.261	-63.49
873.434	6.14
873.607	-18.43
873.78	145.41
873.953	-30.72
874.126	16.38
874.299	47.1
874.471	-30.72
874.644	10.24
874.817	-14.34
874.99	65.54
875.163	-67.58
875.335	75.77
875.508	-102.4
875.681	112.64
875.853	-22.53
876.026	18.43
876.199	124.93
876.371	38.91
876.544	26.62
876.717	10.24
876.889	51.2
877.062	8.19
877.234	-45.06
877.407	2.05
877.579	14.34
877.752	10.24
877.924	4.1
878.097	24.58
878.269	12.29
878.442	51.2
878.614	59.39
878.786	-6.14
878.959	-24.58
879.131	-14.34
879.303	-83.97
879.476	-20.48
879.648	26.62
879.82	69.63
879.993	-59.39
880.165	18.43
880.337	20.48
880.509	-26.62
880.681	14.34
880.854	-38.91
881.026	81.92
881.198	157.69
881.37	18.43
881.542	92.16
881.714	8.19
881.886	24.58
882.058	32.77
882.23	26.62
882.402	-34.82
882.574	-57.34
882.746	112.64
882.918	141.31
883.09	40.96
883.262	-51.2
883.434	0
883.606	-112.64
883.778	-24.58
883.95	126.97
884.122	28.67
884.293	16.38
884.465	49.15
884.637	131.07
884.809	-63.49
884.98	2.05
885.152	-16.38
885.324	86.01
885.496	-51.2
885.667	6.14
885.839	10.24
886.011	81.92
886.182	10.24
886.354	75.77
886.525	10.24
886.697	88.06
886.869	-8.19
887.04	-63.49
887.212	98.3
887.383	67.58
887.555	24.58
887.726	24.58
887.897	-65.53
888.069	32.77
888.24	20.48
888.412	-14.34
888.583	67.58
888.754	6.14
888.926	-55.3
889.097	-6.14
889.268	-22.53
889.44	-6.14
889.611	-69.63
889.782	-86.01
889.953	-59.39
890.125	116.73
890.296	-53.25
890.467	-20.48
890.638	-55.3
890.809	-20.48
890.98	-34.82
891.151	8.19
891.323	141.31
891.494	16.38
891.665	-16.38
891.836	71.68
892.007	-10.24
892.178	24.58
892.349	-26.62
892.52	-34.82
892.691	-38.91
892.862	-57.34
893.032	-10.24
893.203	0
893.374	4.1
893.545	26.62
893.716	-34.82
893.887	71.68
894.057	-22.53
894.228	10.24
894.399	34.82
894.57	81.92
894.74	0
894.911	47.1
895.082	-47.1
895.253	-47.1
895.423	51.2
895.594	143.36
895.764	-32.77
895.935	-67.58
896.106	51.2
896.276	18.43
896.447	36.86
896.617	-24.58
896.788	49.15
896.958	-65.53
897.129	-32.77
897.299	-34.82
897.47	116.73
897.64	108.54
897.81	-6.14
897.981	-14.34
898.151	-86.01
898.322	26.62
898.492	137.21
898.662	-24.58
898.832	-10.24
899.003	-36.86
899.173	79.87
899.343	-51.2
899.513	0
