Data from USB4F104151__99__10-35-33-027.txt Node

Date: Wed Feb 26 10:35:33 EST 2025
User: louis
Spectrometer: USB4F10415
Trigger mode: 4
Integration Time (sec): 1.000000E-1
Scans to average: 1
Electric dark correction enabled: true
Nonlinearity correction enabled: false
Boxcar width: 0
XAxis mode: Wavelengths
Number of Pixels in Spectrum: 3648
>>>>>Begin Spectral Data<<<<<
178.204	-415.4
178.424	-415.4
178.644	-415.4
178.864	-423.59
179.084	-376.48
179.304	-40.62
179.524	-34.47
179.744	26.96
179.964	51.54
180.184	-11.95
180.404	98.64
180.624	-38.57
180.844	2.39
181.064	-67.24
181.283	22.87
181.503	-100.01
181.723	90.45
181.943	-52.91
182.163	194.9
182.383	-16.04
182.602	84.31
182.822	76.12
183.042	88.4
183.262	-36.52
183.482	20.82
183.701	22.87
183.921	20.82
184.141	-54.95
184.361	98.64
184.58	100.69
184.8	2.39
185.02	24.92
185.239	65.88
185.459	86.36
185.679	125.27
185.898	-40.62
186.118	76.12
186.338	-5.8
186.557	90.45
186.777	-20.14
186.997	65.88
187.216	82.26
187.436	246.1
187.655	160.08
187.875	78.16
188.095	-3.75
188.314	121.17
188.534	108.88
188.753	-50.86
188.973	172.37
189.192	74.07
189.412	22.87
189.631	26.96
189.851	102.74
190.07	80.21
190.29	-57
190.509	8.53
190.729	14.68
190.948	115.03
191.168	211.28
191.387	16.73
191.607	22.87
191.826	94.55
192.045	10.58
192.265	63.83
192.484	57.68
192.704	45.4
192.923	-11.95
193.142	104.79
193.362	188.75
193.581	65.88
193.8	57.68
194.02	18.77
194.239	59.73
194.458	88.4
194.678	63.83
194.897	24.92
195.116	37.2
195.335	100.69
195.555	115.03
195.774	-22.19
195.993	74.07
196.212	57.68
196.432	20.82
196.651	-63.15
196.87	117.08
197.089	217.43
197.308	88.4
197.528	37.2
197.747	-16.04
197.966	104.79
198.185	125.27
198.404	2.39
198.623	76.12
198.842	176.47
199.062	80.21
199.281	88.4
199.5	-24.23
199.719	51.54
199.938	186.71
200.157	24.92
200.376	153.94
200.595	145.75
200.814	74.07
201.033	39.25
201.252	143.7
201.471	39.25
201.69	90.45
201.909	65.88
202.128	178.51
202.347	96.6
202.566	55.64
202.785	-59.05
203.004	-32.43
203.223	227.67
203.442	69.97
203.661	-26.28
203.879	24.92
204.098	127.32
204.317	59.73
204.536	12.63
204.755	131.41
204.974	92.5
205.193	-54.95
205.411	98.64
205.63	100.69
205.849	55.64
206.068	43.35
206.287	18.77
206.505	149.84
206.724	53.59
206.943	-57
207.162	-24.23
207.381	184.66
207.599	-26.28
207.818	100.69
208.037	-46.76
208.255	10.58
208.474	166.23
208.693	-52.91
208.911	39.25
209.13	65.88
209.349	110.93
209.567	72.02
209.786	47.44
210.005	98.64
210.223	98.64
210.442	-124.58
210.661	35.16
210.879	43.35
211.098	35.16
211.316	55.64
211.535	67.92
211.753	-7.85
211.972	84.31
212.191	16.73
212.409	-7.85
212.628	112.98
212.846	-34.47
213.065	35.16
213.283	82.26
213.502	69.97
213.72	110.93
213.938	63.83
214.157	82.26
214.375	127.32
214.594	39.25
214.812	76.12
215.031	4.44
215.249	104.79
215.467	33.11
215.686	41.3
215.904	78.16
216.122	55.64
216.341	121.17
216.559	8.53
216.778	72.02
216.996	170.32
217.214	35.16
217.432	6.49
217.651	-71.34
217.869	-18.09
218.087	35.16
218.306	33.11
218.524	-3.75
218.742	43.35
218.96	72.02
219.179	55.64
219.397	8.53
219.615	262.48
219.833	151.89
220.051	37.2
220.27	117.08
220.488	88.4
220.706	92.5
220.924	12.63
221.142	20.82
221.36	61.78
221.578	2.39
221.796	33.11
222.015	63.83
222.233	31.06
222.451	164.18
222.669	-3.75
222.887	90.45
223.105	-11.95
223.323	33.11
223.541	6.49
223.759	90.45
223.977	6.49
224.195	180.56
224.413	100.69
224.631	82.26
224.849	98.64
225.067	186.71
225.285	-67.24
225.503	-7.85
225.721	-30.38
225.939	69.97
226.157	100.69
226.375	250.19
226.592	-18.09
226.81	-18.09
227.028	24.92
227.246	127.32
227.464	51.54
227.682	121.17
227.9	31.06
228.117	78.16
228.335	139.6
228.553	67.92
228.771	-26.28
228.989	61.78
229.206	90.45
229.424	31.06
229.642	-38.57
229.86	-52.91
230.077	168.27
230.295	16.73
230.513	117.08
230.731	72.02
230.948	217.43
231.166	178.51
231.384	84.31
231.601	-11.95
231.819	184.66
232.037	-26.28
232.254	24.92
232.472	18.77
232.689	29.01
232.907	172.37
233.125	6.49
233.342	49.49
233.56	24.92
233.777	18.77
233.995	22.87
234.213	155.99
234.43	125.27
234.648	-48.81
234.865	29.01
235.083	69.97
235.3	33.11
235.518	78.16
235.735	69.97
235.953	39.25
236.17	57.68
236.388	-16.04
236.605	-42.67
236.822	63.83
237.04	155.99
237.257	90.45
237.475	12.63
237.692	59.73
237.909	149.84
238.127	63.83
238.344	149.84
238.562	121.17
238.779	-7.85
238.996	-40.62
239.214	2.39
239.431	51.54
239.648	2.39
239.865	143.7
240.083	76.12
240.3	-16.04
240.517	6.49
240.735	100.69
240.952	135.51
241.169	133.46
241.386	4.44
241.603	43.35
241.821	-52.91
242.038	96.6
242.255	43.35
242.472	-46.76
242.689	63.83
242.907	104.79
243.124	139.6
243.341	16.73
243.558	35.16
243.775	-24.23
243.992	-89.77
244.209	80.21
244.426	192.85
244.643	74.07
244.86	69.97
245.078	45.4
245.295	-9.9
245.512	-32.43
245.729	47.44
245.946	10.58
246.163	-9.9
246.38	51.54
246.597	78.16
246.814	41.3
247.031	65.88
247.248	80.21
247.464	102.74
247.681	55.64
247.898	94.55
248.115	59.73
248.332	0.34
248.549	76.12
248.766	102.74
248.983	65.88
249.2	110.93
249.417	115.03
249.633	-18.09
249.85	149.84
250.067	47.44
250.284	92.5
250.501	180.56
250.717	112.98
250.934	-38.57
251.151	29.01
251.368	22.87
251.585	69.97
251.801	31.06
252.018	-44.71
252.235	133.46
252.451	-65.19
252.668	14.68
252.885	74.07
253.102	53.59
253.318	-7.85
253.535	14.68
253.752	-13.99
253.968	-7.85
254.185	-54.95
254.401	12.63
254.618	-18.09
254.835	-16.04
255.051	168.27
255.268	24.92
255.484	72.02
255.701	35.16
255.917	-16.04
256.134	-20.14
256.351	141.65
256.567	8.53
256.784	-32.43
257	-40.62
257.217	41.3
257.433	49.49
257.65	-36.52
257.866	172.37
258.082	-28.33
258.299	2.39
258.515	2.39
258.732	31.06
258.948	-44.71
259.165	31.06
259.381	-7.85
259.597	57.68
259.814	65.88
260.03	18.77
260.246	26.96
260.463	76.12
260.679	205.14
260.895	45.4
261.112	106.84
261.328	-18.09
261.544	26.96
261.761	117.08
261.977	2.39
262.193	-108.2
262.409	162.13
262.626	102.74
262.842	53.59
263.058	16.73
263.274	104.79
263.49	22.87
263.707	172.37
263.923	125.27
264.139	-91.82
264.355	86.36
264.571	141.65
264.787	51.54
265.004	155.99
265.22	94.55
265.436	-40.62
265.652	24.92
265.868	61.78
266.084	-16.04
266.3	49.49
266.516	86.36
266.732	90.45
266.948	129.36
267.164	35.16
267.38	98.64
267.596	78.16
267.812	207.19
268.028	55.64
268.244	-22.19
268.46	-36.52
268.676	12.63
268.892	35.16
269.108	-61.1
269.324	-75.43
269.54	-9.9
269.756	82.26
269.972	22.87
270.188	-26.28
270.403	4.44
270.619	-18.09
270.835	2.39
271.051	51.54
271.267	18.77
271.483	2.39
271.698	61.78
271.914	49.49
272.13	63.83
272.346	-26.28
272.562	-57
272.777	112.98
272.993	39.25
273.209	14.68
273.425	63.83
273.64	-110.25
273.856	149.84
274.072	-54.95
274.287	-44.71
274.503	14.68
274.719	88.4
274.934	47.44
275.15	-54.95
275.366	59.73
275.581	4.44
275.797	74.07
276.012	117.08
276.228	-13.99
276.444	26.96
276.659	143.7
276.875	-79.53
277.09	-7.85
277.306	-5.8
277.521	49.49
277.737	2.39
277.952	131.41
278.168	84.31
278.383	67.92
278.599	90.45
278.814	82.26
279.03	88.4
279.245	166.23
279.461	49.49
279.676	76.12
279.892	-13.99
280.107	-89.77
280.322	35.16
280.538	-5.8
280.753	-48.81
280.969	24.92
281.184	72.02
281.399	110.93
281.615	-9.9
281.83	92.5
282.045	-9.9
282.26	-50.86
282.476	-11.95
282.691	106.84
282.906	43.35
283.122	-5.8
283.337	-30.38
283.552	31.06
283.767	0.34
283.983	104.79
284.198	69.97
284.413	115.03
284.628	-42.67
284.843	57.68
285.058	65.88
285.274	67.92
285.489	14.68
285.704	139.6
285.919	-69.29
286.134	20.82
286.349	6.49
286.564	-36.52
286.779	176.47
286.995	84.31
287.21	-9.9
287.425	94.55
287.64	18.77
287.855	53.59
288.07	-59.05
288.285	98.64
288.5	203.09
288.715	98.64
288.93	2.39
289.145	12.63
289.36	98.64
289.575	35.16
289.79	108.88
290.004	-38.57
290.219	129.36
290.434	-13.99
290.649	37.2
290.864	-30.38
291.079	6.49
291.294	76.12
291.509	49.49
291.724	-3.75
291.938	39.25
292.153	67.92
292.368	53.59
292.583	-9.9
292.798	149.84
293.012	49.49
293.227	72.02
293.442	-9.9
293.657	123.22
293.871	153.94
294.086	98.64
294.301	137.56
294.516	110.93
294.73	37.2
294.945	14.68
295.16	2.39
295.374	100.69
295.589	53.59
295.804	-65.19
296.018	98.64
296.233	86.36
296.447	127.32
296.662	43.35
296.877	123.22
297.091	65.88
297.306	65.88
297.52	80.21
297.735	80.21
297.949	69.97
298.164	53.59
298.378	43.35
298.593	-40.62
298.807	-7.85
299.022	84.31
299.236	127.32
299.451	72.02
299.665	86.36
299.88	45.4
300.094	20.82
300.309	16.73
300.523	135.51
300.737	-36.52
300.952	151.89
301.166	-9.9
301.381	33.11
301.595	14.68
301.809	39.25
302.024	63.83
302.238	8.53
302.452	84.31
302.667	-63.15
302.881	145.75
303.095	112.98
303.309	78.16
303.524	-22.19
303.738	106.84
303.952	-52.91
304.166	49.49
304.381	-190.12
304.595	108.88
304.809	-18.09
305.023	14.68
305.237	-75.43
305.452	4.44
305.666	74.07
305.88	55.64
306.094	80.21
306.308	153.94
306.522	55.64
306.736	57.68
306.95	102.74
307.164	-40.62
307.379	-3.75
307.593	135.51
307.807	98.64
308.021	74.07
308.235	74.07
308.449	-71.34
308.663	-46.76
308.877	180.56
309.091	-42.67
309.305	67.92
309.519	-165.54
309.733	104.79
309.947	18.77
310.161	41.3
310.374	117.08
310.588	106.84
310.802	-59.05
311.016	-5.8
311.23	41.3
311.444	22.87
311.658	20.82
311.872	115.03
312.085	129.36
312.299	135.51
312.513	112.98
312.727	104.79
312.941	49.49
313.154	92.5
313.368	33.11
313.582	-18.09
313.796	43.35
314.009	35.16
314.223	78.16
314.437	59.73
314.651	110.93
314.864	-16.04
315.078	-24.23
315.292	-40.62
315.505	76.12
315.719	69.97
315.933	141.65
316.146	51.54
316.36	-5.8
316.573	100.69
316.787	-28.33
317.001	22.87
317.214	0.34
317.428	37.2
317.641	-34.47
317.855	-71.34
318.068	86.36
318.282	45.4
318.495	211.28
318.709	80.21
318.922	65.88
319.136	119.12
319.349	47.44
319.563	-13.99
319.776	98.64
319.99	-120.49
320.203	149.84
320.417	26.96
320.63	53.59
320.843	168.27
321.057	51.54
321.27	63.83
321.483	69.97
321.697	223.57
321.91	-30.38
322.124	94.55
322.337	86.36
322.55	59.73
322.763	63.83
322.977	-46.76
323.19	12.63
323.403	63.83
323.617	72.02
323.83	123.22
324.043	2.39
324.256	33.11
324.469	-13.99
324.683	100.69
324.896	-7.85
325.109	-3.75
325.322	-110.25
325.535	92.5
325.748	110.93
325.962	47.44
326.175	106.84
326.388	121.17
326.601	63.83
326.814	-5.8
327.027	51.54
327.24	112.98
327.453	10.58
327.666	115.03
327.879	104.79
328.092	72.02
328.305	143.7
328.518	-59.05
328.731	20.82
328.944	39.25
329.157	98.64
329.37	-16.04
329.583	139.6
329.796	201.04
330.009	0.34
330.222	137.56
330.435	86.36
330.648	125.27
330.861	67.92
331.073	65.88
331.286	69.97
331.499	6.49
331.712	102.74
331.925	29.01
332.138	24.92
332.35	55.64
332.563	-57
332.776	82.26
332.989	-18.09
333.202	-32.43
333.414	88.4
333.627	59.73
333.84	39.25
334.053	72.02
334.265	-81.58
334.478	6.49
334.691	59.73
334.903	35.16
335.116	-36.52
335.329	63.83
335.541	37.2
335.754	237.91
335.966	2.39
336.179	39.25
336.392	51.54
336.604	-1.71
336.817	164.18
337.029	59.73
337.242	84.31
337.454	104.79
337.667	63.83
337.88	174.42
338.092	88.4
338.305	131.41
338.517	22.87
338.729	6.49
338.942	192.85
339.154	-24.23
339.367	86.36
339.579	59.73
339.792	6.49
340.004	76.12
340.217	-1.71
340.429	67.92
340.641	-5.8
340.854	-46.76
341.066	61.78
341.278	123.22
341.491	223.57
341.703	22.87
341.915	37.2
342.128	33.11
342.34	59.73
342.552	-36.52
342.764	49.49
342.977	59.73
343.189	127.32
343.401	92.5
343.613	-93.87
343.826	59.73
344.038	-34.47
344.25	63.83
344.462	22.87
344.674	82.26
344.886	80.21
345.099	51.54
345.311	63.83
345.523	2.39
345.735	-134.82
345.947	47.44
346.159	72.02
346.371	16.73
346.583	65.88
346.795	188.75
347.007	8.53
347.219	153.94
347.431	55.64
347.643	145.75
347.855	33.11
348.067	133.46
348.279	-42.67
348.491	65.88
348.703	69.97
348.915	-11.95
349.127	0.34
349.339	8.53
349.551	45.4
349.763	41.3
349.975	43.35
350.187	63.83
350.399	102.74
350.61	108.88
350.822	-65.19
351.034	51.54
351.246	80.21
351.458	45.4
351.669	86.36
351.881	78.16
352.093	74.07
352.305	135.51
352.517	-20.14
352.728	80.21
352.94	51.54
353.152	57.68
353.363	-65.19
353.575	92.5
353.787	227.67
353.999	49.49
354.21	158.03
354.422	-11.95
354.633	29.01
354.845	-57
355.057	51.54
355.268	10.58
355.48	110.93
355.692	-20.14
355.903	110.93
356.115	-30.38
356.326	-20.14
356.538	168.27
356.749	117.08
356.961	119.12
357.172	45.4
357.384	-44.71
357.595	207.19
357.807	-11.95
358.018	55.64
358.23	88.4
358.441	121.17
358.653	39.25
358.864	22.87
359.075	51.54
359.287	92.5
359.498	119.12
359.709	96.6
359.921	8.53
360.132	-20.14
360.344	-16.04
360.555	10.58
360.766	59.73
360.977	63.83
361.189	139.6
361.4	41.3
361.611	98.64
361.823	121.17
362.034	90.45
362.245	-59.05
362.456	22.87
362.667	76.12
362.879	-71.34
363.09	158.03
363.301	33.11
363.512	12.63
363.723	78.16
363.935	20.82
364.146	63.83
364.357	29.01
364.568	82.26
364.779	-32.43
364.99	127.32
365.201	-59.05
365.412	196.95
365.623	-104.11
365.834	29.01
366.045	37.2
366.256	172.37
366.467	102.74
366.678	37.2
366.889	47.44
367.1	14.68
367.311	69.97
367.522	14.68
367.733	65.88
367.944	78.16
368.155	39.25
368.366	59.73
368.577	115.03
368.788	123.22
368.999	-32.43
369.209	14.68
369.42	211.28
369.631	145.75
369.842	2.39
370.053	-18.09
370.264	110.93
370.474	-13.99
370.685	37.2
370.896	74.07
371.107	106.84
371.317	63.83
371.528	6.49
371.739	108.88
371.95	57.68
372.16	51.54
372.371	6.49
372.582	18.77
372.792	26.96
373.003	18.77
373.214	78.16
373.424	63.83
373.635	33.11
373.846	72.02
374.056	76.12
374.267	31.06
374.477	43.35
374.688	10.58
374.898	125.27
375.109	22.87
375.319	18.77
375.53	74.07
375.74	119.12
375.951	22.87
376.161	33.11
376.372	78.16
376.582	100.69
376.793	94.55
377.003	69.97
377.214	26.96
377.424	98.64
377.635	-20.14
377.845	-36.52
378.055	135.51
378.266	37.2
378.476	63.83
378.686	29.01
378.897	55.64
379.107	141.65
379.317	61.78
379.528	14.68
379.738	117.08
379.948	-22.19
380.158	108.88
380.369	-5.8
380.579	119.12
380.789	-36.52
380.999	88.4
381.21	88.4
381.42	139.6
381.63	26.96
381.84	45.4
382.05	65.88
382.261	133.46
382.471	106.84
382.681	-22.19
382.891	196.95
383.101	47.44
383.311	-46.76
383.521	-59.05
383.731	88.4
383.941	166.23
384.151	100.69
384.361	45.4
384.571	135.51
384.781	43.35
384.991	207.19
385.201	250.19
385.411	112.98
385.621	100.69
385.831	137.56
386.041	129.36
386.251	-32.43
386.461	131.41
386.671	12.63
386.881	121.17
387.091	2.39
387.301	100.69
387.511	-11.95
387.72	63.83
387.93	78.16
388.14	-42.67
388.35	26.96
388.56	96.6
388.769	102.74
388.979	155.99
389.189	43.35
389.399	45.4
389.609	82.26
389.818	69.97
390.028	55.64
390.238	-3.75
390.447	-30.38
390.657	67.92
390.867	108.88
391.076	-112.3
391.286	104.79
391.496	10.58
391.705	133.46
391.915	135.51
392.125	92.5
392.334	-38.57
392.544	110.93
392.753	18.77
392.963	10.58
393.172	76.12
393.382	67.92
393.591	194.9
393.801	12.63
394.01	139.6
394.22	129.36
394.429	151.89
394.639	100.69
394.848	90.45
395.058	0.34
395.267	0.34
395.477	129.36
395.686	29.01
395.895	219.47
396.105	135.51
396.314	76.12
396.524	12.63
396.733	67.92
396.942	139.6
397.152	31.06
397.361	127.32
397.57	16.73
397.78	22.87
397.989	133.46
398.198	194.9
398.407	51.54
398.617	61.78
398.826	78.16
399.035	-42.67
399.244	96.6
399.453	110.93
399.663	24.92
399.872	96.6
400.081	-5.8
400.29	137.56
400.499	20.82
400.708	131.41
400.917	57.68
401.127	12.63
401.336	6.49
401.545	184.66
401.754	180.56
401.963	47.44
402.172	6.49
402.381	-26.28
402.59	90.45
402.799	76.12
403.008	59.73
403.217	98.64
403.426	26.96
403.635	-38.57
403.844	-20.14
404.053	-5.8
404.262	12.63
404.471	168.27
404.68	76.12
404.888	104.79
405.097	57.68
405.306	108.88
405.515	135.51
405.724	-91.82
405.933	94.55
406.142	88.4
406.35	149.84
406.559	59.73
406.768	72.02
406.977	184.66
407.185	41.3
407.394	164.18
407.603	-32.43
407.812	86.36
408.02	100.69
408.229	12.63
408.438	123.22
408.646	-18.09
408.855	92.5
409.064	88.4
409.272	35.16
409.481	110.93
409.69	8.53
409.898	-48.81
410.107	45.4
410.315	147.8
410.524	-34.47
410.733	80.21
410.941	22.87
411.15	92.5
411.358	72.02
411.567	121.17
411.775	35.16
411.984	-30.38
412.192	0.34
412.401	61.78
412.609	211.28
412.818	207.19
413.026	86.36
413.234	35.16
413.443	31.06
413.651	31.06
413.86	-13.99
414.068	69.97
414.276	149.84
414.485	-26.28
414.693	158.03
414.901	166.23
415.11	127.32
415.318	63.83
415.526	37.2
415.734	123.22
415.943	57.68
416.151	147.8
416.359	104.79
416.567	18.77
416.776	92.5
416.984	106.84
417.192	213.33
417.4	84.31
417.608	20.82
417.817	-36.52
418.025	119.12
418.233	145.75
418.441	-30.38
418.649	35.16
418.857	94.55
419.065	168.27
419.273	78.16
419.481	-30.38
419.689	-24.23
419.897	33.11
420.105	-89.77
420.313	100.69
420.521	192.85
420.729	129.36
420.937	45.4
421.145	59.73
421.353	180.56
421.561	217.43
421.769	65.88
421.977	35.16
422.185	82.26
422.393	-11.95
422.601	119.12
422.809	100.69
423.017	184.66
423.224	12.63
423.432	164.18
423.64	49.49
423.848	72.02
424.056	26.96
424.263	131.41
424.471	63.83
424.679	139.6
424.887	14.68
425.094	207.19
425.302	145.75
425.51	4.44
425.718	84.31
425.925	110.93
426.133	55.64
426.341	268.63
426.548	18.77
426.756	92.5
426.964	182.61
427.171	-11.95
427.379	112.98
427.586	61.78
427.794	155.99
428.001	129.36
428.209	82.26
428.417	141.65
428.624	86.36
428.832	88.4
429.039	45.4
429.247	117.08
429.454	119.12
429.662	158.03
429.869	143.7
430.076	102.74
430.284	170.32
430.491	184.66
430.699	188.75
430.906	242
431.114	121.17
431.321	123.22
431.528	92.5
431.736	178.51
431.943	168.27
432.15	80.21
432.358	174.42
432.565	237.91
432.772	-18.09
432.979	176.47
433.187	158.03
433.394	172.37
433.601	96.6
433.808	239.95
434.016	176.47
434.223	117.08
434.43	246.1
434.637	196.95
434.844	229.71
435.052	215.38
435.259	270.67
435.466	293.2
435.673	254.29
435.88	360.78
436.087	291.15
436.294	303.44
436.501	295.25
436.708	278.87
436.915	235.86
437.122	328.02
437.329	231.76
437.537	301.39
437.743	305.49
437.95	459.09
438.157	399.7
438.364	289.1
438.571	340.3
438.778	428.37
438.985	420.17
439.192	397.65
439.399	407.89
439.606	395.6
439.813	469.33
440.02	663.88
440.227	577.87
440.433	538.96
440.64	498
440.847	465.23
441.054	571.72
441.261	756.04
441.467	608.59
441.674	622.92
441.881	690.51
442.088	610.64
442.294	760.14
442.501	762.19
442.708	774.47
442.914	768.33
443.121	813.38
443.328	885.06
443.534	889.16
443.741	880.97
443.948	883.02
444.154	919.88
444.361	1053
444.568	966.98
444.774	1007.94
444.981	969.03
445.187	1110.34
445.394	1034.57
445.6	1091.91
445.807	1325.38
446.013	1294.66
446.22	1311.04
446.426	1259.84
446.633	1513.79
446.839	1599.8
447.046	1433.92
447.252	1620.28
447.459	1608
447.665	1634.62
447.871	1831.23
448.078	1892.66
448.284	1857.85
448.491	1880.38
448.697	2101.56
448.903	2085.17
449.11	2081.08
449.316	2068.79
449.522	2289.97
449.728	2388.27
449.935	2480.43
450.141	2449.71
450.347	2642.22
450.553	2697.52
450.76	2769.2
450.966	2926.89
451.172	2973.99
451.378	3027.24
451.584	3285.28
451.791	3475.74
451.997	3404.07
452.203	3479.84
452.409	3660.06
452.615	3862.81
452.821	3707.16
453.027	3805.47
453.233	4421.91
453.44	4034.84
453.646	4301.08
453.852	4466.96
454.058	4610.32
454.264	4800.78
454.47	5314.82
454.676	5101.83
454.882	5540.1
455.088	5419.27
455.294	5708.03
455.5	6101.24
455.705	6371.57
455.911	6242.55
456.117	6494.45
456.323	6815.98
456.529	6779.12
456.735	7338.21
456.941	7799.01
457.147	8026.33
457.352	8063.19
457.558	8313.05
457.764	8927.44
457.97	9134.28
458.176	9509.06
458.381	9853.12
458.587	10031.29
458.793	10649.78
458.999	10672.31
459.204	12107.93
459.41	12564.63
459.616	11915.42
459.821	12722.32
460.027	13441.16
460.233	13904
460.438	13881.47
460.644	14841.97
460.85	15054.96
461.055	15351.92
461.261	16377.95
461.466	15839.33
461.672	16177.25
461.878	18126.91
462.083	18305.09
462.289	18364.48
462.494	19415.09
462.7	19333.17
462.905	19531.82
463.111	21184.53
463.316	21960.71
463.522	22345.73
463.727	23171.06
463.932	24502.24
464.138	24965.08
464.343	26091.46
464.549	25888.71
464.754	28114.86
464.959	28604.32
465.165	29298.58
465.37	29089.69
465.575	29214.62
465.781	31350.65
465.986	31874.93
466.191	31301.5
466.397	31719.28
466.602	30863.23
466.807	32720.74
467.012	33306.46
467.218	33740.63
467.423	34129.74
467.628	34684.74
467.833	36499.24
468.038	35729.2
468.244	34983.74
468.449	36904.74
468.654	36171.57
468.859	36374.31
469.064	36153.13
469.269	35309.37
469.474	35471.16
469.679	37062.43
469.885	35618.61
470.09	36460.33
470.295	36237.1
470.5	35389.24
470.705	35741.49
470.91	34340.68
471.115	34152.27
471.32	34918.21
471.525	34535.24
471.73	33748.82
471.935	33390.42
472.139	32376.68
472.344	31942.51
472.549	31967.09
472.754	31180.67
472.959	30467.97
473.164	29767.57
473.369	29552.53
473.574	29792.14
473.778	29206.42
473.983	28882.84
474.188	28891.04
474.393	26773.44
474.598	26730.43
474.802	26148.81
475.007	26202.05
475.212	25849.8
475.417	24526.82
475.621	24627.17
475.826	24211.43
476.031	23543.79
476.235	23175.16
476.44	23482.35
476.645	22501.37
476.849	22489.09
477.054	22212.61
477.259	21751.82
477.463	21139.47
477.668	21014.55
477.872	20817.94
478.077	20011.04
478.282	19640.36
478.486	19431.47
478.691	19406.89
478.895	19185.71
479.1	18917.43
479.304	18876.47
479.509	18221.12
479.713	18509.88
479.918	18067.52
480.122	17680.46
480.326	17653.83
480.531	18124.86
480.735	17573.96
480.94	17248.33
481.144	17786.95
481.348	16980.05
481.553	17135.7
481.757	16484.44
481.961	16568.41
482.166	16922.71
482.37	16500.83
482.574	16101.47
482.778	16050.27
482.983	16232.54
483.187	15908.96
483.391	15810.66
483.595	15757.41
483.8	15472.75
484.004	15665.25
484.208	15542.38
484.412	15261.8
484.616	15112.3
484.821	14821.49
485.025	14454.9
485.229	14897.27
485.433	14383.23
485.637	14147.71
485.841	13797.51
486.045	13863.04
486.249	13426.82
486.453	13402.25
486.657	13437.06
486.861	13086.86
487.065	12650.64
487.269	12845.2
487.473	12175.52
487.677	12464.28
487.881	12296.35
488.085	11729.06
488.289	11700.39
488.493	11104.43
488.697	11372.71
488.901	10948.78
489.105	10866.86
489.309	10856.62
489.512	10604.72
489.716	10395.83
489.92	10143.93
490.124	9912.51
490.328	9760.96
490.531	9754.82
490.735	9693.38
490.939	9322.7
491.143	9117.9
491.346	9009.36
491.55	8771.79
491.754	8696.02
491.958	8501.46
492.161	8450.26
492.365	8333.53
492.569	8050.91
492.772	7997.66
492.976	7842.01
493.18	7741.66
493.383	7645.41
493.587	7598.31
493.79	7633.12
493.994	7338.21
494.197	7315.69
494.401	7147.75
494.605	7389.41
494.808	7164.14
495.012	6965.48
495.215	6947.05
495.419	6893.8
495.622	6732.01
495.825	6721.77
496.029	6725.87
496.232	6920.43
496.436	6602.99
496.639	6805.74
496.843	6605.04
497.046	6662.38
497.249	6815.98
497.453	6623.47
497.656	6691.06
497.859	6543.6
498.063	6713.58
498.266	6715.63
498.469	6514.93
498.673	6385.91
498.876	6762.73
499.079	6639.86
499.282	6701.3
499.485	6928.62
499.689	6742.25
499.892	6996.2
500.095	6682.86
500.298	6832.37
500.501	6668.53
500.705	6856.94
500.908	7088.36
501.111	7022.83
501.314	6893.8
501.517	7256.29
501.72	7076.07
501.923	7106.79
502.126	7168.23
502.329	7342.31
502.532	7592.16
502.735	7348.45
502.938	7700.7
503.141	7659.74
503.344	7639.26
503.547	7932.12
503.75	7768.29
503.953	7891.16
504.156	8222.94
504.359	8212.7
504.562	8181.98
504.765	8493.27
504.968	8554.71
505.17	8679.63
505.373	8687.82
505.576	8853.71
505.779	8866
505.982	9023.69
506.185	9308.36
506.387	9248.97
506.59	9447.62
506.793	9707.71
506.996	9775.3
507.198	10166.46
507.401	10211.51
507.604	10391.73
507.807	10786.99
508.009	10625.2
508.212	11004.08
508.415	11018.41
508.617	11276.46
508.82	11282.6
509.022	11339.94
509.225	11960.48
509.428	12351.64
509.63	12550.29
509.833	12564.63
510.035	13250.7
510.238	13297.8
510.44	13486.22
510.643	13764.74
510.845	14282.88
511.048	14305.4
511.25	14813.3
511.453	14823.54
511.655	15691.88
511.858	15923.3
512.06	16017.5
512.262	16472.15
512.465	16728.15
512.667	17190.99
512.87	17504.33
513.072	17934.4
513.274	18167.87
513.477	18704.44
513.679	19109.94
513.881	19497
514.084	20015.14
514.286	20238.37
514.488	20500.51
514.69	21307.41
514.893	21581.84
515.095	22073.35
515.297	22673.4
515.499	22788.09
515.701	23179.25
515.904	24135.65
516.106	24279.01
516.308	24960.98
516.51	25544.66
516.712	25591.76
516.914	26374.08
517.116	26642.37
517.318	27414.45
517.52	27713.45
517.722	28428.2
517.925	28768.16
518.127	29333.4
518.329	30033.8
518.531	29982.6
518.733	30855.04
518.935	31256.44
519.136	31686.51
519.338	32673.63
519.54	32948.06
519.742	33449.81
519.944	33718.1
520.146	34879.3
520.348	35020.61
520.55	34955.07
520.752	35389.24
520.954	36192.05
521.155	36085.55
521.357	37115.68
521.559	37275.42
521.761	37814.04
521.963	37996.31
522.164	38448.91
522.366	38592.26
522.568	38975.23
522.77	39292.67
522.971	39663.35
523.173	39747.32
523.375	40308.46
523.576	40224.5
523.778	40357.61
523.98	41064.16
524.181	41172.71
524.383	41236.19
524.584	41631.45
524.786	41774.81
524.988	41422.56
525.189	41995.99
525.391	41928.41
525.592	41856.73
525.794	41819.86
525.995	41719.51
526.197	41436.89
526.398	41721.56
526.6	41522.91
526.801	41529.05
527.003	41422.56
527.204	41336.54
527.406	41518.81
527.607	41019.11
527.808	41510.62
528.01	40390.38
528.211	40605.42
528.412	40836.84
528.614	40179.44
528.815	40165.1
529.016	40189.68
529.218	39302.91
529.419	39339.77
529.62	38631.18
529.822	38678.28
530.023	38131.47
530.224	37543.7
530.425	37373.72
530.626	36597.54
530.828	36364.07
531.029	36691.75
531.23	35565.37
531.431	35362.62
531.632	34987.84
531.833	34705.22
532.035	34123.6
532.236	33863.5
532.437	33777.49
532.638	33126.24
532.839	32665.44
533.04	32399.21
533.241	31797.1
533.442	31895.41
533.643	30998.4
533.844	30551.94
534.045	30142.35
534.246	29695.89
534.447	29716.37
534.648	29001.63
534.849	28907.42
535.05	28303.27
535.251	27922.35
535.451	27908.01
535.652	27369.4
535.853	26951.61
536.054	26668.99
536.255	26210.25
536.456	25362.39
536.657	25851.85
536.857	24993.75
537.058	24913.88
537.259	24453.09
537.46	24307.68
537.66	23638
537.861	23681
538.062	22863.86
538.263	22849.53
538.463	22544.38
538.664	22499.33
538.865	22003.72
539.065	21989.38
539.266	21241.87
539.466	21418
539.667	20901.91
539.868	20981.78
540.068	20492.32
540.269	20437.02
540.469	20181.03
540.67	19709.99
540.87	19785.77
541.071	19202.1
541.271	19292.21
541.472	18694.2
541.672	18827.32
541.873	18427.96
542.073	17932.36
542.274	18169.92
542.474	17844.29
542.675	17741.89
542.875	17465.42
543.075	17096.78
543.276	16646.23
543.476	16832.6
543.676	16701.53
543.877	16740.44
544.077	16226.4
544.277	16224.35
544.478	15933.54
544.678	15902.82
544.878	15550.57
545.078	15370.35
545.279	15263.85
545.479	15028.34
545.679	14841.97
545.879	14497.91
546.079	14563.45
546.28	14307.45
546.48	14090.37
546.68	14039.17
546.88	13869.19
547.08	13846.66
547.28	13508.74
547.48	13322.38
547.68	13580.42
547.88	12996.75
548.081	12923.02
548.281	12546.2
548.481	12722.32
548.681	12533.91
548.881	12435.61
549.081	12400.79
549.28	11849.89
549.48	11954.33
549.68	11688.1
549.88	11526.31
550.08	11196.59
550.28	11251.88
550.48	10930.35
550.68	10922.16
550.88	10809.52
551.08	10641.59
551.279	10350.78
551.479	10258.62
551.679	10182.84
551.879	9996.48
552.079	9892.03
552.278	9668.8
552.478	9539.78
552.678	9402.57
552.878	9410.76
553.077	9029.84
553.277	9054.41
553.477	8870.09
553.676	8716.5
553.876	8648.91
554.076	8544.47
554.275	8372.44
554.475	8077.53
554.674	8089.82
554.874	7909.6
555.074	7704.8
555.273	7665.89
555.473	7729.38
555.672	7432.42
555.872	7327.97
556.071	7262.44
556.271	7442.66
556.47	7061.74
556.67	6750.45
556.869	6705.39
557.068	6668.53
557.268	6412.53
557.467	6574.32
557.667	6629.62
557.866	6310.13
558.065	6093.05
558.265	5961.98
558.464	5822.72
558.663	5974.27
558.863	5818.62
559.062	5705.98
559.261	5576.96
559.461	5738.75
559.66	5390.6
559.859	5083.4
560.058	5134.6
560.258	4964.62
560.457	4921.61
560.656	5058.82
560.855	4919.56
561.054	4913.42
561.253	4751.63
561.453	4755.72
561.652	4573.46
561.851	4450.58
562.05	4342.04
562.249	4227.35
562.448	4344.08
562.647	4321.56
562.846	4063.51
563.045	4026.65
563.244	4098.33
563.443	4176.15
563.642	3889.43
563.841	3905.82
564.04	3881.24
564.239	3819.8
564.438	3551.52
564.637	3604.77
564.836	3610.91
565.035	3477.79
565.234	3447.07
565.432	3471.65
565.631	3526.94
565.83	3322.15
566.029	3297.57
566.228	3232.04
566.427	3275.04
566.625	3080.49
566.824	3121.45
567.023	3221.8
567.222	2930.98
567.42	2988.33
567.619	2902.31
567.818	2863.4
568.016	3086.63
568.215	2947.37
568.414	2849.07
568.612	2748.72
568.811	2834.73
569.01	2693.42
569.208	2599.21
569.407	2595.12
569.605	2541.87
569.804	2525.49
570.002	2443.57
570.201	2345.27
570.4	2433.33
570.598	2326.83
570.797	2275.63
570.995	2242.87
571.193	2255.15
571.392	2220.34
571.59	2175.28
571.789	2210.1
571.987	2181.43
572.186	2134.32
572.384	1980.73
572.582	1980.73
572.781	2013.49
572.979	1943.86
573.177	1904.95
573.376	2048.31
573.574	1915.19
573.772	1839.42
573.971	1755.45
574.169	1839.42
574.367	1726.78
574.565	1718.59
574.763	1679.68
574.962	1825.08
575.16	1665.34
575.358	1550.65
575.556	1497.41
575.754	1562.94
575.952	1517.89
576.151	1577.28
576.349	1542.46
576.547	1300.8
576.745	1517.89
576.943	1472.83
577.141	1476.93
577.339	1270.08
577.537	1413.44
577.735	1491.26
577.933	1417.54
578.131	1253.7
578.329	1431.87
578.527	1345.86
578.725	1349.95
578.923	1104.2
579.121	1313.09
579.319	1089.86
579.516	1167.68
579.714	1339.71
579.912	1204.55
580.11	936.26
580.308	1053
580.506	1116.48
580.704	950.6
580.901	1001.8
581.099	1182.02
581.297	983.37
581.495	1005.89
581.692	1009.99
581.89	1085.76
582.088	1061.19
582.285	1028.42
582.483	905.54
582.681	923.98
582.878	958.79
583.076	862.54
583.274	844.1
583.471	989.51
583.669	913.74
583.866	739.66
584.064	776.52
584.262	784.71
584.459	733.51
584.657	729.42
584.854	887.11
585.052	788.81
585.249	852.3
585.447	760.14
585.644	620.88
585.841	825.67
586.039	745.8
586.236	770.38
586.434	653.64
586.631	657.74
586.828	704.84
587.026	641.36
587.223	590.16
587.42	647.5
587.618	624.97
587.815	696.65
588.012	651.6
588.21	573.77
588.407	731.47
588.604	764.23
588.801	555.34
588.999	520.53
589.196	690.51
589.393	571.72
589.59	614.73
589.787	598.35
589.984	737.61
590.182	633.16
590.379	489.81
590.576	565.58
590.773	553.29
590.97	541.01
591.167	616.78
591.364	594.25
591.561	588.11
591.758	735.56
591.955	647.5
592.152	549.2
592.349	524.62
592.546	536.91
592.743	479.57
592.94	405.84
593.137	528.72
593.334	588.11
593.531	637.26
593.727	553.29
593.924	477.52
594.121	514.38
594.318	596.3
594.515	635.21
594.712	729.42
594.908	680.27
595.105	545.1
595.302	639.31
595.499	598.35
595.696	723.27
595.892	600.4
596.089	602.44
596.286	598.35
596.482	811.34
596.679	665.93
596.876	624.97
597.072	719.18
597.269	706.89
597.466	809.29
597.662	751.95
597.859	778.57
598.055	837.96
598.252	856.39
598.448	909.64
598.645	895.3
598.841	885.06
599.038	997.7
599.234	1044.81
599.431	1163.59
599.627	1030.47
599.824	1116.48
600.02	1114.44
600.217	1179.97
600.413	1161.54
600.609	1319.23
600.806	1487.17
601.002	1386.82
601.198	1325.38
601.395	1556.8
601.591	1558.85
601.787	1597.76
601.984	1831.23
602.18	1749.31
602.376	1710.4
602.572	1872.18
602.769	2007.35
602.965	1978.68
603.161	2144.56
603.357	2132.28
603.553	2277.68
603.75	2154.8
603.946	2355.51
604.142	2515.25
604.338	2613.55
604.534	2429.23
604.73	2771.24
604.926	2707.76
605.122	2863.4
605.318	2785.58
605.514	3062.05
605.71	3035.43
605.906	3283.24
606.102	3092.77
606.298	3514.66
606.494	3672.35
606.69	3741.98
606.886	3604.77
607.082	3856.67
607.278	3948.83
607.474	4065.56
607.67	4256.02
607.866	4067.61
608.062	4387.09
608.257	4567.31
608.453	4538.64
608.649	4651.28
608.845	4665.61
609.041	4999.43
609.236	5191.94
609.432	5202.18
609.628	5486.85
609.824	5622.02
610.019	5640.45
610.215	5792
610.411	6019.32
610.606	6195.45
610.802	6310.13
610.998	6330.61
611.193	6578.42
611.389	6858.99
611.584	6969.58
611.78	7020.78
611.976	7381.22
612.171	7672.03
612.367	7729.38
612.562	7925.98
612.758	8171.74
612.953	8216.79
613.149	8528.08
613.344	8663.25
613.539	8972.49
613.735	9226.44
613.93	9699.52
614.126	9603.27
614.321	9971.9
614.517	10524.85
614.712	10662.07
614.907	10852.53
615.103	10981.55
615.298	11153.58
615.493	11665.57
615.688	11731.11
615.884	12527.77
616.079	12454.04
616.274	12746.9
616.47	13197.45
616.665	13496.46
616.86	13615.24
617.055	14076.03
617.25	14375.03
617.445	14854.26
617.641	15011.95
617.836	15620.2
618.031	15896.67
618.226	16314.46
618.421	16416.86
618.616	17277.01
618.811	17635.4
619.006	18014.27
619.201	18028.61
619.396	18526.27
619.591	18524.22
619.786	19441.71
619.981	19632.17
620.176	20398.11
620.371	20629.53
620.566	21243.92
620.761	21538.83
620.956	21819.4
621.151	22321.15
621.346	23105.52
621.541	22786.04
621.735	23787.5
621.93	24068.07
622.125	24649.69
622.32	24678.36
622.515	25327.57
622.709	25790.41
622.904	26419.14
623.099	26564.54
623.294	27348.92
623.488	27549.62
623.683	28059.56
623.878	28250.02
624.072	29067.16
624.267	29661.07
624.462	29783.95
624.656	30384.01
624.851	30832.51
625.046	31348.6
625.24	31518.58
625.435	31756.14
625.629	32737.12
625.824	32716.64
626.018	33470.29
626.213	33130.33
626.407	34494.28
626.602	33910.61
626.796	34705.22
626.991	35032.89
627.185	35157.82
627.38	35680.05
627.574	35678
627.768	35823.41
627.963	35802.93
628.157	36077.36
628.352	36282.16
628.546	35755.83
628.74	36114.22
628.935	35870.51
629.129	36310.83
629.323	35882.8
629.517	35569.46
629.712	35532.6
629.906	35348.28
630.1	34828.1
630.294	34701.12
630.489	34336.59
630.683	33992.53
630.877	32939.87
631.071	32837.47
631.265	32403.3
631.459	31659.89
631.653	30834.56
631.848	30447.49
632.042	29644.69
632.236	28958.62
632.43	28008.36
632.624	27488.18
632.818	26318.79
633.012	25563.09
633.206	24756.19
633.4	24139.75
633.594	23347.19
633.788	22480.89
633.982	21954.57
634.176	21100.56
634.369	20185.12
634.563	19165.23
634.757	18499.64
634.951	17999.94
635.145	17174.61
635.339	16724.05
635.533	16046.18
635.726	15222.89
635.92	14846.07
636.114	14209.15
636.308	13480.07
636.501	13056.14
636.695	12495
636.889	11813.03
637.083	11339.94
637.276	11180.2
637.47	10334.39
637.664	10219.71
637.857	9902.27
638.051	9556.16
638.244	9060.56
638.438	8603.86
638.632	8435.92
638.825	7715.04
639.019	7833.82
639.212	7424.23
639.406	7174.38
639.599	6781.17
639.793	6648.05
639.986	6131.96
640.18	6033.66
640.373	5644.54
640.567	5533.95
640.76	5302.53
640.954	5243.14
641.147	4794.64
641.34	4800.78
641.534	4626.7
641.727	4460.82
641.92	4313.36
642.114	4198.68
642.307	3901.72
642.5	3862.81
642.694	3647.77
642.887	3526.94
643.08	3457.31
643.273	3352.87
643.467	3111.21
643.66	2918.7
643.853	2804.01
644.046	2765.1
644.239	2724.14
644.432	2443.57
644.626	2369.84
644.819	2111.8
645.012	2271.54
645.205	2335.03
645.398	2255.15
645.591	2009.4
645.784	1978.68
645.977	1933.62
646.17	1851.71
646.363	1757.5
646.556	1538.37
646.749	1571.13
646.942	1526.08
647.135	1603.9
647.328	1438.02
647.521	1444.16
647.714	1296.71
647.907	1300.8
648.099	1235.27
648.292	1331.52
648.485	1194.31
648.678	1128.77
648.871	966.98
649.064	1136.96
649.256	975.17
649.449	901.45
649.642	776.52
649.835	837.96
650.027	835.91
650.22	897.35
650.413	698.7
650.605	825.67
650.798	766.28
650.991	639.31
651.183	694.6
651.376	670.03
651.568	694.6
651.761	553.29
651.954	651.6
652.146	581.96
652.339	600.4
652.531	596.3
652.724	563.53
652.916	545.1
653.109	442.7
653.301	563.53
653.494	567.63
653.686	444.75
653.879	561.48
654.071	541.01
654.263	391.5
654.456	330.06
654.648	524.62
654.84	358.74
655.033	405.84
655.225	471.37
655.417	297.3
655.61	479.57
655.802	342.35
655.994	459.09
656.186	268.63
656.379	426.32
656.571	248.15
656.763	270.67
656.955	328.02
657.148	254.29
657.34	362.83
657.532	276.82
657.724	280.91
657.916	278.87
658.108	303.44
658.3	291.15
658.492	309.58
658.684	176.47
658.876	297.3
659.068	270.67
659.26	133.46
659.452	250.19
659.644	246.1
659.836	254.29
660.028	223.57
660.22	94.55
660.412	166.23
660.604	172.37
660.796	227.67
660.988	305.49
661.18	174.42
661.372	217.43
661.563	213.33
661.755	158.03
661.947	18.77
662.139	196.95
662.331	190.8
662.522	149.84
662.714	94.55
662.906	207.19
663.097	190.8
663.289	94.55
663.481	61.78
663.673	221.52
663.864	139.6
664.056	201.04
664.247	119.12
664.439	209.23
664.631	170.32
664.822	239.95
665.014	182.61
665.205	94.55
665.397	141.65
665.588	129.36
665.78	127.32
665.971	137.56
666.163	45.4
666.354	67.92
666.546	108.88
666.737	168.27
666.929	90.45
667.12	96.6
667.311	172.37
667.503	92.5
667.694	104.79
667.885	139.6
668.077	164.18
668.268	-13.99
668.459	151.89
668.651	137.56
668.842	117.08
669.033	47.44
669.224	88.4
669.416	315.73
669.607	74.07
669.798	22.87
669.989	174.42
670.18	88.4
670.371	151.89
670.563	63.83
670.754	231.76
670.945	192.85
671.136	186.71
671.327	82.26
671.518	231.76
671.709	242
671.9	125.27
672.091	246.1
672.282	26.96
672.473	135.51
672.664	35.16
672.855	135.51
673.046	219.47
673.237	233.81
673.428	129.36
673.619	176.47
673.809	33.11
674	213.33
674.191	198.99
674.382	65.88
674.573	80.21
674.764	135.51
674.954	211.28
675.145	123.22
675.336	41.3
675.527	55.64
675.717	82.26
675.908	74.07
676.099	80.21
676.289	160.08
676.48	76.12
676.671	112.98
676.861	104.79
677.052	98.64
677.243	88.4
677.433	141.65
677.624	104.79
677.814	90.45
678.005	90.45
678.195	180.56
678.386	110.93
678.576	131.41
678.767	18.77
678.957	194.9
679.148	139.6
679.338	256.34
679.529	158.03
679.719	119.12
679.909	178.51
680.1	162.13
680.29	190.8
680.481	53.59
680.671	211.28
680.861	172.37
681.052	166.23
681.242	92.5
681.432	151.89
681.622	117.08
681.813	72.02
682.003	143.7
682.193	80.21
682.383	186.71
682.573	149.84
682.764	106.84
682.954	94.55
683.144	233.81
683.334	106.84
683.524	129.36
683.714	94.55
683.904	184.66
684.094	178.51
684.284	186.71
684.474	268.63
684.664	190.8
684.854	203.09
685.044	65.88
685.234	194.9
685.424	131.41
685.614	125.27
685.804	264.53
685.994	182.61
686.184	88.4
686.374	233.81
686.564	233.81
686.753	196.95
686.943	141.65
687.133	164.18
687.323	133.46
687.513	203.09
687.702	172.37
687.892	121.17
688.082	215.38
688.272	215.38
688.461	90.45
688.651	268.63
688.841	203.09
689.03	76.12
689.22	201.04
689.41	242
689.599	184.66
689.789	76.12
689.979	303.44
690.168	131.41
690.358	250.19
690.547	180.56
690.737	166.23
690.926	182.61
691.116	190.8
691.305	264.53
691.495	250.19
691.684	94.55
691.874	76.12
692.063	80.21
692.252	198.99
692.442	151.89
692.631	170.32
692.82	98.64
693.01	246.1
693.199	112.98
693.388	198.99
693.578	88.4
693.767	184.66
693.956	194.9
694.146	121.17
694.335	201.04
694.524	172.37
694.713	231.76
694.902	153.94
695.092	106.84
695.281	203.09
695.47	82.26
695.659	100.69
695.848	84.31
696.037	127.32
696.226	198.99
696.415	155.99
696.604	201.04
696.793	184.66
696.982	174.42
697.171	223.57
697.36	88.4
697.549	184.66
697.738	78.16
697.927	33.11
698.116	63.83
698.305	158.03
698.494	201.04
698.683	131.41
698.872	221.52
699.061	155.99
699.25	166.23
699.438	139.6
699.627	106.84
699.816	325.97
700.005	26.96
700.193	129.36
700.382	186.71
700.571	137.56
700.76	176.47
700.948	303.44
701.137	239.95
701.326	244.05
701.514	57.68
701.703	186.71
701.892	117.08
702.08	348.5
702.269	84.31
702.457	24.92
702.646	164.18
702.834	162.13
703.023	299.34
703.212	229.71
703.4	211.28
703.589	72.02
703.777	158.03
703.965	100.69
704.154	153.94
704.342	90.45
704.531	108.88
704.719	170.32
704.907	235.86
705.096	59.73
705.284	74.07
705.472	180.56
705.661	190.8
705.849	119.12
706.037	213.33
706.226	252.24
706.414	160.08
706.602	110.93
706.79	160.08
706.979	137.56
707.167	131.41
707.355	106.84
707.543	170.32
707.731	172.37
707.919	203.09
708.107	131.41
708.296	104.79
708.484	141.65
708.672	4.44
708.86	153.94
709.048	96.6
709.236	55.64
709.424	172.37
709.612	133.46
709.8	115.03
709.988	137.56
710.176	194.9
710.364	129.36
710.551	174.42
710.739	96.6
710.927	145.75
711.115	192.85
711.303	141.65
711.491	213.33
711.679	78.16
711.866	252.24
712.054	112.98
712.242	119.12
712.43	188.75
712.617	115.03
712.805	260.43
712.993	160.08
713.181	115.03
713.368	190.8
713.556	106.84
713.744	96.6
713.931	305.49
714.119	194.9
714.306	86.36
714.494	78.16
714.682	127.32
714.869	0.34
715.057	112.98
715.244	72.02
715.432	219.47
715.619	84.31
715.807	164.18
715.994	94.55
716.182	176.47
716.369	194.9
716.556	239.95
716.744	14.68
716.931	90.45
717.119	119.12
717.306	61.78
717.493	260.43
717.681	143.7
717.868	143.7
718.055	172.37
718.242	158.03
718.43	125.27
718.617	235.86
718.804	192.85
718.991	215.38
719.179	168.27
719.366	231.76
719.553	182.61
719.74	129.36
719.927	219.47
720.114	201.04
720.301	139.6
720.488	106.84
720.676	100.69
720.863	256.34
721.05	295.25
721.237	219.47
721.424	192.85
721.611	198.99
721.798	51.54
721.985	63.83
722.172	151.89
722.358	102.74
722.545	217.43
722.732	258.39
722.919	256.34
723.106	252.24
723.293	106.84
723.48	110.93
723.667	178.51
723.853	205.14
724.04	264.53
724.227	258.39
724.414	153.94
724.6	248.15
724.787	276.82
724.974	323.92
725.161	239.95
725.347	151.89
725.534	170.32
725.72	227.67
725.907	330.06
726.094	293.2
726.28	147.8
726.467	190.8
726.653	78.16
726.84	192.85
727.027	291.15
727.213	160.08
727.4	225.62
727.586	213.33
727.773	141.65
727.959	168.27
728.145	233.81
728.332	153.94
728.518	123.22
728.705	301.39
728.891	186.71
729.077	219.47
729.264	108.88
729.45	233.81
729.636	223.57
729.823	133.46
730.009	227.67
730.195	221.52
730.382	174.42
730.568	151.89
730.754	196.95
730.94	100.69
731.126	239.95
731.313	229.71
731.499	182.61
731.685	280.91
731.871	317.78
732.057	186.71
732.243	303.44
732.429	313.68
732.615	356.69
732.801	184.66
732.987	231.76
733.173	184.66
733.359	155.99
733.545	219.47
733.731	178.51
733.917	366.93
734.103	219.47
734.289	303.44
734.475	186.71
734.661	364.88
734.847	188.75
735.033	254.29
735.219	270.67
735.404	194.9
735.59	158.03
735.776	213.33
735.962	239.95
736.148	289.1
736.333	334.16
736.519	285.01
736.705	147.8
736.89	225.62
737.076	186.71
737.262	98.64
737.447	235.86
737.633	231.76
737.819	371.02
738.004	223.57
738.19	135.51
738.375	268.63
738.561	246.1
738.747	338.26
738.932	225.62
739.118	436.56
739.303	295.25
739.489	332.11
739.674	192.85
739.859	201.04
740.045	338.26
740.23	274.77
740.416	29.01
740.601	287.06
740.786	147.8
740.972	229.71
741.157	158.03
741.342	158.03
741.528	133.46
741.713	416.08
741.898	192.85
742.084	270.67
742.269	110.93
742.454	256.34
742.639	289.1
742.824	323.92
743.01	280.91
743.195	280.91
743.38	217.43
743.565	168.27
743.75	233.81
743.935	285.01
744.12	305.49
744.305	178.51
744.49	229.71
744.675	231.76
744.86	158.03
745.045	262.48
745.23	215.38
745.415	264.53
745.6	282.96
745.785	246.1
745.97	258.39
746.155	266.58
746.34	289.1
746.525	256.34
746.71	280.91
746.895	170.32
747.079	121.17
747.264	266.58
747.449	297.3
747.634	287.06
747.819	293.2
748.003	151.89
748.188	100.69
748.373	280.91
748.557	250.19
748.742	301.39
748.927	229.71
749.111	151.89
749.296	102.74
749.481	252.24
749.665	242
749.85	194.9
750.034	223.57
750.219	231.76
750.404	168.27
750.588	270.67
750.773	201.04
750.957	145.75
751.141	205.14
751.326	262.48
751.51	158.03
751.695	100.69
751.879	278.87
752.064	317.78
752.248	213.33
752.432	248.15
752.617	280.91
752.801	217.43
752.985	188.75
753.17	299.34
753.354	176.47
753.538	162.13
753.722	143.7
753.907	86.36
754.091	108.88
754.275	252.24
754.459	160.08
754.643	106.84
754.828	115.03
755.012	264.53
755.196	100.69
755.38	145.75
755.564	145.75
755.748	162.13
755.932	223.57
756.116	225.62
756.3	225.62
756.484	143.7
756.668	250.19
756.852	14.68
757.036	188.75
757.22	252.24
757.404	145.75
757.588	131.41
757.772	229.71
757.956	135.51
758.14	237.91
758.323	164.18
758.507	194.9
758.691	115.03
758.875	299.34
759.059	223.57
759.242	98.64
759.426	151.89
759.61	184.66
759.794	63.83
759.977	285.01
760.161	358.74
760.345	254.29
760.528	219.47
760.712	123.22
760.895	143.7
761.079	178.51
761.263	31.06
761.446	98.64
761.63	182.61
761.813	182.61
761.997	43.35
762.18	72.02
762.364	112.98
762.547	-32.43
762.731	29.01
762.914	129.36
763.098	119.12
763.281	110.93
763.464	106.84
763.648	147.8
763.831	65.88
764.015	59.73
764.198	158.03
764.381	137.56
764.564	151.89
764.748	145.75
764.931	100.69
765.114	45.4
765.297	168.27
765.481	53.59
765.664	106.84
765.847	176.47
766.03	233.81
766.213	57.68
766.397	102.74
766.58	0.34
766.763	190.8
766.946	80.21
767.129	92.5
767.312	65.88
767.495	86.36
767.678	143.7
767.861	78.16
768.044	168.27
768.227	96.6
768.41	45.4
768.593	106.84
768.776	137.56
768.959	59.73
769.142	168.27
769.324	88.4
769.507	88.4
769.69	72.02
769.873	115.03
770.056	198.99
770.239	145.75
770.421	186.71
770.604	160.08
770.787	45.4
770.97	67.92
771.152	14.68
771.335	192.85
771.518	55.64
771.7	149.84
771.883	215.38
772.066	29.01
772.248	153.94
772.431	207.19
772.613	125.27
772.796	2.39
772.978	172.37
773.161	264.53
773.343	92.5
773.526	61.78
773.708	-7.85
773.891	-73.39
774.073	131.41
774.256	98.64
774.438	168.27
774.621	-32.43
774.803	104.79
774.985	125.27
775.168	213.33
775.35	121.17
775.532	135.51
775.715	-32.43
775.897	49.49
776.079	43.35
776.261	115.03
776.444	74.07
776.626	168.27
776.808	33.11
776.99	-11.95
777.173	55.64
777.355	78.16
777.537	69.97
777.719	96.6
777.901	41.3
778.083	-30.38
778.265	26.96
778.447	123.22
778.629	0.34
778.811	-26.28
778.993	108.88
779.175	135.51
779.357	35.16
779.539	-32.43
779.721	37.2
779.903	90.45
780.085	-50.86
780.267	100.69
780.449	-22.19
780.631	94.55
780.812	141.65
780.994	53.59
781.176	115.03
781.358	74.07
781.54	24.92
781.721	117.08
781.903	110.93
782.085	49.49
782.267	92.5
782.448	10.58
782.63	-18.09
782.812	63.83
782.993	57.68
783.175	123.22
783.357	-32.43
783.538	61.78
783.72	-13.99
783.901	39.25
784.083	51.54
784.264	106.84
784.446	-3.75
784.627	57.68
784.809	84.31
784.99	-46.76
785.172	8.53
785.353	63.83
785.535	80.21
785.716	-30.38
785.897	-40.62
786.079	43.35
786.26	53.59
786.441	59.73
786.623	-112.3
786.804	14.68
786.985	49.49
787.167	158.03
787.348	-108.2
787.529	61.78
787.71	172.37
787.891	22.87
788.073	72.02
788.254	-118.44
788.435	205.14
788.616	160.08
788.797	-5.8
788.978	14.68
789.159	-11.95
789.34	49.49
789.522	-24.23
789.703	108.88
789.884	-3.75
790.065	67.92
790.246	162.13
790.427	24.92
790.607	112.98
790.788	63.83
790.969	-22.19
791.15	125.27
791.331	53.59
791.512	-13.99
791.693	22.87
791.874	-16.04
792.054	237.91
792.235	121.17
792.416	-36.52
792.597	6.49
792.778	39.25
792.958	80.21
793.139	57.68
793.32	49.49
793.5	-44.71
793.681	4.44
793.862	80.21
794.042	84.31
794.223	6.49
794.404	-5.8
794.584	-106.15
794.765	45.4
794.945	-57
795.126	63.83
795.306	84.31
795.487	100.69
795.667	-26.28
795.848	-13.99
796.028	-22.19
796.209	22.87
796.389	117.08
796.57	-3.75
796.75	-63.15
796.93	37.2
797.111	8.53
797.291	61.78
797.471	125.27
797.652	-5.8
797.832	-28.33
798.012	53.59
798.192	-11.95
798.373	-16.04
798.553	16.73
798.733	98.64
798.913	-75.43
799.093	22.87
799.274	65.88
799.454	84.31
799.634	104.79
799.814	168.27
799.994	88.4
800.174	88.4
800.354	18.77
800.534	-77.48
800.714	49.49
800.894	-67.24
801.074	-67.24
801.254	45.4
801.434	174.42
801.614	35.16
801.794	-30.38
801.974	1978.68
802.154	-48.81
802.334	121.17
802.514	-59.05
802.693	-38.57
802.873	-1.71
803.053	164.18
803.233	35.16
803.413	10.58
803.592	-42.67
803.772	12.63
803.952	55.64
804.131	-28.33
804.311	96.6
804.491	129.36
804.67	-11.95
804.85	-81.58
805.03	106.84
805.209	63.83
805.389	-5.8
805.568	-9.9
805.748	-20.14
805.928	22.87
806.107	78.16
806.287	14.68
806.466	22.87
806.646	-46.76
806.825	55.64
807.004	41.3
807.184	72.02
807.363	41.3
807.543	86.36
807.722	-38.57
807.901	135.51
808.081	-1.71
808.26	-143.02
808.439	55.64
808.619	110.93
808.798	20.82
808.977	-13.99
809.156	57.68
809.336	51.54
809.515	61.78
809.694	-46.76
809.873	-54.95
810.052	26.96
810.231	86.36
810.411	-1.71
810.59	180.56
810.769	31.06
810.948	41.3
811.127	-97.96
811.306	59.73
811.485	-46.76
811.664	168.27
811.843	55.64
812.022	20.82
812.201	-7.85
812.38	-52.91
812.559	53.59
812.737	63.83
812.916	-77.48
813.095	12.63
813.274	129.36
813.453	106.84
813.632	84.31
813.811	24.92
813.989	12.63
814.168	41.3
814.347	-104.11
814.526	26.96
814.704	78.16
814.883	43.35
815.062	-16.04
815.24	88.4
815.419	-36.52
815.598	39.25
815.776	-122.54
815.955	14.68
816.133	-122.54
816.312	10.58
816.49	-34.47
816.669	-54.95
816.847	-22.19
817.026	82.26
817.204	22.87
817.383	49.49
817.561	6.49
817.74	45.4
817.918	-13.99
818.097	-36.52
818.275	-3.75
818.453	-7.85
818.632	22.87
818.81	84.31
818.988	-13.99
819.167	0.34
819.345	31.06
819.523	-9.9
819.701	-32.43
819.879	12.63
820.058	10.58
820.236	0.34
820.414	29.01
820.592	90.45
820.77	41.3
820.948	31.06
821.127	2.39
821.305	-46.76
821.483	-18.09
821.661	125.27
821.839	14.68
822.017	-32.43
822.195	0.34
822.373	106.84
822.551	18.77
822.729	55.64
822.907	31.06
823.085	26.96
823.262	4.44
823.44	-30.38
823.618	24.92
823.796	-3.75
823.974	-42.67
824.152	-100.01
824.329	-16.04
824.507	57.68
824.685	78.16
824.863	-87.72
825.04	-38.57
825.218	80.21
825.396	-26.28
825.574	39.25
825.751	2.39
825.929	22.87
826.107	-28.33
826.284	16.73
826.462	69.97
826.639	-93.87
826.817	-79.53
826.994	-11.95
827.172	-128.68
827.349	115.03
827.527	53.59
827.704	37.2
827.882	51.54
828.059	-36.52
828.237	49.49
828.414	86.36
828.591	-114.34
828.769	-22.19
828.946	-63.15
829.124	90.45
829.301	49.49
829.478	-61.1
829.655	82.26
829.833	63.83
830.01	-108.2
830.187	112.98
830.364	-69.29
830.542	-18.09
830.719	61.78
830.896	84.31
831.073	57.68
831.25	67.92
831.427	78.16
831.604	-59.05
831.782	51.54
831.959	76.12
832.136	-16.04
832.313	2.39
832.49	-11.95
832.667	88.4
832.844	-50.86
833.021	61.78
833.198	43.35
833.374	10.58
833.551	-3.75
833.728	-26.28
833.905	33.11
834.082	-140.97
834.259	12.63
834.436	143.7
834.612	-102.06
834.789	57.68
834.966	35.16
835.143	-5.8
835.319	-11.95
835.496	-9.9
835.673	-1.71
835.85	45.4
836.026	16.73
836.203	135.51
836.38	-42.67
836.556	10.58
836.733	-48.81
836.909	4.44
837.086	-61.1
837.262	-54.95
837.439	-73.39
837.616	-81.58
837.792	-65.19
837.968	78.16
838.145	-57
838.321	14.68
838.498	24.92
838.674	10.58
838.851	39.25
839.027	74.07
839.203	-30.38
839.38	35.16
839.556	4.44
839.732	104.79
839.909	43.35
840.085	29.01
840.261	-100.01
840.437	2.39
840.614	24.92
840.79	35.16
840.966	18.77
841.142	41.3
841.318	-3.75
841.494	-7.85
841.671	-30.38
841.847	0.34
842.023	-69.29
842.199	43.35
842.375	84.31
842.551	-91.82
842.727	-67.24
842.903	98.64
843.079	-85.67
843.255	72.02
843.431	-32.43
843.607	43.35
843.783	-157.35
843.959	33.11
844.134	-40.62
844.31	98.64
844.486	-50.86
844.662	-30.38
844.838	47.44
845.013	57.68
845.189	0.34
845.365	67.92
845.541	33.11
845.716	74.07
845.892	96.6
846.068	6.49
846.244	-61.1
846.419	-44.71
846.595	-34.47
846.77	-5.8
846.946	88.4
847.122	-20.14
847.297	-54.95
847.473	203.09
847.648	-116.39
847.824	65.88
847.999	-130.73
848.175	-1.71
848.35	59.73
848.526	115.03
848.701	117.08
848.876	33.11
849.052	22.87
849.227	-16.04
849.403	-18.09
849.578	-44.71
849.753	41.3
849.929	0.34
850.104	-100.01
850.279	10.58
850.454	69.97
850.63	-9.9
850.805	-7.85
850.98	33.11
851.155	-40.62
851.33	29.01
851.505	-32.43
851.681	155.99
851.856	-28.33
852.031	26.96
852.206	-3.75
852.381	12.63
852.556	-28.33
852.731	18.77
852.906	47.44
853.081	2.39
853.256	133.46
853.431	-59.05
853.606	72.02
853.781	-26.28
853.956	-186.02
854.131	-13.99
854.305	-124.58
854.48	-34.47
854.655	-114.34
854.83	-5.8
855.005	-95.91
855.18	22.87
855.354	33.11
855.529	-52.91
855.704	-18.09
855.879	35.16
856.053	-112.3
856.228	43.35
856.403	-54.95
856.577	-11.95
856.752	-83.63
856.926	31.06
857.101	-40.62
857.276	-116.39
857.45	-9.9
857.625	31.06
857.799	53.59
857.974	10.58
858.148	-87.72
858.323	51.54
858.497	0.34
858.672	-83.63
858.846	-52.91
859.02	55.64
859.195	-73.39
859.369	-73.39
859.543	26.96
859.718	88.4
859.892	35.16
860.066	18.77
860.241	-42.67
860.415	-81.58
860.589	-93.87
860.763	-3.75
860.938	16.73
861.112	63.83
861.286	-16.04
861.46	4.44
861.634	-24.23
861.808	98.64
861.982	-79.53
862.157	-3.75
862.331	2.39
862.505	-79.53
862.679	-83.63
862.853	-38.57
863.027	-16.04
863.201	117.08
863.375	-59.05
863.549	45.4
863.722	51.54
863.896	129.36
864.07	26.96
864.244	-32.43
864.418	69.97
864.592	18.77
864.766	16.73
864.939	24.92
865.113	-89.77
865.287	82.26
865.461	-50.86
865.634	51.54
865.808	-30.38
865.982	-52.91
866.156	-32.43
866.329	-30.38
866.503	76.12
866.676	0.34
866.85	20.82
867.024	-69.29
867.197	59.73
867.371	31.06
867.544	-61.1
867.718	-63.15
867.891	47.44
868.065	-69.29
868.238	8.53
868.412	125.27
868.585	6.49
868.759	10.58
868.932	-32.43
869.105	-46.76
869.279	-38.57
869.452	-83.63
869.625	-3.75
869.799	-48.81
869.972	-65.19
870.145	20.82
870.319	106.84
870.492	-1.71
870.665	-59.05
870.838	-1.71
871.011	-100.01
871.185	-63.15
871.358	-38.57
871.531	22.87
871.704	-3.75
871.877	-38.57
872.05	-69.29
872.223	-89.77
872.396	59.73
872.569	47.44
872.742	-97.96
872.915	-5.8
873.088	-18.09
873.261	-118.44
873.434	94.55
873.607	0.34
873.78	94.55
873.953	-85.67
874.126	-3.75
874.299	80.21
874.471	-124.58
874.644	-16.04
874.817	49.49
874.99	29.01
875.163	-42.67
875.335	14.68
875.508	-24.23
875.681	53.59
875.853	-22.19
876.026	61.78
876.199	22.87
876.371	-59.05
876.544	18.77
876.717	-32.43
876.889	-7.85
877.062	137.56
877.234	-71.34
877.407	-59.05
877.579	55.64
877.752	39.25
877.924	67.92
878.097	-28.33
878.269	-83.63
878.442	-67.24
878.614	55.64
878.786	-38.57
878.959	-5.8
879.131	-65.19
879.303	-52.91
879.476	-95.91
879.648	39.25
879.82	59.73
879.993	-48.81
880.165	-44.71
880.337	-100.01
880.509	-20.14
880.681	-79.53
880.854	14.68
881.026	35.16
881.198	153.94
881.37	33.11
881.542	-11.95
881.714	-63.15
881.886	-50.86
882.058	22.87
882.23	22.87
882.402	-42.67
882.574	22.87
882.746	55.64
882.918	92.5
883.09	45.4
883.262	-38.57
883.434	-3.75
883.606	-108.2
883.778	-79.53
883.95	96.6
884.122	-13.99
884.293	12.63
884.465	-77.48
884.637	24.92
884.809	-61.1
884.98	-42.67
885.152	59.73
885.324	14.68
885.496	-57
885.667	-48.81
885.839	-22.19
886.011	106.84
886.182	-22.19
886.354	80.21
886.525	10.58
886.697	-20.14
886.869	-52.91
887.04	-36.52
887.212	90.45
887.383	123.22
887.555	45.4
887.726	0.34
887.897	-1.71
888.069	45.4
888.24	78.16
888.412	96.6
888.583	55.64
888.754	-9.9
888.926	-79.53
889.097	20.82
889.268	20.82
889.44	80.21
889.611	-73.39
889.782	-46.76
889.953	-46.76
890.125	82.26
890.296	-42.67
890.467	-9.9
890.638	-30.38
890.809	69.97
890.98	14.68
891.151	-5.8
891.323	115.03
891.494	-28.33
891.665	26.96
891.836	-5.8
892.007	2.39
892.178	-48.81
892.349	16.73
892.52	-71.34
892.691	-9.9
892.862	-65.19
893.032	-83.63
893.203	-63.15
893.374	24.92
893.545	26.96
893.716	-13.99
893.887	72.02
894.057	-34.47
894.228	4.44
894.399	18.77
894.57	147.8
894.74	-24.23
894.911	22.87
895.082	49.49
895.253	-1.71
895.423	0.34
895.594	69.97
895.764	94.55
895.935	-114.34
896.106	33.11
896.276	2.39
896.447	96.6
896.617	-22.19
896.788	-20.14
896.958	-50.86
897.129	-28.33
897.299	-30.38
897.47	131.41
897.64	33.11
897.81	33.11
897.981	-3.75
898.151	-26.28
898.322	20.82
898.492	2.39
898.662	-116.39
898.832	-1.71
899.003	4.44
899.173	102.74
899.343	-122.54
899.513	-48.81
