Data from USB4F104151__18__11-24-33-606.txt Node

Date: Wed Feb 26 11:24:33 EST 2025
User: louis
Spectrometer: USB4F10415
Trigger mode: 4
Integration Time (sec): 1.000000E-1
Scans to average: 1
Electric dark correction enabled: true
Nonlinearity correction enabled: false
Boxcar width: 0
XAxis mode: Wavelengths
Number of Pixels in Spectrum: 3648
>>>>>Begin Spectral Data<<<<<
178.204	-430.24
178.424	-430.24
178.644	-430.24
178.864	-487.59
179.084	-307.37
179.304	-10.41
179.524	-14.51
179.744	-4.27
179.964	24.4
180.184	32.6
180.404	40.79
180.624	42.84
180.844	-34.99
181.064	-28.84
181.283	-26.79
181.503	-51.37
181.723	30.55
181.943	-12.46
182.163	108.37
182.383	-96.43
182.602	16.21
182.822	167.76
183.042	96.08
183.262	22.36
183.482	55.12
183.701	20.31
183.921	71.51
184.141	-45.23
184.361	143.19
184.58	59.22
184.8	-86.19
185.02	-30.89
185.239	42.84
185.459	48.98
185.679	79.7
185.898	-153.77
186.118	-0.17
186.338	26.45
186.557	98.13
186.777	-47.27
186.997	-43.18
187.216	-20.65
187.436	165.71
187.655	34.64
187.875	67.41
188.095	-22.7
188.314	96.08
188.534	46.93
188.753	-77.99
188.973	55.12
189.192	153.43
189.412	12.12
189.631	-2.22
189.851	20.31
190.07	171.86
190.29	-41.13
190.509	30.55
190.729	77.65
190.948	96.08
191.168	235.35
191.387	110.42
191.607	-6.31
191.826	48.98
192.045	-34.99
192.265	12.12
192.484	81.75
192.704	-37.03
192.923	-65.71
193.142	198.48
193.362	91.99
193.581	110.42
193.8	20.31
194.02	83.8
194.239	77.65
194.458	22.36
194.678	38.74
194.897	16.21
195.116	38.74
195.335	-53.42
195.555	42.84
195.774	-34.99
195.993	67.41
196.212	20.31
196.432	-20.65
196.651	-2.22
196.87	22.36
197.089	276.31
197.308	79.7
197.528	96.08
197.747	-57.51
197.966	67.41
198.185	186.19
198.404	-24.75
198.623	118.61
198.842	79.7
199.062	53.08
199.281	126.8
199.5	20.31
199.719	34.64
199.938	28.5
200.157	79.7
200.376	46.93
200.595	114.52
200.814	85.84
201.033	-69.8
201.252	112.47
201.471	87.89
201.69	96.08
201.909	65.36
202.128	91.99
202.347	18.26
202.566	59.22
202.785	-73.9
203.004	-43.18
203.223	200.53
203.442	63.32
203.661	-71.85
203.879	100.18
204.098	116.56
204.317	-37.03
204.536	55.12
204.755	24.4
204.974	91.99
205.193	-12.46
205.411	128.85
205.63	124.76
205.849	53.08
206.068	73.56
206.287	-47.27
206.505	126.8
206.724	36.69
206.943	-20.65
207.162	-0.17
207.381	32.6
207.599	-53.42
207.818	22.36
208.037	-90.28
208.255	14.17
208.474	-12.46
208.693	38.74
208.911	-45.23
209.13	126.8
209.349	42.84
209.567	89.94
209.786	36.69
210.005	151.38
210.223	53.08
210.442	-116.9
210.661	69.46
210.879	83.8
211.098	-8.36
211.316	1.88
211.535	53.08
211.753	38.74
211.972	96.08
212.191	57.17
212.409	-53.42
212.628	94.04
212.846	-61.61
213.065	55.12
213.283	151.38
213.502	75.6
213.72	8.02
213.938	14.17
214.157	1.88
214.375	81.75
214.594	44.88
214.812	8.02
215.031	-30.89
215.249	71.51
215.467	61.27
215.686	-80.04
215.904	32.6
216.122	-16.55
216.341	57.17
216.559	69.46
216.778	48.98
216.996	34.64
217.214	-63.66
217.432	-6.31
217.651	65.36
217.869	110.42
218.087	20.31
218.306	89.94
218.524	57.17
218.742	55.12
218.96	100.18
219.179	-0.17
219.397	20.31
219.615	241.49
219.833	98.13
220.051	20.31
220.27	44.88
220.488	130.9
220.706	1.88
220.924	1.88
221.142	89.94
221.36	114.52
221.578	36.69
221.796	-24.75
222.015	-12.46
222.233	36.69
222.451	182.1
222.669	12.12
222.887	73.56
223.105	-61.61
223.323	48.98
223.541	-141.48
223.759	114.52
223.977	-18.6
224.195	182.1
224.413	77.65
224.631	53.08
224.849	20.31
225.067	280.4
225.285	63.32
225.503	16.21
225.721	-84.14
225.939	69.46
226.157	-2.22
226.375	266.07
226.592	-12.46
226.81	36.69
227.028	85.84
227.246	96.08
227.464	-26.79
227.682	55.12
227.9	16.21
228.117	79.7
228.335	34.64
228.553	38.74
228.771	55.12
228.989	67.41
229.206	69.46
229.424	-18.6
229.642	-24.75
229.86	-22.7
230.077	128.85
230.295	59.22
230.513	104.28
230.731	-18.6
230.948	178
231.166	135
231.384	57.17
231.601	-10.41
231.819	198.48
232.037	-65.71
232.254	3.93
232.472	1.88
232.689	-43.18
232.907	89.94
233.125	-24.75
233.342	-20.65
233.56	-16.55
233.777	-37.03
233.995	12.12
234.213	40.79
234.43	214.87
234.648	53.08
234.865	-20.65
235.083	26.45
235.3	26.45
235.518	16.21
235.735	75.6
235.953	73.56
236.17	-4.27
236.388	32.6
236.605	34.64
236.822	16.21
237.04	91.99
237.257	89.94
237.475	-49.32
237.692	-12.46
237.909	51.03
238.127	-65.71
238.344	104.28
238.562	28.5
238.779	-84.14
238.996	-129.19
239.214	20.31
239.431	77.65
239.648	38.74
239.865	91.99
240.083	48.98
240.3	-43.18
240.517	-90.28
240.735	36.69
240.952	116.56
241.169	-26.79
241.386	57.17
241.603	-2.22
241.821	-75.95
242.038	14.17
242.255	73.56
242.472	-51.37
242.689	57.17
242.907	22.36
243.124	-39.08
243.341	71.51
243.558	14.17
243.775	-49.32
243.992	-14.51
244.209	75.6
244.426	186.19
244.643	65.36
244.86	16.21
245.078	85.84
245.295	63.32
245.512	67.41
245.729	-6.31
245.946	59.22
246.163	-22.7
246.38	1.88
246.597	83.8
246.814	-12.46
247.031	-6.31
247.248	59.22
247.464	59.22
247.681	40.79
247.898	116.56
248.115	120.66
248.332	-67.75
248.549	87.89
248.766	173.91
248.983	69.46
249.2	53.08
249.417	112.47
249.633	-43.18
249.85	67.41
250.067	-10.41
250.284	-10.41
250.501	-0.17
250.717	34.64
250.934	-65.71
251.151	22.36
251.368	-18.6
251.585	106.32
251.801	32.6
252.018	-77.99
252.235	73.56
252.451	1.88
252.668	42.84
252.885	178
253.102	30.55
253.318	10.07
253.535	-30.89
253.752	-4.27
253.968	-47.27
254.185	38.74
254.401	40.79
254.618	110.42
254.835	-26.79
255.051	149.33
255.268	67.41
255.484	42.84
255.701	-8.36
255.917	77.65
256.134	-61.61
256.351	46.93
256.567	-16.55
256.784	83.8
257	-92.33
257.217	67.41
257.433	122.71
257.65	38.74
257.866	98.13
258.082	-47.27
258.299	1.88
258.515	-8.36
258.732	-8.36
258.948	-45.23
259.165	71.51
259.381	12.12
259.597	102.23
259.814	20.31
260.03	42.84
260.246	28.5
260.463	163.67
260.679	167.76
260.895	-6.31
261.112	10.07
261.328	18.26
261.544	-6.31
261.761	171.86
261.977	53.08
262.193	-63.66
262.409	77.65
262.626	34.64
262.842	-37.03
263.058	-30.89
263.274	75.6
263.49	48.98
263.707	69.46
263.923	40.79
264.139	-57.51
264.355	16.21
264.571	104.28
264.787	48.98
265.004	100.18
265.22	42.84
265.436	14.17
265.652	-30.89
265.868	59.22
266.084	-84.14
266.3	-0.17
266.516	-39.08
266.732	48.98
266.948	65.36
267.164	-30.89
267.38	157.52
267.596	89.94
267.812	112.47
268.028	28.5
268.244	-32.94
268.46	79.7
268.676	100.18
268.892	69.46
269.108	-28.84
269.324	8.02
269.54	-61.61
269.756	216.91
269.972	-16.55
270.188	-24.75
270.403	3.93
270.619	42.84
270.835	83.8
271.051	32.6
271.267	30.55
271.483	-14.51
271.698	98.13
271.914	46.93
272.13	85.84
272.346	48.98
272.562	114.52
272.777	118.61
272.993	-12.46
273.209	-41.13
273.425	141.14
273.64	-84.14
273.856	38.74
274.072	-49.32
274.287	26.45
274.503	100.18
274.719	91.99
274.934	-2.22
275.15	-6.31
275.366	-32.94
275.581	-47.27
275.797	104.28
276.012	57.17
276.228	34.64
276.444	59.22
276.659	69.46
276.875	34.64
277.09	3.93
277.306	1.88
277.521	69.46
277.737	59.22
277.952	79.7
278.168	-10.41
278.383	69.46
278.599	8.02
278.814	75.6
279.03	51.03
279.245	38.74
279.461	-8.36
279.676	114.52
279.892	-104.62
280.107	-69.8
280.322	18.26
280.538	55.12
280.753	-6.31
280.969	81.75
281.184	14.17
281.399	175.95
281.615	8.02
281.83	106.32
282.045	20.31
282.26	-30.89
282.476	42.84
282.691	89.94
282.906	-12.46
283.122	18.26
283.337	-75.95
283.552	40.79
283.767	-69.8
283.983	63.32
284.198	-12.46
284.413	28.5
284.628	-30.89
284.843	69.46
285.058	38.74
285.274	-69.8
285.489	-84.14
285.704	106.32
285.919	-67.75
286.134	-2.22
286.349	42.84
286.564	-4.27
286.779	89.94
286.995	34.64
287.21	-88.23
287.425	-39.08
287.64	-2.22
287.855	-8.36
288.07	-41.13
288.285	87.89
288.5	67.41
288.715	104.28
288.93	-34.99
289.145	12.12
289.36	87.89
289.575	30.55
289.79	114.52
290.004	8.02
290.219	67.41
290.434	1.88
290.649	30.55
290.864	28.5
291.079	110.42
291.294	85.84
291.509	46.93
291.724	-0.17
291.938	-20.65
292.153	65.36
292.368	36.69
292.583	36.69
292.798	102.23
293.012	59.22
293.227	-16.55
293.442	-37.03
293.657	79.7
293.871	135
294.086	141.14
294.301	143.19
294.516	155.47
294.73	48.98
294.945	-75.95
295.16	65.36
295.374	48.98
295.589	75.6
295.804	-49.32
296.018	61.27
296.233	126.8
296.447	-2.22
296.662	22.36
296.877	167.76
297.091	32.6
297.306	73.56
297.52	5.97
297.735	96.08
297.949	44.88
298.164	42.84
298.378	114.52
298.593	8.02
298.807	-24.75
299.022	-8.36
299.236	186.19
299.451	-30.89
299.665	42.84
299.88	-12.46
300.094	112.47
300.309	77.65
300.523	-8.36
300.737	-6.31
300.952	87.89
301.166	110.42
301.381	3.93
301.595	26.45
301.809	-4.27
302.024	67.41
302.238	12.12
302.452	163.67
302.667	1.88
302.881	151.38
303.095	63.32
303.309	-4.27
303.524	36.69
303.738	-28.84
303.952	-96.43
304.166	26.45
304.381	-145.58
304.595	114.52
304.809	-67.75
305.023	26.45
305.237	42.84
305.452	1.88
305.666	34.64
305.88	128.85
306.094	57.17
306.308	28.5
306.522	30.55
306.736	32.6
306.95	89.94
307.164	-6.31
307.379	16.21
307.593	159.57
307.807	116.56
308.021	32.6
308.235	1.88
308.449	-10.41
308.663	53.08
308.877	225.11
309.091	28.5
309.305	79.7
309.519	-73.9
309.733	77.65
309.947	-75.95
310.161	65.36
310.374	20.31
310.588	91.99
310.802	-12.46
311.016	73.56
311.23	10.07
311.444	26.45
311.658	77.65
311.872	94.04
312.085	83.8
312.299	157.52
312.513	116.56
312.727	98.13
312.941	69.46
313.154	28.5
313.368	20.31
313.582	44.88
313.796	48.98
314.009	-84.14
314.223	102.23
314.437	83.8
314.651	71.51
314.864	36.69
315.078	-34.99
315.292	-32.94
315.505	36.69
315.719	8.02
315.933	-2.22
316.146	44.88
316.36	-80.04
316.573	159.57
316.787	89.94
317.001	-22.7
317.214	-14.51
317.428	75.6
317.641	-65.71
317.855	-8.36
318.068	-2.22
318.282	51.03
318.495	128.85
318.709	48.98
318.922	51.03
319.136	106.32
319.349	65.36
319.563	-26.79
319.776	22.36
319.99	-55.47
320.203	102.23
320.417	3.93
320.63	69.46
320.843	159.57
321.057	22.36
321.27	-18.6
321.483	61.27
321.697	102.23
321.91	-45.23
322.124	69.46
322.337	65.36
322.55	-102.57
322.763	-20.65
322.977	-14.51
323.19	-47.27
323.403	46.93
323.617	67.41
323.83	28.5
324.043	22.36
324.256	44.88
324.469	-80.04
324.683	85.84
324.896	-59.56
325.109	26.45
325.322	-116.9
325.535	130.9
325.748	161.62
325.962	8.02
326.175	18.26
326.388	67.41
326.601	75.6
326.814	-28.84
327.027	18.26
327.24	147.28
327.453	-55.47
327.666	112.47
327.879	143.19
328.092	18.26
328.305	110.42
328.518	42.84
328.731	32.6
328.944	-49.32
329.157	44.88
329.37	-4.27
329.583	122.71
329.796	155.47
330.009	3.93
330.222	102.23
330.435	79.7
330.648	26.45
330.861	91.99
331.073	75.6
331.286	79.7
331.499	12.12
331.712	-41.13
331.925	98.13
332.138	57.17
332.35	83.8
332.563	28.5
332.776	161.62
332.989	-73.9
333.202	-61.61
333.414	46.93
333.627	3.93
333.84	14.17
334.053	16.21
334.265	3.93
334.478	-39.08
334.691	-10.41
334.903	22.36
335.116	-110.76
335.329	-26.79
335.541	8.02
335.754	200.53
335.966	-28.84
336.179	-12.46
336.392	10.07
336.604	-24.75
336.817	22.36
337.029	30.55
337.242	10.07
337.454	67.41
337.667	-2.22
337.88	89.94
338.092	46.93
338.305	38.74
338.517	14.17
338.729	112.47
338.942	147.28
339.154	-77.99
339.367	-92.33
339.579	94.04
339.792	-49.32
340.004	77.65
340.217	10.07
340.429	63.32
340.641	-39.08
340.854	-43.18
341.066	55.12
341.278	94.04
341.491	200.53
341.703	8.02
341.915	-53.42
342.128	120.66
342.34	79.7
342.552	-112.81
342.764	8.02
342.977	-14.51
343.189	34.64
343.401	81.75
343.613	-67.75
343.826	34.64
344.038	-12.46
344.25	46.93
344.462	-28.84
344.674	18.26
344.886	3.93
345.099	106.32
345.311	112.47
345.523	-2.22
345.735	-65.71
345.947	26.45
346.159	-41.13
346.371	-18.6
346.583	1.88
346.795	175.95
347.007	-45.23
347.219	51.03
347.431	-51.37
347.643	112.47
347.855	89.94
348.067	190.29
348.279	34.64
348.491	30.55
348.703	59.22
348.915	53.08
349.127	-45.23
349.339	51.03
349.551	3.93
349.763	87.89
349.975	30.55
350.187	126.8
350.399	155.47
350.61	89.94
350.822	-32.94
351.034	63.32
351.246	26.45
351.458	98.13
351.669	65.36
351.881	32.6
352.093	128.85
352.305	81.75
352.517	-2.22
352.728	139.09
352.94	40.79
353.152	63.32
353.363	-77.99
353.575	67.41
353.787	137.04
353.999	77.65
354.21	159.57
354.422	79.7
354.633	14.17
354.845	51.03
355.057	40.79
355.268	75.6
355.48	20.31
355.692	-18.6
355.903	36.69
356.115	-45.23
356.326	-108.71
356.538	173.91
356.749	79.7
356.961	79.7
357.172	-39.08
357.384	-61.61
357.595	163.67
357.807	-53.42
358.018	-24.75
358.23	44.88
358.441	190.29
358.653	79.7
358.864	26.45
359.075	-108.71
359.287	112.47
359.498	77.65
359.709	3.93
359.921	-59.56
360.132	-12.46
360.344	30.55
360.555	-71.85
360.766	36.69
360.977	20.31
361.189	104.28
361.4	8.02
361.611	130.9
361.823	147.28
362.034	36.69
362.245	-16.55
362.456	79.7
362.667	118.61
362.879	-131.24
363.09	132.95
363.301	175.95
363.512	85.84
363.723	-63.66
363.935	-28.84
364.146	67.41
364.357	-4.27
364.568	83.8
364.779	-69.8
364.99	118.61
365.201	1.88
365.412	59.22
365.623	-143.53
365.834	69.46
366.045	1.88
366.256	48.98
366.467	102.23
366.678	12.12
366.889	46.93
367.1	22.36
367.311	24.4
367.522	-10.41
367.733	44.88
367.944	36.69
368.155	57.17
368.366	65.36
368.577	165.71
368.788	38.74
368.999	-82.09
369.209	22.36
369.42	216.91
369.631	239.44
369.842	34.64
370.053	26.45
370.264	26.45
370.474	-71.85
370.685	57.17
370.896	-4.27
371.107	137.04
371.317	75.6
371.528	18.26
371.739	173.91
371.95	12.12
372.16	100.18
372.371	-32.94
372.582	-16.55
372.792	32.6
373.003	44.88
373.214	145.24
373.424	53.08
373.635	1.88
373.846	108.37
374.056	-55.47
374.267	12.12
374.477	77.65
374.688	-16.55
374.898	-4.27
375.109	14.17
375.319	83.8
375.53	83.8
375.74	32.6
375.951	-22.7
376.161	89.94
376.372	114.52
376.582	-73.9
376.793	69.46
377.003	-88.23
377.214	-30.89
377.424	120.66
377.635	87.89
377.845	-41.13
378.055	135
378.266	-49.32
378.476	77.65
378.686	135
378.897	34.64
379.107	73.56
379.317	79.7
379.528	-69.8
379.738	71.51
379.948	-30.89
380.158	100.18
380.369	32.6
380.579	65.36
380.789	20.31
380.999	59.22
381.21	118.61
381.42	180.05
381.63	-10.41
381.84	16.21
382.05	-4.27
382.261	38.74
382.471	132.95
382.681	-10.41
382.891	116.56
383.101	40.79
383.311	-24.75
383.521	-73.9
383.731	112.47
383.941	69.46
384.151	77.65
384.361	30.55
384.571	98.13
384.781	-14.51
384.991	139.09
385.201	153.43
385.411	32.6
385.621	106.32
385.831	137.04
386.041	30.55
386.251	5.97
386.461	153.43
386.671	-0.17
386.881	18.26
387.091	36.69
387.301	89.94
387.511	22.36
387.72	126.8
387.93	122.71
388.14	-8.36
388.35	42.84
388.56	85.84
388.769	112.47
388.979	-37.03
389.189	-4.27
389.399	22.36
389.609	16.21
389.818	75.6
390.028	65.36
390.238	89.94
390.447	-34.99
390.657	118.61
390.867	5.97
391.076	-71.85
391.286	16.21
391.496	22.36
391.705	18.26
391.915	55.12
392.125	61.27
392.334	46.93
392.544	89.94
392.753	28.5
392.963	-22.7
393.172	79.7
393.382	8.02
393.591	157.52
393.801	-12.46
394.01	106.32
394.22	135
394.429	32.6
394.639	48.98
394.848	89.94
395.058	73.56
395.267	-12.46
395.477	38.74
395.686	18.26
395.895	257.87
396.105	141.14
396.314	63.32
396.524	30.55
396.733	-39.08
396.942	96.08
397.152	16.21
397.361	48.98
397.57	3.93
397.78	51.03
397.989	24.4
398.198	210.77
398.407	73.56
398.617	42.84
398.826	77.65
399.035	10.07
399.244	135
399.453	63.32
399.663	48.98
399.872	77.65
400.081	10.07
400.29	157.52
400.499	-0.17
400.708	75.6
400.917	-6.31
401.127	-2.22
401.336	-47.27
401.545	284.5
401.754	75.6
401.963	85.84
402.172	-10.41
402.381	-61.61
402.59	65.36
402.799	-61.61
403.008	71.51
403.217	96.08
403.426	71.51
403.635	-24.75
403.844	69.46
404.053	48.98
404.262	59.22
404.471	102.23
404.68	44.88
404.888	30.55
405.097	-12.46
405.306	10.07
405.515	30.55
405.724	-43.18
405.933	151.38
406.142	116.56
406.35	67.41
406.559	26.45
406.768	-2.22
406.977	141.14
407.185	22.36
407.394	8.02
407.603	-71.85
407.812	8.02
408.02	98.13
408.229	-24.75
408.438	30.55
408.646	-43.18
408.855	40.79
409.064	16.21
409.272	16.21
409.481	34.64
409.69	-39.08
409.898	-16.55
410.107	59.22
410.315	126.8
410.524	-4.27
410.733	42.84
410.941	-12.46
411.15	143.19
411.358	36.69
411.567	83.8
411.775	20.31
411.984	-39.08
412.192	69.46
412.401	12.12
412.609	118.61
412.818	102.23
413.026	114.52
413.234	-6.31
413.443	36.69
413.651	-28.84
413.86	40.79
414.068	73.56
414.276	81.75
414.485	44.88
414.693	171.86
414.901	106.32
415.11	55.12
415.318	34.64
415.526	85.84
415.734	143.19
415.943	65.36
416.151	87.89
416.359	-4.27
416.567	42.84
416.776	16.21
416.984	42.84
417.192	182.1
417.4	-12.46
417.608	-26.79
417.817	-28.84
418.025	32.6
418.233	157.52
418.441	12.12
418.649	-47.27
418.857	36.69
419.065	114.52
419.273	-16.55
419.481	42.84
419.689	51.03
419.897	48.98
420.105	-106.67
420.313	106.32
420.521	155.47
420.729	116.56
420.937	5.97
421.145	1.88
421.353	36.69
421.561	116.56
421.769	102.23
421.977	-4.27
422.185	81.75
422.393	-8.36
422.601	51.03
422.809	10.07
423.017	1.88
423.224	91.99
423.432	89.94
423.64	30.55
423.848	151.38
424.056	48.98
424.263	73.56
424.471	44.88
424.679	57.17
424.887	-10.41
425.094	18.26
425.302	44.88
425.51	-16.55
425.718	81.75
425.925	73.56
426.133	-0.17
426.341	210.77
426.548	36.69
426.756	14.17
426.964	51.03
427.171	34.64
427.379	16.21
427.586	28.5
427.794	44.88
428.001	83.8
428.209	67.41
428.417	182.1
428.624	102.23
428.832	69.46
429.039	38.74
429.247	38.74
429.454	141.14
429.662	210.77
429.869	91.99
430.076	67.41
430.284	143.19
430.491	198.48
430.699	139.09
430.906	98.13
431.114	112.47
431.321	96.08
431.528	73.56
431.736	96.08
431.943	98.13
432.15	83.8
432.358	112.47
432.565	231.25
432.772	-55.47
432.979	190.29
433.187	44.88
433.394	124.76
433.601	85.84
433.808	227.15
434.016	171.86
434.223	190.29
434.43	184.15
434.637	221.01
434.844	188.24
435.052	135
435.259	190.29
435.466	298.83
435.673	108.37
435.88	100.18
436.087	212.82
436.294	356.18
436.501	120.66
436.708	159.57
436.915	237.39
437.122	343.89
437.329	122.71
437.537	233.3
437.743	190.29
437.95	335.7
438.157	235.35
438.364	186.19
438.571	247.63
438.778	255.83
438.985	261.97
439.192	350.03
439.399	192.34
439.606	266.07
439.813	284.5
440.02	434
440.227	446.29
440.433	313.17
440.64	399.18
440.847	292.69
441.054	362.32
441.261	507.73
441.467	434
441.674	423.76
441.881	468.81
442.088	345.94
442.294	466.77
442.501	483.15
442.708	614.22
442.914	520.01
443.121	511.82
443.328	571.21
443.534	663.37
443.741	669.52
443.948	579.4
444.154	675.66
444.361	853.83
444.568	687.95
444.774	739.15
444.981	646.99
445.187	862.02
445.394	778.06
445.6	765.77
445.807	962.37
446.013	872.26
446.22	776.01
446.426	948.04
446.633	1056.58
446.839	1130.31
447.046	958.28
447.252	1167.17
447.459	1138.5
447.665	982.85
447.871	1265.47
448.078	1343.3
448.284	1226.56
448.491	1414.98
448.697	1433.41
448.903	1449.79
449.11	1496.89
449.316	1367.87
449.522	1642.3
449.728	1615.68
449.935	1744.7
450.141	1638.2
450.347	1834.81
450.553	1752.89
450.76	1974.07
450.966	1875.77
451.172	1978.17
451.378	2002.74
451.584	2215.73
451.791	2338.61
451.997	2309.94
452.203	2346.8
452.409	2670.38
452.615	2590.51
452.821	2488.11
453.027	2617.13
453.233	2996.01
453.44	2731.82
453.646	2963.24
453.852	3075.88
454.058	3161.89
454.264	3417.89
454.47	3503.9
454.676	3534.62
454.882	3854.11
455.088	3673.89
455.294	4001.56
455.5	4140.82
455.705	4591.38
455.911	4503.31
456.117	4632.33
456.323	4728.59
456.529	4722.45
456.735	5199.62
456.941	5322.5
457.147	5441.28
457.352	5666.56
457.558	5525.25
457.764	6070.01
457.97	6188.79
458.176	6491.89
458.381	6928.11
458.587	6962.92
458.793	7309.03
458.999	7286.5
459.204	8103.64
459.41	8470.23
459.616	8347.35
459.821	8693.46
460.027	9125.58
460.233	9559.75
460.438	9699.01
460.644	10192.57
460.85	10374.84
461.055	10718.9
461.261	11423.4
461.466	11060.91
461.672	11333.29
461.878	12375.7
462.083	12326.55
462.289	12603.03
462.494	13438.6
462.7	13278.86
462.905	13414.02
463.111	14718.58
463.316	15244.91
463.522	15525.48
463.727	15902.31
463.932	17077.84
464.138	17282.64
464.343	17681.99
464.549	17829.45
464.754	19424.81
464.959	19777.06
465.165	20133.41
465.37	20039.2
465.575	19869.22
465.781	21493.26
465.986	21888.52
466.191	21669.39
466.397	21687.82
466.602	21345.81
466.807	22478.33
467.012	22795.77
467.218	23356.91
467.423	23422.45
467.628	24051.17
467.833	25277.91
468.038	24638.94
468.244	24489.44
468.449	25257.43
468.654	24907.23
468.859	25243.09
469.064	24876.51
469.269	24450.53
469.474	24534.49
469.679	25288.15
469.885	24806.87
470.09	25212.37
470.295	25300.44
470.5	24643.04
470.705	24524.26
470.91	23918.06
471.115	23848.43
471.32	24002.02
471.525	24137.19
471.73	23684.59
471.935	22975.99
472.139	22390.27
472.344	22566.4
472.549	22310.4
472.754	21673.48
472.959	21292.56
473.164	20475.42
473.369	20065.83
473.574	20719.13
473.778	20295.2
473.983	20336.16
474.188	19873.32
474.393	18945.59
474.598	18835
474.802	18376.25
475.007	17804.87
475.212	17831.49
475.417	17182.29
475.621	17112.66
475.826	16934.48
476.031	16447.07
476.235	16275.04
476.44	16123.49
476.645	15879.78
476.849	15613.54
477.054	15144.56
477.259	14675.57
477.463	15072.88
477.668	14401.15
477.872	14620.28
478.077	14096
478.282	13497.99
478.486	13530.76
478.691	13346.44
478.895	13495.94
479.1	13428.36
479.304	13278.86
479.509	12533.4
479.713	13217.42
479.918	12514.97
480.122	12428.95
480.326	12476.05
480.531	12320.41
480.735	12175
480.94	11876
481.144	12322.46
481.348	11703.97
481.553	11959.97
481.757	11687.59
481.961	11685.54
482.166	11542.18
482.37	11327.14
482.574	11175.59
482.778	11404.97
482.983	11411.11
483.187	11220.65
483.391	11013.81
483.595	10884.78
483.8	10712.75
484.004	10995.37
484.208	10915.5
484.412	10753.71
484.616	10626.74
484.821	10305.21
485.025	10008.25
485.229	10096.32
485.433	10022.59
485.637	9742.02
485.841	9731.78
486.045	9600.71
486.249	9623.23
486.453	9346.76
486.657	9088.71
486.861	9076.43
487.065	8888.01
487.269	8857.29
487.473	8642.26
487.677	8636.11
487.881	8795.86
488.085	8373.97
488.289	8206.04
488.493	8023.77
488.697	8040.15
488.901	7900.89
489.105	7743.2
489.309	7450.34
489.512	7386.85
489.716	7210.73
489.92	7173.86
490.124	7091.95
490.328	6964.97
490.531	6766.32
490.735	6749.93
490.939	6663.92
491.143	6303.48
491.346	6350.58
491.55	6502.13
491.754	6162.17
491.958	6137.59
492.161	6088.44
492.365	5869.31
492.569	5740.29
492.772	5715.71
492.976	5691.13
493.18	5607.17
493.383	5660.41
493.587	5545.73
493.79	5414.66
493.994	5363.46
494.197	5259.01
494.401	5373.7
494.605	5164.81
494.808	5175.05
495.012	5132.04
495.215	5175.05
495.419	5129.99
495.622	4988.68
495.825	5019.4
496.029	4970.25
496.232	5185.29
496.436	4974.35
496.639	4966.15
496.843	4876.04
497.046	4921.1
497.249	5052.17
497.453	4937.48
497.656	4968.2
497.859	4984.59
498.063	4978.44
498.266	5144.33
498.469	4960.01
498.673	5041.93
498.876	5103.37
499.079	4929.29
499.282	5058.31
499.485	5392.13
499.689	5005.06
499.892	5156.61
500.095	5383.94
500.298	5199.62
500.501	5203.72
500.705	5318.4
500.908	5299.97
501.111	5336.84
501.314	5660.41
501.517	5664.51
501.72	5369.6
501.923	5699.33
502.126	5723.9
502.329	5854.97
502.532	5889.79
502.735	5928.7
502.938	6045.43
503.141	6100.73
503.344	6041.34
503.547	6364.92
503.75	6225.65
503.953	6491.89
504.156	6532.85
504.359	6651.63
504.562	6745.84
504.765	6852.33
504.968	6913.77
505.17	7026.41
505.373	7134.95
505.576	7165.67
505.779	7272.17
505.982	7298.79
506.185	7558.88
506.387	7565.03
506.59	7937.76
506.793	8111.83
506.996	8070.87
507.198	8658.64
507.401	8361.69
507.604	8750.8
507.807	8963.79
508.009	8865.49
508.212	9182.92
508.415	9158.35
508.617	9461.44
508.82	9555.65
509.022	9772.74
509.225	10161.85
509.428	10180.28
509.63	10475.19
509.833	10677.94
510.035	11222.7
510.238	10983.09
510.44	11431.59
510.643	11533.99
510.845	11972.25
511.048	12205.72
511.25	12662.42
511.453	12664.47
511.655	13289.1
511.858	13379.21
512.06	13725.32
512.262	14073.47
512.465	14083.71
512.667	14558.84
512.87	15220.33
513.072	15189.61
513.274	15466.09
513.477	15828.58
513.679	16316
513.881	16715.35
514.084	17174.1
514.286	17509.96
514.488	17636.94
514.69	18564.67
514.893	18535.99
515.095	19127.86
515.297	19430.96
515.499	19858.98
515.701	20278.82
515.904	20872.73
516.106	20966.93
516.308	21556.75
516.51	22242.82
516.712	22545.92
516.914	22863.35
517.116	23668.2
517.318	23633.39
517.52	24405.47
517.722	24663.52
517.925	24901.08
518.127	25992.65
518.329	26330.56
518.531	26424.77
518.733	27024.82
518.935	27768.24
519.136	28061.1
519.338	28790.17
519.54	28581.28
519.742	29361.56
519.944	29875.6
520.146	30543.24
520.348	30702.98
520.55	31026.56
520.752	31425.91
520.954	31884.65
521.155	32085.36
521.357	32978.27
521.559	33138.01
521.761	33936.72
521.963	33752.4
522.164	34026.83
522.366	34266.44
522.568	35036.48
522.77	34719.04
522.971	36029.74
523.173	35411.26
523.375	36058.42
523.576	35792.18
523.778	36175.15
523.98	36928.8
524.181	36973.86
524.383	36771.11
524.584	37326.11
524.786	37541.14
524.988	37225.76
525.189	37301.53
525.391	37350.68
525.592	37463.32
525.794	37778.71
525.995	37983.51
526.197	37516.57
526.398	37893.4
526.6	37397.79
526.801	38085.9
527.003	37580.06
527.204	37440.79
527.406	37737.75
527.607	37004.58
527.808	37522.71
528.01	36443.43
528.211	36754.72
528.412	37149.98
528.614	36742.44
528.815	36173.1
529.016	35925.3
529.218	35663.16
529.419	35550.52
529.62	35335.48
529.822	34860.35
530.023	34540.87
530.224	34239.82
530.425	34336.07
530.626	33609.04
530.828	33035.61
531.029	33588.56
531.23	32701.79
531.431	31905.13
531.632	32058.73
531.833	31653.23
532.035	31688.05
532.236	30782.85
532.437	30649.73
532.638	29961.61
532.839	30209.42
533.04	29672.85
533.241	29085.08
533.442	29187.48
533.643	28421.54
533.844	28022.19
534.045	28083.62
534.246	27434.42
534.447	26932.67
534.648	26707.39
534.849	26594.75
535.05	25728.46
535.251	25691.6
535.451	25296.34
535.652	25134.55
535.853	24686.04
536.054	24487.39
536.255	24360.42
536.456	23434.74
536.657	23418.35
536.857	22849.02
537.058	22566.4
537.259	22631.93
537.46	22140.42
537.66	21448.21
537.861	21618.19
538.062	21358.1
538.263	21079.57
538.463	20573.72
538.664	20500
538.865	20196.9
539.065	20289.06
539.266	19725.86
539.466	19740.2
539.667	19023.41
539.868	19183.15
540.068	18808.37
540.269	18556.47
540.469	18511.42
540.67	18212.42
540.87	18021.95
541.071	17720.9
541.271	17600.07
541.472	17442.38
541.672	17294.93
541.873	16731.73
542.073	16434.78
542.274	16782.93
542.474	16348.76
542.675	16051.81
542.875	16180.83
543.075	15709.8
543.276	15595.11
543.476	15441.51
543.676	15486.57
543.877	15273.58
544.077	15076.98
544.277	15048.3
544.478	14595.7
544.678	14663.29
544.878	14202.49
545.078	14167.68
545.279	13987.46
545.479	13864.58
545.679	13700.74
545.879	13432.46
546.079	13395.59
546.28	13022.86
546.48	12957.33
546.68	12940.94
546.88	12695.19
547.08	12689.04
547.28	12588.69
547.48	12183.2
547.68	12279.45
547.88	11839.14
548.081	11796.13
548.281	11773.6
548.481	11443.88
548.681	11443.88
548.881	11343.53
549.081	11144.88
549.28	10817.2
549.48	10784.43
549.68	11032.24
549.88	10712.75
550.08	10215.1
550.28	10399.41
550.48	10262.2
550.68	10151.61
550.88	9690.82
551.08	9668.29
551.279	9715.39
551.479	9330.37
551.679	9500.36
551.879	9105.1
552.079	9230.02
552.278	8853.2
552.478	8728.27
552.678	8496.85
552.878	8701.65
553.077	8406.74
553.277	8251.1
553.477	8308.44
553.676	8201.94
553.876	7790.3
554.076	7769.82
554.275	7687.9
554.475	7378.66
554.674	7403.24
554.874	7419.62
555.074	7079.66
555.273	7075.56
555.473	6909.68
555.672	6717.17
555.872	6694.64
556.071	6584.05
556.271	6508.27
556.47	6395.64
556.67	6250.23
556.869	6188.79
557.068	6231.8
557.268	6059.77
557.467	5940.99
557.667	5908.22
557.866	5568.26
558.065	5428.99
558.265	5656.32
558.464	5312.26
558.663	5508.87
558.863	5175.05
559.062	5379.84
559.261	5015.3
559.461	5056.26
559.66	4855.56
559.859	4652.81
560.058	4777.74
560.258	4587.28
560.457	4603.66
560.656	4722.45
560.855	4339.48
561.054	4482.83
561.253	4259.6
561.453	4314.9
561.652	4337.43
561.851	4177.69
562.05	3880.73
562.249	3831.58
562.448	3901.21
562.647	3944.22
562.846	3755.8
563.045	3833.63
563.244	3637.02
563.443	3602.21
563.642	3526.43
563.841	3647.26
564.04	3419.94
564.239	3415.84
564.438	3413.79
564.637	3262.24
564.836	3102.5
565.035	3061.54
565.234	3286.82
565.432	3223.33
565.631	3168.04
565.83	3094.31
566.029	3034.92
566.228	3016.49
566.427	3020.58
566.625	2799.4
566.824	2844.46
567.023	2787.11
567.222	2684.72
567.42	2836.27
567.619	2647.85
567.818	2608.94
568.016	2871.08
568.215	2510.64
568.414	2610.99
568.612	2363.19
568.811	2438.96
569.01	2393.9
569.208	2395.95
569.407	2350.9
569.605	2410.29
569.804	2273.07
570.002	2133.81
570.201	2094.9
570.4	2230.07
570.598	2172.72
570.797	2035.51
570.995	1937.21
571.193	2086.71
571.392	2002.74
571.59	1859.38
571.789	1947.45
571.987	1812.28
572.186	1994.55
572.384	1894.2
572.582	1853.24
572.781	1883.96
572.979	1668.92
573.177	1726.27
573.376	1662.78
573.574	1761.08
573.772	1634.11
573.971	1576.77
574.169	1503.04
574.367	1589.05
574.565	1457.98
574.763	1527.61
574.962	1451.84
575.16	1505.09
575.358	1345.34
575.556	1423.17
575.754	1431.36
575.952	1412.93
576.151	1341.25
576.349	1468.22
576.547	1228.61
576.745	1240.9
576.943	1357.63
577.141	1183.56
577.339	1204.03
577.537	1294.15
577.735	1204.03
577.933	1222.47
578.131	1279.81
578.329	1285.95
578.527	1072.96
578.725	1197.89
578.923	968.52
579.121	1079.11
579.319	984.9
579.516	927.56
579.714	1224.51
579.912	1156.93
580.11	915.27
580.308	1029.96
580.506	898.89
580.704	839.5
580.901	890.7
581.099	1015.62
581.297	931.66
581.495	902.98
581.692	872.26
581.89	948.04
582.088	833.35
582.285	821.06
582.483	812.87
582.681	741.19
582.878	747.34
583.076	909.13
583.274	810.82
583.471	821.06
583.669	733
583.866	710.47
584.064	741.19
584.262	661.32
584.459	620.36
584.657	749.39
584.854	755.53
585.052	733
585.249	788.3
585.447	698.19
585.644	536.4
585.841	745.29
586.039	751.43
586.236	749.39
586.434	610.12
586.631	608.08
586.828	614.22
587.026	601.93
587.223	520.01
587.42	587.6
587.618	581.45
587.815	630.6
588.012	595.79
588.21	581.45
588.407	546.64
588.604	671.56
588.801	507.73
588.999	534.35
589.196	532.3
589.393	485.2
589.59	538.45
589.787	575.31
589.984	493.39
590.182	491.34
590.379	464.72
590.576	505.68
590.773	438.09
590.97	458.57
591.167	460.62
591.364	565.07
591.561	495.44
591.758	642.89
591.955	472.91
592.152	456.53
592.349	485.2
592.546	460.62
592.743	448.33
592.94	485.2
593.137	489.29
593.334	558.92
593.531	589.64
593.727	489.29
593.924	421.71
594.121	534.35
594.318	509.77
594.515	501.58
594.712	528.21
594.908	599.88
595.105	315.22
595.302	487.25
595.499	491.34
595.696	663.37
595.892	466.77
596.089	499.53
596.286	538.45
596.482	649.04
596.679	618.32
596.876	585.55
597.072	671.56
597.269	573.26
597.466	655.18
597.662	616.27
597.859	642.89
598.055	597.84
598.252	624.46
598.448	767.82
598.645	802.63
598.841	728.91
599.038	821.06
599.234	839.5
599.431	878.41
599.627	968.52
599.824	950.09
600.02	915.27
600.217	835.4
600.413	980.81
600.609	1003.33
600.806	1320.77
601.002	1132.36
601.198	1152.84
601.395	1290.05
601.591	1046.34
601.787	1228.61
601.984	1292.1
602.18	1361.73
602.376	1367.87
602.572	1597.24
602.769	1681.21
602.965	1466.17
603.161	1638.2
603.357	1795.9
603.553	1793.85
603.75	1677.12
603.946	1834.81
604.142	1904.44
604.338	2074.42
604.534	1957.69
604.73	1990.45
604.926	2080.57
605.122	2375.47
605.318	2250.55
605.514	2379.57
605.71	2395.95
605.906	2623.28
606.102	2514.73
606.298	2707.24
606.494	2643.76
606.69	2971.43
606.886	2897.71
607.082	2907.94
607.278	3039.01
607.474	3116.84
607.67	3036.97
607.866	3157.8
608.062	3499.81
608.257	3489.57
608.453	3508
608.649	3700.51
608.845	3725.08
609.041	3774.24
609.236	4095.77
609.432	4093.72
609.628	4282.13
609.824	4302.61
610.019	4329.24
610.215	4564.75
610.411	4841.23
610.606	4912.91
610.802	5015.3
610.998	4921.1
611.193	5226.25
611.389	5353.22
611.584	5490.43
611.78	5390.08
611.976	5705.47
612.171	5977.85
612.367	6008.57
612.562	6047.48
612.758	6196.98
612.953	6373.11
613.149	6657.78
613.344	6807.28
613.539	6969.07
613.735	7229.16
613.93	7401.19
614.126	7384.8
614.321	7689.95
614.517	7982.81
614.712	8224.47
614.907	8253.14
615.103	8404.69
615.298	8734.42
615.493	9170.63
615.688	8931.02
615.884	9639.62
616.079	9449.16
616.274	9782.98
616.47	9955.01
616.665	10436.28
616.86	10464.95
617.055	10735.28
617.25	11050.67
617.445	11554.47
617.641	11433.64
617.836	12150.43
618.031	12097.18
618.226	12752.53
618.421	12912.27
618.616	13207.18
618.811	13248.14
619.006	13815.43
619.201	14077.57
619.396	14157.44
619.591	14204.54
619.786	14982.77
619.981	14958.19
620.176	15674.98
620.371	15662.69
620.566	16365.15
620.761	16473.69
620.956	16944.72
621.151	17024.59
621.346	17911.36
621.541	17546.83
621.735	18323.01
621.93	18345.53
622.125	18908.72
622.32	18918.96
622.515	19719.72
622.709	19893.8
622.904	20053.54
623.099	20532.76
623.294	21020.18
623.488	20983.32
623.683	21546.51
623.878	21626.38
624.072	22474.24
624.267	22584.83
624.462	23094.77
624.656	23422.45
624.851	23879.14
625.046	23950.82
625.24	24495.58
625.435	24409.57
625.629	24819.16
625.824	25331.15
626.018	25796.04
626.213	25533.9
626.407	26103.24
626.602	26344.9
626.796	26875.32
626.991	26985.91
627.185	27053.5
627.38	27426.23
627.574	27555.25
627.768	27807.15
627.963	27751.85
628.157	27659.7
628.352	28165.54
628.546	27821.48
628.74	28515.75
628.935	27872.68
629.129	28069.29
629.323	27766.19
629.517	27753.9
629.712	27823.53
629.906	27590.06
630.1	27071.93
630.294	26961.34
630.489	26402.24
630.683	26404.29
630.877	25619.92
631.071	25404.88
631.265	25429.46
631.459	24606.17
631.653	24149.48
631.848	23422.45
632.042	22941.18
632.236	22707.71
632.43	21704.2
632.624	21610
632.818	20741.66
633.012	20047.4
633.206	19181.1
633.4	19029.55
633.594	17952.32
633.788	17679.94
633.982	17180.24
634.176	16676.44
634.369	15887.97
634.563	15136.37
634.757	14806.64
634.951	14323.32
635.145	13573.77
635.339	12961.42
635.533	12656.28
635.726	12023.45
635.92	11572.9
636.114	11073.2
636.308	10616.5
636.501	10284.73
636.695	9856.7
636.889	9479.88
637.083	9014.99
637.276	8519.38
637.47	8079.07
637.664	7929.56
637.857	7632.61
638.051	7333.61
638.244	7116.52
638.438	6747.89
638.632	6682.35
638.825	6039.29
639.019	5940.99
639.212	5691.13
639.406	5555.97
639.599	5345.03
639.793	5281.54
639.986	4886.28
640.18	4912.91
640.373	4464.4
640.567	4323.09
640.76	4220.69
640.954	4085.53
641.147	3876.63
641.34	3727.13
641.534	3561.25
641.727	3518.24
641.92	3368.74
642.114	3168.04
642.307	3069.73
642.5	3039.01
642.694	2858.79
642.887	2592.56
643.08	2707.24
643.273	2557.74
643.467	2477.87
643.66	2299.7
643.853	2182.96
644.046	2119.48
644.239	2133.81
644.432	2015.03
644.626	1912.63
644.819	1746.75
645.012	1754.94
645.205	1867.58
645.398	1709.88
645.591	1687.36
645.784	1464.13
645.977	1437.5
646.17	1398.59
646.363	1410.88
646.556	1242.95
646.749	1226.56
646.942	1177.41
647.135	1183.56
647.328	1208.13
647.521	1179.46
647.714	1042.25
647.907	1040.2
648.099	894.79
648.292	1044.29
648.485	911.18
648.678	862.02
648.871	829.26
649.064	771.91
649.256	755.53
649.449	698.19
649.642	673.61
649.835	683.85
650.027	681.8
650.22	829.26
650.413	636.75
650.605	696.14
650.798	616.27
650.991	513.87
651.183	634.7
651.376	534.35
651.568	567.12
651.761	444.24
651.954	505.68
652.146	425.81
652.339	495.44
652.531	538.45
652.724	372.56
652.916	380.75
653.109	255.83
653.301	520.01
653.494	436.05
653.686	382.8
653.879	384.85
654.071	403.28
654.263	366.42
654.456	382.8
654.648	296.78
654.84	405.33
655.033	266.07
655.225	458.57
655.417	194.39
655.61	368.46
655.802	311.12
655.994	507.73
656.186	163.67
656.379	374.61
656.571	141.14
656.763	221.01
656.955	237.39
657.148	208.72
657.34	333.65
657.532	184.15
657.724	171.86
657.916	210.77
658.108	223.06
658.3	223.06
658.492	264.02
658.684	235.35
658.876	231.25
659.068	79.7
659.26	96.08
659.452	128.85
659.644	196.43
659.836	257.87
660.028	157.52
660.22	182.1
660.412	163.67
660.604	188.24
660.796	227.15
660.988	241.49
661.18	161.62
661.372	216.91
661.563	216.91
661.755	157.52
661.947	141.14
662.139	108.37
662.331	194.39
662.522	100.18
662.714	81.75
662.906	44.88
663.097	173.91
663.289	141.14
663.481	5.97
663.673	132.95
663.864	145.24
664.056	112.47
664.247	73.56
664.439	245.59
664.631	145.24
664.822	163.67
665.014	65.36
665.205	-12.46
665.397	75.6
665.588	132.95
665.78	141.14
665.971	198.48
666.163	83.8
666.354	149.33
666.546	20.31
666.737	180.05
666.929	108.37
667.12	94.04
667.311	122.71
667.503	143.19
667.694	147.28
667.885	135
668.077	81.75
668.268	1.88
668.459	71.51
668.651	79.7
668.842	110.42
669.033	55.12
669.224	-8.36
669.416	184.15
669.607	69.46
669.798	42.84
669.989	180.05
670.18	120.66
670.371	114.52
670.563	38.74
670.754	194.39
670.945	270.16
671.136	155.47
671.327	94.04
671.518	208.72
671.709	227.15
671.9	190.29
672.091	229.2
672.282	192.34
672.473	151.38
672.664	69.46
672.855	110.42
673.046	167.76
673.237	192.34
673.428	143.19
673.619	231.25
673.809	94.04
674	202.58
674.191	147.28
674.382	151.38
674.573	122.71
674.764	116.56
674.954	175.95
675.145	132.95
675.336	81.75
675.527	137.04
675.717	89.94
675.908	216.91
676.099	94.04
676.289	196.43
676.48	48.98
676.671	135
676.861	132.95
677.052	128.85
677.243	120.66
677.433	89.94
677.624	200.53
677.814	225.11
678.005	171.86
678.195	178
678.386	132.95
678.576	151.38
678.767	69.46
678.957	149.33
679.148	169.81
679.338	286.54
679.529	233.3
679.719	163.67
679.909	280.4
680.1	251.73
680.29	282.45
680.481	102.23
680.671	221.01
680.861	276.31
681.052	196.43
681.242	159.57
681.432	270.16
681.622	304.98
681.813	169.81
682.003	190.29
682.193	120.66
682.383	112.47
682.573	77.65
682.764	143.19
682.954	233.3
683.144	286.54
683.334	192.34
683.524	221.01
683.714	264.02
683.904	257.87
684.094	118.61
684.284	194.39
684.474	343.89
684.664	325.46
684.854	225.11
685.044	278.35
685.234	257.87
685.424	216.91
685.614	118.61
685.804	360.27
685.994	321.36
686.184	235.35
686.374	311.12
686.564	196.43
686.753	200.53
686.943	153.43
687.133	241.49
687.323	173.91
687.513	243.54
687.702	225.11
687.892	223.06
688.082	274.26
688.272	274.26
688.461	239.44
688.651	323.41
688.841	288.59
689.03	233.3
689.22	280.4
689.41	323.41
689.599	253.78
689.789	243.54
689.979	296.78
690.168	225.11
690.358	298.83
690.547	221.01
690.737	231.25
690.926	278.35
691.116	261.97
691.305	282.45
691.495	284.5
691.684	151.38
691.874	171.86
692.063	245.59
692.252	339.79
692.442	292.69
692.631	188.24
692.82	194.39
693.01	255.83
693.199	182.1
693.388	206.67
693.578	223.06
693.767	268.11
693.956	272.21
694.146	157.52
694.335	216.91
694.524	202.58
694.713	304.98
694.902	200.53
695.092	145.24
695.281	282.45
695.47	188.24
695.659	143.19
695.848	161.62
696.037	116.56
696.226	264.02
696.415	188.24
696.604	315.22
696.793	288.59
696.982	194.39
697.171	388.94
697.36	221.01
697.549	163.67
697.738	126.8
697.927	155.47
698.116	116.56
698.305	241.49
698.494	221.01
698.683	161.62
698.872	296.78
699.061	214.87
699.25	235.35
699.438	202.58
699.627	204.63
699.816	325.46
700.005	118.61
700.193	186.19
700.382	251.73
700.571	196.43
700.76	298.83
700.948	241.49
701.137	216.91
701.326	221.01
701.514	218.96
701.703	288.59
701.892	243.54
702.08	290.64
702.269	204.63
702.457	137.04
702.646	200.53
702.834	173.91
703.023	188.24
703.212	253.78
703.4	237.39
703.589	173.91
703.777	169.81
703.965	147.28
704.154	192.34
704.342	118.61
704.531	167.76
704.719	259.92
704.907	274.26
705.096	182.1
705.284	135
705.472	194.39
705.661	210.77
705.849	345.94
706.037	298.83
706.226	233.3
706.414	286.54
706.602	135
706.79	241.49
706.979	190.29
707.167	180.05
707.355	147.28
707.543	272.21
707.731	184.15
707.919	188.24
708.107	157.52
708.296	145.24
708.484	182.1
708.672	272.21
708.86	266.07
709.048	208.72
709.236	182.1
709.424	266.07
709.612	235.35
709.8	151.38
709.988	196.43
710.176	259.92
710.364	339.79
710.551	167.76
710.739	141.14
710.927	180.05
711.115	139.09
711.303	333.65
711.491	350.03
711.679	241.49
711.866	210.77
712.054	188.24
712.242	208.72
712.43	180.05
712.617	214.87
712.805	315.22
712.993	198.48
713.181	110.42
713.368	173.91
713.556	173.91
713.744	112.47
713.931	360.27
714.119	298.83
714.306	241.49
714.494	178
714.682	202.58
714.869	190.29
715.057	212.82
715.244	110.42
715.432	257.87
715.619	120.66
715.807	212.82
715.994	184.15
716.182	245.59
716.369	178
716.556	229.2
716.744	137.04
716.931	114.52
717.119	239.44
717.306	200.53
717.493	261.97
717.681	178
717.868	229.2
718.055	218.96
718.242	290.64
718.43	304.98
718.617	386.9
718.804	194.39
718.991	237.39
719.179	266.07
719.366	194.39
719.553	366.42
719.74	175.95
719.927	214.87
720.114	210.77
720.301	130.9
720.488	196.43
720.676	206.67
720.863	386.9
721.05	327.5
721.237	239.44
721.424	298.83
721.611	272.21
721.798	186.19
721.985	235.35
722.172	302.93
722.358	216.91
722.545	376.66
722.732	227.15
722.919	376.66
723.106	274.26
723.293	311.12
723.48	393.04
723.667	147.28
723.853	329.55
724.04	243.54
724.227	372.56
724.414	261.97
724.6	266.07
724.787	298.83
724.974	411.47
725.161	264.02
725.347	210.77
725.534	264.02
725.72	307.02
725.907	333.65
726.094	251.73
726.28	161.62
726.467	341.84
726.653	266.07
726.84	354.13
727.027	483.15
727.213	300.88
727.4	370.51
727.586	296.78
727.773	266.07
727.959	243.54
728.145	298.83
728.332	225.11
728.518	257.87
728.705	364.37
728.891	298.83
729.077	323.41
729.264	257.87
729.45	307.02
729.636	356.18
729.823	276.31
730.009	372.56
730.195	358.22
730.382	302.93
730.568	247.63
730.754	282.45
730.94	212.82
731.126	319.31
731.313	329.55
731.499	319.31
731.685	440.14
731.871	368.46
732.057	304.98
732.243	413.52
732.429	345.94
732.615	429.9
732.801	354.13
732.987	307.02
733.173	300.88
733.359	280.4
733.545	393.04
733.731	401.23
733.917	362.32
734.103	345.94
734.289	347.98
734.475	286.54
734.661	429.9
734.847	333.65
735.033	266.07
735.219	343.89
735.404	325.46
735.59	229.2
735.776	309.07
735.962	331.6
736.148	362.32
736.333	464.72
736.519	302.93
736.705	333.65
736.89	290.64
737.076	282.45
737.262	233.3
737.447	343.89
737.633	319.31
737.819	421.71
738.004	282.45
738.19	302.93
738.375	434
738.561	397.14
738.747	329.55
738.932	208.72
739.118	509.77
739.303	384.85
739.489	376.66
739.674	362.32
739.859	257.87
740.045	364.37
740.23	255.83
740.416	212.82
740.601	337.74
740.786	411.47
740.972	261.97
741.157	323.41
741.342	190.29
741.528	343.89
741.713	446.29
741.898	315.22
742.084	378.7
742.269	362.32
742.454	343.89
742.639	417.61
742.824	251.73
743.01	450.38
743.195	382.8
743.38	343.89
743.565	339.79
743.75	212.82
743.935	352.08
744.12	440.14
744.305	218.96
744.49	309.07
744.675	325.46
744.86	292.69
745.045	319.31
745.23	372.56
745.415	329.55
745.6	462.67
745.785	290.64
745.97	374.61
746.155	294.74
746.34	388.94
746.525	321.36
746.71	401.23
746.895	276.31
747.079	239.44
747.264	321.36
747.449	345.94
747.634	415.57
747.819	423.76
748.003	294.74
748.188	135
748.373	370.51
748.557	315.22
748.742	372.56
748.927	274.26
749.111	307.02
749.296	272.21
749.481	227.15
749.665	253.78
749.85	278.35
750.034	313.17
750.219	403.28
750.404	180.05
750.588	290.64
750.773	212.82
750.957	208.72
751.141	241.49
751.326	274.26
751.51	208.72
751.695	237.39
751.879	270.16
752.064	358.22
752.248	241.49
752.432	317.26
752.617	315.22
752.801	329.55
752.985	300.88
753.17	370.51
753.354	294.74
753.538	233.3
753.722	237.39
753.907	151.38
754.091	182.1
754.275	167.76
754.459	175.95
754.643	239.44
754.828	235.35
755.012	239.44
755.196	114.52
755.38	198.48
755.564	210.77
755.748	249.68
755.932	315.22
756.116	280.4
756.3	257.87
756.484	200.53
756.668	237.39
756.852	102.23
757.036	122.71
757.22	266.07
757.404	200.53
757.588	141.14
757.772	245.59
757.956	221.01
758.14	200.53
758.323	59.22
758.507	296.78
758.691	184.15
758.875	294.74
759.059	319.31
759.242	202.58
759.426	151.38
759.61	145.24
759.794	147.28
759.977	292.69
760.161	395.09
760.345	333.65
760.528	253.78
760.712	270.16
760.895	155.47
761.079	147.28
761.263	79.7
761.446	196.43
761.63	116.56
761.813	307.02
761.997	102.23
762.18	159.57
762.364	237.39
762.547	14.17
762.731	100.18
762.914	192.34
763.098	161.62
763.281	112.47
763.464	81.75
763.648	139.09
763.831	108.37
764.015	106.32
764.198	196.43
764.381	126.8
764.564	169.81
764.748	167.76
764.931	141.14
765.114	94.04
765.297	161.62
765.481	94.04
765.664	122.71
765.847	83.8
766.03	272.21
766.213	96.08
766.397	75.6
766.58	-6.31
766.763	167.76
766.946	83.8
767.129	96.08
767.312	73.56
767.495	165.71
767.678	46.93
767.861	118.61
768.044	178
768.227	145.24
768.41	44.88
768.593	139.09
768.776	104.28
768.959	91.99
769.142	237.39
769.324	120.66
769.507	126.8
769.69	130.9
769.873	63.32
770.056	315.22
770.239	104.28
770.421	198.48
770.604	178
770.787	65.36
770.97	175.95
771.152	106.32
771.335	167.76
771.518	55.12
771.7	126.8
771.883	173.91
772.066	42.84
772.248	165.71
772.431	153.43
772.613	122.71
772.796	126.8
772.978	171.86
773.161	233.3
773.343	-28.84
773.526	132.95
773.708	3.93
773.891	-51.37
774.073	57.17
774.256	-12.46
774.438	239.44
774.621	3.93
774.803	161.62
774.985	48.98
775.168	110.42
775.35	87.89
775.532	155.47
775.715	77.65
775.897	112.47
776.079	55.12
776.261	182.1
776.444	8.02
776.626	69.46
776.808	75.6
776.99	36.69
777.173	42.84
777.355	65.36
777.537	77.65
777.719	159.57
777.901	79.7
778.083	38.74
778.265	24.4
778.447	63.32
778.629	12.12
778.811	36.69
778.993	98.13
779.175	130.9
779.357	112.47
779.539	-59.56
779.721	110.42
779.903	63.32
780.085	26.45
780.267	83.8
780.449	22.36
780.631	98.13
780.812	204.63
780.994	85.84
781.176	77.65
781.358	44.88
781.54	51.03
781.721	173.91
781.903	96.08
782.085	32.6
782.267	120.66
782.448	-34.99
782.63	26.45
782.812	57.17
782.993	42.84
783.175	83.8
783.357	-41.13
783.538	112.47
783.72	-16.55
783.901	-8.36
784.083	149.33
784.264	102.23
784.446	36.69
784.627	-18.6
784.809	91.99
784.99	24.4
785.172	81.75
785.353	36.69
785.535	26.45
785.716	-10.41
785.897	-16.55
786.079	75.6
786.26	69.46
786.441	94.04
786.623	-37.03
786.804	-49.32
786.985	42.84
787.167	81.75
787.348	8.02
787.529	48.98
787.71	122.71
787.891	122.71
788.073	34.64
788.254	-14.51
788.435	153.43
788.616	53.08
788.797	-22.7
788.978	10.07
789.159	36.69
789.34	69.46
789.522	36.69
789.703	12.12
789.884	24.4
790.065	55.12
790.246	132.95
790.427	36.69
790.607	178
790.788	73.56
790.969	-28.84
791.15	24.4
791.331	10.07
791.512	85.84
791.693	-4.27
791.874	-14.51
792.054	192.34
792.235	139.09
792.416	-49.32
792.597	-12.46
792.778	28.5
792.958	135
793.139	24.4
793.32	22.36
793.5	14.17
793.681	67.41
793.862	98.13
794.042	61.27
794.223	-0.17
794.404	-51.37
794.584	-45.23
794.765	61.27
794.945	75.6
795.126	32.6
795.306	155.47
795.487	-24.75
795.667	-8.36
795.848	30.55
796.028	38.74
796.209	51.03
796.389	79.7
796.57	55.12
796.75	-43.18
796.93	-0.17
797.111	-4.27
797.291	14.17
797.471	132.95
797.652	-73.9
797.832	-20.65
798.012	59.22
798.192	-32.94
798.373	-106.67
798.553	30.55
798.733	69.46
798.913	-69.8
799.093	-118.95
799.274	26.45
799.454	75.6
799.634	126.8
799.814	149.33
799.994	96.08
800.174	53.08
800.354	61.27
800.534	-14.51
800.714	139.09
800.894	-28.84
801.074	-82.09
801.254	-49.32
801.434	102.23
801.614	-73.9
801.794	-8.36
801.974	1722.17
802.154	8.02
802.334	38.74
802.514	-69.8
802.693	16.21
802.873	36.69
803.053	81.75
803.233	26.45
803.413	24.4
803.592	-0.17
803.772	-51.37
803.952	63.32
804.131	-37.03
804.311	18.26
804.491	173.91
804.67	-26.79
804.85	40.79
805.03	67.41
805.209	96.08
805.389	-16.55
805.568	79.7
805.748	-32.94
805.928	-8.36
806.107	16.21
806.287	-82.09
806.466	22.36
806.646	-0.17
806.825	-12.46
807.004	-22.7
807.184	-2.22
807.363	55.12
807.543	61.27
807.722	-34.99
807.901	96.08
808.081	26.45
808.26	-141.48
808.439	8.02
808.619	34.64
808.798	-67.75
808.977	28.5
809.156	94.04
809.336	26.45
809.515	143.19
809.694	-63.66
809.873	-26.79
810.052	75.6
810.231	124.76
810.411	85.84
810.59	42.84
810.769	51.03
810.948	81.75
811.127	-84.14
811.306	-24.75
811.485	-86.19
811.664	182.1
811.843	55.12
812.022	36.69
812.201	-39.08
812.38	71.51
812.559	-43.18
812.737	63.32
812.916	-37.03
813.095	-47.27
813.274	38.74
813.453	28.5
813.632	20.31
813.811	169.81
813.989	-96.43
814.168	8.02
814.347	-22.7
814.526	20.31
814.704	81.75
814.883	81.75
815.062	-26.79
815.24	36.69
815.419	-77.99
815.598	30.55
815.776	-82.09
815.955	-30.89
816.133	-149.67
816.312	30.55
816.49	-135.34
816.669	42.84
816.847	-2.22
817.026	44.88
817.204	12.12
817.383	5.97
817.561	-71.85
817.74	53.08
817.918	-41.13
818.097	-4.27
818.275	8.02
818.453	-30.89
818.632	69.46
818.81	-51.37
818.988	-43.18
819.167	-24.75
819.345	-16.55
819.523	1.88
819.701	87.89
819.879	63.32
820.058	34.64
820.236	-8.36
820.414	-34.99
820.592	-24.75
820.77	-43.18
820.948	-69.8
821.127	-67.75
821.305	48.98
821.483	-47.27
821.661	81.75
821.839	-53.42
822.017	-41.13
822.195	-69.8
822.373	36.69
822.551	12.12
822.729	100.18
822.907	14.17
823.085	44.88
823.262	12.12
823.44	-2.22
823.618	-34.99
823.796	24.4
823.974	-16.55
824.152	-57.51
824.329	59.22
824.507	1.88
824.685	32.6
824.863	8.02
825.04	3.93
825.218	24.4
825.396	-0.17
825.574	-47.27
825.751	110.42
825.929	12.12
826.107	-39.08
826.284	-32.94
826.462	22.36
826.639	-98.47
826.817	-71.85
826.994	-47.27
827.172	-4.27
827.349	116.56
827.527	-4.27
827.704	3.93
827.882	91.99
828.059	-39.08
828.237	34.64
828.414	61.27
828.591	-123.05
828.769	40.79
828.946	-143.53
829.124	81.75
829.301	91.99
829.478	-39.08
829.655	38.74
829.833	32.6
830.01	-151.72
830.187	18.26
830.364	24.4
830.542	-24.75
830.719	34.64
830.896	16.21
831.073	3.93
831.25	57.17
831.427	79.7
831.604	-20.65
831.782	18.26
831.959	53.08
832.136	-82.09
832.313	30.55
832.49	-41.13
832.667	48.98
832.844	-57.51
833.021	91.99
833.198	69.46
833.374	55.12
833.551	-71.85
833.728	-6.31
833.905	26.45
834.082	-153.77
834.259	-82.09
834.436	69.46
834.612	-77.99
834.789	-30.89
834.966	85.84
835.143	-6.31
835.319	-125.1
835.496	-4.27
835.673	-34.99
835.85	94.04
836.026	36.69
836.203	-2.22
836.38	-84.14
836.556	-77.99
836.733	-114.86
836.909	178
837.086	-45.23
837.262	-86.19
837.439	-45.23
837.616	-92.33
837.792	-47.27
837.968	-0.17
838.145	-139.43
838.321	-32.94
838.498	20.31
838.674	1.88
838.851	26.45
839.027	-55.47
839.203	-4.27
839.38	-37.03
839.556	-86.19
839.732	114.52
839.909	-10.41
840.085	-2.22
840.261	-63.66
840.437	-43.18
840.614	-39.08
840.79	14.17
840.966	3.93
841.142	-0.17
841.318	-6.31
841.494	110.42
841.671	85.84
841.847	-57.51
842.023	-135.34
842.199	28.5
842.375	104.28
842.551	-121
842.727	-151.72
842.903	108.37
843.079	-90.28
843.255	61.27
843.431	-53.42
843.607	-45.23
843.783	-139.43
843.959	26.45
844.134	-20.65
844.31	12.12
844.486	-26.79
844.662	-18.6
844.838	-51.37
845.013	42.84
845.189	147.28
845.365	12.12
845.541	34.64
845.716	71.51
845.892	48.98
846.068	-37.03
846.244	53.08
846.419	-45.23
846.595	-80.04
846.77	-53.42
846.946	34.64
847.122	30.55
847.297	-45.23
847.473	112.47
847.648	-123.05
847.824	100.18
847.999	-61.61
848.175	-20.65
848.35	-20.65
848.526	100.18
848.701	30.55
848.876	87.89
849.052	110.42
849.227	46.93
849.403	-28.84
849.578	-26.79
849.753	-22.7
849.929	12.12
850.104	-121
850.279	-30.89
850.454	26.45
850.63	51.03
850.805	18.26
850.98	-57.51
851.155	-37.03
851.33	20.31
851.505	-47.27
851.681	141.14
851.856	-14.51
852.031	63.32
852.206	-41.13
852.381	-45.23
852.556	-22.7
852.731	12.12
852.906	8.02
853.081	40.79
853.256	87.89
853.431	8.02
853.606	-63.66
853.781	-71.85
853.956	-71.85
854.131	-110.76
854.305	-131.24
854.48	-47.27
854.655	-65.71
854.83	-65.71
855.005	-24.75
855.18	10.07
855.354	-14.51
855.529	75.6
855.704	-80.04
855.879	-20.65
856.053	-71.85
856.228	57.17
856.403	-135.34
856.577	48.98
856.752	-65.71
856.926	36.69
857.101	20.31
857.276	-112.81
857.45	46.93
857.625	135
857.799	-4.27
857.974	20.31
858.148	-151.72
858.323	44.88
858.497	26.45
858.672	-37.03
858.846	14.17
859.02	38.74
859.195	-53.42
859.369	-77.99
859.543	-0.17
859.718	-45.23
859.892	-37.03
860.066	85.84
860.241	-73.9
860.415	-125.1
860.589	-14.51
860.763	-77.99
860.938	-104.62
861.112	-34.99
861.286	-67.75
861.46	26.45
861.634	-90.28
861.808	98.13
861.982	-61.61
862.157	-112.81
862.331	-94.38
862.505	-123.05
862.679	-176.3
862.853	-6.31
863.027	-71.85
863.201	91.99
863.375	-30.89
863.549	3.93
863.722	-18.6
863.896	149.33
864.07	16.21
864.244	-10.41
864.418	1.88
864.592	28.5
864.766	-10.41
864.939	85.84
865.113	-86.19
865.287	118.61
865.461	-104.62
865.634	51.03
865.808	-0.17
865.982	-80.04
866.156	-69.8
866.329	-94.38
866.503	-4.27
866.676	32.6
866.85	3.93
867.024	-86.19
867.197	30.55
867.371	32.6
867.544	46.93
867.718	-80.04
867.891	18.26
868.065	-84.14
868.238	-69.8
868.412	34.64
868.585	-57.51
868.759	8.02
868.932	-71.85
869.105	-53.42
869.279	-6.31
869.452	-63.66
869.625	26.45
869.799	-37.03
869.972	-129.19
870.145	-82.09
870.319	85.84
870.492	-30.89
870.665	-80.04
870.838	-123.05
871.011	-147.62
871.185	-28.84
871.358	-63.66
871.531	8.02
871.704	-16.55
871.877	-37.03
872.05	-0.17
872.223	-110.76
872.396	-28.84
872.569	16.21
872.742	-106.67
872.915	1.88
873.088	-26.79
873.261	-47.27
873.434	-16.55
873.607	5.97
873.78	104.28
873.953	-61.61
874.126	-14.51
874.299	24.4
874.471	-55.47
874.644	-37.03
874.817	67.41
874.99	98.13
875.163	-96.43
875.335	8.02
875.508	-41.13
875.681	91.99
875.853	-37.03
876.026	-53.42
876.199	51.03
876.371	98.13
876.544	-20.65
876.717	-12.46
876.889	-61.61
877.062	40.79
877.234	-123.05
877.407	-14.51
877.579	-2.22
877.752	1.88
877.924	98.13
878.097	8.02
878.269	14.17
878.442	28.5
878.614	59.22
878.786	10.07
878.959	26.45
879.131	-37.03
879.303	-110.76
879.476	24.4
879.648	40.79
879.82	51.03
879.993	-98.47
880.165	-71.85
880.337	-82.09
880.509	22.36
880.681	-168.1
880.854	-102.57
881.026	-45.23
881.198	81.75
881.37	-51.37
881.542	-84.14
881.714	-2.22
881.886	5.97
882.058	-32.94
882.23	-8.36
882.402	-14.51
882.574	-88.23
882.746	30.55
882.918	-2.22
883.09	59.22
883.262	-30.89
883.434	-2.22
883.606	-49.32
883.778	-123.05
883.95	94.04
884.122	61.27
884.293	-20.65
884.465	67.41
884.637	100.18
884.809	-90.28
884.98	44.88
885.152	32.6
885.324	59.22
885.496	-77.99
885.667	8.02
885.839	-14.51
886.011	96.08
886.182	57.17
886.354	77.65
886.525	-18.6
886.697	-43.18
886.869	-96.43
887.04	-14.51
887.212	75.6
887.383	182.1
887.555	-6.31
887.726	-43.18
887.897	38.74
888.069	-39.08
888.24	-0.17
888.412	-22.7
888.583	-73.9
888.754	30.55
888.926	-86.19
889.097	16.21
889.268	-96.43
889.44	51.03
889.611	-86.19
889.782	-80.04
889.953	-94.38
890.125	71.51
890.296	-16.55
890.467	-57.51
890.638	-71.85
890.809	51.03
890.98	-32.94
891.151	48.98
891.323	61.27
891.494	-49.32
891.665	-0.17
891.836	-59.56
892.007	38.74
892.178	42.84
892.349	-22.7
892.52	-127.14
892.691	-77.99
892.862	3.93
893.032	-86.19
893.203	-26.79
893.374	-100.52
893.545	96.08
893.716	-61.61
893.887	118.61
894.057	-65.71
894.228	-4.27
894.399	-94.38
894.57	46.93
894.74	-14.51
894.911	48.98
895.082	-75.95
895.253	-88.23
895.423	-63.66
895.594	53.08
895.764	-8.36
895.935	-77.99
896.106	10.07
896.276	-88.23
896.447	-0.17
896.617	-127.14
896.788	48.98
896.958	-106.67
897.129	-94.38
897.299	-32.94
897.47	87.89
897.64	87.89
897.81	-8.36
897.981	-10.41
898.151	16.21
898.322	28.5
898.492	24.4
898.662	-157.86
898.832	-2.22
899.003	-41.13
899.173	-16.55
899.343	44.88
899.513	-75.95
