Data from USB4F104151__67__10-31-44-753.txt Node

Date: Wed Feb 26 10:31:44 EST 2025
User: louis
Spectrometer: USB4F10415
Trigger mode: 4
Integration Time (sec): 1.000000E-1
Scans to average: 1
Electric dark correction enabled: true
Nonlinearity correction enabled: false
Boxcar width: 0
XAxis mode: Wavelengths
Number of Pixels in Spectrum: 3648
>>>>>Begin Spectral Data<<<<<
178.204	-379.9
178.424	-379.9
178.644	-379.9
178.864	-424.95
179.084	-377.85
179.304	-9.22
179.524	33.79
179.744	-39.94
179.964	66.56
180.184	-35.84
180.404	-41.98
180.624	19.46
180.844	50.18
181.064	-33.79
181.283	39.94
181.503	-44.03
181.723	-5.12
181.943	-138.24
182.163	242.68
182.383	66.56
182.602	44.03
182.822	181.25
183.042	46.08
183.262	-23.55
183.482	-33.79
183.701	95.23
183.921	37.89
184.141	-56.32
184.361	68.61
184.58	80.89
184.8	64.51
185.02	37.89
185.239	209.92
185.459	93.18
185.679	185.34
185.898	-72.7
186.118	52.22
186.338	48.13
186.557	56.32
186.777	-56.32
186.997	44.03
187.216	56.32
187.436	171.01
187.655	5.12
187.875	146.43
188.095	54.27
188.314	164.86
188.534	146.43
188.753	-27.65
188.973	128
189.192	181.25
189.412	121.85
189.631	-13.31
189.851	99.33
190.07	113.66
190.29	-33.79
190.509	13.31
190.729	15.36
190.948	173.05
191.168	236.54
191.387	130.05
191.607	-35.84
191.826	-9.22
192.045	54.27
192.265	44.03
192.484	23.55
192.704	17.41
192.923	-74.75
193.142	209.92
193.362	76.8
193.581	128
193.8	74.75
194.02	54.27
194.239	29.7
194.458	62.46
194.678	66.56
194.897	11.26
195.116	37.89
195.335	105.47
195.555	23.55
195.774	23.55
195.993	111.61
196.212	46.08
196.432	19.46
196.651	-3.07
196.87	99.33
197.089	271.36
197.308	70.65
197.528	37.89
197.747	-17.41
197.966	13.31
198.185	191.49
198.404	50.18
198.623	119.81
198.842	111.61
199.062	52.22
199.281	164.86
199.5	91.13
199.719	41.98
199.938	142.33
200.157	19.46
200.376	52.22
200.595	119.81
200.814	119.81
201.033	-13.31
201.252	164.86
201.471	87.04
201.69	80.89
201.909	66.56
202.128	156.67
202.347	95.23
202.566	80.89
202.785	-56.32
203.004	-11.26
203.223	263.16
203.442	76.8
203.661	-29.7
203.879	111.61
204.098	117.76
204.317	5.12
204.536	109.57
204.755	128
204.974	52.22
205.193	5.12
205.411	152.57
205.63	119.81
205.849	48.13
206.068	62.46
206.287	66.56
206.505	111.61
206.724	3.07
206.943	-15.36
207.162	-23.55
207.381	41.98
207.599	25.6
207.818	23.55
208.037	-35.84
208.255	29.7
208.474	5.12
208.693	56.32
208.911	7.17
209.13	107.52
209.349	91.13
209.567	91.13
209.786	115.71
210.005	142.33
210.223	93.18
210.442	-60.42
210.661	9.22
210.879	74.75
211.098	82.94
211.316	-23.55
211.535	99.33
211.753	41.98
211.972	25.6
212.191	87.04
212.409	99.33
212.628	62.46
212.846	15.36
213.065	60.42
213.283	134.14
213.502	-1.02
213.72	37.89
213.938	64.51
214.157	5.12
214.375	123.9
214.594	15.36
214.812	111.61
215.031	1.02
215.249	76.8
215.467	15.36
215.686	41.98
215.904	64.51
216.122	44.03
216.341	205.82
216.559	154.62
216.778	164.86
216.996	175.1
217.214	7.17
217.432	25.6
217.651	-17.41
217.869	105.47
218.087	9.22
218.306	27.65
218.524	33.79
218.742	15.36
218.96	107.52
219.179	23.55
219.397	134.14
219.615	246.78
219.833	64.51
220.051	-13.31
220.27	134.14
220.488	50.18
220.706	78.85
220.924	-91.13
221.142	-11.26
221.36	93.18
221.578	193.53
221.796	21.5
222.015	76.8
222.233	70.65
222.451	150.53
222.669	9.22
222.887	95.23
223.105	-23.55
223.323	52.22
223.541	48.13
223.759	-11.26
223.977	74.75
224.195	140.29
224.413	91.13
224.631	41.98
224.849	37.89
225.067	240.64
225.285	93.18
225.503	-29.7
225.721	-58.37
225.939	87.04
226.157	78.85
226.375	236.54
226.592	-89.09
226.81	58.37
227.028	101.37
227.246	130.05
227.464	9.22
227.682	148.48
227.9	33.79
228.117	60.42
228.335	189.44
228.553	37.89
228.771	58.37
228.989	95.23
229.206	91.13
229.424	-13.31
229.642	50.18
229.86	-27.65
230.077	154.62
230.295	64.51
230.513	50.18
230.731	101.37
230.948	189.44
231.166	224.25
231.384	-39.94
231.601	7.17
231.819	207.87
232.037	21.5
232.254	11.26
232.472	74.75
232.689	-1.02
232.907	80.89
233.125	21.5
233.342	11.26
233.56	-54.27
233.777	21.5
233.995	74.75
234.213	115.71
234.43	78.85
234.648	41.98
234.865	5.12
235.083	109.57
235.3	58.37
235.518	136.19
235.735	123.9
235.953	99.33
236.17	62.46
236.388	54.27
236.605	93.18
236.822	103.42
237.04	154.62
237.257	-13.31
237.475	-7.17
237.692	111.61
237.909	74.75
238.127	1.02
238.344	87.04
238.562	31.74
238.779	17.41
238.996	-21.5
239.214	48.13
239.431	125.95
239.648	54.27
239.865	64.51
240.083	87.04
240.3	39.94
240.517	29.7
240.735	13.31
240.952	152.57
241.169	144.38
241.386	9.22
241.603	-17.41
241.821	23.55
242.038	87.04
242.255	97.28
242.472	-25.6
242.689	41.98
242.907	37.89
243.124	76.8
243.341	66.56
243.558	-27.65
243.775	-27.65
243.992	21.5
244.209	68.61
244.426	187.39
244.643	35.84
244.86	33.79
245.078	17.41
245.295	93.18
245.512	25.6
245.729	-21.5
245.946	91.13
246.163	37.89
246.38	23.55
246.597	78.85
246.814	64.51
247.031	103.42
247.248	9.22
247.464	107.52
247.681	74.75
247.898	72.7
248.115	72.7
248.332	25.6
248.549	183.29
248.766	175.1
248.983	46.08
249.2	72.7
249.417	142.33
249.633	48.13
249.85	115.71
250.067	31.74
250.284	64.51
250.501	3.07
250.717	105.47
250.934	50.18
251.151	-56.32
251.368	70.65
251.585	19.46
251.801	78.85
252.018	-29.7
252.235	128
252.451	3.07
252.668	-70.65
252.885	89.09
253.102	11.26
253.318	-9.22
253.535	82.94
253.752	17.41
253.968	23.55
254.185	-107.52
254.401	19.46
254.618	56.32
254.835	25.6
255.051	132.09
255.268	128
255.484	82.94
255.701	23.55
255.917	91.13
256.134	19.46
256.351	91.13
256.567	1.02
256.784	-13.31
257	-115.71
257.217	125.95
257.433	148.48
257.65	5.12
257.866	117.76
258.082	-46.08
258.299	-27.65
258.515	25.6
258.732	-7.17
258.948	-1.02
259.165	91.13
259.381	-78.85
259.597	125.95
259.814	87.04
260.03	58.37
260.246	-7.17
260.463	136.19
260.679	138.24
260.895	91.13
261.112	97.28
261.328	13.31
261.544	-7.17
261.761	185.34
261.977	-62.46
262.193	-27.65
262.409	107.52
262.626	-46.08
262.842	54.27
263.058	-41.98
263.274	46.08
263.49	48.13
263.707	97.28
263.923	48.13
264.139	-23.55
264.355	58.37
264.571	87.04
264.787	62.46
265.004	164.86
265.22	29.7
265.436	-11.26
265.652	1.02
265.868	121.85
266.084	-50.18
266.3	13.31
266.516	3.07
266.732	134.14
266.948	91.13
267.164	-9.22
267.38	138.24
267.596	66.56
267.812	222.2
268.028	29.7
268.244	-1.02
268.46	144.38
268.676	-13.31
268.892	21.5
269.108	-3.07
269.324	-9.22
269.54	-17.41
269.756	70.65
269.972	19.46
270.188	103.42
270.403	-19.46
270.619	70.65
270.835	41.98
271.051	74.75
271.267	58.37
271.483	-27.65
271.698	125.95
271.914	64.51
272.13	33.79
272.346	17.41
272.562	-13.31
272.777	148.48
272.993	-3.07
273.209	33.79
273.425	140.29
273.64	-31.74
273.856	74.75
274.072	9.22
274.287	31.74
274.503	136.19
274.719	68.61
274.934	54.27
275.15	9.22
275.366	68.61
275.581	19.46
275.797	15.36
276.012	89.09
276.228	15.36
276.444	-13.31
276.659	189.44
276.875	-19.46
277.09	15.36
277.306	52.22
277.521	148.48
277.737	68.61
277.952	150.53
278.168	39.94
278.383	64.51
278.599	87.04
278.814	87.04
279.03	74.75
279.245	189.44
279.461	99.33
279.676	74.75
279.892	-11.26
280.107	19.46
280.322	-68.61
280.538	125.95
280.753	46.08
280.969	3.07
281.184	74.75
281.399	158.72
281.615	31.74
281.83	101.37
282.045	-39.94
282.26	17.41
282.476	99.33
282.691	60.42
282.906	46.08
283.122	68.61
283.337	-33.79
283.552	66.56
283.767	1.02
283.983	140.29
284.198	70.65
284.413	101.37
284.628	-9.22
284.843	46.08
285.058	97.28
285.274	19.46
285.489	46.08
285.704	113.66
285.919	7.17
286.134	-62.46
286.349	125.95
286.564	11.26
286.779	99.33
286.995	7.17
287.21	-76.8
287.425	15.36
287.64	-27.65
287.855	76.8
288.07	-78.85
288.285	232.44
288.5	91.13
288.715	119.81
288.93	70.65
289.145	56.32
289.36	93.18
289.575	39.94
289.79	171.01
290.004	78.85
290.219	160.77
290.434	39.94
290.649	3.07
290.864	82.94
291.079	27.65
291.294	111.61
291.509	72.7
291.724	50.18
291.938	3.07
292.153	52.22
292.368	39.94
292.583	41.98
292.798	119.81
293.012	128
293.227	115.71
293.442	17.41
293.657	93.18
293.871	162.81
294.086	50.18
294.301	152.57
294.516	128
294.73	19.46
294.945	-3.07
295.16	1.02
295.374	103.42
295.589	113.66
295.804	11.26
296.018	109.57
296.233	111.61
296.447	39.94
296.662	31.74
296.877	80.89
297.091	23.55
297.306	-1.02
297.52	29.7
297.735	119.81
297.949	29.7
298.164	11.26
298.378	97.28
298.593	25.6
298.807	-11.26
299.022	46.08
299.236	138.24
299.451	-21.5
299.665	93.18
299.88	46.08
300.094	68.61
300.309	58.37
300.523	64.51
300.737	35.84
300.952	111.61
301.166	56.32
301.381	13.31
301.595	15.36
301.809	19.46
302.024	29.7
302.238	41.98
302.452	101.37
302.667	13.31
302.881	54.27
303.095	132.09
303.309	15.36
303.524	50.18
303.738	-3.07
303.952	66.56
304.166	50.18
304.381	-33.79
304.595	201.72
304.809	23.55
305.023	46.08
305.237	7.17
305.452	66.56
305.666	109.57
305.88	105.47
306.094	91.13
306.308	168.96
306.522	91.13
306.736	146.43
306.95	60.42
307.164	-17.41
307.379	23.55
307.593	136.19
307.807	31.74
308.021	21.5
308.235	93.18
308.449	1.02
308.663	27.65
308.877	238.59
309.091	105.47
309.305	25.6
309.519	-84.99
309.733	156.67
309.947	-74.75
310.161	41.98
310.374	136.19
310.588	74.75
310.802	21.5
311.016	48.13
311.23	82.94
311.444	-7.17
311.658	99.33
311.872	197.63
312.085	89.09
312.299	160.77
312.513	123.9
312.727	89.09
312.941	3.07
313.154	27.65
313.368	29.7
313.582	70.65
313.796	29.7
314.009	111.61
314.223	146.43
314.437	78.85
314.651	152.57
314.864	58.37
315.078	-11.26
315.292	-46.08
315.505	44.03
315.719	82.94
315.933	107.52
316.146	-44.03
316.36	9.22
316.573	146.43
316.787	64.51
317.001	60.42
317.214	-68.61
317.428	144.38
317.641	-97.28
317.855	21.5
318.068	48.13
318.282	48.13
318.495	238.59
318.709	115.71
318.922	44.03
319.136	119.81
319.349	111.61
319.563	25.6
319.776	74.75
319.99	-56.32
320.203	136.19
320.417	46.08
320.63	82.94
320.843	193.53
321.057	62.46
321.27	21.5
321.483	46.08
321.697	121.85
321.91	41.98
322.124	82.94
322.337	76.8
322.55	5.12
322.763	-3.07
322.977	93.18
323.19	1.02
323.403	68.61
323.617	78.85
323.83	87.04
324.043	41.98
324.256	56.32
324.469	-5.12
324.683	138.24
324.896	101.37
325.109	-25.6
325.322	-70.65
325.535	144.38
325.748	70.65
325.962	33.79
326.175	128
326.388	35.84
326.601	158.72
326.814	-37.89
327.027	25.6
327.24	119.81
327.453	-17.41
327.666	82.94
327.879	76.8
328.092	156.67
328.305	89.09
328.518	19.46
328.731	31.74
328.944	33.79
329.157	66.56
329.37	31.74
329.583	220.16
329.796	193.53
330.009	3.07
330.222	93.18
330.435	138.24
330.648	60.42
330.861	37.89
331.073	68.61
331.286	58.37
331.499	3.07
331.712	-11.26
331.925	15.36
332.138	25.6
332.35	168.96
332.563	-7.17
332.776	134.14
332.989	-52.22
333.202	74.75
333.414	50.18
333.627	50.18
333.84	19.46
334.053	74.75
334.265	37.89
334.478	56.32
334.691	17.41
334.903	107.52
335.116	15.36
335.329	-5.12
335.541	64.51
335.754	191.49
335.966	13.31
336.179	95.23
336.392	80.89
336.604	21.5
336.817	48.13
337.029	91.13
337.242	78.85
337.454	89.09
337.667	121.85
337.88	160.77
338.092	50.18
338.305	15.36
338.517	-50.18
338.729	134.14
338.942	156.67
339.154	-39.94
339.367	-19.46
339.579	101.37
339.792	54.27
340.004	121.85
340.217	-19.46
340.429	78.85
340.641	-25.6
340.854	13.31
341.066	60.42
341.278	103.42
341.491	205.82
341.703	11.26
341.915	19.46
342.128	87.04
342.34	101.37
342.552	-58.37
342.764	29.7
342.977	60.42
343.189	105.47
343.401	113.66
343.613	-9.22
343.826	-17.41
344.038	25.6
344.25	68.61
344.462	82.94
344.674	39.94
344.886	-11.26
345.099	29.7
345.311	132.09
345.523	7.17
345.735	-56.32
345.947	89.09
346.159	-39.94
346.371	146.43
346.583	31.74
346.795	277.5
347.007	13.31
347.219	95.23
347.431	103.42
347.643	142.33
347.855	-17.41
348.067	150.53
348.279	-91.13
348.491	37.89
348.703	128
348.915	58.37
349.127	48.13
349.339	41.98
349.551	-19.46
349.763	76.8
349.975	76.8
350.187	82.94
350.399	72.7
350.61	50.18
350.822	58.37
351.034	17.41
351.246	29.7
351.458	105.47
351.669	164.86
351.881	99.33
352.093	160.77
352.305	87.04
352.517	33.79
352.728	91.13
352.94	109.57
353.152	87.04
353.363	-9.22
353.575	21.5
353.787	144.38
353.999	168.96
354.21	150.53
354.422	17.41
354.633	39.94
354.845	50.18
355.057	33.79
355.268	134.14
355.48	111.61
355.692	39.94
355.903	-9.22
356.115	-93.18
356.326	-84.99
356.538	183.29
356.749	68.61
356.961	138.24
357.172	13.31
357.384	33.79
357.595	271.36
357.807	-29.7
358.018	62.46
358.23	87.04
358.441	197.63
358.653	89.09
358.864	15.36
359.075	15.36
359.287	21.5
359.498	64.51
359.709	78.85
359.921	-31.74
360.132	70.65
360.344	37.89
360.555	-27.65
360.766	146.43
360.977	72.7
361.189	130.05
361.4	52.22
361.611	156.67
361.823	70.65
362.034	15.36
362.245	5.12
362.456	78.85
362.667	103.42
362.879	15.36
363.09	48.13
363.301	101.37
363.512	76.8
363.723	29.7
363.935	64.51
364.146	82.94
364.357	17.41
364.568	70.65
364.779	-17.41
364.99	48.13
365.201	-15.36
365.412	68.61
365.623	-17.41
365.834	52.22
366.045	19.46
366.256	162.81
366.467	136.19
366.678	56.32
366.889	56.32
367.1	-19.46
367.311	54.27
367.522	-7.17
367.733	87.04
367.944	168.96
368.155	17.41
368.366	9.22
368.577	107.52
368.788	62.46
368.999	-25.6
369.209	68.61
369.42	209.92
369.631	211.96
369.842	3.07
370.053	80.89
370.264	117.76
370.474	70.65
370.685	48.13
370.896	39.94
371.107	148.48
371.317	74.75
371.528	29.7
371.739	211.96
371.95	109.57
372.16	68.61
372.371	11.26
372.582	11.26
372.792	52.22
373.003	105.47
373.214	64.51
373.424	103.42
373.635	-25.6
373.846	228.35
374.056	11.26
374.267	107.52
374.477	76.8
374.688	15.36
374.898	97.28
375.109	46.08
375.319	164.86
375.53	162.81
375.74	156.67
375.951	54.27
376.161	13.31
376.372	113.66
376.582	13.31
376.793	70.65
377.003	-29.7
377.214	76.8
377.424	136.19
377.635	74.75
377.845	21.5
378.055	142.33
378.266	80.89
378.476	48.13
378.686	80.89
378.897	80.89
379.107	109.57
379.317	130.05
379.528	52.22
379.738	117.76
379.948	-107.52
380.158	156.67
380.369	56.32
380.579	58.37
380.789	35.84
380.999	93.18
381.21	154.62
381.42	218.11
381.63	11.26
381.84	119.81
382.05	76.8
382.261	144.38
382.471	134.14
382.681	17.41
382.891	103.42
383.101	111.61
383.311	13.31
383.521	-70.65
383.731	50.18
383.941	56.32
384.151	70.65
384.361	50.18
384.571	78.85
384.781	48.13
384.991	281.6
385.201	183.29
385.411	142.33
385.621	52.22
385.831	68.61
386.041	62.46
386.251	58.37
386.461	177.15
386.671	37.89
386.881	87.04
387.091	48.13
387.301	177.15
387.511	15.36
387.72	64.51
387.93	87.04
388.14	-66.56
388.35	29.7
388.56	82.94
388.769	144.38
388.979	66.56
389.189	-7.17
389.399	68.61
389.609	107.52
389.818	84.99
390.028	101.37
390.238	138.24
390.447	-35.84
390.657	80.89
390.867	58.37
391.076	-13.31
391.286	25.6
391.496	48.13
391.705	58.37
391.915	84.99
392.125	125.95
392.334	-41.98
392.544	218.11
392.753	29.7
392.963	74.75
393.172	-7.17
393.382	25.6
393.591	164.86
393.801	123.9
394.01	128
394.22	103.42
394.429	48.13
394.639	33.79
394.848	162.81
395.058	58.37
395.267	117.76
395.477	113.66
395.686	91.13
395.895	267.26
396.105	232.44
396.314	-3.07
396.524	78.85
396.733	95.23
396.942	134.14
397.152	74.75
397.361	144.38
397.57	64.51
397.78	-11.26
397.989	111.61
398.198	240.64
398.407	140.29
398.617	41.98
398.826	70.65
399.035	50.18
399.244	87.04
399.453	84.99
399.663	91.13
399.872	35.84
400.081	17.41
400.29	140.29
400.499	84.99
400.708	144.38
400.917	33.79
401.127	41.98
401.336	44.03
401.545	238.59
401.754	121.85
401.963	168.96
402.172	-3.07
402.381	-3.07
402.59	87.04
402.799	93.18
403.008	179.2
403.217	154.62
403.426	123.9
403.635	-17.41
403.844	35.84
404.053	58.37
404.262	119.81
404.471	189.44
404.68	99.33
404.888	91.13
405.097	91.13
405.306	103.42
405.515	142.33
405.724	56.32
405.933	179.2
406.142	89.09
406.35	87.04
406.559	25.6
406.768	25.6
406.977	158.72
407.185	87.04
407.394	44.03
407.603	-7.17
407.812	41.98
408.02	44.03
408.229	-3.07
408.438	97.28
408.646	-13.31
408.855	105.47
409.064	103.42
409.272	31.74
409.481	164.86
409.69	-37.89
409.898	19.46
410.107	95.23
410.315	89.09
410.524	60.42
410.733	17.41
410.941	68.61
411.15	29.7
411.358	130.05
411.567	128
411.775	99.33
411.984	72.7
412.192	113.66
412.401	7.17
412.609	105.47
412.818	164.86
413.026	121.85
413.234	72.7
413.443	91.13
413.651	41.98
413.86	54.27
414.068	119.81
414.276	152.57
414.485	21.5
414.693	156.67
414.901	132.09
415.11	103.42
415.318	35.84
415.526	107.52
415.734	144.38
415.943	136.19
416.151	142.33
416.359	78.85
416.567	80.89
416.776	111.61
416.984	138.24
417.192	119.81
417.4	78.85
417.608	39.94
417.817	-105.47
418.025	107.52
418.233	193.53
418.441	13.31
418.649	39.94
418.857	95.23
419.065	191.49
419.273	89.09
419.481	142.33
419.689	105.47
419.897	54.27
420.105	-21.5
420.313	187.39
420.521	148.48
420.729	218.11
420.937	-3.07
421.145	-27.65
421.353	80.89
421.561	91.13
421.769	82.94
421.977	25.6
422.185	136.19
422.393	33.79
422.601	21.5
422.809	5.12
423.017	62.46
423.224	48.13
423.432	189.44
423.64	148.48
423.848	113.66
424.056	39.94
424.263	171.01
424.471	70.65
424.679	175.1
424.887	44.03
425.094	162.81
425.302	148.48
425.51	-9.22
425.718	164.86
425.925	128
426.133	66.56
426.341	275.45
426.548	52.22
426.756	87.04
426.964	123.9
427.171	52.22
427.379	193.53
427.586	109.57
427.794	80.89
428.001	177.15
428.209	140.29
428.417	199.68
428.624	152.57
428.832	113.66
429.039	123.9
429.247	142.33
429.454	91.13
429.662	171.01
429.869	177.15
430.076	187.39
430.284	183.29
430.491	203.77
430.699	171.01
430.906	254.97
431.114	171.01
431.321	173.05
431.528	144.38
431.736	150.53
431.943	199.68
432.15	207.87
432.358	248.83
432.565	304.12
432.772	35.84
432.979	230.4
433.187	201.72
433.394	244.73
433.601	158.72
433.808	281.6
434.016	273.4
434.223	359.42
434.43	300.03
434.637	257.02
434.844	357.37
435.052	246.78
435.259	293.88
435.466	275.45
435.673	193.53
435.88	326.65
436.087	377.85
436.294	369.66
436.501	320.51
436.708	328.7
436.915	410.62
437.122	308.22
437.329	297.98
437.537	379.9
437.743	355.32
437.95	480.25
438.157	365.56
438.364	394.23
438.571	367.61
438.778	492.54
438.985	461.82
439.192	523.26
439.399	531.45
439.606	510.97
439.813	527.35
440.02	701.43
440.227	783.35
440.433	596.98
440.64	529.4
440.847	582.65
441.054	748.53
441.261	736.24
441.467	701.43
441.674	699.38
441.881	766.96
442.088	662.52
442.294	809.97
442.501	861.17
442.708	818.16
442.914	848.88
443.121	922.61
443.328	951.28
443.534	992.24
443.741	936.95
443.948	965.62
444.154	992.24
444.361	1076.21
444.568	1135.6
444.774	1176.56
444.981	969.71
445.187	1309.68
445.394	1262.57
445.6	1135.6
445.807	1418.22
446.013	1512.42
446.22	1399.79
446.426	1467.37
446.633	1612.78
446.839	1788.9
447.046	1588.2
447.252	1766.37
447.459	1700.84
447.665	1737.7
447.871	1876.96
448.078	2120.67
448.284	1995.75
448.491	2135.01
448.697	2202.59
448.903	2239.45
449.11	2411.48
449.316	2413.53
449.522	2679.77
449.728	2724.82
449.935	2710.49
450.141	2735.06
450.347	2849.75
450.553	2935.76
450.76	2946
450.966	3245.01
451.172	3353.55
451.378	3464.14
451.584	3529.67
451.791	3681.22
451.997	3699.66
452.203	3914.69
452.409	3972.04
452.615	4195.26
452.821	4094.91
453.027	4322.24
453.233	4623.29
453.44	4512.7
453.646	4858.81
453.852	4905.91
454.058	5108.66
454.264	5354.41
454.47	5735.34
454.676	5577.64
454.882	6255.52
455.088	5954.47
455.294	6226.85
455.5	6650.78
455.705	6988.69
455.911	6941.59
456.117	7209.87
456.323	7310.22
456.529	7424.91
456.735	8113.03
456.941	8383.36
457.147	8641.4
457.352	8854.39
457.558	9161.59
457.764	9890.67
457.97	9911.14
458.176	10392.42
458.381	10883.93
458.587	11150.17
458.793	11649.87
458.999	11717.45
459.204	13181.75
459.41	13476.66
459.616	13417.27
459.821	14146.34
460.027	14799.65
460.233	15293.21
460.438	15500.05
460.644	16423.69
460.85	16311.05
461.055	17011.45
461.261	18279.15
461.466	17656.56
461.672	17916.65
461.878	19989.2
462.083	19653.33
462.289	20333.26
462.494	20957.89
462.7	21410.49
462.905	21373.63
463.111	23198.37
463.316	24351.37
463.522	24609.42
463.727	25279.1
463.932	26831.46
464.138	27288.16
464.343	28537.42
464.549	28727.88
464.754	30601.77
464.959	31269.41
465.165	32018.97
465.37	31636
465.575	31676.96
465.781	33835.52
465.986	35080.68
466.191	34521.59
466.397	35027.43
466.602	34028.02
466.807	35441.12
467.012	36274.65
467.218	36891.09
467.423	37038.54
467.628	38083
467.833	40067.48
468.038	39201.19
468.244	38418.87
468.449	40655.25
468.654	39627.17
468.859	39940.51
469.064	39946.65
469.269	38957.49
469.474	38916.53
469.679	40360.34
469.885	38664.63
470.09	39221.67
470.295	40069.53
470.5	38918.57
470.705	39115.18
470.91	38332.86
471.115	37812.67
471.32	38416.82
471.525	38007.23
471.73	36905.42
471.935	37036.49
472.139	35596.77
472.344	35342.82
472.549	35383.78
472.754	34396.66
472.959	33907.19
473.164	32504.34
473.369	32211.48
473.574	33014.28
473.778	32225.81
473.983	31857.18
474.188	31210.02
474.393	29725.24
474.598	29692.47
474.802	29272.64
475.007	28848.71
475.212	28551.76
475.417	27292.26
475.621	26853.99
475.826	26794.6
476.031	26149.49
476.235	25723.51
476.44	25580.15
476.645	25094.79
476.849	24941.19
477.054	24310.41
477.259	23636.63
477.463	23331.48
477.668	23118.5
477.872	22946.47
478.077	22377.13
478.282	21779.12
478.486	21310.14
478.691	21424.83
478.895	21144.25
479.1	21109.44
479.304	20843.2
479.509	20269.77
479.713	20767.43
479.918	20071.12
480.122	19417.82
480.326	19817.17
480.531	19460.82
480.735	19479.25
480.94	18834.14
481.144	19471.06
481.348	18707.17
481.553	18637.54
481.757	18402.02
481.961	18561.76
482.166	18529
482.37	18266.86
482.574	17892.08
482.778	18037.48
482.983	18229.99
483.187	17746.67
483.391	17568.5
483.595	16927.49
483.8	17070.84
484.004	17083.13
484.208	16993.02
484.412	16663.3
484.616	16780.03
484.821	16513.8
485.025	15876.88
485.229	16130.83
485.433	15749.9
485.637	15797.01
485.841	15309.59
486.045	15201.05
486.249	15250.2
486.453	14672.67
486.657	14838.56
486.861	14492.45
487.065	13996.84
487.269	14002.99
487.473	13472.56
487.677	13775.66
487.881	13308.72
488.085	12827.45
488.289	13052.73
488.493	12639.04
488.697	12585.79
488.901	12141.38
489.105	11907.91
489.309	12086.09
489.512	11617.1
489.716	11570
489.92	11326.29
490.124	11039.58
490.328	10894.17
490.531	10488.67
490.735	10619.74
490.939	10396.51
491.143	10169.19
491.346	9876.33
491.55	9868.14
491.754	9583.47
491.958	9466.74
492.161	9274.23
492.365	9118.58
492.569	8811.39
492.772	8579.97
492.976	8735.61
493.18	8467.33
493.383	8647.55
493.587	8463.23
493.79	8498.05
493.994	7928.71
494.197	8090.5
494.401	7947.14
494.605	7867.27
494.808	7934.85
495.012	7836.55
495.215	7818.12
495.419	7857.03
495.622	7467.92
495.825	7463.82
496.029	7564.17
496.232	7541.64
496.436	7246.74
496.639	7648.14
496.843	7113.62
497.046	7256.98
497.249	7293.84
497.453	7359.38
497.656	7314.32
497.859	7365.52
498.063	7498.64
498.266	7457.68
498.469	7381.9
498.673	7299.98
498.876	7353.23
499.079	7342.99
499.282	7416.72
499.485	7713.67
499.689	7443.34
499.892	7642
500.095	7429.01
500.298	7568.27
500.501	7349.14
500.705	7689.1
500.908	7691.15
501.111	7848.84
501.314	7852.94
501.517	7981.96
501.72	8035.21
501.923	8074.12
502.126	8037.25
502.329	8244.1
502.532	8383.36
502.735	8178.56
502.938	8385.41
503.141	8524.67
503.344	8399.74
503.547	8682.36
503.75	8885.11
503.953	8885.11
504.156	9089.91
504.359	9032.57
504.562	9110.39
504.765	9356.15
504.968	9540.46
505.17	9692.01
505.373	9700.2
505.576	9888.62
505.779	9794.41
505.982	10193.76
506.185	10505.06
506.387	10365.79
506.59	10580.83
506.793	10742.62
506.996	10888.03
507.198	11357.01
507.401	11381.59
507.604	11570
507.807	11869
508.009	11981.64
508.212	12122.95
508.415	12663.61
508.617	12639.04
508.82	12839.74
509.022	12968.76
509.225	13572.91
509.428	13757.23
509.63	13916.97
509.833	14170.92
510.035	14848.8
510.238	14799.65
510.44	14959.39
510.643	15549.2
510.845	15883.02
511.048	16208.65
511.25	16573.19
511.453	16585.47
511.655	17697.52
511.858	17525.49
512.06	17752.82
512.262	18485.99
512.465	18393.83
512.667	19073.76
512.87	19456.73
513.072	19589.85
513.274	20394.7
513.477	20896.45
513.679	21209.79
513.881	21832.37
514.084	22172.33
514.286	22571.69
514.488	23118.5
514.69	24033.94
514.893	24142.48
515.095	24797.83
515.297	25086.59
515.499	25612.92
515.701	25973.36
515.904	26638.95
516.106	27322.98
516.308	27918.93
516.51	29018.69
516.712	28703.31
516.914	29256.26
517.116	29880.89
517.318	30530.09
517.52	30843.43
517.722	31347.23
517.925	32090.65
518.127	33032.71
518.329	33315.33
518.531	33339.91
518.733	34535.92
518.935	34855.4
519.136	35326.44
519.338	35779.04
519.54	36760.02
519.742	37073.35
519.944	37628.35
520.146	38791.6
520.348	38416.82
520.55	39586.21
520.752	39387.56
520.954	40198.55
521.155	40335.77
521.357	41185.68
521.559	41793.92
521.761	42328.44
521.963	42770.8
522.164	43022.7
522.366	42877.3
522.568	43501.93
522.77	43655.53
522.971	44736.85
523.173	44546.39
523.375	44628.31
523.576	44745.05
523.778	44966.23
523.98	45576.52
524.181	45623.62
524.383	45713.73
524.584	46283.07
524.786	46422.33
524.988	45834.56
525.189	46549.31
525.391	46750.01
525.592	46457.15
525.794	46344.51
525.995	46684.47
526.197	46352.7
526.398	46397.76
526.6	46291.26
526.801	46186.82
527.003	46434.62
527.204	45945.15
527.406	46483.77
527.607	45828.42
527.808	45807.94
528.01	45023.57
528.211	45072.72
528.412	45271.37
528.614	44654.93
528.815	44511.58
529.016	44511.58
529.218	43432.3
529.419	43379.05
529.62	43161.97
529.822	42848.63
530.023	42301.82
530.224	41898.37
530.425	41386.38
530.626	40896.91
530.828	40581.52
531.029	40645.01
531.23	39926.17
531.431	39428.52
531.632	39203.24
531.833	38953.39
532.035	38437.3
532.236	37865.92
532.437	37435.84
532.638	36917.71
532.839	36469.2
533.04	35983.83
533.241	35226.09
533.442	35690.98
533.643	34521.59
533.844	34187.77
534.045	33968.63
534.246	32928.27
534.447	33100.29
534.648	32500.24
534.849	32266.77
535.05	31443.49
535.251	31322.66
535.451	30493.23
535.652	30597.68
535.853	29893.18
536.054	29764.15
536.255	29299.26
536.456	28865.1
536.657	28686.92
536.857	27970.13
537.058	27513.44
537.259	27441.76
537.46	26868.33
537.66	26563.18
537.861	26280.56
538.062	26002.04
538.263	25594.49
538.463	25182.85
538.664	25014.91
538.865	24355.47
539.065	24248.97
539.266	24031.89
539.466	23960.21
539.667	23341.72
539.868	23294.62
540.068	23059.1
540.269	22465.19
540.469	22553.26
540.67	22057.65
540.87	21879.47
541.071	21693.11
541.271	21318.33
541.472	20914.88
541.672	20875.97
541.873	20648.64
542.073	20095.69
542.274	20155.08
542.474	19968.72
542.675	19520.21
542.875	19659.48
543.075	19163.87
543.276	18803.43
543.476	18897.63
543.676	18627.3
543.877	18262.76
544.077	18211.56
544.277	18002.67
544.478	17855.22
544.678	17533.68
544.878	17292.02
545.078	17332.98
545.279	16962.3
545.479	16628.48
545.679	16851.71
545.879	16204.55
546.079	16274.18
546.28	15948.56
546.48	15702.8
546.68	15958.8
546.88	15569.68
547.08	15350.55
547.28	15164.18
547.48	14705.44
547.68	14826.27
547.88	14263.08
548.081	14678.82
548.281	14252.84
548.481	14041.9
548.681	14189.35
548.881	13601.58
549.081	13693.74
549.28	13230.9
549.48	13148.98
549.68	12993.34
549.88	12999.48
550.08	12581.7
550.28	12344.13
550.48	12446.53
550.68	12278.6
550.88	12180.29
551.08	11748.17
551.279	11869
551.479	11529.04
551.679	11475.79
551.879	11043.67
552.079	11053.91
552.278	10777.44
552.478	10908.51
552.678	10519.39
552.878	10632.03
553.077	10265.44
553.277	9720.68
553.477	10134.37
553.676	9775.98
553.876	9702.25
554.076	9292.66
554.275	9313.14
554.475	8967.03
554.674	8997.75
554.874	8878.97
555.074	8596.35
555.273	8610.68
555.473	8450.94
555.672	8209.28
555.872	8170.37
556.071	7969.67
556.271	8049.54
556.47	7725.96
556.67	7412.62
556.869	7545.74
557.068	7361.42
557.268	7291.79
557.467	7064.47
557.667	7080.85
557.866	6888.34
558.065	6892.44
558.265	6812.57
558.464	6425.5
558.663	6648.73
558.863	6384.54
559.062	6607.77
559.261	6220.71
559.461	6204.32
559.66	5974.95
559.859	5960.61
560.058	5669.8
560.258	5731.24
560.457	5696.43
560.656	5583.79
560.855	5430.19
561.054	5512.11
561.253	5348.27
561.453	5288.88
561.652	5254.06
561.851	5221.3
562.05	4975.54
562.249	4717.5
562.448	4813.75
562.647	4754.36
562.846	4582.33
563.045	4823.99
563.244	4508.6
563.443	4541.37
563.642	4338.62
563.841	4373.44
564.04	4400.06
564.239	4285.37
564.438	4094.91
564.637	4023.23
564.836	4121.54
565.035	3982.28
565.234	4021.19
565.432	3830.73
565.631	3718.09
565.83	3769.29
566.029	3548.11
566.228	3750.85
566.427	3613.64
566.625	3419.08
566.824	3529.67
567.023	3480.52
567.222	3331.02
567.42	3355.6
567.619	3402.7
567.818	3158.99
568.016	3427.28
568.215	3046.35
568.414	3097.55
568.612	3154.9
568.811	2999.25
569.01	3081.17
569.208	2890.71
569.407	2997.2
569.605	2952.15
569.804	2829.27
570.002	2859.99
570.201	2765.78
570.4	2771.93
570.598	2573.27
570.797	2620.38
570.995	2573.27
571.193	2454.49
571.392	2581.46
571.59	2448.35
571.789	2515.93
571.987	2505.69
572.186	2436.06
572.384	2255.84
572.582	2233.31
572.781	2370.52
572.979	2149.34
573.177	2108.38
573.376	2003.94
573.574	2192.35
573.772	2046.94
573.971	2014.18
574.169	2008.03
574.367	1973.22
574.565	2014.18
574.763	1825.76
574.962	1975.27
575.16	1805.28
575.358	1833.96
575.556	1793
575.754	1756.13
575.952	1776.61
576.151	1713.13
576.349	1721.32
576.547	1596.39
576.745	1670.12
576.943	1631.21
577.141	1598.44
577.339	1457.13
577.537	1647.59
577.735	1573.86
577.933	1604.58
578.131	1395.69
578.329	1444.84
578.527	1485.8
578.725	1555.43
578.923	1281
579.121	1428.46
579.319	1182.7
579.516	1186.8
579.714	1491.95
579.912	1350.64
580.11	1182.7
580.308	1324.01
580.506	1194.99
580.704	1147.89
580.901	1096.69
581.099	1244.14
581.297	1125.36
581.495	1190.89
581.692	1033.2
581.89	1184.75
582.088	1172.46
582.285	918.51
582.483	1057.78
582.681	1057.78
582.878	1057.78
583.076	973.81
583.274	984.05
583.471	1057.78
583.669	926.71
583.866	910.32
584.064	1004.53
584.262	893.94
584.459	814.07
584.657	908.27
584.854	873.46
585.052	951.28
585.249	910.32
585.447	801.78
585.644	764.92
585.841	975.86
586.039	906.23
586.236	795.64
586.434	828.4
586.631	738.29
586.828	791.54
587.026	789.49
587.223	668.66
587.42	705.53
587.618	715.77
587.815	834.55
588.012	801.78
588.21	609.27
588.407	775.16
588.604	678.9
588.801	680.95
588.999	695.29
589.196	793.59
589.393	644.09
589.59	590.84
589.787	764.92
589.984	717.81
590.182	687.09
590.379	599.03
590.576	670.71
590.773	650.23
590.97	664.57
591.167	672.76
591.364	674.81
591.561	605.17
591.758	617.46
591.955	609.27
592.152	603.13
592.349	607.22
592.546	572.41
592.743	537.59
592.94	670.71
593.137	683
593.334	676.85
593.531	668.66
593.727	642.04
593.924	705.53
594.121	644.09
594.318	568.31
594.515	648.18
594.712	797.68
594.908	793.59
595.105	529.4
595.302	752.63
595.499	717.81
595.696	809.97
595.892	689.14
596.089	820.21
596.286	703.48
596.482	898.03
596.679	785.4
596.876	758.77
597.072	760.82
597.269	824.31
597.466	783.35
597.662	812.02
597.859	816.12
598.055	834.55
598.252	1031.15
598.448	959.47
598.645	1068.02
598.841	1045.49
599.038	1215.47
599.234	1182.7
599.431	1098.74
599.627	1182.7
599.824	1194.99
600.02	1297.39
600.217	1182.7
600.413	1444.84
600.609	1410.03
600.806	1733.61
601.002	1504.23
601.198	1526.76
601.395	1760.23
601.591	1645.54
601.787	1799.14
601.984	1919.97
602.18	1924.07
602.376	1977.31
602.572	2087.9
602.769	2251.74
602.965	2100.19
603.161	2341.85
603.357	2366.43
603.553	2530.27
603.75	2407.39
603.946	2624.47
604.142	2702.29
604.338	2880.47
604.534	2886.61
604.73	2958.29
604.926	2978.77
605.122	3271.63
605.318	3240.91
605.514	3361.74
605.71	3320.78
605.906	3544.01
606.102	3539.91
606.298	3822.53
606.494	3902.4
606.69	4045.76
606.886	4000.71
607.082	4088.77
607.278	4256.7
607.474	4420.54
607.67	4535.23
607.866	4447.16
608.062	4973.49
608.257	4842.42
608.453	5061.55
608.649	5213.1
608.845	5231.54
609.041	5415.85
609.236	5729.19
609.432	5723.05
609.628	5962.66
609.824	6151.07
610.019	6269.86
610.215	6343.58
610.411	6636.44
610.606	6701.98
610.802	7162.77
610.998	7179.15
611.193	7379.86
611.389	7275.41
611.584	7744.39
611.78	7742.35
611.976	8086.4
612.171	8584.06
612.367	8436.61
612.562	8692.6
612.758	8737.66
612.953	9022.33
613.149	9599.85
613.344	9585.52
613.539	9802.6
613.735	10107.75
613.93	10513.25
614.126	10558.3
614.321	11109.21
614.517	11289.43
614.712	11500.37
614.907	11557.71
615.103	11973.45
615.298	12479.3
615.493	12694.33
615.688	12929.85
615.884	13503.28
616.079	13703.98
616.274	14045.99
616.47	14385.96
616.665	14641.95
616.86	15074.07
617.055	15385.37
617.25	15893.26
617.445	16446.21
617.641	16712.45
617.836	17267.45
618.031	17003.26
618.226	17906.41
618.421	17976.05
618.616	18854.62
618.811	19151.58
619.006	19538.65
619.201	19688.15
619.396	20515.53
619.591	20677.32
619.786	21226.17
619.981	21639.86
620.176	22274.73
620.371	22401.71
620.566	22997.67
620.761	23358.11
620.956	24093.33
621.151	24224.4
621.346	25135.74
621.541	25098.88
621.735	26137.2
621.93	25999.99
622.125	26864.23
622.32	26892.9
622.515	27726.42
622.709	28267.09
622.904	29035.08
623.099	28914.25
623.294	30057.01
623.488	30368.3
623.683	31148.58
623.878	30966.31
624.072	32002.58
624.267	32455.18
624.462	32883.21
624.656	32858.63
624.851	33946.11
625.046	34077.18
625.24	34748.91
625.435	34814.44
625.629	35592.67
625.824	36037.08
626.018	36067.8
626.213	36399.57
626.407	36905.42
626.602	37259.72
626.796	38103.48
626.991	38689.2
627.185	38615.47
627.38	38570.42
627.574	39164.33
627.768	39209.39
627.963	39348.65
628.157	39692.71
628.352	39930.27
628.546	39729.57
628.74	40049.05
628.935	39629.22
629.129	39729.57
629.323	39092.65
629.517	39844.26
629.712	39180.71
629.906	39152.04
630.1	38531.51
630.294	38625.71
630.489	37730.75
630.683	37702.08
630.877	36649.42
631.071	36389.33
631.265	35592.67
631.459	34980.33
631.653	34189.81
631.848	33767.93
632.042	32746
632.236	32395.79
632.43	31197.73
632.624	30618.16
632.818	29530.69
633.012	28416.59
633.206	27908.69
633.4	27228.77
633.594	26069.62
633.788	24988.29
633.982	24480.39
634.176	23671.45
634.369	22598.31
634.563	21856.95
634.757	20519.62
634.951	20067.02
635.145	19694.29
635.339	18868.96
635.533	18023.15
635.726	17285.88
635.92	16491.27
636.114	16114.44
636.308	15196.95
636.501	14668.58
636.695	14189.35
636.889	13427.51
637.083	12784.44
637.276	12258.12
637.47	11942.73
637.664	11443.03
637.857	11103.06
638.051	10644.32
638.244	10144.61
638.438	9831.27
638.632	9386.86
638.825	8926.07
639.019	8555.39
639.212	8242.05
639.406	7945.09
639.599	7664.52
639.793	7185.3
639.986	7082.9
640.18	6775.7
640.373	6443.93
640.567	6194.08
640.76	6071.2
640.954	5938.09
641.147	5530.54
641.34	5237.68
641.534	5071.79
641.727	5168.05
641.92	4967.35
642.114	4615.1
642.307	4467.64
642.5	4174.78
642.694	3982.28
642.887	4023.23
643.08	3883.97
643.273	3652.55
643.467	3541.96
643.66	3462.09
643.853	3158.99
644.046	3136.46
644.239	3054.55
644.432	2950.1
644.626	2743.25
644.819	2743.25
645.012	2556.89
645.205	2675.67
645.398	2468.83
645.591	2440.15
645.784	2231.26
645.977	2094.05
646.17	2147.3
646.363	1971.17
646.556	1872.87
646.749	1803.24
646.942	1885.16
647.135	1817.57
647.328	1663.97
647.521	1670.12
647.714	1510.38
647.907	1545.19
648.099	1344.49
648.292	1383.4
648.485	1383.4
648.678	1246.19
648.871	1256.43
649.064	1229.81
649.256	1037.3
649.449	943.09
649.642	992.24
649.835	1027.06
650.027	1027.06
650.22	951.28
650.413	1012.72
650.605	898.03
650.798	775.16
650.991	848.88
651.183	807.92
651.376	852.98
651.568	758.77
651.761	672.76
651.954	736.24
652.146	666.61
652.339	766.96
652.531	750.58
652.724	558.07
652.916	547.83
653.109	381.95
653.301	789.49
653.494	730.1
653.686	549.88
653.879	644.09
654.071	590.84
654.263	500.73
654.456	482.3
654.648	486.39
654.84	517.11
655.033	431.1
655.225	510.97
655.417	340.99
655.61	519.16
655.802	402.43
655.994	484.34
656.186	410.62
656.379	539.64
656.571	338.94
656.763	302.08
656.955	381.95
657.148	383.99
657.34	420.86
657.532	269.31
657.724	373.75
657.916	287.74
658.108	359.42
658.3	359.42
658.492	310.27
658.684	263.16
658.876	383.99
659.068	201.72
659.26	265.21
659.452	271.36
659.644	238.59
659.836	377.85
660.028	308.22
660.22	273.4
660.412	246.78
660.604	158.72
660.796	207.87
660.988	308.22
661.18	283.64
661.372	326.65
661.563	261.12
661.755	218.11
661.947	121.85
662.139	164.86
662.331	146.43
662.522	236.54
662.714	121.85
662.906	230.4
663.097	283.64
663.289	185.34
663.481	111.61
663.673	230.4
663.864	160.77
664.056	220.16
664.247	113.66
664.439	259.07
664.631	185.34
664.822	300.03
665.014	199.68
665.205	173.05
665.397	205.82
665.588	259.07
665.78	242.68
665.971	199.68
666.163	140.29
666.354	252.92
666.546	117.76
666.737	148.48
666.929	138.24
667.12	199.68
667.311	228.35
667.503	136.19
667.694	246.78
667.885	66.56
668.077	195.58
668.268	130.05
668.459	207.87
668.651	168.96
668.842	246.78
669.033	168.96
669.224	142.33
669.416	308.22
669.607	148.48
669.798	136.19
669.989	297.98
670.18	183.29
670.371	248.83
670.563	80.89
670.754	259.07
670.945	252.92
671.136	293.88
671.327	201.72
671.518	232.44
671.709	351.23
671.9	117.76
672.091	265.21
672.282	246.78
672.473	168.96
672.664	123.9
672.855	173.05
673.046	257.02
673.237	320.51
673.428	195.58
673.619	226.3
673.809	168.96
674	285.69
674.191	263.16
674.382	211.96
674.573	214.01
674.764	158.72
674.954	287.74
675.145	152.57
675.336	173.05
675.527	203.77
675.717	187.39
675.908	97.28
676.099	173.05
676.289	254.97
676.48	166.91
676.671	246.78
676.861	93.18
677.052	232.44
677.243	177.15
677.433	128
677.624	238.59
677.814	205.82
678.005	181.25
678.195	355.32
678.386	222.2
678.576	132.09
678.767	244.73
678.957	211.96
679.148	320.51
679.338	334.84
679.529	283.64
679.719	246.78
679.909	300.03
680.1	277.5
680.29	205.82
680.481	183.29
680.671	244.73
680.861	285.69
681.052	209.92
681.242	224.25
681.432	322.56
681.622	234.49
681.813	187.39
682.003	189.44
682.193	271.36
682.383	228.35
682.573	244.73
682.764	279.55
682.954	250.88
683.144	320.51
683.334	248.83
683.524	281.6
683.714	312.32
683.904	236.54
684.094	300.03
684.284	269.31
684.474	427
684.664	312.32
684.854	283.64
685.044	230.4
685.234	293.88
685.424	254.97
685.614	357.37
685.804	420.86
685.994	349.18
686.184	193.53
686.374	351.23
686.564	318.46
686.753	281.6
686.943	201.72
687.133	287.74
687.323	242.68
687.513	302.08
687.702	273.4
687.892	322.56
688.082	310.27
688.272	353.27
688.461	203.77
688.651	349.18
688.841	316.41
689.03	275.45
689.22	304.12
689.41	289.79
689.599	375.8
689.789	242.68
689.979	310.27
690.168	222.2
690.358	283.64
690.547	418.81
690.737	306.17
690.926	328.7
691.116	320.51
691.305	379.9
691.495	318.46
691.684	177.15
691.874	177.15
692.063	269.31
692.252	295.93
692.442	314.36
692.631	201.72
692.82	224.25
693.01	314.36
693.199	271.36
693.388	293.88
693.578	240.64
693.767	345.08
693.956	351.23
694.146	142.33
694.335	275.45
694.524	234.49
694.713	340.99
694.902	181.25
695.092	252.92
695.281	300.03
695.47	232.44
695.659	310.27
695.848	185.34
696.037	156.67
696.226	269.31
696.415	224.25
696.604	359.42
696.793	316.41
696.982	205.82
697.171	324.6
697.36	201.72
697.549	259.07
697.738	109.57
697.927	242.68
698.116	160.77
698.305	265.21
698.494	328.7
698.683	211.96
698.872	357.37
699.061	336.89
699.25	185.34
699.438	230.4
699.627	179.2
699.816	369.66
700.005	158.72
700.193	117.76
700.382	238.59
700.571	330.75
700.76	330.75
700.948	263.16
701.137	359.42
701.326	293.88
701.514	148.48
701.703	248.83
701.892	279.55
702.08	427
702.269	238.59
702.457	232.44
702.646	222.2
702.834	240.64
703.023	328.7
703.212	359.42
703.4	207.87
703.589	121.85
703.777	123.9
703.965	109.57
704.154	230.4
704.342	156.67
704.531	224.25
704.719	293.88
704.907	304.12
705.096	56.32
705.284	191.49
705.472	238.59
705.661	271.36
705.849	275.45
706.037	353.27
706.226	302.08
706.414	236.54
706.602	119.81
706.79	293.88
706.979	189.44
707.167	263.16
707.355	101.37
707.543	261.12
707.731	277.5
707.919	209.92
708.107	230.4
708.296	214.01
708.484	160.77
708.672	220.16
708.86	259.07
709.048	250.88
709.236	181.25
709.424	361.47
709.612	281.6
709.8	101.37
709.988	222.2
710.176	312.32
710.364	359.42
710.551	205.82
710.739	187.39
710.927	201.72
711.115	263.16
711.303	326.65
711.491	326.65
711.679	199.68
711.866	316.41
712.054	214.01
712.242	205.82
712.43	375.8
712.617	175.1
712.805	250.88
712.993	267.26
713.181	191.49
713.368	308.22
713.556	273.4
713.744	193.53
713.931	410.62
714.119	293.88
714.306	220.16
714.494	166.91
714.682	246.78
714.869	214.01
715.057	265.21
715.244	144.38
715.432	222.2
715.619	171.01
715.807	101.37
715.994	240.64
716.182	269.31
716.369	295.93
716.556	349.18
716.744	171.01
716.931	205.82
717.119	271.36
717.306	261.12
717.493	281.6
717.681	261.12
717.868	209.92
718.055	322.56
718.242	271.36
718.43	246.78
718.617	402.43
718.804	216.06
718.991	269.31
719.179	209.92
719.366	318.46
719.553	234.49
719.74	304.12
719.927	279.55
720.114	234.49
720.301	205.82
720.488	191.49
720.676	228.35
720.863	320.51
721.05	400.38
721.237	322.56
721.424	355.32
721.611	340.99
721.798	205.82
721.985	234.49
722.172	297.98
722.358	336.89
722.545	314.36
722.732	375.8
722.919	349.18
723.106	353.27
723.293	347.13
723.48	314.36
723.667	242.68
723.853	349.18
724.04	394.23
724.227	367.61
724.414	257.02
724.6	336.89
724.787	439.29
724.974	504.82
725.161	297.98
725.347	234.49
725.534	265.21
725.72	320.51
725.907	443.39
726.094	345.08
726.28	289.79
726.467	351.23
726.653	222.2
726.84	402.43
727.027	396.28
727.213	259.07
727.4	388.09
727.586	338.94
727.773	394.23
727.959	318.46
728.145	443.39
728.332	295.93
728.518	234.49
728.705	433.15
728.891	361.47
729.077	297.98
729.264	349.18
729.45	343.03
729.636	373.75
729.823	293.88
730.009	353.27
730.195	355.32
730.382	394.23
730.568	238.59
730.754	324.6
730.94	263.16
731.126	283.64
731.313	326.65
731.499	275.45
731.685	369.66
731.871	377.85
732.057	414.71
732.243	416.76
732.429	304.12
732.615	351.23
732.801	340.99
732.987	377.85
733.173	334.84
733.359	259.07
733.545	363.51
733.731	334.84
733.917	406.52
734.103	388.09
734.289	379.9
734.475	334.84
734.661	424.95
734.847	390.14
735.033	383.99
735.219	377.85
735.404	293.88
735.59	351.23
735.776	279.55
735.962	357.37
736.148	414.71
736.333	521.21
736.519	416.76
736.705	404.47
736.89	340.99
737.076	320.51
737.262	300.03
737.447	332.79
737.633	373.75
737.819	433.15
738.004	332.79
738.19	285.69
738.375	386.04
738.561	396.28
738.747	396.28
738.932	377.85
739.118	467.96
739.303	379.9
739.489	363.51
739.674	355.32
739.859	343.03
740.045	369.66
740.23	355.32
740.416	308.22
740.601	416.76
740.786	324.6
740.972	216.06
741.157	349.18
741.342	297.98
741.528	300.03
741.713	427
741.898	367.61
742.084	406.52
742.269	406.52
742.454	412.67
742.639	494.58
742.824	455.67
743.01	431.1
743.195	545.78
743.38	371.71
743.565	373.75
743.75	383.99
743.935	435.19
744.12	431.1
744.305	316.41
744.49	330.75
744.675	308.22
744.86	334.84
745.045	295.93
745.23	297.98
745.415	322.56
745.6	496.63
745.785	277.5
745.97	349.18
746.155	447.48
746.34	418.81
746.525	359.42
746.71	398.33
746.895	269.31
747.079	287.74
747.264	250.88
747.449	445.43
747.634	510.97
747.819	355.32
748.003	320.51
748.188	304.12
748.373	345.08
748.557	345.08
748.742	326.65
748.927	349.18
749.111	300.03
749.296	300.03
749.481	377.85
749.665	330.75
749.85	230.4
750.034	383.99
750.219	281.6
750.404	328.7
750.588	351.23
750.773	257.02
750.957	334.84
751.141	312.32
751.326	343.03
751.51	175.1
751.695	285.69
751.879	183.29
752.064	431.1
752.248	306.17
752.432	361.47
752.617	336.89
752.801	345.08
752.985	257.02
753.17	343.03
753.354	271.36
753.538	379.9
753.722	136.19
753.907	218.11
754.091	244.73
754.275	330.75
754.459	220.16
754.643	218.11
754.828	306.17
755.012	283.64
755.196	224.25
755.38	240.64
755.564	263.16
755.748	330.75
755.932	310.27
756.116	326.65
756.3	351.23
756.484	259.07
756.668	254.97
756.852	117.76
757.036	218.11
757.22	293.88
757.404	175.1
757.588	201.72
757.772	250.88
757.956	207.87
758.14	363.51
758.323	228.35
758.507	232.44
758.691	234.49
758.875	312.32
759.059	330.75
759.242	224.25
759.426	179.2
759.61	259.07
759.794	187.39
759.977	285.69
760.161	441.34
760.345	259.07
760.528	279.55
760.712	275.45
760.895	259.07
761.079	138.24
761.263	121.85
761.446	150.53
761.63	175.1
761.813	297.98
761.997	173.05
762.18	150.53
762.364	269.31
762.547	111.61
762.731	134.14
762.914	193.53
763.098	218.11
763.281	117.76
763.464	166.91
763.648	193.53
763.831	128
764.015	125.95
764.198	297.98
764.381	173.05
764.564	214.01
764.748	273.4
764.931	209.92
765.114	115.71
765.297	220.16
765.481	107.52
765.664	232.44
765.847	150.53
766.03	328.7
766.213	91.13
766.397	197.63
766.58	121.85
766.763	240.64
766.946	78.85
767.129	146.43
767.312	31.74
767.495	214.01
767.678	150.53
767.861	203.77
768.044	119.81
768.227	166.91
768.41	181.25
768.593	203.77
768.776	146.43
768.959	82.94
769.142	195.58
769.324	150.53
769.507	136.19
769.69	171.01
769.873	146.43
770.056	365.56
770.239	119.81
770.421	257.02
770.604	201.72
770.787	222.2
770.97	113.66
771.152	95.23
771.335	224.25
771.518	128
771.7	160.77
771.883	283.64
772.066	144.38
772.248	214.01
772.431	283.64
772.613	222.2
772.796	121.85
772.978	265.21
773.161	199.68
773.343	54.27
773.526	91.13
773.708	142.33
773.891	54.27
774.073	121.85
774.256	148.48
774.438	289.79
774.621	84.99
774.803	173.05
774.985	84.99
775.168	189.44
775.35	177.15
775.532	166.91
775.715	91.13
775.897	152.57
776.079	74.75
776.261	44.03
776.444	177.15
776.626	82.94
776.808	105.47
776.99	7.17
777.173	156.67
777.355	97.28
777.537	152.57
777.719	119.81
777.901	80.89
778.083	48.13
778.265	-19.46
778.447	152.57
778.629	54.27
778.811	150.53
778.993	74.75
779.175	82.94
779.357	117.76
779.539	74.75
779.721	148.48
779.903	154.62
780.085	113.66
780.267	91.13
780.449	74.75
780.631	150.53
780.812	201.72
780.994	103.42
781.176	121.85
781.358	60.42
781.54	58.37
781.721	185.34
781.903	189.44
782.085	41.98
782.267	164.86
782.448	52.22
782.63	89.09
782.812	93.18
782.993	162.81
783.175	111.61
783.357	58.37
783.538	203.77
783.72	95.23
783.901	113.66
784.083	119.81
784.264	162.81
784.446	44.03
784.627	1.02
784.809	113.66
784.99	66.56
785.172	119.81
785.353	3.07
785.535	54.27
785.716	46.08
785.897	15.36
786.079	78.85
786.26	103.42
786.441	117.76
786.623	39.94
786.804	25.6
786.985	-23.55
787.167	66.56
787.348	91.13
787.529	35.84
787.71	199.68
787.891	144.38
788.073	25.6
788.254	-9.22
788.435	177.15
788.616	115.71
788.797	66.56
788.978	54.27
789.159	-44.03
789.34	128
789.522	68.61
789.703	-11.26
789.884	87.04
790.065	84.99
790.246	230.4
790.427	9.22
790.607	150.53
790.788	160.77
790.969	-93.18
791.15	119.81
791.331	15.36
791.512	37.89
791.693	23.55
791.874	64.51
792.054	201.72
792.235	148.48
792.416	27.65
792.597	-3.07
792.778	91.13
792.958	123.9
793.139	56.32
793.32	72.7
793.5	25.6
793.681	117.76
793.862	46.08
794.042	31.74
794.223	-21.5
794.404	-15.36
794.584	7.17
794.765	33.79
794.945	35.84
795.126	111.61
795.306	111.61
795.487	25.6
795.667	48.13
795.848	132.09
796.028	56.32
796.209	56.32
796.389	138.24
796.57	78.85
796.75	-39.94
796.93	113.66
797.111	-46.08
797.291	23.55
797.471	128
797.652	-23.55
797.832	1.02
798.012	50.18
798.192	-17.41
798.373	-113.66
798.553	-15.36
798.733	48.13
798.913	21.5
799.093	-25.6
799.274	99.33
799.454	70.65
799.634	138.24
799.814	93.18
799.994	132.09
800.174	97.28
800.354	37.89
800.534	29.7
800.714	93.18
800.894	-31.74
801.074	-70.65
801.254	11.26
801.434	105.47
801.614	68.61
801.794	-3.07
801.974	1764.33
802.154	39.94
802.334	134.14
802.514	-1.02
802.693	29.7
802.873	-3.07
803.053	125.95
803.233	136.19
803.413	17.41
803.592	-11.26
803.772	-72.7
803.952	-27.65
804.131	-74.75
804.311	60.42
804.491	209.92
804.67	-17.41
804.85	-72.7
805.03	115.71
805.209	54.27
805.389	46.08
805.568	11.26
805.748	11.26
805.928	48.13
806.107	113.66
806.287	33.79
806.466	46.08
806.646	99.33
806.825	52.22
807.004	31.74
807.184	103.42
807.363	74.75
807.543	160.77
807.722	-15.36
807.901	125.95
808.081	68.61
808.26	-62.46
808.439	66.56
808.619	44.03
808.798	50.18
808.977	68.61
809.156	123.9
809.336	21.5
809.515	91.13
809.694	-50.18
809.873	33.79
810.052	23.55
810.231	93.18
810.411	78.85
810.59	119.81
810.769	31.74
810.948	91.13
811.127	-154.62
811.306	-15.36
811.485	23.55
811.664	203.77
811.843	3.07
812.022	68.61
812.201	-23.55
812.38	7.17
812.559	-44.03
812.737	48.13
812.916	-84.99
813.095	-41.98
813.274	80.89
813.453	3.07
813.632	27.65
813.811	64.51
813.989	-68.61
814.168	-5.12
814.347	-44.03
814.526	13.31
814.704	134.14
814.883	195.58
815.062	-31.74
815.24	101.37
815.419	-27.65
815.598	89.09
815.776	-140.29
815.955	15.36
816.133	-82.94
816.312	-5.12
816.49	31.74
816.669	60.42
816.847	29.7
817.026	-9.22
817.204	17.41
817.383	-54.27
817.561	21.5
817.74	95.23
817.918	62.46
818.097	-84.99
818.275	-168.96
818.453	-39.94
818.632	37.89
818.81	-46.08
818.988	-62.46
819.167	-37.89
819.345	64.51
819.523	-99.33
819.701	29.7
819.879	66.56
820.058	50.18
820.236	9.22
820.414	-5.12
820.592	27.65
820.77	-25.6
820.948	52.22
821.127	-52.22
821.305	15.36
821.483	-44.03
821.661	99.33
821.839	25.6
822.017	-17.41
822.195	25.6
822.373	54.27
822.551	60.42
822.729	44.03
822.907	31.74
823.085	37.89
823.262	64.51
823.44	17.41
823.618	46.08
823.796	-74.75
823.974	-9.22
824.152	52.22
824.329	-15.36
824.507	9.22
824.685	52.22
824.863	-7.17
825.04	44.03
825.218	50.18
825.396	58.37
825.574	64.51
825.751	-13.31
825.929	27.65
826.107	-44.03
826.284	9.22
826.462	60.42
826.639	11.26
826.817	-76.8
826.994	-48.13
827.172	-68.61
827.349	89.09
827.527	91.13
827.704	74.75
827.882	111.61
828.059	35.84
828.237	33.79
828.414	121.85
828.591	-168.96
828.769	25.6
828.946	-52.22
829.124	103.42
829.301	95.23
829.478	-117.76
829.655	54.27
829.833	35.84
830.01	-160.77
830.187	37.89
830.364	-52.22
830.542	37.89
830.719	66.56
830.896	84.99
831.073	80.89
831.25	54.27
831.427	99.33
831.604	72.7
831.782	3.07
831.959	19.46
832.136	74.75
832.313	-1.02
832.49	1.02
832.667	1.02
832.844	-44.03
833.021	105.47
833.198	103.42
833.374	27.65
833.551	-5.12
833.728	-80.89
833.905	17.41
834.082	-21.5
834.259	29.7
834.436	97.28
834.612	-84.99
834.789	70.65
834.966	33.79
835.143	-21.5
835.319	-76.8
835.496	68.61
835.673	1.02
835.85	62.46
836.026	74.75
836.203	82.94
836.38	-58.37
836.556	-11.26
836.733	-93.18
836.909	76.8
837.086	-7.17
837.262	-27.65
837.439	17.41
837.616	-119.81
837.792	-21.5
837.968	60.42
838.145	-164.86
838.321	-3.07
838.498	56.32
838.674	84.99
838.851	23.55
839.027	-74.75
839.203	72.7
839.38	21.5
839.556	19.46
839.732	78.85
839.909	-9.22
840.085	58.37
840.261	-72.7
840.437	-29.7
840.614	-41.98
840.79	60.42
840.966	60.42
841.142	5.12
841.318	-54.27
841.494	9.22
841.671	97.28
841.847	-39.94
842.023	-50.18
842.199	37.89
842.375	37.89
842.551	-78.85
842.727	-76.8
842.903	150.53
843.079	-82.94
843.255	117.76
843.431	37.89
843.607	-3.07
843.783	-97.28
843.959	84.99
844.134	-25.6
844.31	93.18
844.486	13.31
844.662	-39.94
844.838	5.12
845.013	3.07
845.189	50.18
845.365	11.26
845.541	46.08
845.716	37.89
845.892	117.76
846.068	-35.84
846.244	-9.22
846.419	41.98
846.595	-44.03
846.77	-58.37
846.946	58.37
847.122	13.31
847.297	1.02
847.473	48.13
847.648	-50.18
847.824	44.03
847.999	-134.14
848.175	-11.26
848.35	48.13
848.526	142.33
848.701	66.56
848.876	173.05
849.052	54.27
849.227	-39.94
849.403	17.41
849.578	-78.85
849.753	46.08
849.929	9.22
850.104	-72.7
850.279	37.89
850.454	21.5
850.63	74.75
850.805	103.42
850.98	46.08
851.155	-37.89
851.33	91.13
851.505	-41.98
851.681	146.43
851.856	-70.65
852.031	56.32
852.206	52.22
852.381	-35.84
852.556	25.6
852.731	-31.74
852.906	111.61
853.081	33.79
853.256	119.81
853.431	5.12
853.606	-48.13
853.781	-76.8
853.956	-91.13
854.131	19.46
854.305	-62.46
854.48	-13.31
854.655	-46.08
854.83	-21.5
855.005	21.5
855.18	-70.65
855.354	-44.03
855.529	-15.36
855.704	-33.79
855.879	41.98
856.053	-41.98
856.228	-13.31
856.403	-56.32
856.577	41.98
856.752	-44.03
856.926	-23.55
857.101	35.84
857.276	-48.13
857.45	39.94
857.625	21.5
857.799	11.26
857.974	-21.5
858.148	-39.94
858.323	95.23
858.497	-33.79
858.672	-60.42
858.846	46.08
859.02	78.85
859.195	-23.55
859.369	-5.12
859.543	-9.22
859.718	56.32
859.892	19.46
860.066	17.41
860.241	-44.03
860.415	-31.74
860.589	-62.46
860.763	-19.46
860.938	-1.02
861.112	52.22
861.286	-48.13
861.46	101.37
861.634	-37.89
861.808	54.27
861.982	41.98
862.157	7.17
862.331	-70.65
862.505	-29.7
862.679	-54.27
862.853	-23.55
863.027	-78.85
863.201	160.77
863.375	-39.94
863.549	62.46
863.722	25.6
863.896	99.33
864.07	-87.04
864.244	-31.74
864.418	74.75
864.592	-1.02
864.766	3.07
864.939	58.37
865.113	-23.55
865.287	35.84
865.461	-56.32
865.634	21.5
865.808	-15.36
865.982	-15.36
866.156	-52.22
866.329	-150.53
866.503	21.5
866.676	99.33
866.85	87.04
867.024	-25.6
867.197	84.99
867.371	50.18
867.544	25.6
867.718	-78.85
867.891	70.65
868.065	-62.46
868.238	19.46
868.412	109.57
868.585	-52.22
868.759	-13.31
868.932	-64.51
869.105	-87.04
869.279	9.22
869.452	-91.13
869.625	97.28
869.799	-27.65
869.972	-115.71
870.145	-52.22
870.319	41.98
870.492	-5.12
870.665	-19.46
870.838	-39.94
871.011	-150.53
871.185	-54.27
871.358	-7.17
871.531	60.42
871.704	7.17
871.877	41.98
872.05	3.07
872.223	-107.52
872.396	33.79
872.569	60.42
872.742	-146.43
872.915	52.22
873.088	-1.02
873.261	-48.13
873.434	48.13
873.607	-52.22
873.78	132.09
873.953	-29.7
874.126	56.32
874.299	50.18
874.471	-39.94
874.644	-13.31
874.817	91.13
874.99	87.04
875.163	37.89
875.335	11.26
875.508	41.98
875.681	130.05
875.853	-54.27
876.026	-17.41
876.199	48.13
876.371	-25.6
876.544	39.94
876.717	-13.31
876.889	9.22
877.062	58.37
877.234	-11.26
877.407	-48.13
877.579	1.02
877.752	52.22
877.924	66.56
878.097	31.74
878.269	17.41
878.442	-27.65
878.614	60.42
878.786	-1.02
878.959	25.6
879.131	-27.65
879.303	-185.34
879.476	-93.18
879.648	54.27
879.82	-17.41
879.993	19.46
880.165	-52.22
880.337	-109.57
880.509	-15.36
880.681	-76.8
880.854	-7.17
881.026	54.27
881.198	138.24
881.37	-97.28
881.542	3.07
881.714	-39.94
881.886	27.65
882.058	-70.65
882.23	50.18
882.402	37.89
882.574	41.98
882.746	44.03
882.918	121.85
883.09	70.65
883.262	41.98
883.434	-29.7
883.606	-44.03
883.778	25.6
883.95	164.86
884.122	29.7
884.293	27.65
884.465	-27.65
884.637	17.41
884.809	-23.55
884.98	21.5
885.152	15.36
885.324	91.13
885.496	-46.08
885.667	-99.33
885.839	-60.42
886.011	148.48
886.182	9.22
886.354	21.5
886.525	56.32
886.697	17.41
886.869	-13.31
887.04	17.41
887.212	91.13
887.383	128
887.555	54.27
887.726	-48.13
887.897	11.26
888.069	37.89
888.24	11.26
888.412	39.94
888.583	33.79
888.754	-1.02
888.926	-103.42
889.097	-39.94
889.268	-35.84
889.44	-11.26
889.611	-17.41
889.782	-64.51
889.953	-60.42
890.125	52.22
890.296	-15.36
890.467	19.46
890.638	33.79
890.809	48.13
890.98	-15.36
891.151	72.7
891.323	136.19
891.494	78.85
891.665	31.74
891.836	1.02
892.007	-39.94
892.178	-9.22
892.349	25.6
892.52	-37.89
892.691	29.7
892.862	-62.46
893.032	-107.52
893.203	-128
893.374	11.26
893.545	48.13
893.716	-21.5
893.887	156.67
894.057	-11.26
894.228	80.89
894.399	-84.99
894.57	58.37
894.74	-7.17
894.911	1.02
895.082	-60.42
895.253	-52.22
895.423	-1.02
895.594	76.8
895.764	17.41
895.935	-7.17
896.106	11.26
896.276	-46.08
896.447	72.7
896.617	-68.61
896.788	-31.74
896.958	-29.7
897.129	-35.84
897.299	-62.46
897.47	64.51
897.64	17.41
897.81	-33.79
897.981	1.02
898.151	-35.84
898.322	33.79
898.492	44.03
898.662	-70.65
898.832	-19.46
899.003	25.6
899.173	15.36
899.343	-68.61
899.513	-3.07
