Data from USB4F104151__60__09-28-57-501.txt Node

Date: Wed Feb 26 09:28:57 EST 2025
User: louis
Spectrometer: USB4F10415
Trigger mode: 4
Integration Time (sec): 1.000000E-1
Scans to average: 1
Electric dark correction enabled: true
Nonlinearity correction enabled: false
Boxcar width: 0
XAxis mode: Wavelengths
Number of Pixels in Spectrum: 3648
>>>>>Begin Spectral Data<<<<<
178.204	-351.74
178.424	-351.74
178.644	-351.74
178.864	-396.79
179.084	-339.45
179.304	-11.78
179.524	-22.02
179.744	80.38
179.964	4.61
180.184	70.14
180.404	27.14
180.624	0.51
180.844	-7.68
181.064	-110.08
181.283	82.43
181.503	-65.02
181.723	-48.64
181.943	-38.4
182.163	143.87
182.383	33.28
182.602	57.86
182.822	115.2
183.042	31.23
183.262	-50.69
183.482	43.52
183.701	-54.78
183.921	49.66
184.141	-95.74
184.361	29.18
184.58	64
184.8	90.62
185.02	59.9
185.239	96.77
185.459	33.28
185.679	41.47
185.898	-19.97
186.118	35.33
186.338	-3.58
186.557	182.78
186.777	-52.74
186.997	-28.16
187.216	92.67
187.436	119.29
187.655	25.09
187.875	100.86
188.095	-7.68
188.314	123.39
188.534	195.07
188.753	-28.16
188.973	150.01
189.192	127.49
189.412	94.72
189.631	47.62
189.851	78.33
190.07	135.68
190.29	-9.73
190.509	-71.17
190.729	47.62
190.948	78.33
191.168	184.83
191.387	37.38
191.607	37.38
191.826	70.14
192.045	20.99
192.265	70.14
192.484	16.9
192.704	-40.45
192.923	-54.78
193.142	66.05
193.362	154.11
193.581	76.29
193.8	76.29
194.02	98.81
194.239	139.77
194.458	6.66
194.678	-15.87
194.897	92.67
195.116	39.42
195.335	25.09
195.555	68.09
195.774	27.14
195.993	102.91
196.212	12.8
196.432	-62.98
196.651	-15.87
196.87	53.76
197.089	147.97
197.308	90.62
197.528	82.43
197.747	-28.16
197.966	-15.87
198.185	180.73
198.404	20.99
198.623	92.67
198.842	72.19
199.062	39.42
199.281	137.73
199.5	4.61
199.719	119.29
199.938	94.72
200.157	20.99
200.376	88.57
200.595	74.24
200.814	70.14
201.033	45.57
201.252	98.81
201.471	41.47
201.69	133.63
201.909	109.05
202.128	47.62
202.347	47.62
202.566	8.7
202.785	-44.54
203.004	6.66
203.223	248.32
203.442	70.14
203.661	-11.78
203.879	37.38
204.098	107.01
204.317	35.33
204.536	104.96
204.755	86.53
204.974	133.63
205.193	-3.58
205.411	147.97
205.63	53.76
205.849	41.47
206.068	-24.06
206.287	47.62
206.505	98.81
206.724	45.57
206.943	6.66
207.162	20.99
207.381	70.14
207.599	29.18
207.818	8.7
208.037	20.99
208.255	8.7
208.474	43.52
208.693	94.72
208.911	33.28
209.13	90.62
209.349	43.52
209.567	76.29
209.786	141.82
210.005	135.68
210.223	74.24
210.442	-17.92
210.661	68.09
210.879	70.14
211.098	115.2
211.316	18.94
211.535	-1.54
211.753	49.66
211.972	41.47
212.191	0.51
212.409	-36.35
212.628	37.38
212.846	41.47
213.065	100.86
213.283	12.8
213.502	-22.02
213.72	49.66
213.938	49.66
214.157	8.7
214.375	90.62
214.594	-7.68
214.812	78.33
215.031	41.47
215.249	86.53
215.467	70.14
215.686	66.05
215.904	156.16
216.122	53.76
216.341	94.72
216.559	37.38
216.778	25.09
216.996	27.14
217.214	39.42
217.432	45.57
217.651	-28.16
217.869	45.57
218.087	84.48
218.306	-60.93
218.524	78.33
218.742	35.33
218.96	102.91
219.179	-22.02
219.397	6.66
219.615	205.31
219.833	137.73
220.051	-38.4
220.27	131.58
220.488	125.44
220.706	-7.68
220.924	57.86
221.142	-40.45
221.36	43.52
221.578	100.86
221.796	16.9
222.015	4.61
222.233	55.81
222.451	84.48
222.669	-13.82
222.887	80.38
223.105	23.04
223.323	-19.97
223.541	16.9
223.759	12.8
223.977	25.09
224.195	147.97
224.413	86.53
224.631	-60.93
224.849	64
225.067	223.74
225.285	27.14
225.503	-9.73
225.721	-38.4
225.939	23.04
226.157	37.38
226.375	184.83
226.592	-58.88
226.81	-11.78
227.028	53.76
227.246	129.53
227.464	61.95
227.682	-3.58
227.9	49.66
228.117	96.77
228.335	31.23
228.553	45.57
228.771	25.09
228.989	98.81
229.206	-3.58
229.424	57.86
229.642	57.86
229.86	-3.58
230.077	188.93
230.295	27.14
230.513	111.1
230.731	64
230.948	27.14
231.166	139.77
231.384	-11.78
231.601	-40.45
231.819	100.86
232.037	-83.45
232.254	-50.69
232.472	18.94
232.689	72.19
232.907	111.1
233.125	-7.68
233.342	37.38
233.56	-26.11
233.777	14.85
233.995	55.81
234.213	61.95
234.43	-3.58
234.648	8.7
234.865	23.04
235.083	53.76
235.3	59.9
235.518	102.91
235.735	123.39
235.953	4.61
236.17	102.91
236.388	70.14
236.605	37.38
236.822	123.39
237.04	72.19
237.257	80.38
237.475	-54.78
237.692	68.09
237.909	117.25
238.127	-62.98
238.344	53.76
238.562	113.15
238.779	-52.74
238.996	-56.83
239.214	37.38
239.431	115.2
239.648	35.33
239.865	51.71
240.083	66.05
240.3	-40.45
240.517	66.05
240.735	33.28
240.952	78.33
241.169	74.24
241.386	45.57
241.603	84.48
241.821	41.47
242.038	61.95
242.255	135.68
242.472	-5.63
242.689	78.33
242.907	82.43
243.124	57.86
243.341	20.99
243.558	29.18
243.775	-67.07
243.992	-79.36
244.209	115.2
244.426	180.73
244.643	14.85
244.86	20.99
245.078	125.44
245.295	117.25
245.512	90.62
245.729	8.7
245.946	78.33
246.163	18.94
246.38	-5.63
246.597	57.86
246.814	25.09
247.031	37.38
247.248	64
247.464	119.29
247.681	-7.68
247.898	57.86
248.115	27.14
248.332	16.9
248.549	51.71
248.766	68.09
248.983	49.66
249.2	37.38
249.417	25.09
249.633	-44.54
249.85	29.18
250.067	-42.5
250.284	80.38
250.501	25.09
250.717	80.38
250.934	-73.21
251.151	-58.88
251.368	51.71
251.585	45.57
251.801	98.81
252.018	-19.97
252.235	107.01
252.451	8.7
252.668	18.94
252.885	41.47
253.102	90.62
253.318	-3.58
253.535	47.62
253.752	-77.31
253.968	-54.78
254.185	-71.17
254.401	88.57
254.618	68.09
254.835	-32.26
255.051	78.33
255.268	152.06
255.484	74.24
255.701	4.61
255.917	109.05
256.134	2.56
256.351	-5.63
256.567	-24.06
256.784	20.99
257	-42.5
257.217	74.24
257.433	66.05
257.65	-40.45
257.866	113.15
258.082	-30.21
258.299	-11.78
258.515	88.57
258.732	45.57
258.948	10.75
259.165	35.33
259.381	20.99
259.597	133.63
259.814	20.99
260.03	33.28
260.246	84.48
260.463	86.53
260.679	72.19
260.895	-19.97
261.112	86.53
261.328	135.68
261.544	10.75
261.761	182.78
261.977	23.04
262.193	-60.93
262.409	43.52
262.626	4.61
262.842	31.23
263.058	-32.26
263.274	80.38
263.49	100.86
263.707	45.57
263.923	145.92
264.139	-77.31
264.355	16.9
264.571	117.25
264.787	61.95
265.004	68.09
265.22	18.94
265.436	10.75
265.652	-52.74
265.868	127.49
266.084	-48.64
266.3	47.62
266.516	70.14
266.732	41.47
266.948	37.38
267.164	10.75
267.38	35.33
267.596	35.33
267.812	180.73
268.028	20.99
268.244	-67.07
268.46	16.9
268.676	27.14
268.892	39.42
269.108	-5.63
269.324	49.66
269.54	-73.21
269.756	78.33
269.972	20.99
270.188	49.66
270.403	-34.3
270.619	84.48
270.835	123.39
271.051	33.28
271.267	-34.3
271.483	115.2
271.698	70.14
271.914	43.52
272.13	33.28
272.346	29.18
272.562	18.94
272.777	92.67
272.993	37.38
273.209	4.61
273.425	84.48
273.64	-83.45
273.856	74.24
274.072	-3.58
274.287	35.33
274.503	86.53
274.719	66.05
274.934	94.72
275.15	-67.07
275.366	61.95
275.581	-28.16
275.797	-54.78
276.012	-46.59
276.228	10.75
276.444	-3.58
276.659	133.63
276.875	-60.93
277.09	16.9
277.306	-42.5
277.521	188.93
277.737	-62.98
277.952	27.14
278.168	57.86
278.383	49.66
278.599	78.33
278.814	66.05
279.03	0.51
279.245	104.96
279.461	76.29
279.676	66.05
279.892	-22.02
280.107	12.8
280.322	-9.73
280.538	86.53
280.753	-30.21
280.969	-9.73
281.184	12.8
281.399	158.21
281.615	20.99
281.83	41.47
282.045	-3.58
282.26	25.09
282.476	23.04
282.691	53.76
282.906	35.33
283.122	55.81
283.337	-32.26
283.552	119.29
283.767	-17.92
283.983	90.62
284.198	-3.58
284.413	152.06
284.628	-5.63
284.843	14.85
285.058	51.71
285.274	23.04
285.489	-36.35
285.704	141.82
285.919	-46.59
286.134	-77.31
286.349	111.1
286.564	-36.35
286.779	94.72
286.995	-24.06
287.21	-50.69
287.425	35.33
287.64	10.75
287.855	8.7
288.07	-114.17
288.285	111.1
288.5	57.86
288.715	86.53
288.93	4.61
289.145	-48.64
289.36	84.48
289.575	123.39
289.79	127.49
290.004	18.94
290.219	70.14
290.434	98.81
290.649	-3.58
290.864	29.18
291.079	4.61
291.294	-19.97
291.509	37.38
291.724	61.95
291.938	-73.21
292.153	88.57
292.368	-34.3
292.583	16.9
292.798	41.47
293.012	-11.78
293.227	41.47
293.442	-28.16
293.657	115.2
293.871	104.96
294.086	47.62
294.301	139.77
294.516	59.9
294.73	0.51
294.945	-60.93
295.16	31.23
295.374	78.33
295.589	129.53
295.804	16.9
296.018	-3.58
296.233	53.76
296.447	-79.36
296.662	-30.21
296.877	33.28
297.091	-11.78
297.306	-38.4
297.52	12.8
297.735	31.23
297.949	37.38
298.164	74.24
298.378	-36.35
298.593	14.85
298.807	-3.58
299.022	37.38
299.236	125.44
299.451	8.7
299.665	-5.63
299.88	-19.97
300.094	43.52
300.309	45.57
300.523	25.09
300.737	70.14
300.952	37.38
301.166	4.61
301.381	-28.16
301.595	-36.35
301.809	12.8
302.024	-36.35
302.238	-40.45
302.452	180.73
302.667	16.9
302.881	76.29
303.095	92.67
303.309	37.38
303.524	4.61
303.738	66.05
303.952	-36.35
304.166	111.1
304.381	-118.27
304.595	135.68
304.809	-19.97
305.023	-30.21
305.237	8.7
305.452	-32.26
305.666	0.51
305.88	98.81
306.094	160.25
306.308	45.57
306.522	90.62
306.736	68.09
306.95	94.72
307.164	-38.4
307.379	51.71
307.593	111.1
307.807	121.34
308.021	61.95
308.235	139.77
308.449	-81.41
308.663	47.62
308.877	139.77
309.091	94.72
309.305	129.53
309.519	-81.41
309.733	70.14
309.947	-15.87
310.161	45.57
310.374	178.69
310.588	74.24
310.802	-36.35
311.016	-7.68
311.23	33.28
311.444	-19.97
311.658	70.14
311.872	119.29
312.085	135.68
312.299	102.91
312.513	90.62
312.727	-7.68
312.941	-15.87
313.154	-17.92
313.368	70.14
313.582	29.18
313.796	27.14
314.009	57.86
314.223	160.25
314.437	29.18
314.651	39.42
314.864	-11.78
315.078	0.51
315.292	-60.93
315.505	53.76
315.719	33.28
315.933	123.39
316.146	-17.92
316.36	-44.54
316.573	78.33
316.787	37.38
317.001	76.29
317.214	-60.93
317.428	84.48
317.641	-60.93
317.855	29.18
318.068	-3.58
318.282	43.52
318.495	139.77
318.709	59.9
318.922	88.57
319.136	121.34
319.349	78.33
319.563	-19.97
319.776	68.09
319.99	-120.32
320.203	111.1
320.417	51.71
320.63	61.95
320.843	111.1
321.057	66.05
321.27	35.33
321.483	74.24
321.697	160.25
321.91	25.09
322.124	41.47
322.337	35.33
322.55	76.29
322.763	53.76
322.977	8.7
323.19	29.18
323.403	78.33
323.617	43.52
323.83	109.05
324.043	8.7
324.256	96.77
324.469	-81.41
324.683	119.29
324.896	51.71
325.109	6.66
325.322	-11.78
325.535	68.09
325.748	64
325.962	47.62
326.175	37.38
326.388	20.99
326.601	102.91
326.814	6.66
327.027	-19.97
327.24	102.91
327.453	-46.59
327.666	70.14
327.879	107.01
328.092	45.57
328.305	76.29
328.518	-19.97
328.731	-50.69
328.944	51.71
329.157	70.14
329.37	43.52
329.583	147.97
329.796	82.43
330.009	-54.78
330.222	76.29
330.435	133.63
330.648	51.71
330.861	4.61
331.073	100.86
331.286	107.01
331.499	45.57
331.712	-93.69
331.925	-5.63
332.138	12.8
332.35	156.16
332.563	-17.92
332.776	111.1
332.989	8.7
333.202	45.57
333.414	31.23
333.627	-19.97
333.84	20.99
334.053	20.99
334.265	-44.54
334.478	-30.21
334.691	-95.74
334.903	64
335.116	-26.11
335.329	61.95
335.541	119.29
335.754	117.25
335.966	-19.97
336.179	80.38
336.392	-38.4
336.604	61.95
336.817	45.57
337.029	70.14
337.242	39.42
337.454	27.14
337.667	4.61
337.88	162.3
338.092	39.42
338.305	0.51
338.517	18.94
338.729	82.43
338.942	102.91
339.154	-19.97
339.367	-101.89
339.579	143.87
339.792	43.52
340.004	-3.58
340.217	-32.26
340.429	68.09
340.641	-46.59
340.854	-87.55
341.066	72.19
341.278	82.43
341.491	244.22
341.703	25.09
341.915	-15.87
342.128	131.58
342.34	90.62
342.552	-24.06
342.764	14.85
342.977	8.7
343.189	53.76
343.401	90.62
343.613	2.56
343.826	-30.21
344.038	-13.82
344.25	70.14
344.462	-60.93
344.674	39.42
344.886	-28.16
345.099	76.29
345.311	66.05
345.523	-93.69
345.735	47.62
345.947	55.81
346.159	20.99
346.371	-9.73
346.583	-3.58
346.795	143.87
347.007	20.99
347.219	-1.54
347.431	-32.26
347.643	111.1
347.855	20.99
348.067	119.29
348.279	-44.54
348.491	6.66
348.703	127.49
348.915	51.71
349.127	-89.6
349.339	66.05
349.551	25.09
349.763	41.47
349.975	57.86
350.187	45.57
350.399	133.63
350.61	88.57
350.822	53.76
351.034	61.95
351.246	27.14
351.458	57.86
351.669	86.53
351.881	102.91
352.093	53.76
352.305	107.01
352.517	49.66
352.728	78.33
352.94	29.18
353.152	66.05
353.363	-93.69
353.575	143.87
353.787	66.05
353.999	86.53
354.21	109.05
354.422	-36.35
354.633	-50.69
354.845	-44.54
355.057	37.38
355.268	49.66
355.48	66.05
355.692	-67.07
355.903	-11.78
356.115	-44.54
356.326	-48.64
356.538	107.01
356.749	61.95
356.961	129.53
357.172	-11.78
357.384	14.85
357.595	145.92
357.807	-11.78
358.018	-11.78
358.23	35.33
358.441	131.58
358.653	78.33
358.864	-58.88
359.075	-46.59
359.287	57.86
359.498	70.14
359.709	76.29
359.921	0.51
360.132	25.09
360.344	6.66
360.555	-50.69
360.766	47.62
360.977	35.33
361.189	-3.58
361.4	-13.82
361.611	121.34
361.823	37.38
362.034	57.86
362.245	-28.16
362.456	37.38
362.667	61.95
362.879	12.8
363.09	64
363.301	74.24
363.512	10.75
363.723	8.7
363.935	25.09
364.146	0.51
364.357	53.76
364.568	47.62
364.779	-58.88
364.99	117.25
365.201	59.9
365.412	121.34
365.623	-38.4
365.834	90.62
366.045	107.01
366.256	90.62
366.467	16.9
366.678	76.29
366.889	76.29
367.1	-11.78
367.311	115.2
367.522	78.33
367.733	94.72
367.944	72.19
368.155	37.38
368.366	59.9
368.577	117.25
368.788	107.01
368.999	55.81
369.209	-36.35
369.42	156.16
369.631	162.3
369.842	-22.02
370.053	37.38
370.264	78.33
370.474	-32.26
370.685	78.33
370.896	37.38
371.107	51.71
371.317	137.73
371.528	-46.59
371.739	70.14
371.95	102.91
372.16	119.29
372.371	-3.58
372.582	117.25
372.792	53.76
373.003	41.47
373.214	45.57
373.424	23.04
373.635	-36.35
373.846	92.67
374.056	-32.26
374.267	25.09
374.477	59.9
374.688	-13.82
374.898	33.28
375.109	23.04
375.319	55.81
375.53	113.15
375.74	115.2
375.951	-30.21
376.161	20.99
376.372	162.3
376.582	-50.69
376.793	35.33
377.003	49.66
377.214	-17.92
377.424	61.95
377.635	-9.73
377.845	25.09
378.055	74.24
378.266	-46.59
378.476	-15.87
378.686	61.95
378.897	86.53
379.107	-19.97
379.317	12.8
379.528	43.52
379.738	61.95
379.948	-46.59
380.158	107.01
380.369	29.18
380.579	107.01
380.789	53.76
380.999	102.91
381.21	-3.58
381.42	121.34
381.63	23.04
381.84	-19.97
382.05	61.95
382.261	109.05
382.471	74.24
382.681	8.7
382.891	70.14
383.101	29.18
383.311	-105.98
383.521	-7.68
383.731	49.66
383.941	66.05
384.151	-5.63
384.361	45.57
384.571	20.99
384.781	78.33
384.991	129.53
385.201	158.21
385.411	174.59
385.621	66.05
385.831	47.62
386.041	14.85
386.251	86.53
386.461	141.82
386.671	12.8
386.881	98.81
387.091	35.33
387.301	25.09
387.511	107.01
387.72	86.53
387.93	139.77
388.14	-19.97
388.35	49.66
388.56	100.86
388.769	51.71
388.979	-17.92
389.189	20.99
389.399	49.66
389.609	45.57
389.818	37.38
390.028	68.09
390.238	98.81
390.447	12.8
390.657	66.05
390.867	12.8
391.076	-44.54
391.286	18.94
391.496	12.8
391.705	59.9
391.915	-7.68
392.125	35.33
392.334	0.51
392.544	186.88
392.753	-11.78
392.963	-19.97
393.172	51.71
393.382	18.94
393.591	160.25
393.801	70.14
394.01	172.54
394.22	100.86
394.429	53.76
394.639	25.09
394.848	152.06
395.058	53.76
395.267	51.71
395.477	37.38
395.686	45.57
395.895	207.36
396.105	193.02
396.314	82.43
396.524	-7.68
396.733	31.23
396.942	111.1
397.152	94.72
397.361	100.86
397.57	12.8
397.78	-19.97
397.989	76.29
398.198	207.36
398.407	37.38
398.617	-17.92
398.826	51.71
399.035	49.66
399.244	133.63
399.453	-19.97
399.663	102.91
399.872	64
400.081	-3.58
400.29	143.87
400.499	-52.74
400.708	109.05
400.917	47.62
401.127	64
401.336	-36.35
401.545	168.45
401.754	166.4
401.963	78.33
402.172	-9.73
402.381	-60.93
402.59	29.18
402.799	20.99
403.008	41.47
403.217	82.43
403.426	18.94
403.635	-11.78
403.844	51.71
404.053	35.33
404.262	49.66
404.471	193.02
404.68	33.28
404.888	-15.87
405.097	-11.78
405.306	68.09
405.515	39.42
405.724	-26.11
405.933	102.91
406.142	51.71
406.35	20.99
406.559	61.95
406.768	55.81
406.977	61.95
407.185	86.53
407.394	72.19
407.603	-153.09
407.812	45.57
408.02	84.48
408.229	117.25
408.438	59.9
408.646	-11.78
408.855	72.19
409.064	-22.02
409.272	18.94
409.481	10.75
409.69	-95.74
409.898	-7.68
410.107	68.09
410.315	96.77
410.524	4.61
410.733	121.34
410.941	90.62
411.15	84.48
411.358	78.33
411.567	96.77
411.775	84.48
411.984	53.76
412.192	92.67
412.401	86.53
412.609	170.49
412.818	102.91
413.026	104.96
413.234	0.51
413.443	8.7
413.651	53.76
413.86	-22.02
414.068	98.81
414.276	107.01
414.485	-79.36
414.693	90.62
414.901	107.01
415.11	68.09
415.318	41.47
415.526	37.38
415.734	111.1
415.943	12.8
416.151	107.01
416.359	16.9
416.567	66.05
416.776	74.24
416.984	133.63
417.192	215.55
417.4	-24.06
417.608	-19.97
417.817	-60.93
418.025	78.33
418.233	115.2
418.441	-5.63
418.649	-15.87
418.857	84.48
419.065	131.58
419.273	-19.97
419.481	39.42
419.689	-9.73
419.897	-22.02
420.105	-32.26
420.313	88.57
420.521	129.53
420.729	86.53
420.937	25.09
421.145	-15.87
421.353	70.14
421.561	129.53
421.769	70.14
421.977	-1.54
422.185	25.09
422.393	39.42
422.601	53.76
422.809	59.9
423.017	61.95
423.224	12.8
423.432	164.35
423.64	12.8
423.848	53.76
424.056	-24.06
424.263	70.14
424.471	78.33
424.679	152.06
424.887	-7.68
425.094	59.9
425.302	70.14
425.51	29.18
425.718	111.1
425.925	61.95
426.133	-32.26
426.341	152.06
426.548	98.81
426.756	-5.63
426.964	29.18
427.171	-56.83
427.379	43.52
427.586	160.25
427.794	43.52
428.001	107.01
428.209	25.09
428.417	201.21
428.624	94.72
428.832	64
429.039	74.24
429.247	37.38
429.454	43.52
429.662	162.3
429.869	225.79
430.076	133.63
430.284	78.33
430.491	190.97
430.699	90.62
430.906	162.3
431.114	107.01
431.321	147.97
431.528	-3.58
431.736	90.62
431.943	100.86
432.15	70.14
432.358	72.19
432.565	158.21
432.772	-40.45
432.979	180.73
433.187	51.71
433.394	174.59
433.601	53.76
433.808	180.73
434.016	190.97
434.223	180.73
434.43	147.97
434.637	188.93
434.844	186.88
435.052	164.35
435.259	184.83
435.466	223.74
435.673	133.63
435.88	197.12
436.087	244.22
436.294	221.69
436.501	283.13
436.708	160.25
436.915	258.56
437.122	250.36
437.329	123.39
437.537	229.88
437.743	127.49
437.95	350.71
438.157	332.28
438.364	166.4
438.571	256.51
438.778	379.39
438.985	289.28
439.192	311.8
439.399	297.47
439.606	356.86
439.813	383.48
440.02	422.39
440.227	393.72
440.433	373.24
440.64	496.12
440.847	281.08
441.054	473.59
441.261	557.56
441.467	457.21
441.674	387.58
441.881	487.93
442.088	440.83
442.294	498.17
442.501	588.28
442.708	569.85
442.914	631.29
443.121	619
443.328	565.75
443.534	664.05
443.741	676.34
443.948	610.81
444.154	602.61
444.361	766.45
444.568	702.97
444.774	762.36
444.981	668.15
445.187	889.33
445.394	838.13
445.6	840.18
445.807	944.63
446.013	922.1
446.22	852.47
446.426	1049.07
446.633	971.25
446.839	1212.91
447.046	997.87
447.252	1194.48
447.459	1184.24
447.665	1309.16
447.871	1436.14
448.078	1438.19
448.284	1298.92
448.491	1450.47
448.697	1509.86
448.903	1563.11
449.11	1597.93
449.316	1556.97
449.522	1669.61
449.728	1737.19
449.935	1837.54
450.141	1823.2
450.347	2009.57
450.553	1954.27
450.76	1950.18
450.966	2206.17
451.172	2114.02
451.378	2073.06
451.584	2277.85
451.791	2513.37
451.997	2488.79
452.203	2609.62
452.409	2662.87
452.615	2841.04
452.821	2675.16
453.027	2795.99
453.233	3168.72
453.44	2988.5
453.646	3105.23
453.852	3293.65
454.058	3383.76
454.264	3563.98
454.47	3721.67
454.676	3731.91
454.882	4098.5
455.088	3961.28
455.294	4262.33
455.5	4307.39
455.705	4692.41
455.911	4661.69
456.117	4739.51
456.323	4876.73
456.529	4942.26
456.735	5351.85
456.941	5566.89
457.147	5767.59
457.352	5886.37
457.558	6136.23
457.764	6275.49
457.97	6617.5
458.176	6820.25
458.381	7252.37
458.587	7383.44
458.793	7594.38
458.999	7661.96
459.204	8528.25
459.41	8823.16
459.616	8540.54
459.821	9304.43
460.027	9589.1
460.233	10039.65
460.438	10203.49
460.644	10672.48
460.85	10879.32
461.055	11329.88
461.261	11862.35
461.466	11583.82
461.672	11919.69
461.878	13158.71
462.083	13117.75
462.289	13087.03
462.494	14074.15
462.7	13873.45
462.905	14203.18
463.111	15560.98
463.316	15900.94
463.522	16124.17
463.727	16734.46
463.932	17424.63
464.138	18102.51
464.343	18833.63
464.549	18696.42
464.754	20115.66
464.959	20478.15
465.165	21010.62
465.37	20902.08
465.575	21070.01
465.781	22345.9
465.986	22939.81
466.191	22634.66
466.397	22700.2
466.602	22302.89
466.807	23685.27
467.012	24238.22
467.218	24434.83
467.423	24348.81
467.628	25065.6
467.833	26339.44
468.038	26036.34
468.244	25682.04
468.449	26837.09
468.654	26187.89
468.859	26222.7
469.064	26187.89
469.269	25542.78
469.474	25657.46
469.679	26796.14
469.885	25743.48
470.09	26288.24
470.295	26095.73
470.5	25993.33
470.705	25804.92
470.91	25350.27
471.115	24676.49
471.32	25303.17
471.525	25352.32
471.73	24193.17
471.935	24352.91
472.139	23595.16
472.344	23404.7
472.549	23513.24
472.754	22681.77
472.959	22194.35
473.164	21651.64
473.369	21362.87
473.574	21921.97
473.778	21393.59
473.983	21106.88
474.188	20795.59
474.393	19708.12
474.598	19644.63
474.802	19253.47
475.007	18880.74
475.212	18893.02
475.417	18147.56
475.621	17813.74
475.826	17586.42
476.031	17285.37
476.235	16873.73
476.44	16906.49
476.645	16294.15
476.849	16294.15
477.054	16275.72
477.259	15552.79
477.463	15702.29
477.668	15296.79
477.872	15227.16
478.077	14711.07
478.282	14387.49
478.486	14156.07
478.691	13963.56
478.895	13857.07
479.1	14070.06
479.304	13824.3
479.509	13195.57
479.713	13443.38
479.918	13119.8
480.122	12804.41
480.326	12949.82
480.531	13162.81
480.735	12845.37
480.94	12210.5
481.144	12847.42
481.348	12196.17
481.553	12304.71
481.757	11991.37
481.961	12042.57
482.166	11993.42
482.37	11931.98
482.574	11790.67
482.778	11786.57
482.983	11841.87
483.187	11508.05
483.391	11727.18
483.595	11383.12
483.8	11309.4
484.004	11360.59
484.208	11346.26
484.412	11112.79
484.616	11057.5
484.821	10879.32
485.025	10621.28
485.229	10576.22
485.433	10275.17
485.637	10453.34
485.841	10043.75
486.045	10107.24
486.249	10131.81
486.453	9711.98
486.657	9605.49
486.861	9675.12
487.065	9222.52
487.269	9249.14
487.473	8927.61
487.677	9218.42
487.881	9027.96
488.085	8524.16
488.289	8585.6
488.493	8305.03
488.697	8323.46
488.901	8243.59
489.105	7950.73
489.309	7874.95
489.512	8006.02
489.716	7467.41
489.92	7410.06
490.124	7375.25
490.328	7221.65
490.531	7127.44
490.735	7098.77
490.939	6973.85
491.143	6664.6
491.346	6543.77
491.55	6535.58
491.754	6443.42
491.958	6400.41
492.161	6259.1
492.365	6203.81
492.569	6087.08
492.772	5988.77
492.976	5913
493.18	5966.24
493.383	5697.96
493.587	5591.47
493.79	5712.3
493.994	5540.27
494.197	5616.04
494.401	5558.7
494.605	5480.88
494.808	5243.31
495.012	5388.72
495.215	5319.09
495.419	5271.98
495.622	5095.86
495.825	5083.57
496.029	5147.06
496.232	5235.12
496.436	5061.04
496.639	5173.68
496.843	4903.35
497.046	5222.83
497.249	5245.36
497.453	5298.61
497.656	4972.98
497.859	5210.54
498.063	5169.59
498.266	5194.16
498.469	5134.77
498.673	5169.59
498.876	5224.88
499.079	5171.63
499.282	5087.67
499.485	5423.53
499.689	5278.13
499.892	5308.85
500.095	5276.08
500.298	5487.02
500.501	5249.46
500.705	5509.55
500.908	5480.88
501.111	5624.23
501.314	5743.02
501.517	5761.45
501.72	5906.85
501.923	5806.5
502.126	5947.81
502.329	6023.59
502.532	6044.07
502.735	6072.74
502.938	6173.09
503.141	6185.38
503.344	6277.54
503.547	6418.85
503.75	6511
503.953	6625.69
504.156	6558.11
504.359	6787.48
504.562	6779.29
504.765	7023
504.968	6918.55
505.17	6949.27
505.373	7192.98
505.576	7381.39
505.779	7401.87
505.982	7453.07
506.185	7768.46
506.387	7850.38
506.59	7928.2
506.793	8055.17
506.996	8126.85
507.198	8376.7
507.401	8509.82
507.604	8696.19
507.807	8870.26
508.009	9097.59
508.212	9064.82
508.415	9427.31
508.617	9466.22
508.82	9765.23
509.022	9879.91
509.225	10461.54
509.428	10269.03
509.63	10559.84
509.833	10668.38
510.035	11290.96
510.238	11092.31
510.44	11329.88
510.643	11936.07
510.845	11931.98
511.048	12239.17
511.25	12425.54
511.453	12601.66
511.655	13529.39
511.858	13312.31
512.06	13527.35
512.262	13840.68
512.465	14135.59
512.667	14444.84
512.87	14555.43
513.072	14872.86
513.274	15634.71
513.477	15565.07
513.679	16034.06
513.881	16523.52
514.084	16845.05
514.286	16898.3
514.488	17309.94
514.69	17975.53
514.893	18419.94
515.095	18338.02
515.297	18880.74
515.499	19431.64
515.701	19718.36
515.904	20259.02
516.106	20707.52
516.308	21076.16
516.51	21582.01
516.712	21674.17
516.914	22042.8
517.116	22673.57
517.318	23189.66
517.52	23662.74
517.722	23724.18
517.925	24393.87
518.127	25043.07
518.329	25413.76
518.531	25012.35
518.733	26046.58
518.935	26519.66
519.136	26503.28
519.338	27121.76
519.54	27412.57
519.742	28180.56
519.944	27750.49
520.146	28989.51
520.348	29337.66
520.55	29382.72
520.752	29823.03
520.954	30271.54
521.155	30267.44
521.357	30926.89
521.559	31154.21
521.761	31797.27
521.963	31846.43
522.164	32024.6
522.366	32385.04
522.568	32612.37
522.77	33007.62
522.971	33542.14
523.173	33126.41
523.375	33724.41
523.576	33630.21
523.778	33810.43
523.98	34066.42
524.181	34387.96
524.383	34383.86
524.584	34672.62
524.786	34359.28
524.988	34088.95
525.189	34953.19
525.391	34772.97
525.592	34758.64
525.794	34566.13
525.995	34365.43
526.197	34437.11
526.398	34465.78
526.6	34676.72
526.801	34301.94
527.003	34502.64
527.204	34256.89
527.406	34355.19
527.607	34093.05
527.808	33796.09
528.01	33515.52
528.211	33341.44
528.412	33767.42
528.614	33157.13
528.815	32753.68
529.016	33343.49
529.218	32509.97
529.419	32342.03
529.62	31893.53
529.822	31688.73
530.023	31467.55
530.224	30945.32
530.425	30631.98
530.626	30218.29
530.828	29939.77
531.029	30226.48
531.23	29470.78
531.431	29225.03
531.632	29040.71
531.833	28502.09
532.035	28244.05
532.236	27738.2
532.437	27463.77
532.638	27254.88
532.839	27056.23
533.04	26656.87
533.241	26097.78
533.442	25948.28
533.643	25575.55
533.844	25073.79
534.045	24842.37
534.246	24582.28
534.447	24578.18
534.648	23883.92
534.849	23707.8
535.05	23204
535.251	22907.04
535.451	22642.85
535.652	22567.08
535.853	21858.48
536.054	21846.19
536.255	21788.85
536.456	21285.05
536.657	21166.27
536.857	20472.01
537.058	20431.05
537.259	20408.52
537.46	19892.43
537.66	19423.45
537.861	19063.01
538.062	19212.51
538.263	18671.84
538.463	18516.2
538.664	18284.78
538.865	18182.38
539.065	18008.3
539.266	17697.01
539.466	17733.87
539.667	17332.47
539.868	17111.29
540.068	16900.35
540.269	16767.23
540.469	16511.24
540.67	16257.29
540.87	16056.59
541.071	15806.73
541.271	15667.47
541.472	15560.98
541.672	15495.44
541.873	15036.7
542.073	14995.74
542.274	14758.17
542.474	14735.65
542.675	14731.55
542.875	14291.24
543.075	14094.63
543.276	14033.19
543.476	13785.39
543.676	13795.63
543.877	13441.33
544.077	13594.93
544.277	13269.3
544.478	13254.97
544.678	13023.55
544.878	12785.98
545.078	12702.01
545.279	12384.58
545.479	12296.52
545.679	12173.64
545.879	12052.81
546.079	11829.58
546.28	11882.83
546.48	11868.49
546.68	11774.28
546.88	11540.82
547.08	11417.94
547.28	11157.85
547.48	10914.14
547.68	10885.47
547.88	10604.89
548.081	10629.47
548.281	10316.13
548.481	10195.3
548.681	10381.67
548.881	10043.75
549.081	10019.18
549.28	9832.81
549.48	9906.54
549.68	9574.77
549.88	9609.58
550.08	9277.81
550.28	9191.8
550.48	9173.36
550.68	9142.64
550.88	8900.98
551.08	8792.44
551.279	8649.08
551.479	8378.75
551.679	8399.23
551.879	8094.08
552.079	8225.15
552.278	7958.92
552.478	7977.35
552.678	7752.07
552.878	7811.46
553.077	7524.75
553.277	7467.41
553.477	7426.45
553.676	7174.55
553.876	6992.28
554.076	6875.54
554.275	6824.34
554.475	6785.43
554.674	6662.55
554.874	6635.93
555.074	6443.42
555.273	6293.92
555.473	6277.54
555.672	6193.57
555.872	6037.92
556.071	5999.01
556.271	6013.35
556.47	5747.11
556.67	5597.61
556.869	5616.04
557.068	5456.3
557.268	5341.61
557.467	5149.11
557.667	5274.03
557.866	5202.35
558.065	5058.99
558.265	5005.75
558.464	4700.6
558.663	4979.12
558.863	4895.16
559.062	4639.16
559.261	4417.98
559.461	4518.33
559.66	4426.17
559.859	4301.25
560.058	4311.49
560.258	4059.59
560.457	4051.39
560.656	4131.26
560.855	3985.86
561.054	4164.03
561.253	3924.42
561.453	3967.43
561.652	3742.15
561.851	3842.5
562.05	3594.7
562.249	3445.2
562.448	3586.51
562.647	3459.53
562.846	3363.28
563.045	3424.72
563.244	3516.87
563.443	3387.85
563.642	3230.16
563.841	3291.6
564.04	3183.06
564.239	3142.1
564.438	3074.51
564.637	3004.88
564.836	2851.28
565.035	2927.06
565.234	2841.04
565.432	3015.12
565.631	2857.43
565.83	2851.28
566.029	2752.98
566.228	2712.02
566.427	2806.23
566.625	2509.27
566.824	2632.15
567.023	2591.19
567.222	2531.8
567.42	2484.7
567.619	2496.99
567.818	2505.18
568.016	2527.71
568.215	2390.49
568.414	2392.54
568.612	2279.9
568.811	2273.76
569.01	2154.98
569.208	2054.62
569.407	2169.31
569.605	2183.65
569.804	2025.95
570.002	2009.57
570.201	1991.14
570.4	1933.79
570.598	1898.98
570.797	1935.84
570.995	1804.77
571.193	1915.36
571.392	1987.04
571.59	1780.2
571.789	1927.65
571.987	1901.03
572.186	1782.24
572.384	1749.48
572.582	1618.41
572.781	1780.2
572.979	1511.91
573.177	1575.4
573.376	1667.56
573.574	1616.36
573.772	1614.31
573.971	1559.02
574.169	1421.8
574.367	1503.72
574.565	1487.34
574.763	1395.18
574.962	1481.19
575.16	1372.65
575.358	1366.51
575.556	1335.79
575.754	1247.72
575.952	1272.3
576.151	1264.11
576.349	1280.49
576.547	1198.57
576.745	1319.4
576.943	1229.29
577.141	1161.71
577.339	1057.26
577.537	1143.28
577.735	1112.56
577.933	1219.05
578.131	1016.3
578.329	1196.53
578.527	1040.88
578.725	1137.13
578.923	930.29
579.121	1092.08
579.319	918
579.516	940.53
579.714	1141.23
579.912	920.05
580.11	850.42
580.308	926.19
580.506	926.19
580.704	784.88
580.901	840.18
581.099	940.53
581.297	762.36
581.495	831.99
581.692	756.21
581.89	913.91
582.088	864.75
582.285	764.4
582.483	770.55
582.681	748.02
582.878	762.36
583.076	815.6
583.274	760.31
583.471	891.38
583.669	694.77
583.866	684.53
584.064	668.15
584.262	668.15
584.459	639.48
584.657	668.15
584.854	719.35
585.052	696.82
585.249	692.73
585.447	639.48
585.644	551.42
585.841	651.77
586.039	684.53
586.236	688.63
586.434	635.38
586.631	500.22
586.828	537.08
587.026	641.53
587.223	475.64
587.42	537.08
587.618	569.85
587.815	619
588.012	514.55
588.21	537.08
588.407	647.67
588.604	561.66
588.801	369.15
588.999	528.89
589.196	485.88
589.393	414.2
589.59	549.37
589.787	524.79
589.984	535.03
590.182	535.03
590.379	461.3
590.576	487.93
590.773	459.26
590.97	412.15
591.167	483.83
591.364	547.32
591.561	449.02
591.758	473.59
591.955	561.66
592.152	418.3
592.349	485.88
592.546	469.5
592.743	350.71
592.94	483.83
593.137	438.78
593.334	430.59
593.531	463.35
593.727	555.51
593.924	520.7
594.121	535.03
594.318	436.73
594.515	471.54
594.712	571.9
594.908	604.66
595.105	442.87
595.302	469.5
595.499	483.83
595.696	567.8
595.892	485.88
596.089	479.74
596.286	487.93
596.482	619
596.679	567.8
596.876	522.74
597.072	606.71
597.269	649.72
597.466	621.05
597.662	598.52
597.859	549.37
598.055	647.67
598.252	752.12
598.448	729.59
598.645	676.34
598.841	674.29
599.038	872.95
599.234	799.22
599.431	854.51
599.627	754.16
599.824	885.23
600.02	872.95
600.217	885.23
600.413	987.63
600.609	928.24
600.806	1149.42
601.002	1106.42
601.198	1010.16
601.395	1188.33
601.591	1133.04
601.787	1235.44
601.984	1280.49
602.18	1217.01
602.376	1321.45
602.572	1409.51
602.769	1567.21
602.965	1413.61
603.161	1622.5
603.357	1708.52
603.553	1743.33
603.75	1626.6
603.946	1774.05
604.142	1849.83
604.338	1987.04
604.534	1888.74
604.73	2046.43
604.926	2122.21
605.122	2181.6
605.318	2183.65
605.514	2359.77
605.71	2396.64
605.906	2511.32
606.102	2482.65
606.298	2728.41
606.494	2722.26
606.69	2867.67
606.886	2877.91
607.082	2871.76
607.278	3043.79
607.474	3031.51
607.67	2953.68
607.866	3011.03
608.062	3537.35
608.257	3332.56
608.453	3410.38
608.649	3533.26
608.845	3617.22
609.041	3705.29
609.236	3834.31
609.432	4020.67
609.628	4215.23
609.824	4295.1
610.019	4225.47
610.215	4323.77
610.411	4585.91
610.606	4747.7
610.802	4776.38
610.998	5061.04
611.193	5018.04
611.389	5042.61
611.584	5251.5
611.78	5382.57
611.976	5468.59
612.171	5863.85
612.367	5865.89
612.562	6035.88
612.758	5964.2
612.953	6392.22
613.149	6517.15
613.344	6537.63
613.539	6949.27
613.735	6975.89
613.93	7274.9
614.126	7426.45
614.321	7541.13
614.517	7870.86
614.712	8106.37
614.907	8216.96
615.103	8536.45
615.298	8538.49
615.493	8982.9
615.688	8962.42
615.884	9310.58
616.079	9415.02
616.274	9826.67
616.47	10013.03
616.665	10082.66
616.86	10418.53
617.055	10666.33
617.25	10963.29
617.445	11258.2
617.641	11317.59
617.836	11876.68
618.031	11749.71
618.226	12433.73
618.421	12720.45
618.616	13140.28
618.811	13183.29
619.006	13734.19
619.201	13760.81
619.396	14348.58
619.591	14242.09
619.786	15038.75
619.981	15038.75
620.176	15493.4
620.371	15466.77
620.566	16101.64
620.761	16529.67
620.956	16898.3
621.151	16969.98
621.346	17494.26
621.541	17336.57
621.735	18127.08
621.93	18190.57
622.125	18675.94
622.32	18845.92
622.515	19433.69
622.709	19585.24
622.904	19888.34
623.099	20410.57
623.294	20973.76
623.488	20801.73
623.683	21465.27
623.878	21291.2
624.072	21975.22
624.267	22476.97
624.462	22864.04
624.656	22884.51
624.851	23736.47
625.046	23623.83
625.24	24170.64
625.435	24418.44
625.629	24780.93
625.824	24936.58
626.018	25464.96
626.213	25387.13
626.407	26001.52
626.602	26181.74
626.796	26626.15
626.991	26888.29
627.185	26859.62
627.38	26966.12
627.574	27414.62
627.768	27619.42
627.963	27244.64
628.157	27930.71
628.352	28065.88
628.546	27535.45
628.74	27883.61
628.935	27934.81
629.129	28422.22
629.323	27758.68
629.517	27703.39
629.712	27457.63
629.906	27080.8
630.1	26867.81
630.294	26863.72
630.489	26382.45
630.683	26364.01
630.877	25888.88
631.071	25272.45
631.265	24905.86
631.459	24653.96
631.653	24037.52
631.848	23840.92
632.042	22882.47
632.236	22522.02
632.43	21815.48
632.624	21516.47
632.818	20596.93
633.012	20195.53
633.206	19484.89
633.4	19003.61
633.594	18077.93
633.788	17760.5
633.982	17174.78
634.176	16683.27
634.369	15751.44
634.563	15286.55
634.757	14571.81
634.951	14516.51
635.145	13873.45
635.339	13072.7
635.533	12538.18
635.726	12390.72
635.92	11471.18
636.114	11084.12
636.308	10740.06
636.501	10576.22
636.695	9974.12
636.889	9384.3
637.083	9046.39
637.276	8790.39
637.47	8300.93
637.664	8012.17
637.857	7760.27
638.051	7516.56
638.244	7233.94
638.438	6791.58
638.632	6703.51
638.825	6277.54
639.019	6125.99
639.212	5790.12
639.406	5597.61
639.599	5388.72
639.793	5261.74
639.986	5026.23
640.18	4680.12
640.373	4657.59
640.567	4338.11
640.76	4274.62
640.954	4051.39
641.147	3924.42
641.34	3897.8
641.534	3688.9
641.727	3568.07
641.92	3391.95
642.114	3269.07
642.307	3158.48
642.5	2927.06
642.694	2857.43
642.887	2810.33
643.08	2836.95
643.273	2685.4
643.467	2470.36
643.66	2429.4
643.853	2267.61
644.046	2261.47
644.239	2255.33
644.432	2154.98
644.626	1935.84
644.819	1941.99
645.012	1909.22
645.205	1815.01
645.398	1645.03
645.591	1694.18
645.784	1489.39
645.977	1440.23
646.17	1446.38
646.363	1303.02
646.556	1335.79
646.749	1268.2
646.942	1153.52
647.135	1214.96
647.328	1155.57
647.521	1034.74
647.714	971.25
647.907	1030.64
648.099	946.67
648.292	1053.17
648.485	829.94
648.678	827.89
648.871	750.07
649.064	750.07
649.256	692.73
649.449	723.44
649.642	659.96
649.835	752.12
650.027	614.9
650.22	743.92
650.413	631.29
650.605	698.87
650.798	479.74
650.991	580.09
651.183	553.46
651.376	608.76
651.568	651.77
651.761	455.16
651.954	422.39
652.146	420.35
652.339	489.98
652.531	569.85
652.724	358.91
652.916	414.2
653.109	322.04
653.301	467.45
653.494	418.3
653.686	272.89
653.879	391.67
654.071	397.82
654.263	365.05
654.456	340.47
654.648	406.01
654.84	295.42
655.033	193.02
655.225	373.24
655.417	182.78
655.61	414.2
655.802	272.89
655.994	305.66
656.186	221.69
656.379	242.17
656.571	213.5
656.763	227.84
656.955	197.12
657.148	209.4
657.34	330.23
657.532	190.97
657.724	164.35
657.916	205.31
658.108	242.17
658.3	203.26
658.492	262.65
658.684	82.43
658.876	293.37
659.068	143.87
659.26	70.14
659.452	98.81
659.644	215.55
659.836	225.79
660.028	281.08
660.22	86.53
660.412	197.12
660.604	125.44
660.796	137.73
660.988	225.79
661.18	129.53
661.372	197.12
661.563	238.08
661.755	162.3
661.947	84.48
662.139	74.24
662.331	57.86
662.522	147.97
662.714	162.3
662.906	51.71
663.097	182.78
663.289	27.14
663.481	57.86
663.673	152.06
663.864	115.2
664.056	166.4
664.247	111.1
664.439	215.55
664.631	100.86
664.822	158.21
665.014	178.69
665.205	78.33
665.397	147.97
665.588	184.83
665.78	100.86
665.971	143.87
666.163	8.7
666.354	147.97
666.546	135.68
666.737	107.01
666.929	37.38
667.12	29.18
667.311	111.1
667.503	104.96
667.694	152.06
667.885	64
668.077	164.35
668.268	25.09
668.459	102.91
668.651	107.01
668.842	152.06
669.033	-44.54
669.224	-11.78
669.416	264.7
669.607	104.96
669.798	-46.59
669.989	158.21
670.18	55.81
670.371	139.77
670.563	6.66
670.754	168.45
670.945	115.2
671.136	119.29
671.327	-24.06
671.518	152.06
671.709	324.09
671.9	166.4
672.091	203.26
672.282	141.82
672.473	133.63
672.664	82.43
672.855	139.77
673.046	117.25
673.237	147.97
673.428	176.64
673.619	174.59
673.809	66.05
674	199.16
674.191	78.33
674.382	102.91
674.573	76.29
674.764	150.01
674.954	229.88
675.145	4.61
675.336	37.38
675.527	98.81
675.717	131.58
675.908	61.95
676.099	86.53
676.289	233.98
676.48	57.86
676.671	188.93
676.861	57.86
677.052	88.57
677.243	94.72
677.433	27.14
677.624	195.07
677.814	162.3
678.005	78.33
678.195	174.59
678.386	76.29
678.576	139.77
678.767	-28.16
678.957	119.29
679.148	246.27
679.338	219.64
679.529	209.4
679.719	152.06
679.909	236.03
680.1	121.34
680.29	217.6
680.481	125.44
680.671	152.06
680.861	176.64
681.052	178.69
681.242	49.66
681.432	209.4
681.622	225.79
681.813	127.49
682.003	158.21
682.193	147.97
682.383	107.01
682.573	174.59
682.764	135.68
682.954	102.91
683.144	205.31
683.334	115.2
683.524	90.62
683.714	184.83
683.904	164.35
684.094	209.4
684.284	217.6
684.474	268.8
684.664	176.64
684.854	256.51
685.044	193.02
685.234	186.88
685.424	195.07
685.614	133.63
685.804	244.22
685.994	98.81
686.184	141.82
686.374	195.07
686.564	201.21
686.753	190.97
686.943	94.72
687.133	213.5
687.323	137.73
687.513	219.64
687.702	248.32
687.892	176.64
688.082	225.79
688.272	209.4
688.461	248.32
688.651	340.47
688.841	184.83
689.03	180.73
689.22	182.78
689.41	203.26
689.599	211.45
689.789	199.16
689.979	244.22
690.168	168.45
690.358	217.6
690.547	223.74
690.737	225.79
690.926	139.77
691.116	180.73
691.305	248.32
691.495	268.8
691.684	172.54
691.874	127.49
692.063	82.43
692.252	213.5
692.442	238.08
692.631	115.2
692.82	111.1
693.01	168.45
693.199	174.59
693.388	172.54
693.578	156.16
693.767	178.69
693.956	250.36
694.146	152.06
694.335	221.69
694.524	111.1
694.713	229.88
694.902	190.97
695.092	131.58
695.281	172.54
695.47	164.35
695.659	143.87
695.848	201.21
696.037	215.55
696.226	166.4
696.415	172.54
696.604	240.12
696.793	231.93
696.982	125.44
697.171	266.75
697.36	166.4
697.549	121.34
697.738	4.61
697.927	125.44
698.116	121.34
698.305	145.92
698.494	215.55
698.683	145.92
698.872	260.6
699.061	158.21
699.25	119.29
699.438	164.35
699.627	150.01
699.816	221.69
700.005	121.34
700.193	90.62
700.382	193.02
700.571	133.63
700.76	139.77
700.948	172.54
701.137	193.02
701.326	164.35
701.514	115.2
701.703	203.26
701.892	147.97
702.08	285.18
702.269	111.1
702.457	70.14
702.646	166.4
702.834	127.49
703.023	160.25
703.212	242.17
703.4	166.4
703.589	107.01
703.777	104.96
703.965	104.96
704.154	199.16
704.342	49.66
704.531	121.34
704.719	115.2
704.907	139.77
705.096	59.9
705.284	127.49
705.472	147.97
705.661	143.87
705.849	193.02
706.037	223.74
706.226	139.77
706.414	107.01
706.602	152.06
706.79	233.98
706.979	90.62
707.167	152.06
707.355	82.43
707.543	133.63
707.731	176.64
707.919	117.25
708.107	139.77
708.296	102.91
708.484	131.58
708.672	178.69
708.86	141.82
709.048	94.72
709.236	150.01
709.424	166.4
709.612	219.64
709.8	94.72
709.988	127.49
710.176	190.97
710.364	193.02
710.551	27.14
710.739	123.39
710.927	92.67
711.115	166.4
711.303	219.64
711.491	180.73
711.679	174.59
711.866	182.78
712.054	104.96
712.242	162.3
712.43	199.16
712.617	137.73
712.805	123.39
712.993	160.25
713.181	111.1
713.368	236.03
713.556	156.16
713.744	100.86
713.931	293.37
714.119	221.69
714.306	238.08
714.494	115.2
714.682	129.53
714.869	74.24
715.057	139.77
715.244	4.61
715.432	111.1
715.619	133.63
715.807	86.53
715.994	131.58
716.182	160.25
716.369	160.25
716.556	229.88
716.744	18.94
716.931	174.59
717.119	225.79
717.306	213.5
717.493	180.73
717.681	109.05
717.868	193.02
718.055	133.63
718.242	219.64
718.43	252.41
718.617	207.36
718.804	160.25
718.991	215.55
719.179	160.25
719.366	264.7
719.553	176.64
719.74	180.73
719.927	162.3
720.114	182.78
720.301	94.72
720.488	115.2
720.676	139.77
720.863	283.13
721.05	311.8
721.237	315.9
721.424	184.83
721.611	236.03
721.798	152.06
721.985	143.87
722.172	145.92
722.358	145.92
722.545	240.12
722.732	147.97
722.919	276.99
723.106	219.64
723.293	221.69
723.48	250.36
723.667	131.58
723.853	176.64
724.04	213.5
724.227	233.98
724.414	176.64
724.6	199.16
724.787	412.15
724.974	244.22
725.161	225.79
725.347	197.12
725.534	197.12
725.72	250.36
725.907	315.9
726.094	193.02
726.28	240.12
726.467	203.26
726.653	197.12
726.84	393.72
727.027	324.09
727.213	223.74
727.4	238.08
727.586	201.21
727.773	229.88
727.959	182.78
728.145	229.88
728.332	338.43
728.518	145.92
728.705	246.27
728.891	176.64
729.077	172.54
729.264	143.87
729.45	180.73
729.636	322.04
729.823	215.55
730.009	281.08
730.195	207.36
730.382	195.07
730.568	176.64
730.754	256.51
730.94	182.78
731.126	178.69
731.313	313.85
731.499	231.93
731.685	209.4
731.871	283.13
732.057	221.69
732.243	276.99
732.429	307.71
732.615	379.39
732.801	299.52
732.987	233.98
733.173	215.55
733.359	252.41
733.545	236.03
733.731	274.94
733.917	369.15
734.103	287.23
734.289	250.36
734.475	258.56
734.661	385.53
734.847	266.75
735.033	313.85
735.219	281.08
735.404	115.2
735.59	205.31
735.776	242.17
735.962	199.16
736.148	369.15
736.333	393.72
736.519	268.8
736.705	250.36
736.89	215.55
737.076	291.32
737.262	203.26
737.447	166.4
737.633	213.5
737.819	395.77
738.004	338.43
738.19	246.27
738.375	373.24
738.561	262.65
738.747	236.03
738.932	205.31
739.118	381.43
739.303	240.12
739.489	279.04
739.674	262.65
739.859	166.4
740.045	346.62
740.23	324.09
740.416	135.68
740.601	311.8
740.786	297.47
740.972	152.06
741.157	299.52
741.342	211.45
741.528	229.88
741.713	262.65
741.898	250.36
742.084	315.9
742.269	248.32
742.454	291.32
742.639	324.09
742.824	246.27
743.01	307.71
743.195	375.29
743.38	272.89
743.565	160.25
743.75	301.56
743.935	373.24
744.12	348.67
744.305	184.83
744.49	201.21
744.675	154.11
744.86	356.86
745.045	305.66
745.23	248.32
745.415	270.84
745.6	360.95
745.785	172.54
745.97	330.23
746.155	299.52
746.34	264.7
746.525	291.32
746.71	332.28
746.895	156.16
747.079	197.12
747.264	188.93
747.449	287.23
747.634	283.13
747.819	240.12
748.003	293.37
748.188	141.82
748.373	221.69
748.557	274.94
748.742	231.93
748.927	338.43
749.111	231.93
749.296	260.6
749.481	262.65
749.665	252.41
749.85	168.45
750.034	295.42
750.219	258.56
750.404	184.83
750.588	180.73
750.773	139.77
750.957	215.55
751.141	264.7
751.326	270.84
751.51	145.92
751.695	240.12
751.879	317.95
752.064	246.27
752.248	182.78
752.432	303.61
752.617	299.52
752.801	301.56
752.985	135.68
753.17	233.98
753.354	193.02
753.538	190.97
753.722	139.77
753.907	139.77
754.091	104.96
754.275	266.75
754.459	78.33
754.643	174.59
754.828	162.3
755.012	172.54
755.196	119.29
755.38	203.26
755.564	190.97
755.748	244.22
755.932	268.8
756.116	309.76
756.3	168.45
756.484	156.16
756.668	213.5
756.852	164.35
757.036	182.78
757.22	143.87
757.404	111.1
757.588	125.44
757.772	150.01
757.956	109.05
758.14	309.76
758.323	139.77
758.507	139.77
758.691	94.72
758.875	201.21
759.059	246.27
759.242	98.81
759.426	133.63
759.61	238.08
759.794	102.91
759.977	170.49
760.161	371.19
760.345	229.88
760.528	209.4
760.712	94.72
760.895	225.79
761.079	111.1
761.263	119.29
761.446	119.29
761.63	102.91
761.813	217.6
761.997	102.91
762.18	184.83
762.364	111.1
762.547	55.81
762.731	102.91
762.914	135.68
763.098	111.1
763.281	127.49
763.464	86.53
763.648	92.67
763.831	57.86
764.015	74.24
764.198	135.68
764.381	119.29
764.564	78.33
764.748	150.01
764.931	158.21
765.114	127.49
765.297	186.88
765.481	55.81
765.664	61.95
765.847	59.9
766.03	186.88
766.213	43.52
766.397	100.86
766.58	119.29
766.763	100.86
766.946	104.96
767.129	111.1
767.312	68.09
767.495	88.57
767.678	102.91
767.861	80.38
768.044	84.48
768.227	49.66
768.41	51.71
768.593	61.95
768.776	102.91
768.959	80.38
769.142	152.06
769.324	53.76
769.507	16.9
769.69	53.76
769.873	72.19
770.056	274.94
770.239	90.62
770.421	141.82
770.604	113.15
770.787	59.9
770.97	129.53
771.152	154.11
771.335	88.57
771.518	18.94
771.7	188.93
771.883	186.88
772.066	92.67
772.248	102.91
772.431	201.21
772.613	96.77
772.796	84.48
772.978	100.86
773.161	223.74
773.343	35.33
773.526	102.91
773.708	2.56
773.891	-46.59
774.073	10.75
774.256	115.2
774.438	152.06
774.621	18.94
774.803	111.1
774.985	6.66
775.168	139.77
775.35	-7.68
775.532	98.81
775.715	47.62
775.897	53.76
776.079	82.43
776.261	53.76
776.444	41.47
776.626	43.52
776.808	109.05
776.99	-54.78
777.173	117.25
777.355	133.63
777.537	107.01
777.719	55.81
777.901	49.66
778.083	37.38
778.265	-79.36
778.447	78.33
778.629	-1.54
778.811	43.52
778.993	98.81
779.175	127.49
779.357	29.18
779.539	-1.54
779.721	80.38
779.903	102.91
780.085	86.53
780.267	86.53
780.449	68.09
780.631	107.01
780.812	113.15
780.994	37.38
781.176	57.86
781.358	-19.97
781.54	51.71
781.721	55.81
781.903	137.73
782.085	-11.78
782.267	76.29
782.448	-71.17
782.63	-9.73
782.812	27.14
782.993	123.39
783.175	27.14
783.357	25.09
783.538	84.48
783.72	-7.68
783.901	20.99
784.083	84.48
784.264	125.44
784.446	49.66
784.627	-44.54
784.809	113.15
784.99	14.85
785.172	141.82
785.353	76.29
785.535	90.62
785.716	90.62
785.897	-38.4
786.079	12.8
786.26	78.33
786.441	29.18
786.623	-69.12
786.804	-15.87
786.985	-3.58
787.167	84.48
787.348	-36.35
787.529	-36.35
787.71	160.25
787.891	125.44
788.073	-5.63
788.254	-38.4
788.435	203.26
788.616	66.05
788.797	-28.16
788.978	-7.68
789.159	-19.97
789.34	68.09
789.522	41.47
789.703	-3.58
789.884	100.86
790.065	35.33
790.246	180.73
790.427	-30.21
790.607	119.29
790.788	111.1
790.969	-7.68
791.15	72.19
791.331	12.8
791.512	-7.68
791.693	-15.87
791.874	20.99
792.054	119.29
792.235	127.49
792.416	4.61
792.597	-73.21
792.778	131.58
792.958	35.33
793.139	33.28
793.32	37.38
793.5	29.18
793.681	78.33
793.862	76.29
794.042	80.38
794.223	-97.79
794.404	39.42
794.584	4.61
794.765	-28.16
794.945	-1.54
795.126	-3.58
795.306	88.57
795.487	86.53
795.667	-7.68
795.848	92.67
796.028	-13.82
796.209	37.38
796.389	41.47
796.57	-24.06
796.75	-22.02
796.93	-44.54
797.111	-30.21
797.291	-101.89
797.471	35.33
797.652	57.86
797.832	-73.21
798.012	125.44
798.192	-15.87
798.373	-83.45
798.553	29.18
798.733	90.62
798.913	-42.5
799.093	-24.06
799.274	55.81
799.454	45.57
799.634	4.61
799.814	94.72
799.994	45.57
800.174	-9.73
800.354	-13.82
800.534	-15.87
800.714	27.14
800.894	45.57
801.074	-62.98
801.254	37.38
801.434	117.25
801.614	10.75
801.794	10.75
801.974	1718.76
802.154	18.94
802.334	53.76
802.514	-3.58
802.693	57.86
802.873	6.66
803.053	74.24
803.233	25.09
803.413	-52.74
803.592	-36.35
803.772	-79.36
803.952	-3.58
804.131	-28.16
804.311	139.77
804.491	88.57
804.67	0.51
804.85	-44.54
805.03	119.29
805.209	51.71
805.389	-26.11
805.568	-62.98
805.748	-85.5
805.928	94.72
806.107	12.8
806.287	20.99
806.466	25.09
806.646	-5.63
806.825	-40.45
807.004	-24.06
807.184	29.18
807.363	23.04
807.543	-1.54
807.722	-3.58
807.901	104.96
808.081	74.24
808.26	-56.83
808.439	-56.83
808.619	-73.21
808.798	-32.26
808.977	61.95
809.156	98.81
809.336	35.33
809.515	12.8
809.694	-48.64
809.873	-15.87
810.052	102.91
810.231	121.34
810.411	-28.16
810.59	84.48
810.769	-3.58
810.948	64
811.127	-112.13
811.306	-19.97
811.485	-3.58
811.664	133.63
811.843	64
812.022	-40.45
812.201	-19.97
812.38	37.38
812.559	-11.78
812.737	20.99
812.916	-89.6
813.095	-30.21
813.274	94.72
813.453	74.24
813.632	29.18
813.811	82.43
813.989	-89.6
814.168	10.75
814.347	-13.82
814.526	8.7
814.704	78.33
814.883	152.06
815.062	-7.68
815.24	41.47
815.419	-105.98
815.598	86.53
815.776	-56.83
815.955	-19.97
816.133	-83.45
816.312	33.28
816.49	-42.5
816.669	49.66
816.847	59.9
817.026	123.39
817.204	12.8
817.383	55.81
817.561	-42.5
817.74	-17.92
817.918	98.81
818.097	41.47
818.275	10.75
818.453	66.05
818.632	88.57
818.81	-30.21
818.988	-32.26
819.167	-32.26
819.345	33.28
819.523	20.99
819.701	-19.97
819.879	-50.69
820.058	23.04
820.236	-11.78
820.414	-32.26
820.592	14.85
820.77	-34.3
820.948	12.8
821.127	-38.4
821.305	2.56
821.483	-9.73
821.661	92.67
821.839	16.9
822.017	-146.94
822.195	16.9
822.373	-5.63
822.551	6.66
822.729	80.38
822.907	-22.02
823.085	41.47
823.262	53.76
823.44	-19.97
823.618	20.99
823.796	-24.06
823.974	-44.54
824.152	-52.74
824.329	16.9
824.507	-13.82
824.685	150.01
824.863	10.75
825.04	14.85
825.218	14.85
825.396	12.8
825.574	68.09
825.751	0.51
825.929	49.66
826.107	-118.27
826.284	8.7
826.462	-3.58
826.639	-42.5
826.817	-19.97
826.994	20.99
827.172	-13.82
827.349	143.87
827.527	4.61
827.704	14.85
827.882	94.72
828.059	76.29
828.237	-30.21
828.414	129.53
828.591	-134.65
828.769	-75.26
828.946	-69.12
829.124	-17.92
829.301	117.25
829.478	-26.11
829.655	78.33
829.833	20.99
830.01	-54.78
830.187	72.19
830.364	-9.73
830.542	45.57
830.719	78.33
830.896	107.01
831.073	113.15
831.25	43.52
831.427	76.29
831.604	23.04
831.782	-146.94
831.959	82.43
832.136	-7.68
832.313	20.99
832.49	-1.54
832.667	80.38
832.844	-34.3
833.021	64
833.198	-50.69
833.374	2.56
833.551	-13.82
833.728	-52.74
833.905	43.52
834.082	-114.17
834.259	53.76
834.436	82.43
834.612	-13.82
834.789	39.42
834.966	-77.31
835.143	-9.73
835.319	-52.74
835.496	37.38
835.673	33.28
835.85	59.9
836.026	4.61
836.203	23.04
836.38	12.8
836.556	-54.78
836.733	43.52
836.909	92.67
837.086	-28.16
837.262	-110.08
837.439	4.61
837.616	-28.16
837.792	-17.92
837.968	-28.16
838.145	-126.46
838.321	-22.02
838.498	47.62
838.674	39.42
838.851	6.66
839.027	-79.36
839.203	0.51
839.38	100.86
839.556	-40.45
839.732	45.57
839.909	18.94
840.085	16.9
840.261	-77.31
840.437	16.9
840.614	-28.16
840.79	68.09
840.966	-36.35
841.142	-9.73
841.318	-44.54
841.494	51.71
841.671	51.71
841.847	-58.88
842.023	-65.02
842.199	51.71
842.375	100.86
842.551	-173.57
842.727	20.99
842.903	176.64
843.079	-54.78
843.255	10.75
843.431	64
843.607	76.29
843.783	-116.22
843.959	12.8
844.134	-46.59
844.31	59.9
844.486	-62.98
844.662	-46.59
844.838	-62.98
845.013	14.85
845.189	37.38
845.365	61.95
845.541	-40.45
845.716	55.81
845.892	39.42
846.068	-101.89
846.244	-54.78
846.419	16.9
846.595	-28.16
846.77	4.61
846.946	18.94
847.122	45.57
847.297	-79.36
847.473	107.01
847.648	-103.93
847.824	20.99
847.999	-48.64
848.175	35.33
848.35	45.57
848.526	45.57
848.701	78.33
848.876	117.25
849.052	133.63
849.227	45.57
849.403	45.57
849.578	-34.3
849.753	8.7
849.929	-11.78
850.104	-56.83
850.279	-97.79
850.454	-42.5
850.63	119.29
850.805	43.52
850.98	20.99
851.155	6.66
851.33	78.33
851.505	-13.82
851.681	49.66
851.856	-69.12
852.031	12.8
852.206	33.28
852.381	-77.31
852.556	33.28
852.731	0.51
852.906	-17.92
853.081	-3.58
853.256	64
853.431	-19.97
853.606	-93.69
853.781	-60.93
853.956	-206.33
854.131	16.9
854.305	-85.5
854.48	55.81
854.655	-65.02
854.83	-7.68
855.005	10.75
855.18	-40.45
855.354	16.9
855.529	-3.58
855.704	29.18
855.879	-17.92
856.053	-15.87
856.228	4.61
856.403	-118.27
856.577	53.76
856.752	-56.83
856.926	-3.58
857.101	-85.5
857.276	-5.63
857.45	-5.63
857.625	84.48
857.799	53.76
857.974	-26.11
858.148	-97.79
858.323	-30.21
858.497	-19.97
858.672	-48.64
858.846	10.75
859.02	119.29
859.195	-91.65
859.369	27.14
859.543	-19.97
859.718	23.04
859.892	-17.92
860.066	-5.63
860.241	4.61
860.415	-48.64
860.589	45.57
860.763	-77.31
860.938	-134.65
861.112	-17.92
861.286	-28.16
861.46	100.86
861.634	6.66
861.808	70.14
861.982	4.61
862.157	-32.26
862.331	102.91
862.505	-101.89
862.679	-46.59
862.853	-28.16
863.027	45.57
863.201	139.77
863.375	-77.31
863.549	41.47
863.722	78.33
863.896	41.47
864.07	-11.78
864.244	31.23
864.418	117.25
864.592	66.05
864.766	4.61
864.939	-40.45
865.113	-13.82
865.287	68.09
865.461	-108.03
865.634	27.14
865.808	-48.64
865.982	-36.35
866.156	-69.12
866.329	-46.59
866.503	92.67
866.676	61.95
866.85	4.61
867.024	-15.87
867.197	64
867.371	2.56
867.544	-50.69
867.718	-87.55
867.891	37.38
868.065	-105.98
868.238	-15.87
868.412	70.14
868.585	20.99
868.759	-71.17
868.932	-24.06
869.105	-56.83
869.279	94.72
869.452	-128.51
869.625	39.42
869.799	55.81
869.972	-60.93
870.145	-15.87
870.319	68.09
870.492	-28.16
870.665	-9.73
870.838	-3.58
871.011	-177.66
871.185	2.56
871.358	6.66
871.531	20.99
871.704	47.62
871.877	-56.83
872.05	-81.41
872.223	-54.78
872.396	8.7
872.569	37.38
872.742	-103.93
872.915	74.24
873.088	0.51
873.261	-22.02
873.434	27.14
873.607	31.23
873.78	55.81
873.953	-15.87
874.126	-19.97
874.299	66.05
874.471	-48.64
874.644	4.61
874.817	20.99
874.99	92.67
875.163	-95.74
875.335	41.47
875.508	-52.74
875.681	164.35
875.853	-60.93
876.026	-56.83
876.199	70.14
876.371	8.7
876.544	-32.26
876.717	-52.74
876.889	-54.78
877.062	61.95
877.234	-11.78
877.407	6.66
877.579	-5.63
877.752	-85.5
877.924	-17.92
878.097	35.33
878.269	12.8
878.442	8.7
878.614	-1.54
878.786	-22.02
878.959	-44.54
879.131	98.81
879.303	-126.46
879.476	0.51
879.648	61.95
879.82	-13.82
879.993	-28.16
880.165	-5.63
880.337	-118.27
880.509	20.99
880.681	-3.58
880.854	-118.27
881.026	4.61
881.198	35.33
881.37	4.61
881.542	-3.58
881.714	14.85
881.886	2.56
882.058	-69.12
882.23	6.66
882.402	-56.83
882.574	121.34
882.746	33.28
882.918	143.87
883.09	-32.26
883.262	-42.5
883.434	61.95
883.606	-65.02
883.778	-22.02
883.95	86.53
884.122	-38.4
884.293	39.42
884.465	29.18
884.637	2.56
884.809	-108.03
884.98	33.28
885.152	-28.16
885.324	61.95
885.496	-46.59
885.667	-22.02
885.839	-1.54
886.011	121.34
886.182	23.04
886.354	12.8
886.525	-17.92
886.697	47.62
886.869	-163.33
887.04	-22.02
887.212	43.52
887.383	158.21
887.555	-97.79
887.726	2.56
887.897	-5.63
888.069	35.33
888.24	49.66
888.412	35.33
888.583	8.7
888.754	-30.21
888.926	-97.79
889.097	8.7
889.268	-116.22
889.44	35.33
889.611	-105.98
889.782	-153.09
889.953	-5.63
890.125	43.52
890.296	-87.55
890.467	-46.59
890.638	-93.69
890.809	-1.54
890.98	-24.06
891.151	-13.82
891.323	61.95
891.494	35.33
891.665	37.38
891.836	-87.55
892.007	33.28
892.178	12.8
892.349	-50.69
892.52	-95.74
892.691	82.43
892.862	8.7
893.032	-140.8
893.203	45.57
893.374	-38.4
893.545	-3.58
893.716	-87.55
893.887	-46.59
894.057	-105.98
894.228	-24.06
894.399	-50.69
894.57	88.57
894.74	-77.31
894.911	-77.31
895.082	10.75
895.253	-85.5
895.423	-3.58
895.594	57.86
895.764	47.62
895.935	-44.54
896.106	64
896.276	-36.35
896.447	-13.82
896.617	-95.74
896.788	20.99
896.958	61.95
897.129	-110.08
897.299	-32.26
897.47	20.99
897.64	18.94
897.81	-44.54
897.981	25.09
898.151	-77.31
898.322	25.09
898.492	-11.78
898.662	-79.36
898.832	-91.65
899.003	29.18
899.173	10.75
899.343	-44.54
899.513	-97.79
