Data from USB4F104151__93__10-35-17-430.txt Node

Date: Wed Feb 26 10:35:17 EST 2025
User: louis
Spectrometer: USB4F10415
Trigger mode: 4
Integration Time (sec): 1.000000E-1
Scans to average: 1
Electric dark correction enabled: true
Nonlinearity correction enabled: false
Boxcar width: 0
XAxis mode: Wavelengths
Number of Pixels in Spectrum: 3648
>>>>>Begin Spectral Data<<<<<
178.204	-429.22
178.424	-429.22
178.644	-429.22
178.864	-414.88
179.084	-365.73
179.304	52.05
179.524	-29.87
179.744	80.72
179.964	-25.77
180.184	-27.82
180.404	25.43
180.624	-21.67
180.844	-23.72
181.064	-60.59
181.283	56.15
181.503	-25.77
181.723	0.85
181.943	-60.59
182.163	174.93
182.383	4.95
182.602	58.2
182.822	119.64
183.042	109.4
183.262	23.38
183.482	27.48
183.701	47.96
183.921	93.01
184.141	-29.87
184.361	50
184.58	82.77
184.8	37.72
185.02	45.91
185.239	80.72
185.459	70.48
185.679	117.59
185.898	-105.64
186.118	109.4
186.338	99.16
186.557	86.87
186.777	-79.02
186.997	72.53
187.216	86.87
187.436	156.5
187.655	25.43
187.875	166.74
188.095	60.24
188.314	72.53
188.534	88.92
188.753	-72.87
188.973	103.25
189.192	119.64
189.412	80.72
189.631	37.72
189.851	21.33
190.07	238.42
190.29	-79.02
190.509	17.24
190.729	-33.96
190.948	95.06
191.168	213.84
191.387	99.16
191.607	0.85
191.826	-17.58
192.045	21.33
192.265	-25.77
192.484	82.77
192.704	29.52
192.923	-44.2
193.142	148.31
193.362	148.31
193.581	136.02
193.8	-17.58
194.02	21.33
194.239	47.96
194.458	82.77
194.678	58.2
194.897	17.24
195.116	78.68
195.335	103.25
195.555	39.76
195.774	-13.48
195.993	107.35
196.212	31.57
196.432	-13.48
196.651	-40.11
196.87	13.14
197.089	303.95
197.308	29.52
197.528	84.82
197.747	-21.67
197.966	56.15
198.185	152.4
198.404	7
198.623	168.79
198.842	78.68
199.062	60.24
199.281	138.07
199.5	109.4
199.719	125.78
199.938	58.2
200.157	164.69
200.376	113.49
200.595	117.59
200.814	115.54
201.033	-89.26
201.252	93.01
201.471	11.09
201.69	86.87
201.909	27.48
202.128	105.3
202.347	17.24
202.566	27.48
202.785	-42.15
203.004	9.05
203.223	246.61
203.442	-3.24
203.661	-56.49
203.879	78.68
204.098	152.4
204.317	-9.39
204.536	84.82
204.755	31.57
204.974	189.27
205.193	-13.48
205.411	136.02
205.63	43.86
205.849	58.2
206.068	4.95
206.287	-33.96
206.505	162.64
206.724	25.43
206.943	-33.96
207.162	21.33
207.381	33.62
207.599	74.58
207.818	50
208.037	-9.39
208.255	-11.43
208.474	109.4
208.693	72.53
208.911	-21.67
209.13	107.35
209.349	33.62
209.567	111.44
209.786	144.21
210.005	95.06
210.223	88.92
210.442	-107.69
210.661	31.57
210.879	64.34
211.098	111.44
211.316	-3.24
211.535	136.02
211.753	80.72
211.972	97.11
212.191	70.48
212.409	-9.39
212.628	121.68
212.846	33.62
213.065	13.14
213.283	113.49
213.502	-7.34
213.72	58.2
213.938	70.48
214.157	-33.96
214.375	111.44
214.594	43.86
214.812	86.87
215.031	-50.35
215.249	-9.39
215.467	-25.77
215.686	58.2
215.904	52.05
216.122	33.62
216.341	154.45
216.559	43.86
216.778	95.06
216.996	166.74
217.214	58.2
217.432	41.81
217.651	-46.25
217.869	43.86
218.087	-27.82
218.306	-9.39
218.524	33.62
218.742	7
218.96	27.48
219.179	62.29
219.397	-52.39
219.615	265.04
219.833	78.68
220.051	-23.72
220.27	99.16
220.488	64.34
220.706	162.64
220.924	25.43
221.142	-76.97
221.36	86.87
221.578	41.81
221.796	45.91
222.015	93.01
222.233	9.05
222.451	181.07
222.669	-58.54
222.887	103.25
223.105	21.33
223.323	64.34
223.541	-95.4
223.759	54.1
223.977	80.72
224.195	181.07
224.413	97.11
224.631	39.76
224.849	29.52
225.067	187.22
225.285	-7.34
225.503	66.39
225.721	-42.15
225.939	86.87
226.157	37.72
226.375	308.05
226.592	33.62
226.81	66.39
227.028	152.4
227.246	166.74
227.464	68.44
227.682	99.16
227.9	2.9
228.117	97.11
228.335	119.64
228.553	62.29
228.771	47.96
228.989	2.9
229.206	86.87
229.424	9.05
229.642	-7.34
229.86	-13.48
230.077	209.75
230.295	76.63
230.513	156.5
230.731	82.77
230.948	148.31
231.166	213.84
231.384	-21.67
231.601	4.95
231.819	215.89
232.037	11.09
232.254	23.38
232.472	2.9
232.689	58.2
232.907	125.78
233.125	45.91
233.342	-27.82
233.56	17.24
233.777	62.29
233.995	-3.24
234.213	78.68
234.43	15.19
234.648	-3.24
234.865	15.19
235.083	76.63
235.3	107.35
235.518	72.53
235.735	185.17
235.953	33.62
236.17	-15.53
236.388	-9.39
236.605	13.14
236.822	131.92
237.04	101.2
237.257	152.4
237.475	-103.59
237.692	58.2
237.909	62.29
238.127	-27.82
238.344	56.15
238.562	131.92
238.779	-42.15
238.996	-103.59
239.214	62.29
239.431	90.96
239.648	17.24
239.865	105.3
240.083	140.12
240.3	-81.07
240.517	50
240.735	56.15
240.952	60.24
241.169	78.68
241.386	90.96
241.603	39.76
241.821	-1.19
242.038	156.5
242.255	84.82
242.472	-21.67
242.689	76.63
242.907	121.68
243.124	74.58
243.341	-42.15
243.558	64.34
243.775	-97.45
243.992	-11.43
244.209	154.45
244.426	133.97
244.643	93.01
244.86	9.05
245.078	45.91
245.295	113.49
245.512	25.43
245.729	-1.19
245.946	31.57
246.163	82.77
246.38	27.48
246.597	45.91
246.814	123.73
247.031	68.44
247.248	-5.29
247.464	84.82
247.681	70.48
247.898	39.76
248.115	121.68
248.332	-13.48
248.549	136.02
248.766	133.97
248.983	50
249.2	80.72
249.417	107.35
249.633	35.67
249.85	111.44
250.067	47.96
250.284	39.76
250.501	78.68
250.717	29.52
250.934	-44.2
251.151	9.05
251.368	41.81
251.585	47.96
251.801	52.05
252.018	13.14
252.235	201.55
252.451	19.29
252.668	-19.63
252.885	90.96
253.102	68.44
253.318	35.67
253.535	4.95
253.752	99.16
253.968	-38.06
254.185	-31.91
254.401	115.54
254.618	97.11
254.835	93.01
255.051	158.55
255.268	23.38
255.484	27.48
255.701	-3.24
255.917	33.62
256.134	-38.06
256.351	64.34
256.567	11.09
256.784	66.39
257	-42.15
257.217	88.92
257.433	37.72
257.65	111.44
257.866	156.5
258.082	11.09
258.299	-52.39
258.515	41.81
258.732	-42.15
258.948	-40.11
259.165	88.92
259.381	35.67
259.597	82.77
259.814	72.53
260.03	70.48
260.246	97.11
260.463	107.35
260.679	195.41
260.895	37.72
261.112	105.3
261.328	82.77
261.544	7
261.761	162.64
261.977	62.29
262.193	13.14
262.409	107.35
262.626	-19.63
262.842	-40.11
263.058	-46.25
263.274	84.82
263.49	76.63
263.707	86.87
263.923	107.35
264.139	-81.07
264.355	-15.53
264.571	97.11
264.787	78.68
265.004	125.78
265.22	41.81
265.436	82.77
265.652	15.19
265.868	52.05
266.084	-36.01
266.3	62.29
266.516	37.72
266.732	78.68
266.948	33.62
267.164	15.19
267.38	68.44
267.596	111.44
267.812	191.31
268.028	50
268.244	17.24
268.46	23.38
268.676	97.11
268.892	90.96
269.108	33.62
269.324	45.91
269.54	-29.87
269.756	50
269.972	13.14
270.188	-9.39
270.403	-3.24
270.619	-11.43
270.835	82.77
271.051	-1.19
271.267	52.05
271.483	54.1
271.698	99.16
271.914	93.01
272.13	41.81
272.346	-9.39
272.562	109.4
272.777	140.12
272.993	19.29
273.209	58.2
273.425	37.72
273.64	-23.72
273.856	7
274.072	-9.39
274.287	-7.34
274.503	66.39
274.719	21.33
274.934	-54.44
275.15	-23.72
275.366	35.67
275.581	62.29
275.797	2.9
276.012	39.76
276.228	-21.67
276.444	-7.34
276.659	222.03
276.875	-42.15
277.09	105.3
277.306	-9.39
277.521	82.77
277.737	90.96
277.952	17.24
278.168	70.48
278.383	70.48
278.599	113.49
278.814	115.54
279.03	115.54
279.245	138.07
279.461	-5.29
279.676	160.59
279.892	-36.01
280.107	-33.96
280.322	29.52
280.538	129.88
280.753	41.81
280.969	35.67
281.184	45.91
281.399	158.55
281.615	13.14
281.83	88.92
282.045	-97.45
282.26	-46.25
282.476	78.68
282.691	56.15
282.906	39.76
283.122	43.86
283.337	15.19
283.552	95.06
283.767	86.87
283.983	82.77
284.198	35.67
284.413	93.01
284.628	-42.15
284.843	9.05
285.058	19.29
285.274	27.48
285.489	68.44
285.704	97.11
285.919	-13.48
286.134	-5.29
286.349	45.91
286.564	-11.43
286.779	170.83
286.995	19.29
287.21	-70.83
287.425	58.2
287.64	113.49
287.855	25.43
288.07	-48.3
288.285	148.31
288.5	99.16
288.715	52.05
288.93	97.11
289.145	-36.01
289.36	39.76
289.575	19.29
289.79	107.35
290.004	-48.3
290.219	113.49
290.434	99.16
290.649	-7.34
290.864	4.95
291.079	88.92
291.294	54.1
291.509	80.72
291.724	-27.82
291.938	-9.39
292.153	119.64
292.368	-19.63
292.583	62.29
292.798	113.49
293.012	78.68
293.227	117.59
293.442	13.14
293.657	160.59
293.871	117.59
294.086	41.81
294.301	125.78
294.516	148.31
294.73	54.1
294.945	-5.29
295.16	-3.24
295.374	113.49
295.589	119.64
295.804	-7.34
296.018	84.82
296.233	80.72
296.447	7
296.662	17.24
296.877	125.78
297.091	80.72
297.306	-66.73
297.52	-27.82
297.735	97.11
297.949	31.57
298.164	127.83
298.378	19.29
298.593	-62.63
298.807	13.14
299.022	-25.77
299.236	117.59
299.451	72.53
299.665	35.67
299.88	-15.53
300.094	31.57
300.309	11.09
300.523	19.29
300.737	50
300.952	136.02
301.166	58.2
301.381	13.14
301.595	58.2
301.809	84.82
302.024	50
302.238	-42.15
302.452	101.2
302.667	4.95
302.881	109.4
303.095	117.59
303.309	74.58
303.524	25.43
303.738	-44.2
303.952	-33.96
304.166	123.73
304.381	-5.29
304.595	121.68
304.809	43.86
305.023	27.48
305.237	52.05
305.452	70.48
305.666	43.86
305.88	105.3
306.094	31.57
306.308	103.25
306.522	172.88
306.736	66.39
306.95	103.25
307.164	-5.29
307.379	64.34
307.593	133.97
307.807	160.59
308.021	31.57
308.235	56.15
308.449	-58.54
308.663	68.44
308.877	275.28
309.091	37.72
309.305	33.62
309.519	-33.96
309.733	119.64
309.947	-74.92
310.161	60.24
310.374	90.96
310.588	183.12
310.802	-62.63
311.016	27.48
311.23	35.67
311.444	-25.77
311.658	72.53
311.872	146.26
312.085	131.92
312.299	142.16
312.513	131.92
312.727	19.29
312.941	-72.87
313.154	47.96
313.368	95.06
313.582	2.9
313.796	103.25
314.009	50
314.223	78.68
314.437	-38.06
314.651	101.2
314.864	45.91
315.078	101.2
315.292	11.09
315.505	-33.96
315.719	138.07
315.933	54.1
316.146	23.38
316.36	4.95
316.573	146.26
316.787	97.11
317.001	123.73
317.214	-1.19
317.428	39.76
317.641	-68.78
317.855	2.9
318.068	90.96
318.282	-9.39
318.495	101.2
318.709	156.5
318.922	29.52
319.136	88.92
319.349	66.39
319.563	-33.96
319.776	74.58
319.99	-36.01
320.203	82.77
320.417	113.49
320.63	99.16
320.843	201.55
321.057	97.11
321.27	41.81
321.483	84.82
321.697	95.06
321.91	82.77
322.124	-42.15
322.337	156.5
322.55	-1.19
322.763	27.48
322.977	13.14
323.19	52.05
323.403	17.24
323.617	52.05
323.83	88.92
324.043	93.01
324.256	107.35
324.469	-60.59
324.683	113.49
324.896	-13.48
325.109	41.81
325.322	-101.55
325.535	84.82
325.748	90.96
325.962	62.29
326.175	25.43
326.388	142.16
326.601	45.91
326.814	39.76
327.027	15.19
327.24	142.16
327.453	-33.96
327.666	60.24
327.879	207.7
328.092	129.88
328.305	97.11
328.518	68.44
328.731	21.33
328.944	82.77
329.157	74.58
329.37	43.86
329.583	146.26
329.796	162.64
330.009	-101.55
330.222	82.77
330.435	54.1
330.648	66.39
330.861	-23.72
331.073	58.2
331.286	70.48
331.499	103.25
331.712	-9.39
331.925	62.29
332.138	33.62
332.35	103.25
332.563	-64.68
332.776	101.2
332.989	-19.63
333.202	-3.24
333.414	41.81
333.627	21.33
333.84	29.52
334.053	72.53
334.265	2.9
334.478	-21.67
334.691	82.77
334.903	52.05
335.116	25.43
335.329	4.95
335.541	119.64
335.754	162.64
335.966	66.39
336.179	47.96
336.392	72.53
336.604	29.52
336.817	95.06
337.029	113.49
337.242	58.2
337.454	148.31
337.667	45.91
337.88	101.2
338.092	74.58
338.305	74.58
338.517	-36.01
338.729	107.35
338.942	148.31
339.154	-5.29
339.367	-50.35
339.579	21.33
339.792	-7.34
340.004	88.92
340.217	43.86
340.429	121.68
340.641	-60.59
340.854	-25.77
341.066	66.39
341.278	60.24
341.491	127.83
341.703	21.33
341.915	-21.67
342.128	88.92
342.34	50
342.552	-21.67
342.764	50
342.977	-1.19
343.189	93.01
343.401	113.49
343.613	-36.01
343.826	35.67
344.038	-27.82
344.25	76.63
344.462	-72.87
344.674	54.1
344.886	43.86
345.099	52.05
345.311	117.59
345.523	2.9
345.735	-62.63
345.947	62.29
346.159	68.44
346.371	47.96
346.583	-9.39
346.795	197.46
347.007	84.82
347.219	33.62
347.431	21.33
347.643	99.16
347.855	23.38
348.067	158.55
348.279	78.68
348.491	107.35
348.703	115.54
348.915	50
349.127	11.09
349.339	103.25
349.551	11.09
349.763	144.21
349.975	31.57
350.187	131.92
350.399	174.93
350.61	54.1
350.822	-17.58
351.034	70.48
351.246	86.87
351.458	88.92
351.669	160.59
351.881	140.12
352.093	127.83
352.305	125.78
352.517	58.2
352.728	97.11
352.94	35.67
353.152	68.44
353.363	-48.3
353.575	64.34
353.787	152.4
353.999	86.87
354.21	142.16
354.422	-11.43
354.633	13.14
354.845	31.57
355.057	60.24
355.268	2.9
355.48	66.39
355.692	-38.06
355.903	37.72
356.115	-27.82
356.326	-29.87
356.538	209.75
356.749	7
356.961	152.4
357.172	64.34
357.384	-11.43
357.595	236.37
357.807	76.63
358.018	-15.53
358.23	7
358.441	195.41
358.653	99.16
358.864	25.43
359.075	-33.96
359.287	58.2
359.498	54.1
359.709	129.88
359.921	11.09
360.132	95.06
360.344	17.24
360.555	21.33
360.766	133.97
360.977	-11.43
361.189	123.73
361.4	54.1
361.611	74.58
361.823	183.12
362.034	33.62
362.245	-62.63
362.456	33.62
362.667	52.05
362.879	21.33
363.09	50
363.301	54.1
363.512	129.88
363.723	7
363.935	78.68
364.146	107.35
364.357	-23.72
364.568	19.29
364.779	-97.45
364.99	117.59
365.201	-5.29
365.412	72.53
365.623	-48.3
365.834	70.48
366.045	72.53
366.256	117.59
366.467	107.35
366.678	64.34
366.889	125.78
367.1	54.1
367.311	101.2
367.522	27.48
367.733	70.48
367.944	105.3
368.155	7
368.366	74.58
368.577	207.7
368.788	74.58
368.999	31.57
369.209	72.53
369.42	267.09
369.631	144.21
369.842	119.64
370.053	13.14
370.264	105.3
370.474	-9.39
370.685	47.96
370.896	52.05
371.107	140.12
371.317	78.68
371.528	47.96
371.739	131.92
371.95	119.64
372.16	76.63
372.371	-117.93
372.582	78.68
372.792	78.68
373.003	74.58
373.214	58.2
373.424	117.59
373.635	-54.44
373.846	105.3
374.056	27.48
374.267	103.25
374.477	103.25
374.688	37.72
374.898	25.43
375.109	66.39
375.319	168.79
375.53	187.22
375.74	195.41
375.951	-7.34
376.161	101.2
376.372	64.34
376.582	9.05
376.793	140.12
377.003	58.2
377.214	-25.77
377.424	37.72
377.635	31.57
377.845	-9.39
378.055	123.73
378.266	-62.63
378.476	15.19
378.686	45.91
378.897	58.2
379.107	156.5
379.317	66.39
379.528	-42.15
379.738	138.07
379.948	-76.97
380.158	123.73
380.369	54.1
380.579	47.96
380.789	43.86
380.999	76.63
381.21	172.88
381.42	158.55
381.63	17.24
381.84	172.88
382.05	45.91
382.261	105.3
382.471	125.78
382.681	-48.3
382.891	119.64
383.101	62.29
383.311	27.48
383.521	-40.11
383.731	80.72
383.941	138.07
384.151	90.96
384.361	11.09
384.571	68.44
384.781	119.64
384.991	179.03
385.201	222.03
385.411	140.12
385.621	97.11
385.831	66.39
386.041	-23.72
386.251	74.58
386.461	138.07
386.671	2.9
386.881	101.2
387.091	25.43
387.301	207.7
387.511	78.68
387.72	86.87
387.93	129.88
388.14	-50.35
388.35	74.58
388.56	136.02
388.769	78.68
388.979	72.53
389.189	-3.24
389.399	47.96
389.609	78.68
389.818	129.88
390.028	47.96
390.238	105.3
390.447	-54.44
390.657	52.05
390.867	47.96
391.076	0.85
391.286	86.87
391.496	17.24
391.705	2.9
391.915	174.93
392.125	84.82
392.334	7
392.544	146.26
392.753	121.68
392.963	-33.96
393.172	54.1
393.382	21.33
393.591	166.74
393.801	-21.67
394.01	193.36
394.22	125.78
394.429	109.4
394.639	70.48
394.848	88.92
395.058	43.86
395.267	-50.35
395.477	86.87
395.686	43.86
395.895	217.94
396.105	176.98
396.314	52.05
396.524	68.44
396.733	97.11
396.942	123.73
397.152	90.96
397.361	170.83
397.57	80.72
397.78	25.43
397.989	136.02
398.198	240.47
398.407	-19.63
398.617	-21.67
398.826	64.34
399.035	90.96
399.244	193.36
399.453	56.15
399.663	29.52
399.872	58.2
400.081	-40.11
400.29	166.74
400.499	62.29
400.708	99.16
400.917	41.81
401.127	58.2
401.336	-5.29
401.545	215.89
401.754	111.44
401.963	103.25
402.172	11.09
402.381	37.72
402.59	64.34
402.799	-19.63
403.008	119.64
403.217	90.96
403.426	62.29
403.635	-93.35
403.844	68.44
404.053	66.39
404.262	9.05
404.471	254.8
404.68	15.19
404.888	-5.29
405.097	11.09
405.306	37.72
405.515	117.59
405.724	50
405.933	203.6
406.142	107.35
406.35	142.16
406.559	113.49
406.768	99.16
406.977	187.22
407.185	115.54
407.394	103.25
407.603	-3.24
407.812	9.05
408.02	76.63
408.229	78.68
408.438	129.88
408.646	-7.34
408.855	90.96
409.064	54.1
409.272	84.82
409.481	156.5
409.69	25.43
409.898	-23.72
410.107	82.77
410.315	35.67
410.524	31.57
410.733	138.07
410.941	56.15
411.15	88.92
411.358	136.02
411.567	107.35
411.775	23.38
411.984	43.86
412.192	113.49
412.401	29.52
412.609	181.07
412.818	138.07
413.026	170.83
413.234	62.29
413.443	54.1
413.651	41.81
413.86	80.72
414.068	125.78
414.276	183.12
414.485	62.29
414.693	244.56
414.901	209.75
415.11	33.62
415.318	19.29
415.526	33.62
415.734	123.73
415.943	115.54
416.151	60.24
416.359	43.86
416.567	76.63
416.776	162.64
416.984	191.31
417.192	168.79
417.4	29.52
417.608	27.48
417.817	21.33
418.025	189.27
418.233	197.46
418.441	-5.29
418.649	-1.19
418.857	0.85
419.065	156.5
419.273	-31.91
419.481	80.72
419.689	-36.01
419.897	17.24
420.105	-27.82
420.313	80.72
420.521	185.17
420.729	88.92
420.937	23.38
421.145	23.38
421.353	150.36
421.561	179.03
421.769	152.4
421.977	131.92
422.185	131.92
422.393	62.29
422.601	142.16
422.809	121.68
423.017	133.97
423.224	23.38
423.432	56.15
423.64	54.1
423.848	66.39
424.056	39.76
424.263	144.21
424.471	47.96
424.679	154.45
424.887	-101.55
425.094	101.2
425.302	68.44
425.51	25.43
425.718	164.69
425.925	193.36
426.133	23.38
426.341	133.97
426.548	129.88
426.756	9.05
426.964	47.96
427.171	43.86
427.379	154.45
427.586	29.52
427.794	119.64
428.001	119.64
428.209	103.25
428.417	215.89
428.624	88.92
428.832	101.2
429.039	138.07
429.247	74.58
429.454	172.88
429.662	213.84
429.869	72.53
430.076	37.72
430.284	201.55
430.491	232.27
430.699	179.03
430.906	267.09
431.114	181.07
431.321	136.02
431.528	166.74
431.736	95.06
431.943	230.23
432.15	189.27
432.358	189.27
432.565	289.62
432.772	19.29
432.979	181.07
433.187	142.16
433.394	226.13
433.601	181.07
433.808	256.85
434.016	222.03
434.223	242.51
434.43	248.66
434.637	224.08
434.844	324.43
435.052	232.27
435.259	262.99
435.466	299.86
435.673	351.06
435.88	306
436.087	375.63
436.294	318.29
436.501	394.06
436.708	232.27
436.915	355.15
437.122	400.21
437.329	217.94
437.537	332.62
437.743	412.5
437.95	486.22
438.157	269.14
438.364	416.59
438.571	432.97
438.778	420.69
438.985	461.65
439.192	492.37
439.399	508.75
439.606	441.17
439.813	518.99
440.02	611.15
440.227	723.79
440.433	562
440.64	494.41
440.847	486.22
441.054	670.54
441.261	750.41
441.467	754.51
441.674	658.25
441.881	795.47
442.088	680.78
442.294	693.07
442.501	891.72
442.708	893.77
442.914	772.94
443.121	916.3
443.328	879.43
443.534	944.97
443.741	840.52
443.948	858.95
444.154	1006.41
444.361	1217.35
444.568	1020.74
444.774	1033.03
444.981	947.01
445.187	1258.31
445.394	1219.39
445.6	1178.44
445.807	1352.51
446.013	1307.46
446.22	1162.05
446.426	1526.59
446.633	1604.41
446.839	1653.56
447.046	1446.72
447.252	1647.42
447.459	1712.96
447.665	1747.77
447.871	1854.27
448.078	1962.81
448.284	1999.67
448.491	2077.49
448.697	2132.79
448.903	2294.58
449.11	2267.95
449.316	2220.85
449.522	2505.52
449.728	2493.23
449.935	2665.26
450.141	2601.77
450.347	2974.5
450.553	2792.23
450.76	2833.19
450.966	3081
451.172	3146.53
451.378	3408.67
451.584	3341.09
451.791	3681.05
451.997	3642.14
452.203	3740.44
452.409	3930.91
452.615	4162.33
452.821	4008.73
453.027	4057.88
453.233	4483.86
453.44	4358.93
453.646	4518.67
453.852	4954.89
454.058	5083.91
454.264	5145.35
454.47	5503.75
454.676	5518.08
454.882	5839.61
455.088	5792.51
455.294	6007.55
455.5	6587.12
455.705	6775.53
455.911	6879.98
456.117	7142.12
456.323	7230.18
456.529	7242.47
456.735	7916.25
456.941	8229.59
457.147	8528.6
457.352	8659.67
457.558	8930
457.764	9425.61
457.97	9728.7
458.176	9953.98
458.381	10449.59
458.587	10750.64
458.793	11219.63
458.999	11240.11
459.204	12735.12
459.41	13089.42
459.616	13144.72
459.821	13482.63
460.027	14312.06
460.233	14801.52
460.438	15039.09
460.644	15942.24
460.85	15944.29
461.055	16321.12
461.261	17556.04
461.466	17089.1
461.672	17451.6
461.878	19634.73
462.083	19321.39
462.289	19528.24
462.494	20359.71
462.7	20404.77
462.905	20793.88
463.111	22454.78
463.316	23730.67
463.522	24033.77
463.727	24910.3
463.932	25862.6
464.138	26579.39
464.343	27566.51
464.549	27761.07
464.754	29604.24
464.959	30669.19
465.165	30960
465.37	30726.53
465.575	30828.93
465.781	33407.32
465.986	34095.44
466.191	33474.9
466.397	33845.58
466.602	33077.6
466.807	35060.03
467.012	35592.5
467.218	36053.3
467.423	36145.45
467.628	37163.29
467.833	38709.51
468.038	38289.68
468.244	37468.44
468.449	39303.42
468.654	38242.57
468.859	38811.91
469.064	38779.14
469.269	37585.18
469.474	38005.01
469.679	38930.69
469.885	37759.25
470.09	38699.27
470.295	38437.13
470.5	37804.31
470.705	38033.68
470.91	36802.85
471.115	36757.8
471.32	36919.59
471.525	36686.12
471.73	35883.31
471.935	35512.63
472.139	33855.82
472.344	34380.1
472.549	34330.95
472.754	33423.7
472.959	33010.01
473.164	31738.23
473.369	30732.67
473.574	31983.98
473.778	31467.89
473.983	30730.62
474.188	30077.32
474.393	28856.73
474.598	28557.73
474.802	27894.19
475.007	27617.71
475.212	27439.54
475.417	26294.72
475.621	26075.59
475.826	26198.47
476.031	25430.48
476.235	24857.05
476.44	24562.14
476.645	23837.16
476.849	24058.34
477.054	23570.93
477.259	23099.89
477.463	22925.82
477.668	22047.24
477.872	22317.57
478.077	21486.09
478.282	21047.83
478.486	20748.82
478.691	20578.84
478.895	20537.88
479.1	20333.09
479.304	20126.24
479.509	19378.73
479.713	19776.04
479.918	19276.34
480.122	18836.02
480.326	19067.44
480.531	18936.37
480.735	18836.02
480.94	18422.33
481.144	18938.42
481.348	17906.24
481.553	18203.2
481.757	17357.39
481.961	17789.51
482.166	17898.05
482.37	17437.26
482.574	17322.57
482.778	17199.69
482.983	17441.36
483.187	16923.22
483.391	16927.32
483.595	16831.06
483.8	16673.37
484.004	16423.51
484.208	16499.29
484.412	16210.53
484.616	16087.65
484.821	16018.02
485.025	15377
485.229	15471.21
485.433	15260.27
485.637	15157.87
485.841	14738.04
486.045	14533.24
486.249	14676.6
486.453	14162.56
486.657	14049.92
486.861	13703.81
487.065	13591.17
487.269	13451.91
487.473	13054.61
487.677	13011.6
487.881	13177.48
488.085	12606.1
488.289	12452.5
488.493	11877.02
488.697	12159.64
488.901	11854.5
489.105	11348.65
489.309	11158.19
489.512	11303.59
489.716	10781.36
489.92	10705.59
490.124	10490.55
490.328	10384.05
490.531	10040
490.735	10154.68
490.939	9769.66
491.143	9650.88
491.346	9552.58
491.55	9403.08
491.754	9151.18
491.958	8852.17
492.161	8784.59
492.365	8811.21
492.569	8301.27
492.772	8329.94
492.976	8671.95
493.18	8061.66
493.383	8295.13
493.587	7955.16
493.79	7998.17
493.994	7662.3
494.197	7670.5
494.401	7733.98
494.605	7457.51
494.808	7484.13
495.012	7232.23
495.215	7295.72
495.419	7533.28
495.622	7197.42
495.825	7095.02
496.029	7041.77
496.232	7203.56
496.436	6994.67
496.639	7217.9
496.843	6916.84
497.046	6947.56
497.249	7049.96
497.453	6998.76
497.656	6925.04
497.859	7025.39
498.063	7140.07
498.266	6939.37
498.469	6886.12
498.673	6828.78
498.876	6949.61
499.079	6902.51
499.282	6992.62
499.485	7318.25
499.689	7258.85
499.892	6968.04
500.095	7058.15
500.298	7363.3
500.501	7092.97
500.705	7172.84
500.908	7226.09
501.111	7271.14
501.314	7420.64
501.517	7467.75
501.72	7488.23
501.923	7531.23
502.126	7678.69
502.329	7791.33
502.532	7787.23
502.735	7785.18
502.938	7932.64
503.141	7908.06
503.344	8073.95
503.547	8090.33
503.75	8041.18
503.953	8233.69
504.156	8319.7
504.359	8407.77
504.562	8452.82
504.765	8874.7
504.968	8692.43
505.17	9104.07
505.373	8889.04
505.576	9208.52
505.779	9335.49
505.982	9333.45
506.185	9773.76
506.387	9818.82
506.59	9953.98
506.793	10291.9
506.996	10037.95
507.198	10611.38
507.401	10699.44
507.604	10924.72
507.807	11111.08
508.009	11119.28
508.212	11387.56
508.415	11483.81
508.617	11811.49
508.82	11901.6
509.022	12247.71
509.225	12425.88
509.428	12741.27
509.63	12991.12
509.833	13247.12
510.035	13865.6
510.238	13812.35
510.44	13929.09
510.643	14479.99
510.845	14834.29
511.048	14537.34
511.25	15139.44
511.453	15721.06
511.655	16091.74
511.858	16163.42
512.06	16724.57
512.262	16915.03
512.465	17189.46
512.667	17879.62
512.87	18238.02
513.072	18328.13
513.274	19061.3
513.477	19329.58
513.679	19806.76
513.881	20228.64
514.084	20671
514.286	20970.01
514.488	21137.94
514.69	22389.25
514.893	22497.79
515.095	22770.17
515.297	23558.64
515.499	23794.15
515.701	24336.87
515.904	24955.35
516.106	25323.99
516.308	26104.26
516.51	26370.5
516.712	27040.18
516.914	27396.53
517.116	27660.72
517.318	28359.08
517.52	28940.7
517.722	29591.95
517.925	29684.11
518.127	30771.58
518.329	31078.78
518.531	31195.51
518.733	32055.66
518.935	32545.12
519.136	32739.68
519.338	33876.3
519.54	33995.09
519.742	34728.26
519.944	35217.72
520.146	35879.22
520.348	35709.24
520.55	36217.13
520.752	37003.55
520.954	37394.71
521.155	37693.72
521.357	38668.55
521.559	38967.55
521.761	39485.69
521.963	39723.26
522.164	39753.97
522.366	40292.59
522.568	40268.01
522.77	40792.29
522.971	41910.49
523.173	40968.42
523.375	41916.63
523.576	41885.91
523.778	41713.88
523.98	42430.67
524.181	42688.71
524.383	42442.96
524.584	43126.98
524.786	43251.91
524.988	42830.02
525.189	43333.82
525.391	43268.29
525.592	43186.37
525.794	43253.95
525.995	43319.49
526.197	43382.98
526.398	42940.61
526.6	43260.1
526.801	43268.29
527.003	43378.88
527.204	42997.96
527.406	43342.02
527.607	42416.33
527.808	42518.73
528.01	41967.83
528.211	41892.05
528.412	42164.43
528.614	41515.23
528.815	41699.55
529.016	41588.95
529.218	40618.22
529.419	40700.14
529.62	40118.51
529.822	39700.73
530.023	39450.88
530.224	39053.57
530.425	38707.46
530.626	37859.6
530.828	37691.67
531.029	37742.87
531.23	37165.34
531.431	36725.03
531.632	36342.06
531.833	35844.4
532.035	35737.91
532.236	35184.96
532.437	34615.62
532.638	34333
532.839	33726.8
533.04	33628.5
533.241	32641.38
533.442	33218.91
533.643	32295.27
533.844	31703.41
534.045	31375.73
534.246	30638.47
534.447	30728.58
534.648	29880.72
534.849	29847.95
535.05	29288.85
535.251	29059.48
535.451	28637.6
535.652	28397.99
535.853	28010.92
536.054	27406.77
536.255	26999.23
536.456	26689.98
536.657	26509.76
536.857	25969.1
537.058	25754.06
537.259	25539.02
537.46	24809.95
537.66	24467.94
537.861	24371.68
538.062	24003.05
538.263	23857.64
538.463	23319.03
538.664	22901.24
538.865	23185.91
539.065	22725.11
539.266	22067.72
539.466	22024.71
539.667	21776.91
539.868	21578.25
540.068	21414.41
540.269	21092.88
540.469	20785.69
540.67	20267.55
540.87	20267.55
541.071	19675.69
541.271	20142.63
541.472	19694.12
541.672	19401.26
541.873	19071.54
542.073	18547.26
542.274	19255.86
542.474	18332.22
542.675	18186.82
542.875	18248.25
543.075	17627.72
543.276	17109.58
543.476	17666.63
543.676	17039.95
543.877	17093.2
544.077	16788.05
544.277	16798.29
544.478	16267.87
544.678	16251.49
544.878	16161.37
545.078	16089.7
545.279	15766.12
545.479	15655.53
545.679	15567.46
545.879	15374.95
546.079	14981.74
546.28	14662.26
546.48	14740.08
546.68	14500.47
546.88	14559.86
547.08	14389.88
547.28	14172.8
547.48	13791.87
547.68	13857.41
547.88	13427.34
548.081	13304.46
548.281	13197.96
548.481	12747.41
548.681	12956.3
548.881	12919.44
549.081	12448.41
549.28	12343.96
549.48	12305.05
549.68	12100.25
549.88	11971.23
550.08	11565.73
550.28	11856.54
550.48	11395.75
550.68	11139.76
550.88	11084.46
551.08	10943.15
551.279	10812.08
551.479	10629.81
551.679	10414.77
551.879	10478.26
552.079	10357.43
552.278	10017.47
552.478	10068.67
552.678	9691.84
552.878	9657.03
553.077	9317.06
553.277	9218.76
553.477	9169.61
553.676	9054.92
553.876	8794.83
554.076	8727.25
554.275	8729.3
554.475	8442.58
554.674	8456.92
554.874	8340.18
555.074	7975.64
555.273	7983.84
555.473	7830.24
555.672	7733.98
555.872	7592.67
556.071	7662.3
556.271	7404.26
556.47	7250.66
556.67	7084.78
556.869	7084.78
557.068	6734.57
557.268	6826.73
557.467	6746.86
557.667	6591.22
557.866	6404.85
558.065	6443.76
558.265	6169.34
558.464	6152.95
558.663	6064.89
558.863	5915.39
559.062	6066.94
559.261	5741.31
559.461	5776.13
559.66	5501.7
559.859	5268.23
560.058	5307.14
560.258	5124.87
560.457	5077.77
560.656	5137.16
560.855	5008.14
561.054	5122.82
561.253	5004.04
561.453	4948.75
561.652	4754.19
561.851	4633.36
562.05	4627.21
562.249	4322.07
562.448	4537.1
562.647	4254.48
562.846	4307.73
563.045	4328.21
563.244	4203.29
563.443	4274.96
563.642	4113.17
563.841	3996.44
564.04	4008.73
564.239	3924.76
564.438	3928.86
564.637	3674.91
564.836	3724.06
565.035	3693.34
565.234	3531.55
565.432	3537.7
565.631	3470.11
565.83	3468.06
566.029	3472.16
566.228	3509.02
566.427	3285.8
566.625	3263.27
566.824	3281.7
567.023	3236.64
567.222	3171.11
567.42	2988.84
567.619	3144.49
567.818	2984.74
568.016	3111.72
568.215	2882.35
568.414	3042.09
568.612	2855.72
568.811	2931.5
569.01	2761.52
569.208	2726.7
569.407	2710.32
569.605	2786.09
569.804	2628.4
570.002	2612.01
570.201	2517.81
570.4	2472.75
570.598	2419.5
570.797	2415.41
570.995	2331.44
571.193	2388.78
571.392	2267.95
571.59	2304.82
571.789	2331.44
571.987	2265.91
572.186	2265.91
572.384	2003.77
572.582	2136.88
572.781	2222.9
572.979	1864.5
573.177	2054.97
573.376	1946.42
573.574	1985.34
573.772	1919.8
573.971	1934.14
574.169	1813.31
574.367	1870.65
574.565	1798.97
574.763	1704.76
574.962	1839.93
575.16	1686.33
575.358	1606.46
575.556	1649.47
575.754	1751.87
575.952	1633.08
576.151	1633.08
576.349	1557.31
576.547	1452.86
576.745	1565.5
576.943	1485.63
577.141	1420.1
577.339	1246.02
577.537	1422.14
577.735	1473.34
577.933	1481.53
578.131	1356.61
578.329	1428.29
578.527	1286.98
578.725	1407.81
578.923	1129.28
579.121	1356.61
579.319	1098.56
579.516	1219.39
579.714	1434.43
579.912	1203.01
580.11	1088.32
580.308	1094.47
580.506	1155.91
580.704	977.73
580.901	1067.85
581.099	1196.87
581.297	1088.32
581.495	1096.52
581.692	1018.69
581.89	1135.43
582.088	877.38
582.285	1043.27
582.483	940.87
582.681	955.21
582.878	967.49
583.076	901.96
583.274	904.01
583.471	1016.65
583.669	873.29
583.866	772.94
584.064	912.2
584.262	774.99
584.459	783.18
584.657	879.43
584.854	865.1
585.052	850.76
585.249	912.2
585.447	826.18
585.644	734.03
585.841	803.66
586.039	813.9
586.236	799.56
586.434	815.94
586.631	760.65
586.828	717.64
587.026	654.16
587.223	559.95
587.42	652.11
587.618	729.93
587.815	678.73
588.012	629.58
588.21	736.07
588.407	756.55
588.604	736.07
588.801	559.95
588.999	676.68
589.196	711.5
589.393	629.58
589.59	643.92
589.787	699.21
589.984	674.64
590.182	594.76
590.379	504.65
590.576	539.47
590.773	621.39
590.97	592.72
591.167	547.66
591.364	578.38
591.561	525.13
591.758	729.93
591.955	631.63
592.152	588.62
592.349	598.86
592.546	525.13
592.743	566.09
592.94	566.09
593.137	658.25
593.334	639.82
593.531	701.26
593.727	592.72
593.924	664.4
594.121	619.34
594.318	566.09
594.515	570.19
594.712	799.56
594.908	748.36
595.105	535.37
595.302	648.01
595.499	619.34
595.696	795.47
595.892	711.5
596.089	680.78
596.286	627.53
596.482	734.03
596.679	746.31
596.876	660.3
597.072	848.71
597.269	858.95
597.466	828.23
597.662	744.27
597.859	762.7
598.055	922.44
598.252	871.24
598.448	957.25
598.645	1067.85
598.841	998.21
599.038	1174.34
599.234	1186.63
599.431	1108.8
599.627	1276.74
599.824	1256.26
600.02	1194.82
600.217	1256.26
600.413	1348.42
600.609	1465.15
600.806	1606.46
601.002	1549.12
601.198	1407.81
601.395	1719.1
601.591	1741.63
601.787	1794.87
601.984	1872.7
602.18	1981.24
602.376	1878.84
602.572	2069.3
602.769	2177.84
602.965	2143.03
603.161	2288.43
603.357	2388.78
603.553	2573.1
603.75	2450.22
603.946	2591.53
604.142	2638.64
604.338	2861.87
604.534	2781.99
604.73	2939.69
604.926	2954.02
605.122	3224.36
605.318	3119.91
605.514	3375.91
605.71	3371.81
605.906	3564.32
606.102	3570.46
606.298	3693.34
606.494	3926.81
606.69	4086.55
606.886	4268.82
607.082	4127.51
607.278	4299.54
607.474	4322.07
607.67	4512.53
607.866	4567.82
608.062	4809.48
608.257	4915.98
608.453	4997.9
608.649	5427.97
608.845	5268.23
609.041	5444.35
609.236	5729.02
609.432	5917.44
609.628	6021.88
609.824	6134.52
610.019	6169.34
610.215	6517.49
610.411	6660.85
610.606	6896.36
610.802	6746.86
610.998	6949.61
611.193	7482.08
611.389	7369.44
611.584	7865.05
611.78	7830.24
611.976	8135.39
612.171	8504.02
612.367	8590.03
612.562	8669.91
612.758	8927.95
612.953	9208.52
613.149	9534.15
613.344	9683.65
613.539	10035.9
613.735	10339
613.93	10400.44
614.126	10807.98
614.321	11031.21
614.517	11449
614.712	11852.45
614.907	12030.62
615.103	12317.34
615.298	12444.31
615.493	13159.05
615.688	13085.33
615.884	13726.34
616.079	13988.48
616.274	14158.46
616.47	14539.38
616.665	14961.27
616.86	15049.33
617.055	15762.02
617.25	15923.81
617.445	16568.92
617.641	16736.85
617.836	17392.2
618.031	17379.92
618.226	18291.26
618.421	18416.19
618.616	18788.92
618.811	19182.13
619.006	20079.14
619.201	19980.84
619.396	20441.63
619.591	20652.57
619.786	21588.49
619.981	21682.7
620.176	22671.87
620.371	22469.12
620.566	23220.72
620.761	24127.97
620.956	24599.01
621.151	24660.45
621.346	25450.96
621.541	25375.19
621.735	26507.71
621.93	26247.62
622.125	27158.97
622.32	27122.1
622.515	28150.18
622.709	28397.99
622.904	29213.08
623.099	29278.61
623.294	30450.05
623.488	30599.55
623.683	31437.17
623.878	31144.31
624.072	32409.96
624.267	32311.66
624.462	33079.64
624.656	33272.15
624.851	34244.94
625.046	34197.84
625.24	34875.71
625.435	35221.82
625.629	35551.54
625.824	36180.27
626.018	36888.87
626.213	36370.73
626.407	37409.05
626.602	37732.63
626.796	38238.48
626.991	39014.66
627.185	38863.11
627.38	38934.79
627.574	39194.88
627.768	39549.18
627.963	39745.78
628.157	39397.63
628.352	40401.13
628.546	39528.7
628.74	40354.03
628.935	39958.77
629.129	40085.75
629.323	39809.27
629.517	39106.82
629.712	38824.2
629.906	39166.21
630.1	38281.49
630.294	38607.11
630.489	37706.01
630.683	37277.98
630.877	36497.7
631.071	35879.22
631.265	35676.47
631.459	34838.85
631.653	34113.87
631.848	33550.68
632.042	32340.33
632.236	32008.56
632.43	30984.57
632.624	30278.02
632.818	29168.02
633.012	28363.17
633.206	27378.1
633.4	26874.3
633.594	25395.67
633.788	24992.22
633.982	24029.67
634.176	23208.44
634.369	22225.41
634.563	21369.36
634.757	20591.13
634.951	19825.19
635.145	19108.4
635.339	18678.33
635.533	17478.22
635.726	16962.13
635.92	16280.16
636.114	15813.22
636.308	14897.78
636.501	14658.17
636.695	13947.52
636.889	13138.57
637.083	12665.49
637.276	12098.2
637.47	11442.85
637.664	11156.14
637.857	10586.8
638.051	10543.8
638.244	9960.13
638.438	9521.86
638.632	9190.09
638.825	8764.11
639.019	8436.44
639.212	8112.86
639.406	7850.72
639.599	7564
639.793	7158.5
639.986	6900.46
640.18	6652.66
640.373	6392.56
640.567	6126.33
640.76	5917.44
640.954	5724.93
641.147	5382.92
641.34	5274.37
641.534	4963.08
641.727	4852.49
641.92	4813.58
642.114	4416.27
642.307	4477.71
642.5	4182.81
642.694	3969.82
642.887	3810.08
643.08	3707.68
643.273	3588.89
643.467	3398.43
643.66	3269.41
643.853	3066.66
644.046	3037.99
644.239	2954.02
644.432	2825
644.626	2511.66
644.819	2665.26
645.012	2534.19
645.205	2673.45
645.398	2302.77
645.591	2282.29
645.784	2120.5
645.977	1983.29
646.17	1946.42
646.363	2032.44
646.556	1766.2
646.749	1649.47
646.942	1817.4
647.135	1708.86
647.328	1639.23
647.521	1610.56
647.714	1510.21
647.907	1405.76
648.099	1286.98
648.292	1489.73
648.485	1194.82
648.678	1127.24
648.871	1168.2
649.064	1092.42
649.256	977.73
649.449	961.35
649.642	955.21
649.835	1014.6
650.027	953.16
650.22	973.64
650.413	951.11
650.605	918.34
650.798	889.67
650.991	723.79
651.183	785.23
651.376	805.71
651.568	678.73
651.761	660.3
651.954	748.36
652.146	693.07
652.339	772.94
652.531	682.83
652.724	463.69
652.916	619.34
653.109	408.4
653.301	598.86
653.494	564.04
653.686	613.2
653.879	527.18
654.071	619.34
654.263	430.93
654.456	392.02
654.648	580.43
654.84	402.26
655.033	404.3
655.225	547.66
655.417	287.57
655.61	537.42
655.802	426.83
655.994	578.38
656.186	369.49
656.379	351.06
656.571	291.66
656.763	281.43
656.955	351.06
657.148	371.54
657.34	439.12
657.532	269.14
657.724	314.19
657.916	375.63
658.108	371.54
658.3	258.9
658.492	306
658.684	258.9
658.876	306
659.068	248.66
659.26	183.12
659.452	213.84
659.644	267.09
659.836	443.21
660.028	277.33
660.22	252.75
660.412	234.32
660.604	275.28
660.796	252.75
660.988	361.3
661.18	269.14
661.372	291.66
661.563	205.65
661.755	215.89
661.947	162.64
662.139	160.59
662.331	127.83
662.522	279.38
662.714	168.79
662.906	222.03
663.097	230.23
663.289	156.5
663.481	76.63
663.673	131.92
663.864	211.79
664.056	297.81
664.247	158.55
664.439	291.66
664.631	123.73
664.822	166.74
665.014	256.85
665.205	191.31
665.397	74.58
665.588	174.93
665.78	129.88
665.971	215.89
666.163	97.11
666.354	240.47
666.546	101.2
666.737	58.2
666.929	86.87
667.12	72.53
667.311	260.95
667.503	168.79
667.694	168.79
667.885	258.9
668.077	162.64
668.268	25.43
668.459	115.54
668.651	129.88
668.842	144.21
669.033	113.49
669.224	13.14
669.416	328.53
669.607	142.16
669.798	99.16
669.989	238.42
670.18	138.07
670.371	187.22
670.563	82.77
670.754	226.13
670.945	123.73
671.136	172.88
671.327	82.77
671.518	242.51
671.709	238.42
671.9	205.65
672.091	240.47
672.282	191.31
672.473	154.45
672.664	78.68
672.855	148.31
673.046	174.93
673.237	207.7
673.428	170.83
673.619	195.41
673.809	121.68
674	189.27
674.191	181.07
674.382	121.68
674.573	117.59
674.764	164.69
674.954	244.56
675.145	97.11
675.336	144.21
675.527	152.4
675.717	105.3
675.908	101.2
676.099	152.4
676.289	168.79
676.48	58.2
676.671	136.02
676.861	207.7
677.052	201.55
677.243	144.21
677.433	86.87
677.624	168.79
677.814	191.31
678.005	154.45
678.195	265.04
678.386	103.25
678.576	152.4
678.767	88.92
678.957	164.69
679.148	224.08
679.338	281.43
679.529	205.65
679.719	146.26
679.909	258.9
680.1	226.13
680.29	136.02
680.481	86.87
680.671	351.06
680.861	222.03
681.052	195.41
681.242	138.07
681.432	254.8
681.622	260.95
681.813	80.72
682.003	205.65
682.193	93.01
682.383	228.18
682.573	170.83
682.764	193.36
682.954	271.19
683.144	371.54
683.334	181.07
683.524	197.46
683.714	320.34
683.904	213.84
684.094	181.07
684.284	228.18
684.474	312.14
684.664	271.19
684.854	265.04
685.044	199.51
685.234	205.65
685.424	209.75
685.614	160.59
685.804	373.58
685.994	330.58
686.184	201.55
686.374	246.61
686.564	193.36
686.753	181.07
686.943	131.92
687.133	189.27
687.323	228.18
687.513	293.71
687.702	176.98
687.892	127.83
688.082	265.04
688.272	244.56
688.461	252.75
688.651	353.1
688.841	226.13
689.03	195.41
689.22	183.12
689.41	262.99
689.599	289.62
689.789	209.75
689.979	310.1
690.168	144.21
690.358	226.13
690.547	107.35
690.737	209.75
690.926	193.36
691.116	136.02
691.305	260.95
691.495	254.8
691.684	174.93
691.874	166.74
692.063	158.55
692.252	299.86
692.442	287.57
692.631	158.55
692.82	197.46
693.01	293.71
693.199	262.99
693.388	230.23
693.578	211.79
693.767	236.37
693.956	252.75
694.146	226.13
694.335	236.37
694.524	152.4
694.713	185.17
694.902	191.31
695.092	219.99
695.281	224.08
695.47	131.92
695.659	43.86
695.848	258.9
696.037	213.84
696.226	273.23
696.415	209.75
696.604	312.14
696.793	246.61
696.982	152.4
697.171	287.57
697.36	138.07
697.549	187.22
697.738	129.88
697.927	133.97
698.116	144.21
698.305	203.6
698.494	226.13
698.683	193.36
698.872	232.27
699.061	131.92
699.25	203.6
699.438	101.2
699.627	133.97
699.816	334.67
700.005	58.2
700.193	193.36
700.382	179.03
700.571	205.65
700.76	273.23
700.948	289.62
701.137	275.28
701.326	240.47
701.514	176.98
701.703	289.62
701.892	148.31
702.08	377.68
702.269	156.5
702.457	162.64
702.646	152.4
702.834	201.55
703.023	209.75
703.212	230.23
703.4	189.27
703.589	154.45
703.777	90.96
703.965	138.07
704.154	168.79
704.342	115.54
704.531	213.84
704.719	183.12
704.907	203.6
705.096	70.48
705.284	88.92
705.472	209.75
705.661	203.6
705.849	195.41
706.037	295.76
706.226	142.16
706.414	197.46
706.602	117.59
706.79	185.17
706.979	133.97
707.167	232.27
707.355	9.05
707.543	197.46
707.731	168.79
707.919	172.88
708.107	136.02
708.296	170.83
708.484	150.36
708.672	166.74
708.86	238.42
709.048	185.17
709.236	195.41
709.424	279.38
709.612	246.61
709.8	123.73
709.988	172.88
710.176	273.23
710.364	277.33
710.551	189.27
710.739	230.23
710.927	136.02
711.115	207.7
711.303	256.85
711.491	265.04
711.679	183.12
711.866	156.5
712.054	148.31
712.242	238.42
712.43	197.46
712.617	232.27
712.805	262.99
712.993	150.36
713.181	129.88
713.368	174.93
713.556	193.36
713.744	150.36
713.931	293.71
714.119	191.31
714.306	199.51
714.494	131.92
714.682	187.22
714.869	93.01
715.057	115.54
715.244	154.45
715.432	219.99
715.619	166.74
715.807	166.74
715.994	68.44
716.182	279.38
716.369	215.89
716.556	283.47
716.744	64.34
716.931	158.55
717.119	148.31
717.306	131.92
717.493	219.99
717.681	193.36
717.868	164.69
718.055	271.19
718.242	156.5
718.43	168.79
718.617	236.37
718.804	252.75
718.991	267.09
719.179	222.03
719.366	252.75
719.553	224.08
719.74	246.61
719.927	211.79
720.114	248.66
720.301	150.36
720.488	133.97
720.676	158.55
720.863	297.81
721.05	404.3
721.237	191.31
721.424	246.61
721.611	193.36
721.798	142.16
721.985	99.16
722.172	250.71
722.358	228.18
722.545	293.71
722.732	230.23
722.919	222.03
723.106	256.85
723.293	234.32
723.48	244.56
723.667	144.21
723.853	320.34
724.04	332.62
724.227	271.19
724.414	197.46
724.6	287.57
724.787	353.1
724.974	377.68
725.161	281.43
725.347	125.78
725.534	338.77
725.72	308.05
725.907	308.05
726.094	369.49
726.28	258.9
726.467	203.6
726.653	205.65
726.84	361.3
727.027	357.2
727.213	140.12
727.4	289.62
727.586	303.95
727.773	285.52
727.959	242.51
728.145	246.61
728.332	301.9
728.518	158.55
728.705	297.81
728.891	164.69
729.077	301.9
729.264	176.98
729.45	174.93
729.636	328.53
729.823	238.42
730.009	387.92
730.195	267.09
730.382	254.8
730.568	222.03
730.754	260.95
730.94	250.71
731.126	328.53
731.313	256.85
731.499	203.6
731.685	357.2
731.871	273.23
732.057	234.32
732.243	357.2
732.429	353.1
732.615	340.82
732.801	267.09
732.987	314.19
733.173	269.14
733.359	211.79
733.545	271.19
733.731	271.19
733.917	334.67
734.103	256.85
734.289	340.82
734.475	222.03
734.661	459.6
734.847	279.38
735.033	189.27
735.219	310.1
735.404	174.93
735.59	246.61
735.776	213.84
735.962	295.76
736.148	373.58
736.333	344.91
736.519	277.33
736.705	277.33
736.89	275.28
737.076	289.62
737.262	199.51
737.447	267.09
737.633	281.43
737.819	310.1
738.004	332.62
738.19	318.29
738.375	342.86
738.561	324.43
738.747	242.51
738.932	193.36
739.118	428.88
739.303	271.19
739.489	351.06
739.674	217.94
739.859	269.14
740.045	369.49
740.23	338.77
740.416	222.03
740.601	365.39
740.786	324.43
740.972	179.03
741.157	277.33
741.342	250.71
741.528	267.09
741.713	301.9
741.898	232.27
742.084	316.24
742.269	318.29
742.454	271.19
742.639	392.02
742.824	357.2
743.01	365.39
743.195	478.03
743.38	287.57
743.565	295.76
743.75	299.86
743.935	334.67
744.12	396.11
744.305	238.42
744.49	312.14
744.675	262.99
744.86	351.06
745.045	324.43
745.23	291.66
745.415	262.99
745.6	349.01
745.785	344.91
745.97	349.01
746.155	258.9
746.34	346.96
746.525	320.34
746.71	385.87
746.895	258.9
747.079	183.12
747.264	310.1
747.449	262.99
747.634	291.66
747.819	369.49
748.003	267.09
748.188	230.23
748.373	361.3
748.557	258.9
748.742	271.19
748.927	205.65
749.111	226.13
749.296	351.06
749.481	271.19
749.665	234.32
749.85	164.69
750.034	322.38
750.219	265.04
750.404	291.66
750.588	293.71
750.773	133.97
750.957	201.55
751.141	267.09
751.326	254.8
751.51	174.93
751.695	197.46
751.879	205.65
752.064	293.71
752.248	185.17
752.432	312.14
752.617	232.27
752.801	258.9
752.985	187.22
753.17	275.28
753.354	232.27
753.538	193.36
753.722	215.89
753.907	160.59
754.091	140.12
754.275	312.14
754.459	138.07
754.643	174.93
754.828	209.75
755.012	328.53
755.196	181.07
755.38	306
755.564	189.27
755.748	209.75
755.932	162.64
756.116	121.68
756.3	228.18
756.484	203.6
756.668	244.56
756.852	74.58
757.036	123.73
757.22	133.97
757.404	119.64
757.588	209.75
757.772	246.61
757.956	181.07
758.14	267.09
758.323	105.3
758.507	160.59
758.691	250.71
758.875	236.37
759.059	291.66
759.242	125.78
759.426	166.74
759.61	152.4
759.794	144.21
759.977	226.13
760.161	416.59
760.345	228.18
760.528	199.51
760.712	224.08
760.895	215.89
761.079	170.83
761.263	138.07
761.446	88.92
761.63	113.49
761.813	279.38
761.997	64.34
762.18	140.12
762.364	228.18
762.547	17.24
762.731	195.41
762.914	103.25
763.098	88.92
763.281	129.88
763.464	62.29
763.648	125.78
763.831	146.26
764.015	93.01
764.198	219.99
764.381	146.26
764.564	131.92
764.748	160.59
764.931	123.73
765.114	148.31
765.297	176.98
765.481	62.29
765.664	119.64
765.847	66.39
766.03	267.09
766.213	70.48
766.397	113.49
766.58	68.44
766.763	174.93
766.946	86.87
767.129	76.63
767.312	39.76
767.495	76.63
767.678	43.86
767.861	99.16
768.044	88.92
768.227	90.96
768.41	123.73
768.593	107.35
768.776	174.93
768.959	109.4
769.142	238.42
769.324	168.79
769.507	142.16
769.69	41.81
769.873	136.02
770.056	308.05
770.239	105.3
770.421	222.03
770.604	105.3
770.787	72.53
770.97	111.44
771.152	68.44
771.335	119.64
771.518	66.39
771.7	172.88
771.883	285.52
772.066	84.82
772.248	148.31
772.431	209.75
772.613	99.16
772.796	129.88
772.978	168.79
773.161	222.03
773.343	80.72
773.526	50
773.708	13.14
773.891	7
774.073	133.97
774.256	86.87
774.438	228.18
774.621	60.24
774.803	121.68
774.985	64.34
775.168	195.41
775.35	23.38
775.532	103.25
775.715	84.82
775.897	33.62
776.079	33.62
776.261	62.29
776.444	140.12
776.626	11.09
776.808	90.96
776.99	-7.34
777.173	58.2
777.355	136.02
777.537	90.96
777.719	127.83
777.901	117.59
778.083	-27.82
778.265	13.14
778.447	193.36
778.629	56.15
778.811	97.11
778.993	146.26
779.175	133.97
779.357	31.57
779.539	15.19
779.721	123.73
779.903	74.58
780.085	50
780.267	64.34
780.449	54.1
780.631	109.4
780.812	172.88
780.994	76.63
781.176	136.02
781.358	64.34
781.54	58.2
781.721	117.59
781.903	117.59
782.085	7
782.267	107.35
782.448	88.92
782.63	-15.53
782.812	80.72
782.993	23.38
783.175	138.07
783.357	127.83
783.538	123.73
783.72	9.05
783.901	113.49
784.083	115.54
784.264	39.76
784.446	90.96
784.627	45.91
784.809	50
784.99	21.33
785.172	95.06
785.353	109.4
785.535	82.77
785.716	-93.35
785.897	-19.63
786.079	97.11
786.26	140.12
786.441	64.34
786.623	-17.58
786.804	-7.34
786.985	7
787.167	97.11
787.348	41.81
787.529	-91.31
787.71	222.03
787.891	95.06
788.073	47.96
788.254	-44.2
788.435	179.03
788.616	84.82
788.797	-76.97
788.978	60.24
789.159	-23.72
789.34	72.53
789.522	-7.34
789.703	70.48
789.884	58.2
790.065	37.72
790.246	170.83
790.427	25.43
790.607	131.92
790.788	140.12
790.969	52.05
791.15	109.4
791.331	-48.3
791.512	45.91
791.693	35.67
791.874	-44.2
792.054	215.89
792.235	127.83
792.416	21.33
792.597	56.15
792.778	15.19
792.958	80.72
793.139	29.52
793.32	129.88
793.5	33.62
793.681	138.07
793.862	119.64
794.042	115.54
794.223	-46.25
794.404	29.52
794.584	-50.35
794.765	-36.01
794.945	97.11
795.126	123.73
795.306	117.59
795.487	99.16
795.667	62.29
795.848	68.44
796.028	-21.67
796.209	54.1
796.389	111.44
796.57	56.15
796.75	25.43
796.93	64.34
797.111	-31.91
797.291	15.19
797.471	45.91
797.652	0.85
797.832	56.15
798.012	50
798.192	4.95
798.373	-122.02
798.553	-79.02
798.733	23.38
798.913	4.95
799.093	9.05
799.274	-13.48
799.454	33.62
799.634	105.3
799.814	84.82
799.994	25.43
800.174	82.77
800.354	37.72
800.534	-62.63
800.714	86.87
800.894	-95.4
801.074	-3.24
801.254	35.67
801.434	99.16
801.614	-7.34
801.794	-56.49
801.974	1919.8
802.154	-44.2
802.334	129.88
802.514	2.9
802.693	37.72
802.873	-48.3
803.053	113.49
803.233	33.62
803.413	-5.29
803.592	23.38
803.772	33.62
803.952	31.57
804.131	-68.78
804.311	119.64
804.491	47.96
804.67	-15.53
804.85	56.15
805.03	7
805.209	70.48
805.389	-44.2
805.568	-29.87
805.748	50
805.928	4.95
806.107	88.92
806.287	95.06
806.466	56.15
806.646	41.81
806.825	-52.39
807.004	-27.82
807.184	33.62
807.363	60.24
807.543	-19.63
807.722	-54.44
807.901	68.44
808.081	11.09
808.26	-29.87
808.439	74.58
808.619	23.38
808.798	11.09
808.977	90.96
809.156	52.05
809.336	27.48
809.515	62.29
809.694	-23.72
809.873	4.95
810.052	50
810.231	133.97
810.411	70.48
810.59	156.5
810.769	29.52
810.948	86.87
811.127	-76.97
811.306	-21.67
811.485	29.52
811.664	78.68
811.843	58.2
812.022	-19.63
812.201	-3.24
812.38	15.19
812.559	-44.2
812.737	136.02
812.916	-83.11
813.095	-15.53
813.274	-58.54
813.453	-46.25
813.632	72.53
813.811	72.53
813.989	-11.43
814.168	-76.97
814.347	-70.83
814.526	-3.24
814.704	127.83
814.883	97.11
815.062	-44.2
815.24	-3.24
815.419	-105.64
815.598	4.95
815.776	-64.68
815.955	74.58
816.133	-146.6
816.312	154.45
816.49	31.57
816.669	-7.34
816.847	15.19
817.026	23.38
817.204	-9.39
817.383	23.38
817.561	0.85
817.74	23.38
817.918	66.39
818.097	-85.16
818.275	-89.26
818.453	11.09
818.632	111.44
818.81	52.05
818.988	-50.35
819.167	-64.68
819.345	-1.19
819.523	-7.34
819.701	58.2
819.879	37.72
820.058	17.24
820.236	56.15
820.414	-7.34
820.592	-3.24
820.77	15.19
820.948	-27.82
821.127	-29.87
821.305	111.44
821.483	21.33
821.661	80.72
821.839	66.39
822.017	-7.34
822.195	-25.77
822.373	13.14
822.551	11.09
822.729	-7.34
822.907	39.76
823.085	95.06
823.262	-54.44
823.44	-42.15
823.618	-5.29
823.796	7
823.974	13.14
824.152	-1.19
824.329	47.96
824.507	27.48
824.685	160.59
824.863	-74.92
825.04	-68.78
825.218	84.82
825.396	2.9
825.574	127.83
825.751	15.19
825.929	99.16
826.107	-79.02
826.284	27.48
826.462	95.06
826.639	-48.3
826.817	-95.4
826.994	74.58
827.172	-107.69
827.349	123.73
827.527	-29.87
827.704	29.52
827.882	72.53
828.059	4.95
828.237	-42.15
828.414	86.87
828.591	-68.78
828.769	19.29
828.946	-9.39
829.124	111.44
829.301	66.39
829.478	-42.15
829.655	-15.53
829.833	52.05
830.01	-95.4
830.187	41.81
830.364	86.87
830.542	-40.11
830.719	86.87
830.896	25.43
831.073	97.11
831.25	-1.19
831.427	64.34
831.604	-17.58
831.782	-74.92
831.959	9.05
832.136	60.24
832.313	17.24
832.49	-36.01
832.667	99.16
832.844	-146.6
833.021	174.93
833.198	15.19
833.374	-7.34
833.551	-11.43
833.728	13.14
833.905	37.72
834.082	-105.64
834.259	111.44
834.436	33.62
834.612	-48.3
834.789	78.68
834.966	39.76
835.143	21.33
835.319	-17.58
835.496	105.3
835.673	-36.01
835.85	101.2
836.026	68.44
836.203	105.3
836.38	29.52
836.556	-23.72
836.733	-48.3
836.909	97.11
837.086	-38.06
837.262	-93.35
837.439	-19.63
837.616	-64.68
837.792	21.33
837.968	4.95
838.145	-134.31
838.321	25.43
838.498	56.15
838.674	29.52
838.851	39.76
839.027	-29.87
839.203	17.24
839.38	54.1
839.556	-27.82
839.732	17.24
839.909	-11.43
840.085	66.39
840.261	-95.4
840.437	19.29
840.614	4.95
840.79	123.73
840.966	103.25
841.142	9.05
841.318	-56.49
841.494	56.15
841.671	84.82
841.847	-21.67
842.023	-50.35
842.199	146.26
842.375	107.35
842.551	-113.83
842.727	23.38
842.903	103.25
843.079	-29.87
843.255	60.24
843.431	-54.44
843.607	64.34
843.783	-128.17
843.959	33.62
844.134	-62.63
844.31	43.86
844.486	-89.26
844.662	-54.44
844.838	9.05
845.013	17.24
845.189	68.44
845.365	115.54
845.541	86.87
845.716	80.72
845.892	97.11
846.068	-48.3
846.244	-74.92
846.419	-9.39
846.595	-58.54
846.77	-72.87
846.946	82.77
847.122	-15.53
847.297	-68.78
847.473	174.93
847.648	-109.74
847.824	56.15
847.999	-101.55
848.175	13.14
848.35	52.05
848.526	64.34
848.701	93.01
848.876	39.76
849.052	50
849.227	64.34
849.403	-19.63
849.578	-105.64
849.753	29.52
849.929	-3.24
850.104	-68.78
850.279	4.95
850.454	80.72
850.63	58.2
850.805	-3.24
850.98	60.24
851.155	33.62
851.33	35.67
851.505	-87.21
851.681	111.44
851.856	-76.97
852.031	27.48
852.206	-5.29
852.381	-60.59
852.556	17.24
852.731	9.05
852.906	164.69
853.081	9.05
853.256	154.45
853.431	-1.19
853.606	-58.54
853.781	-68.78
853.956	-136.36
854.131	47.96
854.305	-40.11
854.48	-95.4
854.655	17.24
854.83	-42.15
855.005	-5.29
855.18	-62.63
855.354	-17.58
855.529	72.53
855.704	-27.82
855.879	25.43
856.053	-70.83
856.228	117.59
856.403	-27.82
856.577	74.58
856.752	-58.54
856.926	37.72
857.101	-1.19
857.276	-97.45
857.45	-21.67
857.625	84.82
857.799	11.09
857.974	-91.31
858.148	-66.73
858.323	-5.29
858.497	-76.97
858.672	-29.87
858.846	-1.19
859.02	-17.58
859.195	-44.2
859.369	-27.82
859.543	76.63
859.718	39.76
859.892	60.24
860.066	58.2
860.241	2.9
860.415	-23.72
860.589	-15.53
860.763	-5.29
860.938	-31.91
861.112	52.05
861.286	-58.54
861.46	35.67
861.634	17.24
861.808	150.36
861.982	-48.3
862.157	-124.07
862.331	2.9
862.505	-48.3
862.679	-101.55
862.853	9.05
863.027	13.14
863.201	47.96
863.375	-13.48
863.549	-9.39
863.722	25.43
863.896	66.39
864.07	-27.82
864.244	4.95
864.418	62.29
864.592	23.38
864.766	2.9
864.939	-36.01
865.113	-23.72
865.287	90.96
865.461	-62.63
865.634	47.96
865.808	52.05
865.982	-97.45
866.156	4.95
866.329	-89.26
866.503	74.58
866.676	84.82
866.85	11.09
867.024	35.67
867.197	47.96
867.371	-68.78
867.544	33.62
867.718	-122.02
867.891	125.78
868.065	-15.53
868.238	-3.24
868.412	80.72
868.585	19.29
868.759	-15.53
868.932	4.95
869.105	-87.21
869.279	80.72
869.452	-19.63
869.625	52.05
869.799	-42.15
869.972	-134.31
870.145	-21.67
870.319	47.96
870.492	-9.39
870.665	-9.39
870.838	-81.07
871.011	-126.12
871.185	-48.3
871.358	-17.58
871.531	72.53
871.704	-76.97
871.877	84.82
872.05	-7.34
872.223	-38.06
872.396	54.1
872.569	50
872.742	-113.83
872.915	-42.15
873.088	-23.72
873.261	-93.35
873.434	66.39
873.607	29.52
873.78	39.76
873.953	-173.22
874.126	62.29
874.299	70.48
874.471	-11.43
874.644	-60.59
874.817	45.91
874.99	129.88
875.163	-101.55
875.335	25.43
875.508	47.96
875.681	68.44
875.853	-25.77
876.026	-7.34
876.199	31.57
876.371	-23.72
876.544	11.09
876.717	-29.87
876.889	-19.63
877.062	43.86
877.234	-25.77
877.407	-50.35
877.579	-60.59
877.752	-31.91
877.924	-7.34
878.097	37.72
878.269	-3.24
878.442	25.43
878.614	86.87
878.786	11.09
878.959	-46.25
879.131	4.95
879.303	-64.68
879.476	-23.72
879.648	107.35
879.82	25.43
879.993	-109.74
880.165	4.95
880.337	-36.01
880.509	19.29
880.681	-64.68
880.854	-31.91
881.026	103.25
881.198	142.16
881.37	-54.44
881.542	-29.87
881.714	-31.91
881.886	-42.15
882.058	-5.29
882.23	-3.24
882.402	-85.16
882.574	-60.59
882.746	117.59
882.918	127.83
883.09	54.1
883.262	-9.39
883.434	-56.49
883.606	-64.68
883.778	4.95
883.95	138.07
884.122	-5.29
884.293	33.62
884.465	0.85
884.637	103.25
884.809	-7.34
884.98	-46.25
885.152	29.52
885.324	62.29
885.496	-117.93
885.667	-48.3
885.839	-46.25
886.011	90.96
886.182	64.34
886.354	70.48
886.525	37.72
886.697	-5.29
886.869	-42.15
887.04	29.52
887.212	125.78
887.383	150.36
887.555	52.05
887.726	-95.4
887.897	-56.49
888.069	-5.29
888.24	-5.29
888.412	15.19
888.583	-19.63
888.754	-29.87
888.926	-115.88
889.097	25.43
889.268	-48.3
889.44	-31.91
889.611	-240.81
889.782	-25.77
889.953	11.09
890.125	133.97
890.296	-138.41
890.467	-27.82
890.638	-36.01
890.809	7
890.98	-38.06
891.151	56.15
891.323	56.15
891.494	-1.19
891.665	45.91
891.836	-1.19
892.007	7
892.178	-11.43
892.349	-23.72
892.52	2.9
892.691	4.95
892.862	-68.78
893.032	-101.55
893.203	43.86
893.374	33.62
893.545	121.68
893.716	-33.96
893.887	-17.58
894.057	11.09
894.228	50
894.399	-76.97
894.57	13.14
894.74	-23.72
894.911	13.14
895.082	4.95
895.253	-76.97
895.423	-3.24
895.594	72.53
895.764	-7.34
895.935	-1.19
896.106	2.9
896.276	-38.06
896.447	70.48
896.617	-64.68
896.788	-19.63
896.958	-31.91
897.129	-76.97
897.299	-91.31
897.47	23.38
897.64	9.05
897.81	-44.2
897.981	39.76
898.151	-19.63
898.322	45.91
898.492	-5.29
898.662	-66.73
898.832	11.09
899.003	-83.11
899.173	-23.72
899.343	-29.87
899.513	-52.39
