Data from USB4F104151__23__11-24-45-906.txt Node

Date: Wed Feb 26 11:24:45 EST 2025
User: louis
Spectrometer: USB4F10415
Trigger mode: 4
Integration Time (sec): 1.000000E-1
Scans to average: 1
Electric dark correction enabled: true
Nonlinearity correction enabled: false
Boxcar width: 0
XAxis mode: Wavelengths
Number of Pixels in Spectrum: 3648
>>>>>Begin Spectral Data<<<<<
178.204	-371.71
178.424	-371.71
178.644	-371.71
178.864	-418.81
179.084	-381.95
179.304	5.12
179.524	-9.22
179.744	7.17
179.964	31.74
180.184	37.89
180.404	19.46
180.624	-33.79
180.844	5.12
181.064	-123.9
181.283	64.51
181.503	-68.61
181.723	64.51
181.943	-84.99
182.163	246.78
182.383	-7.17
182.602	136.19
182.822	97.28
183.042	82.94
183.262	-9.22
183.482	-25.6
183.701	-78.85
183.921	17.41
184.141	-27.65
184.361	97.28
184.58	31.74
184.8	60.42
185.02	-15.36
185.239	103.42
185.459	50.18
185.679	160.77
185.898	-109.57
186.118	76.8
186.338	93.18
186.557	119.81
186.777	-95.23
186.997	1.02
187.216	52.22
187.436	177.15
187.655	54.27
187.875	91.13
188.095	-19.46
188.314	58.37
188.534	68.61
188.753	-66.56
188.973	115.71
189.192	148.48
189.412	-27.65
189.631	-37.89
189.851	132.09
190.07	193.53
190.29	-17.41
190.509	-17.41
190.729	-5.12
190.948	154.62
191.168	277.5
191.387	7.17
191.607	76.8
191.826	109.57
192.045	9.22
192.265	-11.26
192.484	44.03
192.704	95.23
192.923	23.55
193.142	191.49
193.362	101.37
193.581	205.82
193.8	99.33
194.02	93.18
194.239	9.22
194.458	138.24
194.678	50.18
194.897	-35.84
195.116	70.65
195.335	-21.5
195.555	87.04
195.774	-33.79
195.993	46.08
196.212	-3.07
196.432	46.08
196.651	-60.42
196.87	-7.17
197.089	226.3
197.308	119.81
197.528	15.36
197.747	-13.31
197.966	35.84
198.185	121.85
198.404	-48.13
198.623	95.23
198.842	89.09
199.062	97.28
199.281	140.29
199.5	37.89
199.719	128
199.938	119.81
200.157	52.22
200.376	115.71
200.595	113.66
200.814	15.36
201.033	-44.03
201.252	121.85
201.471	97.28
201.69	9.22
201.909	19.46
202.128	70.65
202.347	23.55
202.566	80.89
202.785	-25.6
203.004	-39.94
203.223	238.59
203.442	52.22
203.661	-78.85
203.879	56.32
204.098	195.58
204.317	70.65
204.536	130.05
204.755	80.89
204.974	84.99
205.193	-33.79
205.411	105.47
205.63	95.23
205.849	70.65
206.068	58.37
206.287	-31.74
206.505	136.19
206.724	-68.61
206.943	19.46
207.162	7.17
207.381	117.76
207.599	56.32
207.818	27.65
208.037	-31.74
208.255	-7.17
208.474	29.7
208.693	-1.02
208.911	46.08
209.13	134.14
209.349	107.52
209.567	119.81
209.786	13.31
210.005	113.66
210.223	33.79
210.442	-87.04
210.661	44.03
210.879	50.18
211.098	72.7
211.316	99.33
211.535	52.22
211.753	68.61
211.972	171.01
212.191	19.46
212.409	44.03
212.628	44.03
212.846	-89.09
213.065	74.75
213.283	158.72
213.502	-13.31
213.72	76.8
213.938	-41.98
214.157	60.42
214.375	142.33
214.594	-1.02
214.812	33.79
215.031	-27.65
215.249	-17.41
215.467	113.66
215.686	52.22
215.904	33.79
216.122	74.75
216.341	103.42
216.559	11.26
216.778	44.03
216.996	105.47
217.214	23.55
217.432	89.09
217.651	-39.94
217.869	80.89
218.087	-25.6
218.306	33.79
218.524	97.28
218.742	48.13
218.96	128
219.179	-15.36
219.397	-19.46
219.615	211.96
219.833	140.29
220.051	-95.23
220.27	148.48
220.488	168.96
220.706	89.09
220.924	23.55
221.142	-5.12
221.36	148.48
221.578	87.04
221.796	52.22
222.015	46.08
222.233	-25.6
222.451	175.1
222.669	-25.6
222.887	80.89
223.105	-21.5
223.323	-7.17
223.541	-62.46
223.759	27.65
223.977	15.36
224.195	140.29
224.413	109.57
224.631	82.94
224.849	-9.22
225.067	226.3
225.285	-99.33
225.503	-31.74
225.721	-121.85
225.939	103.42
226.157	15.36
226.375	183.29
226.592	33.79
226.81	-23.55
227.028	121.85
227.246	236.54
227.464	91.13
227.682	93.18
227.9	46.08
228.117	15.36
228.335	52.22
228.553	46.08
228.771	23.55
228.989	107.52
229.206	7.17
229.424	9.22
229.642	-39.94
229.86	-66.56
230.077	144.38
230.295	117.76
230.513	148.48
230.731	115.71
230.948	136.19
231.166	142.33
231.384	15.36
231.601	-29.7
231.819	99.33
232.037	5.12
232.254	-101.37
232.472	62.46
232.689	50.18
232.907	173.05
233.125	-52.22
233.342	13.31
233.56	-13.31
233.777	-21.5
233.995	-1.02
234.213	41.98
234.43	52.22
234.648	-21.5
234.865	-50.18
235.083	37.89
235.3	105.47
235.518	35.84
235.735	99.33
235.953	29.7
236.17	58.37
236.388	44.03
236.605	58.37
236.822	91.13
237.04	56.32
237.257	21.5
237.475	-29.7
237.692	54.27
237.909	56.32
238.127	-17.41
238.344	89.09
238.562	46.08
238.779	-35.84
238.996	11.26
239.214	29.7
239.431	25.6
239.648	-23.55
239.865	21.5
240.083	109.57
240.3	-3.07
240.517	7.17
240.735	56.32
240.952	111.61
241.169	7.17
241.386	74.75
241.603	48.13
241.821	11.26
242.038	56.32
242.255	150.53
242.472	-84.99
242.689	17.41
242.907	84.99
243.124	74.75
243.341	11.26
243.558	17.41
243.775	-50.18
243.992	-13.31
244.209	58.37
244.426	148.48
244.643	46.08
244.86	-52.22
245.078	160.77
245.295	70.65
245.512	-29.7
245.729	-25.6
245.946	54.27
246.163	78.85
246.38	48.13
246.597	31.74
246.814	7.17
247.031	-19.46
247.248	89.09
247.464	183.29
247.681	5.12
247.898	21.5
248.115	171.01
248.332	17.41
248.549	117.76
248.766	162.81
248.983	72.7
249.2	111.61
249.417	132.09
249.633	-70.65
249.85	101.37
250.067	-5.12
250.284	111.61
250.501	50.18
250.717	80.89
250.934	-62.46
251.151	41.98
251.368	39.94
251.585	109.57
251.801	19.46
252.018	-46.08
252.235	91.13
252.451	-64.51
252.668	-19.46
252.885	232.44
253.102	-13.31
253.318	-29.7
253.535	-46.08
253.752	29.7
253.968	21.5
254.185	-74.75
254.401	58.37
254.618	46.08
254.835	-9.22
255.051	101.37
255.268	78.85
255.484	99.33
255.701	-19.46
255.917	11.26
256.134	3.07
256.351	31.74
256.567	25.6
256.784	50.18
257	-41.98
257.217	74.75
257.433	154.62
257.65	-29.7
257.866	136.19
258.082	-35.84
258.299	37.89
258.515	48.13
258.732	35.84
258.948	-64.51
259.165	80.89
259.381	-48.13
259.597	138.24
259.814	103.42
260.03	31.74
260.246	-3.07
260.463	125.95
260.679	121.85
260.895	46.08
261.112	17.41
261.328	-3.07
261.544	-72.7
261.761	130.05
261.977	-52.22
262.193	-52.22
262.409	93.18
262.626	-15.36
262.842	84.99
263.058	-39.94
263.274	56.32
263.49	48.13
263.707	87.04
263.923	95.23
264.139	-27.65
264.355	50.18
264.571	103.42
264.787	7.17
265.004	39.94
265.22	60.42
265.436	-5.12
265.652	-5.12
265.868	62.46
266.084	-74.75
266.3	62.46
266.516	-109.57
266.732	48.13
266.948	91.13
267.164	54.27
267.38	37.89
267.596	87.04
267.812	240.64
268.028	84.99
268.244	-74.75
268.46	76.8
268.676	19.46
268.892	74.75
269.108	-66.56
269.324	-9.22
269.54	-35.84
269.756	173.05
269.972	-91.13
270.188	11.26
270.403	5.12
270.619	70.65
270.835	82.94
271.051	35.84
271.267	-72.7
271.483	-87.04
271.698	-23.55
271.914	87.04
272.13	29.7
272.346	56.32
272.562	80.89
272.777	109.57
272.993	-50.18
273.209	15.36
273.425	117.76
273.64	-5.12
273.856	95.23
274.072	-31.74
274.287	-39.94
274.503	130.05
274.719	31.74
274.934	35.84
275.15	-101.37
275.366	39.94
275.581	44.03
275.797	29.7
276.012	66.56
276.228	1.02
276.444	35.84
276.659	64.51
276.875	1.02
277.09	3.07
277.306	-50.18
277.521	134.14
277.737	62.46
277.952	125.95
278.168	-35.84
278.383	109.57
278.599	107.52
278.814	95.23
279.03	68.61
279.245	156.67
279.461	-3.07
279.676	119.81
279.892	7.17
280.107	-13.31
280.322	-68.61
280.538	50.18
280.753	-5.12
280.969	64.51
281.184	-9.22
281.399	130.05
281.615	105.47
281.83	80.89
282.045	5.12
282.26	-41.98
282.476	84.99
282.691	74.75
282.906	58.37
283.122	62.46
283.337	-76.8
283.552	35.84
283.767	1.02
283.983	123.9
284.198	84.99
284.413	25.6
284.628	-70.65
284.843	29.7
285.058	125.95
285.274	-35.84
285.489	21.5
285.704	99.33
285.919	19.46
286.134	-21.5
286.349	56.32
286.564	-23.55
286.779	44.03
286.995	-13.31
287.21	-23.55
287.425	97.28
287.64	-11.26
287.855	58.37
288.07	-95.23
288.285	72.7
288.5	93.18
288.715	29.7
288.93	76.8
289.145	-52.22
289.36	103.42
289.575	62.46
289.79	121.85
290.004	33.79
290.219	109.57
290.434	-78.85
290.649	58.37
290.864	19.46
291.079	1.02
291.294	140.29
291.509	173.05
291.724	13.31
291.938	-19.46
292.153	13.31
292.368	-82.94
292.583	41.98
292.798	125.95
293.012	78.85
293.227	60.42
293.442	-54.27
293.657	125.95
293.871	95.23
294.086	58.37
294.301	242.68
294.516	25.6
294.73	23.55
294.945	-76.8
295.16	-1.02
295.374	164.86
295.589	62.46
295.804	-58.37
296.018	74.75
296.233	152.57
296.447	70.65
296.662	-5.12
296.877	130.05
297.091	87.04
297.306	56.32
297.52	50.18
297.735	-25.6
297.949	23.55
298.164	33.79
298.378	-23.55
298.593	5.12
298.807	-78.85
299.022	21.5
299.236	113.66
299.451	5.12
299.665	-29.7
299.88	-15.36
300.094	97.28
300.309	84.99
300.523	15.36
300.737	105.47
300.952	136.19
301.166	70.65
301.381	-89.09
301.595	48.13
301.809	54.27
302.024	-44.03
302.238	27.65
302.452	123.9
302.667	33.79
302.881	158.72
303.095	101.37
303.309	87.04
303.524	82.94
303.738	-21.5
303.952	60.42
304.166	54.27
304.381	-117.76
304.595	207.87
304.809	15.36
305.023	52.22
305.237	5.12
305.452	37.89
305.666	46.08
305.88	148.48
306.094	62.46
306.308	37.89
306.522	111.61
306.736	91.13
306.95	78.85
307.164	23.55
307.379	23.55
307.593	115.71
307.807	105.47
308.021	68.61
308.235	125.95
308.449	-175.1
308.663	60.42
308.877	236.54
309.091	9.22
309.305	123.9
309.519	-39.94
309.733	158.72
309.947	-31.74
310.161	125.95
310.374	70.65
310.588	111.61
310.802	-39.94
311.016	29.7
311.23	152.57
311.444	5.12
311.658	54.27
311.872	91.13
312.085	91.13
312.299	240.64
312.513	109.57
312.727	64.51
312.941	17.41
313.154	37.89
313.368	21.5
313.582	56.32
313.796	62.46
314.009	-7.17
314.223	134.14
314.437	31.74
314.651	93.18
314.864	-60.42
315.078	19.46
315.292	-27.65
315.505	-64.51
315.719	66.56
315.933	105.47
316.146	5.12
316.36	-5.12
316.573	113.66
316.787	54.27
317.001	58.37
317.214	-113.66
317.428	31.74
317.641	7.17
317.855	-29.7
318.068	37.89
318.282	62.46
318.495	136.19
318.709	11.26
318.922	-19.46
319.136	154.62
319.349	76.8
319.563	5.12
319.776	9.22
319.99	-1.02
320.203	97.28
320.417	101.37
320.63	46.08
320.843	199.68
321.057	-46.08
321.27	11.26
321.483	70.65
321.697	123.9
321.91	50.18
322.124	41.98
322.337	48.13
322.55	19.46
322.763	68.61
322.977	-29.7
323.19	-58.37
323.403	17.41
323.617	35.84
323.83	134.14
324.043	1.02
324.256	60.42
324.469	-162.81
324.683	132.09
324.896	-58.37
325.109	11.26
325.322	-105.47
325.535	125.95
325.748	148.48
325.962	62.46
326.175	23.55
326.388	52.22
326.601	162.81
326.814	33.79
327.027	50.18
327.24	146.43
327.453	19.46
327.666	89.09
327.879	111.61
328.092	74.75
328.305	27.65
328.518	-3.07
328.731	-31.74
328.944	11.26
329.157	56.32
329.37	-50.18
329.583	193.53
329.796	89.09
330.009	13.31
330.222	99.33
330.435	68.61
330.648	54.27
330.861	72.7
331.073	11.26
331.286	144.38
331.499	-1.02
331.712	-9.22
331.925	3.07
332.138	54.27
332.35	95.23
332.563	-15.36
332.776	97.28
332.989	-27.65
333.202	-15.36
333.414	80.89
333.627	11.26
333.84	5.12
334.053	-5.12
334.265	-23.55
334.478	5.12
334.691	13.31
334.903	-11.26
335.116	-35.84
335.329	66.56
335.541	37.89
335.754	115.71
335.966	1.02
336.179	29.7
336.392	17.41
336.604	54.27
336.817	136.19
337.029	76.8
337.242	23.55
337.454	125.95
337.667	19.46
337.88	117.76
338.092	-44.03
338.305	-15.36
338.517	-27.65
338.729	39.94
338.942	74.75
339.154	-3.07
339.367	46.08
339.579	91.13
339.792	-54.27
340.004	87.04
340.217	11.26
340.429	84.99
340.641	-46.08
340.854	-29.7
341.066	-1.02
341.278	109.57
341.491	142.33
341.703	62.46
341.915	7.17
342.128	130.05
342.34	-23.55
342.552	-1.02
342.764	74.75
342.977	74.75
343.189	44.03
343.401	95.23
343.613	-13.31
343.826	-1.02
344.038	-58.37
344.25	87.04
344.462	21.5
344.674	89.09
344.886	56.32
345.099	62.46
345.311	13.31
345.523	-74.75
345.735	-41.98
345.947	9.22
346.159	68.61
346.371	111.61
346.583	44.03
346.795	168.96
347.007	21.5
347.219	23.55
347.431	66.56
347.643	162.81
347.855	-17.41
348.067	97.28
348.279	-58.37
348.491	37.89
348.703	17.41
348.915	-46.08
349.127	-46.08
349.339	-3.07
349.551	-46.08
349.763	95.23
349.975	48.13
350.187	152.57
350.399	158.72
350.61	125.95
350.822	50.18
351.034	105.47
351.246	25.6
351.458	50.18
351.669	117.76
351.881	9.22
352.093	121.85
352.305	82.94
352.517	9.22
352.728	205.82
352.94	50.18
353.152	64.51
353.363	31.74
353.575	29.7
353.787	150.53
353.999	111.61
354.21	173.05
354.422	-1.02
354.633	66.56
354.845	3.07
355.057	23.55
355.268	41.98
355.48	41.98
355.692	-99.33
355.903	27.65
356.115	3.07
356.326	-121.85
356.538	146.43
356.749	152.57
356.961	160.77
357.172	9.22
357.384	-5.12
357.595	226.3
357.807	29.7
358.018	19.46
358.23	48.13
358.441	136.19
358.653	123.9
358.864	23.55
359.075	-13.31
359.287	41.98
359.498	175.1
359.709	105.47
359.921	1.02
360.132	44.03
360.344	72.7
360.555	15.36
360.766	78.85
360.977	-48.13
361.189	97.28
361.4	48.13
361.611	105.47
361.823	109.57
362.034	39.94
362.245	-97.28
362.456	93.18
362.667	125.95
362.879	-50.18
363.09	33.79
363.301	60.42
363.512	33.79
363.723	37.89
363.935	-1.02
364.146	91.13
364.357	-39.94
364.568	44.03
364.779	-109.57
364.99	193.53
365.201	-70.65
365.412	95.23
365.623	-84.99
365.834	54.27
366.045	72.7
366.256	107.52
366.467	93.18
366.678	15.36
366.889	21.5
367.1	27.65
367.311	93.18
367.522	-44.03
367.733	72.7
367.944	109.57
368.155	-7.17
368.366	70.65
368.577	33.79
368.788	107.52
368.999	-56.32
369.209	39.94
369.42	224.25
369.631	250.88
369.842	50.18
370.053	7.17
370.264	82.94
370.474	-25.6
370.685	29.7
370.896	119.81
371.107	95.23
371.317	54.27
371.528	44.03
371.739	154.62
371.95	105.47
372.16	109.57
372.371	-39.94
372.582	-21.5
372.792	103.42
373.003	19.46
373.214	105.47
373.424	9.22
373.635	3.07
373.846	95.23
374.056	19.46
374.267	101.37
374.477	70.65
374.688	-19.46
374.898	9.22
375.109	1.02
375.319	-25.6
375.53	64.51
375.74	91.13
375.951	17.41
376.161	82.94
376.372	68.61
376.582	13.31
376.793	29.7
377.003	37.89
377.214	-39.94
377.424	17.41
377.635	-5.12
377.845	-64.51
378.055	160.77
378.266	-89.09
378.476	97.28
378.686	121.85
378.897	-13.31
379.107	66.56
379.317	93.18
379.528	-5.12
379.738	46.08
379.948	-84.99
380.158	50.18
380.369	50.18
380.579	140.29
380.789	41.98
380.999	162.81
381.21	84.99
381.42	78.85
381.63	33.79
381.84	48.13
382.05	5.12
382.261	107.52
382.471	93.18
382.681	-19.46
382.891	136.19
383.101	95.23
383.311	9.22
383.521	-15.36
383.731	107.52
383.941	48.13
384.151	31.74
384.361	-41.98
384.571	89.09
384.781	3.07
384.991	199.68
385.201	238.59
385.411	54.27
385.621	121.85
385.831	50.18
386.041	-35.84
386.251	68.61
386.461	68.61
386.671	5.12
386.881	97.28
387.091	7.17
387.301	101.37
387.511	64.51
387.72	41.98
387.93	80.89
388.14	-48.13
388.35	82.94
388.56	152.57
388.769	140.29
388.979	66.56
389.189	-101.37
389.399	48.13
389.609	99.33
389.818	84.99
390.028	50.18
390.238	78.85
390.447	-27.65
390.657	109.57
390.867	64.51
391.076	-76.8
391.286	91.13
391.496	-1.02
391.705	5.12
391.915	154.62
392.125	62.46
392.334	29.7
392.544	64.51
392.753	33.79
392.963	-23.55
393.172	29.7
393.382	-39.94
393.591	224.25
393.801	-23.55
394.01	222.2
394.22	50.18
394.429	-7.17
394.639	35.84
394.848	48.13
395.058	70.65
395.267	-21.5
395.477	160.77
395.686	50.18
395.895	265.21
396.105	171.01
396.314	117.76
396.524	103.42
396.733	33.79
396.942	146.43
397.152	68.61
397.361	50.18
397.57	23.55
397.78	33.79
397.989	74.75
398.198	164.86
398.407	52.22
398.617	78.85
398.826	89.09
399.035	119.81
399.244	144.38
399.453	115.71
399.663	27.65
399.872	13.31
400.081	-35.84
400.29	39.94
400.499	-11.26
400.708	134.14
400.917	27.65
401.127	41.98
401.336	11.26
401.545	230.4
401.754	48.13
401.963	62.46
402.172	3.07
402.381	27.65
402.59	46.08
402.799	-7.17
403.008	76.8
403.217	21.5
403.426	70.65
403.635	-37.89
403.844	-5.12
404.053	21.5
404.262	31.74
404.471	197.63
404.68	44.03
404.888	-44.03
405.097	1.02
405.306	62.46
405.515	173.05
405.724	82.94
405.933	62.46
406.142	160.77
406.35	173.05
406.559	50.18
406.768	-5.12
406.977	123.9
407.185	82.94
407.394	101.37
407.603	-41.98
407.812	74.75
408.02	105.47
408.229	27.65
408.438	-9.22
408.646	-156.67
408.855	37.89
409.064	1.02
409.272	-23.55
409.481	89.09
409.69	-3.07
409.898	-109.57
410.107	52.22
410.315	103.42
410.524	-39.94
410.733	115.71
410.941	78.85
411.15	52.22
411.358	48.13
411.567	56.32
411.775	7.17
411.984	58.37
412.192	19.46
412.401	54.27
412.609	140.29
412.818	144.38
413.026	66.56
413.234	-41.98
413.443	19.46
413.651	-3.07
413.86	60.42
414.068	138.24
414.276	76.8
414.485	7.17
414.693	187.39
414.901	144.38
415.11	128
415.318	13.31
415.526	136.19
415.734	70.65
415.943	56.32
416.151	60.42
416.359	-35.84
416.567	82.94
416.776	107.52
416.984	33.79
417.192	109.57
417.4	-1.02
417.608	7.17
417.817	-31.74
418.025	54.27
418.233	123.9
418.441	17.41
418.649	-82.94
418.857	17.41
419.065	117.76
419.273	1.02
419.481	29.7
419.689	17.41
419.897	-39.94
420.105	-29.7
420.313	171.01
420.521	134.14
420.729	195.58
420.937	-11.26
421.145	-23.55
421.353	115.71
421.561	177.15
421.769	121.85
421.977	-17.41
422.185	27.65
422.393	17.41
422.601	44.03
422.809	78.85
423.017	60.42
423.224	50.18
423.432	76.8
423.64	11.26
423.848	111.61
424.056	13.31
424.263	142.33
424.471	68.61
424.679	148.48
424.887	-60.42
425.094	111.61
425.302	76.8
425.51	44.03
425.718	91.13
425.925	105.47
426.133	-44.03
426.341	136.19
426.548	87.04
426.756	1.02
426.964	158.72
427.171	21.5
427.379	58.37
427.586	46.08
427.794	134.14
428.001	123.9
428.209	25.6
428.417	164.86
428.624	60.42
428.832	140.29
429.039	-1.02
429.247	50.18
429.454	48.13
429.662	156.67
429.869	152.57
430.076	29.7
430.284	146.43
430.491	211.96
430.699	60.42
430.906	132.09
431.114	113.66
431.321	66.56
431.528	37.89
431.736	101.37
431.943	113.66
432.15	158.72
432.358	183.29
432.565	254.97
432.772	-21.5
432.979	185.34
433.187	121.85
433.394	175.1
433.601	72.7
433.808	154.62
434.016	154.62
434.223	148.48
434.43	216.06
434.637	189.44
434.844	181.25
435.052	187.39
435.259	207.87
435.466	205.82
435.673	232.44
435.88	140.29
436.087	218.11
436.294	261.12
436.501	257.02
436.708	173.05
436.915	152.57
437.122	330.75
437.329	183.29
437.537	205.82
437.743	183.29
437.95	359.42
438.157	275.45
438.364	230.4
438.571	287.74
438.778	220.16
438.985	314.36
439.192	291.84
439.399	330.75
439.606	371.71
439.813	351.23
440.02	435.19
440.227	515.06
440.433	547.83
440.64	336.89
440.847	340.99
441.054	388.09
441.261	498.68
441.467	383.99
441.674	410.62
441.881	457.72
442.088	361.47
442.294	558.07
442.501	523.26
442.708	599.03
442.914	527.35
443.121	543.74
443.328	596.98
443.534	656.37
443.741	537.59
443.948	586.74
444.154	648.18
444.361	883.7
444.568	689.14
444.774	703.48
444.981	660.47
445.187	820.21
445.394	709.62
445.6	752.63
445.807	869.36
446.013	979.95
446.22	949.23
446.426	988.14
446.633	986.1
446.839	1096.69
447.046	920.56
447.252	1194.99
447.459	1162.22
447.665	1168.37
447.871	1285.1
448.078	1252.33
448.284	1367.02
448.491	1375.21
448.697	1567.72
448.903	1471.47
449.11	1414.12
449.316	1450.99
449.522	1698.79
449.728	1721.32
449.935	1694.69
450.141	1801.19
450.347	1930.21
450.553	1838.05
450.76	1903.59
450.966	2016.23
451.172	2137.06
451.378	2184.16
451.584	2218.97
451.791	2300.89
451.997	2434.01
452.203	2579.42
452.409	2595.8
452.615	2780.12
452.821	2671.58
453.027	2638.81
453.233	2980.82
453.44	2968.53
453.646	3036.11
453.852	3277.77
454.058	3277.77
454.264	3351.5
454.47	3552.2
454.676	3601.35
454.882	3990.47
455.088	3879.88
455.294	3994.56
455.5	4242.37
455.705	4496.32
455.911	4451.26
456.117	4445.12
456.323	4826.04
456.529	4897.72
456.735	5192.62
456.941	5456.81
457.147	5827.5
457.352	5827.5
457.558	5893.03
457.764	6355.87
457.97	6394.78
458.176	6581.15
458.381	7150.48
458.587	7140.24
458.793	7510.93
458.999	7443.34
459.204	8328.06
459.41	8684.41
459.616	8559.49
459.821	8975.22
460.027	9259.89
460.233	9853.8
460.438	9851.75
460.644	10505.06
460.85	10593.12
461.055	11078.49
461.261	11686.73
461.466	11354.96
461.672	11350.87
461.878	12755.77
462.083	12567.36
462.289	12839.74
462.494	13589.3
462.7	13685.55
462.905	13785.9
463.111	14924.57
463.316	15575.83
463.522	15868.69
463.727	16698.11
463.932	17163
464.138	17599.22
464.343	18572
464.549	18834.14
464.754	19991.25
464.959	20366.03
465.165	20806.34
465.37	20433.61
465.575	20636.36
465.781	21902
465.986	22577.83
466.191	22162.09
466.397	22182.57
466.602	21844.66
466.807	23378.59
467.012	23671.45
467.218	23935.63
467.423	23960.21
467.628	24900.23
467.833	25946.74
468.038	25518.71
468.244	24619.66
468.449	26161.78
468.654	25531
468.859	25746.04
469.064	25879.16
469.269	25100.93
469.474	25342.59
469.679	26344.05
469.885	25461.37
470.09	25545.34
470.295	26098.29
470.5	25131.65
470.705	25467.52
470.91	24957.57
471.115	24787.59
471.32	24935.04
471.525	24765.06
471.73	24128.14
471.935	23861.91
472.139	22837.92
472.344	23012
472.549	22921.89
472.754	22430.38
472.959	22026.93
473.164	21314.23
473.369	20978.37
473.574	21568.18
473.778	21263.04
473.983	20341.45
474.188	20046.54
474.393	19196.64
474.598	19155.68
474.802	18957.02
475.007	18518.76
475.212	18639.59
475.417	17541.88
475.621	17480.44
475.826	17222.39
476.031	16837.38
476.235	16589.57
476.44	16724.74
476.645	16251.66
476.849	16239.37
477.054	15573.78
477.259	15100.7
477.463	15541.01
477.668	14887.71
477.872	14910.24
478.077	14361.38
478.282	14109.48
478.486	14156.58
478.691	13708.08
478.895	13783.85
479.1	13818.67
479.304	13497.14
479.509	13024.06
479.713	13372.21
479.918	13036.35
480.122	12587.84
480.326	12770.11
480.531	12542.78
480.735	12628.8
480.94	12170.05
481.144	12763.97
481.348	12053.32
481.553	12079.94
481.757	11973.45
481.961	11858.76
482.166	12090.18
482.37	11926.35
482.574	11572.05
482.778	11750.22
482.983	11811.66
483.187	11645.77
483.391	11627.34
483.595	11203.41
483.8	11232.08
484.004	11094.87
484.208	11015
484.412	10959.7
484.616	10988.38
484.821	10697.56
485.025	10316.64
485.229	10507.1
485.433	10380.13
485.637	10279.78
485.841	9974.63
486.045	9970.54
486.249	9767.79
486.453	9378.67
486.657	9300.85
486.861	9352.05
487.065	9028.47
487.269	9100.15
487.473	8694.65
487.677	8838.01
487.881	8995.7
488.085	8342.4
488.289	8649.6
488.493	8264.58
488.697	8223.62
488.901	8012.68
489.105	7861.13
489.309	7588.75
489.512	7705.48
489.716	7404.43
489.92	7375.76
490.124	7238.55
490.328	7250.83
490.531	6923.16
490.735	6912.92
490.939	6718.36
491.143	6427.55
491.346	6521.76
491.55	6476.7
491.754	6312.86
491.958	6202.27
492.161	6230.94
492.365	5919.65
492.569	5989.28
492.772	5766.06
492.976	5731.24
493.18	5659.56
493.383	5618.6
493.587	5387.18
493.79	5583.79
493.994	5307.31
494.197	5331.89
494.401	5325.74
494.605	5249.97
494.808	5233.58
495.012	5233.58
495.215	5198.77
495.419	5258.16
495.622	5143.47
495.825	4963.25
496.029	4850.61
496.232	5114.8
496.436	4979.64
496.639	4998.07
496.843	4928.44
497.046	4953.01
497.249	5043.12
497.453	5090.23
497.656	4973.49
497.859	4830.13
498.063	5059.51
498.266	4942.77
498.469	4852.66
498.673	4957.11
498.876	5073.84
499.079	4930.48
499.282	4889.53
499.485	5292.98
499.689	5204.91
499.892	5282.74
500.095	5184.43
500.298	5233.58
500.501	4944.82
500.705	5161.91
500.908	5338.03
501.111	5401.52
501.314	5407.66
501.517	5557.16
501.72	5413.81
501.923	5495.72
502.126	5436.33
502.329	5768.1
502.532	5702.57
502.735	5819.3
502.938	6017.96
503.141	5905.32
503.344	5858.21
503.547	6159.27
503.75	6087.59
503.953	6118.31
504.156	6443.93
504.359	6323.1
504.562	6292.38
504.765	6771.61
504.968	6644.63
505.17	6802.33
505.373	6800.28
505.576	6984.6
505.779	7080.85
505.982	7177.11
506.185	7265.17
506.387	7433.1
506.59	7336.85
506.793	7748.49
506.996	7644.04
507.198	8156.04
507.401	8176.52
507.604	8010.63
507.807	8573.82
508.009	8715.13
508.212	8835.96
508.415	8786.81
508.617	9034.61
508.82	9161.59
509.022	9368.43
509.225	9433.97
509.428	9894.76
509.63	10072.93
509.833	10185.57
510.035	10632.03
510.238	10546.02
510.44	10953.56
510.643	11199.32
510.845	11463.51
511.048	11547.47
511.25	11864.91
511.453	12081.99
511.655	12589.89
511.858	12837.69
512.06	12985.15
512.262	13038.39
512.465	13265.72
512.667	13812.53
512.87	14132.01
513.072	14594.85
513.274	14768.93
513.477	15082.27
513.679	15569.68
513.881	16003.85
514.084	16378.63
514.286	16499.46
514.488	16833.28
514.69	17437.43
514.893	17591.03
515.095	17887.98
515.297	18301.67
515.499	19059.42
515.701	18971.36
515.904	19473.11
516.106	20388.55
516.308	20464.33
516.51	20957.89
516.712	21334.71
516.914	21945.01
517.116	22278.83
517.318	22733.48
517.52	22923.94
517.722	23239.33
517.925	23906.96
518.127	24519.31
518.329	24773.25
518.531	24865.41
518.733	25635.45
518.935	25760.37
519.136	26485.36
519.338	27103.84
519.54	27847.26
519.742	27888.21
519.944	28027.48
520.146	29078.08
520.348	29235.78
520.55	29522.49
520.752	29813.31
520.954	30769.71
521.155	30732.84
521.357	31580.7
521.559	31504.93
521.761	32197.14
521.963	32041.5
522.164	32946.7
522.366	33047.05
522.568	33468.93
522.77	33423.87
522.971	33866.24
523.173	33999.35
523.375	34228.73
523.576	34505.2
523.778	34666.99
523.98	35062.25
524.181	34771.44
524.383	35017.19
524.584	35635.68
524.786	35776.99
524.988	35381.73
525.189	35781.09
525.391	35973.6
525.592	36090.33
525.794	35875.29
525.995	35832.29
526.197	36004.31
526.398	36102.62
526.6	35930.59
526.801	36100.57
527.003	35908.06
527.204	35760.61
527.406	36108.76
527.607	35881.44
527.808	35877.34
528.01	35201.51
528.211	35629.54
528.412	35516.9
528.614	34994.67
528.815	34458.1
529.016	34929.13
529.218	34245.11
529.419	34376.18
529.62	33942.01
529.822	33616.38
530.023	33298.95
530.224	33063.43
530.425	32762.38
530.626	32035.35
530.828	31584.8
531.029	31795.74
531.23	31580.7
531.431	30915.11
531.632	30992.94
531.833	30413.36
532.035	30341.68
532.236	29825.59
532.437	29600.32
532.638	29102.66
532.839	28826.18
533.04	28666.44
533.241	27789.91
533.442	28138.07
533.643	27343.45
533.844	27269.73
534.045	26573.42
534.246	26346.09
534.447	26106.48
534.648	25502.33
534.849	25453.18
535.05	24994.43
535.251	24580.74
535.451	24527.5
535.652	24117.9
535.853	23468.7
536.054	23480.99
536.255	23153.31
536.456	22612.65
536.657	22805.16
536.857	22235.82
537.058	21877.43
537.259	21709.49
537.46	21506.74
537.66	21004.99
537.861	21095.1
538.062	20581.06
538.263	20157.13
538.463	19903.18
538.664	19772.11
538.865	19415.77
539.065	19684.05
539.266	18727.65
539.466	18952.93
539.667	18578.15
539.868	18598.63
540.068	18082.54
540.269	17865.46
540.469	17873.65
540.67	17470.2
540.87	17249.02
541.071	17134.33
541.271	17058.56
541.472	16634.63
541.672	16694.02
541.873	16343.81
542.073	16077.58
542.274	16192.26
542.474	15911.69
542.675	15362.84
542.875	15383.32
543.075	15297.3
543.276	14965.53
543.476	15258.39
543.676	14906.14
543.877	14773.02
544.077	14662.43
544.277	14662.43
544.478	14121.77
544.678	13949.74
544.878	13773.61
545.078	13734.7
545.279	13441.84
545.479	13329.2
545.679	13140.79
545.879	13069.11
546.079	13036.35
546.28	12772.16
546.48	12620.61
546.68	12438.34
546.88	12442.43
547.08	12213.06
547.28	12180.29
547.48	11725.65
547.68	11787.08
547.88	11541.33
548.081	11451.22
548.281	11508.56
548.481	11209.56
548.681	11105.11
548.881	10986.33
549.081	10779.48
549.28	10589.02
549.48	10462.05
549.68	10593.12
549.88	10249.06
550.08	9970.54
550.28	9876.33
550.48	9833.32
550.68	9759.6
550.88	9661.29
551.08	9343.86
551.279	9511.79
551.479	8936.31
551.679	8989.56
551.879	8838.01
552.079	8934.26
552.278	8571.77
552.478	8586.11
552.678	8432.51
552.878	8405.89
553.077	8108.93
553.277	7834.5
553.477	8014.73
553.676	7795.59
553.876	7719.82
554.076	7709.58
554.275	7472.01
554.475	7420.81
554.674	7263.12
554.874	7136.15
555.074	6990.74
555.273	6826.9
555.473	6751.13
555.672	6552.48
555.872	6491.04
556.071	6435.74
556.271	6488.99
556.47	6228.9
556.67	5954.47
556.869	5944.23
557.068	6063.01
557.268	5829.54
557.467	5741.48
557.667	5759.91
557.866	5424.05
558.065	5428.14
558.265	5356.46
558.464	5209.01
558.663	5235.63
558.863	5118.9
559.062	4973.49
559.261	4987.83
559.461	4793.27
559.66	4774.84
559.859	4731.83
560.058	4627.39
560.258	4670.39
560.457	4504.51
560.656	4565.95
560.855	4447.16
561.054	4381.63
561.253	4234.18
561.453	4152.26
561.652	3873.73
561.851	4094.91
562.05	3982.28
562.249	3779.53
562.448	3896.26
562.647	3580.87
562.846	3701.7
563.045	3613.64
563.244	3501
563.443	3638.22
563.642	3480.52
563.841	3314.64
564.04	3419.08
564.239	3265.49
564.438	3269.58
564.637	3165.14
564.836	3167.18
565.035	3124.18
565.234	3019.73
565.432	3044.31
565.631	2986.96
565.83	2989.01
566.029	2900.95
566.228	2886.61
566.427	2888.66
566.625	2661.34
566.824	2892.76
567.023	2661.34
567.222	2665.43
567.42	2556.89
567.619	2530.27
567.818	2538.46
568.016	2704.34
568.215	2399.2
568.414	2493.4
568.612	2425.82
568.811	2407.39
569.01	2372.57
569.208	2132.96
569.407	2329.56
569.605	2292.7
569.804	2116.58
570.002	2163.68
570.201	2063.33
570.4	2114.53
570.598	2044.9
570.797	1917.92
570.995	1901.54
571.193	2034.66
571.392	2051.04
571.59	1889.25
571.789	1879.01
571.987	1913.83
572.186	1911.78
572.384	1766.37
572.582	1756.13
572.781	1909.73
572.979	1565.67
573.177	1635.3
573.376	1719.27
573.574	1762.28
573.772	1627.11
573.971	1500.14
574.169	1493.99
574.367	1575.91
574.565	1461.23
574.763	1407.98
574.962	1577.96
575.16	1467.37
575.358	1356.78
575.556	1442.79
575.754	1405.93
575.952	1369.07
576.151	1309.68
576.349	1385.45
576.547	1182.7
576.745	1256.43
576.943	1258.48
577.141	1172.46
577.339	1070.06
577.537	1164.27
577.735	1192.94
577.933	1190.89
578.131	1018.86
578.329	1203.18
578.527	1100.78
578.725	1063.92
578.923	887.79
579.121	1014.77
579.319	959.47
579.516	1041.39
579.714	1268.72
579.912	1006.58
580.11	861.17
580.308	881.65
580.506	955.38
580.704	775.16
580.901	719.86
581.099	914.42
581.297	799.73
581.495	836.6
581.692	832.5
581.89	936.95
582.088	836.6
582.285	752.63
582.483	728.05
582.681	705.53
582.878	777.2
583.076	840.69
583.274	762.87
583.471	875.51
583.669	715.77
583.866	711.67
584.064	730.1
584.262	627.7
584.459	586.74
584.657	717.81
584.854	631.8
585.052	707.57
585.249	691.19
585.447	611.32
585.644	537.59
585.841	717.81
586.039	517.11
586.236	676.85
586.434	623.61
586.631	529.4
586.828	472.06
587.026	580.6
587.223	480.25
587.42	459.77
587.618	541.69
587.815	617.46
588.012	470.01
588.21	521.21
588.407	603.13
588.604	596.98
588.801	394.23
588.999	478.2
589.196	619.51
589.393	508.92
589.59	513.02
589.787	502.78
589.984	529.4
590.182	470.01
590.379	420.86
590.576	531.45
590.773	472.06
590.97	457.72
591.167	486.39
591.364	414.71
591.561	467.96
591.758	560.12
591.955	463.86
592.152	513.02
592.349	402.43
592.546	437.24
592.743	517.11
592.94	400.38
593.137	461.82
593.334	504.82
593.531	523.26
593.727	457.72
593.924	580.6
594.121	506.87
594.318	429.05
594.515	459.77
594.712	537.59
594.908	484.34
595.105	416.76
595.302	506.87
595.499	459.77
595.696	592.89
595.892	470.01
596.089	586.74
596.286	439.29
596.482	541.69
596.679	611.32
596.876	472.06
597.072	578.55
597.269	549.88
597.466	617.46
597.662	584.7
597.859	621.56
598.055	650.23
598.252	693.24
598.448	750.58
598.645	697.33
598.841	809.97
599.038	906.23
599.234	916.47
599.431	828.4
599.627	926.71
599.824	875.51
600.02	922.61
600.217	873.46
600.413	943.09
600.609	975.86
600.806	1258.48
601.002	1094.64
601.198	1037.3
601.395	1160.17
601.591	1272.81
601.787	1270.76
601.984	1225.71
602.18	1424.36
602.376	1334.25
602.572	1512.42
602.769	1559.53
602.965	1412.07
603.161	1625.06
603.357	1706.98
603.553	1795.04
603.75	1688.55
603.946	1819.62
604.142	1926.11
604.338	2089.95
604.534	1956.83
604.73	2034.66
604.926	2094.05
605.122	2180.06
605.318	2161.63
605.514	2368.48
605.71	2345.95
605.906	2522.07
606.102	2544.6
606.298	2614.23
606.494	2724.82
606.69	2786.26
606.886	2802.65
607.082	2851.8
607.278	2870.23
607.474	2911.19
607.67	3169.23
607.866	3140.56
608.062	3408.84
608.257	3464.14
608.453	3400.65
608.649	3591.11
608.845	3582.92
609.041	3691.46
609.236	4066.24
609.432	3838.92
609.628	4205.5
609.824	4359.1
610.019	4152.26
610.215	4324.29
610.411	4645.82
610.606	4787.13
610.802	4815.8
610.998	4957.11
611.193	5104.56
611.389	5039.03
611.584	5131.19
611.78	5391.28
611.976	5383.09
612.171	5876.65
612.367	5798.82
612.562	6067.11
612.758	6054.82
612.953	6218.66
613.149	6507.42
613.344	6532
613.539	6740.89
613.735	7244.69
613.93	7148.43
614.126	7371.66
614.321	7433.1
614.517	7848.84
614.712	8018.82
614.907	8332.16
615.103	8391.55
615.298	8487.81
615.493	8676.22
615.688	8928.12
615.884	9286.51
616.079	9442.16
616.274	9626.48
616.47	9849.71
616.665	9997.16
616.86	10382.18
617.055	10658.65
617.25	10662.75
617.445	11131.73
617.641	11127.64
617.836	11590.48
618.031	11754.32
618.226	12061.51
618.421	12510.02
618.616	12866.36
618.811	12825.4
619.006	13368.12
619.201	13417.27
619.396	13996.84
619.591	14152.49
619.786	14388
619.981	14707.49
620.176	15209.24
620.371	15414.04
620.566	15958.8
620.761	16143.11
620.956	16673.54
621.151	16466.69
621.346	17187.58
621.541	17171.19
621.735	17853.17
621.93	17728.24
622.125	18412.26
622.32	18449.13
622.515	19153.63
622.709	19280.6
622.904	19682
623.099	19854.03
623.294	20134.6
623.488	20390.6
623.683	21361.34
623.878	21082.81
624.072	21664.44
624.267	22121.13
624.462	22694.57
624.656	22463.15
624.851	23333.53
625.046	23483.03
625.24	23607.96
625.435	23763.61
625.629	24480.39
625.824	24748.68
626.018	24965.76
626.213	24941.19
626.407	25950.84
626.602	25543.29
626.796	25932.4
626.991	26475.12
627.185	26559.08
627.38	26653.29
627.574	26915.43
627.768	26767.98
627.963	27202.14
628.157	27243.1
628.352	27517.53
628.546	26987.11
628.74	27609.69
628.935	26960.48
629.129	27447.9
629.323	26897
629.517	27112.03
629.712	27058.79
629.906	26919.53
630.1	26362.48
630.294	26550.89
630.489	25764.47
630.683	25688.7
630.877	24939.14
631.071	25223.81
631.265	24650.38
631.459	24375.95
631.653	23515.8
631.848	23222.94
632.042	22268.59
632.236	21981.87
632.43	21646.01
632.624	20970.18
632.818	20136.65
633.012	19479.25
633.206	18860.77
633.4	18567.91
633.594	17597.17
633.788	17365.75
633.982	16831.23
634.176	16175.88
634.369	15622.93
634.563	14861.09
634.757	14150.44
634.951	13869.87
635.145	13308.72
635.339	12825.4
635.533	12202.82
635.726	11844.43
635.92	11309.91
636.114	10834.78
636.308	10347.36
636.501	10097.51
636.695	9610.09
636.889	8850.3
637.083	8694.65
637.276	8434.56
637.47	8096.64
637.664	7758.73
637.857	7699.34
638.051	7109.52
638.244	6874.01
638.438	6540.19
638.632	6630.3
638.825	5997.48
639.019	5913.51
639.212	5616.55
639.406	5448.62
639.599	5108.66
639.793	4979.64
639.986	4684.73
640.18	4721.59
640.373	4453.31
640.567	4303.81
640.76	4123.59
640.954	4084.67
641.147	3804.1
641.34	3576.78
641.534	3515.34
641.727	3494.86
641.92	3288.01
642.114	3185.62
642.307	2884.56
642.5	2968.53
642.694	2782.17
642.887	2773.97
643.08	2747.35
643.273	2534.36
643.467	2294.75
643.66	2204.64
643.853	1989.6
644.046	2255.84
644.239	2008.03
644.432	1883.11
644.626	1819.62
644.819	1874.92
645.012	1770.47
645.205	1799.14
645.398	1758.18
645.591	1594.34
645.784	1471.47
645.977	1414.12
646.17	1483.75
646.363	1338.35
646.556	1197.04
646.749	1217.52
646.942	1268.72
647.135	1190.89
647.328	1061.87
647.521	1002.48
647.714	1027.06
647.907	1045.49
648.099	994.29
648.292	996.34
648.485	943.09
648.678	844.79
648.871	824.31
649.064	728.05
649.256	666.61
649.449	676.85
649.642	594.93
649.835	644.09
650.027	584.7
650.22	709.62
650.413	609.27
650.605	586.74
650.798	580.6
650.991	492.54
651.183	500.73
651.376	529.4
651.568	558.07
651.761	414.71
651.954	510.97
652.146	449.53
652.339	570.36
652.531	551.93
652.724	343.03
652.916	412.67
653.109	277.5
653.301	422.91
653.494	451.58
653.686	398.33
653.879	525.3
654.071	396.28
654.263	320.51
654.456	322.56
654.648	427
654.84	357.37
655.033	302.08
655.225	513.02
655.417	197.63
655.61	340.99
655.802	242.68
655.994	412.67
656.186	158.72
656.379	353.27
656.571	148.48
656.763	271.36
656.955	144.38
657.148	218.11
657.34	369.66
657.532	175.1
657.724	150.53
657.916	185.34
658.108	289.79
658.3	273.4
658.492	156.67
658.684	191.49
658.876	216.06
659.068	142.33
659.26	138.24
659.452	107.52
659.644	269.31
659.836	359.42
660.028	166.91
660.22	66.56
660.412	207.87
660.604	205.82
660.796	177.15
660.988	269.31
661.18	138.24
661.372	199.68
661.563	128
661.755	214.01
661.947	154.62
662.139	91.13
662.331	146.43
662.522	107.52
662.714	74.75
662.906	125.95
663.097	156.67
663.289	66.56
663.481	-9.22
663.673	121.85
663.864	158.72
664.056	226.3
664.247	54.27
664.439	183.29
664.631	183.29
664.822	166.91
665.014	93.18
665.205	60.42
665.397	111.61
665.588	138.24
665.78	138.24
665.971	138.24
666.163	136.19
666.354	154.62
666.546	99.33
666.737	117.76
666.929	35.84
667.12	48.13
667.311	179.2
667.503	111.61
667.694	123.9
667.885	175.1
668.077	154.62
668.268	33.79
668.459	78.85
668.651	125.95
668.842	179.2
669.033	52.22
669.224	60.42
669.416	218.11
669.607	134.14
669.798	115.71
669.989	236.54
670.18	117.76
670.371	164.86
670.563	25.6
670.754	134.14
670.945	226.3
671.136	154.62
671.327	82.94
671.518	211.96
671.709	232.44
671.9	183.29
672.091	177.15
672.282	48.13
672.473	125.95
672.664	41.98
672.855	168.96
673.046	66.56
673.237	183.29
673.428	80.89
673.619	150.53
673.809	109.57
674	267.26
674.191	218.11
674.382	89.09
674.573	142.33
674.764	130.05
674.954	193.53
675.145	50.18
675.336	37.89
675.527	44.03
675.717	89.09
675.908	62.46
676.099	87.04
676.289	150.53
676.48	80.89
676.671	93.18
676.861	66.56
677.052	93.18
677.243	158.72
677.433	146.43
677.624	130.05
677.814	80.89
678.005	130.05
678.195	230.4
678.386	93.18
678.576	107.52
678.767	52.22
678.957	52.22
679.148	261.12
679.338	228.35
679.529	191.49
679.719	197.63
679.909	279.55
680.1	232.44
680.29	144.38
680.481	109.57
680.671	185.34
680.861	144.38
681.052	252.92
681.242	105.47
681.432	136.19
681.622	261.12
681.813	89.09
682.003	201.72
682.193	144.38
682.383	146.43
682.573	173.05
682.764	70.65
682.954	60.42
683.144	121.85
683.334	191.49
683.524	168.96
683.714	185.34
683.904	214.01
684.094	144.38
684.284	199.68
684.474	287.74
684.664	160.77
684.854	254.97
685.044	179.2
685.234	103.42
685.424	156.67
685.614	97.28
685.804	291.84
685.994	240.64
686.184	171.01
686.374	259.07
686.564	164.86
686.753	193.53
686.943	150.53
687.133	146.43
687.323	121.85
687.513	164.86
687.702	117.76
687.892	148.48
688.082	261.12
688.272	297.98
688.461	117.76
688.651	250.88
688.841	199.68
689.03	185.34
689.22	144.38
689.41	203.77
689.599	93.18
689.789	128
689.979	312.32
690.168	177.15
690.358	252.92
690.547	191.49
690.737	220.16
690.926	152.57
691.116	181.25
691.305	211.96
691.495	148.48
691.684	136.19
691.874	203.77
692.063	164.86
692.252	279.55
692.442	248.83
692.631	121.85
692.82	154.62
693.01	254.97
693.199	193.53
693.388	121.85
693.578	109.57
693.767	220.16
693.956	191.49
694.146	140.29
694.335	97.28
694.524	166.91
694.713	242.68
694.902	142.33
695.092	150.53
695.281	257.02
695.47	103.42
695.659	175.1
695.848	173.05
696.037	103.42
696.226	267.26
696.415	183.29
696.604	275.45
696.793	179.2
696.982	154.62
697.171	250.88
697.36	111.61
697.549	115.71
697.738	56.32
697.927	128
698.116	128
698.305	140.29
698.494	240.64
698.683	107.52
698.872	281.6
699.061	203.77
699.25	160.77
699.438	220.16
699.627	148.48
699.816	252.92
700.005	97.28
700.193	166.91
700.382	240.64
700.571	171.01
700.76	140.29
700.948	209.92
701.137	295.93
701.326	250.88
701.514	52.22
701.703	228.35
701.892	293.88
702.08	259.07
702.269	242.68
702.457	132.09
702.646	154.62
702.834	103.42
703.023	226.3
703.212	211.96
703.4	152.57
703.589	164.86
703.777	216.06
703.965	74.75
704.154	107.52
704.342	78.85
704.531	109.57
704.719	152.57
704.907	189.44
705.096	113.66
705.284	54.27
705.472	171.01
705.661	148.48
705.849	207.87
706.037	261.12
706.226	119.81
706.414	293.88
706.602	101.37
706.79	199.68
706.979	72.7
707.167	181.25
707.355	76.8
707.543	173.05
707.731	224.25
707.919	101.37
708.107	179.2
708.296	41.98
708.484	95.23
708.672	242.68
708.86	162.81
709.048	156.67
709.236	68.61
709.424	166.91
709.612	173.05
709.8	58.37
709.988	103.42
710.176	201.72
710.364	234.49
710.551	146.43
710.739	158.72
710.927	136.19
711.115	185.34
711.303	173.05
711.491	214.01
711.679	136.19
711.866	197.63
712.054	82.94
712.242	259.07
712.43	261.12
712.617	80.89
712.805	193.53
712.993	179.2
713.181	84.99
713.368	259.07
713.556	218.11
713.744	64.51
713.931	416.76
714.119	185.34
714.306	168.96
714.494	95.23
714.682	218.11
714.869	66.56
715.057	130.05
715.244	33.79
715.432	218.11
715.619	132.09
715.807	103.42
715.994	218.11
716.182	273.4
716.369	269.31
716.556	195.58
716.744	64.51
716.931	91.13
717.119	234.49
717.306	121.85
717.493	191.49
717.681	238.59
717.868	134.14
718.055	168.96
718.242	209.92
718.43	222.2
718.617	191.49
718.804	119.81
718.991	224.25
719.179	265.21
719.366	218.11
719.553	113.66
719.74	214.01
719.927	189.44
720.114	140.29
720.301	146.43
720.488	89.09
720.676	132.09
720.863	259.07
721.05	336.89
721.237	244.73
721.424	236.54
721.611	158.72
721.798	132.09
721.985	195.58
722.172	218.11
722.358	185.34
722.545	254.97
722.732	230.4
722.919	281.6
723.106	228.35
723.293	228.35
723.48	271.36
723.667	209.92
723.853	316.41
724.04	275.45
724.227	304.12
724.414	177.15
724.6	209.92
724.787	347.13
724.974	318.46
725.161	193.53
725.347	168.96
725.534	226.3
725.72	254.97
725.907	304.12
726.094	326.65
726.28	164.86
726.467	238.59
726.653	162.81
726.84	330.75
727.027	355.32
727.213	173.05
727.4	257.02
727.586	334.84
727.773	183.29
727.959	250.88
728.145	214.01
728.332	295.93
728.518	181.25
728.705	238.59
728.891	220.16
729.077	246.78
729.264	173.05
729.45	160.77
729.636	271.36
729.823	250.88
730.009	300.03
730.195	254.97
730.382	265.21
730.568	156.67
730.754	271.36
730.94	240.64
731.126	322.56
731.313	289.79
731.499	271.36
731.685	207.87
731.871	273.4
732.057	300.03
732.243	287.74
732.429	345.08
732.615	349.18
732.801	201.72
732.987	191.49
733.173	238.59
733.359	254.97
733.545	254.97
733.731	271.36
733.917	265.21
734.103	318.46
734.289	291.84
734.475	199.68
734.661	441.34
734.847	279.55
735.033	271.36
735.219	281.6
735.404	236.54
735.59	179.2
735.776	283.64
735.962	228.35
736.148	330.75
736.333	279.55
736.519	289.79
736.705	285.69
736.89	257.02
737.076	267.26
737.262	244.73
737.447	199.68
737.633	99.33
737.819	336.89
738.004	287.74
738.19	224.25
738.375	359.42
738.561	336.89
738.747	248.83
738.932	140.29
739.118	410.62
739.303	281.6
739.489	273.4
739.674	238.59
739.859	226.3
740.045	410.62
740.23	304.12
740.416	111.61
740.601	254.97
740.786	222.2
740.972	199.68
741.157	267.26
741.342	238.59
741.528	189.44
741.713	388.09
741.898	234.49
742.084	232.44
742.269	273.4
742.454	267.26
742.639	277.5
742.824	203.77
743.01	261.12
743.195	345.08
743.38	293.88
743.565	226.3
743.75	302.08
743.935	275.45
744.12	357.37
744.305	166.91
744.49	222.2
744.675	293.88
744.86	207.87
745.045	259.07
745.23	201.72
745.415	185.34
745.6	373.75
745.785	273.4
745.97	349.18
746.155	310.27
746.34	353.27
746.525	234.49
746.71	345.08
746.895	220.16
747.079	93.18
747.264	236.54
747.449	252.92
747.634	283.64
747.819	318.46
748.003	277.5
748.188	254.97
748.373	379.9
748.557	275.45
748.742	308.22
748.927	234.49
749.111	261.12
749.296	181.25
749.481	328.7
749.665	250.88
749.85	168.96
750.034	201.72
750.219	238.59
750.404	193.53
750.588	236.54
750.773	226.3
750.957	218.11
751.141	232.44
751.326	302.08
751.51	150.53
751.695	154.62
751.879	318.46
752.064	343.03
752.248	242.68
752.432	371.71
752.617	246.78
752.801	281.6
752.985	154.62
753.17	330.75
753.354	248.83
753.538	201.72
753.722	146.43
753.907	209.92
754.091	166.91
754.275	238.59
754.459	89.09
754.643	99.33
754.828	193.53
755.012	185.34
755.196	117.76
755.38	158.72
755.564	78.85
755.748	162.81
755.932	254.97
756.116	222.2
756.3	254.97
756.484	115.71
756.668	220.16
756.852	91.13
757.036	72.7
757.22	207.87
757.404	101.37
757.588	187.39
757.772	142.33
757.956	152.57
758.14	281.6
758.323	72.7
758.507	191.49
758.691	58.37
758.875	195.58
759.059	322.56
759.242	130.05
759.426	160.77
759.61	119.81
759.794	93.18
759.977	181.25
760.161	402.43
760.345	275.45
760.528	207.87
760.712	125.95
760.895	185.34
761.079	82.94
761.263	74.75
761.446	128
761.63	125.95
761.813	232.44
761.997	52.22
762.18	115.71
762.364	197.63
762.547	-1.02
762.731	142.33
762.914	82.94
763.098	146.43
763.281	76.8
763.464	95.23
763.648	154.62
763.831	168.96
764.015	103.42
764.198	154.62
764.381	60.42
764.564	209.92
764.748	134.14
764.931	203.77
765.114	68.61
765.297	144.38
765.481	82.94
765.664	195.58
765.847	128
766.03	148.48
766.213	-52.22
766.397	84.99
766.58	21.5
766.763	128
766.946	72.7
767.129	99.33
767.312	84.99
767.495	82.94
767.678	72.7
767.861	138.24
768.044	89.09
768.227	109.57
768.41	72.7
768.593	113.66
768.776	91.13
768.959	27.65
769.142	175.1
769.324	58.37
769.507	62.46
769.69	99.33
769.873	152.57
770.056	228.35
770.239	1.02
770.421	226.3
770.604	128
770.787	76.8
770.97	95.23
771.152	29.7
771.335	130.05
771.518	-35.84
771.7	121.85
771.883	226.3
772.066	31.74
772.248	70.65
772.431	95.23
772.613	177.15
772.796	99.33
772.978	70.65
773.161	162.81
773.343	115.71
773.526	1.02
773.708	-35.84
773.891	3.07
774.073	87.04
774.256	177.15
774.438	218.11
774.621	109.57
774.803	82.94
774.985	56.32
775.168	158.72
775.35	5.12
775.532	132.09
775.715	23.55
775.897	27.65
776.079	7.17
776.261	201.72
776.444	9.22
776.626	58.37
776.808	62.46
776.99	62.46
777.173	123.9
777.355	50.18
777.537	9.22
777.719	-25.6
777.901	52.22
778.083	-3.07
778.265	-19.46
778.447	115.71
778.629	21.5
778.811	33.79
778.993	121.85
779.175	101.37
779.357	54.27
779.539	21.5
779.721	29.7
779.903	109.57
780.085	95.23
780.267	74.75
780.449	15.36
780.631	95.23
780.812	226.3
780.994	70.65
781.176	54.27
781.358	84.99
781.54	46.08
781.721	-5.12
781.903	162.81
782.085	-15.36
782.267	144.38
782.448	-21.5
782.63	31.74
782.812	89.09
782.993	91.13
783.175	101.37
783.357	27.65
783.538	46.08
783.72	23.55
783.901	-44.03
784.083	89.09
784.264	84.99
784.446	-39.94
784.627	-27.65
784.809	25.6
784.99	89.09
785.172	27.65
785.353	105.47
785.535	23.55
785.716	-58.37
785.897	70.65
786.079	58.37
786.26	64.51
786.441	146.43
786.623	54.27
786.804	-68.61
786.985	123.9
787.167	113.66
787.348	-1.02
787.529	87.04
787.71	150.53
787.891	89.09
788.073	-54.27
788.254	-54.27
788.435	125.95
788.616	144.38
788.797	33.79
788.978	-17.41
789.159	76.8
789.34	87.04
789.522	9.22
789.703	35.84
789.884	27.65
790.065	56.32
790.246	105.47
790.427	17.41
790.607	171.01
790.788	117.76
790.969	44.03
791.15	7.17
791.331	29.7
791.512	39.94
791.693	-60.42
791.874	3.07
792.054	257.02
792.235	66.56
792.416	11.26
792.597	-29.7
792.778	48.13
792.958	48.13
793.139	13.31
793.32	-66.56
793.5	19.46
793.681	136.19
793.862	60.42
794.042	-11.26
794.223	-48.13
794.404	60.42
794.584	-84.99
794.765	27.65
794.945	11.26
795.126	54.27
795.306	39.94
795.487	11.26
795.667	-29.7
795.848	-21.5
796.028	19.46
796.209	-58.37
796.389	60.42
796.57	44.03
796.75	17.41
796.93	-41.98
797.111	-52.22
797.291	41.98
797.471	44.03
797.652	50.18
797.832	13.31
798.012	72.7
798.192	-97.28
798.373	-107.52
798.553	-78.85
798.733	44.03
798.913	-23.55
799.093	70.65
799.274	7.17
799.454	128
799.634	84.99
799.814	117.76
799.994	119.81
800.174	11.26
800.354	-7.17
800.534	-82.94
800.714	3.07
800.894	-66.56
801.074	-95.23
801.254	-35.84
801.434	119.81
801.614	23.55
801.794	-3.07
801.974	1733.61
802.154	-11.26
802.334	74.75
802.514	-78.85
802.693	11.26
802.873	7.17
803.053	173.05
803.233	91.13
803.413	-21.5
803.592	-58.37
803.772	-91.13
803.952	19.46
804.131	-62.46
804.311	13.31
804.491	68.61
804.67	-56.32
804.85	-72.7
805.03	54.27
805.209	119.81
805.389	-68.61
805.568	-29.7
805.748	-11.26
805.928	72.7
806.107	72.7
806.287	3.07
806.466	21.5
806.646	-1.02
806.825	13.31
807.004	50.18
807.184	-39.94
807.363	21.5
807.543	46.08
807.722	-74.75
807.901	74.75
808.081	39.94
808.26	-117.76
808.439	27.65
808.619	-29.7
808.798	-37.89
808.977	13.31
809.156	25.6
809.336	-70.65
809.515	136.19
809.694	-23.55
809.873	-41.98
810.052	70.65
810.231	107.52
810.411	29.7
810.59	78.85
810.769	-72.7
810.948	39.94
811.127	-89.09
811.306	-13.31
811.485	-7.17
811.664	74.75
811.843	44.03
812.022	-3.07
812.201	-13.31
812.38	-29.7
812.559	-31.74
812.737	35.84
812.916	-19.46
813.095	-105.47
813.274	13.31
813.453	9.22
813.632	27.65
813.811	78.85
813.989	-37.89
814.168	54.27
814.347	-70.65
814.526	-3.07
814.704	80.89
814.883	130.05
815.062	-70.65
815.24	74.75
815.419	-72.7
815.598	80.89
815.776	-97.28
815.955	-78.85
816.133	-166.91
816.312	23.55
816.49	-7.17
816.669	-15.36
816.847	1.02
817.026	-27.65
817.204	-21.5
817.383	19.46
817.561	-60.42
817.74	27.65
817.918	54.27
818.097	-19.46
818.275	-21.5
818.453	21.5
818.632	13.31
818.81	25.6
818.988	-50.18
819.167	-70.65
819.345	54.27
819.523	-25.6
819.701	11.26
819.879	78.85
820.058	-64.51
820.236	15.36
820.414	-29.7
820.592	11.26
820.77	-35.84
820.948	-33.79
821.127	-48.13
821.305	62.46
821.483	21.5
821.661	21.5
821.839	7.17
822.017	-7.17
822.195	-29.7
822.373	3.07
822.551	-9.22
822.729	37.89
822.907	-9.22
823.085	107.52
823.262	7.17
823.44	21.5
823.618	23.55
823.796	44.03
823.974	-15.36
824.152	-15.36
824.329	-17.41
824.507	-56.32
824.685	21.5
824.863	5.12
825.04	21.5
825.218	33.79
825.396	23.55
825.574	-3.07
825.751	78.85
825.929	125.95
826.107	-33.79
826.284	-5.12
826.462	11.26
826.639	-115.71
826.817	-70.65
826.994	17.41
827.172	-41.98
827.349	84.99
827.527	13.31
827.704	-78.85
827.882	82.94
828.059	11.26
828.237	-11.26
828.414	41.98
828.591	-136.19
828.769	5.12
828.946	-52.22
829.124	46.08
829.301	74.75
829.478	-44.03
829.655	1.02
829.833	52.22
830.01	-91.13
830.187	-3.07
830.364	44.03
830.542	-5.12
830.719	97.28
830.896	13.31
831.073	37.89
831.25	70.65
831.427	-9.22
831.604	-56.32
831.782	15.36
831.959	-27.65
832.136	-74.75
832.313	-7.17
832.49	-68.61
832.667	41.98
832.844	-9.22
833.021	56.32
833.198	31.74
833.374	33.79
833.551	56.32
833.728	-13.31
833.905	84.99
834.082	-87.04
834.259	3.07
834.436	150.53
834.612	-121.85
834.789	50.18
834.966	9.22
835.143	15.36
835.319	-89.09
835.496	19.46
835.673	35.84
835.85	136.19
836.026	132.09
836.203	33.79
836.38	-52.22
836.556	-33.79
836.733	-97.28
836.909	80.89
837.086	-140.29
837.262	-58.37
837.439	-17.41
837.616	5.12
837.792	-25.6
837.968	-23.55
838.145	-136.19
838.321	27.65
838.498	25.6
838.674	-3.07
838.851	33.79
839.027	-17.41
839.203	-9.22
839.38	29.7
839.556	9.22
839.732	142.33
839.909	29.7
840.085	46.08
840.261	-35.84
840.437	56.32
840.614	-52.22
840.79	130.05
840.966	-29.7
841.142	29.7
841.318	-48.13
841.494	-19.46
841.671	80.89
841.847	-109.57
842.023	-87.04
842.199	29.7
842.375	111.61
842.551	-56.32
842.727	-44.03
842.903	123.9
843.079	-76.8
843.255	175.1
843.431	21.5
843.607	7.17
843.783	-101.37
843.959	-19.46
844.134	-66.56
844.31	21.5
844.486	37.89
844.662	35.84
844.838	-44.03
845.013	33.79
845.189	25.6
845.365	-21.5
845.541	44.03
845.716	11.26
845.892	91.13
846.068	-1.02
846.244	-29.7
846.419	-17.41
846.595	5.12
846.77	-60.42
846.946	58.37
847.122	-37.89
847.297	-52.22
847.473	68.61
847.648	-134.14
847.824	-58.37
847.999	-93.18
848.175	-11.26
848.35	-44.03
848.526	91.13
848.701	21.5
848.876	52.22
849.052	48.13
849.227	-60.42
849.403	1.02
849.578	-19.46
849.753	-9.22
849.929	70.65
850.104	-72.7
850.279	17.41
850.454	72.7
850.63	66.56
850.805	-64.51
850.98	-39.94
851.155	-54.27
851.33	5.12
851.505	-58.37
851.681	72.7
851.856	-48.13
852.031	-35.84
852.206	27.65
852.381	-123.9
852.556	-23.55
852.731	-11.26
852.906	-21.5
853.081	21.5
853.256	97.28
853.431	-41.98
853.606	-56.32
853.781	-35.84
853.956	-146.43
854.131	97.28
854.305	33.79
854.48	-44.03
854.655	-41.98
854.83	-54.27
855.005	-19.46
855.18	25.6
855.354	-5.12
855.529	21.5
855.704	-56.32
855.879	15.36
856.053	-68.61
856.228	-52.22
856.403	-115.71
856.577	17.41
856.752	-48.13
856.926	-58.37
857.101	-7.17
857.276	-82.94
857.45	9.22
857.625	27.65
857.799	-7.17
857.974	23.55
858.148	-189.44
858.323	-29.7
858.497	-5.12
858.672	-91.13
858.846	-101.37
859.02	21.5
859.195	-80.89
859.369	-15.36
859.543	58.37
859.718	-54.27
859.892	-1.02
860.066	64.51
860.241	-1.02
860.415	-111.61
860.589	31.74
860.763	19.46
860.938	78.85
861.112	-23.55
861.286	-44.03
861.46	9.22
861.634	-5.12
861.808	39.94
861.982	-76.8
862.157	-123.9
862.331	-37.89
862.505	-87.04
862.679	-154.62
862.853	-74.75
863.027	-54.27
863.201	152.57
863.375	-105.47
863.549	-11.26
863.722	33.79
863.896	31.74
864.07	-82.94
864.244	78.85
864.418	41.98
864.592	-33.79
864.766	13.31
864.939	-33.79
865.113	-3.07
865.287	95.23
865.461	-93.18
865.634	5.12
865.808	-68.61
865.982	-31.74
866.156	-11.26
866.329	-97.28
866.503	41.98
866.676	23.55
866.85	-31.74
867.024	9.22
867.197	177.15
867.371	3.07
867.544	37.89
867.718	-140.29
867.891	21.5
868.065	-21.5
868.238	-23.55
868.412	23.55
868.585	-37.89
868.759	-21.5
868.932	-31.74
869.105	-152.57
869.279	5.12
869.452	-52.22
869.625	13.31
869.799	-5.12
869.972	-70.65
870.145	-103.42
870.319	-7.17
870.492	-64.51
870.665	19.46
870.838	-27.65
871.011	-158.72
871.185	72.7
871.358	-3.07
871.531	46.08
871.704	7.17
871.877	-7.17
872.05	-37.89
872.223	-95.23
872.396	183.29
872.569	56.32
872.742	-64.51
872.915	64.51
873.088	-56.32
873.261	-19.46
873.434	39.94
873.607	58.37
873.78	97.28
873.953	-111.61
874.126	-29.7
874.299	72.7
874.471	-84.99
874.644	-60.42
874.817	39.94
874.99	99.33
875.163	-84.99
875.335	-31.74
875.508	-35.84
875.681	105.47
875.853	-68.61
876.026	-70.65
876.199	41.98
876.371	29.7
876.544	37.89
876.717	-27.65
876.889	-80.89
877.062	-13.31
877.234	-1.02
877.407	-17.41
877.579	-50.18
877.752	17.41
877.924	62.46
878.097	27.65
878.269	74.75
878.442	-35.84
878.614	13.31
878.786	44.03
878.959	-9.22
879.131	9.22
879.303	-101.37
879.476	1.02
879.648	44.03
879.82	37.89
879.993	-68.61
880.165	33.79
880.337	-123.9
880.509	64.51
880.681	-140.29
880.854	-9.22
881.026	64.51
881.198	160.77
881.37	-25.6
881.542	-31.74
881.714	-80.89
881.886	-41.98
882.058	-35.84
882.23	-21.5
882.402	-21.5
882.574	21.5
882.746	3.07
882.918	74.75
883.09	58.37
883.262	-27.65
883.434	-27.65
883.606	-166.91
883.778	21.5
883.95	152.57
884.122	62.46
884.293	41.98
884.465	-64.51
884.637	33.79
884.809	-39.94
884.98	-48.13
885.152	-48.13
885.324	70.65
885.496	-7.17
885.667	-48.13
885.839	41.98
886.011	-31.74
886.182	78.85
886.354	27.65
886.525	37.89
886.697	-9.22
886.869	-66.56
887.04	21.5
887.212	17.41
887.383	134.14
887.555	23.55
887.726	-25.6
887.897	-25.6
888.069	21.5
888.24	119.81
888.412	-15.36
888.583	-31.74
888.754	-62.46
888.926	-144.38
889.097	-21.5
889.268	-56.32
889.44	9.22
889.611	-87.04
889.782	-13.31
889.953	-27.65
890.125	48.13
890.296	-35.84
890.467	-82.94
890.638	3.07
890.809	-25.6
890.98	-21.5
891.151	-33.79
891.323	21.5
891.494	-9.22
891.665	-11.26
891.836	23.55
892.007	50.18
892.178	15.36
892.349	-5.12
892.52	-76.8
892.691	-17.41
892.862	-99.33
893.032	-193.53
893.203	-56.32
893.374	60.42
893.545	74.75
893.716	-15.36
893.887	66.56
894.057	17.41
894.228	-17.41
894.399	-23.55
894.57	68.61
894.74	37.89
894.911	44.03
895.082	-56.32
895.253	-46.08
895.423	-64.51
895.594	19.46
895.764	-11.26
895.935	-123.9
896.106	89.09
896.276	-52.22
896.447	-3.07
896.617	-48.13
896.788	-150.53
896.958	15.36
897.129	-3.07
897.299	-103.42
897.47	107.52
897.64	54.27
897.81	56.32
897.981	1.02
898.151	-91.13
898.322	54.27
898.492	37.89
898.662	-93.18
898.832	-72.7
899.003	-17.41
899.173	56.32
899.343	-68.61
899.513	-35.84
