Data from USB4F104151__3__10-22-13-455.txt Node

Date: Wed Feb 26 10:22:13 EST 2025
User: louis
Spectrometer: USB4F10415
Trigger mode: 4
Integration Time (sec): 1.000000E-1
Scans to average: 1
Electric dark correction enabled: true
Nonlinearity correction enabled: false
Boxcar width: 0
XAxis mode: Wavelengths
Number of Pixels in Spectrum: 3648
>>>>>Begin Spectral Data<<<<<
178.204	-439.12
178.424	-439.12
178.644	-439.12
178.864	-488.27
179.084	-336.72
179.304	-31.57
179.524	-50
179.744	21.67
179.964	126.12
180.184	38.06
180.404	-35.67
180.624	-7
180.844	-9.05
181.064	-54.1
181.283	-0.85
181.503	-23.38
181.723	25.77
181.943	-105.3
182.163	136.36
182.383	-52.05
182.602	19.63
182.822	117.93
183.042	79.02
183.262	-31.57
183.482	-45.91
183.701	44.2
183.921	85.16
184.141	17.58
184.361	11.43
184.58	19.63
184.8	76.97
185.02	62.63
185.239	74.92
185.459	74.92
185.679	68.78
185.898	-68.44
186.118	-45.91
186.338	19.63
186.557	105.64
186.777	-88.92
186.997	9.39
187.216	54.44
187.436	189.61
187.655	62.63
187.875	107.69
188.095	46.25
188.314	64.68
188.534	101.55
188.753	-9.05
188.973	140.46
189.192	99.5
189.412	-11.09
189.631	40.11
189.851	87.21
190.07	162.98
190.29	-78.68
190.509	-17.24
190.729	17.58
190.948	101.55
191.168	203.94
191.387	97.45
191.607	81.07
191.826	107.69
192.045	56.49
192.265	-0.85
192.484	72.87
192.704	-74.58
192.923	-56.15
193.142	205.99
193.362	66.73
193.581	109.74
193.8	50.35
194.02	105.64
194.239	29.87
194.458	66.73
194.678	-27.48
194.897	-21.33
195.116	40.11
195.335	81.07
195.555	-58.2
195.774	-13.14
195.993	109.74
196.212	27.82
196.432	3.24
196.651	-33.62
196.87	29.87
197.089	212.14
197.308	101.55
197.528	101.55
197.747	-82.77
197.966	68.78
198.185	130.22
198.404	5.29
198.623	111.78
198.842	175.27
199.062	81.07
199.281	38.06
199.5	-15.19
199.719	64.68
199.938	46.25
200.157	42.15
200.376	97.45
200.595	111.78
200.814	25.77
201.033	-0.85
201.252	199.85
201.471	74.92
201.69	70.83
201.909	-0.85
202.128	81.07
202.347	85.16
202.566	-9.05
202.785	-84.82
203.004	-43.86
203.223	308.39
203.442	117.93
203.661	11.43
203.879	113.83
204.098	29.87
204.317	-54.1
204.536	122.02
204.755	165.03
204.974	74.92
205.193	-17.24
205.411	93.35
205.63	93.35
205.849	60.59
206.068	-41.81
206.287	54.44
206.505	156.84
206.724	83.11
206.943	-86.87
207.162	-86.87
207.381	38.06
207.599	-13.14
207.818	83.11
208.037	-50
208.255	11.43
208.474	97.45
208.693	-19.29
208.911	13.48
209.13	17.58
209.349	33.96
209.567	42.15
209.786	111.78
210.005	134.31
210.223	17.58
210.442	-158.55
210.661	13.48
210.879	93.35
211.098	38.06
211.316	15.53
211.535	38.06
211.753	5.29
211.972	142.5
212.191	-17.24
212.409	60.59
212.628	70.83
212.846	-50
213.065	-13.14
213.283	64.68
213.502	105.64
213.72	42.15
213.938	-25.43
214.157	-13.14
214.375	191.66
214.594	38.06
214.812	64.68
215.031	48.3
215.249	40.11
215.467	109.74
215.686	3.24
215.904	74.92
216.122	-25.43
216.341	109.74
216.559	-54.1
216.778	128.17
216.996	158.89
217.214	70.83
217.432	-4.95
217.651	-64.34
217.869	13.48
218.087	-9.05
218.306	-25.43
218.524	58.54
218.742	23.72
218.96	52.39
219.179	-7
219.397	23.72
219.615	228.52
219.833	76.97
220.051	-39.76
220.27	142.5
220.488	64.68
220.706	81.07
220.924	15.53
221.142	-39.76
221.36	50.35
221.578	-31.57
221.796	11.43
222.015	93.35
222.233	36.01
222.451	179.37
222.669	-0.85
222.887	89.26
223.105	-37.72
223.323	89.26
223.541	-74.58
223.759	9.39
223.977	-9.05
224.195	126.12
224.413	95.4
224.631	62.63
224.849	36.01
225.067	150.7
225.285	3.24
225.503	-82.77
225.721	-127.83
225.939	27.82
226.157	15.53
226.375	212.14
226.592	17.58
226.81	21.67
227.028	101.55
227.246	81.07
227.464	-4.95
227.682	177.32
227.9	62.63
228.117	11.43
228.335	25.77
228.553	21.67
228.771	9.39
228.989	42.15
229.206	76.97
229.424	-0.85
229.642	42.15
229.86	-33.62
230.077	185.51
230.295	36.01
230.513	132.26
230.731	58.54
230.948	142.5
231.166	140.46
231.384	29.87
231.601	-47.96
231.819	220.33
232.037	-62.29
232.254	-7
232.472	-25.43
232.689	25.77
232.907	54.44
233.125	33.96
233.342	42.15
233.56	-4.95
233.777	40.11
233.995	19.63
234.213	122.02
234.43	148.65
234.648	-70.48
234.865	3.24
235.083	48.3
235.3	44.2
235.518	60.59
235.735	148.65
235.953	93.35
236.17	25.77
236.388	25.77
236.605	56.49
236.822	138.41
237.04	101.55
237.257	36.01
237.475	-21.33
237.692	66.73
237.909	111.78
238.127	17.58
238.344	152.74
238.562	48.3
238.779	-2.9
238.996	-82.77
239.214	33.96
239.431	27.82
239.648	29.87
239.865	27.82
240.083	66.73
240.3	19.63
240.517	-25.43
240.735	-9.05
240.952	66.73
241.169	95.4
241.386	29.87
241.603	-4.95
241.821	-25.43
242.038	103.59
242.255	156.84
242.472	-52.05
242.689	62.63
242.907	50.35
243.124	48.3
243.341	52.39
243.558	-70.48
243.775	-68.44
243.992	-13.14
244.209	128.17
244.426	152.74
244.643	36.01
244.86	-11.09
245.078	87.21
245.295	27.82
245.512	70.83
245.729	-7
245.946	-15.19
246.163	64.68
246.38	33.96
246.597	3.24
246.814	62.63
247.031	54.44
247.248	31.91
247.464	66.73
247.681	70.83
247.898	113.83
248.115	89.26
248.332	-52.05
248.549	181.42
248.766	117.93
248.983	109.74
249.2	89.26
249.417	138.41
249.633	-23.38
249.85	99.5
250.067	91.31
250.284	81.07
250.501	144.55
250.717	27.82
250.934	-66.39
251.151	-39.76
251.368	42.15
251.585	83.11
251.801	54.44
252.018	-43.86
252.235	191.66
252.451	-9.05
252.668	-37.72
252.885	91.31
253.102	81.07
253.318	-58.2
253.535	-23.38
253.752	-0.85
253.968	-33.62
254.185	-31.57
254.401	99.5
254.618	38.06
254.835	50.35
255.051	72.87
255.268	46.25
255.484	48.3
255.701	89.26
255.917	17.58
256.134	-37.72
256.351	44.2
256.567	-68.44
256.784	21.67
257	-0.85
257.217	70.83
257.433	5.29
257.65	19.63
257.866	115.88
258.082	76.97
258.299	-35.67
258.515	113.83
258.732	15.53
258.948	-107.35
259.165	79.02
259.381	-21.33
259.597	74.92
259.814	-4.95
260.03	-76.63
260.246	-7
260.463	128.17
260.679	124.07
260.895	9.39
261.112	72.87
261.328	19.63
261.544	-0.85
261.761	111.78
261.977	-25.43
262.193	-82.77
262.409	-13.14
262.626	-11.09
262.842	21.67
263.058	-11.09
263.274	58.54
263.49	46.25
263.707	68.78
263.923	85.16
264.139	-70.48
264.355	15.53
264.571	101.55
264.787	97.45
265.004	68.78
265.22	44.2
265.436	-58.2
265.652	-19.29
265.868	-29.52
266.084	-97.11
266.3	21.67
266.516	-23.38
266.732	27.82
266.948	60.59
267.164	25.77
267.38	70.83
267.596	97.45
267.812	197.8
268.028	101.55
268.244	-41.81
268.46	48.3
268.676	17.58
268.892	62.63
269.108	-15.19
269.324	-64.34
269.54	-58.2
269.756	42.15
269.972	-107.35
270.188	58.54
270.403	7.34
270.619	7.34
270.835	74.92
271.051	44.2
271.267	-33.62
271.483	3.24
271.698	103.59
271.914	1.19
272.13	54.44
272.346	76.97
272.562	-35.67
272.777	48.3
272.993	-78.68
273.209	-68.44
273.425	74.92
273.64	-86.87
273.856	134.31
274.072	-11.09
274.287	9.39
274.503	115.88
274.719	111.78
274.934	-15.19
275.15	-19.29
275.366	-11.09
275.581	-54.1
275.797	-17.24
276.012	40.11
276.228	-62.29
276.444	33.96
276.659	138.41
276.875	13.48
277.09	44.2
277.306	72.87
277.521	33.96
277.737	62.63
277.952	132.26
278.168	-39.76
278.383	33.96
278.599	33.96
278.814	50.35
279.03	15.53
279.245	152.74
279.461	58.54
279.676	165.03
279.892	-56.15
280.107	-62.29
280.322	-74.58
280.538	33.96
280.753	-70.48
280.969	74.92
281.184	23.72
281.399	93.35
281.615	44.2
281.83	42.15
282.045	-37.72
282.26	-54.1
282.476	36.01
282.691	83.11
282.906	31.91
283.122	-27.48
283.337	31.91
283.552	72.87
283.767	-17.24
283.983	66.73
284.198	-25.43
284.413	74.92
284.628	-68.44
284.843	38.06
285.058	111.78
285.274	79.02
285.489	19.63
285.704	64.68
285.919	-35.67
286.134	23.72
286.349	25.77
286.564	-62.29
286.779	169.13
286.995	23.72
287.21	-56.15
287.425	81.07
287.64	-31.57
287.855	-19.29
288.07	5.29
288.285	138.41
288.5	91.31
288.715	13.48
288.93	54.44
289.145	-41.81
289.36	40.11
289.575	9.39
289.79	95.4
290.004	33.96
290.219	72.87
290.434	-23.38
290.649	-64.34
290.864	40.11
291.079	15.53
291.294	136.36
291.509	48.3
291.724	54.44
291.938	-62.29
292.153	60.59
292.368	-7
292.583	89.26
292.798	117.93
293.012	66.73
293.227	31.91
293.442	46.25
293.657	87.21
293.871	150.7
294.086	64.68
294.301	87.21
294.516	87.21
294.73	70.83
294.945	-68.44
295.16	74.92
295.374	89.26
295.589	38.06
295.804	1.19
296.018	11.43
296.233	105.64
296.447	42.15
296.662	25.77
296.877	85.16
297.091	64.68
297.306	44.2
297.52	66.73
297.735	97.45
297.949	36.01
298.164	44.2
298.378	36.01
298.593	-7
298.807	-23.38
299.022	36.01
299.236	140.46
299.451	-37.72
299.665	-13.14
299.88	-23.38
300.094	117.93
300.309	70.83
300.523	50.35
300.737	-56.15
300.952	38.06
301.166	21.67
301.381	-35.67
301.595	-4.95
301.809	85.16
302.024	46.25
302.238	17.58
302.452	113.83
302.667	58.54
302.881	205.99
303.095	85.16
303.309	134.31
303.524	27.82
303.738	19.63
303.952	-41.81
304.166	13.48
304.381	-80.72
304.595	89.26
304.809	42.15
305.023	89.26
305.237	-13.14
305.452	79.02
305.666	117.93
305.88	115.88
306.094	117.93
306.308	113.83
306.522	136.36
306.736	-29.52
306.95	70.83
307.164	21.67
307.379	3.24
307.593	101.55
307.807	156.84
308.021	76.97
308.235	17.58
308.449	-72.53
308.663	-7
308.877	126.12
309.091	74.92
309.305	3.24
309.519	-41.81
309.733	148.65
309.947	-68.44
310.161	136.36
310.374	40.11
310.588	87.21
310.802	-62.29
311.016	60.59
311.23	124.07
311.444	42.15
311.658	-29.52
311.872	103.59
312.085	158.89
312.299	144.55
312.513	31.91
312.727	58.54
312.941	-39.76
313.154	54.44
313.368	7.34
313.582	74.92
313.796	9.39
314.009	-7
314.223	142.5
314.437	130.22
314.651	-27.48
314.864	-27.48
315.078	23.72
315.292	-50
315.505	-45.91
315.719	70.83
315.933	40.11
316.146	9.39
316.36	-33.62
316.573	68.78
316.787	48.3
317.001	70.83
317.214	-15.19
317.428	44.2
317.641	-33.62
317.855	-0.85
318.068	72.87
318.282	64.68
318.495	187.56
318.709	74.92
318.922	70.83
319.136	101.55
319.349	134.31
319.563	-54.1
319.776	109.74
319.99	-54.1
320.203	42.15
320.417	25.77
320.63	3.24
320.843	126.12
321.057	29.87
321.27	58.54
321.483	138.41
321.697	60.59
321.91	64.68
322.124	-15.19
322.337	70.83
322.55	-4.95
322.763	68.78
322.977	44.2
323.19	-19.29
323.403	13.48
323.617	87.21
323.83	119.98
324.043	9.39
324.256	128.17
324.469	-45.91
324.683	95.4
324.896	40.11
325.109	64.68
325.322	-185.17
325.535	48.3
325.748	99.5
325.962	9.39
326.175	70.83
326.388	93.35
326.601	87.21
326.814	-2.9
327.027	21.67
327.24	154.79
327.453	-37.72
327.666	144.55
327.879	148.65
328.092	40.11
328.305	25.77
328.518	60.59
328.731	9.39
328.944	93.35
329.157	70.83
329.37	-4.95
329.583	154.79
329.796	210.09
330.009	-37.72
330.222	89.26
330.435	140.46
330.648	7.34
330.861	62.63
331.073	113.83
331.286	115.88
331.499	-23.38
331.712	-80.72
331.925	3.24
332.138	-21.33
332.35	87.21
332.563	3.24
332.776	64.68
332.989	-66.39
333.202	-47.96
333.414	44.2
333.627	74.92
333.84	7.34
334.053	70.83
334.265	-17.24
334.478	-4.95
334.691	62.63
334.903	9.39
335.116	-41.81
335.329	42.15
335.541	62.63
335.754	158.89
335.966	-33.62
336.179	-45.91
336.392	46.25
336.604	-27.48
336.817	89.26
337.029	56.49
337.242	46.25
337.454	64.68
337.667	66.73
337.88	62.63
338.092	-25.43
338.305	48.3
338.517	52.39
338.729	117.93
338.942	122.02
339.154	-35.67
339.367	-31.57
339.579	36.01
339.792	-47.96
340.004	79.02
340.217	-23.38
340.429	70.83
340.641	-52.05
340.854	-97.11
341.066	93.35
341.278	113.83
341.491	144.55
341.703	48.3
341.915	1.19
342.128	134.31
342.34	38.06
342.552	-13.14
342.764	9.39
342.977	-45.91
343.189	40.11
343.401	27.82
343.613	-17.24
343.826	87.21
344.038	-152.4
344.25	72.87
344.462	23.72
344.674	31.91
344.886	-86.87
345.099	-25.43
345.311	89.26
345.523	11.43
345.735	-152.4
345.947	62.63
346.159	36.01
346.371	-19.29
346.583	99.5
346.795	130.22
347.007	19.63
347.219	83.11
347.431	-17.24
347.643	64.68
347.855	13.48
348.067	134.31
348.279	-19.29
348.491	91.31
348.703	89.26
348.915	38.06
349.127	29.87
349.339	29.87
349.551	-21.33
349.763	72.87
349.975	38.06
350.187	72.87
350.399	177.32
350.61	128.17
350.822	33.96
351.034	42.15
351.246	29.87
351.458	76.97
351.669	23.72
351.881	46.25
352.093	101.55
352.305	109.74
352.517	97.45
352.728	119.98
352.94	44.2
353.152	89.26
353.363	23.72
353.575	42.15
353.787	144.55
353.999	31.91
354.21	109.74
354.422	-7
354.633	7.34
354.845	97.45
355.057	44.2
355.268	40.11
355.48	107.69
355.692	-19.29
355.903	1.19
356.115	13.48
356.326	-115.54
356.538	152.74
356.749	87.21
356.961	142.5
357.172	-37.72
357.384	-62.29
357.595	171.18
357.807	48.3
358.018	46.25
358.23	38.06
358.441	132.26
358.653	25.77
358.864	-11.09
359.075	15.53
359.287	60.59
359.498	162.98
359.709	60.59
359.921	-35.67
360.132	54.44
360.344	64.68
360.555	3.24
360.766	13.48
360.977	7.34
361.189	64.68
361.4	3.24
361.611	27.82
361.823	101.55
362.034	-2.9
362.245	-109.4
362.456	48.3
362.667	25.77
362.879	1.19
363.09	27.82
363.301	132.26
363.512	44.2
363.723	-13.14
363.935	7.34
364.146	107.69
364.357	72.87
364.568	79.02
364.779	-27.48
364.99	122.02
365.201	-25.43
365.412	173.22
365.623	-133.97
365.834	62.63
366.045	62.63
366.256	15.53
366.467	160.94
366.678	-52.05
366.889	81.07
367.1	40.11
367.311	167.08
367.522	40.11
367.733	42.15
367.944	101.55
368.155	17.58
368.366	111.78
368.577	101.55
368.788	64.68
368.999	-17.24
369.209	15.53
369.42	191.66
369.631	232.62
369.842	85.16
370.053	17.58
370.264	52.39
370.474	-4.95
370.685	74.92
370.896	44.2
371.107	58.54
371.317	-9.05
371.528	-27.48
371.739	99.5
371.95	103.59
372.16	40.11
372.371	-45.91
372.582	-21.33
372.792	74.92
373.003	66.73
373.214	101.55
373.424	103.59
373.635	-74.58
373.846	117.93
374.056	-0.85
374.267	31.91
374.477	130.22
374.688	-31.57
374.898	44.2
375.109	38.06
375.319	42.15
375.53	97.45
375.74	93.35
375.951	-25.43
376.161	74.92
376.372	83.11
376.582	-25.43
376.793	56.49
377.003	-23.38
377.214	60.59
377.424	68.78
377.635	25.77
377.845	-43.86
378.055	46.25
378.266	-13.14
378.476	48.3
378.686	87.21
378.897	5.29
379.107	105.64
379.317	40.11
379.528	11.43
379.738	101.55
379.948	-70.48
380.158	91.31
380.369	-41.81
380.579	128.17
380.789	42.15
380.999	91.31
381.21	58.54
381.42	189.61
381.63	15.53
381.84	70.83
382.05	74.92
382.261	-2.9
382.471	103.59
382.681	56.49
382.891	107.69
383.101	25.77
383.311	-4.95
383.521	-45.91
383.731	169.13
383.941	89.26
384.151	1.19
384.361	25.77
384.571	76.97
384.781	44.2
384.991	146.6
385.201	171.18
385.411	126.12
385.621	81.07
385.831	119.98
386.041	-50
386.251	52.39
386.461	19.63
386.671	-0.85
386.881	44.2
387.091	-27.48
387.301	83.11
387.511	-11.09
387.72	146.6
387.93	130.22
388.14	-23.38
388.35	-13.14
388.56	140.46
388.769	99.5
388.979	-9.05
389.189	-41.81
389.399	7.34
389.609	40.11
389.818	119.98
390.028	83.11
390.238	31.91
390.447	27.82
390.657	83.11
390.867	48.3
391.076	-111.44
391.286	29.87
391.496	1.19
391.705	-80.72
391.915	140.46
392.125	76.97
392.334	1.19
392.544	257.19
392.753	79.02
392.963	7.34
393.172	-45.91
393.382	-41.81
393.591	203.94
393.801	-19.29
394.01	72.87
394.22	85.16
394.429	21.67
394.639	52.39
394.848	58.54
395.058	60.59
395.267	1.19
395.477	81.07
395.686	27.82
395.895	187.56
396.105	152.74
396.314	36.01
396.524	89.26
396.733	31.91
396.942	101.55
397.152	40.11
397.361	83.11
397.57	38.06
397.78	-0.85
397.989	50.35
398.198	136.36
398.407	-17.24
398.617	48.3
398.826	105.64
399.035	79.02
399.244	130.22
399.453	52.39
399.663	36.01
399.872	21.67
400.081	-93.01
400.29	74.92
400.499	-62.29
400.708	76.97
400.917	7.34
401.127	-54.1
401.336	-0.85
401.545	228.52
401.754	50.35
401.963	62.63
402.172	-35.67
402.381	-50
402.59	29.87
402.799	17.58
403.008	109.74
403.217	25.77
403.426	-13.14
403.635	-9.05
403.844	-21.33
404.053	-15.19
404.262	-39.76
404.471	144.55
404.68	-0.85
404.888	-19.29
405.097	-0.85
405.306	33.96
405.515	74.92
405.724	64.68
405.933	36.01
406.142	-2.9
406.35	117.93
406.559	-15.19
406.768	25.77
406.977	154.79
407.185	40.11
407.394	83.11
407.603	15.53
407.812	42.15
408.02	79.02
408.229	3.24
408.438	50.35
408.646	-43.86
408.855	99.5
409.064	103.59
409.272	33.96
409.481	40.11
409.69	33.96
409.898	-17.24
410.107	7.34
410.315	54.44
410.524	-39.76
410.733	3.24
410.941	60.59
411.15	122.02
411.358	130.22
411.567	150.7
411.775	7.34
411.984	44.2
412.192	68.78
412.401	9.39
412.609	111.78
412.818	81.07
413.026	58.54
413.234	52.39
413.443	70.83
413.651	23.72
413.86	19.63
414.068	36.01
414.276	228.52
414.485	-33.62
414.693	130.22
414.901	152.74
415.11	122.02
415.318	15.53
415.526	-23.38
415.734	132.26
415.943	-23.38
416.151	97.45
416.359	-29.52
416.567	42.15
416.776	52.39
416.984	140.46
417.192	107.69
417.4	-17.24
417.608	-41.81
417.817	-29.52
418.025	-0.85
418.233	148.65
418.441	-7
418.649	48.3
418.857	3.24
419.065	50.35
419.273	-54.1
419.481	38.06
419.689	29.87
419.897	-29.52
420.105	-90.96
420.313	87.21
420.521	79.02
420.729	23.72
420.937	-2.9
421.145	-7
421.353	79.02
421.561	97.45
421.769	70.83
421.977	-13.14
422.185	70.83
422.393	-9.05
422.601	93.35
422.809	21.67
423.017	99.5
423.224	56.49
423.432	148.65
423.64	-17.24
423.848	122.02
424.056	-35.67
424.263	138.41
424.471	-17.24
424.679	105.64
424.887	-86.87
425.094	105.64
425.302	144.55
425.51	7.34
425.718	150.7
425.925	1.19
426.133	13.48
426.341	181.42
426.548	9.39
426.756	-41.81
426.964	33.96
427.171	-11.09
427.379	-9.05
427.586	23.72
427.794	140.46
428.001	31.91
428.209	60.59
428.417	74.92
428.624	72.87
428.832	56.49
429.039	56.49
429.247	222.38
429.454	64.68
429.662	134.31
429.869	101.55
430.076	42.15
430.284	85.16
430.491	136.36
430.699	128.17
430.906	107.69
431.114	60.59
431.321	52.39
431.528	40.11
431.736	58.54
431.943	81.07
432.15	105.64
432.358	97.45
432.565	117.93
432.772	-39.76
432.979	146.6
433.187	-29.52
433.394	144.55
433.601	33.96
433.808	193.7
434.016	48.3
434.223	85.16
434.43	126.12
434.637	132.26
434.844	85.16
435.052	52.39
435.259	136.36
435.466	152.74
435.673	101.55
435.88	111.78
436.087	191.66
436.294	205.99
436.501	187.56
436.708	107.69
436.915	132.26
437.122	199.85
437.329	111.78
437.537	162.98
437.743	150.7
437.95	244.9
438.157	160.94
438.364	132.26
438.571	191.66
438.778	242.85
438.985	197.8
439.192	255.14
439.399	142.5
439.606	226.47
439.813	341.16
440.02	214.18
440.227	392.36
440.433	298.15
440.64	238.76
440.847	240.81
441.054	199.85
441.261	330.92
441.467	183.46
441.674	226.47
441.881	345.25
442.088	292.01
442.294	363.69
442.501	343.21
442.708	439.46
442.914	375.97
443.121	382.12
443.328	459.94
443.534	427.17
443.741	480.42
443.948	384.16
444.154	404.64
444.361	517.28
444.568	445.6
444.774	490.66
444.981	363.69
445.187	560.29
445.394	484.52
445.6	527.52
445.807	593.06
446.013	560.29
446.22	392.36
446.426	545.95
446.633	711.84
446.839	775.33
447.046	660.64
447.252	738.46
447.459	707.74
447.665	740.51
447.871	971.93
448.078	908.44
448.284	1012.89
448.491	902.3
448.697	1008.8
448.903	890.01
449.11	1055.9
449.316	965.79
449.522	1078.43
449.728	1031.32
449.935	1182.87
450.141	1156.25
450.347	1340.57
450.553	1186.97
450.76	1199.26
450.966	1242.26
451.172	1346.71
451.378	1490.07
451.584	1418.39
451.791	1586.32
451.997	1586.32
452.203	1559.7
452.409	1764.5
452.615	1852.56
452.821	1856.65
453.027	1684.62
453.233	2106.51
453.44	1879.18
453.646	1893.52
453.852	2100.36
454.058	2139.27
454.264	2165.9
454.47	2460.81
454.676	2362.5
454.882	2557.06
455.088	2561.16
455.294	2710.66
455.5	2727.04
455.705	2925.69
455.911	2950.27
456.117	2880.64
456.323	3220.6
456.529	3124.35
456.735	3396.73
456.941	3476.6
457.147	3662.96
457.352	3830.9
457.558	3818.61
457.764	4138.09
457.97	4146.28
458.176	4281.45
458.381	4650.08
458.587	4576.36
458.793	4895.84
458.999	4727.91
459.204	5489.75
459.41	5545.05
459.616	5401.69
459.821	5844.05
460.027	5964.88
460.233	6491.21
460.438	6421.58
460.644	6976.58
460.85	6804.55
461.055	7027.78
461.261	7404.6
461.466	7337.02
461.672	7441.47
461.878	8266.8
462.083	8293.42
462.289	8256.56
462.494	8608.81
462.7	8709.16
462.905	8875.04
463.111	9577.5
463.316	9929.75
463.522	10329.1
463.727	10566.67
463.932	11111.43
464.138	11367.42
464.343	11828.21
464.549	11887.61
464.754	12975.08
464.959	12979.17
465.165	13339.62
465.37	13222.88
465.575	13368.29
465.781	13884.37
465.986	14410.7
466.191	14287.82
466.397	14330.83
466.602	14435.28
466.807	14840.78
467.012	15340.48
467.218	15293.38
467.423	15340.48
467.628	15524.8
467.833	16630.7
468.038	16214.96
468.244	15846.33
468.449	16866.22
468.654	16419.76
468.859	16587.69
469.064	16694.19
469.269	16073.65
469.474	16440.24
469.679	16862.12
469.885	16081.85
470.09	16608.17
470.295	16622.51
470.5	16004.02
470.705	16413.62
470.91	15780.79
471.115	15875
471.32	15872.95
471.525	15918.01
471.73	15283.14
471.935	15360.96
472.139	14748.62
472.344	14795.72
472.549	14554.06
472.754	14566.35
472.959	14142.42
473.164	13501.4
473.369	13317.09
473.574	13747.16
473.778	13431.77
473.983	13214.69
474.188	13005.8
474.393	12393.45
474.598	12229.62
474.802	12133.36
475.007	11885.56
475.212	11793.4
475.417	11320.32
475.621	11119.62
475.826	11181.06
476.031	10865.67
476.235	10607.62
476.44	10624.01
476.645	10380.3
476.849	10347.53
477.054	10007.57
477.259	9786.39
477.463	9757.72
477.668	9727
477.872	9563.16
478.077	9432.09
478.282	9135.14
478.486	9018.4
478.691	9016.35
478.895	8764.45
479.1	8641.57
479.304	8760.36
479.509	8395.82
479.713	8619.05
479.918	8469.55
480.122	8029.23
480.326	8303.66
480.531	8105.01
480.735	8111.15
480.94	8076.34
481.144	8291.37
481.348	7808.05
481.553	7709.75
481.757	7584.82
481.961	7693.37
482.166	7681.08
482.37	7681.08
482.574	7558.2
482.778	7550.01
482.983	7631.93
483.187	7441.47
483.391	7474.23
483.595	7240.76
483.8	7226.43
484.004	7248.96
484.208	7173.18
484.412	7124.03
484.616	7003.2
484.821	6822.98
485.025	6790.21
485.229	6720.58
485.433	6698.05
485.637	6714.44
485.841	6530.12
486.045	6497.35
486.249	6425.67
486.453	6548.55
486.657	6118.48
486.861	6100.05
487.065	5940.3
487.269	6061.13
487.473	5794.9
487.677	5923.92
487.881	6007.89
488.085	5678.16
488.289	5528.66
488.493	5344.35
488.697	5602.39
488.901	5348.44
489.105	5166.17
489.309	5096.54
489.512	5184.6
489.716	5037.15
489.92	4879.46
490.124	4818.02
490.328	4934.75
490.531	4641.89
490.735	4643.94
490.939	4508.77
491.143	4486.25
491.346	4402.28
491.55	4433
491.754	4312.17
491.958	4289.64
492.161	4269.16
492.365	4213.87
492.569	4025.45
492.772	4033.65
492.976	4086.89
493.18	4015.21
493.383	4011.12
493.587	3984.49
493.79	3968.11
493.994	3884.14
494.197	3841.14
494.401	3761.27
494.605	3796.08
494.808	3716.21
495.012	3830.9
495.215	3902.58
495.419	3761.27
495.622	3761.27
495.825	3712.11
496.029	3701.87
496.232	3828.85
496.436	3804.27
496.639	3765.36
496.843	3626.1
497.046	3791.98
497.249	3859.57
497.453	3837.04
497.656	3701.87
497.859	3810.42
498.063	3869.81
498.266	3988.59
498.469	3759.22
498.673	4002.93
498.876	3968.11
499.079	3906.67
499.282	3904.62
499.485	4336.74
499.689	4060.27
499.892	4402.28
500.095	4134
500.298	4193.39
500.501	4090.99
500.705	4238.44
500.908	4406.38
501.111	4199.53
501.314	4574.31
501.517	4519.01
501.72	4476.01
501.923	4600.93
502.126	4744.29
502.329	4863.07
502.532	4725.86
502.735	4879.46
502.938	4957.28
503.141	5080.16
503.344	4955.23
503.547	5207.13
503.75	5243.99
503.953	5327.96
504.156	5532.76
504.359	5471.32
504.562	5594.2
504.765	5629.01
504.968	5811.28
505.17	6061.13
505.373	5999.7
505.576	6130.77
505.779	6380.62
505.982	6335.56
506.185	6392.91
506.387	6577.22
506.59	6747.2
506.793	6876.23
506.996	6900.8
507.198	7318.59
507.401	7367.74
507.604	7582.77
507.807	7724.08
508.009	7760.95
508.212	7808.05
508.415	8051.76
508.617	8176.69
508.82	8516.65
509.022	8449.07
509.225	8832.04
509.428	8911.91
509.63	9090.08
509.833	9159.71
510.035	9800.73
510.238	9718.81
510.44	9866.26
510.643	10101.78
510.845	10599.43
511.048	10462.22
511.25	10781.7
511.453	10933.25
511.655	11670.52
511.858	11647.99
512.06	12037.11
512.262	11934.71
512.465	12372.97
512.667	12559.34
512.87	13093.86
513.072	13134.82
513.274	13611.99
513.477	13640.67
513.679	14126.04
513.881	14603.21
514.084	14894.02
514.286	15012.81
514.488	15258.56
514.69	15946.68
514.893	16001.97
515.095	16446.38
515.297	16587.69
515.499	16941.99
515.701	17572.77
515.904	17953.69
516.106	18262.93
516.308	18271.12
516.51	19018.63
516.712	19059.59
516.914	19653.5
517.116	20093.82
517.318	20347.76
517.52	20431.73
517.722	20870
517.925	21230.44
518.127	21791.58
518.329	22219.61
518.531	22344.53
518.733	22805.33
518.935	23176.01
519.136	23728.96
519.338	24023.87
519.54	24288.06
519.742	24847.15
519.944	24951.6
520.146	25369.38
520.348	25733.92
520.55	26065.69
520.752	26393.37
520.954	26751.76
521.155	26409.75
521.357	27181.84
521.559	27556.61
521.761	28277.5
521.963	28254.97
522.164	28553.97
522.366	28336.89
522.568	28519.16
522.77	28930.8
522.971	29350.63
523.173	29086.45
523.375	29846.24
523.576	29784.8
523.778	29831.91
523.98	30110.43
524.181	30292.7
524.383	30085.86
524.584	30261.98
524.786	30257.88
524.988	30427.87
525.189	30669.53
525.391	30548.7
525.592	30526.17
525.794	30747.35
525.995	30292.7
526.197	30419.67
526.398	30534.36
526.6	30339.8
526.801	30143.2
527.003	30462.68
527.204	30020.32
527.406	30141.15
527.607	29846.24
527.808	30036.7
528.01	29256.43
528.211	29573.86
528.412	29557.48
528.614	29254.38
528.815	29070.06
529.016	29041.39
529.218	28373.75
529.419	28166.91
529.62	27767.55
529.822	27437.83
530.023	27454.22
530.224	27181.84
530.425	26794.77
530.626	26252.06
530.828	25635.62
531.029	26227.48
531.23	25709.35
531.431	25576.23
531.632	25309.99
531.833	24910.64
532.035	24546.1
532.236	24218.43
532.437	24238.9
532.638	23819.07
532.839	23427.91
533.04	23378.76
533.241	22725.46
533.442	23022.41
533.643	22438.74
533.844	22008.67
534.045	21781.34
534.246	21578.59
534.447	21298.02
534.648	20861.8
534.849	20771.69
535.05	20089.72
535.251	20085.62
535.451	19805.05
535.652	19622.78
535.853	19143.56
536.054	19028.87
536.255	18535.31
536.456	18355.09
536.657	18484.11
536.857	17767.32
537.058	17736.6
537.259	17626.01
537.46	17284
537.66	17083.3
537.861	16939.94
538.062	16327.6
538.263	16266.16
538.463	16098.23
538.664	15934.39
538.865	15715.26
539.065	15846.33
539.266	15647.68
539.466	15289.28
539.667	14902.22
539.868	14756.81
540.068	14885.83
540.269	14461.9
540.469	14615.5
540.67	14429.13
540.87	14013.4
541.071	13743.06
541.271	13763.54
541.472	13880.28
541.672	13327.33
541.873	13038.56
542.073	12997.6
542.274	12946.41
542.474	12868.58
542.675	12594.15
542.875	12508.14
543.075	12401.65
543.276	11981.81
543.476	12166.13
543.676	11787.25
543.877	11809.78
544.077	11924.47
544.277	11502.59
544.478	11498.49
544.678	11361.28
544.878	10955.78
545.078	11121.66
545.279	10837
545.479	10736.65
545.679	10630.15
545.879	10325.01
546.079	10234.89
546.28	10083.34
546.48	10112.02
546.68	10157.07
546.88	10120.21
547.08	9933.84
547.28	9759.77
547.48	9268.25
547.68	9593.88
547.88	9413.66
548.081	9253.92
548.281	8967.2
548.481	8932.39
548.681	9008.16
548.881	8774.69
549.081	8578.09
549.28	8621.1
549.48	8465.45
549.68	8551.46
549.88	8109.1
550.08	8162.35
550.28	7746.61
550.48	7818.29
550.68	7953.46
550.88	7519.29
551.08	7388.22
551.279	7611.45
551.479	7031.87
551.679	7314.49
551.879	7017.54
552.079	7052.35
552.278	6995.01
552.478	6913.09
552.678	6747.2
552.878	6693.96
553.077	6519.88
553.277	6468.68
553.477	6368.33
553.676	6138.96
553.876	6046.8
554.076	6061.13
554.275	5837.91
554.475	5770.32
554.674	5760.08
554.874	5610.58
555.074	5620.82
555.273	5393.5
555.473	5350.49
555.672	5338.2
555.872	5354.58
556.071	5200.99
556.271	5200.99
556.47	5082.21
556.67	4955.23
556.869	4965.47
557.068	4795.49
557.268	4695.14
557.467	4523.11
557.667	4504.68
557.866	4406.38
558.065	4254.83
558.265	4314.22
558.464	4289.64
558.663	4179.05
558.863	4179.05
559.062	4025.45
559.261	3894.38
559.461	4031.6
559.66	3777.65
559.859	3800.18
560.058	3732.59
560.258	3466.36
560.457	3611.76
560.656	3847.28
560.855	3425.4
561.054	3462.26
561.253	3443.83
561.453	3390.58
561.652	3286.14
561.851	3267.7
562.05	3091.58
562.249	3048.57
562.448	3116.16
562.647	3071.1
562.846	2991.23
563.045	3019.9
563.244	2868.35
563.443	2894.97
563.642	2835.58
563.841	2954.37
564.04	2808.96
564.239	2681.99
564.438	2714.75
564.637	2469
564.836	2491.52
565.035	2555.01
565.234	2544.77
565.432	2452.61
565.631	2413.7
565.83	2546.82
566.029	2292.87
566.228	2411.65
566.427	2411.65
566.625	2307.21
566.824	2280.58
567.023	2200.71
567.222	2206.86
567.42	2026.64
567.619	2061.45
567.818	2153.61
568.016	2178.19
568.215	1995.92
568.414	1997.96
568.612	1950.86
568.811	1895.57
569.01	1957
569.208	1789.07
569.407	1914
569.605	1868.94
569.804	1739.92
570.002	1750.16
570.201	1559.7
570.4	1772.69
570.598	1645.71
570.797	1725.58
570.995	1614.99
571.193	1760.4
571.392	1676.43
571.59	1504.4
571.789	1641.62
571.987	1549.46
572.186	1578.13
572.384	1543.32
572.582	1399.96
572.781	1547.41
572.979	1346.71
573.177	1420.44
573.376	1485.97
573.574	1473.68
573.772	1315.99
573.971	1313.94
574.169	1158.3
574.367	1291.41
574.565	1369.24
574.763	1100.95
574.962	1215.64
575.16	1078.43
575.358	1195.16
575.556	1103
575.754	1246.36
575.952	1090.71
576.151	1107.1
576.349	1125.53
576.547	1031.32
576.745	1178.78
576.943	1043.61
577.141	1016.99
577.339	916.64
577.537	949.4
577.735	1029.27
577.933	1012.89
578.131	853.15
578.329	1080.47
578.527	875.68
578.725	984.22
578.923	890.01
579.121	965.79
579.319	711.84
579.516	851.1
579.714	1031.32
579.912	875.68
580.11	707.74
580.308	830.62
580.506	652.45
580.704	666.78
580.901	832.67
581.099	789.66
581.297	756.9
581.495	871.58
581.692	701.6
581.89	791.71
582.088	724.13
582.285	564.39
582.483	697.5
582.681	693.41
582.878	629.92
583.076	629.92
583.274	588.96
583.471	748.7
583.669	703.65
583.866	492.71
584.064	578.72
584.262	591.01
584.459	504.99
584.657	586.91
584.854	629.92
585.052	562.34
585.249	615.59
585.447	599.2
585.644	412.84
585.841	550.05
586.039	531.62
586.236	607.39
586.434	556.19
586.631	449.7
586.828	392.36
587.026	509.09
587.223	380.07
587.42	382.12
587.618	527.52
587.815	498.85
588.012	543.91
588.21	392.36
588.407	461.99
588.604	525.47
588.801	429.22
588.999	478.37
589.196	619.68
589.393	439.46
589.59	400.55
589.787	445.6
589.984	400.55
590.182	453.8
590.379	365.73
590.576	355.49
590.773	330.92
590.97	373.92
591.167	390.31
591.364	470.18
591.561	308.39
591.758	507.04
591.955	396.45
592.152	441.51
592.349	351.4
592.546	310.44
592.743	210.09
592.94	322.73
593.137	320.68
593.334	461.99
593.531	425.12
593.727	406.69
593.924	324.77
594.121	398.5
594.318	314.53
594.515	511.14
594.712	488.61
594.908	525.47
595.105	208.04
595.302	498.85
595.499	351.4
595.696	531.62
595.892	320.68
596.089	433.32
596.286	265.38
596.482	486.56
596.679	410.79
596.876	378.02
597.072	529.57
597.269	484.52
597.466	521.38
597.662	459.94
597.859	369.83
598.055	486.56
598.252	572.58
598.448	519.33
598.645	640.16
598.841	543.91
599.038	629.92
599.234	670.88
599.431	695.46
599.627	709.79
599.824	683.17
600.02	722.08
600.217	566.43
600.413	683.17
600.609	691.36
600.806	994.46
601.002	887.97
601.198	816.29
601.395	910.49
601.591	941.21
601.787	881.82
601.984	1045.66
602.18	957.6
602.376	935.07
602.572	1113.24
602.769	1125.53
602.965	1074.33
603.161	1254.55
603.357	1256.6
603.553	1254.55
603.75	1184.92
603.946	1414.29
604.142	1465.49
604.338	1500.31
604.534	1483.92
604.73	1430.68
604.926	1451.16
605.122	1674.39
605.318	1655.95
605.514	1760.4
605.71	1739.92
605.906	1852.56
606.102	1803.41
606.298	2014.35
606.494	1997.96
606.69	2200.71
606.886	2104.46
607.082	2202.76
607.278	2243.72
607.474	2395.27
607.67	2354.31
607.866	2253.96
608.062	2481.28
608.257	2565.25
608.453	2382.98
608.649	2585.73
608.845	2593.92
609.041	2755.71
609.236	2854.02
609.432	2899.07
609.628	3032.19
609.824	3202.17
610.019	3214.46
610.215	3288.18
610.411	3345.53
610.606	3583.09
610.802	3359.86
610.998	3662.96
611.193	3658.87
611.389	3724.4
611.584	4041.84
611.78	3939.44
611.976	4082.8
612.171	4199.53
612.367	4396.14
612.562	4441.19
612.758	4459.62
612.953	4428.9
613.149	4609.12
613.344	4729.95
613.539	5014.62
613.735	5147.74
613.93	5325.91
614.126	5332.06
614.321	5579.86
614.517	5766.23
614.712	5911.63
614.907	6104.14
615.103	6052.94
615.298	6313.03
615.493	6341.71
615.688	6392.91
615.884	6769.73
616.079	6661.19
616.274	7124.03
616.47	7255.1
616.665	7547.96
616.86	7402.55
617.055	7869.49
617.25	7881.78
617.445	8215.6
617.641	8121.39
617.836	8533.03
618.031	8498.22
618.226	9069.6
618.421	9190.43
618.616	9415.71
618.811	9489.43
619.006	9929.75
619.201	9890.84
619.396	10376.2
619.591	10255.37
619.786	10587.15
619.981	10812.42
620.176	11136
620.371	11240.45
620.566	11492.35
620.761	11867.13
620.956	11985.91
621.151	12202.99
621.346	12495.85
621.541	12686.31
621.735	13132.77
621.93	13292.51
622.125	13491.16
622.32	13386.72
622.515	13902.81
622.709	14384.08
622.904	14568.4
623.099	14752.71
623.294	15201.22
623.488	15190.98
623.683	15371.2
623.878	15467.45
624.072	15963.06
624.267	16374.7
624.462	16491.44
624.656	16466.86
624.851	17150.88
625.046	17210.28
625.24	17658.78
625.435	17595.29
625.629	17867.67
625.824	18189.21
626.018	18459.54
626.213	18295.7
626.407	18330.51
626.602	18619.28
626.796	18930.57
626.991	19202.95
627.185	19315.59
627.38	19731.33
627.574	19790.72
627.768	19825.53
627.963	19942.27
628.157	19923.83
628.352	20102.01
628.546	20239.22
628.74	19966.84
628.935	19811.2
629.129	19889.02
629.323	19921.79
629.517	19880.83
629.712	19417.99
629.906	19696.51
630.1	19266.44
630.294	19420.03
630.489	18940.81
630.683	19012.49
630.877	18254.74
631.071	18039.7
631.265	17730.46
631.459	17327.01
631.653	17175.46
631.848	16907.18
632.042	16198.58
632.236	16067.51
632.43	15297.47
632.624	15010.76
632.818	14560.2
633.012	14115.8
633.206	13757.4
633.4	13448.16
633.594	12657.64
633.788	12346.35
633.982	12233.71
634.176	11832.31
634.369	11074.56
634.563	10740.74
634.757	10228.75
634.951	10198.03
635.145	9722.9
635.339	9249.82
635.533	8741.93
635.726	8496.17
635.92	8035.38
636.114	7896.11
636.308	7715.89
636.501	7189.56
636.695	7113.79
636.889	6474.82
637.083	6593.61
637.276	6098
637.47	5770.32
637.664	5622.87
637.857	5465.18
638.051	5239.9
638.244	5016.67
638.438	4875.36
638.632	4684.9
638.825	4326.5
639.019	4394.09
639.212	4123.76
639.406	3947.63
639.599	3812.46
639.793	3523.7
639.986	3300.47
640.18	3480.69
640.373	3302.52
640.567	3079.29
640.76	3073.15
640.954	2868.35
641.147	2630.79
641.34	2587.78
641.534	2641.03
641.727	2612.35
641.92	2436.23
642.114	2387.08
642.307	2131.08
642.5	2231.43
642.694	2032.78
642.887	1979.53
643.08	2006.16
643.273	1858.7
643.467	1631.38
643.66	1682.58
643.853	1612.95
644.046	1610.9
644.239	1553.55
644.432	1490.07
644.626	1270.94
644.819	1320.09
645.012	1215.64
645.205	1232.02
645.398	1262.74
645.591	1193.11
645.784	941.21
645.977	1057.95
646.17	1023.13
646.363	994.46
646.556	887.97
646.749	941.21
646.942	949.4
647.135	930.97
647.328	795.81
647.521	777.37
647.714	756.9
647.907	736.42
648.099	648.35
648.292	713.89
648.485	672.93
648.678	603.3
648.871	640.16
649.064	619.68
649.256	492.71
649.449	457.89
649.642	332.97
649.835	511.14
650.027	433.32
650.22	511.14
650.413	367.78
650.605	543.91
650.798	492.71
650.991	320.68
651.183	396.45
651.376	461.99
651.568	478.37
651.761	269.48
651.954	359.59
652.146	335.01
652.339	435.36
652.531	396.45
652.724	294.05
652.916	160.94
653.109	181.42
653.301	433.32
653.494	365.73
653.686	339.11
653.879	339.11
654.071	267.43
654.263	167.08
654.456	244.9
654.648	257.19
654.84	242.85
655.033	183.46
655.225	318.63
655.417	93.35
655.61	304.29
655.802	230.57
655.994	236.71
656.186	58.54
656.379	246.95
656.571	187.56
656.763	142.5
656.955	146.6
657.148	160.94
657.34	214.18
657.532	214.18
657.724	128.17
657.916	167.08
658.108	310.44
658.3	175.27
658.492	210.09
658.684	193.7
658.876	246.95
659.068	62.63
659.26	60.59
659.452	79.02
659.644	175.27
659.836	234.66
660.028	142.5
660.22	142.5
660.412	165.03
660.604	134.31
660.796	83.11
660.988	251.05
661.18	150.7
661.372	81.07
661.563	144.55
661.755	144.55
661.947	64.68
662.139	177.32
662.331	85.16
662.522	5.29
662.714	9.39
662.906	72.87
663.097	101.55
663.289	29.87
663.481	-15.19
663.673	160.94
663.864	70.83
664.056	126.12
664.247	27.82
664.439	177.32
664.631	126.12
664.822	119.98
665.014	54.44
665.205	36.01
665.397	19.63
665.588	64.68
665.78	101.55
665.971	197.8
666.163	25.77
666.354	111.78
666.546	15.53
666.737	27.82
666.929	64.68
667.12	85.16
667.311	140.46
667.503	97.45
667.694	128.17
667.885	187.56
668.077	128.17
668.268	29.87
668.459	60.59
668.651	60.59
668.842	91.31
669.033	-45.91
669.224	48.3
669.416	277.67
669.607	56.49
669.798	19.63
669.989	109.74
670.18	109.74
670.371	142.5
670.563	15.53
670.754	162.98
670.945	42.15
671.136	97.45
671.327	42.15
671.518	136.36
671.709	210.09
671.9	97.45
672.091	167.08
672.282	68.78
672.473	72.87
672.664	-39.76
672.855	105.64
673.046	107.69
673.237	189.61
673.428	1.19
673.619	160.94
673.809	72.87
674	259.24
674.191	187.56
674.382	58.54
674.573	44.2
674.764	52.39
674.954	128.17
675.145	48.3
675.336	48.3
675.527	27.82
675.717	48.3
675.908	79.02
676.099	3.24
676.289	107.69
676.48	-11.09
676.671	105.64
676.861	31.91
677.052	148.65
677.243	21.67
677.433	46.25
677.624	56.49
677.814	97.45
678.005	85.16
678.195	142.5
678.386	27.82
678.576	107.69
678.767	74.92
678.957	68.78
679.148	132.26
679.338	197.8
679.529	177.32
679.719	42.15
679.909	146.6
680.1	111.78
680.29	152.74
680.481	70.83
680.671	181.42
680.861	154.79
681.052	130.22
681.242	44.2
681.432	138.41
681.622	154.79
681.813	40.11
682.003	62.63
682.193	-45.91
682.383	62.63
682.573	15.53
682.764	74.92
682.954	136.36
683.144	162.98
683.334	27.82
683.524	140.46
683.714	177.32
683.904	183.46
684.094	154.79
684.284	140.46
684.474	212.14
684.664	150.7
684.854	91.31
685.044	66.73
685.234	105.64
685.424	99.5
685.614	66.73
685.804	210.09
685.994	95.4
686.184	70.83
686.374	138.41
686.564	58.54
686.753	144.55
686.943	66.73
687.133	132.26
687.323	83.11
687.513	173.22
687.702	117.93
687.892	93.35
688.082	191.66
688.272	179.37
688.461	38.06
688.651	177.32
688.841	212.14
689.03	128.17
689.22	150.7
689.41	240.81
689.599	136.36
689.789	52.39
689.979	228.52
690.168	107.69
690.358	238.76
690.547	91.31
690.737	136.36
690.926	136.36
691.116	152.74
691.305	173.22
691.495	134.31
691.684	56.49
691.874	76.97
692.063	91.31
692.252	205.99
692.442	119.98
692.631	115.88
692.82	103.59
693.01	101.55
693.199	74.92
693.388	226.47
693.578	44.2
693.767	160.94
693.956	195.75
694.146	58.54
694.335	111.78
694.524	93.35
694.713	208.04
694.902	95.4
695.092	130.22
695.281	199.85
695.47	85.16
695.659	95.4
695.848	191.66
696.037	52.39
696.226	218.28
696.415	74.92
696.604	230.57
696.793	173.22
696.982	91.31
697.171	277.67
697.36	105.64
697.549	197.8
697.738	-11.09
697.927	31.91
698.116	5.29
698.305	179.37
698.494	175.27
698.683	58.54
698.872	242.85
699.061	144.55
699.25	105.64
699.438	83.11
699.627	128.17
699.816	218.28
700.005	97.45
700.193	66.73
700.382	152.74
700.571	203.94
700.76	113.83
700.948	128.17
701.137	109.74
701.326	214.18
701.514	115.88
701.703	144.55
701.892	179.37
702.08	318.63
702.269	56.49
702.457	97.45
702.646	144.55
702.834	36.01
703.023	179.37
703.212	167.08
703.4	42.15
703.589	68.78
703.777	81.07
703.965	23.72
704.154	66.73
704.342	66.73
704.531	140.46
704.719	158.89
704.907	160.94
705.096	142.5
705.284	25.77
705.472	160.94
705.661	101.55
705.849	117.93
706.037	234.66
706.226	179.37
706.414	236.71
706.602	66.73
706.79	160.94
706.979	74.92
707.167	181.42
707.355	25.77
707.543	173.22
707.731	167.08
707.919	140.46
708.107	85.16
708.296	33.96
708.484	126.12
708.672	144.55
708.86	177.32
709.048	21.67
709.236	54.44
709.424	119.98
709.612	167.08
709.8	-25.43
709.988	128.17
710.176	193.7
710.364	208.04
710.551	72.87
710.739	117.93
710.927	122.02
711.115	162.98
711.303	148.65
711.491	216.23
711.679	66.73
711.866	175.27
712.054	111.78
712.242	105.64
712.43	232.62
712.617	95.4
712.805	208.04
712.993	144.55
713.181	15.53
713.368	226.47
713.556	126.12
713.744	103.59
713.931	277.67
714.119	218.28
714.306	44.2
714.494	68.78
714.682	154.79
714.869	76.97
715.057	115.88
715.244	27.82
715.432	68.78
715.619	81.07
715.807	72.87
715.994	134.31
716.182	113.83
716.369	208.04
716.556	162.98
716.744	50.35
716.931	27.82
717.119	208.04
717.306	113.83
717.493	111.78
717.681	109.74
717.868	101.55
718.055	181.42
718.242	130.22
718.43	175.27
718.617	277.67
718.804	197.8
718.991	185.51
719.179	162.98
719.366	199.85
719.553	171.18
719.74	154.79
719.927	193.7
720.114	89.26
720.301	19.63
720.488	68.78
720.676	93.35
720.863	261.29
721.05	234.66
721.237	197.8
721.424	177.32
721.611	165.03
721.798	91.31
721.985	68.78
722.172	218.28
722.358	162.98
722.545	197.8
722.732	154.79
722.919	195.75
723.106	181.42
723.293	195.75
723.48	177.32
723.667	146.6
723.853	275.62
724.04	216.23
724.227	236.71
724.414	107.69
724.6	214.18
724.787	244.9
724.974	267.43
725.161	126.12
725.347	144.55
725.534	220.33
725.72	212.14
725.907	183.46
726.094	253.09
726.28	91.31
726.467	162.98
726.653	134.31
726.84	203.94
727.027	306.34
727.213	156.84
727.4	253.09
727.586	173.22
727.773	160.94
727.959	181.42
728.145	185.51
728.332	189.61
728.518	62.63
728.705	220.33
728.891	218.28
729.077	144.55
729.264	103.59
729.45	140.46
729.636	246.95
729.823	191.66
730.009	244.9
730.195	283.81
730.382	199.85
730.568	152.74
730.754	185.51
730.94	232.62
731.126	167.08
731.313	314.53
731.499	179.37
731.685	232.62
731.871	251.05
732.057	171.18
732.243	320.68
732.429	224.42
732.615	326.82
732.801	187.56
732.987	224.42
733.173	208.04
733.359	187.56
733.545	224.42
733.731	165.03
733.917	271.53
734.103	179.37
734.289	255.14
734.475	175.27
734.661	298.15
734.847	216.23
735.033	210.09
735.219	273.57
735.404	212.14
735.59	210.09
735.776	242.85
735.962	302.25
736.148	300.2
736.333	335.01
736.519	246.95
736.705	113.83
736.89	277.67
737.076	181.42
737.262	173.22
737.447	62.63
737.633	183.46
737.819	310.44
738.004	310.44
738.19	169.13
738.375	261.29
738.561	324.77
738.747	281.77
738.932	117.93
739.118	345.25
739.303	259.24
739.489	332.97
739.674	232.62
739.859	203.94
740.045	265.38
740.23	294.05
740.416	122.02
740.601	308.39
740.786	236.71
740.972	167.08
741.157	220.33
741.342	201.9
741.528	138.41
741.713	271.53
741.898	197.8
742.084	312.49
742.269	212.14
742.454	285.86
742.639	316.58
742.824	240.81
743.01	328.87
743.195	335.01
743.38	275.62
743.565	214.18
743.75	296.1
743.935	298.15
744.12	294.05
744.305	152.74
744.49	230.57
744.675	232.62
744.86	179.37
745.045	244.9
745.23	214.18
745.415	249
745.6	318.63
745.785	195.75
745.97	230.57
746.155	298.15
746.34	300.2
746.525	189.61
746.71	253.09
746.895	187.56
747.079	113.83
747.264	265.38
747.449	253.09
747.634	269.48
747.819	226.47
748.003	216.23
748.188	148.65
748.373	199.85
748.557	199.85
748.742	251.05
748.927	308.39
749.111	150.7
749.296	179.37
749.481	339.11
749.665	191.66
749.85	212.14
750.034	277.67
750.219	171.18
750.404	132.26
750.588	191.66
750.773	101.55
750.957	185.51
751.141	226.47
751.326	267.43
751.51	195.75
751.695	85.16
751.879	195.75
752.064	367.78
752.248	187.56
752.432	267.43
752.617	224.42
752.801	259.24
752.985	181.42
753.17	296.1
753.354	263.33
753.538	181.42
753.722	154.79
753.907	60.59
754.091	87.21
754.275	232.62
754.459	169.13
754.643	95.4
754.828	134.31
755.012	226.47
755.196	134.31
755.38	205.99
755.564	158.89
755.748	136.36
755.932	210.09
756.116	175.27
756.3	187.56
756.484	181.42
756.668	150.7
756.852	54.44
757.036	103.59
757.22	140.46
757.404	95.4
757.588	132.26
757.772	203.94
757.956	197.8
758.14	330.92
758.323	91.31
758.507	224.42
758.691	130.22
758.875	251.05
759.059	218.28
759.242	52.39
759.426	85.16
759.61	130.22
759.794	148.65
759.977	244.9
760.161	412.84
760.345	353.45
760.528	230.57
760.712	83.11
760.895	167.08
761.079	173.22
761.263	162.98
761.446	101.55
761.63	46.25
761.813	99.5
761.997	52.39
762.18	93.35
762.364	117.93
762.547	-25.43
762.731	85.16
762.914	136.36
763.098	89.26
763.281	109.74
763.464	74.92
763.648	150.7
763.831	130.22
764.015	122.02
764.198	136.36
764.381	95.4
764.564	99.5
764.748	117.93
764.931	289.96
765.114	74.92
765.297	148.65
765.481	72.87
765.664	113.83
765.847	66.73
766.03	195.75
766.213	85.16
766.397	60.59
766.58	25.77
766.763	195.75
766.946	68.78
767.129	115.88
767.312	101.55
767.495	40.11
767.678	21.67
767.861	95.4
768.044	111.78
768.227	-23.38
768.41	46.25
768.593	134.31
768.776	52.39
768.959	62.63
769.142	205.99
769.324	93.35
769.507	99.5
769.69	105.64
769.873	33.96
770.056	281.77
770.239	25.77
770.421	191.66
770.604	119.98
770.787	105.64
770.97	136.36
771.152	-11.09
771.335	144.55
771.518	1.19
771.7	130.22
771.883	246.95
772.066	93.35
772.248	103.59
772.431	253.09
772.613	107.69
772.796	117.93
772.978	66.73
773.161	119.98
773.343	-25.43
773.526	81.07
773.708	21.67
773.891	62.63
774.073	74.92
774.256	42.15
774.438	162.98
774.621	119.98
774.803	-4.95
774.985	113.83
775.168	115.88
775.35	31.91
775.532	70.83
775.715	29.87
775.897	66.73
776.079	97.45
776.261	132.26
776.444	31.91
776.626	58.54
776.808	5.29
776.99	21.67
777.173	89.26
777.355	11.43
777.537	113.83
777.719	105.64
777.901	-4.95
778.083	21.67
778.265	-11.09
778.447	132.26
778.629	-4.95
778.811	31.91
778.993	136.36
779.175	140.46
779.357	36.01
779.539	-7
779.721	48.3
779.903	140.46
780.085	56.49
780.267	3.24
780.449	101.55
780.631	85.16
780.812	140.46
780.994	25.77
781.176	13.48
781.358	48.3
781.54	31.91
781.721	101.55
781.903	95.4
782.085	17.58
782.267	93.35
782.448	-62.29
782.63	23.72
782.812	72.87
782.993	97.45
783.175	72.87
783.357	52.39
783.538	101.55
783.72	52.39
783.901	-4.95
784.083	126.12
784.264	9.39
784.446	-23.38
784.627	-2.9
784.809	17.58
784.99	70.83
785.172	74.92
785.353	54.44
785.535	46.25
785.716	29.87
785.897	-90.96
786.079	7.34
786.26	19.63
786.441	33.96
786.623	-82.77
786.804	-39.76
786.985	15.53
787.167	66.73
787.348	17.58
787.529	13.48
787.71	203.94
787.891	85.16
788.073	-2.9
788.254	-82.77
788.435	208.04
788.616	25.77
788.797	-68.44
788.978	-11.09
789.159	85.16
789.34	85.16
789.522	-52.05
789.703	44.2
789.884	105.64
790.065	15.53
790.246	158.89
790.427	31.91
790.607	126.12
790.788	81.07
790.969	-76.63
791.15	117.93
791.331	-17.24
791.512	-25.43
791.693	-9.05
791.874	9.39
792.054	142.5
792.235	169.13
792.416	-68.44
792.597	40.11
792.778	72.87
792.958	62.63
793.139	74.92
793.32	-4.95
793.5	-43.86
793.681	115.88
793.862	119.98
794.042	-50
794.223	11.43
794.404	-4.95
794.584	-60.24
794.765	91.31
794.945	-47.96
795.126	101.55
795.306	138.41
795.487	-66.39
795.667	15.53
795.848	70.83
796.028	-13.14
796.209	48.3
796.389	62.63
796.57	93.35
796.75	36.01
796.93	44.2
797.111	13.48
797.291	23.72
797.471	3.24
797.652	1.19
797.832	3.24
798.012	58.54
798.192	-11.09
798.373	-74.58
798.553	-2.9
798.733	38.06
798.913	-50
799.093	17.58
799.274	58.54
799.454	85.16
799.634	93.35
799.814	21.67
799.994	99.5
800.174	54.44
800.354	1.19
800.534	-74.58
800.714	44.2
800.894	-2.9
801.074	-54.1
801.254	-13.14
801.434	33.96
801.614	-39.76
801.794	-9.05
801.974	1940.62
802.154	52.39
802.334	46.25
802.514	-109.4
802.693	-21.33
802.873	1.19
803.053	42.15
803.233	48.3
803.413	-19.29
803.592	48.3
803.772	40.11
803.952	-33.62
804.131	-97.11
804.311	91.31
804.491	97.45
804.67	-78.68
804.85	-99.16
805.03	56.49
805.209	126.12
805.389	7.34
805.568	19.63
805.748	-7
805.928	64.68
806.107	13.48
806.287	15.53
806.466	-25.43
806.646	-21.33
806.825	38.06
807.004	-54.1
807.184	44.2
807.363	9.39
807.543	23.72
807.722	-76.63
807.901	93.35
808.081	83.11
808.26	-125.78
808.439	38.06
808.619	-25.43
808.798	-23.38
808.977	-33.62
809.156	74.92
809.336	-97.11
809.515	15.53
809.694	-35.67
809.873	-45.91
810.052	103.59
810.231	122.02
810.411	60.59
810.59	70.83
810.769	-47.96
810.948	44.2
811.127	-72.53
811.306	3.24
811.485	-21.33
811.664	113.83
811.843	-47.96
812.022	-9.05
812.201	1.19
812.38	-33.62
812.559	-27.48
812.737	52.39
812.916	-62.29
813.095	-115.54
813.274	-54.1
813.453	21.67
813.632	-4.95
813.811	91.31
813.989	-45.91
814.168	13.48
814.347	-41.81
814.526	-9.05
814.704	44.2
814.883	103.59
815.062	-7
815.24	5.29
815.419	-113.49
815.598	33.96
815.776	-121.68
815.955	-4.95
816.133	-82.77
816.312	40.11
816.49	-29.52
816.669	-62.29
816.847	-37.72
817.026	27.82
817.204	-29.52
817.383	1.19
817.561	-35.67
817.74	11.43
817.918	-31.57
818.097	-25.43
818.275	-35.67
818.453	40.11
818.632	105.64
818.81	-78.68
818.988	-47.96
819.167	-4.95
819.345	79.02
819.523	-45.91
819.701	-68.44
819.879	44.2
820.058	11.43
820.236	15.53
820.414	-11.09
820.592	-74.58
820.77	-7
820.948	-35.67
821.127	-62.29
821.305	-37.72
821.483	-9.05
821.661	76.97
821.839	21.67
822.017	-76.63
822.195	1.19
822.373	25.77
822.551	38.06
822.729	111.78
822.907	7.34
823.085	-4.95
823.262	36.01
823.44	15.53
823.618	-29.52
823.796	74.92
823.974	-78.68
824.152	-19.29
824.329	-33.62
824.507	11.43
824.685	52.39
824.863	-76.63
825.04	17.58
825.218	46.25
825.396	23.72
825.574	-11.09
825.751	17.58
825.929	91.31
826.107	-58.2
826.284	36.01
826.462	48.3
826.639	-95.06
826.817	-62.29
826.994	-23.38
827.172	-50
827.349	134.31
827.527	-25.43
827.704	-21.33
827.882	52.39
828.059	-9.05
828.237	-21.33
828.414	-31.57
828.591	-84.82
828.769	9.39
828.946	-29.52
829.124	17.58
829.301	251.05
829.478	11.43
829.655	7.34
829.833	19.63
830.01	-142.16
830.187	52.39
830.364	21.67
830.542	-39.76
830.719	44.2
830.896	89.26
831.073	-37.72
831.25	62.63
831.427	9.39
831.604	-56.15
831.782	7.34
831.959	122.02
832.136	-72.53
832.313	11.43
832.49	9.39
832.667	31.91
832.844	-60.24
833.021	44.2
833.198	5.29
833.374	15.53
833.551	-23.38
833.728	-80.72
833.905	27.82
834.082	-119.64
834.259	-29.52
834.436	44.2
834.612	-52.05
834.789	38.06
834.966	-4.95
835.143	68.78
835.319	-7
835.496	-41.81
835.673	56.49
835.85	36.01
836.026	23.72
836.203	56.49
836.38	-105.3
836.556	-23.38
836.733	-72.53
836.909	52.39
837.086	-111.44
837.262	-19.29
837.439	-27.48
837.616	-70.48
837.792	-39.76
837.968	42.15
838.145	-136.02
838.321	-90.96
838.498	52.39
838.674	-15.19
838.851	5.29
839.027	-35.67
839.203	50.35
839.38	60.59
839.556	-45.91
839.732	36.01
839.909	-27.48
840.085	-15.19
840.261	-127.83
840.437	36.01
840.614	-21.33
840.79	72.87
840.966	-27.48
841.142	-82.77
841.318	-86.87
841.494	-19.29
841.671	-60.24
841.847	-27.48
842.023	-21.33
842.199	-2.9
842.375	144.55
842.551	-39.76
842.727	-70.48
842.903	68.78
843.079	-0.85
843.255	31.91
843.431	-50
843.607	99.5
843.783	-129.88
843.959	13.48
844.134	-84.82
844.31	152.74
844.486	-0.85
844.662	-80.72
844.838	21.67
845.013	81.07
845.189	142.5
845.365	99.5
845.541	-15.19
845.716	11.43
845.892	48.3
846.068	-25.43
846.244	-25.43
846.419	89.26
846.595	-31.57
846.77	-13.14
846.946	150.7
847.122	15.53
847.297	-45.91
847.473	76.97
847.648	-80.72
847.824	-4.95
847.999	-80.72
848.175	-37.72
848.35	91.31
848.526	95.4
848.701	101.55
848.876	87.21
849.052	19.63
849.227	-9.05
849.403	-31.57
849.578	-31.57
849.753	-33.62
849.929	58.54
850.104	-7
850.279	-29.52
850.454	-52.05
850.63	58.54
850.805	62.63
850.98	54.44
851.155	-21.33
851.33	25.77
851.505	-37.72
851.681	148.65
851.856	-15.19
852.031	76.97
852.206	89.26
852.381	-25.43
852.556	-11.09
852.731	70.83
852.906	-11.09
853.081	-31.57
853.256	109.74
853.431	23.72
853.606	-80.72
853.781	-66.39
853.956	-111.44
854.131	79.02
854.305	-29.52
854.48	-39.76
854.655	-80.72
854.83	-15.19
855.005	-41.81
855.18	25.77
855.354	-41.81
855.529	-60.24
855.704	58.54
855.879	72.87
856.053	-80.72
856.228	31.91
856.403	-15.19
856.577	-47.96
856.752	-90.96
856.926	-23.38
857.101	-60.24
857.276	-7
857.45	-11.09
857.625	91.31
857.799	58.54
857.974	-19.29
858.148	-136.02
858.323	52.39
858.497	-95.06
858.672	-50
858.846	-117.59
859.02	48.3
859.195	-76.63
859.369	-86.87
859.543	1.19
859.718	5.29
859.892	-47.96
860.066	-56.15
860.241	-54.1
860.415	-78.68
860.589	38.06
860.763	-47.96
860.938	-50
861.112	-17.24
861.286	-86.87
861.46	-19.29
861.634	-11.09
861.808	-13.14
861.982	-52.05
862.157	-99.16
862.331	-52.05
862.505	-41.81
862.679	-29.52
862.853	-17.24
863.027	-0.85
863.201	68.78
863.375	-86.87
863.549	46.25
863.722	-64.34
863.896	115.88
864.07	-70.48
864.244	-15.19
864.418	107.69
864.592	54.44
864.766	1.19
864.939	-7
865.113	-58.2
865.287	103.59
865.461	-27.48
865.634	-25.43
865.808	-47.96
865.982	-21.33
866.156	-93.01
866.329	-90.96
866.503	-54.1
866.676	48.3
866.85	-0.85
867.024	-105.3
867.197	62.63
867.371	101.55
867.544	-39.76
867.718	-109.4
867.891	101.55
868.065	-15.19
868.238	-54.1
868.412	27.82
868.585	-17.24
868.759	-50
868.932	-72.53
869.105	-144.21
869.279	-7
869.452	-66.39
869.625	50.35
869.799	-54.1
869.972	-154.45
870.145	-82.77
870.319	83.11
870.492	-2.9
870.665	-15.19
870.838	-109.4
871.011	-103.25
871.185	-27.48
871.358	-54.1
871.531	-11.09
871.704	-41.81
871.877	13.48
872.05	-93.01
872.223	-50
872.396	74.92
872.569	-11.09
872.742	1.19
872.915	-2.9
873.088	-62.29
873.261	-33.62
873.434	109.74
873.607	-15.19
873.78	117.93
873.953	-129.88
874.126	-47.96
874.299	19.63
874.471	-78.68
874.644	-29.52
874.817	56.49
874.99	95.4
875.163	-39.76
875.335	-56.15
875.508	3.24
875.681	44.2
875.853	-93.01
876.026	-17.24
876.199	-27.48
876.371	-0.85
876.544	-13.14
876.717	-39.76
876.889	29.87
877.062	-15.19
877.234	-78.68
877.407	-17.24
877.579	-37.72
877.752	83.11
877.924	52.39
878.097	38.06
878.269	19.63
878.442	-4.95
878.614	44.2
878.786	19.63
878.959	-82.77
879.131	58.54
879.303	-119.64
879.476	-54.1
879.648	89.26
879.82	13.48
879.993	-37.72
880.165	38.06
880.337	-119.64
880.509	48.3
880.681	-95.06
880.854	-47.96
881.026	38.06
881.198	134.31
881.37	-0.85
881.542	21.67
881.714	-41.81
881.886	-47.96
882.058	3.24
882.23	5.29
882.402	-4.95
882.574	3.24
882.746	107.69
882.918	62.63
883.09	-7
883.262	-60.24
883.434	17.58
883.606	-47.96
883.778	-35.67
883.95	134.31
884.122	-56.15
884.293	50.35
884.465	-31.57
884.637	72.87
884.809	5.29
884.98	-13.14
885.152	25.77
885.324	83.11
885.496	-78.68
885.667	-35.67
885.839	13.48
886.011	136.36
886.182	-47.96
886.354	89.26
886.525	29.87
886.697	-33.62
886.869	-105.3
887.04	-0.85
887.212	31.91
887.383	193.7
887.555	-54.1
887.726	-39.76
887.897	-103.25
888.069	-101.2
888.24	-2.9
888.412	-29.52
888.583	-37.72
888.754	-7
888.926	-21.33
889.097	-64.34
889.268	-136.02
889.44	17.58
889.611	-99.16
889.782	-17.24
889.953	-90.96
890.125	103.59
890.296	-47.96
890.467	-23.38
890.638	-13.14
890.809	11.43
890.98	-4.95
891.151	91.31
891.323	21.67
891.494	-15.19
891.665	27.82
891.836	19.63
892.007	-29.52
892.178	-60.24
892.349	-33.62
892.52	-105.3
892.691	85.16
892.862	-13.14
893.032	-88.92
893.203	-68.44
893.374	72.87
893.545	68.78
893.716	-39.76
893.887	81.07
894.057	-70.48
894.228	-43.86
894.399	-25.43
894.57	72.87
894.74	-54.1
894.911	105.64
895.082	-78.68
895.253	-70.48
895.423	-0.85
895.594	17.58
895.764	-41.81
895.935	-107.35
896.106	7.34
896.276	-90.96
896.447	-0.85
896.617	-95.06
896.788	-50
896.958	-2.9
897.129	21.67
897.299	-31.57
897.47	-9.05
897.64	23.72
897.81	-21.33
897.981	-15.19
898.151	-88.92
898.322	-19.29
898.492	54.44
898.662	-99.16
898.832	-97.11
899.003	3.24
899.173	19.63
899.343	-93.01
899.513	-115.54
