Data from USB4F104151__78__11-31-25-361.txt Node

Date: Wed Feb 26 11:31:25 EST 2025
User: louis
Spectrometer: USB4F10415
Trigger mode: 4
Integration Time (sec): 1.000000E-1
Scans to average: 1
Electric dark correction enabled: true
Nonlinearity correction enabled: false
Boxcar width: 0
XAxis mode: Wavelengths
Number of Pixels in Spectrum: 3648
>>>>>Begin Spectral Data<<<<<
178.204	-425.12
178.424	-425.12
178.644	-425.12
178.864	-425.12
179.084	-414.88
179.304	19.29
179.524	-17.58
179.744	7
179.964	19.29
180.184	37.72
180.404	35.67
180.624	-99.5
180.844	-29.87
181.064	-72.87
181.283	37.72
181.503	-5.29
181.723	68.44
181.943	-109.74
182.163	199.51
182.383	-46.25
182.602	52.05
182.822	158.55
183.042	97.11
183.262	-68.78
183.482	-7.34
183.701	23.38
183.921	19.29
184.141	-117.93
184.361	56.15
184.58	21.33
184.8	-13.48
185.02	-11.43
185.239	109.4
185.459	52.05
185.679	142.16
185.898	-23.72
186.118	62.29
186.338	-33.96
186.557	66.39
186.777	-31.91
186.997	-29.87
187.216	35.67
187.436	140.12
187.655	-31.91
187.875	17.24
188.095	35.67
188.314	90.96
188.534	129.88
188.753	-40.11
188.973	156.5
189.192	74.58
189.412	19.29
189.631	-3.24
189.851	19.29
190.07	172.88
190.29	-17.58
190.509	-25.77
190.729	-17.58
190.948	47.96
191.168	199.51
191.387	58.2
191.607	-9.39
191.826	4.95
192.045	58.2
192.265	-72.87
192.484	78.68
192.704	62.29
192.923	4.95
193.142	154.45
193.362	82.77
193.581	197.46
193.8	125.78
194.02	82.77
194.239	19.29
194.458	84.82
194.678	25.43
194.897	58.2
195.116	29.52
195.335	-1.19
195.555	78.68
195.774	-25.77
195.993	74.58
196.212	0.85
196.432	13.14
196.651	-15.53
196.87	17.24
197.089	191.31
197.308	64.34
197.528	82.77
197.747	-38.06
197.966	82.77
198.185	168.79
198.404	-97.45
198.623	140.12
198.842	37.72
199.062	60.24
199.281	39.76
199.5	23.38
199.719	172.88
199.938	78.68
200.157	62.29
200.376	158.55
200.595	154.45
200.814	41.81
201.033	9.05
201.252	115.54
201.471	45.91
201.69	68.44
201.909	41.81
202.128	115.54
202.347	131.92
202.566	-7.34
202.785	-134.31
203.004	0.85
203.223	232.27
203.442	-62.63
203.661	60.24
203.879	47.96
204.098	64.34
204.317	-5.29
204.536	119.64
204.755	33.62
204.974	119.64
205.193	23.38
205.411	125.78
205.63	70.48
205.849	95.06
206.068	-38.06
206.287	-62.63
206.505	101.2
206.724	-9.39
206.943	-56.49
207.162	-7.34
207.381	88.92
207.599	-5.29
207.818	99.16
208.037	-21.67
208.255	29.52
208.474	150.36
208.693	105.3
208.911	-13.48
209.13	123.73
209.349	86.87
209.567	29.52
209.786	33.62
210.005	121.68
210.223	-11.43
210.442	-40.11
210.661	-64.68
210.879	121.68
211.098	-38.06
211.316	76.63
211.535	-25.77
211.753	31.57
211.972	4.95
212.191	-21.67
212.409	-54.44
212.628	70.48
212.846	-50.35
213.065	-23.72
213.283	41.81
213.502	-15.53
213.72	19.29
213.938	21.33
214.157	-21.67
214.375	101.2
214.594	4.95
214.812	90.96
215.031	23.38
215.249	21.33
215.467	13.14
215.686	21.33
215.904	113.49
216.122	0.85
216.341	138.07
216.559	70.48
216.778	88.92
216.996	70.48
217.214	-42.15
217.432	-46.25
217.651	2.9
217.869	50
218.087	-11.43
218.306	7
218.524	47.96
218.742	-13.48
218.96	115.54
219.179	33.62
219.397	-40.11
219.615	242.51
219.833	78.68
220.051	-29.87
220.27	76.63
220.488	95.06
220.706	19.29
220.924	-9.39
221.142	-31.91
221.36	43.86
221.578	50
221.796	58.2
222.015	88.92
222.233	111.44
222.451	131.92
222.669	-91.31
222.887	-1.19
223.105	21.33
223.323	21.33
223.541	-81.07
223.759	76.63
223.977	45.91
224.195	86.87
224.413	84.82
224.631	39.76
224.849	50
225.067	209.75
225.285	-21.67
225.503	52.05
225.721	-93.35
225.939	41.81
226.157	0.85
226.375	234.32
226.592	-3.24
226.81	17.24
227.028	72.53
227.246	166.74
227.464	54.1
227.682	97.11
227.9	37.72
228.117	62.29
228.335	-5.29
228.553	15.19
228.771	7
228.989	-54.44
229.206	84.82
229.424	-33.96
229.642	33.62
229.86	-50.35
230.077	80.72
230.295	84.82
230.513	80.72
230.731	2.9
230.948	121.68
231.166	127.83
231.384	-44.2
231.601	-27.82
231.819	119.64
232.037	37.72
232.254	-27.82
232.472	13.14
232.689	-31.91
232.907	164.69
233.125	-9.39
233.342	-27.82
233.56	-44.2
233.777	-23.72
233.995	-29.87
234.213	64.34
234.43	25.43
234.648	21.33
234.865	19.29
235.083	54.1
235.3	62.29
235.518	35.67
235.735	62.29
235.953	54.1
236.17	9.05
236.388	27.48
236.605	47.96
236.822	60.24
237.04	90.96
237.257	68.44
237.475	-87.21
237.692	21.33
237.909	62.29
238.127	-1.19
238.344	-11.43
238.562	109.4
238.779	-38.06
238.996	-52.39
239.214	-23.72
239.431	19.29
239.648	-25.77
239.865	68.44
240.083	56.15
240.3	-21.67
240.517	21.33
240.735	0.85
240.952	140.12
241.169	97.11
241.386	50
241.603	23.38
241.821	-76.97
242.038	19.29
242.255	56.15
242.472	-40.11
242.689	60.24
242.907	101.2
243.124	-1.19
243.341	-17.58
243.558	23.38
243.775	-117.93
243.992	-72.87
244.209	47.96
244.426	183.12
244.643	117.59
244.86	9.05
245.078	72.53
245.295	13.14
245.512	-9.39
245.729	60.24
245.946	27.48
246.163	35.67
246.38	4.95
246.597	47.96
246.814	-29.87
247.031	58.2
247.248	72.53
247.464	43.86
247.681	-5.29
247.898	27.48
248.115	7
248.332	-13.48
248.549	166.74
248.766	168.79
248.983	86.87
249.2	19.29
249.417	90.96
249.633	-9.39
249.85	60.24
250.067	-11.43
250.284	133.97
250.501	78.68
250.717	82.77
250.934	-46.25
251.151	35.67
251.368	58.2
251.585	-103.59
251.801	86.87
252.018	-17.58
252.235	60.24
252.451	-21.67
252.668	11.09
252.885	86.87
253.102	103.25
253.318	-5.29
253.535	-54.44
253.752	-15.53
253.968	47.96
254.185	-56.49
254.401	9.05
254.618	27.48
254.835	-5.29
255.051	17.24
255.268	50
255.484	-48.3
255.701	-9.39
255.917	58.2
256.134	95.06
256.351	-40.11
256.567	-21.67
256.784	-27.82
257	-119.98
257.217	115.54
257.433	119.64
257.65	21.33
257.866	78.68
258.082	-42.15
258.299	-27.82
258.515	56.15
258.732	9.05
258.948	-36.01
259.165	-46.25
259.381	-50.35
259.597	80.72
259.814	52.05
260.03	19.29
260.246	-25.77
260.463	136.02
260.679	144.21
260.895	-15.53
261.112	50
261.328	-29.87
261.544	27.48
261.761	170.83
261.977	-40.11
262.193	-56.49
262.409	119.64
262.626	4.95
262.842	-3.24
263.058	4.95
263.274	109.4
263.49	64.34
263.707	50
263.923	41.81
264.139	-83.11
264.355	39.76
264.571	62.29
264.787	39.76
265.004	152.4
265.22	66.39
265.436	-23.72
265.652	54.1
265.868	15.19
266.084	-33.96
266.3	25.43
266.516	13.14
266.732	52.05
266.948	13.14
267.164	-13.48
267.38	156.5
267.596	39.76
267.812	156.5
268.028	31.57
268.244	-31.91
268.46	-15.53
268.676	-11.43
268.892	2.9
269.108	-21.67
269.324	4.95
269.54	31.57
269.756	56.15
269.972	-52.39
270.188	-50.35
270.403	-76.97
270.619	37.72
270.835	119.64
271.051	56.15
271.267	-40.11
271.483	-13.48
271.698	119.64
271.914	80.72
272.13	115.54
272.346	52.05
272.562	-29.87
272.777	138.07
272.993	17.24
273.209	-70.83
273.425	80.72
273.64	-97.45
273.856	95.06
274.072	-42.15
274.287	-11.43
274.503	97.11
274.719	56.15
274.934	-17.58
275.15	-138.41
275.366	0.85
275.581	21.33
275.797	-13.48
276.012	50
276.228	9.05
276.444	50
276.659	150.36
276.875	-44.2
277.09	27.48
277.306	-33.96
277.521	131.92
277.737	70.48
277.952	136.02
278.168	47.96
278.383	9.05
278.599	-27.82
278.814	43.86
279.03	50
279.245	140.12
279.461	62.29
279.676	133.97
279.892	-44.2
280.107	25.43
280.322	-56.49
280.538	21.33
280.753	-13.48
280.969	-33.96
281.184	-21.67
281.399	66.39
281.615	-17.58
281.83	17.24
282.045	23.38
282.26	-17.58
282.476	-19.63
282.691	125.78
282.906	-27.82
283.122	113.49
283.337	17.24
283.552	84.82
283.767	-19.63
283.983	113.49
284.198	-3.24
284.413	103.25
284.628	-105.64
284.843	11.09
285.058	47.96
285.274	-48.3
285.489	4.95
285.704	103.25
285.919	19.29
286.134	33.62
286.349	13.14
286.564	39.76
286.779	109.4
286.995	43.86
287.21	-25.77
287.425	107.35
287.64	58.2
287.855	45.91
288.07	-27.82
288.285	-7.34
288.5	99.16
288.715	78.68
288.93	-17.58
289.145	-79.02
289.36	133.97
289.575	-17.58
289.79	156.5
290.004	27.48
290.219	95.06
290.434	-17.58
290.649	-50.35
290.864	-54.44
291.079	31.57
291.294	78.68
291.509	54.1
291.724	9.05
291.938	-11.43
292.153	66.39
292.368	-3.24
292.583	56.15
292.798	103.25
293.012	54.1
293.227	76.63
293.442	9.05
293.657	125.78
293.871	84.82
294.086	70.48
294.301	172.88
294.516	95.06
294.73	-7.34
294.945	13.14
295.16	23.38
295.374	219.99
295.589	111.44
295.804	-72.87
296.018	80.72
296.233	103.25
296.447	13.14
296.662	23.38
296.877	31.57
297.091	123.73
297.306	62.29
297.52	33.62
297.735	50
297.949	50
298.164	-11.43
298.378	27.48
298.593	27.48
298.807	7
299.022	23.38
299.236	205.65
299.451	-13.48
299.665	-9.39
299.88	123.73
300.094	15.19
300.309	-7.34
300.523	29.52
300.737	29.52
300.952	66.39
301.166	86.87
301.381	-81.07
301.595	-44.2
301.809	21.33
302.024	58.2
302.238	-50.35
302.452	129.88
302.667	-7.34
302.881	52.05
303.095	17.24
303.309	123.73
303.524	-70.83
303.738	4.95
303.952	-1.19
304.166	86.87
304.381	-136.36
304.595	54.1
304.809	-58.54
305.023	33.62
305.237	19.29
305.452	-103.59
305.666	35.67
305.88	103.25
306.094	84.82
306.308	62.29
306.522	29.52
306.736	-3.24
306.95	131.92
307.164	4.95
307.379	56.15
307.593	58.2
307.807	72.53
308.021	60.24
308.235	58.2
308.449	-68.78
308.663	11.09
308.877	168.79
309.091	64.34
309.305	86.87
309.519	-95.4
309.733	60.24
309.947	-99.5
310.161	50
310.374	88.92
310.588	25.43
310.802	-40.11
311.016	9.05
311.23	29.52
311.444	-44.2
311.658	-27.82
311.872	74.58
312.085	148.31
312.299	162.64
312.513	93.01
312.727	31.57
312.941	-13.48
313.154	82.77
313.368	0.85
313.582	21.33
313.796	101.2
314.009	31.57
314.223	144.21
314.437	39.76
314.651	47.96
314.864	72.53
315.078	-44.2
315.292	-50.35
315.505	-44.2
315.719	97.11
315.933	-13.48
316.146	-64.68
316.36	4.95
316.573	50
316.787	105.3
317.001	111.44
317.214	-23.72
317.428	41.81
317.641	-27.82
317.855	0.85
318.068	86.87
318.282	58.2
318.495	164.69
318.709	25.43
318.922	27.48
319.136	146.26
319.349	88.92
319.563	-81.07
319.776	78.68
319.99	-95.4
320.203	-1.19
320.417	9.05
320.63	113.49
320.843	113.49
321.057	9.05
321.27	33.62
321.483	60.24
321.697	138.07
321.91	72.53
322.124	56.15
322.337	29.52
322.55	-79.02
322.763	54.1
322.977	84.82
323.19	-3.24
323.403	74.58
323.617	68.44
323.83	95.06
324.043	9.05
324.256	25.43
324.469	-7.34
324.683	191.31
324.896	60.24
325.109	-11.43
325.322	-105.64
325.535	90.96
325.748	68.44
325.962	99.16
326.175	-3.24
326.388	66.39
326.601	136.02
326.814	17.24
327.027	43.86
327.24	189.27
327.453	-23.72
327.666	84.82
327.879	88.92
328.092	72.53
328.305	86.87
328.518	39.76
328.731	-56.49
328.944	58.2
329.157	15.19
329.37	9.05
329.583	95.06
329.796	78.68
330.009	-27.82
330.222	152.4
330.435	93.01
330.648	66.39
330.861	-40.11
331.073	-21.67
331.286	88.92
331.499	15.19
331.712	-50.35
331.925	-21.67
332.138	33.62
332.35	23.38
332.563	0.85
332.776	93.01
332.989	-27.82
333.202	23.38
333.414	80.72
333.627	17.24
333.84	37.72
334.053	60.24
334.265	15.19
334.478	-33.96
334.691	4.95
334.903	-27.82
335.116	0.85
335.329	23.38
335.541	-7.34
335.754	189.27
335.966	-36.01
336.179	2.9
336.392	-99.5
336.604	47.96
336.817	160.59
337.029	47.96
337.242	72.53
337.454	113.49
337.667	103.25
337.88	156.5
338.092	39.76
338.305	125.78
338.517	23.38
338.729	58.2
338.942	50
339.154	-62.63
339.367	-25.77
339.579	31.57
339.792	-23.72
340.004	31.57
340.217	25.43
340.429	50
340.641	0.85
340.854	-89.26
341.066	-44.2
341.278	9.05
341.491	140.12
341.703	54.1
341.915	-87.21
342.128	21.33
342.34	72.53
342.552	-54.44
342.764	7
342.977	9.05
343.189	78.68
343.401	64.34
343.613	-74.92
343.826	23.38
344.038	-162.98
344.25	25.43
344.462	-60.59
344.674	-5.29
344.886	39.76
345.099	17.24
345.311	121.68
345.523	7
345.735	-72.87
345.947	-11.43
346.159	60.24
346.371	-7.34
346.583	-19.63
346.795	131.92
347.007	-40.11
347.219	93.01
347.431	21.33
347.643	119.64
347.855	-48.3
348.067	107.35
348.279	-111.78
348.491	107.35
348.703	131.92
348.915	35.67
349.127	-1.19
349.339	72.53
349.551	-23.72
349.763	88.92
349.975	-11.43
350.187	62.29
350.399	144.21
350.61	82.77
350.822	27.48
351.034	29.52
351.246	21.33
351.458	-25.77
351.669	43.86
351.881	47.96
352.093	111.44
352.305	127.83
352.517	80.72
352.728	125.78
352.94	-62.63
353.152	54.1
353.363	-19.63
353.575	66.39
353.787	136.02
353.999	62.29
354.21	199.51
354.422	-19.63
354.633	13.14
354.845	23.38
355.057	35.67
355.268	127.83
355.48	109.4
355.692	-79.02
355.903	-25.77
356.115	-56.49
356.326	-72.87
356.538	88.92
356.749	86.87
356.961	107.35
357.172	35.67
357.384	-29.87
357.595	201.55
357.807	-48.3
358.018	4.95
358.23	50
358.441	123.73
358.653	66.39
358.864	25.43
359.075	-36.01
359.287	101.2
359.498	113.49
359.709	62.29
359.921	33.62
360.132	78.68
360.344	-5.29
360.555	-11.43
360.766	68.44
360.977	9.05
361.189	54.1
361.4	37.72
361.611	70.48
361.823	136.02
362.034	64.34
362.245	-93.35
362.456	13.14
362.667	131.92
362.879	-83.11
363.09	90.96
363.301	86.87
363.512	23.38
363.723	-23.72
363.935	-64.68
364.146	93.01
364.357	-15.53
364.568	66.39
364.779	-70.83
364.99	170.83
365.201	-36.01
365.412	189.27
365.623	-95.4
365.834	64.34
366.045	-7.34
366.256	76.63
366.467	82.77
366.678	-44.2
366.889	37.72
367.1	47.96
367.311	107.35
367.522	-13.48
367.733	47.96
367.944	11.09
368.155	35.67
368.366	113.49
368.577	13.14
368.788	117.59
368.999	25.43
369.209	-23.72
369.42	215.89
369.631	170.83
369.842	111.44
370.053	9.05
370.264	86.87
370.474	-36.01
370.685	17.24
370.896	-23.72
371.107	136.02
371.317	86.87
371.528	-9.39
371.739	47.96
371.95	37.72
372.16	183.12
372.371	-50.35
372.582	-3.24
372.792	72.53
373.003	148.31
373.214	13.14
373.424	109.4
373.635	-58.54
373.846	82.77
374.056	9.05
374.267	62.29
374.477	80.72
374.688	-9.39
374.898	54.1
375.109	62.29
375.319	-25.77
375.53	78.68
375.74	93.01
375.951	31.57
376.161	11.09
376.372	80.72
376.582	25.43
376.793	-3.24
377.003	23.38
377.214	-21.67
377.424	64.34
377.635	33.62
377.845	-17.58
378.055	93.01
378.266	-9.39
378.476	17.24
378.686	56.15
378.897	117.59
379.107	125.78
379.317	68.44
379.528	-38.06
379.738	88.92
379.948	-5.29
380.158	93.01
380.369	52.05
380.579	45.91
380.789	27.48
380.999	119.64
381.21	136.02
381.42	72.53
381.63	-15.53
381.84	146.26
382.05	31.57
382.261	121.68
382.471	-25.77
382.681	-105.64
382.891	133.97
383.101	80.72
383.311	29.52
383.521	-81.07
383.731	95.06
383.941	47.96
384.151	113.49
384.361	23.38
384.571	2.9
384.781	-3.24
384.991	199.51
385.201	183.12
385.411	148.31
385.621	15.19
385.831	29.52
386.041	-1.19
386.251	52.05
386.461	86.87
386.671	41.81
386.881	41.81
387.091	-5.29
387.301	103.25
387.511	84.82
387.72	72.53
387.93	43.86
388.14	-52.39
388.35	-15.53
388.56	107.35
388.769	119.64
388.979	29.52
389.189	-52.39
389.399	19.29
389.609	82.77
389.818	62.29
390.028	43.86
390.238	-19.63
390.447	-33.96
390.657	37.72
390.867	17.24
391.076	-64.68
391.286	115.54
391.496	-11.43
391.705	62.29
391.915	164.69
392.125	88.92
392.334	35.67
392.544	131.92
392.753	70.48
392.963	-48.3
393.172	117.59
393.382	-42.15
393.591	105.3
393.801	39.76
394.01	123.73
394.22	80.72
394.429	-27.82
394.639	4.95
394.848	15.19
395.058	113.49
395.267	58.2
395.477	97.11
395.686	-33.96
395.895	156.5
396.105	240.47
396.314	-58.54
396.524	33.62
396.733	-89.26
396.942	113.49
397.152	58.2
397.361	115.54
397.57	88.92
397.78	29.52
397.989	41.81
398.198	152.4
398.407	78.68
398.617	52.05
398.826	72.53
399.035	88.92
399.244	76.63
399.453	76.63
399.663	-33.96
399.872	52.05
400.081	-19.63
400.29	74.58
400.499	-42.15
400.708	105.3
400.917	33.62
401.127	39.76
401.336	0.85
401.545	179.03
401.754	84.82
401.963	138.07
402.172	-3.24
402.381	-13.48
402.59	2.9
402.799	-40.11
403.008	133.97
403.217	7
403.426	50
403.635	-74.92
403.844	-36.01
404.053	-54.44
404.262	54.1
404.471	144.21
404.68	25.43
404.888	-33.96
405.097	33.62
405.306	56.15
405.515	119.64
405.724	27.48
405.933	154.45
406.142	72.53
406.35	99.16
406.559	-1.19
406.768	-1.19
406.977	129.88
407.185	7
407.394	95.06
407.603	2.9
407.812	107.35
408.02	105.3
408.229	21.33
408.438	-17.58
408.646	-132.26
408.855	35.67
409.064	70.48
409.272	37.72
409.481	25.43
409.69	-50.35
409.898	-105.64
410.107	56.15
410.315	90.96
410.524	-31.91
410.733	97.11
410.941	88.92
411.15	47.96
411.358	68.44
411.567	123.73
411.775	43.86
411.984	68.44
412.192	68.44
412.401	-70.83
412.609	191.31
412.818	111.44
413.026	105.3
413.234	-3.24
413.443	50
413.651	31.57
413.86	-48.3
414.068	121.68
414.276	123.73
414.485	-3.24
414.693	50
414.901	172.88
415.11	121.68
415.318	13.14
415.526	-31.91
415.734	115.54
415.943	76.63
416.151	88.92
416.359	19.29
416.567	60.24
416.776	76.63
416.984	76.63
417.192	140.12
417.4	-54.44
417.608	-31.91
417.817	-87.21
418.025	101.2
418.233	123.73
418.441	-23.72
418.649	19.29
418.857	45.91
419.065	138.07
419.273	-33.96
419.481	-15.53
419.689	68.44
419.897	43.86
420.105	11.09
420.313	64.34
420.521	156.5
420.729	99.16
420.937	19.29
421.145	37.72
421.353	125.78
421.561	140.12
421.769	47.96
421.977	-29.87
422.185	93.01
422.393	15.19
422.601	160.59
422.809	37.72
423.017	95.06
423.224	111.44
423.432	146.26
423.64	7
423.848	133.97
424.056	64.34
424.263	23.38
424.471	-31.91
424.679	148.31
424.887	-62.63
425.094	148.31
425.302	39.76
425.51	47.96
425.718	119.64
425.925	31.57
426.133	-33.96
426.341	164.69
426.548	78.68
426.756	11.09
426.964	17.24
427.171	58.2
427.379	105.3
427.586	144.21
427.794	117.59
428.001	187.22
428.209	117.59
428.417	189.27
428.624	185.17
428.832	93.01
429.039	86.87
429.247	125.78
429.454	97.11
429.662	189.27
429.869	158.55
430.076	111.44
430.284	213.84
430.491	232.27
430.699	117.59
430.906	181.07
431.114	127.83
431.321	80.72
431.528	148.31
431.736	150.36
431.943	121.68
432.15	78.68
432.358	197.46
432.565	240.47
432.772	-21.67
432.979	174.93
433.187	144.21
433.394	203.6
433.601	113.49
433.808	222.03
434.016	172.88
434.223	197.46
434.43	215.89
434.637	244.56
434.844	236.37
435.052	191.31
435.259	226.13
435.466	256.85
435.673	224.08
435.88	320.34
436.087	316.24
436.294	344.91
436.501	322.38
436.708	355.15
436.915	285.52
437.122	285.52
437.329	224.08
437.537	312.14
437.743	283.47
437.95	566.09
438.157	373.58
438.364	369.49
438.571	367.44
438.778	445.26
438.985	387.92
439.192	547.66
439.399	365.39
439.606	492.37
439.813	426.83
440.02	529.23
440.227	615.24
440.433	512.85
440.64	496.46
440.847	392.02
441.054	551.76
441.261	643.92
441.467	654.16
441.674	564.04
441.881	766.79
442.088	662.35
442.294	662.35
442.501	764.75
442.708	772.94
442.914	662.35
443.121	869.19
443.328	871.24
443.534	846.66
443.741	789.32
443.948	799.56
444.154	983.88
444.361	1033.03
444.568	975.69
444.774	967.49
444.981	928.58
445.187	1235.78
445.394	1174.34
445.6	1084.23
445.807	1332.03
446.013	1356.61
446.22	1270.59
446.426	1379.14
446.633	1418.05
446.839	1616.7
447.046	1409.86
447.252	1516.35
447.459	1506.11
447.665	1555.26
447.871	1784.63
448.078	1870.65
448.284	1874.74
448.491	1989.43
448.697	1870.65
448.903	2114.36
449.11	2147.12
449.316	2110.26
449.522	2302.77
449.728	2335.54
449.935	2560.81
450.141	2435.89
450.347	2614.06
450.553	2652.97
450.76	2765.61
450.966	2767.66
451.172	2874.15
451.378	3035.94
451.584	3001.13
451.791	3382.05
451.997	3443.49
452.203	3513.12
452.409	3523.36
452.615	3750.68
452.821	3840.79
453.027	3846.94
453.233	4436.75
453.44	4170.52
453.646	4379.41
453.852	4514.58
454.058	4717.33
454.264	4832.01
454.47	5296.9
454.676	5327.62
454.882	5737.21
455.088	5489.41
455.294	5966.59
455.5	6148.86
455.705	6488.82
455.911	6556.4
456.117	6710
456.323	6902.51
456.529	6976.23
456.735	7447.27
456.941	7785.18
457.147	8014.56
457.352	8471.25
457.558	8397.53
457.764	8983.24
457.97	9280.2
458.176	9794.24
458.381	10261.18
458.587	10230.46
458.793	10738.35
458.999	10896.05
459.204	12126.88
459.41	12757.65
459.616	12438.17
459.821	13202.06
460.027	13607.56
460.233	14387.83
460.438	14238.33
460.644	15067.76
460.85	15374.95
461.055	15942.24
461.261	16626.26
461.466	16443.99
461.672	16579.16
461.878	18819.64
462.083	18446.91
462.289	18950.71
462.494	19513.9
462.7	19894.82
462.905	20109.86
463.111	21639.69
463.316	22815.23
463.522	22954.49
463.727	23646.7
463.932	24809.95
464.138	25588.17
464.343	26520
464.549	26786.24
464.754	28817.82
464.959	29524.37
465.165	29882.77
465.37	29735.31
465.575	30024.08
465.781	31793.52
465.986	32510.31
466.191	32190.83
466.397	32088.43
466.602	31541.62
466.807	33562.97
467.012	34003.28
467.218	34775.36
467.423	34715.97
467.628	35948.85
467.833	37570.84
468.038	37144.86
468.244	36632.87
468.449	38312.2
468.654	37312.8
468.859	37060.9
469.064	37439.77
469.269	36528.42
469.474	36729.12
469.679	37515.54
469.885	36630.82
470.09	37476.63
470.295	37261.6
470.5	36337.96
470.705	36708.65
470.91	35623.22
471.115	35432.76
471.32	36086.06
471.525	35793.2
471.73	34462.02
471.935	34072.91
472.139	33341.78
472.344	33282.39
472.549	32487.78
472.754	32332.14
472.959	31517.04
473.164	30548.36
473.369	30011.79
473.574	31054.2
473.778	30390.66
473.983	29776.27
474.188	29487.51
474.393	27707.82
474.598	27783.6
474.802	27068.86
475.007	27146.68
475.212	26665.41
475.417	25371.09
475.621	25536.98
475.826	24994.26
476.031	24287.71
476.235	23880.17
476.44	23720.43
476.645	23474.67
476.849	23042.55
477.054	22800.89
477.259	22065.67
477.463	22254.08
477.668	21203.47
477.872	21490.19
478.077	21135.89
478.282	20249.12
478.486	20195.87
478.691	20320.8
478.895	19755.56
479.1	19524.14
479.304	19767.85
479.509	18850.36
479.713	19157.55
479.918	18778.68
480.122	18291.26
480.326	18684.47
480.531	18496.06
480.735	18301.5
480.94	18020.93
481.144	18530.87
481.348	17261.13
481.553	17785.41
481.757	17148.5
481.961	17332.81
482.166	17371.72
482.37	17103.44
482.574	16669.27
482.778	16769.62
482.983	17414.73
483.187	16654.94
483.391	16675.41
483.595	16380.51
483.8	15948.39
484.004	16167.52
484.208	16171.61
484.412	15948.39
484.616	15841.89
484.821	15567.46
485.025	15090.29
485.229	15161.97
485.433	14957.17
485.637	14885.49
485.841	14514.81
486.045	14162.56
486.249	14191.23
486.453	13877.89
486.657	13892.23
486.861	13636.23
487.065	13087.37
487.269	13087.37
487.473	12800.66
487.677	12997.26
487.881	12903.06
488.085	12173.98
488.289	12178.08
488.493	11979.42
488.697	12040.86
488.901	11655.84
489.105	11201.19
489.309	11150
489.512	10980.01
489.716	10795.7
489.92	10607.28
490.124	10320.57
490.328	10193.59
490.531	10029.76
490.735	10011.32
490.939	9669.31
491.143	9437.89
491.346	9413.32
491.55	9333.45
491.754	9188.04
491.958	8915.66
492.161	8850.13
492.365	8800.98
492.569	8405.72
492.772	8295.13
492.976	8323.8
493.18	8159.96
493.383	8020.7
493.587	8037.08
493.79	7942.88
493.994	7627.49
494.197	7742.18
494.401	7439.08
494.605	7453.41
494.808	7574.24
495.012	7650.02
495.215	7207.66
495.419	7398.12
495.622	7226.09
495.825	7058.15
496.029	7170.79
496.232	7279.33
496.436	6961.9
496.639	7262.95
496.843	7113.45
497.046	7140.07
497.249	7318.25
497.453	7086.83
497.656	6914.8
497.859	6974.19
498.063	6933.23
498.266	6949.61
498.469	6953.71
498.673	6986.47
498.876	7248.61
499.079	7078.63
499.282	7336.68
499.485	7535.33
499.689	7115.5
499.892	7205.61
500.095	7215.85
500.298	7461.6
500.501	7412.45
500.705	7506.66
500.908	7533.28
501.111	7525.09
501.314	7588.58
501.517	7830.24
501.72	7736.03
501.923	7850.72
502.126	7856.86
502.329	8198.87
502.532	8121.05
502.735	8260.31
502.938	8514.26
503.141	8403.67
503.344	8456.92
503.547	8674
503.75	8624.85
503.953	8674
504.156	8966.86
504.359	9077.45
504.562	9151.18
504.765	9366.21
504.968	9421.51
505.17	9417.41
505.373	9724.61
505.576	9843.39
505.779	9867.97
505.982	10246.84
506.185	10187.45
506.387	10494.65
506.59	10730.16
506.793	10986.16
506.996	10984.11
507.198	11393.7
507.401	11436.71
507.604	11727.52
507.807	11868.83
508.009	12280.47
508.212	12178.08
508.415	12503.7
508.617	12987.02
508.82	13197.96
509.022	13189.77
509.225	13945.47
509.428	13961.86
509.63	14166.65
509.833	14400.12
510.035	15032.94
510.238	15004.27
510.44	15239.79
510.643	15759.97
510.845	16173.66
511.048	16181.85
511.25	16749.14
511.453	17173.07
511.655	17846.85
511.858	18143.81
512.06	18563.64
512.262	18561.59
512.465	19169.84
512.667	19618.35
512.87	19907.11
513.072	20236.83
513.274	20916.76
513.477	21428.75
513.679	21981.7
513.881	22534.65
514.084	22833.66
514.286	23556.59
514.488	23929.32
514.69	24723.93
514.893	24791.52
515.095	25622.99
515.297	26202.57
515.499	26685.89
515.701	27251.13
515.904	27830.7
516.106	28506.53
516.308	28582.31
516.51	29766.03
516.712	30232.97
516.914	30757.25
517.116	31248.76
517.318	31895.92
517.52	32442.73
517.722	33089.88
517.925	33947.98
518.127	34507.08
518.329	35422.52
518.531	34998.59
518.733	35950.9
518.935	36475.18
519.136	37130.53
519.338	38129.94
519.54	38754.57
519.742	39196.93
519.944	39229.69
520.146	40562.92
520.348	40882.41
520.55	41640.15
520.752	41431.26
520.954	42436.81
521.155	42692.81
521.357	43649.21
521.559	44400.82
521.761	44898.47
521.963	44779.69
522.164	45492.38
522.366	45488.29
522.568	46596.24
522.77	46684.3
522.971	47325.32
523.173	46913.67
523.375	47446.15
523.576	47720.57
523.778	47618.17
523.98	48466.03
524.181	49107.05
524.383	48779.37
524.584	49344.61
524.786	49086.57
524.988	49252.45
525.189	49891.42
525.391	49778.78
525.592	49860.7
525.794	49913.95
525.995	49500.26
526.197	49637.47
526.398	50034.78
526.6	49985.63
526.801	49444.96
527.003	49821.79
527.204	49473.63
527.406	49813.6
527.607	49188.97
527.808	49293.41
528.01	48498.8
528.211	48441.46
528.412	48683.12
528.614	48830.57
528.815	47622.27
529.016	48015.48
529.218	46719.12
529.419	47102.09
529.62	46280.85
529.822	46117.01
530.023	45535.39
530.224	45541.53
530.425	44644.52
530.626	44466.35
530.828	43555
531.029	43956.41
531.23	42856.65
531.431	42832.07
531.632	42420.43
531.833	42055.89
532.035	41351.39
532.236	40966.37
532.437	40636.65
532.638	40138.99
532.839	39467.26
533.04	39528.7
533.241	38201.61
533.442	38435.08
533.643	37570.84
533.844	37519.64
534.045	37118.24
534.246	36129.07
534.447	35959.09
534.648	35506.49
534.849	35141.95
535.05	34367.82
535.251	34056.53
535.451	33585.49
535.652	33528.15
535.853	32577.89
536.054	32452.97
536.255	31926.64
536.456	30925.18
536.657	31408.5
536.857	30704
537.058	30257.54
537.259	29927.82
537.46	29831.57
537.66	28854.69
537.861	28510.63
538.062	28090.79
538.263	27822.51
538.463	27486.64
538.664	27224.5
538.865	26853.82
539.065	26741.18
539.266	26448.32
539.466	26358.21
539.667	25563.6
539.868	25285.08
540.068	25274.84
540.269	24779.23
540.469	24422.88
540.67	24451.55
540.87	23994.86
541.071	23828.97
541.271	23671.28
541.472	23280.11
541.672	23054.84
541.873	22475.26
542.073	22204.93
542.274	22417.92
542.474	21979.65
542.675	21398.03
542.875	21520.91
543.075	20943.38
543.276	20472.35
543.476	20834.84
543.676	20525.6
543.877	20279.84
544.077	20038.18
544.277	19624.49
544.478	19755.56
544.678	19483.18
544.878	19315.25
545.078	19049.01
545.279	18530.87
545.479	18852.41
545.679	18620.99
545.879	18424.38
546.079	18102.85
546.28	17699.4
546.48	17328.72
546.68	17572.43
546.88	17535.56
547.08	16939.6
547.28	16779.86
547.48	16495.19
547.68	16390.75
547.88	16097.89
548.081	16005.73
548.281	15831.65
548.481	15354.48
548.681	15530.6
548.881	14981.74
549.081	15049.33
549.28	14580.34
549.48	14635.64
549.68	14406.27
549.88	14211.71
550.08	14092.93
550.28	14049.92
550.48	14023.3
550.68	13666.95
550.88	13181.58
551.08	13064.85
551.279	12872.34
551.479	12669.59
551.679	12608.15
551.879	12450.46
552.079	12296.86
552.278	12010.14
552.478	12026.53
552.678	11856.54
552.878	11465.38
553.077	11295.4
553.277	11023.02
553.477	11190.95
553.676	10846.9
553.876	10732.21
554.076	10566.32
554.275	10328.76
554.475	10148.54
554.674	10070.72
554.874	9755.33
555.074	9710.27
555.273	9671.36
555.473	9462.47
555.672	9183.95
555.872	9020.11
556.071	8905.42
556.271	8995.53
556.47	8669.91
556.67	8547.03
556.869	8311.51
557.068	8401.62
557.268	8133.34
557.467	8145.63
557.667	7912.16
557.866	7762.65
558.065	7719.65
558.265	7480.04
558.464	7320.29
558.663	7400.16
558.863	7135.98
559.062	7183.08
559.261	6808.3
559.461	7072.49
559.66	6634.22
559.859	6601.46
560.058	6329.08
560.258	6380.28
560.457	6302.45
560.656	6374.13
560.855	6105.85
561.054	6064.89
561.253	5925.63
561.453	5931.77
561.652	5767.93
561.851	5712.64
562.05	5479.17
562.249	5262.09
562.448	5427.97
562.647	5231.37
562.846	5294.85
563.045	5180.17
563.244	5096.2
563.443	4997.9
563.642	4948.75
563.841	4983.56
564.04	4875.02
564.239	4799.24
564.438	4647.69
564.637	4553.49
564.836	4492.05
565.035	4317.97
565.234	4342.55
565.432	4197.14
565.631	4256.53
565.83	4262.68
566.029	4021.02
566.228	4027.16
566.427	4002.58
566.625	3844.89
566.824	3853.08
567.023	3863.32
567.222	3689.25
567.42	3828.51
567.619	3711.77
567.818	3537.7
568.016	3715.87
568.215	3650.33
568.414	3584.8
568.612	3328.8
568.811	3300.13
569.01	3347.23
569.208	3232.55
569.407	3234.6
569.605	3138.34
569.804	3171.11
570.002	3150.63
570.201	3021.61
570.4	2939.69
570.598	2960.17
570.797	2886.44
570.995	2908.97
571.193	2847.53
571.392	2751.28
571.59	2655.02
571.789	2876.2
571.987	2736.94
572.186	2736.94
572.384	2378.55
572.582	2544.43
572.781	2564.91
572.979	2380.59
573.177	2507.57
573.376	2468.66
573.574	2384.69
573.772	2356.02
573.971	2218.8
574.169	2208.56
574.367	2253.62
574.565	2130.74
574.763	2100.02
574.962	2112.31
575.16	2024.25
575.358	2005.81
575.556	1903.42
575.754	1962.81
575.952	1971
576.151	1901.37
576.349	1899.32
576.547	1766.2
576.745	1768.25
576.943	1891.13
577.141	1778.49
577.339	1631.04
577.537	1741.63
577.735	1721.15
577.933	1663.8
578.131	1508.16
578.329	1575.74
578.527	1602.36
578.725	1620.8
578.923	1413.95
579.121	1585.98
579.319	1436.48
579.516	1538.88
579.714	1628.99
579.912	1463.1
580.11	1385.28
580.308	1338.18
580.506	1364.8
580.704	1141.57
580.901	1188.68
581.099	1366.85
581.297	1284.93
581.495	1307.46
581.692	1186.63
581.89	1317.7
582.088	1153.86
582.285	1215.3
582.483	1084.23
582.681	1162.05
582.878	1010.5
583.076	1090.37
583.274	1129.28
583.471	1211.2
583.669	1080.13
583.866	916.3
584.064	1090.37
584.262	924.49
584.459	963.4
584.657	1078.08
584.854	1065.8
585.052	1026.89
585.249	998.21
585.447	969.54
585.644	889.67
585.841	983.88
586.039	830.28
586.236	1037.13
586.434	908.1
586.631	834.38
586.828	891.72
587.026	789.32
587.223	697.16
587.42	752.46
587.618	942.92
587.815	918.34
588.012	809.8
588.21	750.41
588.407	828.23
588.604	791.37
588.801	717.64
588.999	781.13
589.196	836.42
589.393	637.77
589.59	764.75
589.787	770.89
589.984	680.78
590.182	721.74
590.379	727.88
590.576	674.64
590.773	709.45
590.97	807.75
591.167	633.68
591.364	688.97
591.561	600.91
591.758	766.79
591.955	734.03
592.152	766.79
592.349	740.17
592.546	580.43
592.743	697.16
592.94	701.26
593.137	803.66
593.334	734.03
593.531	637.77
593.727	691.02
593.924	723.79
594.121	680.78
594.318	654.16
594.515	748.36
594.712	838.47
594.908	770.89
595.105	680.78
595.302	748.36
595.499	748.36
595.696	885.58
595.892	758.6
596.089	869.19
596.286	764.75
596.482	953.16
596.679	828.23
596.876	830.28
597.072	844.62
597.269	920.39
597.466	985.93
597.662	891.72
597.859	863.05
598.055	1016.65
598.252	969.54
598.448	1137.48
598.645	1186.63
598.841	1149.76
599.038	1237.83
599.234	1379.14
599.431	1385.28
599.627	1387.33
599.824	1452.86
600.02	1465.15
600.217	1383.23
600.413	1514.3
600.609	1557.31
600.806	1899.32
601.002	1778.49
601.198	1649.47
601.395	1829.69
601.591	1899.32
601.787	1983.29
601.984	2100.02
602.18	2114.36
602.376	2186.04
602.572	2345.78
602.769	2532.14
602.965	2433.84
603.161	2526
603.357	2593.58
603.553	2788.14
603.75	2755.37
603.946	2939.69
604.142	3074.85
604.338	3095.33
604.534	3234.6
604.73	3410.72
604.926	3386.15
605.122	3562.27
605.318	3615.52
605.514	3957.53
605.71	3840.79
605.906	4090.65
606.102	4043.54
606.298	4326.16
606.494	4569.87
606.69	4707.09
606.886	4657.93
607.082	4700.94
607.278	4895.5
607.474	5057.29
607.67	5266.18
607.866	5231.37
608.062	5638.91
608.257	5600
608.453	5593.86
608.649	6109.94
608.845	5921.53
609.041	6238.97
609.236	6537.97
609.432	6681.33
609.628	6802.16
609.824	6980.33
610.019	7052.01
610.215	7301.86
610.411	7619.3
610.606	7736.03
610.802	7858.91
610.998	8196.82
611.193	8479.44
611.389	8579.79
611.584	8878.8
611.78	8874.7
611.976	9190.09
612.171	9663.17
612.367	9728.7
612.562	10097.34
612.758	10269.37
612.953	10306.23
613.149	10998.45
613.344	10812.08
613.539	11233.96
613.735	11821.73
613.93	11981.47
614.126	12102.3
614.321	12847.76
614.517	12987.02
614.712	13146.76
614.907	13685.38
615.103	13810.31
615.298	14373.5
615.493	14836.34
615.688	14537.34
615.884	15616.62
616.079	15501.93
616.274	16306.78
616.47	16271.97
616.665	17078.86
616.86	17406.54
617.055	17633.86
617.25	18082.37
617.445	18655.8
617.641	18850.36
617.836	19671.59
618.031	19808.81
618.226	20568.6
618.421	20959.77
618.616	21549.58
618.811	21813.77
619.006	22538.75
619.201	22612.48
619.396	23273.97
619.591	23636.46
619.786	24318.43
619.981	24410.59
620.176	25493.97
620.371	25778.64
620.566	26184.13
620.761	26874.3
620.956	27455.92
621.151	27711.92
621.346	28445.09
621.541	28826.01
621.735	29852.05
621.93	30011.79
622.125	30552.45
622.32	30833.02
622.515	31957.36
622.709	32051.56
622.904	33071.45
623.099	33159.52
623.294	34027.85
623.488	34330.95
623.683	35213.63
623.878	35537.21
624.072	36612.39
624.267	37030.18
624.462	37255.45
624.656	37689.62
624.851	38742.28
625.046	39108.86
625.24	39381.24
625.435	39862.52
625.629	40409.32
625.824	40814.82
626.018	41474.27
626.213	41621.72
626.407	42506.44
626.602	42678.47
626.796	43526.33
626.991	43843.77
627.185	44325.04
627.38	44544.17
627.574	44636.33
627.768	44814.51
627.963	45150.37
628.157	45177
628.352	45465.76
628.546	44449.97
628.74	45832.35
628.935	44824.75
629.129	45488.29
629.323	44204.21
629.517	44722.35
629.712	44366
629.906	43989.17
630.1	43141.32
630.294	43446.46
630.489	42387.66
630.683	42442.96
630.877	40937.7
631.071	40263.92
631.265	40130.8
631.459	39162.11
631.653	37916.95
631.848	37525.78
632.042	36401.45
632.236	35662.13
632.43	34543.94
632.624	33765.71
632.818	32903.52
633.012	31490.42
633.206	30390.66
633.4	29342.1
633.594	28514.72
633.788	27967.91
633.982	26677.69
634.176	26108.36
634.369	24783.32
634.563	24150.5
634.757	22649.34
634.951	22145.54
635.145	21451.28
635.339	20527.64
635.533	19524.14
635.726	18983.48
635.92	17887.81
636.114	17351.24
636.308	16652.89
636.501	15784.55
636.695	15219.31
636.889	14561.91
637.083	14109.31
637.276	13539.97
637.47	12919.44
637.664	12440.22
637.857	12221.08
638.051	11512.49
638.244	11172.52
638.438	10672.82
638.632	10293.94
638.825	9761.47
639.019	9458.37
639.212	8641.23
639.406	8682.19
639.599	8219.35
639.793	7910.11
639.986	7570.15
640.18	7357.16
640.373	6986.47
640.567	6628.08
640.76	6511.35
640.954	6284.02
641.147	5985.02
641.34	5739.26
641.534	5559.04
641.727	5370.63
641.92	5268.23
642.114	5024.52
642.307	4731.66
642.5	4680.46
642.694	4375.31
642.887	4281.11
643.08	4225.81
643.273	4031.26
643.467	3799.84
643.66	3646.24
643.853	3506.98
644.046	3263.27
644.239	3273.51
644.432	3115.81
644.626	2773.8
644.819	2861.87
645.012	2726.7
645.205	2818.86
645.398	2612.01
645.591	2376.5
645.784	2255.67
645.977	2212.66
646.17	2220.85
646.363	2165.56
646.556	1964.86
646.749	1919.8
646.942	1936.18
647.135	1852.22
647.328	1735.48
647.521	1725.24
647.714	1610.56
647.907	1665.85
648.099	1416
648.292	1469.25
648.485	1444.67
648.678	1303.36
648.871	1235.78
649.064	1354.56
649.256	1012.55
649.449	1166.15
649.642	1026.89
649.835	955.21
650.027	961.35
650.22	1022.79
650.413	904.01
650.605	1069.89
650.798	793.42
650.991	924.49
651.183	846.66
651.376	850.76
651.568	779.08
651.761	750.41
651.954	746.31
652.146	711.5
652.339	684.87
652.531	781.13
652.724	586.57
652.916	625.48
653.109	508.75
653.301	770.89
653.494	643.92
653.686	666.44
653.879	600.91
654.071	596.81
654.263	549.71
654.456	426.83
654.648	506.7
654.84	523.09
655.033	475.98
655.225	594.76
655.417	342.86
655.61	545.61
655.802	473.93
655.994	514.89
656.186	373.58
656.379	539.47
656.571	371.54
656.763	332.62
656.955	312.14
657.148	353.1
657.34	373.58
657.532	428.88
657.724	367.44
657.916	361.3
658.108	414.54
658.3	289.62
658.492	402.26
658.684	295.76
658.876	299.86
659.068	230.23
659.26	205.65
659.452	136.02
659.644	379.73
659.836	361.3
660.028	234.32
660.22	181.07
660.412	271.19
660.604	285.52
660.796	359.25
660.988	303.95
661.18	279.38
661.372	273.23
661.563	273.23
661.755	244.56
661.947	160.59
662.139	224.08
662.331	207.7
662.522	219.99
662.714	131.92
662.906	97.11
663.097	232.27
663.289	90.96
663.481	158.55
663.673	265.04
663.864	234.32
664.056	260.95
664.247	88.92
664.439	238.42
664.631	209.75
664.822	361.3
665.014	222.03
665.205	115.54
665.397	123.73
665.588	185.17
665.78	176.98
665.971	181.07
666.163	176.98
666.354	187.22
666.546	103.25
666.737	146.26
666.929	170.83
667.12	176.98
667.311	228.18
667.503	150.36
667.694	179.03
667.885	174.93
668.077	181.07
668.268	56.15
668.459	158.55
668.651	234.32
668.842	260.95
669.033	78.68
669.224	144.21
669.416	357.2
669.607	140.12
669.798	101.2
669.989	275.28
670.18	101.2
670.371	199.51
670.563	82.77
670.754	191.31
670.945	170.83
671.136	228.18
671.327	97.11
671.518	258.9
671.709	334.67
671.9	312.14
672.091	226.13
672.282	215.89
672.473	176.98
672.664	103.25
672.855	115.54
673.046	258.9
673.237	318.29
673.428	156.5
673.619	289.62
673.809	162.64
674	244.56
674.191	254.8
674.382	148.31
674.573	224.08
674.764	193.36
674.954	279.38
675.145	187.22
675.336	88.92
675.527	170.83
675.717	166.74
675.908	181.07
676.099	156.5
676.289	262.99
676.48	144.21
676.671	246.61
676.861	207.7
677.052	234.32
677.243	230.23
677.433	181.07
677.624	297.81
677.814	271.19
678.005	265.04
678.195	394.06
678.386	219.99
678.576	234.32
678.767	148.31
678.957	240.47
679.148	336.72
679.338	400.21
679.529	312.14
679.719	283.47
679.909	242.51
680.1	357.2
680.29	377.68
680.481	150.36
680.671	279.38
680.861	383.82
681.052	318.29
681.242	205.65
681.432	269.14
681.622	381.78
681.813	236.37
682.003	281.43
682.193	213.84
682.383	332.62
682.573	267.09
682.764	283.47
682.954	279.38
683.144	314.19
683.334	195.41
683.524	291.66
683.714	308.05
683.904	359.25
684.094	314.19
684.284	301.9
684.474	494.41
684.664	408.4
684.854	412.5
685.044	332.62
685.234	383.82
685.424	451.41
685.614	211.79
685.804	455.5
685.994	353.1
686.184	410.45
686.374	314.19
686.564	291.66
686.753	346.96
686.943	211.79
687.133	342.86
687.323	295.76
687.513	402.26
687.702	306
687.892	316.24
688.082	351.06
688.272	371.54
688.461	367.44
688.651	441.17
688.841	426.83
689.03	293.71
689.22	357.2
689.41	416.59
689.599	422.73
689.789	262.99
689.979	443.21
690.168	353.1
690.358	475.98
690.547	379.73
690.737	318.29
690.926	381.78
691.116	385.87
691.305	486.22
691.495	412.5
691.684	320.34
691.874	297.81
692.063	310.1
692.252	451.41
692.442	359.25
692.631	334.67
692.82	275.28
693.01	385.87
693.199	273.23
693.388	351.06
693.578	342.86
693.767	475.98
693.956	377.68
694.146	248.66
694.335	219.99
694.524	342.86
694.713	402.26
694.902	306
695.092	318.29
695.281	349.01
695.47	283.47
695.659	277.33
695.848	295.76
696.037	289.62
696.226	428.88
696.415	422.73
696.604	338.77
696.793	355.15
696.982	320.34
697.171	484.17
697.36	287.57
697.549	326.48
697.738	224.08
697.927	269.14
698.116	283.47
698.305	344.91
698.494	361.3
698.683	281.43
698.872	457.55
699.061	324.43
699.25	291.66
699.438	439.12
699.627	293.71
699.816	484.17
700.005	295.76
700.193	258.9
700.382	394.06
700.571	246.61
700.76	369.49
700.948	408.4
701.137	359.25
701.326	381.78
701.514	275.28
701.703	351.06
701.892	254.8
702.08	531.28
702.269	371.54
702.457	301.9
702.646	285.52
702.834	351.06
703.023	318.29
703.212	508.75
703.4	281.43
703.589	232.27
703.777	303.95
703.965	332.62
704.154	310.1
704.342	289.62
704.531	293.71
704.719	297.81
704.907	430.93
705.096	267.09
705.284	281.43
705.472	269.14
705.661	359.25
705.849	355.15
706.037	381.78
706.226	346.96
706.414	369.49
706.602	310.1
706.79	297.81
706.979	271.19
707.167	363.34
707.355	267.09
707.543	379.73
707.731	416.59
707.919	293.71
708.107	293.71
708.296	262.99
708.484	308.05
708.672	265.04
708.86	285.52
709.048	324.43
709.236	336.72
709.424	367.44
709.612	365.39
709.8	269.14
709.988	357.2
710.176	418.64
710.364	416.59
710.551	365.39
710.739	293.71
710.927	351.06
711.115	338.77
711.303	478.03
711.491	394.06
711.679	248.66
711.866	418.64
712.054	361.3
712.242	379.73
712.43	455.5
712.617	310.1
712.805	330.58
712.993	314.19
713.181	285.52
713.368	396.11
713.556	260.95
713.744	312.14
713.931	518.99
714.119	373.58
714.306	336.72
714.494	308.05
714.682	346.96
714.869	281.43
715.057	340.82
715.244	199.51
715.432	357.2
715.619	355.15
715.807	297.81
715.994	293.71
716.182	396.11
716.369	469.84
716.556	480.08
716.744	248.66
716.931	228.18
717.119	453.45
717.306	326.48
717.493	344.91
717.681	330.58
717.868	359.25
718.055	408.4
718.242	344.91
718.43	432.97
718.617	484.17
718.804	306
718.991	459.6
719.179	396.11
719.366	408.4
719.553	430.93
719.74	320.34
719.927	392.02
720.114	363.34
720.301	275.28
720.488	310.1
720.676	256.85
720.863	418.64
721.05	443.21
721.237	426.83
721.424	414.54
721.611	394.06
721.798	344.91
721.985	248.66
722.172	377.68
722.358	342.86
722.545	418.64
722.732	490.32
722.919	451.41
723.106	461.65
723.293	387.92
723.48	383.82
723.667	349.01
723.853	424.78
724.04	504.65
724.227	541.52
724.414	377.68
724.6	473.93
724.787	502.61
724.974	545.61
725.161	416.59
725.347	320.34
725.534	336.72
725.72	422.73
725.907	510.8
726.094	430.93
726.28	330.58
726.467	428.88
726.653	383.82
726.84	500.56
727.027	500.56
727.213	351.06
727.4	441.17
727.586	494.41
727.773	406.35
727.959	441.17
728.145	484.17
728.332	453.45
728.518	406.35
728.705	492.37
728.891	484.17
729.077	435.02
729.264	375.63
729.45	400.21
729.636	537.42
729.823	453.45
730.009	473.93
730.195	545.61
730.382	424.78
730.568	357.2
730.754	488.27
730.94	342.86
731.126	387.92
731.313	496.46
731.499	308.05
731.685	447.31
731.871	473.93
732.057	465.74
732.243	389.97
732.429	484.17
732.615	547.66
732.801	439.12
732.987	295.76
733.173	478.03
733.359	424.78
733.545	418.64
733.731	377.68
733.917	471.89
734.103	420.69
734.289	455.5
734.475	435.02
734.661	541.52
734.847	400.21
735.033	422.73
735.219	486.22
735.404	459.6
735.59	430.93
735.776	412.5
735.962	398.16
736.148	475.98
736.333	574.28
736.519	465.74
736.705	443.21
736.89	412.5
737.076	543.57
737.262	422.73
737.447	480.08
737.633	430.93
737.819	525.13
738.004	484.17
738.19	336.72
738.375	478.03
738.561	553.8
738.747	439.12
738.932	371.54
739.118	596.81
739.303	381.78
739.489	525.13
739.674	389.97
739.859	422.73
740.045	527.18
740.23	500.56
740.416	387.92
740.601	492.37
740.786	445.26
740.972	426.83
741.157	512.85
741.342	308.05
741.528	430.93
741.713	496.46
741.898	420.69
742.084	475.98
742.269	543.57
742.454	529.23
742.639	543.57
742.824	402.26
743.01	461.65
743.195	549.71
743.38	420.69
743.565	449.36
743.75	381.78
743.935	437.07
744.12	398.16
744.305	359.25
744.49	416.59
744.675	414.54
744.86	381.78
745.045	428.88
745.23	439.12
745.415	402.26
745.6	557.9
745.785	414.54
745.97	478.03
746.155	437.07
746.34	416.59
746.525	500.56
746.71	410.45
746.895	324.43
747.079	406.35
747.264	383.82
747.449	432.97
747.634	490.32
747.819	435.02
748.003	293.71
748.188	359.25
748.373	453.45
748.557	408.4
748.742	428.88
748.927	414.54
749.111	373.58
749.296	373.58
749.481	435.02
749.665	410.45
749.85	308.05
750.034	471.89
750.219	355.15
750.404	361.3
750.588	377.68
750.773	322.38
750.957	346.96
751.141	344.91
751.326	396.11
751.51	246.61
751.695	312.14
751.879	373.58
752.064	490.32
752.248	297.81
752.432	484.17
752.617	299.86
752.801	424.78
752.985	314.19
753.17	383.82
753.354	269.14
753.538	324.43
753.722	326.48
753.907	281.43
754.091	281.43
754.275	363.34
754.459	310.1
754.643	287.57
754.828	326.48
755.012	297.81
755.196	326.48
755.38	308.05
755.564	267.09
755.748	361.3
755.932	404.3
756.116	351.06
756.3	361.3
756.484	195.41
756.668	322.38
756.852	234.32
757.036	262.99
757.22	283.47
757.404	260.95
757.588	228.18
757.772	324.43
757.956	285.52
758.14	422.73
758.323	191.31
758.507	299.86
758.691	217.94
758.875	289.62
759.059	351.06
759.242	232.27
759.426	213.84
759.61	222.03
759.794	222.03
759.977	232.27
760.161	439.12
760.345	320.34
760.528	289.62
760.712	209.75
760.895	277.33
761.079	193.36
761.263	152.4
761.446	277.33
761.63	222.03
761.813	351.06
761.997	215.89
762.18	295.76
762.364	373.58
762.547	107.35
762.731	113.49
762.914	209.75
763.098	166.74
763.281	193.36
763.464	166.74
763.648	234.32
763.831	193.36
764.015	170.83
764.198	168.79
764.381	205.65
764.564	136.02
764.748	279.38
764.931	265.04
765.114	166.74
765.297	295.76
765.481	119.64
765.664	191.31
765.847	174.93
766.03	349.01
766.213	144.21
766.397	195.41
766.58	131.92
766.763	191.31
766.946	107.35
767.129	164.69
767.312	189.27
767.495	203.6
767.678	95.06
767.861	160.59
768.044	185.17
768.227	222.03
768.41	162.64
768.593	232.27
768.776	31.57
768.959	27.48
769.142	246.61
769.324	95.06
769.507	103.25
769.69	142.16
769.873	162.64
770.056	293.71
770.239	103.25
770.421	189.27
770.604	226.13
770.787	168.79
770.97	105.3
771.152	93.01
771.335	136.02
771.518	15.19
771.7	279.38
771.883	191.31
772.066	60.24
772.248	105.3
772.431	201.55
772.613	189.27
772.796	131.92
772.978	117.59
773.161	260.95
773.343	50
773.526	45.91
773.708	41.81
773.891	54.1
774.073	131.92
774.256	109.4
774.438	303.95
774.621	125.78
774.803	140.12
774.985	68.44
775.168	131.92
775.35	90.96
775.532	172.88
775.715	158.55
775.897	88.92
776.079	197.46
776.261	107.35
776.444	64.34
776.626	70.48
776.808	133.97
776.99	-21.67
777.173	181.07
777.355	78.68
777.537	154.45
777.719	131.92
777.901	133.97
778.083	103.25
778.265	29.52
778.447	156.5
778.629	33.62
778.811	99.16
778.993	56.15
779.175	127.83
779.357	179.03
779.539	-15.53
779.721	191.31
779.903	119.64
780.085	115.54
780.267	78.68
780.449	62.29
780.631	164.69
780.812	84.82
780.994	13.14
781.176	41.81
781.358	45.91
781.54	54.1
781.721	152.4
781.903	195.41
782.085	27.48
782.267	136.02
782.448	29.52
782.63	47.96
782.812	62.29
782.993	39.76
783.175	93.01
783.357	50
783.538	90.96
783.72	50
783.901	99.16
784.083	76.63
784.264	197.46
784.446	9.05
784.627	54.1
784.809	95.06
784.99	25.43
785.172	125.78
785.353	-3.24
785.535	52.05
785.716	70.48
785.897	-40.11
786.079	56.15
786.26	33.62
786.441	72.53
786.623	27.48
786.804	58.2
786.985	66.39
787.167	27.48
787.348	52.05
787.529	45.91
787.71	160.59
787.891	107.35
788.073	0.85
788.254	84.82
788.435	125.78
788.616	45.91
788.797	27.48
788.978	41.81
789.159	-74.92
789.34	50
789.522	93.01
789.703	15.19
789.884	99.16
790.065	123.73
790.246	123.73
790.427	50
790.607	140.12
790.788	140.12
790.969	39.76
791.15	23.38
791.331	72.53
791.512	17.24
791.693	9.05
791.874	7
792.054	58.2
792.235	54.1
792.416	2.9
792.597	23.38
792.778	64.34
792.958	146.26
793.139	82.77
793.32	78.68
793.5	-29.87
793.681	150.36
793.862	86.87
794.042	97.11
794.223	-122.02
794.404	9.05
794.584	-17.58
794.765	-29.87
794.945	4.95
795.126	41.81
795.306	148.31
795.487	-56.49
795.667	-19.63
795.848	74.58
796.028	56.15
796.209	97.11
796.389	-25.77
796.57	56.15
796.75	-15.53
796.93	115.54
797.111	4.95
797.291	-11.43
797.471	9.05
797.652	9.05
797.832	-36.01
798.012	176.98
798.192	29.52
798.373	-44.2
798.553	43.86
798.733	66.39
798.913	-21.67
799.093	-46.25
799.274	35.67
799.454	31.57
799.634	70.48
799.814	117.59
799.994	115.54
800.174	90.96
800.354	-3.24
800.534	-115.88
800.714	17.24
800.894	-36.01
801.074	-21.67
801.254	-1.19
801.434	127.83
801.614	-89.26
801.794	-40.11
801.974	1741.63
802.154	-21.67
802.334	56.15
802.514	-105.64
802.693	23.38
802.873	-19.63
803.053	121.68
803.233	60.24
803.413	-17.58
803.592	29.52
803.772	-7.34
803.952	47.96
804.131	-162.98
804.311	127.83
804.491	76.63
804.67	4.95
804.85	-40.11
805.03	37.72
805.209	109.4
805.389	70.48
805.568	23.38
805.748	17.24
805.928	-33.96
806.107	58.2
806.287	-58.54
806.466	80.72
806.646	2.9
806.825	-3.24
807.004	25.43
807.184	19.29
807.363	154.45
807.543	21.33
807.722	54.1
807.901	54.1
808.081	7
808.26	-91.31
808.439	23.38
808.619	47.96
808.798	-70.83
808.977	-1.19
809.156	103.25
809.336	15.19
809.515	29.52
809.694	-72.87
809.873	17.24
810.052	17.24
810.231	111.44
810.411	15.19
810.59	193.36
810.769	19.29
810.948	107.35
811.127	-76.97
811.306	-9.39
811.485	-36.01
811.664	113.49
811.843	13.14
812.022	-38.06
812.201	35.67
812.38	-11.43
812.559	35.67
812.737	27.48
812.916	-101.55
813.095	-17.58
813.274	0.85
813.453	-42.15
813.632	74.58
813.811	58.2
813.989	-99.5
814.168	15.19
814.347	-72.87
814.526	-9.39
814.704	121.68
814.883	78.68
815.062	-99.5
815.24	19.29
815.419	-36.01
815.598	35.67
815.776	-119.98
815.955	-5.29
816.133	-122.02
816.312	-15.53
816.49	-17.58
816.669	-48.3
816.847	64.34
817.026	68.44
817.204	-23.72
817.383	17.24
817.561	-56.49
817.74	43.86
817.918	-7.34
818.097	-79.02
818.275	-44.2
818.453	97.11
818.632	50
818.81	-42.15
818.988	-15.53
819.167	-70.83
819.345	31.57
819.523	-48.3
819.701	-27.82
819.879	41.81
820.058	4.95
820.236	37.72
820.414	2.9
820.592	-40.11
820.77	-29.87
820.948	-36.01
821.127	25.43
821.305	-7.34
821.483	-79.02
821.661	47.96
821.839	-23.72
822.017	-89.26
822.195	-11.43
822.373	50
822.551	33.62
822.729	72.53
822.907	4.95
823.085	-5.29
823.262	-7.34
823.44	-58.54
823.618	-81.07
823.796	58.2
823.974	-101.55
824.152	-126.12
824.329	29.52
824.507	11.09
824.685	45.91
824.863	19.29
825.04	43.86
825.218	-68.78
825.396	29.52
825.574	33.62
825.751	-29.87
825.929	136.02
826.107	-117.93
826.284	90.96
826.462	82.77
826.639	-50.35
826.817	-76.97
826.994	19.29
827.172	-46.25
827.349	144.21
827.527	27.48
827.704	9.05
827.882	84.82
828.059	-31.91
828.237	-101.55
828.414	33.62
828.591	-169.13
828.769	60.24
828.946	-62.63
829.124	162.64
829.301	17.24
829.478	-33.96
829.655	-21.67
829.833	-23.72
830.01	-117.93
830.187	19.29
830.364	11.09
830.542	47.96
830.719	95.06
830.896	68.44
831.073	-42.15
831.25	29.52
831.427	27.48
831.604	39.76
831.782	-9.39
831.959	-1.19
832.136	-21.67
832.313	-44.2
832.49	-54.44
832.667	-1.19
832.844	-62.63
833.021	29.52
833.198	0.85
833.374	13.14
833.551	39.76
833.728	-42.15
833.905	101.2
834.082	-144.55
834.259	68.44
834.436	115.54
834.612	7
834.789	-19.63
834.966	19.29
835.143	-64.68
835.319	-91.31
835.496	39.76
835.673	70.48
835.85	74.58
836.026	31.57
836.203	-17.58
836.38	33.62
836.556	13.14
836.733	-13.48
836.909	138.07
837.086	13.14
837.262	-136.36
837.439	31.57
837.616	-11.43
837.792	-38.06
837.968	35.67
838.145	-109.74
838.321	-11.43
838.498	19.29
838.674	7
838.851	-48.3
839.027	0.85
839.203	-23.72
839.38	-9.39
839.556	17.24
839.732	62.29
839.909	-15.53
840.085	47.96
840.261	-122.02
840.437	4.95
840.614	-15.53
840.79	70.48
840.966	-15.53
841.142	-31.91
841.318	-72.87
841.494	23.38
841.671	60.24
841.847	-66.73
842.023	-50.35
842.199	54.1
842.375	84.82
842.551	-142.5
842.727	43.86
842.903	90.96
843.079	-38.06
843.255	113.49
843.431	4.95
843.607	-25.77
843.783	-177.32
843.959	19.29
844.134	-99.5
844.31	33.62
844.486	0.85
844.662	-95.4
844.838	-56.49
845.013	-1.19
845.189	111.44
845.365	-3.24
845.541	-42.15
845.716	-23.72
845.892	64.34
846.068	11.09
846.244	-115.88
846.419	-13.48
846.595	-7.34
846.77	-27.82
846.946	56.15
847.122	41.81
847.297	-25.77
847.473	152.4
847.648	-72.87
847.824	-7.34
847.999	-171.18
848.175	-11.43
848.35	37.72
848.526	31.57
848.701	33.62
848.876	90.96
849.052	64.34
849.227	-83.11
849.403	25.43
849.578	-7.34
849.753	37.72
849.929	7
850.104	-76.97
850.279	25.43
850.454	-40.11
850.63	11.09
850.805	33.62
850.98	-83.11
851.155	-66.73
851.33	-50.35
851.505	-93.35
851.681	68.44
851.856	-36.01
852.031	56.15
852.206	-9.39
852.381	-64.68
852.556	-9.39
852.731	33.62
852.906	47.96
853.081	4.95
853.256	45.91
853.431	21.33
853.606	-19.63
853.781	-81.07
853.956	-177.32
854.131	70.48
854.305	-99.5
854.48	-19.63
854.655	-31.91
854.83	-17.58
855.005	-68.78
855.18	-7.34
855.354	-23.72
855.529	25.43
855.704	11.09
855.879	2.9
856.053	-19.63
856.228	-23.72
856.403	-76.97
856.577	-19.63
856.752	-89.26
856.926	13.14
857.101	-15.53
857.276	-107.69
857.45	9.05
857.625	13.14
857.799	-19.63
857.974	15.19
858.148	-150.7
858.323	35.67
858.497	-7.34
858.672	-33.96
858.846	-85.16
859.02	37.72
859.195	-87.21
859.369	-15.53
859.543	-36.01
859.718	-33.96
859.892	-36.01
860.066	-9.39
860.241	-109.74
860.415	-31.91
860.589	-29.87
860.763	-89.26
860.938	-58.54
861.112	41.81
861.286	-15.53
861.46	25.43
861.634	-19.63
861.808	25.43
861.982	-101.55
862.157	-83.11
862.331	-70.83
862.505	-72.87
862.679	-85.16
862.853	-83.11
863.027	-7.34
863.201	136.02
863.375	-72.87
863.549	90.96
863.722	-70.83
863.896	58.2
864.07	-97.45
864.244	-33.96
864.418	-3.24
864.592	-36.01
864.766	25.43
864.939	41.81
865.113	-36.01
865.287	88.92
865.461	-27.82
865.634	-25.77
865.808	15.19
865.982	-115.88
866.156	-13.48
866.329	-74.92
866.503	-9.39
866.676	50
866.85	-29.87
867.024	-89.26
867.197	78.68
867.371	19.29
867.544	2.9
867.718	-87.21
867.891	84.82
868.065	-109.74
868.238	50
868.412	54.1
868.585	-7.34
868.759	-117.93
868.932	-21.67
869.105	-126.12
869.279	19.29
869.452	-83.11
869.625	2.9
869.799	52.05
869.972	-138.41
870.145	-68.78
870.319	-1.19
870.492	-91.31
870.665	-95.4
870.838	-40.11
871.011	-150.7
871.185	-1.19
871.358	-50.35
871.531	-23.72
871.704	-109.74
871.877	-9.39
872.05	-42.15
872.223	-117.93
872.396	35.67
872.569	7
872.742	-169.13
872.915	-44.2
873.088	45.91
873.261	-66.73
873.434	31.57
873.607	-17.58
873.78	39.76
873.953	-152.74
874.126	17.24
874.299	-44.2
874.471	2.9
874.644	-64.68
874.817	37.72
874.99	138.07
875.163	-97.45
875.335	56.15
875.508	33.62
875.681	68.44
875.853	-81.07
876.026	-62.63
876.199	29.52
876.371	11.09
876.544	-3.24
876.717	25.43
876.889	-76.97
877.062	23.38
877.234	-68.78
877.407	-87.21
877.579	-15.53
877.752	-31.91
877.924	39.76
878.097	88.92
878.269	11.09
878.442	-99.5
878.614	37.72
878.786	17.24
878.959	-52.39
879.131	56.15
879.303	-171.18
879.476	-54.44
879.648	19.29
879.82	35.67
879.993	-130.22
880.165	-83.11
880.337	-130.22
880.509	-64.68
880.681	-85.16
880.854	9.05
881.026	66.39
881.198	142.16
881.37	-17.58
881.542	-38.06
881.714	-66.73
881.886	-91.31
882.058	-76.97
882.23	-27.82
882.402	33.62
882.574	-25.77
882.746	58.2
882.918	74.58
883.09	31.57
883.262	-7.34
883.434	43.86
883.606	-87.21
883.778	15.19
883.95	76.63
884.122	-40.11
884.293	31.57
884.465	-7.34
884.637	58.2
884.809	-64.68
884.98	11.09
885.152	60.24
885.324	7
885.496	-81.07
885.667	-50.35
885.839	-68.78
886.011	146.26
886.182	21.33
886.354	7
886.525	-29.87
886.697	9.05
886.869	-72.87
887.04	-33.96
887.212	103.25
887.383	146.26
887.555	17.24
887.726	-83.11
887.897	23.38
888.069	47.96
888.24	129.88
888.412	11.09
888.583	15.19
888.754	39.76
888.926	-119.98
889.097	-87.21
889.268	-99.5
889.44	-50.35
889.611	-58.54
889.782	-107.69
889.953	-70.83
890.125	72.53
890.296	-79.02
890.467	-56.49
890.638	-48.3
890.809	-17.58
890.98	-122.02
891.151	-44.2
891.323	101.2
891.494	-44.2
891.665	58.2
891.836	-76.97
892.007	58.2
892.178	7
892.349	-29.87
892.52	-48.3
892.691	0.85
892.862	-17.58
893.032	-89.26
893.203	-48.3
893.374	-15.53
893.545	52.05
893.716	7
893.887	29.52
894.057	-79.02
894.228	39.76
894.399	-70.83
894.57	33.62
894.74	17.24
894.911	-38.06
895.082	-91.31
895.253	-25.77
895.423	-11.43
895.594	52.05
895.764	-27.82
895.935	-95.4
896.106	-31.91
896.276	-52.39
896.447	4.95
896.617	-64.68
896.788	-42.15
896.958	-93.35
897.129	-79.02
897.299	-76.97
897.47	2.9
897.64	107.35
897.81	-70.83
897.981	2.9
898.151	15.19
898.322	0.85
898.492	-1.19
898.662	-109.74
898.832	-31.91
899.003	11.09
899.173	13.14
899.343	-68.78
899.513	-103.59
