Data from USB4F104151__37__11-26-31-093.txt Node

Date: Wed Feb 26 11:26:31 EST 2025
User: louis
Spectrometer: USB4F10415
Trigger mode: 4
Integration Time (sec): 1.000000E-1
Scans to average: 1
Electric dark correction enabled: true
Nonlinearity correction enabled: false
Boxcar width: 0
XAxis mode: Wavelengths
Number of Pixels in Spectrum: 3648
>>>>>Begin Spectral Data<<<<<
178.204	-361.3
178.424	-361.3
178.644	-361.3
178.864	-361.3
179.084	-430.93
179.304	-0.85
179.524	-7
179.744	15.53
179.964	54.44
180.184	-64.34
180.404	40.11
180.624	-29.52
180.844	9.39
181.064	-37.72
181.283	52.39
181.503	-68.44
181.723	36.01
181.943	-76.63
182.163	214.18
182.383	-35.67
182.602	91.31
182.822	134.31
183.042	126.12
183.262	25.77
183.482	15.53
183.701	79.02
183.921	50.35
184.141	-52.05
184.361	62.63
184.58	23.72
184.8	58.54
185.02	33.96
185.239	52.39
185.459	150.7
185.679	109.74
185.898	-62.29
186.118	107.69
186.338	105.64
186.557	132.26
186.777	19.63
186.997	52.39
187.216	21.67
187.436	117.93
187.655	33.96
187.875	142.5
188.095	46.25
188.314	193.7
188.534	109.74
188.753	-64.34
188.973	156.84
189.192	146.6
189.412	64.68
189.631	95.4
189.851	122.02
190.07	189.61
190.29	-35.67
190.509	-4.95
190.729	27.82
190.948	107.69
191.168	285.86
191.387	117.93
191.607	-19.29
191.826	113.83
192.045	48.3
192.265	-41.81
192.484	146.6
192.704	-41.81
192.923	-9.05
193.142	173.22
193.362	70.83
193.581	171.18
193.8	105.64
194.02	124.07
194.239	27.82
194.458	52.39
194.678	-21.33
194.897	-43.86
195.116	97.45
195.335	48.3
195.555	128.17
195.774	21.67
195.993	93.35
196.212	-7
196.432	58.54
196.651	50.35
196.87	64.68
197.089	281.77
197.308	62.63
197.528	101.55
197.747	-29.52
197.966	48.3
198.185	85.16
198.404	-27.48
198.623	85.16
198.842	162.98
199.062	81.07
199.281	193.7
199.5	-23.38
199.719	81.07
199.938	103.59
200.157	93.35
200.376	44.2
200.595	115.88
200.814	83.11
201.033	9.39
201.252	119.98
201.471	42.15
201.69	50.35
201.909	87.21
202.128	132.26
202.347	142.5
202.566	68.78
202.785	-47.96
203.004	-25.43
203.223	310.44
203.442	38.06
203.661	-56.15
203.879	99.5
204.098	165.03
204.317	-7
204.536	107.69
204.755	44.2
204.974	134.31
205.193	44.2
205.411	134.31
205.63	128.17
205.849	58.54
206.068	89.26
206.287	-7
206.505	146.6
206.724	27.82
206.943	9.39
207.162	13.48
207.381	89.26
207.599	27.82
207.818	38.06
208.037	-27.48
208.255	31.91
208.474	48.3
208.693	-35.67
208.911	19.63
209.13	142.5
209.349	148.65
209.567	66.73
209.786	76.97
210.005	66.73
210.223	42.15
210.442	-72.53
210.661	-37.72
210.879	97.45
211.098	81.07
211.316	93.35
211.535	31.91
211.753	136.36
211.972	58.54
212.191	1.19
212.409	36.01
212.628	130.22
212.846	17.58
213.065	72.87
213.283	109.74
213.502	-39.76
213.72	99.5
213.938	46.25
214.157	85.16
214.375	124.07
214.594	-2.9
214.812	29.87
215.031	13.48
215.249	25.77
215.467	-23.38
215.686	46.25
215.904	74.92
216.122	62.63
216.341	91.31
216.559	79.02
216.778	111.78
216.996	17.58
217.214	1.19
217.432	31.91
217.651	-39.76
217.869	76.97
218.087	-27.48
218.306	-27.48
218.524	38.06
218.742	3.24
218.96	91.31
219.179	70.83
219.397	-52.05
219.615	246.95
219.833	150.7
220.051	33.96
220.27	144.55
220.488	54.44
220.706	31.91
220.924	1.19
221.142	-78.68
221.36	89.26
221.578	83.11
221.796	11.43
222.015	60.59
222.233	83.11
222.451	128.17
222.669	-31.57
222.887	60.59
223.105	1.19
223.323	58.54
223.541	-72.53
223.759	38.06
223.977	33.96
224.195	173.22
224.413	128.17
224.631	31.91
224.849	33.96
225.067	183.46
225.285	5.29
225.503	13.48
225.721	-121.68
225.939	132.26
226.157	-0.85
226.375	208.04
226.592	36.01
226.81	66.73
227.028	140.46
227.246	115.88
227.464	36.01
227.682	146.6
227.9	42.15
228.117	15.53
228.335	117.93
228.553	3.24
228.771	17.58
228.989	70.83
229.206	117.93
229.424	31.91
229.642	70.83
229.86	-39.76
230.077	122.02
230.295	27.82
230.513	115.88
230.731	85.16
230.948	279.72
231.166	156.84
231.384	52.39
231.601	-39.76
231.819	185.51
232.037	9.39
232.254	31.91
232.472	-29.52
232.689	56.49
232.907	173.22
233.125	17.58
233.342	-29.52
233.56	46.25
233.777	89.26
233.995	117.93
234.213	81.07
234.43	50.35
234.648	95.4
234.865	113.83
235.083	134.31
235.3	21.67
235.518	111.78
235.735	128.17
235.953	115.88
236.17	23.72
236.388	27.82
236.605	-37.72
236.822	97.45
237.04	154.79
237.257	58.54
237.475	-0.85
237.692	72.87
237.909	74.92
238.127	-15.19
238.344	13.48
238.562	-4.95
238.779	-52.05
238.996	-19.29
239.214	21.67
239.431	115.88
239.648	50.35
239.865	136.36
240.083	103.59
240.3	40.11
240.517	27.82
240.735	15.53
240.952	132.26
241.169	95.4
241.386	142.5
241.603	52.39
241.821	-29.52
242.038	58.54
242.255	105.64
242.472	-0.85
242.689	62.63
242.907	117.93
243.124	93.35
243.341	74.92
243.558	7.34
243.775	-66.39
243.992	-109.4
244.209	99.5
244.426	162.98
244.643	105.64
244.86	-35.67
245.078	109.74
245.295	38.06
245.512	31.91
245.729	-37.72
245.946	74.92
246.163	111.78
246.38	15.53
246.597	130.22
246.814	38.06
247.031	83.11
247.248	-4.95
247.464	144.55
247.681	44.2
247.898	91.31
248.115	68.78
248.332	11.43
248.549	148.65
248.766	210.09
248.983	85.16
249.2	40.11
249.417	117.93
249.633	60.59
249.85	85.16
250.067	23.72
250.284	-23.38
250.501	83.11
250.717	124.07
250.934	-52.05
251.151	46.25
251.368	-64.34
251.585	38.06
251.801	85.16
252.018	-21.33
252.235	1.19
252.451	-45.91
252.668	-43.86
252.885	165.03
253.102	21.67
253.318	27.82
253.535	19.63
253.752	-19.29
253.968	62.63
254.185	-45.91
254.401	87.21
254.618	52.39
254.835	23.72
255.051	181.42
255.268	21.67
255.484	56.49
255.701	76.97
255.917	99.5
256.134	-29.52
256.351	-9.05
256.567	11.43
256.784	128.17
257	-41.81
257.217	144.55
257.433	105.64
257.65	60.59
257.866	242.85
258.082	-45.91
258.299	21.67
258.515	46.25
258.732	-21.33
258.948	-41.81
259.165	111.78
259.381	-37.72
259.597	48.3
259.814	11.43
260.03	64.68
260.246	11.43
260.463	105.64
260.679	111.78
260.895	64.68
261.112	31.91
261.328	48.3
261.544	36.01
261.761	199.85
261.977	-19.29
262.193	-64.34
262.409	119.98
262.626	-2.9
262.842	-37.72
263.058	46.25
263.274	173.22
263.49	44.2
263.707	91.31
263.923	62.63
264.139	-60.24
264.355	-95.06
264.571	146.6
264.787	103.59
265.004	154.79
265.22	25.77
265.436	25.77
265.652	44.2
265.868	128.17
266.084	-47.96
266.3	3.24
266.516	-7
266.732	95.4
266.948	89.26
267.164	15.53
267.38	126.12
267.596	132.26
267.812	167.08
268.028	50.35
268.244	76.97
268.46	58.54
268.676	-35.67
268.892	119.98
269.108	-70.48
269.324	-82.77
269.54	-86.87
269.756	27.82
269.972	-13.14
270.188	107.69
270.403	7.34
270.619	33.96
270.835	117.93
271.051	60.59
271.267	3.24
271.483	38.06
271.698	113.83
271.914	95.4
272.13	60.59
272.346	66.73
272.562	44.2
272.777	179.37
272.993	74.92
273.209	-27.48
273.425	154.79
273.64	9.39
273.856	62.63
274.072	-29.52
274.287	25.77
274.503	64.68
274.719	134.31
274.934	58.54
275.15	-111.44
275.366	15.53
275.581	-52.05
275.797	13.48
276.012	70.83
276.228	27.82
276.444	83.11
276.659	189.61
276.875	-4.95
277.09	40.11
277.306	76.97
277.521	33.96
277.737	31.91
277.952	111.78
278.168	68.78
278.383	50.35
278.599	46.25
278.814	50.35
279.03	17.58
279.245	150.7
279.461	1.19
279.676	52.39
279.892	-11.09
280.107	40.11
280.322	19.63
280.538	76.97
280.753	-2.9
280.969	79.02
281.184	31.91
281.399	197.8
281.615	107.69
281.83	-15.19
282.045	-68.44
282.26	-21.33
282.476	1.19
282.691	29.87
282.906	79.02
283.122	58.54
283.337	-7
283.552	128.17
283.767	119.98
283.983	103.59
284.198	-25.43
284.413	113.83
284.628	-33.62
284.843	25.77
285.058	150.7
285.274	17.58
285.489	-23.38
285.704	56.49
285.919	-13.14
286.134	76.97
286.349	66.73
286.564	-35.67
286.779	171.18
286.995	66.73
287.21	-70.48
287.425	19.63
287.64	-2.9
287.855	79.02
288.07	-72.53
288.285	158.89
288.5	148.65
288.715	119.98
288.93	-21.33
289.145	17.58
289.36	152.74
289.575	-82.77
289.79	124.07
290.004	95.4
290.219	103.59
290.434	99.5
290.649	29.87
290.864	-21.33
291.079	74.92
291.294	21.67
291.509	107.69
291.724	74.92
291.938	-11.09
292.153	68.78
292.368	38.06
292.583	48.3
292.798	134.31
293.012	29.87
293.227	56.49
293.442	-7
293.657	17.58
293.871	103.59
294.086	33.96
294.301	220.33
294.516	205.99
294.73	107.69
294.945	-47.96
295.16	29.87
295.374	107.69
295.589	148.65
295.804	-84.82
296.018	83.11
296.233	191.66
296.447	113.83
296.662	-4.95
296.877	179.37
297.091	91.31
297.306	33.96
297.52	3.24
297.735	97.45
297.949	13.48
298.164	40.11
298.378	62.63
298.593	9.39
298.807	44.2
299.022	66.73
299.236	132.26
299.451	3.24
299.665	21.67
299.88	58.54
300.094	83.11
300.309	54.44
300.523	138.41
300.737	7.34
300.952	89.26
301.166	85.16
301.381	36.01
301.595	-9.05
301.809	27.82
302.024	56.49
302.238	-58.2
302.452	107.69
302.667	52.39
302.881	122.02
303.095	126.12
303.309	74.92
303.524	29.87
303.738	17.58
303.952	29.87
304.166	72.87
304.381	-86.87
304.595	113.83
304.809	1.19
305.023	64.68
305.237	-0.85
305.452	42.15
305.666	9.39
305.88	160.94
306.094	199.85
306.308	81.07
306.522	124.07
306.736	58.54
306.95	74.92
307.164	17.58
307.379	-2.9
307.593	136.36
307.807	93.35
308.021	107.69
308.235	-9.05
308.449	-13.14
308.663	76.97
308.877	255.14
309.091	64.68
309.305	126.12
309.519	-7
309.733	148.65
309.947	-39.76
310.161	15.53
310.374	85.16
310.588	191.66
310.802	15.53
311.016	31.91
311.23	89.26
311.444	-25.43
311.658	85.16
311.872	130.22
312.085	76.97
312.299	158.89
312.513	117.93
312.727	56.49
312.941	-39.76
313.154	93.35
313.368	81.07
313.582	128.17
313.796	60.59
314.009	5.29
314.223	185.51
314.437	17.58
314.651	87.21
314.864	54.44
315.078	21.67
315.292	-19.29
315.505	3.24
315.719	1.19
315.933	130.22
316.146	11.43
316.36	-9.05
316.573	162.98
316.787	101.55
317.001	107.69
317.214	29.87
317.428	-11.09
317.641	-82.77
317.855	9.39
318.068	132.26
318.282	79.02
318.495	187.56
318.709	167.08
318.922	52.39
319.136	148.65
319.349	9.39
319.563	46.25
319.776	87.21
319.99	15.53
320.203	50.35
320.417	38.06
320.63	79.02
320.843	140.46
321.057	52.39
321.27	154.79
321.483	111.78
321.697	126.12
321.91	36.01
322.124	29.87
322.337	74.92
322.55	50.35
322.763	33.96
322.977	-0.85
323.19	40.11
323.403	76.97
323.617	54.44
323.83	185.51
324.043	9.39
324.256	85.16
324.469	-13.14
324.683	113.83
324.896	44.2
325.109	62.63
325.322	-121.68
325.535	97.45
325.748	136.36
325.962	42.15
326.175	54.44
326.388	52.39
326.601	171.18
326.814	64.68
327.027	60.59
327.24	142.5
327.453	-119.64
327.666	150.7
327.879	109.74
328.092	146.6
328.305	38.06
328.518	-2.9
328.731	-41.81
328.944	9.39
329.157	48.3
329.37	52.39
329.583	212.14
329.796	142.5
330.009	-0.85
330.222	15.53
330.435	101.55
330.648	95.4
330.861	62.63
331.073	115.88
331.286	160.94
331.499	99.5
331.712	-52.05
331.925	113.83
332.138	-9.05
332.35	52.39
332.563	38.06
332.776	130.22
332.989	5.29
333.202	66.73
333.414	40.11
333.627	-37.72
333.84	38.06
334.053	5.29
334.265	-50
334.478	-86.87
334.691	46.25
334.903	-17.24
335.116	15.53
335.329	-31.57
335.541	52.39
335.754	189.61
335.966	99.5
336.179	17.58
336.392	-13.14
336.604	68.78
336.817	122.02
337.029	105.64
337.242	83.11
337.454	85.16
337.667	48.3
337.88	113.83
338.092	95.4
338.305	66.73
338.517	-47.96
338.729	150.7
338.942	140.46
339.154	-13.14
339.367	-7
339.579	66.73
339.792	74.92
340.004	68.78
340.217	109.74
340.429	36.01
340.641	-9.05
340.854	-7
341.066	40.11
341.278	179.37
341.491	191.66
341.703	70.83
341.915	-54.1
342.128	107.69
342.34	85.16
342.552	-29.52
342.764	23.72
342.977	-2.9
343.189	58.54
343.401	50.35
343.613	-33.62
343.826	9.39
344.038	-7
344.25	79.02
344.462	48.3
344.674	97.45
344.886	74.92
345.099	107.69
345.311	158.89
345.523	58.54
345.735	-78.68
345.947	85.16
346.159	134.31
346.371	48.3
346.583	38.06
346.795	150.7
347.007	-0.85
347.219	27.82
347.431	9.39
347.643	89.26
347.855	-95.06
348.067	117.93
348.279	-95.06
348.491	36.01
348.703	179.37
348.915	52.39
349.127	68.78
349.339	89.26
349.551	40.11
349.763	46.25
349.975	7.34
350.187	122.02
350.399	97.45
350.61	76.97
350.822	1.19
351.034	42.15
351.246	68.78
351.458	44.2
351.669	48.3
351.881	70.83
352.093	85.16
352.305	87.21
352.517	107.69
352.728	181.42
352.94	122.02
353.152	101.55
353.363	-11.09
353.575	83.11
353.787	165.03
353.999	60.59
354.21	89.26
354.422	87.21
354.633	40.11
354.845	87.21
355.057	81.07
355.268	33.96
355.48	136.36
355.692	-21.33
355.903	68.78
356.115	-41.81
356.326	-78.68
356.538	193.7
356.749	40.11
356.961	128.17
357.172	109.74
357.384	13.48
357.595	199.85
357.807	31.91
358.018	23.72
358.23	68.78
358.441	175.27
358.653	48.3
358.864	89.26
359.075	-29.52
359.287	119.98
359.498	60.59
359.709	66.73
359.921	58.54
360.132	15.53
360.344	17.58
360.555	-35.67
360.766	91.31
360.977	23.72
361.189	113.83
361.4	-23.38
361.611	158.89
361.823	101.55
362.034	29.87
362.245	-76.63
362.456	13.48
362.667	128.17
362.879	23.72
363.09	70.83
363.301	99.5
363.512	64.68
363.723	-7
363.935	58.54
364.146	115.88
364.357	66.73
364.568	68.78
364.779	-39.76
364.99	167.08
365.201	-0.85
365.412	40.11
365.623	-115.54
365.834	70.83
366.045	60.59
366.256	-0.85
366.467	91.31
366.678	91.31
366.889	58.54
367.1	19.63
367.311	72.87
367.522	-2.9
367.733	66.73
367.944	101.55
368.155	113.83
368.366	87.21
368.577	48.3
368.788	122.02
368.999	-41.81
369.209	79.02
369.42	242.85
369.631	281.77
369.842	113.83
370.053	25.77
370.264	109.74
370.474	-35.67
370.685	93.35
370.896	9.39
371.107	119.98
371.317	95.4
371.528	1.19
371.739	130.22
371.95	93.35
372.16	113.83
372.371	-52.05
372.582	3.24
372.792	68.78
373.003	95.4
373.214	54.44
373.424	54.44
373.635	-13.14
373.846	150.7
374.056	27.82
374.267	44.2
374.477	31.91
374.688	-62.29
374.898	105.64
375.109	38.06
375.319	66.73
375.53	156.84
375.74	54.44
375.951	23.72
376.161	91.31
376.372	91.31
376.582	66.73
376.793	107.69
377.003	-17.24
377.214	-19.29
377.424	72.87
377.635	99.5
377.845	25.77
378.055	134.31
378.266	-15.19
378.476	109.74
378.686	70.83
378.897	66.73
379.107	173.22
379.317	48.3
379.528	-11.09
379.738	23.72
379.948	-15.19
380.158	52.39
380.369	50.35
380.579	97.45
380.789	15.53
380.999	50.35
381.21	62.63
381.42	167.08
381.63	-33.62
381.84	101.55
382.05	11.43
382.261	165.03
382.471	74.92
382.681	40.11
382.891	44.2
383.101	136.36
383.311	-27.48
383.521	23.72
383.731	79.02
383.941	126.12
384.151	68.78
384.361	42.15
384.571	36.01
384.781	109.74
384.991	167.08
385.201	193.7
385.411	97.45
385.621	87.21
385.831	107.69
386.041	17.58
386.251	105.64
386.461	111.78
386.671	44.2
386.881	134.31
387.091	58.54
387.301	111.78
387.511	103.59
387.72	124.07
387.93	60.59
388.14	-136.02
388.35	97.45
388.56	142.5
388.769	169.13
388.979	95.4
389.189	-21.33
389.399	115.88
389.609	52.39
389.818	66.73
390.028	7.34
390.238	142.5
390.447	-33.62
390.657	89.26
390.867	38.06
391.076	1.19
391.286	58.54
391.496	-50
391.705	17.58
391.915	101.55
392.125	101.55
392.334	3.24
392.544	205.99
392.753	21.67
392.963	19.63
393.172	-15.19
393.382	-35.67
393.591	146.6
393.801	-31.57
394.01	173.22
394.22	66.73
394.429	36.01
394.639	13.48
394.848	1.19
395.058	70.83
395.267	111.78
395.477	72.87
395.686	23.72
395.895	185.51
396.105	234.66
396.314	56.49
396.524	66.73
396.733	81.07
396.942	76.97
397.152	87.21
397.361	160.94
397.57	52.39
397.78	52.39
397.989	138.41
398.198	146.6
398.407	13.48
398.617	33.96
398.826	111.78
399.035	9.39
399.244	23.72
399.453	76.97
399.663	40.11
399.872	95.4
400.081	-58.2
400.29	173.22
400.499	46.25
400.708	183.46
400.917	19.63
401.127	-29.52
401.336	-7
401.545	183.46
401.754	107.69
401.963	81.07
402.172	31.91
402.381	-27.48
402.59	-45.91
402.799	58.54
403.008	154.79
403.217	50.35
403.426	52.39
403.635	-113.49
403.844	91.31
404.053	42.15
404.262	62.63
404.471	107.69
404.68	-45.91
404.888	74.92
405.097	103.59
405.306	68.78
405.515	154.79
405.724	29.87
405.933	126.12
406.142	60.59
406.35	134.31
406.559	-15.19
406.768	40.11
406.977	162.98
407.185	81.07
407.394	46.25
407.603	-13.14
407.812	3.24
408.02	134.31
408.229	42.15
408.438	119.98
408.646	36.01
408.855	83.11
409.064	42.15
409.272	-0.85
409.481	119.98
409.69	15.53
409.898	-29.52
410.107	101.55
410.315	138.41
410.524	7.34
410.733	46.25
410.941	19.63
411.15	85.16
411.358	72.87
411.567	165.03
411.775	15.53
411.984	54.44
412.192	-23.38
412.401	38.06
412.609	228.52
412.818	130.22
413.026	99.5
413.234	58.54
413.443	119.98
413.651	-64.34
413.86	48.3
414.068	183.46
414.276	169.13
414.485	-17.24
414.693	134.31
414.901	193.7
415.11	50.35
415.318	68.78
415.526	115.88
415.734	111.78
415.943	81.07
416.151	117.93
416.359	13.48
416.567	68.78
416.776	83.11
416.984	171.18
417.192	126.12
417.4	66.73
417.608	105.64
417.817	13.48
418.025	134.31
418.233	134.31
418.441	-0.85
418.649	-21.33
418.857	101.55
419.065	160.94
419.273	48.3
419.481	83.11
419.689	111.78
419.897	-19.29
420.105	-21.33
420.313	107.69
420.521	66.73
420.729	150.7
420.937	-27.48
421.145	-25.43
421.353	113.83
421.561	222.38
421.769	52.39
421.977	17.58
422.185	66.73
422.393	23.72
422.601	122.02
422.809	68.78
423.017	72.87
423.224	68.78
423.432	214.18
423.64	25.77
423.848	142.5
424.056	58.54
424.263	85.16
424.471	60.59
424.679	167.08
424.887	-11.09
425.094	70.83
425.302	128.17
425.51	52.39
425.718	158.89
425.925	97.45
426.133	29.87
426.341	314.53
426.548	95.4
426.756	111.78
426.964	87.21
427.171	70.83
427.379	11.43
427.586	117.93
427.794	150.7
428.001	136.36
428.209	115.88
428.417	158.89
428.624	128.17
428.832	193.7
429.039	191.66
429.247	115.88
429.454	201.9
429.662	224.42
429.869	199.85
430.076	89.26
430.284	216.23
430.491	134.31
430.699	171.18
430.906	240.81
431.114	105.64
431.321	173.22
431.528	122.02
431.736	107.69
431.943	124.07
432.15	244.9
432.358	230.57
432.565	281.77
432.772	54.44
432.979	165.03
433.187	122.02
433.394	316.58
433.601	56.49
433.808	281.77
434.016	320.68
434.223	236.71
434.43	191.66
434.637	298.15
434.844	328.87
435.052	302.25
435.259	324.77
435.466	308.39
435.673	224.42
435.88	373.92
436.087	425.12
436.294	418.98
436.501	322.73
436.708	292.01
436.915	316.58
437.122	386.21
437.329	269.48
437.537	470.18
437.743	349.35
437.95	466.08
438.157	429.22
438.364	414.88
438.571	513.19
438.778	605.35
438.985	517.28
439.192	586.91
439.399	416.93
439.606	554.15
439.813	554.15
440.02	705.7
440.227	709.79
440.433	685.22
440.64	609.44
440.847	584.87
441.054	648.35
441.261	771.23
441.467	679.07
441.674	672.93
441.881	773.28
442.088	707.74
442.294	724.13
442.501	836.77
442.708	918.68
442.914	865.44
443.121	922.78
443.328	906.4
443.534	1066.14
443.741	998.56
443.948	982.17
444.154	1119.39
444.361	1172.63
444.568	1195.16
444.774	1150.11
444.981	1105.05
445.187	1244.31
445.394	1367.19
445.6	1315.99
445.807	1416.34
446.013	1387.67
446.22	1420.44
446.426	1596.56
446.633	1561.75
446.839	1797.26
447.046	1670.29
447.252	1799.31
447.459	1768.59
447.665	1746.06
447.871	2036.88
448.078	2139.27
448.284	2061.45
448.491	2192.52
448.697	2251.91
448.903	2401.41
449.11	2374.79
449.316	2395.27
449.522	2569.35
449.728	2686.08
449.935	2833.54
450.141	2815.1
450.347	3177.59
450.553	3052.67
450.76	3146.87
450.966	3300.47
451.172	3300.47
451.378	3540.08
451.584	3499.13
451.791	3687.54
451.997	3980.4
452.203	3861.62
452.409	4244.59
452.615	4367.46
452.821	4220.01
453.027	4316.26
453.233	4762.72
453.44	4650.08
453.646	4971.61
453.852	5188.7
454.058	5153.88
454.264	5422.17
454.47	5766.23
454.676	5833.81
454.882	6315.08
455.088	5956.69
455.294	6429.77
455.5	6956.1
455.705	7126.08
455.911	7179.33
456.117	7357.5
456.323	7619.64
456.529	7719.99
456.735	8371.24
456.941	8547.37
457.147	8963.11
457.352	9194.53
457.558	9425.95
457.764	10038.29
457.97	10165.26
458.176	10605.58
458.381	11256.83
458.587	11480.06
458.793	11879.41
458.999	12033.01
459.204	13571.04
459.41	14033.88
459.616	13632.47
459.821	14537.68
460.027	15086.53
460.233	15670.2
460.438	15926.2
460.644	16909.22
460.85	16976.81
461.055	17605.53
461.261	18473.87
461.466	18176.92
461.672	18545.55
461.878	20859.76
462.083	20663.15
462.289	20867.95
462.494	21642.08
462.7	21887.84
462.905	22027.1
463.111	23878.46
463.316	24843.06
463.522	25477.93
463.727	25897.76
463.932	27331.34
464.138	28091.13
464.343	29422.31
464.549	29291.24
464.754	31490.76
464.959	32514.75
465.165	32819.89
465.37	33082.03
465.575	32594.62
465.781	34976.4
465.986	36250.24
466.191	35512.97
466.397	35689.1
466.602	34749.08
466.807	36985.46
467.012	37818.99
467.218	38163.04
467.423	38312.55
467.628	39522.9
467.833	41380.4
468.038	40723.01
468.244	39975.5
468.449	42060.33
468.654	41116.22
468.859	41157.17
469.064	41298.48
469.269	39795.28
469.474	40512.06
469.679	41814.57
469.885	40645.18
470.09	41335.35
470.295	41370.16
470.5	40098.37
470.705	40618.56
470.91	39985.74
471.115	39166.55
471.32	40147.53
471.525	39686.73
471.73	38300.26
471.935	37986.92
472.139	37073.52
472.344	37022.33
472.549	36872.82
472.754	36074.12
472.959	35138.19
473.164	34175.65
473.369	33845.93
473.574	34831
473.778	34206.37
473.983	33413.8
474.188	32580.28
474.393	31197.9
474.598	31433.42
474.802	30859.99
475.007	29909.73
475.212	29713.13
475.417	28519.16
475.621	28199.68
475.826	28054.27
476.031	27204.36
476.235	26645.27
476.44	26985.23
476.645	26004.25
476.849	25846.56
477.054	25250.6
477.259	24556.34
477.463	24578.87
477.668	24191.8
477.872	24075.07
478.077	23585.6
478.282	22854.48
478.486	22502.23
478.691	22504.28
478.895	22186.84
479.1	22043.48
479.304	21554.02
479.509	20978.54
479.713	21498.72
479.918	20927.34
480.122	20450.16
480.326	20736.88
480.531	20532.08
480.735	20153.21
480.94	19936.12
481.144	20548.47
481.348	19510.14
481.553	19493.76
481.757	18946.95
481.961	19379.07
482.166	19596.16
482.37	19229.57
482.574	18678.67
482.778	18795.4
482.983	18744.2
483.187	18736.01
483.391	18332.56
483.595	18344.85
483.8	17892.25
484.004	17896.35
484.208	17931.16
484.412	17537.95
484.616	17521.57
484.821	17408.93
485.025	16671.66
485.229	16810.92
485.433	16272.31
485.637	16307.12
485.841	16284.59
486.045	16018.36
486.249	16042.93
486.453	15514.56
486.657	15459.26
486.861	15152.07
487.065	14730.19
487.269	14719.95
487.473	14085.08
487.677	14353.36
487.881	14279.63
488.085	13855.7
488.289	13515.74
488.493	13132.77
488.697	13151.2
488.901	12938.21
489.105	12590.06
489.309	12356.59
489.512	12420.08
489.716	12002.29
489.92	11979.76
490.124	11510.78
490.328	11576.31
490.531	11222.02
490.735	11097.09
490.939	10783.75
491.143	10404.88
491.346	10429.45
491.55	10374.16
491.754	9915.41
491.958	9933.84
492.161	9944.08
492.365	9686.04
492.569	9325.6
492.772	9223.2
492.976	9192.48
493.18	9067.55
493.383	8911.91
493.587	8721.45
493.79	8764.45
493.994	8604.71
494.197	8346.67
494.401	8420.39
494.605	8123.44
494.808	8246.32
495.012	8311.85
495.215	8145.97
495.419	8066.1
495.622	7973.94
495.825	7801.91
496.029	7930.93
496.232	7840.82
496.436	7715.89
496.639	8027.18
496.843	7722.04
497.046	7613.49
497.249	7752.76
497.453	7791.67
497.656	7679.03
497.859	7533.62
498.063	7779.38
498.266	7791.67
498.469	7447.61
498.673	7758.9
498.876	7810.1
499.079	7570.49
499.282	7656.5
499.485	7963.7
499.689	7797.81
499.892	7824.44
500.095	7859.25
500.298	8041.52
500.501	7844.91
500.705	8004.66
500.908	8121.39
501.111	8119.34
501.314	8277.04
501.517	8305.71
501.72	8361
501.923	8260.65
502.126	8590.38
502.329	8576.04
502.532	8647.72
502.735	8614.95
502.938	8905.76
503.141	9008.16
503.344	8991.78
503.547	9235.49
503.75	9118.75
503.953	9421.85
504.156	9485.34
504.359	9567.26
504.562	9536.54
504.765	9878.55
504.968	9976.85
505.17	10083.34
505.373	10187.79
505.576	10408.97
505.779	10527.75
505.982	10505.23
506.185	10830.85
506.387	11189.25
506.59	11222.02
506.793	11561.98
506.996	11592.7
507.198	12094.45
507.401	12016.63
507.604	12205.04
507.807	12606.44
508.009	12710.89
508.212	12938.21
508.415	13472.73
508.617	13353.95
508.82	13790.17
509.022	13970.39
509.225	14506.96
509.428	14662.6
509.63	14392.27
509.833	14894.02
510.035	15801.27
510.238	15465.41
510.44	16077.75
510.643	16399.28
510.845	16821.16
511.048	17134.5
511.25	17406.88
511.453	17697.69
511.655	18408.34
511.858	18664.33
512.06	19178.37
512.262	19280.77
512.465	19723.13
512.667	20054.9
512.87	20681.58
513.072	21123.94
513.274	21711.71
513.477	22225.75
513.679	22717.26
513.881	22934.35
514.084	23507.78
514.286	23839.55
514.488	24544.05
514.69	25576.23
514.893	25846.56
515.095	26237.72
515.297	26893.07
515.499	27169.55
515.701	27661.06
515.904	28476.15
516.106	28977.9
516.308	29747.94
516.51	30546.65
516.712	30868.18
516.914	31546.06
517.116	32166.59
517.318	32674.49
517.52	33444.52
517.722	34034.34
517.925	34638.49
518.127	35379.85
518.329	35750.54
518.531	35875.46
518.733	37110.39
518.935	37644.91
519.136	37991.01
519.338	38683.23
519.54	39363.15
519.742	40030.79
519.944	40510.02
520.146	41517.62
520.348	41568.82
520.55	42142.25
520.752	42631.71
520.954	43352.6
521.155	43837.97
521.357	44151.3
521.559	44544.51
521.761	45631.99
521.963	45500.92
522.164	46197.23
522.366	46717.41
522.568	47327.7
522.77	47337.94
522.971	48349.64
523.173	48034.25
523.375	48775.62
523.576	48529.86
523.778	48574.92
523.98	49426.87
524.181	49537.46
524.383	49693.11
524.584	50299.31
524.786	49992.11
524.988	50432.43
525.189	50698.66
525.391	50397.61
525.592	50426.28
525.794	50729.38
525.995	50586.02
526.197	50289.07
526.398	50854.31
526.6	50684.33
526.801	50440.62
527.003	50680.23
527.204	50422.19
527.406	50473.38
527.607	49930.67
527.808	50102.7
528.01	48869.82
528.211	49138.11
528.412	49590.71
528.614	49461.69
528.815	48841.15
529.016	49070.53
529.218	47645.14
529.419	48167.37
529.62	46993.89
529.822	46957.02
530.023	46666.21
530.224	46025.2
530.425	45906.41
530.626	44724.74
530.828	44147.21
531.029	44640.77
531.23	43766.29
531.431	43063.83
531.632	43002.39
531.833	42451.49
532.035	41873.96
532.236	41534
532.437	41151.03
532.638	40471.11
532.839	40387.14
533.04	40069.7
533.241	38765.15
533.442	39172.69
533.643	38466.14
533.844	37806.7
534.045	37290.61
534.246	36452.99
534.447	36473.47
534.648	35668.62
534.849	35367.57
535.05	34704.03
535.251	34443.93
535.451	33727.14
535.652	33649.32
535.853	32785.08
536.054	32688.82
536.255	32215.74
536.456	31666.89
536.657	31978.18
536.857	31144.66
537.058	30579.42
537.259	30038.75
537.46	29893.35
537.66	29098.73
537.861	29160.17
538.062	28275.45
538.263	28011.26
538.463	27730.69
538.664	27763.46
538.865	27261.71
539.065	27020.05
539.266	26278.68
539.466	26434.33
539.667	25631.52
539.868	25826.08
540.068	25207.59
540.269	25062.19
540.469	24953.65
540.67	24425.27
540.87	24142.65
541.071	23798.59
541.271	23640.9
541.472	23300.94
541.672	23057.23
541.873	22459.22
542.073	22301.53
542.274	22326.1
542.474	22178.65
542.675	21650.27
542.875	21713.76
543.075	21193.58
543.276	20921.2
543.476	20890.48
543.676	20546.42
543.877	20614
544.077	20382.58
544.277	19858.3
544.478	19651.45
544.678	19530.62
544.878	19391.36
545.078	19442.56
545.279	18776.97
545.479	18232.21
545.679	18557.84
545.879	18307.99
546.079	18049.94
546.28	17519.52
546.48	17388.45
546.68	17400.74
546.88	17134.5
547.08	16944.04
547.28	16569.26
547.48	16473.01
547.68	16380.85
547.88	16169.91
548.081	16171.96
548.281	15614.91
548.481	15588.28
548.681	15442.88
548.881	15313.86
549.081	15072.2
549.28	14787.53
549.48	14863.3
549.68	14564.3
549.88	14285.78
550.08	13765.59
550.28	13947.86
550.48	13708.25
550.68	13536.22
550.88	13186.02
551.08	12950.5
551.279	13028.32
551.479	12647.4
551.679	12461.04
551.879	11973.62
552.079	12262.38
552.278	12037.11
552.478	12174.32
552.678	11688.95
552.878	11471.87
553.077	11283.45
553.277	11021.31
553.477	11037.7
553.676	10697.74
553.876	10697.74
554.076	10384.4
554.275	10081.3
554.475	9817.11
554.674	10011.67
554.874	9876.5
555.074	9581.59
555.273	9624.6
555.473	9344.03
555.672	9116.7
555.872	9098.27
556.071	9071.65
556.271	8801.32
556.47	8647.72
556.67	8412.2
556.869	8389.67
557.068	8340.52
557.268	8105.01
557.467	7953.46
557.667	7808.05
557.866	7670.84
558.065	7525.43
558.265	7371.83
558.464	7113.79
558.663	7459.9
558.863	7191.61
559.062	7095.36
559.261	6730.82
559.461	6796.35
559.66	6685.76
559.859	6579.27
560.058	6384.71
560.258	6220.88
560.457	6192.2
560.656	6317.13
560.855	5954.64
561.054	6157.39
561.253	5911.63
561.453	5745.75
561.652	5780.56
561.851	5676.12
562.05	5461.08
562.249	5340.25
562.448	5340.25
562.647	5340.25
562.846	5258.33
563.045	5108.83
563.244	5026.91
563.443	5114.97
563.642	4797.54
563.841	4805.73
564.04	4719.71
564.239	4717.67
564.438	4449.38
564.637	4449.38
564.836	4498.53
565.035	4422.76
565.234	4340.84
565.432	4285.55
565.631	4236.39
565.83	4228.2
566.029	4119.66
566.228	4177
566.427	3964.01
566.625	3744.88
566.824	3820.66
567.023	3742.83
567.222	3636.34
567.42	3851.38
567.619	3712.11
567.818	3728.5
568.016	3667.06
568.215	3550.32
568.414	3445.88
568.612	3429.49
568.811	3267.7
569.01	3335.29
569.208	3236.99
569.407	3249.27
569.605	3140.73
569.804	3062.91
570.002	2911.36
570.201	3017.85
570.4	3015.8
570.598	2876.54
570.797	3026.04
570.995	2624.64
571.193	2874.49
571.392	2722.95
571.59	2632.83
571.789	2677.89
571.987	2749.57
572.186	2694.27
572.384	2614.4
572.582	2413.7
572.781	2516.1
572.979	2342.02
573.177	2368.65
573.376	2251.91
573.574	2303.11
573.772	2200.71
573.971	2231.43
574.169	2063.5
574.367	2301.06
574.565	2077.83
574.763	2264.2
574.962	2030.73
575.16	2090.12
575.358	1993.87
575.556	1975.44
575.754	1954.96
575.952	1926.29
576.151	1813.65
576.349	1914
576.547	1758.35
576.745	1918.09
576.943	1889.42
577.141	1809.55
577.339	1643.67
577.537	1731.73
577.735	1787.02
577.933	1713.3
578.131	1567.89
578.329	1670.29
578.527	1623.19
578.725	1664.15
578.923	1438.87
579.121	1522.84
579.319	1449.11
579.516	1447.06
579.714	1576.08
579.912	1565.84
580.11	1410.2
580.308	1324.18
580.506	1303.7
580.704	1234.07
580.901	1225.88
581.099	1303.7
581.297	1332.37
581.495	1186.97
581.692	1225.88
581.89	1354.9
582.088	1315.99
582.285	1184.92
582.483	1232.02
582.681	1131.67
582.878	1064.09
583.076	1096.86
583.274	1113.24
583.471	1295.51
583.669	1096.86
583.866	957.6
584.064	982.17
584.262	945.31
584.459	963.74
584.657	998.56
584.854	1035.42
585.052	953.5
585.249	1039.51
585.447	875.68
585.644	820.38
585.841	1076.38
586.039	926.88
586.236	922.78
586.434	867.49
586.631	826.53
586.828	799.9
587.026	879.77
587.223	722.08
587.42	771.23
587.618	783.52
587.815	855.2
588.012	820.38
588.21	720.03
588.407	804
588.604	828.57
588.801	617.63
588.999	756.9
589.196	808.09
589.393	705.7
589.59	793.76
589.787	697.5
589.984	738.46
590.182	732.32
590.379	617.63
590.576	744.61
590.773	724.13
590.97	681.12
591.167	740.51
591.364	715.94
591.561	709.79
591.758	773.28
591.955	677.02
592.152	695.46
592.349	634.02
592.546	693.41
592.743	601.25
592.94	693.41
593.137	715.94
593.334	799.9
593.531	711.84
593.727	617.63
593.924	648.35
594.121	693.41
594.318	662.69
594.515	717.98
594.712	826.53
594.908	842.91
595.105	580.77
595.302	779.42
595.499	701.6
595.696	767.13
595.892	728.22
596.089	871.58
596.286	750.75
596.482	799.9
596.679	910.49
596.876	824.48
597.072	933.02
597.269	859.29
597.466	916.64
597.662	881.82
597.859	906.4
598.055	1006.75
598.252	982.17
598.448	1139.87
598.645	1064.09
598.841	1141.91
599.038	1254.55
599.234	1250.46
599.431	1258.65
599.627	1387.67
599.824	1369.24
600.02	1289.37
600.217	1375.38
600.413	1506.45
600.609	1500.31
600.806	1731.73
601.002	1660.05
601.198	1664.15
601.395	1916.05
601.591	1795.22
601.787	1926.29
601.984	2047.12
602.18	2040.97
602.376	2131.08
602.572	2266.25
602.769	2303.11
602.965	2354.31
603.161	2608.26
603.357	2661.51
603.553	2718.85
603.75	2724.99
603.946	2802.82
604.142	2882.69
604.338	3161.21
604.534	3103.87
604.73	3216.51
604.926	3241.08
605.122	3480.69
605.318	3427.45
605.514	3761.27
605.71	3681.39
605.906	3943.53
606.102	3912.81
606.298	4160.62
606.494	4439.14
606.69	4529.25
606.886	4422.76
607.082	4621.41
607.278	4719.71
607.474	4836.45
607.67	5074.01
607.866	5145.69
608.062	5391.45
608.257	5469.27
608.453	5641.3
608.649	5692.5
608.845	5901.39
609.041	5977.17
609.236	6437.96
609.432	6386.76
609.628	6665.28
609.824	6792.26
610.019	6904.9
610.215	7095.36
610.411	7531.58
610.606	7629.88
610.802	7824.44
610.998	7898.16
611.193	8399.91
611.389	8113.2
611.584	8637.48
611.78	8793.12
611.976	8952.87
612.171	9405.47
612.367	9587.74
612.562	9647.13
612.758	9688.09
612.953	10062.87
613.149	10494.99
613.344	10527.75
613.539	11035.65
613.735	11097.09
613.93	11516.92
614.126	11875.32
614.321	12133.36
614.517	12757.99
614.712	12983.27
614.907	13001.7
615.103	13763.54
615.298	13712.35
615.493	14183.38
615.688	14322.64
615.884	15037.38
616.079	15133.64
616.274	15578.04
616.47	15823.8
616.665	16386.99
616.86	16552.88
617.055	16946.09
617.25	17640.35
617.445	18193.3
617.641	18090.9
617.836	18858.89
618.031	19217.29
618.226	19911.55
618.421	20245.37
618.616	21068.65
618.811	21187.43
619.006	21855.07
619.201	22014.81
619.396	22702.93
619.591	22897.49
619.786	23810.88
619.981	23991.1
620.176	24970.03
620.371	24816.43
620.566	25541.41
620.761	26133.28
620.956	26845.97
621.151	27200.27
621.346	27888.39
621.541	28195.58
621.735	28955.38
621.93	28930.8
622.125	29926.11
622.32	29991.65
622.515	30685.91
622.709	31392.46
622.904	31650.5
623.099	32484.03
623.294	33434.28
623.488	33493.68
623.683	34323.1
623.878	34538.14
624.072	34955.93
624.267	35865.22
624.462	36424.32
624.656	36721.27
624.851	37376.62
625.046	37837.42
625.24	38308.45
625.435	38840.92
625.629	39574.09
625.824	39770.7
626.018	40436.29
626.213	40235.59
626.407	41574.96
626.602	41452.08
626.796	41935.4
626.991	42437.16
627.185	42672.67
627.38	43045.4
627.574	43661.84
627.768	43444.76
627.963	43921.93
628.157	43612.69
628.352	44769.79
628.546	44040.71
628.74	44675.58
628.935	43977.23
629.129	44515.84
629.323	44239.37
629.517	44032.52
629.712	43708.94
629.906	43702.8
630.1	43053.59
630.294	42959.39
630.489	42273.32
630.683	41837.1
630.877	40690.24
631.071	40370.75
631.265	40084.04
631.459	39123.54
631.653	38457.95
631.848	37835.37
632.042	36967.03
632.236	36291.2
632.43	35058.32
632.624	34513.56
632.818	33147.57
633.012	32271.04
633.206	31509.19
633.4	30816.98
633.594	29223.66
633.788	28580.6
633.982	27538.18
634.176	26553.11
634.369	25496.36
634.563	24873.78
634.757	23692.1
634.951	22956.88
635.145	22166.36
635.339	20810.61
635.533	20478.83
635.726	19624.83
635.92	18611.09
636.114	17927.07
636.308	17271.72
636.501	16378.8
636.695	15868.86
636.889	14883.78
637.083	14562.25
637.276	14003.16
637.47	13239.26
637.664	13110.24
637.857	12415.98
638.051	11918.32
638.244	11508.73
638.438	11023.36
638.632	10755.08
638.825	9997.33
639.019	9849.88
639.212	9284.64
639.406	8944.67
639.599	8563.75
639.793	8150.06
639.986	7865.39
640.18	7703.61
640.373	7128.13
640.567	7013.44
640.76	6759.49
640.954	6470.73
641.147	6276.17
641.34	6106.19
641.534	5700.69
641.727	5725.27
641.92	5481.56
642.114	5123.16
642.307	5000.29
642.5	4899.94
642.694	4525.16
642.887	4369.51
643.08	4441.19
643.273	4103.28
643.467	3869.81
643.66	3726.45
643.853	3685.49
644.046	3486.84
644.239	3390.58
644.432	3185.79
644.626	3021.95
644.819	2964.61
645.012	2964.61
645.205	2841.73
645.398	2780.29
645.591	2675.84
645.784	2399.37
645.977	2317.45
646.17	2307.21
646.363	2184.33
646.556	1995.92
646.749	1918.09
646.942	2006.16
647.135	1926.29
647.328	1780.88
647.521	1825.93
647.714	1670.29
647.907	1658
648.099	1553.55
648.292	1614.99
648.485	1481.88
648.678	1412.25
648.871	1311.89
649.064	1311.89
649.256	1303.7
649.449	1191.06
649.642	1113.24
649.835	1031.32
650.027	1035.42
650.22	1076.38
650.413	1064.09
650.605	1049.75
650.798	890.01
650.991	855.2
651.183	900.25
651.376	869.53
651.568	826.53
651.761	785.57
651.954	883.87
652.146	779.42
652.339	832.67
652.531	760.99
652.724	685.22
652.916	603.3
653.109	494.76
653.301	640.16
653.494	644.26
653.686	670.88
653.879	707.74
654.071	660.64
654.263	541.86
654.456	455.84
654.648	576.67
654.84	588.96
655.033	502.95
655.225	679.07
655.417	308.39
655.61	572.58
655.802	523.43
655.994	593.06
656.186	400.55
656.379	527.52
656.571	353.45
656.763	375.97
656.955	349.35
657.148	390.31
657.34	482.47
657.532	386.21
657.724	341.16
657.916	416.93
658.108	380.07
658.3	318.63
658.492	251.05
658.684	304.29
658.876	421.03
659.068	224.42
659.26	205.99
659.452	222.38
659.644	263.33
659.836	335.01
660.028	398.5
660.22	232.62
660.412	322.73
660.604	246.95
660.796	351.4
660.988	337.06
661.18	277.67
661.372	378.02
661.563	218.28
661.755	232.62
661.947	171.18
662.139	228.52
662.331	238.76
662.522	236.71
662.714	187.56
662.906	146.6
663.097	228.52
663.289	224.42
663.481	95.4
663.673	244.9
663.864	134.31
664.056	320.68
664.247	124.07
664.439	296.1
664.631	220.33
664.822	244.9
665.014	251.05
665.205	158.89
665.397	181.42
665.588	140.46
665.78	117.93
665.971	228.52
666.163	189.61
666.354	189.61
666.546	89.26
666.737	173.22
666.929	107.69
667.12	156.84
667.311	214.18
667.503	230.57
667.694	208.04
667.885	128.17
668.077	148.65
668.268	132.26
668.459	175.27
668.651	117.93
668.842	210.09
669.033	74.92
669.224	105.64
669.416	365.73
669.607	203.94
669.798	99.5
669.989	263.33
670.18	156.84
670.371	203.94
670.563	101.55
670.754	304.29
670.945	152.74
671.136	222.38
671.327	154.79
671.518	185.51
671.709	365.73
671.9	179.37
672.091	203.94
672.282	154.79
672.473	144.55
672.664	95.4
672.855	199.85
673.046	136.36
673.237	220.33
673.428	244.9
673.619	287.91
673.809	226.47
674	167.08
674.191	224.42
674.382	169.13
674.573	167.08
674.764	179.37
674.954	265.38
675.145	58.54
675.336	109.74
675.527	171.18
675.717	158.89
675.908	162.98
676.099	91.31
676.289	175.27
676.48	79.02
676.671	140.46
676.861	101.55
677.052	275.62
677.243	173.22
677.433	130.22
677.624	302.25
677.814	232.62
678.005	148.65
678.195	328.87
678.386	136.36
678.576	257.19
678.767	144.55
678.957	197.8
679.148	218.28
679.338	314.53
679.529	203.94
679.719	179.37
679.909	220.33
680.1	273.57
680.29	249
680.481	122.02
680.671	201.9
680.861	300.2
681.052	193.7
681.242	195.75
681.432	220.33
681.622	214.18
681.813	169.13
682.003	214.18
682.193	101.55
682.383	171.18
682.573	205.99
682.764	171.18
682.954	230.57
683.144	320.68
683.334	240.81
683.524	173.22
683.714	249
683.904	224.42
684.094	167.08
684.284	277.67
684.474	324.77
684.664	347.3
684.854	234.66
685.044	271.53
685.234	249
685.424	296.1
685.614	193.7
685.804	378.02
685.994	249
686.184	308.39
686.374	208.04
686.564	265.38
686.753	304.29
686.943	173.22
687.133	191.66
687.323	246.95
687.513	263.33
687.702	220.33
687.892	275.62
688.082	275.62
688.272	371.88
688.461	246.95
688.651	390.31
688.841	326.82
689.03	171.18
689.22	226.47
689.41	236.71
689.599	263.33
689.789	246.95
689.979	294.05
690.168	255.14
690.358	265.38
690.547	210.09
690.737	257.19
690.926	312.49
691.116	236.71
691.305	269.48
691.495	238.76
691.684	195.75
691.874	183.46
692.063	244.9
692.252	330.92
692.442	347.3
692.631	142.5
692.82	222.38
693.01	181.42
693.199	201.9
693.388	302.25
693.578	251.05
693.767	244.9
693.956	292.01
694.146	193.7
694.335	306.34
694.524	214.18
694.713	294.05
694.902	271.53
695.092	167.08
695.281	318.63
695.47	232.62
695.659	324.77
695.848	187.56
696.037	169.13
696.226	296.1
696.415	210.09
696.604	337.06
696.793	324.77
696.982	224.42
697.171	308.39
697.36	76.97
697.549	218.28
697.738	208.04
697.927	236.71
698.116	183.46
698.305	308.39
698.494	271.53
698.683	261.29
698.872	314.53
699.061	242.85
699.25	169.13
699.438	216.23
699.627	205.99
699.816	357.54
700.005	134.31
700.193	193.7
700.382	302.25
700.571	242.85
700.76	232.62
700.948	298.15
701.137	296.1
701.326	183.46
701.514	160.94
701.703	273.57
701.892	240.81
702.08	449.7
702.269	218.28
702.457	179.37
702.646	238.76
702.834	199.85
703.023	298.15
703.212	181.42
703.4	236.71
703.589	208.04
703.777	187.56
703.965	91.31
704.154	193.7
704.342	187.56
704.531	183.46
704.719	238.76
704.907	289.96
705.096	185.51
705.284	167.08
705.472	140.46
705.661	197.8
705.849	218.28
706.037	322.73
706.226	304.29
706.414	236.71
706.602	183.46
706.79	259.24
706.979	197.8
707.167	181.42
707.355	64.68
707.543	251.05
707.731	222.38
707.919	136.36
708.107	134.31
708.296	103.59
708.484	191.66
708.672	197.8
708.86	304.29
709.048	228.52
709.236	210.09
709.424	328.87
709.612	326.82
709.8	162.98
709.988	234.66
710.176	238.76
710.364	255.14
710.551	294.05
710.739	300.2
710.927	142.5
711.115	199.85
711.303	294.05
711.491	418.98
711.679	191.66
711.866	306.34
712.054	175.27
712.242	304.29
712.43	298.15
712.617	140.46
712.805	306.34
712.993	199.85
713.181	130.22
713.368	320.68
713.556	308.39
713.744	179.37
713.931	410.79
714.119	308.39
714.306	218.28
714.494	214.18
714.682	277.67
714.869	146.6
715.057	222.38
715.244	101.55
715.432	269.48
715.619	216.23
715.807	230.57
715.994	191.66
716.182	253.09
716.369	279.72
716.556	339.11
716.744	173.22
716.931	134.31
717.119	265.38
717.306	287.91
717.493	296.1
717.681	232.62
717.868	287.91
718.055	298.15
718.242	230.57
718.43	238.76
718.617	335.01
718.804	181.42
718.991	287.91
719.179	279.72
719.366	318.63
719.553	273.57
719.74	232.62
719.927	226.47
720.114	298.15
720.301	230.57
720.488	275.62
720.676	255.14
720.863	351.4
721.05	447.65
721.237	226.47
721.424	398.5
721.611	271.53
721.798	142.5
721.985	228.52
722.172	228.52
722.358	205.99
722.545	308.39
722.732	339.11
722.919	416.93
723.106	279.72
723.293	201.9
723.48	199.85
723.667	281.77
723.853	314.53
724.04	240.81
724.227	396.45
724.414	203.94
724.6	363.69
724.787	478.37
724.974	439.46
725.161	279.72
725.347	289.96
725.534	341.16
725.72	292.01
725.907	404.64
726.094	308.39
726.28	259.24
726.467	246.95
726.653	236.71
726.84	416.93
727.027	421.03
727.213	279.72
727.4	337.06
727.586	320.68
727.773	275.62
727.959	298.15
728.145	261.29
728.332	226.47
728.518	292.01
728.705	294.05
728.891	373.92
729.077	271.53
729.264	271.53
729.45	271.53
729.636	382.12
729.823	281.77
730.009	392.36
730.195	304.29
730.382	416.93
730.568	220.33
730.754	351.4
730.94	263.33
731.126	242.85
731.313	302.25
731.499	355.49
731.685	275.62
731.871	351.4
732.057	390.31
732.243	359.59
732.429	347.3
732.615	466.08
732.801	347.3
732.987	410.79
733.173	359.59
733.359	298.15
733.545	322.73
733.731	257.19
733.917	400.55
734.103	390.31
734.289	345.25
734.475	261.29
734.661	461.99
734.847	394.4
735.033	388.26
735.219	378.02
735.404	357.54
735.59	265.38
735.776	302.25
735.962	371.88
736.148	472.23
736.333	427.17
736.519	320.68
736.705	269.48
736.89	322.73
737.076	363.69
737.262	265.38
737.447	261.29
737.633	345.25
737.819	400.55
738.004	337.06
738.19	273.57
738.375	490.66
738.561	439.46
738.747	353.45
738.932	298.15
739.118	562.34
739.303	457.89
739.489	421.03
739.674	335.01
739.859	267.43
740.045	365.73
740.23	283.81
740.416	210.09
740.601	326.82
740.786	322.73
740.972	314.53
741.157	261.29
741.342	216.23
741.528	199.85
741.713	386.21
741.898	279.72
742.084	359.59
742.269	292.01
742.454	373.92
742.639	322.73
742.824	324.77
743.01	441.51
743.195	464.04
743.38	322.73
743.565	296.1
743.75	351.4
743.935	378.02
744.12	472.23
744.305	330.92
744.49	367.78
744.675	394.4
744.86	265.38
745.045	296.1
745.23	230.57
745.415	257.19
745.6	441.51
745.785	294.05
745.97	359.59
746.155	408.74
746.34	418.98
746.525	314.53
746.71	384.16
746.895	251.05
747.079	228.52
747.264	341.16
747.449	400.55
747.634	363.69
747.819	244.9
748.003	277.67
748.188	201.9
748.373	367.78
748.557	388.26
748.742	294.05
748.927	242.85
749.111	292.01
749.296	244.9
749.481	361.64
749.665	285.86
749.85	230.57
750.034	341.16
750.219	228.52
750.404	273.57
750.588	343.21
750.773	240.81
750.957	212.14
751.141	341.16
751.326	271.53
751.51	292.01
751.695	224.42
751.879	320.68
752.064	386.21
752.248	259.24
752.432	418.98
752.617	302.25
752.801	398.5
752.985	271.53
753.17	335.01
753.354	208.04
753.538	263.33
753.722	208.04
753.907	197.8
754.091	115.88
754.275	308.39
754.459	179.37
754.643	183.46
754.828	212.14
755.012	195.75
755.196	136.36
755.38	261.29
755.564	122.02
755.748	173.22
755.932	310.44
756.116	255.14
756.3	257.19
756.484	203.94
756.668	238.76
756.852	113.83
757.036	294.05
757.22	232.62
757.404	146.6
757.588	236.71
757.772	304.29
757.956	205.99
758.14	392.36
758.323	162.98
758.507	193.7
758.691	162.98
758.875	220.33
759.059	261.29
759.242	171.18
759.426	165.03
759.61	277.67
759.794	185.51
759.977	244.9
760.161	380.07
760.345	285.86
760.528	285.86
760.712	173.22
760.895	238.76
761.079	154.79
761.263	117.93
761.446	144.55
761.63	142.5
761.813	240.81
761.997	99.5
762.18	146.6
762.364	169.13
762.547	56.49
762.731	228.52
762.914	185.51
763.098	144.55
763.281	132.26
763.464	154.79
763.648	261.29
763.831	130.22
764.015	68.78
764.198	300.2
764.381	144.55
764.564	152.74
764.748	150.7
764.931	171.18
765.114	113.83
765.297	156.84
765.481	56.49
765.664	173.22
765.847	124.07
766.03	269.48
766.213	162.98
766.397	95.4
766.58	31.91
766.763	126.12
766.946	101.55
767.129	74.92
767.312	52.39
767.495	158.89
767.678	122.02
767.861	169.13
768.044	171.18
768.227	83.11
768.41	220.33
768.593	144.55
768.776	154.79
768.959	175.27
769.142	279.72
769.324	158.89
769.507	95.4
769.69	119.98
769.873	132.26
770.056	216.23
770.239	146.6
770.421	208.04
770.604	132.26
770.787	46.25
770.97	138.41
771.152	29.87
771.335	132.26
771.518	-21.33
771.7	275.62
771.883	232.62
772.066	95.4
772.248	171.18
772.431	128.17
772.613	173.22
772.796	171.18
772.978	97.45
773.161	214.18
773.343	33.96
773.526	124.07
773.708	36.01
773.891	-47.96
774.073	81.07
774.256	105.64
774.438	218.28
774.621	68.78
774.803	113.83
774.985	60.59
775.168	160.94
775.35	105.64
775.532	171.18
775.715	52.39
775.897	160.94
776.079	107.69
776.261	181.42
776.444	54.44
776.626	119.98
776.808	95.4
776.99	81.07
777.173	101.55
777.355	64.68
777.537	91.31
777.719	152.74
777.901	48.3
778.083	58.54
778.265	19.63
778.447	101.55
778.629	36.01
778.811	109.74
778.993	208.04
779.175	201.9
779.357	103.59
779.539	52.39
779.721	40.11
779.903	212.14
780.085	99.5
780.267	74.92
780.449	-27.48
780.631	105.64
780.812	160.94
780.994	13.48
781.176	128.17
781.358	117.93
781.54	62.63
781.721	60.59
781.903	119.98
782.085	83.11
782.267	300.2
782.448	-15.19
782.63	3.24
782.812	193.7
782.993	54.44
783.175	52.39
783.357	62.63
783.538	79.02
783.72	-39.76
783.901	101.55
784.083	38.06
784.264	33.96
784.446	-50
784.627	-11.09
784.809	99.5
784.99	31.91
785.172	60.59
785.353	58.54
785.535	27.82
785.716	13.48
785.897	-19.29
786.079	93.35
786.26	21.67
786.441	167.08
786.623	-31.57
786.804	44.2
786.985	48.3
787.167	138.41
787.348	87.21
787.529	25.77
787.71	173.22
787.891	58.54
788.073	56.49
788.254	-17.24
788.435	136.36
788.616	74.92
788.797	-15.19
788.978	38.06
789.159	74.92
789.34	111.78
789.522	105.64
789.703	17.58
789.884	48.3
790.065	144.55
790.246	156.84
790.427	25.77
790.607	97.45
790.788	132.26
790.969	27.82
791.15	64.68
791.331	56.49
791.512	21.67
791.693	-45.91
791.874	64.68
792.054	287.91
792.235	103.59
792.416	33.96
792.597	9.39
792.778	97.45
792.958	48.3
793.139	46.25
793.32	79.02
793.5	9.39
793.681	113.83
793.862	85.16
794.042	46.25
794.223	-50
794.404	-39.76
794.584	-66.39
794.765	42.15
794.945	27.82
795.126	62.63
795.306	66.73
795.487	19.63
795.667	54.44
795.848	52.39
796.028	5.29
796.209	89.26
796.389	128.17
796.57	21.67
796.75	29.87
796.93	27.82
797.111	-39.76
797.291	-0.85
797.471	101.55
797.652	-13.14
797.832	52.39
798.012	181.42
798.192	56.49
798.373	-84.82
798.553	72.87
798.733	72.87
798.913	3.24
799.093	27.82
799.274	103.59
799.454	15.53
799.634	95.4
799.814	119.98
799.994	101.55
800.174	140.46
800.354	40.11
800.534	-15.19
800.714	66.73
800.894	-29.52
801.074	-29.52
801.254	-56.15
801.434	64.68
801.614	15.53
801.794	-19.29
801.974	1830.03
802.154	-56.15
802.334	99.5
802.514	-29.52
802.693	-74.58
802.873	-0.85
803.053	171.18
803.233	52.39
803.413	36.01
803.592	5.29
803.772	-13.14
803.952	46.25
804.131	-23.38
804.311	83.11
804.491	156.84
804.67	-39.76
804.85	-27.48
805.03	132.26
805.209	38.06
805.389	-0.85
805.568	-45.91
805.748	-7
805.928	9.39
806.107	148.65
806.287	81.07
806.466	25.77
806.646	-11.09
806.825	76.97
807.004	-23.38
807.184	56.49
807.363	105.64
807.543	21.67
807.722	23.72
807.901	162.98
808.081	27.82
808.26	3.24
808.439	-19.29
808.619	42.15
808.798	-43.86
808.977	60.59
809.156	122.02
809.336	-39.76
809.515	138.41
809.694	-13.14
809.873	-35.67
810.052	91.31
810.231	89.26
810.411	23.72
810.59	158.89
810.769	19.63
810.948	93.35
811.127	-27.48
811.306	9.39
811.485	-54.1
811.664	117.93
811.843	9.39
812.022	79.02
812.201	44.2
812.38	23.72
812.559	17.58
812.737	136.36
812.916	-70.48
813.095	-4.95
813.274	13.48
813.453	60.59
813.632	-39.76
813.811	-2.9
813.989	-70.48
814.168	-4.95
814.347	-50
814.526	-72.53
814.704	146.6
814.883	175.27
815.062	11.43
815.24	150.7
815.419	-37.72
815.598	58.54
815.776	-19.29
815.955	-54.1
816.133	-68.44
816.312	31.91
816.49	-56.15
816.669	-2.9
816.847	-27.48
817.026	-13.14
817.204	-9.05
817.383	3.24
817.561	38.06
817.74	87.21
817.918	27.82
818.097	46.25
818.275	13.48
818.453	44.2
818.632	-21.33
818.81	5.29
818.988	-7
819.167	-29.52
819.345	93.35
819.523	-64.34
819.701	44.2
819.879	62.63
820.058	74.92
820.236	-25.43
820.414	52.39
820.592	-27.48
820.77	56.49
820.948	-99.16
821.127	5.29
821.305	89.26
821.483	-7
821.661	42.15
821.839	-0.85
822.017	-9.05
822.195	-74.58
822.373	74.92
822.551	58.54
822.729	40.11
822.907	1.19
823.085	44.2
823.262	56.49
823.44	-70.48
823.618	3.24
823.796	54.44
823.974	36.01
824.152	-35.67
824.329	-23.38
824.507	23.72
824.685	33.96
824.863	7.34
825.04	11.43
825.218	109.74
825.396	36.01
825.574	89.26
825.751	25.77
825.929	91.31
826.107	-86.87
826.284	83.11
826.462	72.87
826.639	-27.48
826.817	-127.83
826.994	-4.95
827.172	17.58
827.349	83.11
827.527	11.43
827.704	52.39
827.882	93.35
828.059	-9.05
828.237	40.11
828.414	33.96
828.591	-84.82
828.769	40.11
828.946	-0.85
829.124	21.67
829.301	68.78
829.478	17.58
829.655	113.83
829.833	21.67
830.01	-125.78
830.187	76.97
830.364	-4.95
830.542	5.29
830.719	146.6
830.896	40.11
831.073	36.01
831.25	33.96
831.427	70.83
831.604	33.96
831.782	-7
831.959	29.87
832.136	5.29
832.313	19.63
832.49	21.67
832.667	5.29
832.844	-80.72
833.021	81.07
833.198	17.58
833.374	76.97
833.551	68.78
833.728	21.67
833.905	44.2
834.082	-140.12
834.259	91.31
834.436	146.6
834.612	-84.82
834.789	-11.09
834.966	5.29
835.143	122.02
835.319	-76.63
835.496	42.15
835.673	5.29
835.85	134.31
836.026	25.77
836.203	21.67
836.38	52.39
836.556	-84.82
836.733	-33.62
836.909	148.65
837.086	-74.58
837.262	9.39
837.439	54.44
837.616	-33.62
837.792	-17.24
837.968	36.01
838.145	-207.7
838.321	29.87
838.498	5.29
838.674	46.25
838.851	23.72
839.027	-43.86
839.203	27.82
839.38	42.15
839.556	-15.19
839.732	74.92
839.909	23.72
840.085	40.11
840.261	-60.24
840.437	-11.09
840.614	-35.67
840.79	138.41
840.966	1.19
841.142	50.35
841.318	-7
841.494	68.78
841.671	83.11
841.847	-64.34
842.023	48.3
842.199	-2.9
842.375	146.6
842.551	-68.44
842.727	-35.67
842.903	56.49
843.079	-68.44
843.255	107.69
843.431	1.19
843.607	25.77
843.783	-160.59
843.959	23.72
844.134	-119.64
844.31	122.02
844.486	-97.11
844.662	-41.81
844.838	13.48
845.013	89.26
845.189	74.92
845.365	40.11
845.541	7.34
845.716	33.96
845.892	23.72
846.068	-39.76
846.244	-37.72
846.419	56.49
846.595	-80.72
846.77	-47.96
846.946	21.67
847.122	7.34
847.297	-97.11
847.473	167.08
847.648	-78.68
847.824	19.63
847.999	-70.48
848.175	-17.24
848.35	56.49
848.526	138.41
848.701	83.11
848.876	48.3
849.052	85.16
849.227	17.58
849.403	17.58
849.578	-25.43
849.753	109.74
849.929	15.53
850.104	-123.73
850.279	15.53
850.454	36.01
850.63	74.92
850.805	40.11
850.98	13.48
851.155	11.43
851.33	11.43
851.505	-68.44
851.681	183.46
851.856	9.39
852.031	76.97
852.206	1.19
852.381	-23.38
852.556	-15.19
852.731	19.63
852.906	3.24
853.081	48.3
853.256	68.78
853.431	31.91
853.606	-15.19
853.781	-90.96
853.956	-95.06
854.131	-4.95
854.305	-68.44
854.48	36.01
854.655	-9.05
854.83	-60.24
855.005	7.34
855.18	-47.96
855.354	27.82
855.529	-62.29
855.704	21.67
855.879	66.73
856.053	17.58
856.228	38.06
856.403	-35.67
856.577	81.07
856.752	-62.29
856.926	-68.44
857.101	40.11
857.276	-43.86
857.45	-9.05
857.625	-17.24
857.799	9.39
857.974	-23.38
858.148	-95.06
858.323	9.39
858.497	27.82
858.672	-35.67
858.846	-27.48
859.02	117.93
859.195	-86.87
859.369	3.24
859.543	38.06
859.718	-4.95
859.892	38.06
860.066	13.48
860.241	-27.48
860.415	1.19
860.589	15.53
860.763	-23.38
860.938	-27.48
861.112	74.92
861.286	50.35
861.46	103.59
861.634	-15.19
861.808	-19.29
861.982	62.63
862.157	-68.44
862.331	31.91
862.505	-39.76
862.679	-95.06
862.853	9.39
863.027	-56.15
863.201	132.26
863.375	-35.67
863.549	36.01
863.722	15.53
863.896	76.97
864.07	-113.49
864.244	-33.62
864.418	50.35
864.592	19.63
864.766	5.29
864.939	31.91
865.113	-90.96
865.287	183.46
865.461	-66.39
865.634	-19.29
865.808	-21.33
865.982	-4.95
866.156	-117.59
866.329	-150.36
866.503	44.2
866.676	3.24
866.85	-7
867.024	-27.48
867.197	46.25
867.371	81.07
867.544	87.21
867.718	-72.53
867.891	44.2
868.065	-27.48
868.238	40.11
868.412	58.54
868.585	-0.85
868.759	-27.48
868.932	-11.09
869.105	-25.43
869.279	19.63
869.452	-76.63
869.625	66.73
869.799	-13.14
869.972	-99.16
870.145	-86.87
870.319	25.77
870.492	-78.68
870.665	-70.48
870.838	-15.19
871.011	-133.97
871.185	7.34
871.358	-58.2
871.531	27.82
871.704	-58.2
871.877	-9.05
872.05	25.77
872.223	-66.39
872.396	33.96
872.569	-11.09
872.742	-80.72
872.915	3.24
873.088	-64.34
873.261	-54.1
873.434	38.06
873.607	17.58
873.78	93.35
873.953	-64.34
874.126	23.72
874.299	52.39
874.471	31.91
874.644	36.01
874.817	64.68
874.99	140.46
875.163	-90.96
875.335	23.72
875.508	19.63
875.681	117.93
875.853	-101.2
876.026	17.58
876.199	-29.52
876.371	38.06
876.544	29.87
876.717	1.19
876.889	-25.43
877.062	99.5
877.234	-72.53
877.407	-68.44
877.579	29.87
877.752	1.19
877.924	40.11
878.097	76.97
878.269	48.3
878.442	56.49
878.614	93.35
878.786	-9.05
878.959	-45.91
879.131	-19.29
879.303	-105.3
879.476	-37.72
879.648	81.07
879.82	-25.43
879.993	-4.95
880.165	7.34
880.337	-123.73
880.509	13.48
880.681	-72.53
880.854	-86.87
881.026	33.96
881.198	97.45
881.37	-7
881.542	-15.19
881.714	-70.48
881.886	-35.67
882.058	-7
882.23	50.35
882.402	7.34
882.574	58.54
882.746	134.31
882.918	150.7
883.09	19.63
883.262	-56.15
883.434	3.24
883.606	-95.06
883.778	-13.14
883.95	36.01
884.122	-62.29
884.293	74.92
884.465	-19.29
884.637	44.2
884.809	-74.58
884.98	27.82
885.152	40.11
885.324	76.97
885.496	-90.96
885.667	13.48
885.839	-68.44
886.011	156.84
886.182	50.35
886.354	15.53
886.525	-11.09
886.697	29.87
886.869	-33.62
887.04	1.19
887.212	64.68
887.383	148.65
887.555	-27.48
887.726	-66.39
887.897	-119.64
888.069	-13.14
888.24	109.74
888.412	-0.85
888.583	-68.44
888.754	-31.57
888.926	-131.92
889.097	-117.59
889.268	-136.02
889.44	-58.2
889.611	-97.11
889.782	-68.44
889.953	-25.43
890.125	136.36
890.296	-47.96
890.467	-33.62
890.638	-80.72
890.809	-4.95
890.98	-19.29
891.151	42.15
891.323	42.15
891.494	-37.72
891.665	11.43
891.836	11.43
892.007	-25.43
892.178	64.68
892.349	-27.48
892.52	-0.85
892.691	52.39
892.862	-50
893.032	-80.72
893.203	-19.29
893.374	-15.19
893.545	66.73
893.716	-43.86
893.887	62.63
894.057	-27.48
894.228	3.24
894.399	-76.63
894.57	122.02
894.74	-35.67
894.911	-2.9
895.082	13.48
895.253	-58.2
895.423	60.59
895.594	95.4
895.764	50.35
895.935	-111.44
896.106	-64.34
896.276	-52.05
896.447	11.43
896.617	-93.01
896.788	-90.96
896.958	-76.63
897.129	-64.34
897.299	-66.39
897.47	54.44
897.64	107.69
897.81	-7
897.981	17.58
898.151	-78.68
898.322	93.35
898.492	-70.48
898.662	-19.29
898.832	-37.72
899.003	11.43
899.173	-68.44
899.343	-37.72
899.513	-68.44
