Data from USB4F104151__62__09-29-08-496.txt Node

Date: Wed Feb 26 09:29:08 EST 2025
User: louis
Spectrometer: USB4F10415
Trigger mode: 4
Integration Time (sec): 1.000000E-1
Scans to average: 1
Electric dark correction enabled: true
Nonlinearity correction enabled: false
Boxcar width: 0
XAxis mode: Wavelengths
Number of Pixels in Spectrum: 3648
>>>>>Begin Spectral Data<<<<<
178.204	-330.58
178.424	-330.58
178.644	-330.58
178.864	-406.35
179.084	-375.63
179.304	44.2
179.524	-95.06
179.744	-7
179.964	25.77
180.184	7.34
180.404	79.02
180.624	-47.96
180.844	9.39
181.064	-15.19
181.283	21.67
181.503	-58.2
181.723	36.01
181.943	15.53
182.163	236.71
182.383	17.58
182.602	113.83
182.822	124.07
183.042	93.35
183.262	50.35
183.482	40.11
183.701	17.58
183.921	44.2
184.141	-27.48
184.361	154.79
184.58	103.59
184.8	27.82
185.02	23.72
185.239	128.17
185.459	109.74
185.679	85.16
185.898	-72.53
186.118	42.15
186.338	58.54
186.557	72.87
186.777	-43.86
186.997	17.58
187.216	7.34
187.436	138.41
187.655	31.91
187.875	97.45
188.095	-4.95
188.314	66.73
188.534	42.15
188.753	3.24
188.973	173.22
189.192	115.88
189.412	-13.14
189.631	60.59
189.851	54.44
190.07	79.02
190.29	-90.96
190.509	74.92
190.729	-9.05
190.948	130.22
191.168	197.8
191.387	74.92
191.607	79.02
191.826	62.63
192.045	38.06
192.265	25.77
192.484	107.69
192.704	50.35
192.923	-64.34
193.142	142.5
193.362	74.92
193.581	115.88
193.8	52.39
194.02	87.21
194.239	44.2
194.458	27.82
194.678	9.39
194.897	11.43
195.116	122.02
195.335	3.24
195.555	-29.52
195.774	23.72
195.993	87.21
196.212	68.78
196.432	42.15
196.651	66.73
196.87	64.68
197.089	175.27
197.308	58.54
197.528	136.36
197.747	-76.63
197.966	-15.19
198.185	156.84
198.404	36.01
198.623	74.92
198.842	162.98
199.062	113.83
199.281	122.02
199.5	-17.24
199.719	126.12
199.938	83.11
200.157	60.59
200.376	54.44
200.595	68.78
200.814	54.44
201.033	-9.05
201.252	181.42
201.471	3.24
201.69	165.03
201.909	33.96
202.128	119.98
202.347	101.55
202.566	1.19
202.785	-29.52
203.004	7.34
203.223	277.67
203.442	25.77
203.661	-31.57
203.879	62.63
204.098	212.14
204.317	15.53
204.536	91.31
204.755	66.73
204.974	74.92
205.193	21.67
205.411	251.05
205.63	87.21
205.849	23.72
206.068	25.77
206.287	3.24
206.505	95.4
206.724	13.48
206.943	-27.48
207.162	48.3
207.381	74.92
207.599	33.96
207.818	-4.95
208.037	-37.72
208.255	103.59
208.474	62.63
208.693	17.58
208.911	-17.24
209.13	25.77
209.349	-23.38
209.567	91.31
209.786	115.88
210.005	107.69
210.223	21.67
210.442	-47.96
210.661	19.63
210.879	113.83
211.098	21.67
211.316	-23.38
211.535	70.83
211.753	54.44
211.972	107.69
212.191	25.77
212.409	7.34
212.628	70.83
212.846	-19.29
213.065	19.63
213.283	117.93
213.502	27.82
213.72	25.77
213.938	15.53
214.157	-13.14
214.375	66.73
214.594	40.11
214.812	95.4
215.031	-21.33
215.249	50.35
215.467	50.35
215.686	-41.81
215.904	89.26
216.122	38.06
216.341	148.65
216.559	5.29
216.778	105.64
216.996	89.26
217.214	29.87
217.432	-4.95
217.651	46.25
217.869	74.92
218.087	15.53
218.306	21.67
218.524	56.49
218.742	-43.86
218.96	52.39
219.179	87.21
219.397	107.69
219.615	132.26
219.833	70.83
220.051	15.53
220.27	107.69
220.488	103.59
220.706	40.11
220.924	-2.9
221.142	-0.85
221.36	11.43
221.578	136.36
221.796	31.91
222.015	-19.29
222.233	31.91
222.451	72.87
222.669	-33.62
222.887	76.97
223.105	17.58
223.323	-7
223.541	-9.05
223.759	101.55
223.977	17.58
224.195	195.75
224.413	50.35
224.631	58.54
224.849	85.16
225.067	179.37
225.285	-11.09
225.503	-41.81
225.721	-76.63
225.939	54.44
226.157	40.11
226.375	179.37
226.592	17.58
226.81	66.73
227.028	140.46
227.246	124.07
227.464	68.78
227.682	40.11
227.9	115.88
228.117	130.22
228.335	74.92
228.553	7.34
228.771	-35.67
228.989	56.49
229.206	38.06
229.424	3.24
229.642	-15.19
229.86	42.15
230.077	220.33
230.295	158.89
230.513	68.78
230.731	189.61
230.948	171.18
231.166	85.16
231.384	64.68
231.601	-7
231.819	160.94
232.037	-88.92
232.254	-21.33
232.472	113.83
232.689	89.26
232.907	17.58
233.125	52.39
233.342	-35.67
233.56	-23.38
233.777	79.02
233.995	-7
234.213	103.59
234.43	48.3
234.648	52.39
234.865	52.39
235.083	136.36
235.3	74.92
235.518	56.49
235.735	42.15
235.953	42.15
236.17	15.53
236.388	50.35
236.605	-9.05
236.822	89.26
237.04	83.11
237.257	101.55
237.475	-13.14
237.692	23.72
237.909	74.92
238.127	29.87
238.344	113.83
238.562	-68.44
238.779	-25.43
238.996	-31.57
239.214	58.54
239.431	66.73
239.648	21.67
239.865	107.69
240.083	142.5
240.3	23.72
240.517	-2.9
240.735	-7
240.952	68.78
241.169	85.16
241.386	1.19
241.603	9.39
241.821	-23.38
242.038	76.97
242.255	107.69
242.472	56.49
242.689	15.53
242.907	154.79
243.124	95.4
243.341	50.35
243.558	7.34
243.775	-27.48
243.992	-72.53
244.209	76.97
244.426	169.13
244.643	66.73
244.86	42.15
245.078	40.11
245.295	74.92
245.512	91.31
245.729	-33.62
245.946	62.63
246.163	89.26
246.38	15.53
246.597	31.91
246.814	74.92
247.031	89.26
247.248	-13.14
247.464	58.54
247.681	87.21
247.898	101.55
248.115	91.31
248.332	-17.24
248.549	115.88
248.766	154.79
248.983	56.49
249.2	40.11
249.417	107.69
249.633	-11.09
249.85	97.45
250.067	50.35
250.284	79.02
250.501	91.31
250.717	162.98
250.934	-56.15
251.151	1.19
251.368	42.15
251.585	68.78
251.801	103.59
252.018	19.63
252.235	97.45
252.451	-56.15
252.668	33.96
252.885	97.45
253.102	85.16
253.318	25.77
253.535	54.44
253.752	-54.1
253.968	-31.57
254.185	-7
254.401	83.11
254.618	54.44
254.835	13.48
255.051	138.41
255.268	11.43
255.484	48.3
255.701	50.35
255.917	64.68
256.134	-105.3
256.351	56.49
256.567	-88.92
256.784	-4.95
257	-72.53
257.217	101.55
257.433	66.73
257.65	42.15
257.866	91.31
258.082	1.19
258.299	-47.96
258.515	107.69
258.732	40.11
258.948	17.58
259.165	83.11
259.381	1.19
259.597	113.83
259.814	-37.72
260.03	83.11
260.246	25.77
260.463	79.02
260.679	31.91
260.895	17.58
261.112	62.63
261.328	54.44
261.544	1.19
261.761	171.18
261.977	-82.77
262.193	23.72
262.409	132.26
262.626	15.53
262.842	95.4
263.058	-33.62
263.274	33.96
263.49	50.35
263.707	52.39
263.923	29.87
264.139	-80.72
264.355	48.3
264.571	62.63
264.787	136.36
265.004	171.18
265.22	31.91
265.436	-15.19
265.652	17.58
265.868	3.24
266.084	-19.29
266.3	-37.72
266.516	-64.34
266.732	-31.57
266.948	-15.19
267.164	17.58
267.38	83.11
267.596	11.43
267.812	146.6
268.028	85.16
268.244	-31.57
268.46	128.17
268.676	5.29
268.892	38.06
269.108	11.43
269.324	33.96
269.54	-50
269.756	87.21
269.972	-99.16
270.188	74.92
270.403	-47.96
270.619	33.96
270.835	25.77
271.051	76.97
271.267	27.82
271.483	-56.15
271.698	107.69
271.914	58.54
272.13	19.63
272.346	66.73
272.562	29.87
272.777	31.91
272.993	19.63
273.209	-17.24
273.425	29.87
273.64	7.34
273.856	-9.05
274.072	-7
274.287	54.44
274.503	74.92
274.719	25.77
274.934	23.72
275.15	-37.72
275.366	64.68
275.581	-64.34
275.797	31.91
276.012	146.6
276.228	-33.62
276.444	87.21
276.659	103.59
276.875	-9.05
277.09	36.01
277.306	33.96
277.521	25.77
277.737	40.11
277.952	117.93
278.168	7.34
278.383	54.44
278.599	50.35
278.814	91.31
279.03	5.29
279.245	140.46
279.461	-31.57
279.676	91.31
279.892	-7
280.107	-15.19
280.322	-25.43
280.538	38.06
280.753	17.58
280.969	23.72
281.184	103.59
281.399	99.5
281.615	111.78
281.83	113.83
282.045	-45.91
282.26	-27.48
282.476	95.4
282.691	25.77
282.906	40.11
283.122	97.45
283.337	-23.38
283.552	52.39
283.767	-33.62
283.983	54.44
284.198	83.11
284.413	25.77
284.628	-72.53
284.843	9.39
285.058	87.21
285.274	33.96
285.489	23.72
285.704	89.26
285.919	-27.48
286.134	17.58
286.349	9.39
286.564	-15.19
286.779	160.94
286.995	13.48
287.21	-31.57
287.425	36.01
287.64	-27.48
287.855	1.19
288.07	-52.05
288.285	177.32
288.5	81.07
288.715	9.39
288.93	40.11
289.145	5.29
289.36	68.78
289.575	23.72
289.79	150.7
290.004	-15.19
290.219	128.17
290.434	-33.62
290.649	-19.29
290.864	-2.9
291.079	31.91
291.294	83.11
291.509	95.4
291.724	33.96
291.938	66.73
292.153	38.06
292.368	-0.85
292.583	58.54
292.798	62.63
293.012	58.54
293.227	23.72
293.442	13.48
293.657	70.83
293.871	126.12
294.086	70.83
294.301	146.6
294.516	101.55
294.73	7.34
294.945	5.29
295.16	33.96
295.374	158.89
295.589	111.78
295.804	-25.43
296.018	5.29
296.233	89.26
296.447	38.06
296.662	81.07
296.877	115.88
297.091	126.12
297.306	74.92
297.52	81.07
297.735	95.4
297.949	83.11
298.164	40.11
298.378	-21.33
298.593	-60.24
298.807	-25.43
299.022	31.91
299.236	68.78
299.451	-2.9
299.665	15.53
299.88	83.11
300.094	124.07
300.309	83.11
300.523	-23.38
300.737	36.01
300.952	58.54
301.166	107.69
301.381	-60.24
301.595	-76.63
301.809	56.49
302.024	-13.14
302.238	31.91
302.452	91.31
302.667	83.11
302.881	38.06
303.095	46.25
303.309	62.63
303.524	-56.15
303.738	44.2
303.952	-39.76
304.166	52.39
304.381	-35.67
304.595	144.55
304.809	-41.81
305.023	23.72
305.237	-11.09
305.452	25.77
305.666	91.31
305.88	87.21
306.094	76.97
306.308	5.29
306.522	70.83
306.736	52.39
306.95	113.83
307.164	21.67
307.379	15.53
307.593	142.5
307.807	122.02
308.021	56.49
308.235	50.35
308.449	-54.1
308.663	17.58
308.877	226.47
309.091	91.31
309.305	48.3
309.519	-131.92
309.733	105.64
309.947	-29.52
310.161	95.4
310.374	122.02
310.588	21.67
310.802	-95.06
311.016	-52.05
311.23	124.07
311.444	-17.24
311.658	9.39
311.872	72.87
312.085	74.92
312.299	109.74
312.513	171.18
312.727	83.11
312.941	11.43
313.154	83.11
313.368	25.77
313.582	48.3
313.796	70.83
314.009	70.83
314.223	111.78
314.437	56.49
314.651	101.55
314.864	60.59
315.078	9.39
315.292	-23.38
315.505	-11.09
315.719	99.5
315.933	38.06
316.146	-68.44
316.36	66.73
316.573	89.26
316.787	25.77
317.001	142.5
317.214	-15.19
317.428	31.91
317.641	-15.19
317.855	-17.24
318.068	29.87
318.282	91.31
318.495	124.07
318.709	-7
318.922	72.87
319.136	165.03
319.349	95.4
319.563	-17.24
319.776	33.96
319.99	-29.52
320.203	132.26
320.417	48.3
320.63	81.07
320.843	99.5
321.057	115.88
321.27	29.87
321.483	11.43
321.697	130.22
321.91	42.15
322.124	91.31
322.337	46.25
322.55	-43.86
322.763	107.69
322.977	72.87
323.19	58.54
323.403	58.54
323.617	5.29
323.83	122.02
324.043	7.34
324.256	13.48
324.469	-95.06
324.683	105.64
324.896	-35.67
325.109	58.54
325.322	-23.38
325.535	154.79
325.748	134.31
325.962	54.44
326.175	17.58
326.388	99.5
326.601	146.6
326.814	5.29
327.027	119.98
327.24	150.7
327.453	9.39
327.666	124.07
327.879	140.46
328.092	130.22
328.305	15.53
328.518	-54.1
328.731	54.44
328.944	-11.09
329.157	146.6
329.37	58.54
329.583	175.27
329.796	136.36
330.009	36.01
330.222	99.5
330.435	122.02
330.648	64.68
330.861	25.77
331.073	119.98
331.286	150.7
331.499	40.11
331.712	-29.52
331.925	9.39
332.138	46.25
332.35	95.4
332.563	48.3
332.776	74.92
332.989	-52.05
333.202	74.92
333.414	17.58
333.627	31.91
333.84	9.39
334.053	66.73
334.265	119.98
334.478	54.44
334.691	13.48
334.903	85.16
335.116	-64.34
335.329	42.15
335.541	33.96
335.754	179.37
335.966	31.91
336.179	83.11
336.392	25.77
336.604	-33.62
336.817	107.69
337.029	54.44
337.242	15.53
337.454	76.97
337.667	-37.72
337.88	148.65
338.092	25.77
338.305	105.64
338.517	15.53
338.729	134.31
338.942	146.6
339.154	-11.09
339.367	-72.53
339.579	130.22
339.792	-31.57
340.004	29.87
340.217	97.45
340.429	42.15
340.641	-19.29
340.854	19.63
341.066	17.58
341.278	138.41
341.491	195.75
341.703	38.06
341.915	-11.09
342.128	79.02
342.34	-13.14
342.552	11.43
342.764	130.22
342.977	25.77
343.189	52.39
343.401	64.68
343.613	-25.43
343.826	101.55
344.038	-86.87
344.25	27.82
344.462	29.87
344.674	62.63
344.886	-29.52
345.099	50.35
345.311	74.92
345.523	21.67
345.735	-72.53
345.947	23.72
346.159	13.48
346.371	79.02
346.583	11.43
346.795	162.98
347.007	-11.09
347.219	15.53
347.431	91.31
347.643	113.83
347.855	60.59
348.067	68.78
348.279	-60.24
348.491	15.53
348.703	99.5
348.915	79.02
349.127	15.53
349.339	-29.52
349.551	-41.81
349.763	66.73
349.975	33.96
350.187	105.64
350.399	140.46
350.61	19.63
350.822	-19.29
351.034	15.53
351.246	56.49
351.458	-23.38
351.669	60.59
351.881	183.46
352.093	66.73
352.305	74.92
352.517	76.97
352.728	124.07
352.94	95.4
353.152	31.91
353.363	36.01
353.575	36.01
353.787	199.85
353.999	33.96
354.21	148.65
354.422	-56.15
354.633	25.77
354.845	33.96
355.057	-23.38
355.268	74.92
355.48	179.37
355.692	-43.86
355.903	91.31
356.115	9.39
356.326	-52.05
356.538	107.69
356.749	119.98
356.961	115.88
357.172	31.91
357.384	5.29
357.595	171.18
357.807	29.87
358.018	17.58
358.23	46.25
358.441	169.13
358.653	134.31
358.864	113.83
359.075	58.54
359.287	72.87
359.498	58.54
359.709	83.11
359.921	5.29
360.132	95.4
360.344	31.91
360.555	54.44
360.766	48.3
360.977	33.96
361.189	105.64
361.4	-0.85
361.611	19.63
361.823	27.82
362.034	109.74
362.245	-82.77
362.456	38.06
362.667	42.15
362.879	72.87
363.09	134.31
363.301	25.77
363.512	109.74
363.723	25.77
363.935	5.29
364.146	83.11
364.357	11.43
364.568	-11.09
364.779	-27.48
364.99	97.45
365.201	48.3
365.412	111.78
365.623	-52.05
365.834	66.73
366.045	72.87
366.256	66.73
366.467	144.55
366.678	29.87
366.889	52.39
367.1	-21.33
367.311	52.39
367.522	-11.09
367.733	13.48
367.944	117.93
368.155	-72.53
368.366	70.83
368.577	58.54
368.788	146.6
368.999	-23.38
369.209	103.59
369.42	148.65
369.631	187.56
369.842	132.26
370.053	83.11
370.264	76.97
370.474	25.77
370.685	76.97
370.896	3.24
371.107	156.84
371.317	74.92
371.528	27.82
371.739	64.68
371.95	46.25
372.16	62.63
372.371	-23.38
372.582	54.44
372.792	126.12
373.003	38.06
373.214	60.59
373.424	119.98
373.635	-64.34
373.846	138.41
374.056	15.53
374.267	58.54
374.477	64.68
374.688	-64.34
374.898	83.11
375.109	42.15
375.319	91.31
375.53	111.78
375.74	140.46
375.951	-7
376.161	36.01
376.372	111.78
376.582	46.25
376.793	128.17
377.003	17.58
377.214	54.44
377.424	68.78
377.635	38.06
377.845	-7
378.055	177.32
378.266	-86.87
378.476	23.72
378.686	3.24
378.897	119.98
379.107	50.35
379.317	66.73
379.528	60.59
379.738	144.55
379.948	-7
380.158	70.83
380.369	87.21
380.579	60.59
380.789	-31.57
380.999	83.11
381.21	115.88
381.42	191.66
381.63	13.48
381.84	25.77
382.05	124.07
382.261	17.58
382.471	134.31
382.681	52.39
382.891	222.38
383.101	79.02
383.311	48.3
383.521	-11.09
383.731	97.45
383.941	76.97
384.151	97.45
384.361	5.29
384.571	13.48
384.781	9.39
384.991	179.37
385.201	205.99
385.411	72.87
385.621	87.21
385.831	85.16
386.041	56.49
386.251	58.54
386.461	169.13
386.671	40.11
386.881	83.11
387.091	21.67
387.301	185.51
387.511	95.4
387.72	144.55
387.93	136.36
388.14	-15.19
388.35	15.53
388.56	130.22
388.769	15.53
388.979	27.82
389.189	3.24
389.399	-4.95
389.609	62.63
389.818	21.67
390.028	33.96
390.238	74.92
390.447	-7
390.657	81.07
390.867	64.68
391.076	-74.58
391.286	29.87
391.496	74.92
391.705	27.82
391.915	128.17
392.125	103.59
392.334	33.96
392.544	140.46
392.753	58.54
392.963	13.48
393.172	81.07
393.382	46.25
393.591	81.07
393.801	52.39
394.01	134.31
394.22	154.79
394.429	68.78
394.639	19.63
394.848	99.5
395.058	31.91
395.267	66.73
395.477	74.92
395.686	72.87
395.895	232.62
396.105	177.32
396.314	72.87
396.524	17.58
396.733	64.68
396.942	113.83
397.152	95.4
397.361	175.27
397.57	52.39
397.78	76.97
397.989	-0.85
398.198	191.66
398.407	21.67
398.617	9.39
398.826	105.64
399.035	68.78
399.244	138.41
399.453	87.21
399.663	66.73
399.872	142.5
400.081	-13.14
400.29	144.55
400.499	40.11
400.708	97.45
400.917	68.78
401.127	21.67
401.336	23.72
401.545	126.12
401.754	89.26
401.963	138.41
402.172	-23.38
402.381	-13.14
402.59	85.16
402.799	-64.34
403.008	66.73
403.217	101.55
403.426	15.53
403.635	-31.57
403.844	60.59
404.053	44.2
404.262	-27.48
404.471	197.8
404.68	54.44
404.888	54.44
405.097	107.69
405.306	25.77
405.515	83.11
405.724	66.73
405.933	76.97
406.142	38.06
406.35	97.45
406.559	50.35
406.768	-17.24
406.977	62.63
407.185	103.59
407.394	81.07
407.603	11.43
407.812	152.74
408.02	62.63
408.229	97.45
408.438	89.26
408.646	-37.72
408.855	1.19
409.064	83.11
409.272	17.58
409.481	111.78
409.69	81.07
409.898	46.25
410.107	48.3
410.315	50.35
410.524	-7
410.733	138.41
410.941	-11.09
411.15	89.26
411.358	99.5
411.567	79.02
411.775	115.88
411.984	33.96
412.192	160.94
412.401	99.5
412.609	212.14
412.818	103.59
413.026	3.24
413.234	62.63
413.443	17.58
413.651	48.3
413.86	66.73
414.068	140.46
414.276	146.6
414.485	1.19
414.693	109.74
414.901	83.11
415.11	62.63
415.318	66.73
415.526	3.24
415.734	117.93
415.943	48.3
416.151	138.41
416.359	-4.95
416.567	19.63
416.776	91.31
416.984	99.5
417.192	97.45
417.4	17.58
417.608	21.67
417.817	-11.09
418.025	107.69
418.233	109.74
418.441	-39.76
418.649	-15.19
418.857	74.92
419.065	72.87
419.273	-7
419.481	81.07
419.689	38.06
419.897	85.16
420.105	52.39
420.313	185.51
420.521	105.64
420.729	126.12
420.937	42.15
421.145	-19.29
421.353	81.07
421.561	138.41
421.769	52.39
421.977	50.35
422.185	136.36
422.393	70.83
422.601	119.98
422.809	85.16
423.017	70.83
423.224	130.22
423.432	150.7
423.64	97.45
423.848	162.98
424.056	17.58
424.263	33.96
424.471	3.24
424.679	218.28
424.887	79.02
425.094	238.76
425.302	68.78
425.51	58.54
425.718	46.25
425.925	48.3
426.133	60.59
426.341	197.8
426.548	-35.67
426.756	97.45
426.964	195.75
427.171	9.39
427.379	79.02
427.586	122.02
427.794	91.31
428.001	210.09
428.209	76.97
428.417	171.18
428.624	205.99
428.832	136.36
429.039	91.31
429.247	126.12
429.454	171.18
429.662	220.33
429.869	203.94
430.076	144.55
430.284	119.98
430.491	236.71
430.699	111.78
430.906	189.61
431.114	181.42
431.321	193.7
431.528	169.13
431.736	97.45
431.943	117.93
432.15	246.95
432.358	150.7
432.565	326.82
432.772	79.02
432.979	220.33
433.187	119.98
433.394	226.47
433.601	173.22
433.808	255.14
434.016	330.92
434.223	300.2
434.43	269.48
434.637	378.02
434.844	337.06
435.052	328.87
435.259	257.19
435.466	269.48
435.673	361.64
435.88	378.02
436.087	343.21
436.294	478.37
436.501	394.4
436.708	294.05
436.915	433.32
437.122	414.88
437.329	332.97
437.537	410.79
437.743	455.84
437.95	533.67
438.157	418.98
438.364	404.64
438.571	464.04
438.778	498.85
438.985	502.95
439.192	498.85
439.399	502.95
439.606	662.69
439.813	623.78
440.02	775.33
440.227	771.23
440.433	701.6
440.64	742.56
440.847	674.98
441.054	760.99
441.261	920.73
441.467	779.42
441.674	664.74
441.881	906.4
442.088	836.77
442.294	871.58
442.501	926.88
442.708	982.17
442.914	1025.18
443.121	1074.33
443.328	1031.32
443.534	1072.28
443.741	1080.47
443.948	965.79
444.154	1289.37
444.361	1299.61
444.568	1244.31
444.774	1242.26
444.981	1328.28
445.187	1356.95
445.394	1451.16
445.6	1428.63
445.807	1645.71
446.013	1500.31
446.22	1608.85
446.426	1803.41
446.633	1830.03
446.839	2020.49
447.046	1856.65
447.252	1930.38
447.459	2077.83
447.665	2067.6
447.871	2215.05
448.078	2401.41
448.284	2301.06
448.491	2462.85
448.697	2624.64
448.903	2700.42
449.11	2708.61
449.316	2688.13
449.522	2964.61
449.728	3046.52
449.935	3163.26
450.141	3196.03
450.347	3443.83
450.553	3316.86
450.76	3409.01
450.966	3654.77
451.172	3830.9
451.378	3925.1
451.584	3951.73
451.791	4301.93
451.997	4541.54
452.203	4396.14
452.409	4678.76
452.615	4897.89
452.821	4803.68
453.027	4979.81
453.233	5573.72
453.44	5297.24
453.646	5573.72
453.852	5880.91
454.058	5981.26
454.264	6306.89
454.47	6726.72
454.676	6544.45
454.882	7124.03
455.088	6888.51
455.294	7304.25
455.5	7722.04
455.705	8158.25
455.911	8174.64
456.117	8367.15
456.323	8684.58
456.529	8633.38
456.735	9430.04
456.941	9913.36
457.147	9970.71
457.352	10146.83
457.558	10634.25
457.764	11398.14
457.97	11557.88
458.176	11983.86
458.381	12514.28
458.587	12893.16
458.793	13630.43
458.999	13771.74
459.204	15266.75
459.41	15774.65
459.616	15242.18
459.821	16448.43
460.027	17468.32
460.233	17906.59
460.438	17816.47
460.644	18883.47
460.85	19051.4
461.055	19936.12
461.261	20945.77
461.466	20366.2
461.672	20740.97
461.878	23069.51
462.083	23032.65
462.289	23774.02
462.494	24351.54
462.7	24474.42
462.905	24808.24
463.111	26923.79
463.316	27980.54
463.522	28619.51
463.727	29739.75
463.932	31148.75
464.138	31935.17
464.343	32963.25
464.549	33028.79
464.754	35572.36
464.959	36323.97
465.165	36676.22
465.37	36586.11
465.575	36674.17
465.781	39381.59
465.986	40434.24
466.191	39619.15
466.397	40114.76
466.602	39262.8
466.807	41593.39
467.012	42045.99
467.218	42666.53
467.423	42805.79
467.628	43907.6
467.833	45738.48
468.038	45685.23
468.244	44108.3
468.449	46987.74
468.654	45855.21
468.859	45926.89
469.064	46092.78
469.269	44726.78
469.474	45232.63
469.679	46062.06
469.885	44968.44
470.09	45826.54
470.295	45826.54
470.5	44853.76
470.705	45355.51
470.91	44053
471.115	43774.48
471.32	44077.58
471.525	44036.62
471.73	42359.33
471.935	42654.24
472.139	40782.4
472.344	41099.83
472.549	40745.53
472.754	39924.3
472.959	39113.3
473.164	37759.59
473.369	37239.41
473.574	38238.82
473.778	37657.2
473.983	37100.15
474.188	36516.48
474.393	34400.93
474.598	34253.47
474.802	33657.51
475.007	33366.7
475.212	32664.25
475.417	31408.84
475.621	31158.99
475.826	31136.46
476.031	30038.75
476.235	29623.01
476.44	29733.6
476.645	28773.11
476.849	28484.34
477.054	28248.83
477.259	27462.41
477.463	27441.93
477.668	26344.22
477.872	26379.03
478.077	25922.34
478.282	25350.95
478.486	25054
478.691	24814.38
478.895	24339.26
479.1	24273.72
479.304	23915.33
479.509	23335.75
479.713	23624.51
479.918	22944.59
480.122	22799.18
480.326	22997.84
480.531	22745.94
480.735	22420.31
480.94	22133.59
481.144	22737.74
481.348	21648.22
481.553	21803.87
481.757	20947.82
481.961	21148.52
482.166	21392.23
482.37	20890.48
482.574	20315
482.778	20605.81
482.983	20921.2
483.187	20437.87
483.391	20224.89
483.595	19831.68
483.8	19471.23
484.004	19671.93
484.208	19729.28
484.412	19276.68
484.616	18852.75
484.821	18832.27
485.025	18353.04
485.229	18635.66
485.433	18221.97
485.637	18111.38
485.841	17658.78
486.045	17324.96
486.249	17449.89
486.453	16944.04
486.657	16774.06
486.861	16585.65
487.065	16235.44
487.269	16122.8
487.473	15594.43
487.677	15727.55
487.881	15578.04
488.085	15021
488.289	14959.56
488.493	14441.42
488.697	14375.89
488.901	14160.85
489.105	13734.87
489.309	13677.53
489.512	13702.11
489.716	12985.32
489.92	12999.65
490.124	12616.68
490.328	12891.11
490.531	12041.2
490.735	12098.55
490.939	11516.92
491.143	11729.91
491.346	11365.37
491.55	11432.96
491.754	11033.6
491.958	10832.9
492.161	10673.16
492.365	10611.72
492.569	10335.24
492.772	10318.86
492.976	9989.14
493.18	9901.08
493.383	10042.39
493.587	9665.56
493.79	9743.38
493.994	9475.1
494.197	9114.66
494.401	9421.85
494.605	9006.11
494.808	8891.43
495.012	8999.97
495.215	9030.69
495.419	8844.32
495.622	8850.47
495.825	8758.31
496.029	8625.19
496.232	8731.69
496.436	8455.21
496.639	8805.41
496.843	8381.48
497.046	8520.74
497.249	8434.73
497.453	8555.56
497.656	8535.08
497.859	8449.07
498.063	8698.92
498.266	8797.22
498.469	8694.82
498.673	8438.83
498.876	8766.5
499.079	8707.11
499.282	8705.06
499.485	8928.29
499.689	8868.9
499.892	8805.41
500.095	8621.1
500.298	9018.4
500.501	8586.28
500.705	8963.11
500.908	9272.35
501.111	9098.27
501.314	9245.73
501.517	9313.31
501.72	9243.68
501.923	9325.6
502.126	9311.26
502.329	9808.92
502.532	9683.99
502.735	9720.85
502.938	9948.18
503.141	10009.62
503.344	10132.5
503.547	10482.7
503.75	10220.56
503.953	10417.16
504.156	10521.61
504.359	10693.64
504.562	10771.46
504.765	11052.03
504.968	11195.39
505.17	11486.2
505.373	11453.44
505.576	11707.38
505.779	11901.94
505.982	11891.7
506.185	12321.77
506.387	12377.07
506.59	12706.79
506.793	13013.99
506.996	12985.32
507.198	13497.31
507.401	13667.29
507.604	13552.6
507.807	14164.95
508.009	14345.17
508.212	14545.87
508.415	14885.83
508.617	15059.91
508.82	15557.57
509.022	15674.3
509.225	16169.91
509.428	16421.81
509.63	16548.78
509.833	17146.79
510.035	17568.67
510.238	17820.57
510.44	17965.98
510.643	18322.32
510.845	18838.41
511.048	19168.13
511.25	19884.92
511.453	19833.72
511.655	21150.57
511.858	20822.89
512.06	21570.4
512.262	21816.16
512.465	22094.68
512.667	22768.46
512.87	23182.15
513.072	23958.33
513.274	24304.44
513.477	25109.29
513.679	25301.8
513.881	26049.31
514.084	26747.67
514.286	26702.61
514.488	27476.74
514.69	28439.29
514.893	28795.64
515.095	29106.93
515.297	29973.22
515.499	30702.29
515.701	31091.41
515.904	31785.67
516.106	32371.39
516.308	33057.46
516.51	33878.69
516.712	34122.4
516.914	34822.81
517.116	35863.18
517.318	35988.1
517.52	36702.84
517.722	37630.57
517.925	38152.8
518.127	39176.79
518.329	39838.28
518.531	39690.83
518.733	40981.05
518.935	41601.58
519.136	41910.83
519.338	42650.14
519.54	43168.28
519.742	44071.43
519.944	44530.18
520.146	45654.51
520.348	46270.95
520.55	46377.45
520.752	46844.38
520.954	47821.26
521.155	47995.34
521.357	48593.35
521.559	49228.22
521.761	50006.45
521.963	49815.99
522.164	50551.21
522.366	50825.64
522.568	51165.6
522.77	51861.91
522.971	52339.08
523.173	52226.45
523.375	53211.52
523.576	52562.31
523.778	53127.55
523.98	53774.71
524.181	53995.89
524.383	54176.11
524.584	54651.24
524.786	54245.74
524.988	54071.67
525.189	54378.86
525.391	54937.96
525.592	54686.06
525.794	54954.34
525.995	54352.24
526.197	54528.36
526.398	54921.57
526.6	54354.29
526.801	54348.14
527.003	54659.43
527.204	54094.19
527.406	53932.4
527.607	54129.01
527.808	54114.67
528.01	52758.92
528.211	52668.81
528.412	53389.69
528.614	52820.36
528.815	51964.31
529.016	51976.59
529.218	51378.59
529.419	51179.93
529.62	50538.92
529.822	50188.72
530.023	49703.35
530.224	49408.44
530.425	48832.96
530.626	48026.06
530.828	47385.05
531.029	48124.36
531.23	46584.29
531.431	46344.68
531.632	46279.14
531.833	45779.44
532.035	45173.24
532.236	44442.12
532.437	44323.33
532.638	43348.5
532.839	42854.94
533.04	42820.13
533.241	41675.31
533.442	41996.84
533.643	40876.6
533.844	40331.84
534.045	39987.78
534.246	38890.07
534.447	39019.1
534.648	38455.9
534.849	37915.24
535.05	37313.14
535.251	36541.05
535.451	36096.64
535.652	36135.56
535.853	35426.96
536.054	34902.68
536.255	34581.15
536.456	33747.62
536.657	33999.52
536.857	33172.14
537.058	32443.07
537.259	32328.38
537.46	31963.84
537.66	31369.93
537.861	30958.29
538.062	30450.39
538.263	30286.56
538.463	30008.03
538.664	29362.92
538.865	28951.28
539.065	28852.98
539.266	28510.97
539.466	28013.31
539.667	27497.22
539.868	27472.65
540.068	27226.89
540.269	26594.07
540.469	26168.09
540.67	25885.47
540.87	26055.45
541.071	25398.06
541.271	25391.91
541.472	24986.41
541.672	24243
541.873	24343.35
542.073	23673.67
542.274	23958.33
542.474	23372.61
542.675	23212.87
542.875	23487.3
543.075	22756.18
543.276	22010.71
543.476	22418.26
543.676	21885.79
543.877	21805.92
544.077	21807.97
544.277	20935.53
544.478	21224.29
544.678	20794.22
544.878	20667.25
545.078	20269.94
545.279	19743.61
545.479	19534.72
545.679	19483.52
545.879	19506.05
546.079	19295.11
546.28	18848.65
546.48	18774.92
546.68	18697.1
546.88	18344.85
547.08	18281.36
547.28	18015.13
547.48	17548.19
547.68	17617.82
547.88	17197.99
548.081	17011.62
548.281	16993.19
548.481	16524.21
548.681	16710.57
548.881	16008.12
549.081	15817.66
549.28	15846.33
549.48	15895.48
549.68	15373.25
549.88	15311.81
550.08	14865.35
550.28	14992.33
550.48	14615.5
550.68	14640.08
550.88	13980.63
551.08	13874.13
551.279	13876.18
551.479	13663.19
551.679	13466.59
551.879	13196.26
552.079	13042.66
552.278	12897.25
552.478	12878.82
552.678	12469.23
552.878	12403.69
553.077	12090.35
553.277	11963.38
553.477	11883.51
553.676	11676.66
553.876	11451.39
554.076	11193.34
554.275	11115.52
554.475	10681.35
554.674	10828.81
554.874	10406.92
555.074	10222.61
555.273	10171.41
555.473	10136.59
555.672	9876.5
555.872	9737.24
556.071	9587.74
556.271	9499.67
556.47	9178.14
556.67	9032.74
556.869	9098.27
557.068	8819.75
557.268	8784.93
557.467	8586.28
557.667	8209.45
557.866	8283.18
558.065	7926.83
558.265	7855.15
558.464	7824.44
558.663	7668.79
558.863	7611.45
559.062	7588.92
559.261	7291.96
559.461	7496.76
559.66	7029.82
559.859	6890.56
560.058	6904.9
560.258	6900.8
560.457	6634.57
560.656	6702.15
560.855	6335.56
561.054	6456.39
561.253	6247.5
561.453	6308.94
561.652	6067.28
561.851	6063.18
562.05	5876.82
562.249	5745.75
562.448	5729.36
562.647	5733.46
562.846	5649.49
563.045	5549.14
563.244	5334.11
563.443	5383.26
563.642	5354.58
563.841	5129.31
564.04	5074.01
564.239	4944.99
564.438	4908.13
564.637	4846.69
564.836	4973.66
565.035	4703.33
565.234	4826.21
565.432	4637.8
565.631	4643.94
565.83	4473.96
566.029	4349.03
566.228	4342.89
566.427	4293.74
566.625	4064.36
566.824	4115.56
567.023	4105.32
567.222	3980.4
567.42	4050.03
567.619	4058.22
567.818	4080.75
568.016	3974.25
568.215	3820.66
568.414	3804.27
568.612	3699.83
568.811	3646.58
569.01	3624.05
569.208	3488.89
569.407	3429.49
569.605	3327.1
569.804	3445.88
570.002	3296.38
570.201	3323
570.4	3302.52
570.598	3112.06
570.797	3093.63
570.995	3114.11
571.193	3159.16
571.392	2876.54
571.59	2872.45
571.789	2858.11
571.987	2874.49
572.186	2888.83
572.384	2598.02
572.582	2727.04
572.781	2733.18
572.979	2636.93
573.177	2528.39
573.376	2497.67
573.574	2540.68
573.772	2450.57
573.971	2409.61
574.169	2362.5
574.367	2307.21
574.565	2325.64
574.763	2430.09
574.962	2194.57
575.16	2264.2
575.358	2065.55
575.556	2083.98
575.754	2139.27
575.952	2137.23
576.151	2045.07
576.349	2012.3
576.547	1918.09
576.745	1987.72
576.943	1977.48
577.141	1926.29
577.339	1834.13
577.537	1860.75
577.735	1838.22
577.933	1795.22
578.131	1711.25
578.329	1795.22
578.527	1692.82
578.725	1653.91
578.923	1569.94
579.121	1752.21
579.319	1500.31
579.516	1612.95
579.714	1731.73
579.912	1541.27
580.11	1408.15
580.308	1430.68
580.506	1588.37
580.704	1242.26
580.901	1406.1
581.099	1576.08
581.297	1393.81
581.495	1330.33
581.692	1293.46
581.89	1359
582.088	1275.03
582.285	1195.16
582.483	1305.75
582.681	1211.54
582.878	1148.06
583.076	1369.24
583.274	1211.54
583.471	1338.52
583.669	1207.45
583.866	984.22
584.064	1072.28
584.262	982.17
584.459	1008.8
584.657	1066.14
584.854	1154.2
585.052	1055.9
585.249	1055.9
585.447	1070.23
585.644	1023.13
585.841	988.32
586.039	1008.8
586.236	1133.72
586.434	924.83
586.631	832.67
586.828	916.64
587.026	861.34
587.223	732.32
587.42	853.15
587.618	1016.99
587.815	965.79
588.012	877.73
588.21	847.01
588.407	1004.7
588.604	922.78
588.801	734.37
588.999	791.71
589.196	922.78
589.393	750.75
589.59	922.78
589.787	758.94
589.984	822.43
590.182	885.92
590.379	683.17
590.576	783.52
590.773	732.32
590.97	689.31
591.167	754.85
591.364	742.56
591.561	658.59
591.758	840.86
591.955	758.94
592.152	773.28
592.349	681.12
592.546	697.5
592.743	660.64
592.94	713.89
593.137	736.42
593.334	795.81
593.531	758.94
593.727	746.66
593.924	740.51
594.121	703.65
594.318	746.66
594.515	812.19
594.712	900.25
594.908	849.05
595.105	636.06
595.302	767.13
595.499	754.85
595.696	857.25
595.892	771.23
596.089	908.44
596.286	804
596.482	842.91
596.679	844.96
596.876	855.2
597.072	1086.62
597.269	881.82
597.466	963.74
597.662	988.32
597.859	994.46
598.055	1043.61
598.252	1176.73
598.448	1178.78
598.645	1115.29
598.841	1266.84
599.038	1359
599.234	1264.79
599.431	1313.94
599.627	1414.29
599.824	1377.43
600.02	1465.49
600.217	1434.77
600.413	1643.67
600.609	1698.96
600.806	1920.14
601.002	1868.94
601.198	1832.08
601.395	1934.48
601.591	1991.82
601.787	2108.55
601.984	2204.81
602.18	2282.63
602.376	2299.02
602.572	2348.17
602.769	2548.87
602.965	2497.67
603.161	2628.74
603.357	2931.84
603.553	2909.31
603.75	3034.24
603.946	3097.72
604.142	3083.39
604.338	3392.63
604.534	3495.03
604.73	3445.88
604.926	3531.89
605.122	3834.99
605.318	3818.61
605.514	3875.95
605.71	3933.29
605.906	4260.97
606.102	4273.26
606.298	4428.9
606.494	4459.62
606.69	4758.63
606.886	4842.59
607.082	4846.69
607.278	5178.46
607.474	5307.48
607.67	5295.19
607.866	5428.31
608.062	5825.62
608.257	5798.99
608.453	5876.82
608.649	6038.61
608.845	6382.67
609.041	6450.25
609.236	6661.19
609.432	6906.95
609.628	6962.24
609.824	7277.63
610.019	7365.69
610.215	7554.1
610.411	7722.04
610.606	7951.41
610.802	8322.09
610.998	8451.11
611.193	8721.45
611.389	8899.62
611.584	9100.32
611.78	9346.08
611.976	9380.89
612.171	9999.38
612.367	10105.87
612.562	10462.22
612.758	10482.7
612.953	10634.25
613.149	11297.79
613.344	11291.65
613.539	12002.29
613.735	12235.76
613.93	12530.67
614.126	12592.11
614.321	13136.87
614.517	13312.99
614.712	13685.72
614.907	14085.08
615.103	14265.3
615.298	14666.7
615.493	15279.04
615.688	15348.67
615.884	16145.33
616.079	16257.97
616.274	17122.21
616.47	17034.15
616.665	17507.23
616.86	18150.29
617.055	18625.42
617.25	18742.16
617.445	19323.78
617.641	19471.23
617.836	20312.95
618.031	20605.81
618.226	21531.49
618.421	21531.49
618.616	22264.66
618.811	22498.13
619.006	23563.08
619.201	23604.03
619.396	24521.52
619.591	24294.2
619.786	25506.6
619.981	25891.62
620.176	26675.99
620.371	26581.78
620.566	27579.14
620.761	27908.86
620.956	28758.77
621.151	28867.31
621.346	29674.21
621.541	29737.7
621.735	30927.57
621.93	31247.05
622.125	31871.68
622.32	32174.78
622.515	33270.45
622.709	33591.98
622.904	34185.89
623.099	35037.84
623.294	35555.98
623.488	35773.06
623.683	36633.21
623.878	36817.53
624.072	37659.24
624.267	38193.76
624.462	38754.91
624.656	38967.9
624.851	40286.79
625.046	40141.38
625.24	41390.64
625.435	41771.57
625.629	42330.66
625.824	42887.71
626.018	43772.43
626.213	42965.53
626.407	44005.9
626.602	44249.61
626.796	44925.44
626.991	45593.07
627.185	45953.52
627.38	45840.88
627.574	46684.64
627.768	46492.13
627.963	46754.27
628.157	46717.41
628.352	47167.96
628.546	46791.14
628.74	47661.52
628.935	46920.16
629.129	47251.93
629.323	46674.4
629.517	46989.79
629.712	47153.63
629.906	46741.99
630.1	45595.12
630.294	45552.12
630.489	44747.26
630.683	44702.21
630.877	43590.16
631.071	43190.81
631.265	42711.58
631.459	42078.76
631.653	40983.1
631.848	40337.99
632.042	38734.43
632.236	38642.27
632.43	37196.4
632.624	36584.06
632.818	35381.9
633.012	34144.93
633.206	33579.69
633.4	32658.1
633.594	30857.94
633.788	30173.92
633.982	29450.99
634.176	28363.51
634.369	27142.92
634.563	26370.84
634.757	24963.89
634.951	24513.33
635.145	23554.88
635.339	22641.49
635.533	21611.36
635.726	20902.76
635.92	19809.15
636.114	19164.04
636.308	18121.62
636.501	17732.51
636.695	16931.75
636.889	16051.13
637.083	15719.35
637.276	14724.04
637.47	14185.43
637.664	13611.99
637.857	13351.9
638.051	12590.06
638.244	12004.34
638.438	11392
638.632	11314.17
638.825	10605.58
639.019	10212.37
639.212	9739.29
639.406	9567.26
639.599	9088.03
639.793	8840.23
639.986	8422.44
640.18	8295.47
640.373	7742.52
640.567	7457.85
640.76	7124.03
640.954	7035.97
641.147	6526.02
641.34	6388.81
641.534	6245.45
641.727	5962.83
641.92	5889.1
642.114	5592.15
642.307	5184.6
642.5	5047.39
642.694	4822.11
642.887	4707.43
643.08	4703.33
643.273	4463.72
643.467	4191.34
643.66	4064.36
643.853	3812.46
644.046	3755.12
644.239	3513.46
644.432	3189.88
644.626	3343.48
644.819	3048.57
645.012	3024
645.205	3091.58
645.398	3007.61
645.591	2796.67
645.784	2536.58
645.977	2499.72
646.17	2561.16
646.363	2356.36
646.556	2245.77
646.749	2106.51
646.942	2053.26
647.135	2059.4
647.328	2008.2
647.521	1895.57
647.714	1770.64
647.907	1727.63
648.099	1643.67
648.292	1621.14
648.485	1537.17
648.678	1447.06
648.871	1453.2
649.064	1363.09
649.256	1209.5
649.449	1369.24
649.642	1109.15
649.835	1164.44
650.027	1131.67
650.22	1170.58
650.413	965.79
650.605	1078.43
650.798	986.27
650.991	922.78
651.183	963.74
651.376	912.54
651.568	926.88
651.761	824.48
651.954	853.15
652.146	816.29
652.339	849.05
652.531	826.53
652.724	728.22
652.916	691.36
653.109	570.53
653.301	758.94
653.494	730.27
653.686	681.12
653.879	742.56
654.071	636.06
654.263	550.05
654.456	550.05
654.648	605.35
654.84	527.52
655.033	552.1
655.225	523.43
655.417	365.73
655.61	533.67
655.802	451.75
655.994	533.67
656.186	341.16
656.379	484.52
656.571	386.21
656.763	443.56
656.955	390.31
657.148	392.36
657.34	509.09
657.532	328.87
657.724	339.11
657.916	408.74
658.108	435.36
658.3	353.45
658.492	435.36
658.684	224.42
658.876	466.08
659.068	257.19
659.26	244.9
659.452	169.13
659.644	249
659.836	416.93
660.028	228.52
660.22	302.25
660.412	236.71
660.604	240.81
660.796	287.91
660.988	296.1
661.18	259.24
661.372	287.91
661.563	263.33
661.755	165.03
661.947	156.84
662.139	234.66
662.331	255.14
662.522	218.28
662.714	165.03
662.906	181.42
663.097	169.13
663.289	193.7
663.481	54.44
663.673	205.99
663.864	187.56
664.056	177.32
664.247	128.17
664.439	224.42
664.631	126.12
664.822	142.5
665.014	150.7
665.205	165.03
665.397	167.08
665.588	158.89
665.78	228.52
665.971	199.85
666.163	165.03
666.354	312.49
666.546	81.07
666.737	124.07
666.929	181.42
667.12	144.55
667.311	261.29
667.503	181.42
667.694	214.18
667.885	222.38
668.077	183.46
668.268	33.96
668.459	185.51
668.651	253.09
668.842	195.75
669.033	95.4
669.224	122.02
669.416	244.9
669.607	208.04
669.798	81.07
669.989	181.42
670.18	81.07
670.371	165.03
670.563	68.78
670.754	230.57
670.945	177.32
671.136	146.6
671.327	52.39
671.518	183.46
671.709	300.2
671.9	193.7
672.091	238.76
672.282	187.56
672.473	185.51
672.664	185.51
672.855	187.56
673.046	181.42
673.237	183.46
673.428	140.46
673.619	222.38
673.809	128.17
674	255.14
674.191	205.99
674.382	165.03
674.573	113.83
674.764	205.99
674.954	279.72
675.145	29.87
675.336	50.35
675.527	179.37
675.717	126.12
675.908	167.08
676.099	62.63
676.289	140.46
676.48	74.92
676.671	210.09
676.861	138.41
677.052	175.27
677.243	167.08
677.433	183.46
677.624	169.13
677.814	167.08
678.005	173.22
678.195	185.51
678.386	62.63
678.576	105.64
678.767	105.64
678.957	169.13
679.148	304.29
679.338	283.81
679.529	195.75
679.719	130.22
679.909	279.72
680.1	230.57
680.29	220.33
680.481	115.88
680.671	251.05
680.861	214.18
681.052	177.32
681.242	195.75
681.432	345.25
681.622	158.89
681.813	87.21
682.003	285.86
682.193	140.46
682.383	203.94
682.573	255.14
682.764	128.17
682.954	165.03
683.144	253.09
683.334	150.7
683.524	179.37
683.714	261.29
683.904	195.75
684.094	273.57
684.284	177.32
684.474	298.15
684.664	267.43
684.854	238.76
685.044	173.22
685.234	214.18
685.424	271.53
685.614	165.03
685.804	279.72
685.994	218.28
686.184	292.01
686.374	285.86
686.564	222.38
686.753	132.26
686.943	150.7
687.133	181.42
687.323	185.51
687.513	201.9
687.702	263.33
687.892	285.86
688.082	265.38
688.272	312.49
688.461	124.07
688.651	363.69
688.841	318.63
689.03	85.16
689.22	189.61
689.41	230.57
689.599	242.85
689.789	169.13
689.979	332.97
690.168	253.09
690.358	191.66
690.547	156.84
690.737	189.61
690.926	242.85
691.116	242.85
691.305	322.73
691.495	226.47
691.684	140.46
691.874	218.28
692.063	201.9
692.252	236.71
692.442	275.62
692.631	136.36
692.82	203.94
693.01	230.57
693.199	181.42
693.388	249
693.578	156.84
693.767	234.66
693.956	218.28
694.146	216.23
694.335	197.8
694.524	171.18
694.713	296.1
694.902	228.52
695.092	183.46
695.281	203.94
695.47	171.18
695.659	156.84
695.848	236.71
696.037	212.14
696.226	263.33
696.415	160.94
696.604	277.67
696.793	160.94
696.982	228.52
697.171	255.14
697.36	208.04
697.549	122.02
697.738	124.07
697.927	122.02
698.116	162.98
698.305	257.19
698.494	109.74
698.683	220.33
698.872	296.1
699.061	130.22
699.25	148.65
699.438	210.09
699.627	122.02
699.816	283.81
700.005	191.66
700.193	148.65
700.382	236.71
700.571	165.03
700.76	242.85
700.948	261.29
701.137	269.48
701.326	267.43
701.514	138.41
701.703	205.99
701.892	240.81
702.08	312.49
702.269	173.22
702.457	150.7
702.646	277.67
702.834	201.9
703.023	183.46
703.212	275.62
703.4	138.41
703.589	181.42
703.777	119.98
703.965	115.88
704.154	214.18
704.342	132.26
704.531	195.75
704.719	177.32
704.907	222.38
705.096	158.89
705.284	111.78
705.472	175.27
705.661	210.09
705.849	300.2
706.037	222.38
706.226	234.66
706.414	230.57
706.602	165.03
706.79	359.59
706.979	158.89
707.167	177.32
707.355	177.32
707.543	224.42
707.731	249
707.919	224.42
708.107	154.79
708.296	103.59
708.484	70.83
708.672	273.57
708.86	287.91
709.048	181.42
709.236	224.42
709.424	269.48
709.612	253.09
709.8	115.88
709.988	179.37
710.176	292.01
710.364	281.77
710.551	238.76
710.739	212.14
710.927	103.59
711.115	218.28
711.303	265.38
711.491	322.73
711.679	165.03
711.866	216.23
712.054	154.79
712.242	203.94
712.43	296.1
712.617	115.88
712.805	259.24
712.993	285.86
713.181	134.31
713.368	275.62
713.556	201.9
713.744	244.9
713.931	320.68
714.119	255.14
714.306	165.03
714.494	152.74
714.682	165.03
714.869	83.11
715.057	199.85
715.244	158.89
715.432	195.75
715.619	119.98
715.807	230.57
715.994	285.86
716.182	191.66
716.369	304.29
716.556	251.05
716.744	85.16
716.931	189.61
717.119	244.9
717.306	222.38
717.493	242.85
717.681	72.87
717.868	246.95
718.055	339.11
718.242	201.9
718.43	312.49
718.617	275.62
718.804	220.33
718.991	345.25
719.179	230.57
719.366	324.77
719.553	230.57
719.74	136.36
719.927	240.81
720.114	246.95
720.301	216.23
720.488	244.9
720.676	146.6
720.863	242.85
721.05	361.64
721.237	160.94
721.424	244.9
721.611	242.85
721.798	169.13
721.985	156.84
722.172	224.42
722.358	208.04
722.545	328.87
722.732	222.38
722.919	345.25
723.106	271.53
723.293	218.28
723.48	232.62
723.667	165.03
723.853	287.91
724.04	226.47
724.227	312.49
724.414	212.14
724.6	269.48
724.787	369.83
724.974	349.35
725.161	261.29
725.347	183.46
725.534	259.24
725.72	246.95
725.907	271.53
726.094	269.48
726.28	205.99
726.467	269.48
726.653	181.42
726.84	261.29
727.027	314.53
727.213	265.38
727.4	285.86
727.586	253.09
727.773	246.95
727.959	265.38
728.145	226.47
728.332	292.01
728.518	263.33
728.705	242.85
728.891	292.01
729.077	234.66
729.264	119.98
729.45	306.34
729.636	337.06
729.823	271.53
730.009	316.58
730.195	283.81
730.382	328.87
730.568	294.05
730.754	181.42
730.94	275.62
731.126	312.49
731.313	312.49
731.499	302.25
731.685	238.76
731.871	314.53
732.057	306.34
732.243	332.97
732.429	249
732.615	359.59
732.801	267.43
732.987	249
733.173	304.29
733.359	240.81
733.545	287.91
733.731	365.73
733.917	427.17
734.103	300.2
734.289	267.43
734.475	214.18
734.661	294.05
734.847	341.16
735.033	304.29
735.219	318.63
735.404	277.67
735.59	281.77
735.776	285.86
735.962	292.01
736.148	359.59
736.333	461.99
736.519	281.77
736.705	273.57
736.89	240.81
737.076	330.92
737.262	386.21
737.447	312.49
737.633	244.9
737.819	324.77
738.004	316.58
738.19	267.43
738.375	314.53
738.561	320.68
738.747	271.53
738.932	191.66
739.118	380.07
739.303	357.54
739.489	320.68
739.674	230.57
739.859	263.33
740.045	365.73
740.23	277.67
740.416	156.84
740.601	328.87
740.786	214.18
740.972	261.29
741.157	244.9
741.342	205.99
741.528	267.43
741.713	316.58
741.898	230.57
742.084	279.72
742.269	222.38
742.454	283.81
742.639	265.38
742.824	251.05
743.01	320.68
743.195	398.5
743.38	339.11
743.565	289.96
743.75	226.47
743.935	339.11
744.12	353.45
744.305	246.95
744.49	212.14
744.675	208.04
744.86	212.14
745.045	359.59
745.23	304.29
745.415	296.1
745.6	353.45
745.785	165.03
745.97	369.83
746.155	265.38
746.34	298.15
746.525	353.45
746.71	345.25
746.895	265.38
747.079	187.56
747.264	277.67
747.449	300.2
747.634	285.86
747.819	261.29
748.003	337.06
748.188	199.85
748.373	296.1
748.557	251.05
748.742	283.81
748.927	228.52
749.111	238.76
749.296	246.95
749.481	287.91
749.665	244.9
749.85	251.05
750.034	318.63
750.219	277.67
750.404	283.81
750.588	228.52
750.773	177.32
750.957	283.81
751.141	238.76
751.326	271.53
751.51	152.74
751.695	238.76
751.879	162.98
752.064	373.92
752.248	218.28
752.432	363.69
752.617	308.39
752.801	255.14
752.985	212.14
753.17	275.62
753.354	259.24
753.538	201.9
753.722	212.14
753.907	195.75
754.091	160.94
754.275	238.76
754.459	165.03
754.643	238.76
754.828	214.18
755.012	271.53
755.196	167.08
755.38	220.33
755.564	148.65
755.748	136.36
755.932	165.03
756.116	287.91
756.3	230.57
756.484	138.41
756.668	201.9
756.852	240.81
757.036	167.08
757.22	193.7
757.404	97.45
757.588	134.31
757.772	203.94
757.956	177.32
758.14	259.24
758.323	111.78
758.507	249
758.691	148.65
758.875	230.57
759.059	224.42
759.242	162.98
759.426	130.22
759.61	220.33
759.794	175.27
759.977	201.9
760.161	304.29
760.345	224.42
760.528	205.99
760.712	146.6
760.895	148.65
761.079	119.98
761.263	150.7
761.446	183.46
761.63	124.07
761.813	224.42
761.997	169.13
762.18	150.7
762.364	261.29
762.547	79.02
762.731	97.45
762.914	144.55
763.098	111.78
763.281	76.97
763.464	60.59
763.648	171.18
763.831	107.69
764.015	95.4
764.198	228.52
764.381	33.96
764.564	115.88
764.748	185.51
764.931	193.7
765.114	122.02
765.297	218.28
765.481	111.78
765.664	162.98
765.847	138.41
766.03	156.84
766.213	27.82
766.397	162.98
766.58	31.91
766.763	199.85
766.946	62.63
767.129	140.46
767.312	91.31
767.495	228.52
767.678	50.35
767.861	165.03
768.044	160.94
768.227	50.35
768.41	-9.05
768.593	162.98
768.776	214.18
768.959	111.78
769.142	156.84
769.324	23.72
769.507	185.51
769.69	128.17
769.873	68.78
770.056	281.77
770.239	169.13
770.421	177.32
770.604	165.03
770.787	66.73
770.97	66.73
771.152	-4.95
771.335	152.74
771.518	85.16
771.7	156.84
771.883	238.76
772.066	105.64
772.248	154.79
772.431	294.05
772.613	132.26
772.796	130.22
772.978	169.13
773.161	214.18
773.343	79.02
773.526	52.39
773.708	3.24
773.891	29.87
774.073	42.15
774.256	50.35
774.438	228.52
774.621	115.88
774.803	95.4
774.985	42.15
775.168	128.17
775.35	105.64
775.532	171.18
775.715	74.92
775.897	122.02
776.079	-17.24
776.261	119.98
776.444	99.5
776.626	54.44
776.808	-4.95
776.99	-39.76
777.173	40.11
777.355	162.98
777.537	81.07
777.719	181.42
777.901	50.35
778.083	21.67
778.265	56.49
778.447	115.88
778.629	25.77
778.811	97.45
778.993	146.6
779.175	119.98
779.357	25.77
779.539	-15.19
779.721	54.44
779.903	146.6
780.085	31.91
780.267	44.2
780.449	91.31
780.631	66.73
780.812	124.07
780.994	132.26
781.176	17.58
781.358	42.15
781.54	50.35
781.721	103.59
781.903	119.98
782.085	36.01
782.267	142.5
782.448	5.29
782.63	81.07
782.812	103.59
782.993	83.11
783.175	130.22
783.357	33.96
783.538	36.01
783.72	46.25
783.901	48.3
784.083	150.7
784.264	142.5
784.446	-15.19
784.627	-58.2
784.809	91.31
784.99	134.31
785.172	33.96
785.353	68.78
785.535	74.92
785.716	5.29
785.897	50.35
786.079	99.5
786.26	93.35
786.441	66.73
786.623	-66.39
786.804	5.29
786.985	81.07
787.167	111.78
787.348	-4.95
787.529	15.53
787.71	177.32
787.891	105.64
788.073	-0.85
788.254	-50
788.435	113.83
788.616	40.11
788.797	-2.9
788.978	72.87
789.159	81.07
789.34	91.31
789.522	44.2
789.703	56.49
789.884	87.21
790.065	68.78
790.246	150.7
790.427	31.91
790.607	83.11
790.788	111.78
790.969	-31.57
791.15	66.73
791.331	42.15
791.512	27.82
791.693	-27.48
791.874	1.19
792.054	154.79
792.235	76.97
792.416	-23.38
792.597	-7
792.778	79.02
792.958	38.06
793.139	66.73
793.32	107.69
793.5	21.67
793.681	113.83
793.862	74.92
794.042	68.78
794.223	-101.2
794.404	7.34
794.584	-47.96
794.765	74.92
794.945	48.3
795.126	173.22
795.306	74.92
795.487	60.59
795.667	33.96
795.848	27.82
796.028	56.49
796.209	85.16
796.389	87.21
796.57	-21.33
796.75	3.24
796.93	25.77
797.111	-25.43
797.291	64.68
797.471	56.49
797.652	-13.14
797.832	-17.24
798.012	134.31
798.192	-56.15
798.373	-97.11
798.553	11.43
798.733	113.83
798.913	-0.85
799.093	-60.24
799.274	-25.43
799.454	81.07
799.634	89.26
799.814	83.11
799.994	179.37
800.174	79.02
800.354	46.25
800.534	-125.78
800.714	66.73
800.894	-35.67
801.074	-39.76
801.254	48.3
801.434	146.6
801.614	-19.29
801.794	-33.62
801.974	1637.52
802.154	33.96
802.334	101.55
802.514	-23.38
802.693	5.29
802.873	-17.24
803.053	87.21
803.233	54.44
803.413	33.96
803.592	-93.01
803.772	-2.9
803.952	9.39
804.131	44.2
804.311	68.78
804.491	42.15
804.67	-4.95
804.85	-31.57
805.03	44.2
805.209	101.55
805.389	-25.43
805.568	15.53
805.748	-39.76
805.928	-25.43
806.107	38.06
806.287	-25.43
806.466	15.53
806.646	40.11
806.825	25.77
807.004	25.77
807.184	-9.05
807.363	103.59
807.543	-15.19
807.722	-4.95
807.901	72.87
808.081	109.74
808.26	-39.76
808.439	38.06
808.619	-43.86
808.798	-27.48
808.977	36.01
809.156	109.74
809.336	31.91
809.515	23.72
809.694	48.3
809.873	40.11
810.052	101.55
810.231	-25.43
810.411	-27.48
810.59	-7
810.769	-7
810.948	38.06
811.127	-105.3
811.306	-41.81
811.485	-7
811.664	162.98
811.843	70.83
812.022	23.72
812.201	-9.05
812.38	-17.24
812.559	-31.57
812.737	25.77
812.916	-56.15
813.095	-70.48
813.274	50.35
813.453	81.07
813.632	38.06
813.811	74.92
813.989	-74.58
814.168	95.4
814.347	-35.67
814.526	31.91
814.704	97.45
814.883	162.98
815.062	5.29
815.24	70.83
815.419	1.19
815.598	42.15
815.776	-82.77
815.955	33.96
816.133	-9.05
816.312	15.53
816.49	-27.48
816.669	5.29
816.847	-17.24
817.026	60.59
817.204	62.63
817.383	40.11
817.561	-72.53
817.74	74.92
817.918	-95.06
818.097	-68.44
818.275	-43.86
818.453	19.63
818.632	95.4
818.81	17.58
818.988	19.63
819.167	-15.19
819.345	52.39
819.523	-74.58
819.701	-7
819.879	48.3
820.058	38.06
820.236	9.39
820.414	9.39
820.592	44.2
820.77	9.39
820.948	-27.48
821.127	-99.16
821.305	138.41
821.483	11.43
821.661	11.43
821.839	-31.57
822.017	-0.85
822.195	-76.63
822.373	33.96
822.551	9.39
822.729	54.44
822.907	-35.67
823.085	87.21
823.262	-70.48
823.44	31.91
823.618	-58.2
823.796	-17.24
823.974	-11.09
824.152	-0.85
824.329	74.92
824.507	46.25
824.685	-23.38
824.863	-25.43
825.04	-25.43
825.218	62.63
825.396	25.77
825.574	36.01
825.751	48.3
825.929	74.92
826.107	-35.67
826.284	-31.57
826.462	42.15
826.639	21.67
826.817	-70.48
826.994	93.35
827.172	-109.4
827.349	42.15
827.527	-15.19
827.704	29.87
827.882	54.44
828.059	72.87
828.237	-50
828.414	40.11
828.591	-58.2
828.769	76.97
828.946	13.48
829.124	-15.19
829.301	66.73
829.478	-23.38
829.655	21.67
829.833	21.67
830.01	-62.29
830.187	9.39
830.364	-11.09
830.542	11.43
830.719	99.5
830.896	91.31
831.073	50.35
831.25	-9.05
831.427	66.73
831.604	54.44
831.782	23.72
831.959	101.55
832.136	15.53
832.313	29.87
832.49	5.29
832.667	54.44
832.844	-27.48
833.021	117.93
833.198	64.68
833.374	-80.72
833.551	-0.85
833.728	-47.96
833.905	44.2
834.082	-97.11
834.259	44.2
834.436	23.72
834.612	-31.57
834.789	31.91
834.966	54.44
835.143	38.06
835.319	-74.58
835.496	70.83
835.673	-23.38
835.85	54.44
836.026	-2.9
836.203	-0.85
836.38	23.72
836.556	-17.24
836.733	-133.97
836.909	107.69
837.086	-64.34
837.262	-54.1
837.439	-19.29
837.616	-27.48
837.792	74.92
837.968	76.97
838.145	-21.33
838.321	19.63
838.498	-62.29
838.674	-52.05
838.851	-11.09
839.027	9.39
839.203	105.64
839.38	9.39
839.556	-27.48
839.732	60.59
839.909	50.35
840.085	66.73
840.261	9.39
840.437	11.43
840.614	-47.96
840.79	81.07
840.966	-29.52
841.142	17.58
841.318	9.39
841.494	70.83
841.671	93.35
841.847	-60.24
842.023	-15.19
842.199	56.49
842.375	99.5
842.551	-76.63
842.727	33.96
842.903	158.89
843.079	-31.57
843.255	128.17
843.431	62.63
843.607	-45.91
843.783	-60.24
843.959	-31.57
844.134	-47.96
844.31	122.02
844.486	-80.72
844.662	-39.76
844.838	-2.9
845.013	7.34
845.189	87.21
845.365	5.29
845.541	-4.95
845.716	-15.19
845.892	83.11
846.068	27.82
846.244	-60.24
846.419	91.31
846.595	-64.34
846.77	-15.19
846.946	66.73
847.122	-4.95
847.297	-15.19
847.473	117.93
847.648	-93.01
847.824	29.87
847.999	-84.82
848.175	3.24
848.35	95.4
848.526	195.75
848.701	103.59
848.876	95.4
849.052	48.3
849.227	29.87
849.403	-25.43
849.578	-56.15
849.753	-35.67
849.929	46.25
850.104	-43.86
850.279	9.39
850.454	-2.9
850.63	38.06
850.805	-31.57
850.98	54.44
851.155	9.39
851.33	11.43
851.505	-70.48
851.681	136.36
851.856	-11.09
852.031	97.45
852.206	-7
852.381	-33.62
852.556	-27.48
852.731	29.87
852.906	68.78
853.081	-2.9
853.256	17.58
853.431	-33.62
853.606	-39.76
853.781	-74.58
853.956	-105.3
854.131	52.39
854.305	-31.57
854.48	-74.58
854.655	-56.15
854.83	60.59
855.005	-17.24
855.18	23.72
855.354	-4.95
855.529	38.06
855.704	-11.09
855.879	-52.05
856.053	-9.05
856.228	58.54
856.403	-52.05
856.577	19.63
856.752	-50
856.926	-86.87
857.101	25.77
857.276	-68.44
857.45	50.35
857.625	160.94
857.799	66.73
857.974	83.11
858.148	-31.57
858.323	-2.9
858.497	-84.82
858.672	25.77
858.846	-52.05
859.02	58.54
859.195	-74.58
859.369	-41.81
859.543	70.83
859.718	-43.86
859.892	-37.72
860.066	-9.05
860.241	48.3
860.415	-64.34
860.589	7.34
860.763	-11.09
860.938	-82.77
861.112	-41.81
861.286	-19.29
861.46	66.73
861.634	-64.34
861.808	70.83
861.982	-90.96
862.157	-72.53
862.331	-74.58
862.505	-58.2
862.679	-62.29
862.853	-43.86
863.027	-41.81
863.201	76.97
863.375	-25.43
863.549	-0.85
863.722	-43.86
863.896	66.73
864.07	-27.48
864.244	-23.38
864.418	56.49
864.592	33.96
864.766	-33.62
864.939	-52.05
865.113	-45.91
865.287	70.83
865.461	-52.05
865.634	-13.14
865.808	7.34
865.982	-13.14
866.156	29.87
866.329	-43.86
866.503	-33.62
866.676	-15.19
866.85	7.34
867.024	27.82
867.197	25.77
867.371	83.11
867.544	-27.48
867.718	-43.86
867.891	74.92
868.065	-99.16
868.238	33.96
868.412	21.67
868.585	-2.9
868.759	-64.34
868.932	-45.91
869.105	-90.96
869.279	5.29
869.452	-33.62
869.625	64.68
869.799	-47.96
869.972	-109.4
870.145	-39.76
870.319	79.02
870.492	-64.34
870.665	-39.76
870.838	-84.82
871.011	-115.54
871.185	-80.72
871.358	-17.24
871.531	38.06
871.704	-64.34
871.877	64.68
872.05	-33.62
872.223	-121.68
872.396	91.31
872.569	81.07
872.742	-45.91
872.915	44.2
873.088	-31.57
873.261	-80.72
873.434	-29.52
873.607	81.07
873.78	27.82
873.953	-136.02
874.126	-0.85
874.299	-25.43
874.471	-43.86
874.644	3.24
874.817	-4.95
874.99	140.46
875.163	-39.76
875.335	103.59
875.508	-66.39
875.681	33.96
875.853	-27.48
876.026	9.39
876.199	17.58
876.371	25.77
876.544	-70.48
876.717	46.25
876.889	-72.53
877.062	31.91
877.234	-78.68
877.407	-13.14
877.579	7.34
877.752	107.69
877.924	31.91
878.097	-54.1
878.269	1.19
878.442	-13.14
878.614	3.24
878.786	-37.72
878.959	33.96
879.131	-4.95
879.303	-78.68
879.476	-27.48
879.648	25.77
879.82	-15.19
879.993	-82.77
880.165	29.87
880.337	-29.52
880.509	17.58
880.681	-80.72
880.854	-107.35
881.026	66.73
881.198	117.93
881.37	-56.15
881.542	25.77
881.714	-52.05
881.886	1.19
882.058	-31.57
882.23	42.15
882.402	-7
882.574	54.44
882.746	66.73
882.918	146.6
883.09	50.35
883.262	-23.38
883.434	58.54
883.606	-43.86
883.778	-33.62
883.95	87.21
884.122	-25.43
884.293	23.72
884.465	64.68
884.637	38.06
884.809	-31.57
884.98	-31.57
885.152	40.11
885.324	87.21
885.496	-23.38
885.667	-74.58
885.839	68.78
886.011	140.46
886.182	-35.67
886.354	38.06
886.525	-17.24
886.697	50.35
886.869	-39.76
887.04	-129.88
887.212	107.69
887.383	66.73
887.555	7.34
887.726	68.78
887.897	-101.2
888.069	-23.38
888.24	70.83
888.412	76.97
888.583	-19.29
888.754	-21.33
888.926	-107.35
889.097	-23.38
889.268	-43.86
889.44	-56.15
889.611	-113.49
889.782	-117.59
889.953	29.87
890.125	79.02
890.296	-111.44
890.467	-35.67
890.638	-93.01
890.809	40.11
890.98	-58.2
891.151	38.06
891.323	48.3
891.494	-27.48
891.665	-9.05
891.836	-64.34
892.007	-37.72
892.178	17.58
892.349	-76.63
892.52	-107.35
892.691	36.01
892.862	-29.52
893.032	-90.96
893.203	3.24
893.374	27.82
893.545	87.21
893.716	-58.2
893.887	31.91
894.057	-31.57
894.228	-88.92
894.399	-35.67
894.57	97.45
894.74	-113.49
894.911	-13.14
895.082	-78.68
895.253	-88.92
895.423	-7
895.594	23.72
895.764	-47.96
895.935	-33.62
896.106	21.67
896.276	-21.33
896.447	-17.24
896.617	-54.1
896.788	-4.95
896.958	-72.53
897.129	11.43
897.299	-25.43
897.47	70.83
897.64	-17.24
897.81	54.44
897.981	-15.19
898.151	-15.19
898.322	38.06
898.492	81.07
898.662	-33.62
898.832	-19.29
899.003	46.25
899.173	29.87
899.343	-2.9
899.513	-70.48
