Data from USB4F104151__44__11-26-40-292.txt Node

Date: Wed Feb 26 11:26:40 EST 2025
User: louis
Spectrometer: USB4F10415
Trigger mode: 4
Integration Time (sec): 1.000000E-1
Scans to average: 1
Electric dark correction enabled: true
Nonlinearity correction enabled: false
Boxcar width: 0
XAxis mode: Wavelengths
Number of Pixels in Spectrum: 3648
>>>>>Begin Spectral Data<<<<<
178.204	-338.43
178.424	-338.43
178.644	-338.43
178.864	-412.15
179.084	-432.63
179.304	19.97
179.524	22.02
179.744	5.63
179.964	79.36
180.184	34.3
180.404	32.26
180.624	-18.94
180.844	11.78
181.064	-41.47
181.283	22.02
181.503	-121.34
181.723	-45.57
181.943	-96.77
182.163	165.37
182.383	-39.42
182.602	71.17
182.822	157.18
183.042	83.45
183.262	-14.85
183.482	40.45
183.701	19.97
183.921	69.12
184.141	5.63
184.361	42.5
184.58	85.5
184.8	83.45
185.02	7.68
185.239	79.36
185.459	116.22
185.679	71.17
185.898	-88.57
186.118	40.45
186.338	-23.04
186.557	99.84
186.777	-4.61
186.997	-23.04
187.216	71.17
187.436	179.71
187.655	62.98
187.875	114.17
188.095	26.11
188.314	148.99
188.534	101.89
188.753	-37.38
188.973	138.75
189.192	134.65
189.412	15.87
189.631	-45.57
189.851	40.45
190.07	192
190.29	-47.62
190.509	-8.7
190.729	112.13
190.948	171.52
191.168	192
191.387	62.98
191.607	-0.51
191.826	19.97
192.045	15.87
192.265	42.5
192.484	15.87
192.704	44.54
192.923	3.58
193.142	161.28
193.362	54.78
193.581	67.07
193.8	67.07
194.02	144.89
194.239	87.55
194.458	54.78
194.678	36.35
194.897	34.3
195.116	58.88
195.335	65.02
195.555	69.12
195.774	71.17
195.993	32.26
196.212	-25.09
196.432	-104.96
196.651	-2.56
196.87	65.02
197.089	218.62
197.308	19.97
197.528	89.6
197.747	-70.14
197.966	54.78
198.185	151.04
198.404	-41.47
198.623	136.7
198.842	85.5
199.062	103.93
199.281	110.08
199.5	26.11
199.719	30.21
199.938	124.41
200.157	167.42
200.376	93.69
200.595	134.65
200.814	93.69
201.033	-23.04
201.252	230.91
201.471	116.22
201.69	93.69
201.909	32.26
202.128	103.93
202.347	58.88
202.566	46.59
202.785	-41.47
203.004	-6.66
203.223	206.33
203.442	32.26
203.661	-8.7
203.879	114.17
204.098	116.22
204.317	48.64
204.536	46.59
204.755	46.59
204.974	5.63
205.193	7.68
205.411	212.48
205.63	81.41
205.849	105.98
206.068	28.16
206.287	42.5
206.505	173.57
206.724	42.5
206.943	-51.71
207.162	-96.77
207.381	62.98
207.599	58.88
207.818	38.4
208.037	-117.25
208.255	19.97
208.474	87.55
208.693	48.64
208.911	44.54
209.13	140.8
209.349	85.5
209.567	36.35
209.786	60.93
210.005	32.26
210.223	3.58
210.442	-135.68
210.661	26.11
210.879	108.03
211.098	73.21
211.316	32.26
211.535	93.69
211.753	28.16
211.972	79.36
212.191	-37.38
212.409	99.84
212.628	79.36
212.846	-12.8
213.065	9.73
213.283	75.26
213.502	22.02
213.72	85.5
213.938	44.54
214.157	-14.85
214.375	138.75
214.594	-41.47
214.812	52.74
215.031	-25.09
215.249	3.58
215.467	75.26
215.686	89.6
215.904	130.56
216.122	58.88
216.341	118.27
216.559	52.74
216.778	40.45
216.996	116.22
217.214	42.5
217.432	-27.14
217.651	-27.14
217.869	24.06
218.087	75.26
218.306	-45.57
218.524	93.69
218.742	28.16
218.96	85.5
219.179	54.78
219.397	-33.28
219.615	228.86
219.833	99.84
220.051	-49.66
220.27	114.17
220.488	126.46
220.706	30.21
220.924	-47.62
221.142	42.5
221.36	65.02
221.578	46.59
221.796	38.4
222.015	11.78
222.233	46.59
222.451	179.71
222.669	-31.23
222.887	112.13
223.105	11.78
223.323	60.93
223.541	-53.76
223.759	3.58
223.977	67.07
224.195	171.52
224.413	38.4
224.631	48.64
224.849	28.16
225.067	198.14
225.285	-2.56
225.503	-0.51
225.721	-51.71
225.939	-12.8
226.157	1.54
226.375	204.28
226.592	-47.62
226.81	22.02
227.028	120.32
227.246	118.27
227.464	67.07
227.682	69.12
227.9	97.79
228.117	50.69
228.335	91.65
228.553	56.83
228.771	75.26
228.989	26.11
229.206	108.03
229.424	-49.66
229.642	17.92
229.86	-53.76
230.077	183.81
230.295	75.26
230.513	46.59
230.731	28.16
230.948	220.67
231.166	101.89
231.384	-23.04
231.601	-57.86
231.819	245.24
232.037	-6.66
232.254	-37.38
232.472	-6.66
232.689	-35.33
232.907	122.37
233.125	3.58
233.342	17.92
233.56	-74.24
233.777	-39.42
233.995	-12.8
234.213	124.41
234.43	134.65
234.648	46.59
234.865	-0.51
235.083	83.45
235.3	1.54
235.518	165.37
235.735	142.85
235.953	116.22
236.17	15.87
236.388	19.97
236.605	44.54
236.822	54.78
237.04	120.32
237.257	83.45
237.475	1.54
237.692	58.88
237.909	58.88
238.127	-33.28
238.344	81.41
238.562	3.58
238.779	-18.94
238.996	-64
239.214	22.02
239.431	101.89
239.648	9.73
239.865	44.54
240.083	58.88
240.3	32.26
240.517	52.74
240.735	73.21
240.952	122.37
241.169	73.21
241.386	89.6
241.603	24.06
241.821	34.3
242.038	116.22
242.255	36.35
242.472	11.78
242.689	85.5
242.907	46.59
243.124	77.31
243.341	50.69
243.558	-6.66
243.775	-16.9
243.992	-113.15
244.209	54.78
244.426	177.66
244.643	79.36
244.86	44.54
245.078	134.65
245.295	34.3
245.512	34.3
245.729	54.78
245.946	36.35
246.163	17.92
246.38	5.63
246.597	91.65
246.814	87.55
247.031	-6.66
247.248	-2.56
247.464	73.21
247.681	56.83
247.898	77.31
248.115	-0.51
248.332	-104.96
248.549	19.97
248.766	249.34
248.983	-14.85
249.2	44.54
249.417	108.03
249.633	40.45
249.85	91.65
250.067	-0.51
250.284	42.5
250.501	7.68
250.717	101.89
250.934	-6.66
251.151	77.31
251.368	93.69
251.585	110.08
251.801	38.4
252.018	-53.76
252.235	105.98
252.451	-16.9
252.668	-25.09
252.885	136.7
253.102	67.07
253.318	7.68
253.535	24.06
253.752	-12.8
253.968	13.82
254.185	17.92
254.401	38.4
254.618	89.6
254.835	-53.76
255.051	118.27
255.268	24.06
255.484	50.69
255.701	1.54
255.917	58.88
256.134	-0.51
256.351	58.88
256.567	-23.04
256.784	-49.66
257	-129.53
257.217	81.41
257.433	54.78
257.65	-14.85
257.866	200.19
258.082	-100.86
258.299	-37.38
258.515	7.68
258.732	48.64
258.948	56.83
259.165	85.5
259.381	-27.14
259.597	95.74
259.814	52.74
260.03	36.35
260.246	17.92
260.463	198.14
260.679	105.98
260.895	73.21
261.112	103.93
261.328	30.21
261.544	32.26
261.761	140.8
261.977	17.92
262.193	-16.9
262.409	65.02
262.626	19.97
262.842	30.21
263.058	38.4
263.274	93.69
263.49	36.35
263.707	87.55
263.923	132.61
264.139	-59.9
264.355	13.82
264.571	58.88
264.787	71.17
265.004	89.6
265.22	26.11
265.436	17.92
265.652	22.02
265.868	56.83
266.084	28.16
266.3	-25.09
266.516	9.73
266.732	71.17
266.948	50.69
267.164	-47.62
267.38	58.88
267.596	118.27
267.812	134.65
268.028	34.3
268.244	46.59
268.46	60.93
268.676	-41.47
268.892	38.4
269.108	-64
269.324	-6.66
269.54	-18.94
269.756	75.26
269.972	19.97
270.188	19.97
270.403	-78.33
270.619	58.88
270.835	24.06
271.051	91.65
271.267	22.02
271.483	-29.18
271.698	54.78
271.914	22.02
272.13	79.36
272.346	-14.85
272.562	7.68
272.777	38.4
272.993	38.4
273.209	54.78
273.425	62.98
273.64	-23.04
273.856	46.59
274.072	-4.61
274.287	50.69
274.503	110.08
274.719	56.83
274.934	24.06
275.15	-41.47
275.366	50.69
275.581	50.69
275.797	-29.18
276.012	40.45
276.228	-57.86
276.444	77.31
276.659	108.03
276.875	46.59
277.09	-4.61
277.306	73.21
277.521	50.69
277.737	103.93
277.952	122.37
278.168	34.3
278.383	7.68
278.599	69.12
278.814	142.85
279.03	83.45
279.245	128.51
279.461	54.78
279.676	83.45
279.892	-70.14
280.107	36.35
280.322	-6.66
280.538	32.26
280.753	15.87
280.969	153.09
281.184	28.16
281.399	138.75
281.615	-6.66
281.83	103.93
282.045	-74.24
282.26	69.12
282.476	54.78
282.691	65.02
282.906	15.87
283.122	17.92
283.337	40.45
283.552	52.74
283.767	-16.9
283.983	103.93
284.198	19.97
284.413	50.69
284.628	-29.18
284.843	42.5
285.058	77.31
285.274	44.54
285.489	52.74
285.704	69.12
285.919	-41.47
286.134	54.78
286.349	7.68
286.564	32.26
286.779	116.22
286.995	9.73
287.21	-92.67
287.425	114.17
287.64	5.63
287.855	7.68
288.07	-47.62
288.285	101.89
288.5	105.98
288.715	56.83
288.93	-4.61
289.145	42.5
289.36	46.59
289.575	56.83
289.79	132.61
290.004	13.82
290.219	108.03
290.434	17.92
290.649	67.07
290.864	62.98
291.079	36.35
291.294	83.45
291.509	50.69
291.724	52.74
291.938	46.59
292.153	87.55
292.368	95.74
292.583	54.78
292.798	136.7
293.012	62.98
293.227	97.79
293.442	71.17
293.657	52.74
293.871	97.79
294.086	95.74
294.301	206.33
294.516	114.17
294.73	9.73
294.945	22.02
295.16	52.74
295.374	134.65
295.589	75.26
295.804	7.68
296.018	30.21
296.233	75.26
296.447	62.98
296.662	52.74
296.877	122.37
297.091	87.55
297.306	48.64
297.52	40.45
297.735	9.73
297.949	46.59
298.164	69.12
298.378	17.92
298.593	-14.85
298.807	60.93
299.022	7.68
299.236	151.04
299.451	28.16
299.665	-29.18
299.88	36.35
300.094	32.26
300.309	-16.9
300.523	69.12
300.737	-16.9
300.952	114.17
301.166	73.21
301.381	52.74
301.595	7.68
301.809	75.26
302.024	36.35
302.238	11.78
302.452	146.94
302.667	46.59
302.881	114.17
303.095	65.02
303.309	42.5
303.524	15.87
303.738	40.45
303.952	-33.28
304.166	44.54
304.381	-152.06
304.595	136.7
304.809	38.4
305.023	38.4
305.237	-8.7
305.452	46.59
305.666	97.79
305.88	103.93
306.094	15.87
306.308	83.45
306.522	97.79
306.736	140.8
306.95	105.98
307.164	62.98
307.379	3.58
307.593	77.31
307.807	130.56
308.021	91.65
308.235	28.16
308.449	-45.57
308.663	-12.8
308.877	210.43
309.091	62.98
309.305	75.26
309.519	-201.21
309.733	75.26
309.947	5.63
310.161	32.26
310.374	50.69
310.588	159.23
310.802	-66.05
311.016	1.54
311.23	46.59
311.444	-57.86
311.658	28.16
311.872	144.89
312.085	67.07
312.299	128.51
312.513	171.52
312.727	44.54
312.941	17.92
313.154	40.45
313.368	-6.66
313.582	30.21
313.796	46.59
314.009	50.69
314.223	189.95
314.437	128.51
314.651	95.74
314.864	36.35
315.078	-12.8
315.292	-64
315.505	9.73
315.719	108.03
315.933	-37.38
316.146	-12.8
316.36	-55.81
316.573	95.74
316.787	56.83
317.001	56.83
317.214	36.35
317.428	62.98
317.641	-78.33
317.855	-35.33
318.068	30.21
318.282	114.17
318.495	208.38
318.709	122.37
318.922	1.54
319.136	144.89
319.349	79.36
319.563	-37.38
319.776	71.17
319.99	-51.71
320.203	69.12
320.417	9.73
320.63	89.6
320.843	122.37
321.057	3.58
321.27	17.92
321.483	91.65
321.697	58.88
321.91	87.55
322.124	110.08
322.337	56.83
322.55	26.11
322.763	58.88
322.977	48.64
323.19	-39.42
323.403	65.02
323.617	79.36
323.83	153.09
324.043	-29.18
324.256	56.83
324.469	-6.66
324.683	142.85
324.896	38.4
325.109	9.73
325.322	-35.33
325.535	56.83
325.748	126.46
325.962	15.87
326.175	-31.23
326.388	122.37
326.601	179.71
326.814	-10.75
327.027	52.74
327.24	155.13
327.453	-66.05
327.666	42.5
327.879	58.88
328.092	116.22
328.305	155.13
328.518	-29.18
328.731	40.45
328.944	38.4
329.157	101.89
329.37	15.87
329.583	189.95
329.796	169.47
330.009	19.97
330.222	73.21
330.435	52.74
330.648	58.88
330.861	28.16
331.073	48.64
331.286	132.61
331.499	89.6
331.712	32.26
331.925	5.63
332.138	52.74
332.35	89.6
332.563	-59.9
332.776	171.52
332.989	-152.06
333.202	36.35
333.414	54.78
333.627	62.98
333.84	-6.66
334.053	58.88
334.265	-23.04
334.478	-20.99
334.691	97.79
334.903	40.45
335.116	13.82
335.329	71.17
335.541	95.74
335.754	118.27
335.966	22.02
336.179	93.69
336.392	24.06
336.604	-4.61
336.817	144.89
337.029	140.8
337.242	30.21
337.454	34.3
337.667	28.16
337.88	155.13
338.092	38.4
338.305	50.69
338.517	52.74
338.729	34.3
338.942	140.8
339.154	-59.9
339.367	54.78
339.579	108.03
339.792	-33.28
340.004	87.55
340.217	30.21
340.429	50.69
340.641	62.98
340.854	56.83
341.066	24.06
341.278	99.84
341.491	179.71
341.703	19.97
341.915	38.4
342.128	22.02
342.34	36.35
342.552	-45.57
342.764	11.78
342.977	34.3
343.189	30.21
343.401	44.54
343.613	-25.09
343.826	24.06
344.038	-41.47
344.25	9.73
344.462	-20.99
344.674	17.92
344.886	7.68
345.099	148.99
345.311	95.74
345.523	-43.52
345.735	-80.38
345.947	52.74
346.159	3.58
346.371	65.02
346.583	-12.8
346.795	169.47
347.007	85.5
347.219	85.5
347.431	-20.99
347.643	175.61
347.855	-8.7
348.067	101.89
348.279	-12.8
348.491	48.64
348.703	77.31
348.915	58.88
349.127	-37.38
349.339	89.6
349.551	1.54
349.763	56.83
349.975	-0.51
350.187	124.41
350.399	173.57
350.61	91.65
350.822	-0.51
351.034	122.37
351.246	48.64
351.458	93.69
351.669	110.08
351.881	112.13
352.093	171.52
352.305	130.56
352.517	58.88
352.728	155.13
352.94	30.21
353.152	11.78
353.363	3.58
353.575	93.69
353.787	89.6
353.999	54.78
354.21	200.19
354.422	11.78
354.633	81.41
354.845	52.74
355.057	83.45
355.268	73.21
355.48	120.32
355.692	13.82
355.903	62.98
356.115	36.35
356.326	-78.33
356.538	118.27
356.749	30.21
356.961	124.41
357.172	-33.28
357.384	-16.9
357.595	218.62
357.807	19.97
358.018	103.93
358.23	11.78
358.441	157.18
358.653	-4.61
358.864	26.11
359.075	7.68
359.287	50.69
359.498	159.23
359.709	75.26
359.921	-12.8
360.132	101.89
360.344	54.78
360.555	34.3
360.766	58.88
360.977	17.92
361.189	105.98
361.4	38.4
361.611	60.93
361.823	128.51
362.034	-29.18
362.245	-76.29
362.456	22.02
362.667	81.41
362.879	54.78
363.09	71.17
363.301	71.17
363.512	50.69
363.723	-64
363.935	-20.99
364.146	85.5
364.357	-10.75
364.568	42.5
364.779	-61.95
364.99	32.26
365.201	-35.33
365.412	89.6
365.623	-109.05
365.834	77.31
366.045	-23.04
366.256	73.21
366.467	108.03
366.678	13.82
366.889	108.03
367.1	-78.33
367.311	87.55
367.522	32.26
367.733	79.36
367.944	124.41
368.155	73.21
368.366	44.54
368.577	110.08
368.788	144.89
368.999	-25.09
369.209	52.74
369.42	181.76
369.631	214.52
369.842	60.93
370.053	9.73
370.264	132.61
370.474	-88.57
370.685	54.78
370.896	1.54
371.107	204.28
371.317	124.41
371.528	-2.56
371.739	77.31
371.95	103.93
372.16	22.02
372.371	-2.56
372.582	-82.43
372.792	81.41
373.003	81.41
373.214	-0.51
373.424	56.83
373.635	-64
373.846	83.45
374.056	-25.09
374.267	110.08
374.477	83.45
374.688	9.73
374.898	69.12
375.109	3.58
375.319	67.07
375.53	73.21
375.74	50.69
375.951	15.87
376.161	122.37
376.372	97.79
376.582	77.31
376.793	30.21
377.003	50.69
377.214	-25.09
377.424	77.31
377.635	42.5
377.845	58.88
378.055	79.36
378.266	-25.09
378.476	-39.42
378.686	122.37
378.897	19.97
379.107	91.65
379.317	142.85
379.528	13.82
379.738	142.85
379.948	-14.85
380.158	69.12
380.369	120.32
380.579	42.5
380.789	-53.76
380.999	110.08
381.21	99.84
381.42	267.77
381.63	-0.51
381.84	126.46
382.05	7.68
382.261	120.32
382.471	173.57
382.681	-2.56
382.891	183.81
383.101	1.54
383.311	-39.42
383.521	-72.19
383.731	83.45
383.941	105.98
384.151	-16.9
384.361	-10.75
384.571	124.41
384.781	34.3
384.991	222.72
385.201	148.99
385.411	108.03
385.621	36.35
385.831	91.65
386.041	50.69
386.251	-23.04
386.461	103.93
386.671	54.78
386.881	-0.51
387.091	73.21
387.301	136.7
387.511	112.13
387.72	85.5
387.93	97.79
388.14	-76.29
388.35	65.02
388.56	128.51
388.769	58.88
388.979	22.02
389.189	-18.94
389.399	-57.86
389.609	114.17
389.818	214.52
390.028	58.88
390.238	130.56
390.447	-0.51
390.657	48.64
390.867	-25.09
391.076	-64
391.286	38.4
391.496	116.22
391.705	24.06
391.915	167.42
392.125	175.61
392.334	-2.56
392.544	116.22
392.753	62.98
392.963	26.11
393.172	30.21
393.382	-25.09
393.591	155.13
393.801	-14.85
394.01	157.18
394.22	73.21
394.429	-31.23
394.639	34.3
394.848	9.73
395.058	122.37
395.267	15.87
395.477	122.37
395.686	30.21
395.895	161.28
396.105	153.09
396.314	69.12
396.524	5.63
396.733	73.21
396.942	77.31
397.152	179.71
397.361	44.54
397.57	85.5
397.78	40.45
397.989	110.08
398.198	222.72
398.407	3.58
398.617	38.4
398.826	60.93
399.035	19.97
399.244	85.5
399.453	71.17
399.663	15.87
399.872	50.69
400.081	13.82
400.29	175.61
400.499	-35.33
400.708	146.94
400.917	13.82
401.127	26.11
401.336	19.97
401.545	105.98
401.754	130.56
401.963	108.03
402.172	-55.81
402.381	-20.99
402.59	73.21
402.799	28.16
403.008	26.11
403.217	128.51
403.426	50.69
403.635	-98.81
403.844	48.64
404.053	77.31
404.262	-55.81
404.471	171.52
404.68	67.07
404.888	67.07
405.097	-6.66
405.306	71.17
405.515	46.59
405.724	36.35
405.933	159.23
406.142	56.83
406.35	136.7
406.559	58.88
406.768	-35.33
406.977	226.81
407.185	75.26
407.394	83.45
407.603	-39.42
407.812	93.69
408.02	196.09
408.229	101.89
408.438	93.69
408.646	1.54
408.855	85.5
409.064	77.31
409.272	22.02
409.481	159.23
409.69	-39.42
409.898	67.07
410.107	112.13
410.315	112.13
410.524	-8.7
410.733	38.4
410.941	11.78
411.15	175.61
411.358	87.55
411.567	114.17
411.775	112.13
411.984	48.64
412.192	87.55
412.401	56.83
412.609	216.57
412.818	103.93
413.026	91.65
413.234	-23.04
413.443	52.74
413.651	-23.04
413.86	71.17
414.068	155.13
414.276	202.24
414.485	32.26
414.693	146.94
414.901	171.52
415.11	83.45
415.318	48.64
415.526	22.02
415.734	112.13
415.943	132.61
416.151	165.37
416.359	-16.9
416.567	105.98
416.776	128.51
416.984	140.8
417.192	161.28
417.4	28.16
417.608	81.41
417.817	-6.66
418.025	65.02
418.233	200.19
418.441	-2.56
418.649	-41.47
418.857	28.16
419.065	99.84
419.273	-20.99
419.481	50.69
419.689	65.02
419.897	-2.56
420.105	5.63
420.313	75.26
420.521	171.52
420.729	112.13
420.937	71.17
421.145	-8.7
421.353	159.23
421.561	173.57
421.769	36.35
421.977	75.26
422.185	67.07
422.393	60.93
422.601	116.22
422.809	26.11
423.017	34.3
423.224	71.17
423.432	155.13
423.64	67.07
423.848	157.18
424.056	42.5
424.263	97.79
424.471	-18.94
424.679	148.99
424.887	9.73
425.094	148.99
425.302	97.79
425.51	114.17
425.718	159.23
425.925	67.07
426.133	-57.86
426.341	151.04
426.548	54.78
426.756	101.89
426.964	118.27
427.171	52.74
427.379	91.65
427.586	13.82
427.794	140.8
428.001	118.27
428.209	153.09
428.417	222.72
428.624	75.26
428.832	89.6
429.039	34.3
429.247	77.31
429.454	140.8
429.662	99.84
429.869	118.27
430.076	212.48
430.284	151.04
430.491	99.84
430.699	97.79
430.906	216.57
431.114	128.51
431.321	169.47
431.528	42.5
431.736	228.86
431.943	151.04
432.15	200.19
432.358	181.76
432.565	226.81
432.772	56.83
432.979	171.52
433.187	108.03
433.394	241.15
433.601	52.74
433.808	183.81
434.016	249.34
434.223	255.48
434.43	196.09
434.637	241.15
434.844	284.16
435.052	310.78
435.259	294.4
435.466	267.77
435.673	282.11
435.88	296.44
436.087	286.2
436.294	235
436.501	253.44
436.708	267.77
436.915	345.59
437.122	359.93
437.329	146.94
437.537	298.49
437.743	318.97
437.95	415.23
438.157	271.87
438.364	269.82
438.571	351.74
438.778	419.32
438.985	402.94
439.192	439.8
439.399	353.79
439.606	445.95
439.813	470.52
440.02	574.97
440.227	552.44
440.433	513.53
440.64	491
440.847	460.28
441.054	566.78
441.261	660.98
441.467	550.39
441.674	470.52
441.881	691.7
442.088	525.82
442.294	671.22
442.501	744.95
442.708	765.43
442.914	660.98
443.121	728.56
443.328	790
443.534	822.77
443.741	806.39
443.948	703.99
444.154	863.73
444.361	947.7
444.568	921.07
444.774	929.27
444.981	916.98
445.187	1072.62
445.394	1052.14
445.6	994.8
445.807	1172.97
446.013	1115.63
446.22	1144.3
446.426	1261.04
446.633	1291.76
446.839	1517.03
447.046	1283.56
447.252	1570.28
447.459	1379.82
447.665	1459.69
447.871	1639.91
448.078	1637.86
448.284	1566.18
448.491	1779.17
448.697	1863.14
448.903	1813.99
449.11	2053.6
449.316	1918.43
449.522	2078.18
449.728	2182.62
449.935	2135.52
450.141	2215.39
450.347	2475.48
450.553	2407.9
450.76	2409.95
450.966	2579.93
451.172	2659.8
451.378	2739.67
451.584	2844.12
451.791	3139.02
451.997	3169.74
452.203	3132.88
452.409	3358.16
452.615	3544.52
452.821	3595.72
453.027	3460.56
453.233	3890.63
453.44	3755.46
453.646	3995.08
453.852	3986.88
454.058	4376
454.264	4361.66
454.47	4765.11
454.676	4670.9
454.882	5223.86
455.088	4943.28
455.294	5158.32
455.5	5504.43
455.705	5817.77
455.911	5696.94
456.117	5924.26
456.323	6256.03
456.529	6233.5
456.735	6749.59
456.941	7032.21
457.147	7212.43
457.352	7323.02
457.558	7759.24
457.764	8013.19
457.97	8359.3
458.176	8353.15
458.381	9203.06
458.587	9133.43
458.793	9514.35
458.999	9616.75
459.204	10896.73
459.41	11191.64
459.616	10780
459.821	11693.39
460.027	12189
460.233	12694.85
460.438	12750.14
460.644	13524.27
460.85	13630.77
461.055	14275.88
461.261	14959.9
461.466	14376.23
461.672	15007
461.878	16672
462.083	16387.33
462.289	16835.84
462.494	17347.83
462.7	17444.09
462.905	17741.04
463.111	19270.87
463.316	20280.52
463.522	20354.25
463.727	21132.48
463.932	22152.37
464.138	22748.32
464.343	23469.21
464.549	23753.88
464.754	25506.94
464.959	26231.92
465.165	26668.14
465.37	26336.37
465.575	26477.68
465.781	28286.03
465.986	29140.04
466.191	28648.52
466.397	28953.67
466.602	28122.19
466.807	30104.63
467.012	30778.41
467.218	31112.23
467.423	30942.25
467.628	32166.93
467.833	33727.49
468.038	32914.44
468.244	32437.27
468.449	34337.78
468.654	33557.5
468.859	33418.24
469.064	33553.41
469.269	32332.82
469.474	32953.35
469.679	33670.14
469.885	32840.71
470.09	33381.38
470.295	33405.95
470.5	32707.6
470.705	33053.7
470.91	31994.9
471.115	31460.38
471.32	32226.32
471.525	32123.93
471.73	31104.04
471.935	31276.07
472.139	29946.94
472.344	29987.89
472.549	29971.51
472.754	29336.64
472.959	28539.98
473.164	27819.1
473.369	27368.54
473.574	28062.8
473.778	27429.98
473.983	26922.09
474.188	26670.19
474.393	25107.58
474.598	24919.17
474.802	24632.46
475.007	24321.16
475.212	24132.75
475.417	23272.6
475.621	22992.03
475.826	22967.46
476.031	22168.75
476.235	21658.81
476.44	21773.49
476.645	21060.8
476.849	20862.15
477.054	20667.59
477.259	20018.38
477.463	20057.29
477.668	19580.12
477.872	19514.58
478.077	18961.63
478.282	18545.89
478.486	18154.73
478.691	18005.23
478.895	17673.46
479.1	17612.02
479.304	17626.36
479.509	16901.37
479.713	17415.41
479.918	16942.33
480.122	16542.98
480.326	16579.84
480.531	16577.8
480.735	16323.85
480.94	16215.3
481.144	16553.22
481.348	15824.14
481.553	15930.64
481.757	15392.02
481.961	15519
482.166	15512.85
482.37	15467.8
482.574	15039.77
482.778	15156.5
482.983	15404.31
483.187	15164.7
483.391	14873.89
483.595	14535.97
483.8	14474.53
484.004	14427.43
484.208	14617.89
484.412	14210.34
484.616	14222.63
484.821	14234.92
485.025	13415.73
485.229	13688.11
485.433	13485.36
485.637	13368.63
485.841	12987.71
486.045	12893.5
486.249	12854.59
486.453	12401.99
486.657	12307.78
486.861	12164.42
487.065	11955.53
487.269	12064.07
487.473	11459.92
487.677	11650.38
487.881	11699.53
488.085	11285.84
488.289	11208.02
488.493	10855.77
488.697	10990.94
488.901	10616.16
489.105	10145.13
489.309	10124.65
489.512	10157.41
489.716	9776.49
489.92	9684.33
490.124	9323.89
490.328	9444.72
490.531	9088.37
490.735	9198.96
490.939	8875.38
491.143	8516.99
491.346	8416.64
491.55	8428.93
491.754	8207.75
491.958	8248.71
492.161	8093.06
492.365	7906.7
492.569	7634.32
492.772	7691.66
492.976	7699.85
493.18	7396.75
493.383	7538.06
493.587	7591.31
493.79	7372.18
493.994	7316.88
494.197	7052.69
494.401	7062.93
494.605	7015.83
494.808	6927.77
495.012	6782.36
495.215	7003.54
495.419	7030.16
495.622	6778.26
495.825	6763.93
496.029	6538.65
496.232	6845.85
496.436	6682.01
496.639	6817.18
496.843	6450.59
497.046	6651.29
497.249	6753.69
497.453	6507.93
497.656	6612.38
497.859	6565.28
498.063	6735.26
498.266	6833.56
498.469	6565.28
498.673	6534.56
498.876	6784.41
499.079	6657.43
499.282	6712.73
499.485	7030.16
499.689	6847.9
499.892	6944.15
500.095	7011.73
500.298	7071.12
500.501	7128.47
500.705	7120.28
500.908	7140.76
501.111	7208.34
501.314	7316.88
501.517	7607.69
501.72	7742.86
501.923	7296.4
502.126	7634.32
502.329	7939.46
502.532	7681.42
502.735	7837.06
502.938	7994.76
503.141	8029.57
503.344	8060.29
503.547	8297.86
503.75	8314.24
503.953	8484.22
504.156	8629.63
504.359	8553.85
504.562	8822.14
504.765	9045.37
504.968	9033.08
505.17	9416.05
505.373	9307.51
505.576	9637.23
505.779	9590.13
505.982	9651.56
506.185	10118.5
506.387	10159.46
506.59	10366.31
506.793	10392.93
506.996	10603.87
507.198	10958.17
507.401	11156.82
507.604	11423.06
507.807	11476.3
508.009	11916.62
508.212	12166.47
508.415	12209.48
508.617	12322.12
508.82	12959.03
509.022	12635.46
509.225	13194.55
509.428	13684.02
509.63	13554.99
509.833	13704.49
510.035	14873.89
510.238	14673.18
510.44	15050.01
510.643	15461.65
510.845	15897.87
511.048	15987.98
511.25	16571.65
511.453	16764.16
511.655	17650.93
511.858	17140.99
512.06	17976.56
512.262	18326.76
512.465	18838.75
512.667	19199.2
512.87	19631.32
513.072	20002
513.274	20493.51
513.477	21007.55
513.679	21603.51
513.881	22189.23
514.084	22418.6
514.286	22879.39
514.488	23272.6
514.69	24347.79
514.893	24704.14
515.095	24910.98
515.297	25713.78
515.499	26125.43
515.701	26938.47
515.904	27587.68
516.106	28126.29
516.308	28413.01
516.51	29170.75
516.712	29383.74
516.914	30217.27
517.116	31007.78
517.318	31517.73
517.52	31788.06
517.722	32437.27
517.925	33149.96
518.127	33887.23
518.329	34477.04
518.531	34687.98
518.733	35816.41
518.935	36432.85
519.136	36621.27
519.338	37387.21
519.54	37977.02
519.742	38714.29
519.944	39164.84
520.146	39812
520.348	40217.5
520.55	40788.88
520.752	40981.39
520.954	42021.76
521.155	42462.07
521.357	42910.58
521.559	43537.26
521.761	44122.97
521.963	44645.21
522.164	45175.63
522.366	45271.89
522.568	45628.23
522.77	45923.14
522.971	46938.93
523.173	46611.26
523.375	47538.99
523.576	46877.49
523.778	47311.66
523.98	48044.83
524.181	48388.89
524.383	48462.62
524.584	48739.1
524.786	48757.53
524.988	48569.11
525.189	49369.87
525.391	49322.77
525.592	49548.04
525.794	49412.88
525.995	49339.15
526.197	49408.78
526.398	49408.78
526.6	49261.33
526.801	49425.17
527.003	49349.39
527.204	49117.97
527.406	49519.37
527.607	48569.11
527.808	49066.77
528.01	47715.11
528.211	48128.8
528.412	48370.46
528.614	47971.11
528.815	47430.44
529.016	47868.71
529.218	47137.58
529.419	46703.42
529.62	46197.57
529.822	46115.65
530.023	45501.26
530.224	45079.38
530.425	45022.03
530.626	43770.72
530.828	43363.18
531.029	43789.16
531.23	42785.65
531.431	42564.47
531.632	42359.67
531.833	41952.13
532.035	41143.18
532.236	41020.3
532.437	40410.01
532.638	39799.71
532.839	39500.71
533.04	38812.59
533.241	38069.18
533.442	38577.08
533.643	37520.32
533.844	37039.05
534.045	36729.81
534.246	35820.51
534.447	35775.45
534.648	34903.02
534.849	34716.65
535.05	33651.71
535.251	34204.66
535.451	33225.73
535.652	33170.44
535.853	32398.35
536.054	32324.63
536.255	31806.49
536.456	31075.37
536.657	31394.85
536.857	30497.84
537.058	29955.13
537.259	29873.21
537.46	29402.18
537.66	28875.85
537.861	28642.38
538.062	28089.43
538.263	27870.29
538.463	27305.06
538.664	26922.09
538.865	26721.38
539.065	26676.33
539.266	25805.94
539.466	26008.69
539.667	25228.42
539.868	25420.92
540.068	24722.57
540.269	24628.36
540.469	24360.08
540.67	24028.31
540.87	23979.15
541.071	23413.91
541.271	23293.08
541.472	23119.01
541.672	22738.09
541.873	22400.17
542.073	21812.4
542.274	22131.89
542.474	21519.54
542.675	21263.55
542.875	21286.08
543.075	20847.81
543.276	20466.89
543.476	20751.56
543.676	20002
543.877	20094.16
544.077	19940.56
544.277	19684.56
544.478	19440.86
544.678	19268.83
544.878	18986.21
545.078	18857.18
545.279	18455.78
545.479	18244.84
545.679	17999.09
545.879	17798.38
546.079	17657.07
546.28	17669.36
546.48	17407.22
546.68	17405.17
546.88	16950.53
547.08	16792.83
547.28	16327.94
547.48	16174.35
547.68	16262.41
547.88	15928.59
548.081	15789.33
548.281	15295.77
548.481	15283.48
548.681	15293.72
548.881	14892.32
549.081	14521.63
549.28	14544.16
549.48	14167.34
549.68	14208.3
549.88	14071.08
550.08	13810.99
550.28	13774.13
550.48	13673.78
550.68	13292.85
550.88	13135.16
551.08	12997.95
551.279	12750.14
551.479	12211.53
551.679	12393.79
551.879	12123.46
552.079	12059.98
552.278	11773.26
552.478	11793.74
552.678	11609.42
552.878	11529.55
553.077	11035.99
553.277	10888.54
553.477	11025.75
553.676	10847.58
553.876	10546.53
554.076	10362.21
554.275	10372.45
554.475	9713
554.674	9842.03
554.874	9608.56
555.074	9622.89
555.273	9432.43
555.473	9205.11
555.672	8887.67
555.872	8908.15
556.071	9022.84
556.271	8686.97
556.47	8545.66
556.67	8369.54
556.869	8383.87
557.068	8080.77
557.268	8011.14
557.467	7771.53
557.667	7875.98
557.866	7660.94
558.065	7269.78
558.265	7255.44
558.464	7282.06
558.663	7071.12
558.863	6690.2
559.062	6960.53
559.261	6616.48
559.461	6819.22
559.66	6563.23
559.859	6426.01
560.058	6430.11
560.258	6186.4
560.457	6167.97
560.656	6079.91
560.855	5922.21
561.054	5901.73
561.253	5815.72
561.453	5748.14
561.652	5576.11
561.851	5762.47
562.05	5375.41
562.249	5199.28
562.448	5264.82
562.647	5121.46
562.846	5068.21
563.045	5033.4
563.244	4865.46
563.443	4887.99
563.642	4683.19
563.841	4722.1
564.04	4679.1
564.239	4629.95
564.438	4613.56
564.637	4347.33
564.836	4341.18
565.035	4283.84
565.234	4179.39
565.432	4193.73
565.631	4285.89
565.83	4212.16
566.029	3956.16
566.228	3945.92
566.427	4111.81
566.625	3636.68
566.824	3777.99
567.023	3759.56
567.222	3689.93
567.42	3560.91
567.619	3589.58
567.818	3444.17
568.016	3608.01
568.215	3380.68
568.414	3462.6
568.612	3294.67
568.811	3319.25
569.01	3249.61
569.208	3227.09
569.407	3124.69
569.605	3175.89
569.804	3028.43
570.002	3091.92
570.201	2864.6
570.4	2930.13
570.598	2833.88
570.797	2893.27
570.995	2678.23
571.193	2754.01
571.392	2864.6
571.59	2764.25
571.789	2616.79
571.987	2600.41
572.186	2751.96
572.384	2532.83
572.582	2321.88
572.781	2526.68
572.979	2321.88
573.177	2221.53
573.376	2252.25
573.574	2461.15
573.772	2139.62
573.971	2037.22
574.169	2053.6
574.367	2151.9
574.565	2014.69
574.763	2061.79
574.962	2115.04
575.16	2016.74
575.358	1801.7
575.556	1949.15
575.754	1969.63
575.952	1807.84
576.151	1867.24
576.349	1795.56
576.547	1717.73
576.745	1836.52
576.943	1758.69
577.141	1721.83
577.339	1629.67
577.537	1603.05
577.735	1680.87
577.933	1553.9
578.131	1428.97
578.329	1650.15
578.527	1476.07
578.725	1646.05
578.923	1443.31
579.121	1484.27
579.319	1291.76
579.516	1336.81
579.714	1650.15
579.912	1357.29
580.11	1312.24
580.308	1261.04
580.506	1211.89
580.704	1191.41
580.901	1277.42
581.099	1349.1
581.297	1285.61
581.495	1269.23
581.692	1164.78
581.89	1330.67
582.088	1140.21
582.285	1226.22
582.483	1117.68
582.681	1168.88
582.878	1046
583.076	1129.97
583.274	972.27
583.471	1177.07
583.669	1027.57
583.866	939.51
584.064	974.32
584.262	888.31
584.459	986.61
584.657	982.51
584.854	1121.77
585.052	1013.23
585.249	890.35
585.447	925.17
585.644	882.16
585.841	912.88
586.039	943.6
586.236	974.32
586.434	818.68
586.631	816.63
586.828	693.75
587.026	814.58
587.223	648.69
587.42	726.52
587.618	734.71
587.815	734.71
588.012	742.9
588.21	663.03
588.407	710.13
588.604	775.67
588.801	712.18
588.999	785.91
589.196	796.15
589.393	722.42
589.59	699.89
589.787	687.61
589.984	593.4
590.182	689.65
590.379	570.87
590.576	673.27
590.773	622.07
590.97	638.45
591.167	710.13
591.364	744.95
591.561	585.21
591.758	753.14
591.955	660.98
592.152	753.14
592.349	650.74
592.546	574.97
592.743	607.73
592.94	572.92
593.137	781.81
593.334	761.33
593.531	714.23
593.727	644.6
593.924	624.12
594.121	628.21
594.318	572.92
594.515	654.84
594.712	720.37
594.908	706.04
595.105	583.16
595.302	677.37
595.499	615.93
595.696	798.2
595.892	628.21
596.089	767.48
596.286	683.51
596.482	828.92
596.679	808.44
596.876	673.27
597.072	830.96
597.269	798.2
597.466	798.2
597.662	839.16
597.859	841.2
598.055	853.49
598.252	988.66
598.448	1050.1
598.645	1011.18
598.841	1095.15
599.038	1166.83
599.234	1193.45
599.431	1148.4
599.627	1230.32
599.824	1258.99
600.02	1336.81
600.217	1299.95
600.413	1279.47
600.609	1283.56
600.806	1637.86
601.002	1541.61
601.198	1523.18
601.395	1648.1
601.591	1672.68
601.787	1768.93
601.984	1861.09
602.18	1875.43
602.376	2004.45
602.572	2031.07
602.769	2172.38
602.965	2201.05
603.161	2319.84
603.357	2282.97
603.553	2457.05
603.75	2473.43
603.946	2530.78
604.142	2672.09
604.338	2844.12
604.534	2733.53
604.73	2880.98
604.926	2936.28
605.122	3134.93
605.318	3093.97
605.514	3313.1
605.71	3372.49
605.906	3565
606.102	3560.91
606.298	3780.04
606.494	3929.54
606.69	3976.64
606.886	4005.31
607.082	4048.32
607.278	4308.41
607.474	4212.16
607.67	4421.05
607.866	4468.16
608.062	4842.93
608.257	4885.94
608.453	4771.26
608.649	5172.66
608.845	5178.8
609.041	5100.98
609.236	5569.96
609.432	5672.36
609.628	5881.25
609.824	5930.41
610.019	6147.49
610.215	6360.48
610.411	6641.05
610.606	6659.48
610.802	6768.02
610.998	6862.23
611.193	7245.2
611.389	7234.96
611.584	7501.2
611.78	7544.2
611.976	7675.27
612.171	8185.22
612.367	8328.58
612.562	8740.22
612.758	8695.16
612.953	8686.97
613.149	9346.42
613.344	9313.65
613.539	9788.78
613.735	9911.66
613.93	10272.1
614.126	10397.03
614.321	10786.14
614.517	11058.52
614.712	11273.56
614.907	11568.46
615.103	11697.49
615.298	12182.85
615.493	12315.97
615.688	12539.2
615.884	13053.24
616.079	13167.93
616.274	13677.87
616.47	13888.81
616.665	14292.26
616.86	14830.88
617.055	14941.47
617.25	15314.2
617.445	15944.97
617.641	16194.82
617.836	16694.53
618.031	16798.98
618.226	17566.96
618.421	17763.57
618.616	18257.13
618.811	18556.13
619.006	19000.54
619.201	19315.93
619.396	19942.61
619.591	20120.78
619.786	20769.99
619.981	20931.78
620.176	21851.31
620.371	21826.74
620.566	22236.33
620.761	22637.73
620.956	23569.56
621.151	23846.04
621.346	24347.79
621.541	24429.71
621.735	25406.59
621.93	25525.37
622.125	26059.89
622.32	26018.93
622.515	26913.89
622.709	27022.44
622.904	28011.6
623.099	28154.96
623.294	29267.01
623.488	29289.54
623.683	30059.57
623.878	30151.73
624.072	31161.38
624.267	31458.34
624.462	31585.31
624.656	32015.38
624.851	32715.79
625.046	33078.28
625.24	33752.06
625.435	34231.29
625.629	34358.26
625.824	35073
626.018	35593.18
626.213	35324.9
626.407	36441.04
626.602	36680.66
626.796	37151.69
626.991	37653.44
627.185	37430.21
627.38	38095.8
627.574	38185.91
627.768	38126.52
627.963	38869.93
628.157	38599.6
628.352	38910.89
628.546	38628.27
628.74	39521.19
628.935	38896.56
629.129	39304.1
629.323	38927.28
629.517	38822.83
629.712	38443.96
629.906	38489.01
630.1	37716.93
630.294	37673.92
630.489	37020.62
630.683	37374.92
630.877	36119.51
631.071	35988.44
631.265	35036.14
631.459	34644.98
631.653	33649.66
631.848	33047.56
632.042	32277.52
632.236	31814.68
632.43	30690.35
632.624	30211.12
632.818	29035.59
633.012	28116.05
633.206	27604.06
633.4	26776.68
633.594	25400.44
633.788	25156.74
633.982	24247.44
634.176	23348.38
634.369	22414.51
634.563	21503.16
634.757	20806.85
634.951	20128.97
635.145	19455.19
635.339	18648.29
635.533	17876.21
635.726	17255.67
635.92	16313.61
636.114	15508.76
636.308	15019.29
636.501	14617.89
636.695	13997.35
636.889	13272.37
637.083	12670.27
637.276	12143.94
637.47	11664.72
637.664	11455.83
637.857	10929.5
638.051	10431.84
638.244	10038.63
638.438	9557.36
638.632	9526.64
638.825	8656.25
639.019	8672.64
639.212	8199.55
639.406	7769.48
639.599	7585.16
639.793	7265.68
639.986	6956.44
640.18	6938.01
640.373	6317.47
640.567	6186.4
640.76	6116.77
640.954	5785
641.147	5406.13
641.34	5223.86
641.534	5127.6
641.727	5051.83
641.92	4826.55
642.114	4607.42
642.307	4341.18
642.5	4251.07
642.694	4081.09
642.887	3831.24
643.08	3804.61
643.273	3677.64
643.467	3591.63
643.66	3120.59
643.853	3190.22
644.046	3155.41
644.239	3034.58
644.432	2860.5
644.626	2563.54
644.819	2772.44
645.012	2498.01
645.205	2489.82
645.398	2479.58
645.591	2266.59
645.784	2231.77
645.977	2041.31
646.17	2059.74
646.363	1963.49
646.556	1734.12
646.749	1742.31
646.942	1676.77
647.135	1699.3
647.328	1598.95
647.521	1609.19
647.714	1447.4
647.907	1494.51
648.099	1306.09
648.292	1385.96
648.485	1258.99
648.678	1215.98
648.871	1062.38
649.064	1113.58
649.256	1072.62
649.449	1009.14
649.642	955.89
649.835	1029.62
650.027	906.74
650.22	1019.38
650.413	845.3
650.605	937.46
650.798	802.29
650.991	761.33
651.183	814.58
651.376	812.53
651.568	763.38
651.761	767.48
651.954	706.04
652.146	701.94
652.339	597.49
652.531	722.42
652.724	521.72
652.916	540.15
653.109	454.14
653.301	624.12
653.494	519.67
653.686	538.1
653.879	654.84
654.071	538.1
654.263	433.66
654.456	411.13
654.648	493.05
654.84	480.76
655.033	497.14
655.225	511.48
655.417	290.3
655.61	513.53
655.802	441.85
655.994	482.81
656.186	318.97
656.379	386.55
656.571	351.74
656.763	361.98
656.955	321.02
657.148	343.55
657.34	392.7
657.532	284.16
657.724	323.07
657.916	275.96
658.108	400.89
658.3	421.37
658.492	278.01
658.684	230.91
658.876	341.5
659.068	222.72
659.26	218.62
659.452	294.4
659.644	183.81
659.836	380.41
660.028	298.49
660.22	251.39
660.412	255.48
660.604	321.02
660.796	192
660.988	286.2
661.18	304.64
661.372	298.49
661.563	140.8
661.755	239.1
661.947	130.56
662.139	105.98
662.331	228.86
662.522	218.62
662.714	103.93
662.906	183.81
663.097	185.85
663.289	73.21
663.481	136.7
663.673	210.43
663.864	245.24
664.056	214.52
664.247	189.95
664.439	255.48
664.631	136.7
664.822	198.14
665.014	216.57
665.205	175.61
665.397	194.05
665.588	105.98
665.78	138.75
665.971	275.96
666.163	157.18
666.354	175.61
666.546	110.08
666.737	161.28
666.929	114.17
667.12	140.8
667.311	189.95
667.503	134.65
667.694	165.37
667.885	126.46
668.077	171.52
668.268	32.26
668.459	124.41
668.651	185.85
668.842	132.61
669.033	167.42
669.224	71.17
669.416	388.6
669.607	126.46
669.798	128.51
669.989	249.34
670.18	144.89
670.371	177.66
670.563	83.45
670.754	208.38
670.945	136.7
671.136	275.96
671.327	155.13
671.518	218.62
671.709	351.74
671.9	185.85
672.091	370.17
672.282	110.08
672.473	144.89
672.664	128.51
672.855	169.47
673.046	222.72
673.237	210.43
673.428	153.09
673.619	220.67
673.809	181.76
674	273.92
674.191	194.05
674.382	157.18
674.573	245.24
674.764	208.38
674.954	257.53
675.145	67.07
675.336	120.32
675.527	157.18
675.717	155.13
675.908	116.22
676.099	112.13
676.289	189.95
676.48	77.31
676.671	212.48
676.861	138.75
677.052	142.85
677.243	222.72
677.433	206.33
677.624	280.06
677.814	194.05
678.005	216.57
678.195	329.21
678.386	198.14
678.576	253.44
678.767	122.37
678.957	196.09
679.148	257.53
679.338	298.49
679.529	292.35
679.719	245.24
679.909	292.35
680.1	208.38
680.29	261.63
680.481	173.57
680.671	292.35
680.861	314.88
681.052	366.07
681.242	230.91
681.432	263.68
681.622	232.96
681.813	183.81
682.003	263.68
682.193	292.35
682.383	247.29
682.573	144.89
682.764	275.96
682.954	359.93
683.144	361.98
683.334	212.48
683.524	192
683.714	341.5
683.904	327.16
684.094	292.35
684.284	300.54
684.474	323.07
684.664	411.13
684.854	284.16
685.044	251.39
685.234	308.73
685.424	335.35
685.614	175.61
685.804	396.79
685.994	288.25
686.184	300.54
686.374	290.3
686.564	329.21
686.753	259.58
686.943	165.37
687.133	269.82
687.323	271.87
687.513	398.84
687.702	243.2
687.892	280.06
688.082	327.16
688.272	296.44
688.461	316.92
688.651	470.52
688.841	366.07
689.03	331.26
689.22	337.4
689.41	370.17
689.599	292.35
689.789	243.2
689.979	396.79
690.168	267.77
690.358	333.31
690.547	241.15
690.737	235
690.926	261.63
691.116	341.5
691.305	382.46
691.495	292.35
691.684	298.49
691.874	218.62
692.063	288.25
692.252	298.49
692.442	327.16
692.631	271.87
692.82	300.54
693.01	308.73
693.199	253.44
693.388	329.21
693.578	241.15
693.767	304.64
693.956	298.49
694.146	261.63
694.335	282.11
694.524	198.14
694.713	323.07
694.902	271.87
695.092	206.33
695.281	327.16
695.47	265.72
695.659	163.33
695.848	300.54
696.037	194.05
696.226	323.07
696.415	300.54
696.604	368.12
696.793	253.44
696.982	296.44
697.171	466.42
697.36	179.71
697.549	251.39
697.738	157.18
697.927	239.1
698.116	198.14
698.305	273.92
698.494	302.59
698.683	310.78
698.872	386.55
699.061	267.77
699.25	232.96
699.438	263.68
699.627	241.15
699.816	402.94
700.005	148.99
700.193	192
700.382	306.68
700.571	296.44
700.76	282.11
700.948	337.4
701.137	333.31
701.326	316.92
701.514	243.2
701.703	259.58
701.892	312.83
702.08	482.81
702.269	192
702.457	224.76
702.646	306.68
702.834	177.66
703.023	302.59
703.212	409.08
703.4	239.1
703.589	214.52
703.777	200.19
703.965	148.99
704.154	218.62
704.342	202.24
704.531	235
704.719	343.55
704.907	255.48
705.096	226.81
705.284	235
705.472	255.48
705.661	314.88
705.849	282.11
706.037	308.73
706.226	302.59
706.414	247.29
706.602	208.38
706.79	341.5
706.979	271.87
707.167	243.2
707.355	196.09
707.543	263.68
707.731	335.35
707.919	267.77
708.107	200.19
708.296	132.61
708.484	230.91
708.672	271.87
708.86	275.96
709.048	210.43
709.236	228.86
709.424	288.25
709.612	259.58
709.8	179.71
709.988	275.96
710.176	378.36
710.364	290.3
710.551	228.86
710.739	237.05
710.927	194.05
711.115	278.01
711.303	325.12
711.491	351.74
711.679	183.81
711.866	310.78
712.054	237.05
712.242	247.29
712.43	398.84
712.617	286.2
712.805	312.83
712.993	222.72
713.181	220.67
713.368	298.49
713.556	261.63
713.744	273.92
713.931	421.37
714.119	327.16
714.306	282.11
714.494	251.39
714.682	282.11
714.869	183.81
715.057	224.76
715.244	226.81
715.432	269.82
715.619	292.35
715.807	269.82
715.994	331.26
716.182	253.44
716.369	345.59
716.556	364.03
716.744	181.76
716.931	175.61
717.119	261.63
717.306	286.2
717.493	280.06
717.681	239.1
717.868	216.57
718.055	370.17
718.242	300.54
718.43	284.16
718.617	396.79
718.804	304.64
718.991	415.23
719.179	300.54
719.366	263.68
719.553	290.3
719.74	273.92
719.927	339.45
720.114	296.44
720.301	181.76
720.488	253.44
720.676	247.29
720.863	462.33
721.05	429.56
721.237	345.59
721.424	337.4
721.611	314.88
721.798	206.33
721.985	298.49
722.172	306.68
722.358	321.02
722.545	394.75
722.732	357.88
722.919	452.09
723.106	347.64
723.293	355.83
723.48	296.44
723.667	327.16
723.853	425.47
724.04	335.35
724.227	417.27
724.414	273.92
724.6	345.59
724.787	452.09
724.974	529.91
725.161	331.26
725.347	296.44
725.534	298.49
725.72	368.12
725.907	409.08
726.094	331.26
726.28	269.82
726.467	292.35
726.653	196.09
726.84	488.95
727.027	450.04
727.213	345.59
727.4	298.49
727.586	306.68
727.773	361.98
727.959	359.93
728.145	339.45
728.332	288.25
728.518	273.92
728.705	323.07
728.891	333.31
729.077	407.03
729.264	232.96
729.45	382.46
729.636	470.52
729.823	306.68
730.009	357.88
730.195	378.36
730.382	384.51
730.568	280.06
730.754	359.93
730.94	296.44
731.126	390.65
731.313	355.83
731.499	290.3
731.685	306.68
731.871	372.22
732.057	400.89
732.243	464.38
732.429	407.03
732.615	476.66
732.801	388.6
732.987	378.36
733.173	417.27
733.359	366.07
733.545	409.08
733.731	378.36
733.917	505.34
734.103	429.56
734.289	351.74
734.475	286.2
734.661	531.96
734.847	333.31
735.033	407.03
735.219	447.99
735.404	359.93
735.59	329.21
735.776	345.59
735.962	382.46
736.148	450.04
736.333	523.77
736.519	402.94
736.705	341.5
736.89	390.65
737.076	419.32
737.262	339.45
737.447	355.83
737.633	409.08
737.819	476.66
738.004	339.45
738.19	376.31
738.375	388.6
738.561	470.52
738.747	396.79
738.932	335.35
739.118	519.67
739.303	404.99
739.489	388.6
739.674	345.59
739.859	419.32
740.045	435.71
740.23	355.83
740.416	271.87
740.601	359.93
740.786	441.85
740.972	435.71
741.157	282.11
741.342	298.49
741.528	372.22
741.713	419.32
741.898	398.84
742.084	376.31
742.269	452.09
742.454	364.03
742.639	454.14
742.824	407.03
743.01	476.66
743.195	484.86
743.38	478.71
743.565	407.03
743.75	398.84
743.935	476.66
744.12	351.74
744.305	404.99
744.49	306.68
744.675	380.41
744.86	370.17
745.045	417.27
745.23	339.45
745.415	404.99
745.6	486.9
745.785	302.59
745.97	456.19
746.155	409.08
746.34	437.75
746.525	474.62
746.71	419.32
746.895	224.76
747.079	269.82
747.264	398.84
747.449	478.71
747.634	445.95
747.819	411.13
748.003	316.92
748.188	290.3
748.373	423.42
748.557	378.36
748.742	331.26
748.927	296.44
749.111	409.08
749.296	243.2
749.481	370.17
749.665	280.06
749.85	206.33
750.034	394.75
750.219	386.55
750.404	333.31
750.588	316.92
750.773	239.1
750.957	351.74
751.141	292.35
751.326	390.65
751.51	206.33
751.695	249.34
751.879	318.97
752.064	413.18
752.248	265.72
752.432	398.84
752.617	380.41
752.801	441.85
752.985	273.92
753.17	452.09
753.354	310.78
753.538	273.92
753.722	200.19
753.907	288.25
754.091	259.58
754.275	343.55
754.459	108.03
754.643	198.14
754.828	396.79
755.012	255.48
755.196	228.86
755.38	267.77
755.564	181.76
755.748	253.44
755.932	302.59
756.116	419.32
756.3	329.21
756.484	241.15
756.668	241.15
756.852	134.65
757.036	230.91
757.22	296.44
757.404	118.27
757.588	218.62
757.772	325.12
757.956	255.48
758.14	404.99
758.323	210.43
758.507	280.06
758.691	185.85
758.875	286.2
759.059	298.49
759.242	153.09
759.426	177.66
759.61	194.05
759.794	192
759.977	304.64
760.161	407.03
760.345	294.4
760.528	173.57
760.712	249.34
760.895	210.43
761.079	202.24
761.263	144.89
761.446	87.55
761.63	177.66
761.813	206.33
761.997	183.81
762.18	210.43
762.364	165.37
762.547	142.85
762.731	245.24
762.914	253.44
763.098	167.42
763.281	228.86
763.464	163.33
763.648	140.8
763.831	163.33
764.015	148.99
764.198	243.2
764.381	230.91
764.564	116.22
764.748	194.05
764.931	157.18
765.114	189.95
765.297	269.82
765.481	159.23
765.664	179.71
765.847	87.55
766.03	290.3
766.213	132.61
766.397	153.09
766.58	99.84
766.763	165.37
766.946	122.37
767.129	40.45
767.312	114.17
767.495	161.28
767.678	83.45
767.861	247.29
768.044	77.31
768.227	169.47
768.41	165.37
768.593	163.33
768.776	185.85
768.959	136.7
769.142	271.87
769.324	101.89
769.507	245.24
769.69	97.79
769.873	124.41
770.056	357.88
770.239	189.95
770.421	278.01
770.604	194.05
770.787	99.84
770.97	196.09
771.152	62.98
771.335	151.04
771.518	132.61
771.7	171.52
771.883	206.33
772.066	93.69
772.248	177.66
772.431	263.68
772.613	118.27
772.796	161.28
772.978	138.75
773.161	243.2
773.343	110.08
773.526	17.92
773.708	24.06
773.891	-51.71
774.073	101.89
774.256	28.16
774.438	212.48
774.621	5.63
774.803	148.99
774.985	24.06
775.168	153.09
775.35	148.99
775.532	157.18
775.715	75.26
775.897	212.48
776.079	85.5
776.261	120.32
776.444	140.8
776.626	69.12
776.808	155.13
776.99	28.16
777.173	126.46
777.355	-10.75
777.537	91.65
777.719	196.09
777.901	73.21
778.083	124.41
778.265	42.5
778.447	95.74
778.629	77.31
778.811	105.98
778.993	173.57
779.175	181.76
779.357	116.22
779.539	32.26
779.721	114.17
779.903	153.09
780.085	9.73
780.267	165.37
780.449	108.03
780.631	153.09
780.812	185.85
780.994	108.03
781.176	71.17
781.358	71.17
781.54	95.74
781.721	105.98
781.903	79.36
782.085	15.87
782.267	185.85
782.448	3.58
782.63	26.11
782.812	167.42
782.993	206.33
783.175	144.89
783.357	89.6
783.538	85.5
783.72	-8.7
783.901	65.02
784.083	87.55
784.264	116.22
784.446	44.54
784.627	-10.75
784.809	103.93
784.99	3.58
785.172	153.09
785.353	95.74
785.535	58.88
785.716	40.45
785.897	-31.23
786.079	62.98
786.26	38.4
786.441	114.17
786.623	-31.23
786.804	-37.38
786.985	42.5
787.167	99.84
787.348	136.7
787.529	32.26
787.71	101.89
787.891	120.32
788.073	-23.04
788.254	-0.51
788.435	169.47
788.616	75.26
788.797	-53.76
788.978	19.97
789.159	75.26
789.34	75.26
789.522	157.18
789.703	-8.7
789.884	91.65
790.065	24.06
790.246	183.81
790.427	67.07
790.607	62.98
790.788	151.04
790.969	34.3
791.15	67.07
791.331	-29.18
791.512	3.58
791.693	28.16
791.874	-20.99
792.054	157.18
792.235	146.94
792.416	-27.14
792.597	-59.9
792.778	130.56
792.958	19.97
793.139	40.45
793.32	24.06
793.5	32.26
793.681	114.17
793.862	146.94
794.042	71.17
794.223	-88.57
794.404	26.11
794.584	-55.81
794.765	54.78
794.945	112.13
795.126	155.13
795.306	71.17
795.487	97.79
795.667	93.69
795.848	103.93
796.028	105.98
796.209	79.36
796.389	116.22
796.57	73.21
796.75	17.92
796.93	28.16
797.111	38.4
797.291	17.92
797.471	77.31
797.652	7.68
797.832	71.17
798.012	19.97
798.192	48.64
798.373	-68.09
798.553	-27.14
798.733	22.02
798.913	42.5
799.093	69.12
799.274	30.21
799.454	124.41
799.634	54.78
799.814	56.83
799.994	89.6
800.174	32.26
800.354	-8.7
800.534	-68.09
800.714	77.31
800.894	-53.76
801.074	-39.42
801.254	1.54
801.434	97.79
801.614	-2.56
801.794	-76.29
801.974	1619.43
802.154	17.92
802.334	124.41
802.514	5.63
802.693	-57.86
802.873	65.02
803.053	163.33
803.233	62.98
803.413	-8.7
803.592	-64
803.772	-47.62
803.952	42.5
804.131	-72.19
804.311	79.36
804.491	58.88
804.67	-33.28
804.85	-12.8
805.03	-10.75
805.209	91.65
805.389	-37.38
805.568	1.54
805.748	5.63
805.928	42.5
806.107	36.35
806.287	79.36
806.466	22.02
806.646	7.68
806.825	77.31
807.004	-2.56
807.184	67.07
807.363	122.37
807.543	138.75
807.722	-172.54
807.901	103.93
808.081	83.45
808.26	-41.47
808.439	71.17
808.619	22.02
808.798	-41.47
808.977	7.68
809.156	93.69
809.336	7.68
809.515	71.17
809.694	-100.86
809.873	-86.53
810.052	50.69
810.231	110.08
810.411	87.55
810.59	85.5
810.769	-55.81
810.948	60.93
811.127	-88.57
811.306	15.87
811.485	-76.29
811.664	75.26
811.843	-37.38
812.022	46.59
812.201	-72.19
812.38	26.11
812.559	-35.33
812.737	7.68
812.916	-55.81
813.095	-84.48
813.274	52.74
813.453	40.45
813.632	52.74
813.811	103.93
813.989	-86.53
814.168	87.55
814.347	-6.66
814.526	-109.05
814.704	167.42
814.883	122.37
815.062	-31.23
815.24	30.21
815.419	-18.94
815.598	73.21
815.776	-92.67
815.955	148.99
816.133	-117.25
816.312	54.78
816.49	50.69
816.669	38.4
816.847	32.26
817.026	56.83
817.204	-74.24
817.383	-25.09
817.561	-111.1
817.74	77.31
817.918	62.98
818.097	-18.94
818.275	-66.05
818.453	32.26
818.632	42.5
818.81	62.98
818.988	-74.24
819.167	-51.71
819.345	-2.56
819.523	-8.7
819.701	118.27
819.879	-37.38
820.058	11.78
820.236	22.02
820.414	32.26
820.592	1.54
820.77	9.73
820.948	-8.7
821.127	-61.95
821.305	-12.8
821.483	-39.42
821.661	69.12
821.839	22.02
822.017	-59.9
822.195	-82.43
822.373	69.12
822.551	71.17
822.729	67.07
822.907	-16.9
823.085	95.74
823.262	54.78
823.44	-16.9
823.618	32.26
823.796	-37.38
823.974	-16.9
824.152	-94.72
824.329	-27.14
824.507	-39.42
824.685	17.92
824.863	-25.09
825.04	-45.57
825.218	87.55
825.396	85.5
825.574	-45.57
825.751	-35.33
825.929	79.36
826.107	-20.99
826.284	-20.99
826.462	22.02
826.639	-88.57
826.817	-137.73
826.994	-80.38
827.172	-45.57
827.349	87.55
827.527	-4.61
827.704	54.78
827.882	73.21
828.059	34.3
828.237	-61.95
828.414	73.21
828.591	-96.77
828.769	-2.56
828.946	-76.29
829.124	118.27
829.301	220.67
829.478	-31.23
829.655	36.35
829.833	34.3
830.01	-127.49
830.187	24.06
830.364	-14.85
830.542	91.65
830.719	87.55
830.896	77.31
831.073	-20.99
831.25	48.64
831.427	48.64
831.604	-68.09
831.782	-72.19
831.959	56.83
832.136	-70.14
832.313	32.26
832.49	-59.9
832.667	34.3
832.844	22.02
833.021	65.02
833.198	-0.51
833.374	-57.86
833.551	22.02
833.728	-27.14
833.905	87.55
834.082	-49.66
834.259	34.3
834.436	83.45
834.612	-27.14
834.789	114.17
834.966	3.58
835.143	28.16
835.319	-29.18
835.496	36.35
835.673	32.26
835.85	48.64
836.026	103.93
836.203	52.74
836.38	9.73
836.556	-20.99
836.733	-33.28
836.909	132.61
837.086	-2.56
837.262	-96.77
837.439	-16.9
837.616	-35.33
837.792	5.63
837.968	-12.8
838.145	-123.39
838.321	26.11
838.498	77.31
838.674	48.64
838.851	40.45
839.027	-109.05
839.203	-72.19
839.38	-4.61
839.556	34.3
839.732	65.02
839.909	-76.29
840.085	9.73
840.261	-12.8
840.437	-6.66
840.614	-90.62
840.79	56.83
840.966	75.26
841.142	13.82
841.318	-2.56
841.494	-2.56
841.671	81.41
841.847	-43.52
842.023	-47.62
842.199	77.31
842.375	101.89
842.551	-139.77
842.727	-94.72
842.903	120.32
843.079	1.54
843.255	157.18
843.431	-14.85
843.607	65.02
843.783	-100.86
843.959	1.54
844.134	-18.94
844.31	87.55
844.486	-14.85
844.662	-18.94
844.838	-29.18
845.013	5.63
845.189	126.46
845.365	-0.51
845.541	-12.8
845.716	11.78
845.892	77.31
846.068	-37.38
846.244	-92.67
846.419	-14.85
846.595	19.97
846.77	-74.24
846.946	120.32
847.122	-76.29
847.297	-14.85
847.473	60.93
847.648	-96.77
847.824	15.87
847.999	13.82
848.175	-25.09
848.35	15.87
848.526	50.69
848.701	112.13
848.876	73.21
849.052	128.51
849.227	13.82
849.403	-25.09
849.578	-10.75
849.753	-10.75
849.929	24.06
850.104	-178.69
850.279	-2.56
850.454	28.16
850.63	65.02
850.805	54.78
850.98	-10.75
851.155	-70.14
851.33	17.92
851.505	-127.49
851.681	144.89
851.856	-0.51
852.031	-82.43
852.206	-49.66
852.381	-59.9
852.556	-37.38
852.731	75.26
852.906	46.59
853.081	24.06
853.256	132.61
853.431	-10.75
853.606	-100.86
853.781	-57.86
853.956	-137.73
854.131	-0.51
854.305	-74.24
854.48	-47.62
854.655	-31.23
854.83	-2.56
855.005	-51.71
855.18	62.98
855.354	-86.53
855.529	15.87
855.704	56.83
855.879	13.82
856.053	24.06
856.228	32.26
856.403	-154.11
856.577	13.82
856.752	-98.81
856.926	-6.66
857.101	54.78
857.276	-47.62
857.45	50.69
857.625	75.26
857.799	22.02
857.974	-100.86
858.148	-115.2
858.323	54.78
858.497	5.63
858.672	-20.99
858.846	-72.19
859.02	9.73
859.195	-43.52
859.369	-53.76
859.543	28.16
859.718	-39.42
859.892	46.59
860.066	-68.09
860.241	-37.38
860.415	-49.66
860.589	-84.48
860.763	11.78
860.938	-55.81
861.112	3.58
861.286	-31.23
861.46	36.35
861.634	32.26
861.808	67.07
861.982	-20.99
862.157	-14.85
862.331	7.68
862.505	-76.29
862.679	-61.95
862.853	9.73
863.027	-33.28
863.201	208.38
863.375	-37.38
863.549	30.21
863.722	52.74
863.896	85.5
864.07	-45.57
864.244	-2.56
864.418	19.97
864.592	1.54
864.766	5.63
864.939	-51.71
865.113	-27.14
865.287	32.26
865.461	-45.57
865.634	-23.04
865.808	-49.66
865.982	-57.86
866.156	-70.14
866.329	-121.34
866.503	30.21
866.676	36.35
866.85	-82.43
867.024	5.63
867.197	-2.56
867.371	67.07
867.544	36.35
867.718	-86.53
867.891	159.23
868.065	-121.34
868.238	75.26
868.412	114.17
868.585	71.17
868.759	-45.57
868.932	-33.28
869.105	-102.91
869.279	-4.61
869.452	-57.86
869.625	67.07
869.799	13.82
869.972	-92.67
870.145	-31.23
870.319	52.74
870.492	-20.99
870.665	28.16
870.838	-43.52
871.011	-68.09
871.185	-107.01
871.358	-29.18
871.531	42.5
871.704	-109.05
871.877	30.21
872.05	32.26
872.223	-86.53
872.396	17.92
872.569	9.73
872.742	-123.39
872.915	69.12
873.088	-55.81
873.261	-53.76
873.434	69.12
873.607	-61.95
873.78	132.61
873.953	-141.82
874.126	5.63
874.299	3.58
874.471	-25.09
874.644	17.92
874.817	50.69
874.99	85.5
875.163	-41.47
875.335	-25.09
875.508	-29.18
875.681	48.64
875.853	-76.29
876.026	-100.86
876.199	65.02
876.371	-51.71
876.544	-20.99
876.717	17.92
876.889	-55.81
877.062	15.87
877.234	11.78
877.407	-57.86
877.579	19.97
877.752	-0.51
877.924	42.5
878.097	-8.7
878.269	-6.66
878.442	13.82
878.614	38.4
878.786	-53.76
878.959	32.26
879.131	-0.51
879.303	-166.4
879.476	-66.05
879.648	-43.52
879.82	9.73
879.993	-25.09
880.165	-33.28
880.337	-100.86
880.509	73.21
880.681	-80.38
880.854	-131.58
881.026	40.45
881.198	187.9
881.37	-64
881.542	11.78
881.714	-33.28
881.886	-25.09
882.058	-14.85
882.23	-0.51
882.402	-8.7
882.574	48.64
882.746	89.6
882.918	89.6
883.09	-27.14
883.262	-72.19
883.434	-18.94
883.606	-74.24
883.778	-86.53
883.95	67.07
884.122	-55.81
884.293	85.5
884.465	11.78
884.637	114.17
884.809	-14.85
884.98	-2.56
885.152	38.4
885.324	-0.51
885.496	-33.28
885.667	-53.76
885.839	32.26
886.011	69.12
886.182	11.78
886.354	67.07
886.525	38.4
886.697	-14.85
886.869	-55.81
887.04	-92.67
887.212	144.89
887.383	134.65
887.555	5.63
887.726	-2.56
887.897	-20.99
888.069	-12.8
888.24	-0.51
888.412	-14.85
888.583	-104.96
888.754	-80.38
888.926	-78.33
889.097	-49.66
889.268	-27.14
889.44	-49.66
889.611	-45.57
889.782	-76.29
889.953	-12.8
890.125	114.17
890.296	-55.81
890.467	-55.81
890.638	9.73
890.809	-55.81
890.98	-51.71
891.151	1.54
891.323	32.26
891.494	26.11
891.665	-8.7
891.836	-12.8
892.007	101.89
892.178	40.45
892.349	-14.85
892.52	-45.57
892.691	42.5
892.862	-51.71
893.032	-51.71
893.203	-51.71
893.374	-82.43
893.545	67.07
893.716	-16.9
893.887	77.31
894.057	-55.81
894.228	-33.28
894.399	-39.42
894.57	183.81
894.74	7.68
894.911	5.63
895.082	-4.61
895.253	-113.15
895.423	9.73
895.594	103.93
895.764	5.63
895.935	48.64
896.106	69.12
896.276	1.54
896.447	42.5
896.617	-98.81
896.788	-135.68
896.958	-10.75
897.129	-39.42
897.299	-72.19
897.47	112.13
897.64	77.31
897.81	11.78
897.981	-6.66
898.151	-96.77
898.322	1.54
898.492	-10.75
898.662	-70.14
898.832	-43.52
899.003	-45.57
899.173	5.63
899.343	-141.82
899.513	-129.53
