Data from USB4F104151__51__10-25-37-432.txt Node

Date: Wed Feb 26 10:25:37 EST 2025
User: louis
Spectrometer: USB4F10415
Trigger mode: 4
Integration Time (sec): 1.000000E-1
Scans to average: 1
Electric dark correction enabled: true
Nonlinearity correction enabled: false
Boxcar width: 0
XAxis mode: Wavelengths
Number of Pixels in Spectrum: 3648
>>>>>Begin Spectral Data<<<<<
178.204	-310.1
178.424	-310.1
178.644	-310.1
178.864	-336.72
179.084	-453.45
179.304	-31.57
179.524	17.58
179.744	-11.09
179.964	52.39
180.184	66.73
180.404	9.39
180.624	-84.82
180.844	-23.38
181.064	-82.77
181.283	29.87
181.503	-21.33
181.723	79.02
181.943	-88.92
182.163	205.99
182.383	-39.76
182.602	74.92
182.822	199.85
183.042	101.55
183.262	74.92
183.482	11.43
183.701	-41.81
183.921	52.39
184.141	-25.43
184.361	156.84
184.58	95.4
184.8	33.96
185.02	31.91
185.239	83.11
185.459	99.5
185.679	173.22
185.898	-60.24
186.118	64.68
186.338	70.83
186.557	91.31
186.777	-68.44
186.997	33.96
187.216	25.77
187.436	234.66
187.655	60.59
187.875	91.31
188.095	87.21
188.314	95.4
188.534	83.11
188.753	-60.24
188.973	115.88
189.192	208.04
189.412	-88.92
189.631	1.19
189.851	136.36
190.07	210.09
190.29	-0.85
190.509	-37.72
190.729	74.92
190.948	191.66
191.168	214.18
191.387	-13.14
191.607	3.24
191.826	52.39
192.045	36.01
192.265	-0.85
192.484	-76.63
192.704	107.69
192.923	-58.2
193.142	124.07
193.362	72.87
193.581	197.8
193.8	68.78
194.02	117.93
194.239	46.25
194.458	89.26
194.678	93.35
194.897	54.44
195.116	142.5
195.335	81.07
195.555	62.63
195.774	66.73
195.993	79.02
196.212	38.06
196.432	19.63
196.651	-25.43
196.87	-29.52
197.089	201.9
197.308	48.3
197.528	25.77
197.747	-4.95
197.966	56.49
198.185	99.5
198.404	-58.2
198.623	50.35
198.842	62.63
199.062	119.98
199.281	103.59
199.5	13.48
199.719	89.26
199.938	-2.9
200.157	89.26
200.376	160.94
200.595	117.93
200.814	36.01
201.033	-11.09
201.252	101.55
201.471	85.16
201.69	105.64
201.909	85.16
202.128	105.64
202.347	111.78
202.566	-15.19
202.785	-88.92
203.004	11.43
203.223	240.81
203.442	25.77
203.661	-74.58
203.879	44.2
204.098	134.31
204.317	-52.05
204.536	107.69
204.755	66.73
204.974	130.22
205.193	27.82
205.411	148.65
205.63	101.55
205.849	70.83
206.068	-35.67
206.287	-93.01
206.505	85.16
206.724	38.06
206.943	36.01
207.162	-52.05
207.381	111.78
207.599	-31.57
207.818	27.82
208.037	7.34
208.255	5.29
208.474	-7
208.693	83.11
208.911	21.67
209.13	122.02
209.349	165.03
209.567	46.25
209.786	162.98
210.005	152.74
210.223	46.25
210.442	-136.02
210.661	-31.57
210.879	101.55
211.098	-17.24
211.316	134.31
211.535	97.45
211.753	62.63
211.972	31.91
212.191	5.29
212.409	-41.81
212.628	70.83
212.846	19.63
213.065	15.53
213.283	181.42
213.502	105.64
213.72	54.44
213.938	52.39
214.157	54.44
214.375	148.65
214.594	-15.19
214.812	156.84
215.031	62.63
215.249	60.59
215.467	62.63
215.686	52.39
215.904	144.55
216.122	99.5
216.341	109.74
216.559	1.19
216.778	31.91
216.996	79.02
217.214	54.44
217.432	-11.09
217.651	-56.15
217.869	9.39
218.087	99.5
218.306	-33.62
218.524	11.43
218.742	19.63
218.96	76.97
219.179	-9.05
219.397	-0.85
219.615	287.91
219.833	79.02
220.051	11.43
220.27	58.54
220.488	111.78
220.706	25.77
220.924	-13.14
221.142	-13.14
221.36	66.73
221.578	68.78
221.796	-17.24
222.015	7.34
222.233	85.16
222.451	156.84
222.669	-115.54
222.887	56.49
223.105	17.58
223.323	89.26
223.541	7.34
223.759	9.39
223.977	117.93
224.195	156.84
224.413	40.11
224.631	27.82
224.849	64.68
225.067	210.09
225.285	54.44
225.503	46.25
225.721	-111.44
225.939	93.35
226.157	105.64
226.375	226.47
226.592	11.43
226.81	-0.85
227.028	62.63
227.246	58.54
227.464	48.3
227.682	89.26
227.9	74.92
228.117	124.07
228.335	126.12
228.553	9.39
228.771	42.15
228.989	72.87
229.206	156.84
229.424	-17.24
229.642	52.39
229.86	-76.63
230.077	130.22
230.295	29.87
230.513	126.12
230.731	56.49
230.948	140.46
231.166	171.18
231.384	21.67
231.601	58.54
231.819	212.14
232.037	15.53
232.254	-52.05
232.472	-21.33
232.689	17.58
232.907	119.98
233.125	64.68
233.342	-17.24
233.56	5.29
233.777	74.92
233.995	5.29
234.213	87.21
234.43	52.39
234.648	56.49
234.865	56.49
235.083	89.26
235.3	58.54
235.518	19.63
235.735	85.16
235.953	101.55
236.17	154.79
236.388	-2.9
236.605	54.44
236.822	111.78
237.04	115.88
237.257	91.31
237.475	-21.33
237.692	15.53
237.909	56.49
238.127	56.49
238.344	31.91
238.562	52.39
238.779	-72.53
238.996	-56.15
239.214	23.72
239.431	103.59
239.648	-15.19
239.865	25.77
240.083	126.12
240.3	56.49
240.517	-13.14
240.735	72.87
240.952	220.33
241.169	97.45
241.386	1.19
241.603	52.39
241.821	-27.48
242.038	101.55
242.255	150.7
242.472	-2.9
242.689	126.12
242.907	124.07
243.124	85.16
243.341	13.48
243.558	-13.14
243.775	-41.81
243.992	-43.86
244.209	181.42
244.426	160.94
244.643	-2.9
244.86	21.67
245.078	81.07
245.295	60.59
245.512	33.96
245.729	-19.29
245.946	33.96
246.163	89.26
246.38	58.54
246.597	17.58
246.814	-2.9
247.031	21.67
247.248	46.25
247.464	44.2
247.681	68.78
247.898	19.63
248.115	91.31
248.332	-90.96
248.549	79.02
248.766	179.37
248.983	107.69
249.2	29.87
249.417	40.11
249.633	-35.67
249.85	38.06
250.067	44.2
250.284	46.25
250.501	5.29
250.717	136.36
250.934	-17.24
251.151	60.59
251.368	5.29
251.585	74.92
251.801	66.73
252.018	-50
252.235	113.83
252.451	17.58
252.668	105.64
252.885	130.22
253.102	46.25
253.318	19.63
253.535	9.39
253.752	-11.09
253.968	-7
254.185	44.2
254.401	40.11
254.618	44.2
254.835	11.43
255.051	126.12
255.268	99.5
255.484	44.2
255.701	15.53
255.917	52.39
256.134	-56.15
256.351	31.91
256.567	25.77
256.784	27.82
257	-127.83
257.217	101.55
257.433	-17.24
257.65	-0.85
257.866	115.88
258.082	-7
258.299	-33.62
258.515	56.49
258.732	-23.38
258.948	-88.92
259.165	109.74
259.381	-27.48
259.597	29.87
259.814	74.92
260.03	40.11
260.246	52.39
260.463	175.27
260.679	201.9
260.895	111.78
261.112	119.98
261.328	15.53
261.544	42.15
261.761	185.51
261.977	-17.24
262.193	-7
262.409	152.74
262.626	23.72
262.842	42.15
263.058	-80.72
263.274	138.41
263.49	58.54
263.707	107.69
263.923	111.78
264.139	-127.83
264.355	99.5
264.571	83.11
264.787	31.91
265.004	167.08
265.22	64.68
265.436	31.91
265.652	-29.52
265.868	79.02
266.084	-111.44
266.3	50.35
266.516	15.53
266.732	76.97
266.948	44.2
267.164	31.91
267.38	89.26
267.596	11.43
267.812	85.16
268.028	40.11
268.244	5.29
268.46	38.06
268.676	-31.57
268.892	58.54
269.108	-37.72
269.324	1.19
269.54	21.67
269.756	25.77
269.972	-70.48
270.188	103.59
270.403	-13.14
270.619	-47.96
270.835	87.21
271.051	17.58
271.267	13.48
271.483	13.48
271.698	124.07
271.914	64.68
272.13	103.59
272.346	17.58
272.562	83.11
272.777	107.69
272.993	-52.05
273.209	19.63
273.425	113.83
273.64	-64.34
273.856	103.59
274.072	7.34
274.287	5.29
274.503	113.83
274.719	97.45
274.934	54.44
275.15	-60.24
275.366	40.11
275.581	81.07
275.797	3.24
276.012	68.78
276.228	17.58
276.444	42.15
276.659	160.94
276.875	-31.57
277.09	72.87
277.306	-64.34
277.521	95.4
277.737	54.44
277.952	89.26
278.168	93.35
278.383	52.39
278.599	-4.95
278.814	50.35
279.03	-2.9
279.245	212.14
279.461	38.06
279.676	111.78
279.892	-15.19
280.107	11.43
280.322	11.43
280.538	54.44
280.753	5.29
280.969	60.59
281.184	-29.52
281.399	111.78
281.615	52.39
281.83	105.64
282.045	-90.96
282.26	-33.62
282.476	56.49
282.691	113.83
282.906	31.91
283.122	93.35
283.337	5.29
283.552	115.88
283.767	-0.85
283.983	132.26
284.198	13.48
284.413	93.35
284.628	-101.2
284.843	72.87
285.058	97.45
285.274	3.24
285.489	-37.72
285.704	167.08
285.919	-37.72
286.134	17.58
286.349	68.78
286.564	15.53
286.779	107.69
286.995	27.82
287.21	-31.57
287.425	62.63
287.64	15.53
287.855	132.26
288.07	1.19
288.285	138.41
288.5	138.41
288.715	38.06
288.93	29.87
289.145	-13.14
289.36	87.21
289.575	79.02
289.79	154.79
290.004	68.78
290.219	56.49
290.434	-17.24
290.649	-9.05
290.864	3.24
291.079	56.49
291.294	54.44
291.509	197.8
291.724	5.29
291.938	-25.43
292.153	97.45
292.368	-15.19
292.583	5.29
292.798	179.37
293.012	50.35
293.227	79.02
293.442	-0.85
293.657	130.22
293.871	169.13
294.086	54.44
294.301	156.84
294.516	105.64
294.73	68.78
294.945	-9.05
295.16	50.35
295.374	140.46
295.589	158.89
295.804	38.06
296.018	89.26
296.233	124.07
296.447	44.2
296.662	-21.33
296.877	46.25
297.091	52.39
297.306	-39.76
297.52	-2.9
297.735	54.44
297.949	40.11
298.164	5.29
298.378	7.34
298.593	13.48
298.807	29.87
299.022	68.78
299.236	109.74
299.451	-23.38
299.665	-0.85
299.88	74.92
300.094	107.69
300.309	48.3
300.523	50.35
300.737	29.87
300.952	-17.24
301.166	105.64
301.381	-13.14
301.595	17.58
301.809	42.15
302.024	-37.72
302.238	17.58
302.452	81.07
302.667	99.5
302.881	107.69
303.095	29.87
303.309	7.34
303.524	-17.24
303.738	40.11
303.952	-82.77
304.166	56.49
304.381	-93.01
304.595	132.26
304.809	1.19
305.023	23.72
305.237	44.2
305.452	-13.14
305.666	93.35
305.88	68.78
306.094	101.55
306.308	40.11
306.522	91.31
306.736	25.77
306.95	83.11
307.164	31.91
307.379	87.21
307.593	189.61
307.807	27.82
308.021	64.68
308.235	23.72
308.449	-60.24
308.663	42.15
308.877	242.85
309.091	17.58
309.305	58.54
309.519	-97.11
309.733	111.78
309.947	-90.96
310.161	38.06
310.374	91.31
310.588	46.25
310.802	-9.05
311.016	7.34
311.23	33.96
311.444	-76.63
311.658	-9.05
311.872	87.21
312.085	119.98
312.299	128.17
312.513	105.64
312.727	31.91
312.941	9.39
313.154	46.25
313.368	5.29
313.582	62.63
313.796	64.68
314.009	9.39
314.223	93.35
314.437	31.91
314.651	101.55
314.864	48.3
315.078	-23.38
315.292	23.72
315.505	42.15
315.719	93.35
315.933	66.73
316.146	-19.29
316.36	-2.9
316.573	101.55
316.787	56.49
317.001	25.77
317.214	-70.48
317.428	46.25
317.641	3.24
317.855	-15.19
318.068	74.92
318.282	138.41
318.495	132.26
318.709	68.78
318.922	-17.24
319.136	115.88
319.349	60.59
319.563	-11.09
319.776	113.83
319.99	-68.44
320.203	72.87
320.417	27.82
320.63	111.78
320.843	234.66
321.057	126.12
321.27	-15.19
321.483	138.41
321.697	197.8
321.91	85.16
322.124	58.54
322.337	101.55
322.55	-9.05
322.763	21.67
322.977	-35.67
323.19	-13.14
323.403	105.64
323.617	134.31
323.83	95.4
324.043	58.54
324.256	83.11
324.469	-15.19
324.683	156.84
324.896	87.21
325.109	33.96
325.322	-52.05
325.535	134.31
325.748	36.01
325.962	-84.82
326.175	74.92
326.388	21.67
326.601	48.3
326.814	48.3
327.027	15.53
327.24	199.85
327.453	-7
327.666	70.83
327.879	167.08
328.092	111.78
328.305	40.11
328.518	-2.9
328.731	-31.57
328.944	60.59
329.157	58.54
329.37	-72.53
329.583	187.56
329.796	107.69
330.009	-25.43
330.222	25.77
330.435	33.96
330.648	119.98
330.861	72.87
331.073	72.87
331.286	124.07
331.499	85.16
331.712	21.67
331.925	-4.95
332.138	33.96
332.35	126.12
332.563	5.29
332.776	128.17
332.989	-4.95
333.202	48.3
333.414	115.88
333.627	83.11
333.84	38.06
334.053	117.93
334.265	25.77
334.478	-31.57
334.691	-41.81
334.903	117.93
335.116	3.24
335.329	13.48
335.541	66.73
335.754	208.04
335.966	-19.29
336.179	15.53
336.392	5.29
336.604	19.63
336.817	111.78
337.029	169.13
337.242	40.11
337.454	83.11
337.667	3.24
337.88	91.31
338.092	66.73
338.305	60.59
338.517	7.34
338.729	74.92
338.942	64.68
339.154	-4.95
339.367	21.67
339.579	72.87
339.792	-9.05
340.004	132.26
340.217	-4.95
340.429	66.73
340.641	1.19
340.854	-17.24
341.066	-9.05
341.278	122.02
341.491	173.22
341.703	-7
341.915	-52.05
342.128	76.97
342.34	83.11
342.552	7.34
342.764	15.53
342.977	21.67
343.189	50.35
343.401	144.55
343.613	-21.33
343.826	74.92
344.038	29.87
344.25	66.73
344.462	42.15
344.674	64.68
344.886	48.3
345.099	44.2
345.311	46.25
345.523	7.34
345.735	-29.52
345.947	171.18
346.159	81.07
346.371	27.82
346.583	50.35
346.795	224.42
347.007	48.3
347.219	44.2
347.431	134.31
347.643	136.36
347.855	40.11
348.067	130.22
348.279	11.43
348.491	60.59
348.703	15.53
348.915	-41.81
349.127	17.58
349.339	-15.19
349.551	11.43
349.763	187.56
349.975	93.35
350.187	15.53
350.399	130.22
350.61	103.59
350.822	23.72
351.034	-15.19
351.246	105.64
351.458	64.68
351.669	122.02
351.881	111.78
352.093	107.69
352.305	68.78
352.517	117.93
352.728	83.11
352.94	79.02
353.152	99.5
353.363	-78.68
353.575	54.44
353.787	138.41
353.999	56.49
354.21	167.08
354.422	-27.48
354.633	109.74
354.845	-9.05
355.057	38.06
355.268	68.78
355.48	105.64
355.692	-41.81
355.903	-23.38
356.115	-35.67
356.326	-35.67
356.538	158.89
356.749	68.78
356.961	107.69
357.172	54.44
357.384	-115.54
357.595	240.81
357.807	13.48
358.018	-113.49
358.23	-0.85
358.441	191.66
358.653	46.25
358.864	19.63
359.075	70.83
359.287	101.55
359.498	31.91
359.709	31.91
359.921	31.91
360.132	72.87
360.344	72.87
360.555	17.58
360.766	58.54
360.977	66.73
361.189	97.45
361.4	1.19
361.611	40.11
361.823	93.35
362.034	-11.09
362.245	-70.48
362.456	-13.14
362.667	122.02
362.879	-76.63
363.09	89.26
363.301	1.19
363.512	25.77
363.723	-17.24
363.935	44.2
364.146	160.94
364.357	58.54
364.568	60.59
364.779	-70.48
364.99	210.09
365.201	-9.05
365.412	134.31
365.623	-45.91
365.834	62.63
366.045	54.44
366.256	48.3
366.467	134.31
366.678	13.48
366.889	144.55
367.1	15.53
367.311	144.55
367.522	-13.14
367.733	109.74
367.944	79.02
368.155	-50
368.366	68.78
368.577	162.98
368.788	105.64
368.999	-11.09
369.209	50.35
369.42	158.89
369.631	122.02
369.842	130.22
370.053	31.91
370.264	132.26
370.474	-27.48
370.685	70.83
370.896	5.29
371.107	54.44
371.317	21.67
371.528	-7
371.739	124.07
371.95	85.16
372.16	64.68
372.371	9.39
372.582	11.43
372.792	101.55
373.003	122.02
373.214	21.67
373.424	62.63
373.635	46.25
373.846	150.7
374.056	31.91
374.267	56.49
374.477	95.4
374.688	1.19
374.898	89.26
375.109	-0.85
375.319	46.25
375.53	7.34
375.74	99.5
375.951	-25.43
376.161	72.87
376.372	89.26
376.582	-27.48
376.793	64.68
377.003	-39.76
377.214	38.06
377.424	85.16
377.635	58.54
377.845	-4.95
378.055	179.37
378.266	-43.86
378.476	52.39
378.686	126.12
378.897	-33.62
379.107	76.97
379.317	42.15
379.528	-45.91
379.738	220.33
379.948	-45.91
380.158	136.36
380.369	122.02
380.579	115.88
380.789	29.87
380.999	89.26
381.21	130.22
381.42	183.46
381.63	52.39
381.84	122.02
382.05	68.78
382.261	128.17
382.471	148.65
382.681	-76.63
382.891	91.31
383.101	76.97
383.311	19.63
383.521	-25.43
383.731	27.82
383.941	115.88
384.151	42.15
384.361	-9.05
384.571	79.02
384.781	113.83
384.991	189.61
385.201	199.85
385.411	50.35
385.621	124.07
385.831	64.68
386.041	105.64
386.251	89.26
386.461	89.26
386.671	99.5
386.881	1.19
387.091	11.43
387.301	11.43
387.511	54.44
387.72	115.88
387.93	29.87
388.14	-4.95
388.35	91.31
388.56	85.16
388.769	85.16
388.979	66.73
389.189	11.43
389.399	50.35
389.609	95.4
389.818	109.74
390.028	46.25
390.238	109.74
390.447	3.24
390.657	124.07
390.867	95.4
391.076	27.82
391.286	101.55
391.496	29.87
391.705	60.59
391.915	107.69
392.125	109.74
392.334	13.48
392.544	191.66
392.753	74.92
392.963	-50
393.172	68.78
393.382	42.15
393.591	134.31
393.801	29.87
394.01	140.46
394.22	115.88
394.429	160.94
394.639	50.35
394.848	74.92
395.058	42.15
395.267	38.06
395.477	83.11
395.686	74.92
395.895	195.75
396.105	138.41
396.314	109.74
396.524	93.35
396.733	15.53
396.942	87.21
397.152	44.2
397.361	68.78
397.57	38.06
397.78	13.48
397.989	68.78
398.198	257.19
398.407	85.16
398.617	38.06
398.826	27.82
399.035	31.91
399.244	146.6
399.453	33.96
399.663	33.96
399.872	64.68
400.081	-54.1
400.29	130.22
400.499	-11.09
400.708	175.27
400.917	21.67
401.127	72.87
401.336	-37.72
401.545	156.84
401.754	97.45
401.963	56.49
402.172	54.44
402.381	-25.43
402.59	23.72
402.799	52.39
403.008	142.5
403.217	81.07
403.426	81.07
403.635	-58.2
403.844	107.69
404.053	17.58
404.262	33.96
404.471	158.89
404.68	70.83
404.888	31.91
405.097	48.3
405.306	128.17
405.515	107.69
405.724	76.97
405.933	124.07
406.142	93.35
406.35	126.12
406.559	126.12
406.768	31.91
406.977	95.4
407.185	60.59
407.394	156.84
407.603	-17.24
407.812	91.31
408.02	122.02
408.229	140.46
408.438	-7
408.646	-31.57
408.855	109.74
409.064	68.78
409.272	5.29
409.481	107.69
409.69	11.43
409.898	46.25
410.107	19.63
410.315	165.03
410.524	50.35
410.733	60.59
410.941	68.78
411.15	119.98
411.358	140.46
411.567	158.89
411.775	3.24
411.984	-54.1
412.192	46.25
412.401	1.19
412.609	193.7
412.818	101.55
413.026	27.82
413.234	-0.85
413.443	93.35
413.651	-64.34
413.86	60.59
414.068	79.02
414.276	224.42
414.485	7.34
414.693	175.27
414.901	185.51
415.11	138.41
415.318	81.07
415.526	76.97
415.734	142.5
415.943	27.82
416.151	179.37
416.359	-27.48
416.567	119.98
416.776	101.55
416.984	158.89
417.192	228.52
417.4	5.29
417.608	66.73
417.817	33.96
418.025	124.07
418.233	203.94
418.441	38.06
418.649	33.96
418.857	60.59
419.065	210.09
419.273	-2.9
419.481	46.25
419.689	36.01
419.897	21.67
420.105	-35.67
420.313	148.65
420.521	177.32
420.729	144.55
420.937	54.44
421.145	11.43
421.353	111.78
421.561	158.89
421.769	128.17
421.977	17.58
422.185	113.83
422.393	111.78
422.601	79.02
422.809	74.92
423.017	93.35
423.224	72.87
423.432	156.84
423.64	33.96
423.848	99.5
424.056	21.67
424.263	76.97
424.471	-2.9
424.679	148.65
424.887	1.19
425.094	150.7
425.302	128.17
425.51	23.72
425.718	56.49
425.925	134.31
426.133	54.44
426.341	201.9
426.548	83.11
426.756	58.54
426.964	185.51
427.171	56.49
427.379	83.11
427.586	58.54
427.794	126.12
428.001	144.55
428.209	109.74
428.417	101.55
428.624	246.95
428.832	144.55
429.039	68.78
429.247	76.97
429.454	132.26
429.662	232.62
429.869	134.31
430.076	179.37
430.284	136.36
430.491	195.75
430.699	99.5
430.906	242.85
431.114	214.18
431.321	83.11
431.528	89.26
431.736	58.54
431.943	214.18
432.15	267.43
432.358	154.79
432.565	294.05
432.772	97.45
432.979	234.66
433.187	58.54
433.394	265.38
433.601	119.98
433.808	255.14
434.016	314.53
434.223	294.05
434.43	246.95
434.637	328.87
434.844	367.78
435.052	257.19
435.259	273.57
435.466	310.44
435.673	341.16
435.88	326.82
436.087	404.64
436.294	386.21
436.501	388.26
436.708	396.45
436.915	257.19
437.122	418.98
437.329	335.01
437.537	363.69
437.743	435.36
437.95	498.85
438.157	398.5
438.364	427.17
438.571	513.19
438.778	435.36
438.985	574.63
439.192	541.86
439.399	564.39
439.606	502.95
439.813	605.35
440.02	736.42
440.227	685.22
440.433	552.1
440.64	685.22
440.847	576.67
441.054	728.22
441.261	728.22
441.467	806.05
441.674	660.64
441.881	779.42
442.088	722.08
442.294	720.03
442.501	885.92
442.708	883.87
442.914	910.49
443.121	924.83
443.328	949.4
443.534	1049.75
443.741	992.41
443.948	984.22
444.154	1107.1
444.361	1318.04
444.568	1141.91
444.774	1189.02
444.981	1066.14
445.187	1352.85
445.394	1234.07
445.6	1256.6
445.807	1551.51
446.013	1381.53
446.22	1449.11
446.426	1670.29
446.633	1737.87
446.839	1946.76
447.046	1645.71
447.252	1885.33
447.459	1864.85
447.665	1873.04
447.871	2202.76
448.078	2342.02
448.284	2176.14
448.491	2215.05
448.697	2333.83
448.903	2581.64
449.11	2495.62
449.316	2438.28
449.522	2663.55
449.728	2909.31
449.935	2872.45
450.141	2751.62
450.347	3046.52
450.553	2995.32
450.76	3159.16
450.966	3390.58
451.172	3300.47
451.378	3656.82
451.584	3644.53
451.791	3925.1
451.997	3947.63
452.203	3994.73
452.409	4459.62
452.615	4379.75
452.821	4355.18
453.027	4514.92
453.233	4996.19
453.44	4809.83
453.646	5014.62
453.852	5301.34
454.058	5704.79
454.264	5497.94
454.47	6194.25
454.676	6102.09
454.882	6532.17
455.088	6349.9
455.294	6542.41
455.5	6990.91
455.705	7509.05
455.911	7595.06
456.117	7713.84
456.323	7908.4
456.529	7904.31
456.735	8940.58
456.941	9002.02
457.147	9284.64
457.352	9339.93
457.558	9729.05
457.764	10501.13
457.97	10781.7
458.176	11088.9
458.381	11664.38
458.587	11637.75
458.793	12399.6
458.999	12434.41
459.204	14031.83
459.41	14265.3
459.616	14023.64
459.821	15002.57
460.027	15676.35
460.233	16321.46
460.438	16587.69
460.644	17404.83
460.85	17787.8
461.055	18287.51
461.261	19207.05
461.466	18740.11
461.672	18871.18
461.878	21298.02
462.083	21212.01
462.289	21699.42
462.494	22694.74
462.7	22696.78
462.905	22911.82
463.111	24484.66
463.316	26116.89
463.522	26680.08
463.727	27372.3
463.932	28347.13
464.138	29432.55
464.343	30311.13
464.549	30810.84
464.754	32928.44
464.959	33798.82
465.165	34333.34
465.37	33759.91
465.575	34144.93
465.781	36498.05
465.986	37509.74
466.191	36727.42
466.397	37274.23
466.602	36430.46
466.807	38083.17
467.012	39309.91
467.218	39375.44
467.423	39555.66
467.628	40589.89
467.833	42969.63
468.038	42148.39
468.244	41056.82
468.449	43217.43
468.654	42547.75
468.859	42469.92
469.064	42953.24
469.269	41394.74
469.474	41947.69
469.679	42801.69
469.885	41923.11
470.09	42160.68
470.295	42758.69
470.5	41658.93
470.705	41804.33
470.91	41005.62
471.115	40467.01
471.32	41095.74
471.525	40899.13
471.73	39705.16
471.935	39537.23
472.139	38091.37
472.344	38427.23
472.549	37974.63
472.754	37034.61
472.959	36469.37
473.164	35273.36
473.369	34540.19
473.574	35549.84
473.778	34960.02
473.983	34263.71
474.188	33890.98
474.393	31994.56
474.598	31795.91
474.802	31062.74
475.007	30978.77
475.212	30769.88
475.417	29326.06
475.621	29250.28
475.826	28775.16
476.031	28027.65
476.235	27796.23
476.44	27495.18
476.645	26802.96
476.849	26542.87
477.054	26250.01
477.259	25488.17
477.463	25742.11
477.668	24976.17
477.872	24939.31
478.077	24159.03
478.282	23259.98
478.486	23253.83
478.691	23120.71
478.895	22850.38
479.1	22444.88
479.304	22612.82
479.509	21738.33
479.713	22014.81
479.918	21470.05
480.122	21082.98
480.326	21517.15
480.531	21298.02
480.735	21154.66
480.94	20597.62
481.144	21281.64
481.348	20085.62
481.553	20329.33
481.757	19780.48
481.961	20007.8
482.166	19977.08
482.37	19807.1
482.574	19028.87
482.778	19444.61
482.983	19299.2
483.187	18951.05
483.391	19133.32
483.595	18819.98
483.8	18484.11
484.004	18494.35
484.208	18545.55
484.412	18174.87
484.616	17777.56
484.821	17675.16
485.025	17111.97
485.229	17402.79
485.433	17144.74
485.637	17177.51
485.841	16692.14
486.045	16487.34
486.249	16389.04
486.453	16030.65
486.657	15887.29
486.861	15776.7
487.065	15141.83
487.269	15317.95
487.473	14605.26
487.677	14869.45
487.881	14822.34
488.085	14341.07
488.289	13966.29
488.493	13628.38
488.697	13636.57
488.901	13421.53
489.105	13093.86
489.309	12819.43
489.512	12844.01
489.716	12379.12
489.92	12090.35
490.124	11912.18
490.328	11971.57
490.531	11252.73
490.735	11502.59
490.939	11154.43
491.143	10998.79
491.346	10558.47
491.55	10726.41
491.754	10365.96
491.958	10320.91
492.161	10064.91
492.365	9870.36
492.569	9790.49
492.772	9534.49
492.976	9497.63
493.18	9346.08
493.383	9239.58
493.587	9327.64
493.79	8995.87
493.994	8862.76
494.197	8688.68
494.401	8729.64
494.605	8557.61
494.808	8752.17
495.012	8641.57
495.215	8530.98
495.419	8487.98
495.622	8229.93
495.825	8350.76
496.029	8092.72
496.232	8203.31
496.436	7986.22
496.639	8258.6
496.843	7932.98
497.046	7965.75
497.249	8193.07
497.453	8055.86
497.656	8076.34
497.859	7969.84
498.063	8057.9
498.266	8029.23
498.469	7896.11
498.673	7877.68
498.876	8051.76
499.079	8004.66
499.282	7949.36
499.485	8268.84
499.689	8059.95
499.892	8193.07
500.095	8184.88
500.298	8481.83
500.501	8031.28
500.705	8313.9
500.908	8514.6
501.111	8401.96
501.314	8539.18
501.517	8698.92
501.72	8754.21
501.923	8633.38
502.126	8897.57
502.329	9102.37
502.532	8879.14
502.735	9051.17
502.938	9278.49
503.141	9464.86
503.344	9337.88
503.547	9571.35
503.75	9561.11
503.953	9571.35
504.156	9976.85
504.359	9788.44
504.562	10236.94
504.765	10255.37
504.968	10341.39
505.17	10429.45
505.373	10677.26
505.576	10980.36
505.779	10984.45
505.982	11000.83
506.185	11342.85
506.387	11387.9
506.59	11789.3
506.793	11906.04
506.996	12035.06
507.198	12276.72
507.401	12520.43
507.604	12749.8
507.807	13009.89
508.009	13310.94
508.212	13517.79
508.415	13835.22
508.617	13779.93
508.82	14107.6
509.022	14134.23
509.225	14977.99
509.428	15150.02
509.63	15252.42
509.833	15455.17
510.035	15877.05
510.238	16202.68
510.44	16446.38
510.643	17042.34
510.845	17132.45
511.048	17566.62
511.25	17779.61
511.453	18332.56
511.655	19071.88
511.858	19170.18
512.06	19608.45
512.262	19895.16
512.465	20403.06
512.667	20728.69
512.87	20953.96
513.072	21347.17
513.274	22260.57
513.477	22834
513.679	23294.79
513.881	23833.41
514.084	23915.33
514.286	24546.1
514.488	24873.78
514.69	26399.51
514.893	26540.82
515.095	26626.84
515.297	27519.75
515.499	27812.61
515.701	28068.61
515.904	29043.44
516.106	29588.2
516.308	30302.94
516.51	30814.93
516.712	31005.39
516.914	31935.17
517.116	32498.36
517.318	32875.19
517.52	33696.42
517.722	34044.58
517.925	34704.03
518.127	35549.84
518.329	35930.76
518.531	36063.88
518.733	37007.99
518.935	37565.04
519.136	38285.92
519.338	38861.4
519.54	38910.55
519.742	39987.78
519.944	40546.88
520.146	41159.22
520.348	41364.02
520.55	41921.07
520.752	42445.35
520.954	43072.03
521.155	42883.61
521.357	43969.04
521.559	44446.21
521.761	45128.19
521.963	45117.95
522.164	45642.23
522.366	46111.21
522.568	46588.39
522.77	46647.78
522.971	47587.8
523.173	46690.79
523.375	47657.43
523.576	47878.61
523.778	47808.98
523.98	48660.93
524.181	48468.42
524.383	48519.62
524.584	48683.46
524.786	48529.86
524.988	48783.81
525.189	49172.92
525.391	49504.7
525.592	48984.51
525.794	49131.96
525.995	49037.76
526.197	48691.65
526.398	48994.75
526.6	48828.87
526.801	48634.31
527.003	48683.46
527.204	48083.4
527.406	48484.81
527.607	47725.01
527.808	48206.28
528.01	46801.38
528.211	47282.65
528.412	47337.94
528.614	47120.86
528.815	46854.62
529.016	46731.75
529.218	45654.51
529.419	45541.88
529.62	45203.96
529.822	44724.74
530.023	44478.98
530.224	44096.01
530.425	43504.15
530.626	42766.88
530.828	42488.35
531.029	42533.41
531.23	41798.19
531.431	41144.89
531.632	40809.02
531.833	40407.62
532.035	39961.16
532.236	39346.77
532.437	39060.05
532.638	38527.58
532.839	38564.45
533.04	38005.35
533.241	37151.35
533.442	37200.5
533.643	36407.94
533.844	35861.13
534.045	35531.4
534.246	34671.26
534.447	34532
534.648	34122.4
534.849	33929.89
535.05	32950.96
535.251	32580.28
535.451	31853.25
535.652	31560.39
535.853	31312.59
536.054	30956.24
536.255	30636.76
536.456	29643.49
536.657	30079.71
536.857	29221.61
537.058	28605.17
537.259	28607.22
537.46	28203.77
537.66	27400.97
537.861	27493.13
538.062	27015.95
538.263	26510.1
538.463	26432.28
538.664	25969.44
538.865	25686.82
539.065	25606.95
539.266	24865.58
539.466	25131.82
539.667	24263.48
539.868	24408.89
540.068	23946.05
540.269	23630.66
540.469	23243.59
540.67	23188.3
540.87	22938.44
541.071	22473.56
541.271	22414.16
541.472	22192.98
541.672	21818.21
541.873	21267.3
542.073	20890.48
542.274	21076.84
542.474	20738.93
542.675	20378.48
542.875	20704.11
543.075	19993.47
543.276	19669.89
543.476	19981.18
543.676	19307.4
543.877	19309.44
544.077	19100.55
544.277	18815.88
544.478	18520.98
544.678	18514.83
544.878	18195.35
545.078	17765.28
545.279	17595.29
545.479	17453.98
545.679	17269.67
545.879	17159.08
546.079	16806.83
546.28	16661.42
546.48	16501.68
546.68	16372.66
546.88	16157.62
547.08	16018.36
547.28	15836.09
547.48	15500.22
547.68	15317.95
547.88	14912.46
548.081	15100.87
548.281	14672.84
548.481	14478.29
548.681	14683.08
548.881	14259.15
549.081	14341.07
549.28	13800.41
549.48	13851.61
549.68	13399.01
549.88	13407.2
550.08	13130.72
550.28	12960.74
550.48	12901.35
550.68	12801
550.88	12391.41
551.08	12479.47
551.279	12045.3
551.479	11838.45
551.679	11963.38
551.879	11631.61
552.079	11555.83
552.278	11283.45
552.478	11156.48
552.678	10949.64
552.878	10828.81
553.077	10537.99
553.277	10349.58
553.477	10603.53
553.676	10257.42
553.876	10052.63
554.076	9917.46
554.275	9788.44
554.475	9550.87
554.674	9667.61
554.874	9159.71
555.074	9042.98
555.273	8967.2
555.473	8997.92
555.672	8612.9
555.872	8481.83
556.071	8422.44
556.271	8393.77
556.47	8152.11
556.67	7924.79
556.869	7922.74
557.068	7838.77
557.268	7537.72
557.467	7449.66
557.667	7375.93
557.866	7351.35
558.065	7205.95
558.265	6974.53
558.464	6943.81
558.663	6876.23
558.863	6624.33
559.062	6659.14
559.261	6513.74
559.461	6442.06
559.66	6335.56
559.859	6093.9
560.058	6034.51
560.258	5919.82
560.457	5811.28
560.656	5846.1
560.855	5706.84
561.054	5844.05
561.253	5571.67
561.453	5543
561.652	5479.51
561.851	5358.68
562.05	5174.36
562.249	5057.63
562.448	5045.34
562.647	4930.66
562.846	4869.22
563.045	4969.57
563.244	4686.95
563.443	4840.54
563.642	4551.78
563.841	4682.85
564.04	4564.07
564.239	4545.64
564.438	4496.49
564.637	4322.41
564.836	4269.16
565.035	4080.75
565.234	4129.9
565.432	4142.19
565.631	3947.63
565.83	4058.22
566.029	3810.42
566.228	3839.09
566.427	3898.48
566.625	3566.71
566.824	3751.03
567.023	3685.49
567.222	3538.04
567.42	3548.28
567.619	3566.71
567.818	3533.94
568.016	3454.07
568.215	3462.26
568.414	3349.62
568.612	3249.27
568.811	3191.93
569.01	3132.54
569.208	3071.1
569.407	3144.83
569.605	3177.59
569.804	3044.48
570.002	2917.5
570.201	2903.17
570.4	2825.34
570.598	2843.78
570.797	2792.58
570.995	2684.03
571.193	2612.35
571.392	2657.41
571.59	2542.72
571.789	2692.23
571.987	2612.35
572.186	2716.8
572.384	2524.29
572.582	2436.23
572.781	2462.85
572.979	2329.74
573.177	2391.17
573.376	2296.97
573.574	2401.41
573.772	2266.25
573.971	2157.71
574.169	2057.36
574.367	2147.47
574.565	2159.75
574.763	2040.97
574.962	2086.03
575.16	1916.05
575.358	1916.05
575.556	1971.34
575.754	1907.85
575.952	1801.36
576.151	1854.61
576.349	1930.38
576.547	1662.1
576.745	1707.15
576.943	1830.03
577.141	1815.69
577.339	1569.94
577.537	1682.58
577.735	1791.12
577.933	1731.73
578.131	1442.96
578.329	1729.68
578.527	1563.79
578.725	1563.79
578.923	1522.84
579.121	1580.18
579.319	1219.74
579.516	1346.71
579.714	1580.18
579.912	1408.15
580.11	1193.11
580.308	1293.46
580.506	1262.74
580.704	1109.15
580.901	1293.46
581.099	1457.3
581.297	1270.94
581.495	1256.6
581.692	1191.06
581.89	1365.14
582.088	1174.68
582.285	1184.92
582.483	1103
582.681	1070.23
582.878	1105.05
583.076	1154.2
583.274	1055.9
583.471	1152.15
583.669	1094.81
583.866	1041.56
584.064	1080.47
584.262	883.87
584.459	871.58
584.657	1023.13
584.854	988.32
585.052	957.6
585.249	998.56
585.447	969.88
585.644	890.01
585.841	945.31
586.039	885.92
586.236	1029.27
586.434	857.25
586.631	836.77
586.828	789.66
587.026	830.62
587.223	777.37
587.42	789.66
587.618	765.09
587.815	789.66
588.012	785.57
588.21	767.13
588.407	795.81
588.604	859.29
588.801	771.23
588.999	816.29
589.196	795.81
589.393	709.79
589.59	779.42
589.787	769.18
589.984	717.98
590.182	760.99
590.379	543.91
590.576	717.98
590.773	685.22
590.97	789.66
591.167	656.54
591.364	717.98
591.561	617.63
591.758	742.56
591.955	693.41
592.152	672.93
592.349	656.54
592.546	699.55
592.743	629.92
592.94	711.84
593.137	662.69
593.334	826.53
593.531	693.41
593.727	779.42
593.924	631.97
594.121	662.69
594.318	597.15
594.515	801.95
594.712	810.14
594.908	865.44
595.105	644.26
595.302	687.26
595.499	789.66
595.696	822.43
595.892	707.74
596.089	826.53
596.286	726.18
596.482	924.83
596.679	826.53
596.876	756.9
597.072	943.26
597.269	898.2
597.466	957.6
597.662	937.12
597.859	898.2
598.055	887.97
598.252	1057.95
598.448	1084.57
598.645	1193.11
598.841	1131.67
599.038	1307.8
599.234	1324.18
599.431	1252.5
599.627	1348.76
599.824	1402.01
600.02	1361.05
600.217	1410.2
600.413	1442.96
600.609	1490.07
600.806	1809.55
601.002	1811.6
601.198	1674.39
601.395	1860.75
601.591	1881.23
601.787	1965.2
601.984	2077.83
602.18	2141.32
602.376	2155.66
602.572	2188.43
602.769	2368.65
602.965	2362.5
603.161	2577.54
603.357	2665.6
603.553	2759.81
603.75	2747.52
603.946	2739.33
604.142	2882.69
604.338	3228.79
604.534	3075.2
604.73	3234.94
604.926	3308.66
605.122	3552.37
605.318	3589.24
605.514	3921.01
605.71	3755.12
605.906	4070.51
606.102	3992.69
606.298	4144.24
606.494	4369.51
606.69	4435.05
606.886	4527.21
607.082	4650.08
607.278	4936.8
607.474	4899.94
607.67	5196.89
607.866	5110.88
608.062	5479.51
608.257	5604.44
608.453	5499.99
608.649	5895.25
608.845	5848.15
609.041	6200.4
609.236	6315.08
609.432	6687.81
609.628	6790.21
609.824	6954.05
610.019	7103.55
610.215	7244.86
610.411	7437.37
610.606	7765.04
610.802	7984.18
610.998	8041.52
611.193	8197.17
611.389	8299.56
611.584	8754.21
611.78	8754.21
611.976	9053.22
612.171	9341.98
612.367	9563.16
612.562	9982.99
612.758	10064.91
612.953	9931.8
613.149	10568.71
613.344	10869.76
613.539	11142.14
613.735	11590.65
613.93	11885.56
614.126	12080.11
614.321	12489.71
614.517	12755.94
614.712	12985.32
614.907	13380.57
615.103	13751.26
615.298	14070.74
615.493	14447.57
615.688	14721.99
615.884	15313.86
616.079	15367.1
616.274	15893.43
616.47	16235.44
616.665	16954.28
616.86	17177.51
617.055	17591.2
617.25	17922.97
617.445	18830.22
617.641	18764.68
617.836	19422.08
618.031	19471.23
618.226	20388.72
618.421	20740.97
618.616	21506.91
618.811	21433.19
619.006	22166.36
619.201	22614.87
619.396	23472.96
619.591	23384.9
619.786	24081.21
619.981	24564.53
620.176	25369.38
620.371	25391.91
620.566	26276.63
620.761	26968.85
620.956	27622.15
621.151	27779.84
621.346	28400.38
621.541	28713.72
621.735	29919.97
621.93	29426.41
622.125	30489.31
622.32	30880.47
622.515	32000.71
622.709	31914.69
622.904	33106.61
623.099	33288.88
623.294	34374.3
623.488	34450.08
623.683	35152.53
623.878	35369.61
624.072	36498.05
624.267	36717.18
624.462	37505.65
624.656	37921.38
624.851	38550.11
625.046	38582.88
625.24	39416.4
625.435	40010.31
625.629	40104.52
625.824	41267.76
626.018	41734.7
626.213	41321.01
626.407	42277.41
626.602	42695.2
626.796	43321.88
626.991	44075.53
627.185	44227.08
627.38	44618.24
627.574	44728.83
627.768	44595.71
627.963	44730.88
628.157	45343.22
628.352	45429.24
628.546	44894.72
628.74	45918.7
628.935	45666.8
629.129	45693.43
629.323	45212.15
629.517	45281.78
629.712	45232.63
629.906	44976.64
630.1	44173.83
630.294	44616.19
630.489	43151.9
630.683	43029.02
630.877	42332.71
631.071	41544.24
631.265	41206.33
631.459	40397.38
631.653	39283.28
631.848	38625.89
632.042	37794.41
632.236	36926.07
632.43	36203.14
632.624	35709.58
632.818	34079.39
633.012	32596.67
633.206	31994.56
633.4	31202
633.594	30036.7
633.788	29145.84
633.982	28205.82
634.176	27632.39
634.369	26137.37
634.563	25234.22
634.757	23931.71
634.951	23429.96
635.145	22778.7
635.339	21611.36
635.533	20644.72
635.726	20110.2
635.92	18965.39
636.114	18588.56
636.308	17642.4
636.501	17222.56
636.695	16298.93
636.889	15395.78
637.083	14787.53
637.276	14457.81
637.47	13741.02
637.664	13325.28
637.857	12725.22
638.051	12143.6
638.244	11707.38
638.438	11254.78
638.632	10720.26
638.825	10368.01
639.019	9907.22
639.212	9575.45
639.406	9225.25
639.599	8832.04
639.793	8594.47
639.986	8283.18
640.18	7935.03
640.373	7697.46
640.567	7242.81
640.76	7042.11
640.954	6880.32
641.147	6513.74
641.34	6034.51
641.534	6026.32
641.727	5835.86
641.92	5790.8
642.114	5284.95
642.307	5119.07
642.5	5026.91
642.694	4672.61
642.887	4801.63
643.08	4512.87
643.273	4392.04
643.467	4127.85
643.66	3964.01
643.853	3667.06
644.046	3710.07
644.239	3517.56
644.432	3431.54
644.626	3138.68
644.819	3257.46
645.012	3179.64
645.205	2931.84
645.398	2839.68
645.591	2653.31
645.784	2565.25
645.977	2473.09
646.17	2321.54
646.363	2346.12
646.556	2196.62
646.749	2061.45
646.942	2051.21
647.135	2063.5
647.328	1887.37
647.521	1905.81
647.714	1717.39
647.907	1821.84
648.099	1606.8
648.292	1602.71
648.485	1567.89
648.678	1504.4
648.871	1338.52
649.064	1322.13
649.256	1178.78
649.449	1268.89
649.642	1113.24
649.835	1123.48
650.027	1059.99
650.22	1232.02
650.413	1113.24
650.605	1090.71
650.798	953.5
650.991	933.02
651.183	920.73
651.376	939.16
651.568	906.4
651.761	793.76
651.954	832.67
652.146	834.72
652.339	801.95
652.531	842.91
652.724	607.39
652.916	615.59
653.109	488.61
653.301	711.84
653.494	695.46
653.686	648.35
653.879	691.36
654.071	668.83
654.263	578.72
654.456	500.9
654.648	525.47
654.84	545.95
655.033	529.57
655.225	617.63
655.417	357.54
655.61	531.62
655.802	576.67
655.994	564.39
656.186	347.3
656.379	504.99
656.571	371.88
656.763	328.87
656.955	373.92
657.148	349.35
657.34	443.56
657.532	416.93
657.724	347.3
657.916	324.77
658.108	425.12
658.3	470.18
658.492	386.21
658.684	205.99
658.876	429.22
659.068	171.18
659.26	265.38
659.452	273.57
659.644	351.4
659.836	375.97
660.028	302.25
660.22	238.76
660.412	224.42
660.604	226.47
660.796	279.72
660.988	314.53
661.18	312.49
661.372	328.87
661.563	267.43
661.755	253.09
661.947	148.65
662.139	216.23
662.331	228.52
662.522	175.27
662.714	269.48
662.906	199.85
663.097	210.09
663.289	124.07
663.481	130.22
663.673	210.09
663.864	171.18
664.056	193.7
664.247	138.41
664.439	222.38
664.631	165.03
664.822	251.05
665.014	195.75
665.205	74.92
665.397	117.93
665.588	158.89
665.78	197.8
665.971	259.24
666.163	226.47
666.354	119.98
666.546	113.83
666.737	152.74
666.929	72.87
667.12	148.65
667.311	222.38
667.503	89.26
667.694	140.46
667.885	146.6
668.077	197.8
668.268	52.39
668.459	93.35
668.651	124.07
668.842	175.27
669.033	74.92
669.224	60.59
669.416	306.34
669.607	144.55
669.798	146.6
669.989	216.23
670.18	277.67
670.371	115.88
670.563	64.68
670.754	265.38
670.945	197.8
671.136	195.75
671.327	83.11
671.518	216.23
671.709	210.09
671.9	220.33
672.091	251.05
672.282	42.15
672.473	144.55
672.664	105.64
672.855	81.07
673.046	205.99
673.237	238.76
673.428	46.25
673.619	185.51
673.809	52.39
674	273.57
674.191	189.61
674.382	103.59
674.573	154.79
674.764	156.84
674.954	246.95
675.145	40.11
675.336	126.12
675.527	56.49
675.717	113.83
675.908	167.08
676.099	122.02
676.289	201.9
676.48	58.54
676.671	115.88
676.861	126.12
677.052	142.5
677.243	105.64
677.433	97.45
677.624	267.43
677.814	169.13
678.005	195.75
678.195	259.24
678.386	72.87
678.576	128.17
678.767	122.02
678.957	191.66
679.148	144.55
679.338	246.95
679.529	216.23
679.719	40.11
679.909	236.71
680.1	134.31
680.29	132.26
680.481	79.02
680.671	230.57
680.861	189.61
681.052	158.89
681.242	105.64
681.432	208.04
681.622	29.87
681.813	87.21
682.003	79.02
682.193	191.66
682.383	201.9
682.573	142.5
682.764	85.16
682.954	218.28
683.144	185.51
683.334	119.98
683.524	165.03
683.714	167.08
683.904	154.79
684.094	136.36
684.284	187.56
684.474	330.92
684.664	253.09
684.854	171.18
685.044	195.75
685.234	171.18
685.424	271.53
685.614	128.17
685.804	294.05
685.994	208.04
686.184	195.75
686.374	212.14
686.564	199.85
686.753	191.66
686.943	152.74
687.133	162.98
687.323	203.94
687.513	156.84
687.702	107.69
687.892	183.46
688.082	146.6
688.272	224.42
688.461	220.33
688.651	275.62
688.841	199.85
689.03	115.88
689.22	138.41
689.41	210.09
689.599	259.24
689.789	115.88
689.979	353.45
690.168	205.99
690.358	289.96
690.547	183.46
690.737	230.57
690.926	259.24
691.116	212.14
691.305	298.15
691.495	265.38
691.684	169.13
691.874	103.59
692.063	181.42
692.252	253.09
692.442	197.8
692.631	146.6
692.82	203.94
693.01	130.22
693.199	201.9
693.388	167.08
693.578	197.8
693.767	208.04
693.956	144.55
694.146	212.14
694.335	240.81
694.524	187.56
694.713	255.14
694.902	201.9
695.092	160.94
695.281	152.74
695.47	152.74
695.659	111.78
695.848	130.22
696.037	115.88
696.226	150.7
696.415	232.62
696.604	216.23
696.793	271.53
696.982	150.7
697.171	306.34
697.36	189.61
697.549	195.75
697.738	66.73
697.927	122.02
698.116	144.55
698.305	160.94
698.494	177.32
698.683	117.93
698.872	304.29
699.061	201.9
699.25	179.37
699.438	230.57
699.627	138.41
699.816	285.86
700.005	23.72
700.193	162.98
700.382	216.23
700.571	156.84
700.76	195.75
700.948	271.53
701.137	150.7
701.326	181.42
701.514	81.07
701.703	179.37
701.892	232.62
702.08	437.41
702.269	169.13
702.457	154.79
702.646	169.13
702.834	138.41
703.023	257.19
703.212	244.9
703.4	232.62
703.589	162.98
703.777	128.17
703.965	119.98
704.154	162.98
704.342	154.79
704.531	165.03
704.719	101.55
704.907	201.9
705.096	154.79
705.284	70.83
705.472	167.08
705.661	285.86
705.849	162.98
706.037	269.48
706.226	124.07
706.414	97.45
706.602	105.64
706.79	150.7
706.979	144.55
707.167	191.66
707.355	19.63
707.543	128.17
707.731	242.85
707.919	185.51
708.107	97.45
708.296	115.88
708.484	107.69
708.672	201.9
708.86	144.55
709.048	160.94
709.236	105.64
709.424	208.04
709.612	220.33
709.8	64.68
709.988	171.18
710.176	228.52
710.364	269.48
710.551	136.36
710.739	111.78
710.927	109.74
711.115	255.14
711.303	175.27
711.491	230.57
711.679	158.89
711.866	236.71
712.054	74.92
712.242	171.18
712.43	154.79
712.617	130.22
712.805	279.72
712.993	101.55
713.181	50.35
713.368	193.7
713.556	177.32
713.744	171.18
713.931	302.25
714.119	244.9
714.306	222.38
714.494	167.08
714.682	187.56
714.869	91.31
715.057	173.22
715.244	150.7
715.432	228.52
715.619	117.93
715.807	111.78
715.994	124.07
716.182	193.7
716.369	224.42
716.556	171.18
716.744	87.21
716.931	109.74
717.119	210.09
717.306	76.97
717.493	269.48
717.681	230.57
717.868	109.74
718.055	201.9
718.242	165.03
718.43	230.57
718.617	324.77
718.804	183.46
718.991	162.98
719.179	216.23
719.366	261.29
719.553	292.01
719.74	244.9
719.927	249
720.114	160.94
720.301	138.41
720.488	76.97
720.676	177.32
720.863	242.85
721.05	328.87
721.237	185.51
721.424	232.62
721.611	119.98
721.798	162.98
721.985	175.27
722.172	251.05
722.358	191.66
722.545	300.2
722.732	283.81
722.919	322.73
723.106	273.57
723.293	273.57
723.48	269.48
723.667	212.14
723.853	265.38
724.04	298.15
724.227	244.9
724.414	119.98
724.6	279.72
724.787	461.99
724.974	468.13
725.161	203.94
725.347	222.38
725.534	199.85
725.72	255.14
725.907	259.24
726.094	294.05
726.28	226.47
726.467	226.47
726.653	130.22
726.84	410.79
727.027	386.21
727.213	197.8
727.4	267.43
727.586	273.57
727.773	269.48
727.959	257.19
728.145	234.66
728.332	283.81
728.518	160.94
728.705	302.25
728.891	267.43
729.077	259.24
729.264	216.23
729.45	199.85
729.636	302.25
729.823	236.71
730.009	273.57
730.195	273.57
730.382	310.44
730.568	257.19
730.754	318.63
730.94	220.33
731.126	236.71
731.313	195.75
731.499	271.53
731.685	341.16
731.871	347.3
732.057	267.43
732.243	335.01
732.429	304.29
732.615	363.69
732.801	330.92
732.987	242.85
733.173	201.9
733.359	224.42
733.545	240.81
733.731	246.95
733.917	375.97
734.103	363.69
734.289	353.45
734.475	240.81
734.661	398.5
734.847	310.44
735.033	296.1
735.219	322.73
735.404	160.94
735.59	236.71
735.776	294.05
735.962	322.73
736.148	267.43
736.333	324.77
736.519	242.85
736.705	169.13
736.89	255.14
737.076	283.81
737.262	230.57
737.447	320.68
737.633	222.38
737.819	318.63
738.004	320.68
738.19	214.18
738.375	304.29
738.561	451.75
738.747	326.82
738.932	218.28
739.118	484.52
739.303	330.92
739.489	332.97
739.674	275.62
739.859	220.33
740.045	326.82
740.23	320.68
740.416	113.83
740.601	273.57
740.786	369.83
740.972	251.05
741.157	273.57
741.342	195.75
741.528	167.08
741.713	300.2
741.898	246.95
742.084	242.85
742.269	326.82
742.454	302.25
742.639	363.69
742.824	330.92
743.01	339.11
743.195	384.16
743.38	287.91
743.565	294.05
743.75	226.47
743.935	365.73
744.12	330.92
744.305	152.74
744.49	314.53
744.675	251.05
744.86	234.66
745.045	361.64
745.23	177.32
745.415	257.19
745.6	347.3
745.785	236.71
745.97	382.12
746.155	339.11
746.34	332.97
746.525	259.24
746.71	378.02
746.895	259.24
747.079	208.04
747.264	230.57
747.449	314.53
747.634	275.62
747.819	285.86
748.003	216.23
748.188	320.68
748.373	367.78
748.557	328.87
748.742	300.2
748.927	269.48
749.111	220.33
749.296	224.42
749.481	361.64
749.665	232.62
749.85	244.9
750.034	302.25
750.219	218.28
750.404	259.24
750.588	257.19
750.773	251.05
750.957	218.28
751.141	249
751.326	345.25
751.51	171.18
751.695	189.61
751.879	214.18
752.064	318.63
752.248	171.18
752.432	390.31
752.617	361.64
752.801	285.86
752.985	218.28
753.17	347.3
753.354	251.05
753.538	203.94
753.722	167.08
753.907	214.18
754.091	218.28
754.275	263.33
754.459	214.18
754.643	144.55
754.828	253.09
755.012	249
755.196	76.97
755.38	160.94
755.564	138.41
755.748	238.76
755.932	255.14
756.116	212.14
756.3	249
756.484	138.41
756.668	212.14
756.852	122.02
757.036	124.07
757.22	144.55
757.404	162.98
757.588	21.67
757.772	228.52
757.956	216.23
758.14	320.68
758.323	76.97
758.507	267.43
758.691	148.65
758.875	265.38
759.059	218.28
759.242	128.17
759.426	228.52
759.61	240.81
759.794	115.88
759.977	203.94
760.161	402.6
760.345	335.01
760.528	265.38
760.712	214.18
760.895	212.14
761.079	183.46
761.263	150.7
761.446	72.87
761.63	111.78
761.813	246.95
761.997	52.39
762.18	179.37
762.364	242.85
762.547	19.63
762.731	101.55
762.914	191.66
763.098	158.89
763.281	93.35
763.464	72.87
763.648	183.46
763.831	83.11
764.015	60.59
764.198	201.9
764.381	74.92
764.564	126.12
764.748	156.84
764.931	199.85
765.114	91.31
765.297	210.09
765.481	56.49
765.664	117.93
765.847	128.17
766.03	226.47
766.213	58.54
766.397	146.6
766.58	44.2
766.763	193.7
766.946	113.83
767.129	56.49
767.312	138.41
767.495	105.64
767.678	70.83
767.861	117.93
768.044	138.41
768.227	76.97
768.41	140.46
768.593	119.98
768.776	91.31
768.959	148.65
769.142	216.23
769.324	95.4
769.507	101.55
769.69	72.87
769.873	119.98
770.056	298.15
770.239	54.44
770.421	165.03
770.604	148.65
770.787	177.32
770.97	79.02
771.152	83.11
771.335	130.22
771.518	93.35
771.7	179.37
771.883	183.46
772.066	58.54
772.248	122.02
772.431	203.94
772.613	265.38
772.796	29.87
772.978	189.61
773.161	205.99
773.343	142.5
773.526	48.3
773.708	-25.43
773.891	74.92
774.073	89.26
774.256	60.59
774.438	228.52
774.621	-29.52
774.803	158.89
774.985	29.87
775.168	183.46
775.35	-15.19
775.532	167.08
775.715	21.67
775.897	162.98
776.079	165.03
776.261	109.74
776.444	76.97
776.626	40.11
776.808	58.54
776.99	15.53
777.173	103.59
777.355	107.69
777.537	130.22
777.719	-31.57
777.901	91.31
778.083	56.49
778.265	-33.62
778.447	142.5
778.629	40.11
778.811	105.64
778.993	144.55
779.175	138.41
779.357	58.54
779.539	27.82
779.721	40.11
779.903	181.42
780.085	87.21
780.267	97.45
780.449	83.11
780.631	191.66
780.812	136.36
780.994	13.48
781.176	79.02
781.358	13.48
781.54	-7
781.721	122.02
781.903	148.65
782.085	-54.1
782.267	122.02
782.448	-0.85
782.63	-7
782.812	70.83
782.993	70.83
783.175	134.31
783.357	70.83
783.538	126.12
783.72	-9.05
783.901	-47.96
784.083	134.31
784.264	103.59
784.446	17.58
784.627	13.48
784.809	103.59
784.99	36.01
785.172	150.7
785.353	70.83
785.535	76.97
785.716	-11.09
785.897	-21.33
786.079	38.06
786.26	76.97
786.441	113.83
786.623	-113.49
786.804	31.91
786.985	-31.57
787.167	142.5
787.348	81.07
787.529	52.39
787.71	136.36
787.891	5.29
788.073	42.15
788.254	-74.58
788.435	115.88
788.616	25.77
788.797	-68.44
788.978	40.11
789.159	23.72
789.34	113.83
789.522	-15.19
789.703	-9.05
789.884	21.67
790.065	27.82
790.246	203.94
790.427	19.63
790.607	230.57
790.788	181.42
790.969	-13.14
791.15	150.7
791.331	33.96
791.512	-29.52
791.693	-37.72
791.874	-11.09
792.054	144.55
792.235	144.55
792.416	11.43
792.597	25.77
792.778	179.37
792.958	134.31
793.139	54.44
793.32	21.67
793.5	-7
793.681	89.26
793.862	81.07
794.042	68.78
794.223	-43.86
794.404	66.73
794.584	-119.64
794.765	70.83
794.945	58.54
795.126	50.35
795.306	111.78
795.487	62.63
795.667	-56.15
795.848	33.96
796.028	23.72
796.209	44.2
796.389	103.59
796.57	23.72
796.75	3.24
796.93	-11.09
797.111	-19.29
797.291	66.73
797.471	74.92
797.652	3.24
797.832	1.19
798.012	29.87
798.192	46.25
798.373	-58.2
798.553	-62.29
798.733	87.21
798.913	-31.57
799.093	-21.33
799.274	42.15
799.454	87.21
799.634	62.63
799.814	89.26
799.994	79.02
800.174	91.31
800.354	54.44
800.534	-15.19
800.714	74.92
800.894	-47.96
801.074	-43.86
801.254	-9.05
801.434	31.91
801.614	-17.24
801.794	-56.15
801.974	1512.6
802.154	-60.24
802.334	132.26
802.514	-62.29
802.693	-107.35
802.873	-2.9
803.053	136.36
803.233	122.02
803.413	58.54
803.592	-21.33
803.772	-88.92
803.952	40.11
804.131	-29.52
804.311	132.26
804.491	85.16
804.67	-62.29
804.85	-35.67
805.03	64.68
805.209	154.79
805.389	33.96
805.568	17.58
805.748	19.63
805.928	-13.14
806.107	79.02
806.287	13.48
806.466	-27.48
806.646	36.01
806.825	21.67
807.004	-11.09
807.184	60.59
807.363	105.64
807.543	79.02
807.722	-60.24
807.901	107.69
808.081	105.64
808.26	-97.11
808.439	48.3
808.619	-29.52
808.798	-35.67
808.977	44.2
809.156	56.49
809.336	13.48
809.515	105.64
809.694	-17.24
809.873	31.91
810.052	15.53
810.231	103.59
810.411	40.11
810.59	46.25
810.769	33.96
810.948	40.11
811.127	-60.24
811.306	-11.09
811.485	54.44
811.664	76.97
811.843	21.67
812.022	-33.62
812.201	27.82
812.38	1.19
812.559	-72.53
812.737	97.45
812.916	-70.48
813.095	-68.44
813.274	64.68
813.453	40.11
813.632	89.26
813.811	-2.9
813.989	-90.96
814.168	36.01
814.347	-64.34
814.526	-13.14
814.704	128.17
814.883	109.74
815.062	-60.24
815.24	62.63
815.419	17.58
815.598	7.34
815.776	-41.81
815.955	5.29
816.133	-152.4
816.312	50.35
816.49	13.48
816.669	33.96
816.847	31.91
817.026	3.24
817.204	5.29
817.383	56.49
817.561	-78.68
817.74	-2.9
817.918	27.82
818.097	-13.14
818.275	-111.44
818.453	89.26
818.632	70.83
818.81	-11.09
818.988	-17.24
819.167	-13.14
819.345	-25.43
819.523	-25.43
819.701	50.35
819.879	-29.52
820.058	70.83
820.236	68.78
820.414	11.43
820.592	-11.09
820.77	1.19
820.948	-86.87
821.127	-41.81
821.305	-33.62
821.483	7.34
821.661	52.39
821.839	-82.77
822.017	58.54
822.195	46.25
822.373	95.4
822.551	21.67
822.729	7.34
822.907	-78.68
823.085	91.31
823.262	64.68
823.44	19.63
823.618	1.19
823.796	36.01
823.974	7.34
824.152	-9.05
824.329	99.5
824.507	60.59
824.685	142.5
824.863	9.39
825.04	3.24
825.218	103.59
825.396	93.35
825.574	-13.14
825.751	15.53
825.929	27.82
826.107	-90.96
826.284	-17.24
826.462	64.68
826.639	-64.34
826.817	-66.39
826.994	17.58
827.172	-76.63
827.349	52.39
827.527	66.73
827.704	74.92
827.882	17.58
828.059	-13.14
828.237	-54.1
828.414	17.58
828.591	-47.96
828.769	48.3
828.946	-54.1
829.124	117.93
829.301	56.49
829.478	29.87
829.655	115.88
829.833	19.63
830.01	-93.01
830.187	52.39
830.364	36.01
830.542	-45.91
830.719	36.01
830.896	60.59
831.073	70.83
831.25	-11.09
831.427	62.63
831.604	87.21
831.782	79.02
831.959	38.06
832.136	-72.53
832.313	25.77
832.49	-45.91
832.667	52.39
832.844	-0.85
833.021	138.41
833.198	48.3
833.374	1.19
833.551	-4.95
833.728	21.67
833.905	-37.72
834.082	-115.54
834.259	-2.9
834.436	130.22
834.612	-84.82
834.789	122.02
834.966	7.34
835.143	66.73
835.319	-66.39
835.496	44.2
835.673	46.25
835.85	60.59
836.026	23.72
836.203	111.78
836.38	-60.24
836.556	-17.24
836.733	11.43
836.909	154.79
837.086	52.39
837.262	-62.29
837.439	-47.96
837.616	27.82
837.792	27.82
837.968	64.68
838.145	-60.24
838.321	-29.52
838.498	-13.14
838.674	74.92
838.851	42.15
839.027	-33.62
839.203	-2.9
839.38	46.25
839.556	21.67
839.732	74.92
839.909	-25.43
840.085	17.58
840.261	-129.88
840.437	76.97
840.614	-45.91
840.79	85.16
840.966	3.24
841.142	-11.09
841.318	-68.44
841.494	31.91
841.671	64.68
841.847	-78.68
842.023	-47.96
842.199	48.3
842.375	68.78
842.551	-25.43
842.727	-43.86
842.903	191.66
843.079	-72.53
843.255	36.01
843.431	-47.96
843.607	60.59
843.783	-103.25
843.959	9.39
844.134	-29.52
844.31	115.88
844.486	-31.57
844.662	-66.39
844.838	21.67
845.013	-9.05
845.189	93.35
845.365	56.49
845.541	-52.05
845.716	15.53
845.892	68.78
846.068	36.01
846.244	-117.59
846.419	-33.62
846.595	-68.44
846.77	-11.09
846.946	81.07
847.122	-27.48
847.297	11.43
847.473	109.74
847.648	-138.07
847.824	-27.48
847.999	-179.03
848.175	33.96
848.35	-45.91
848.526	85.16
848.701	87.21
848.876	66.73
849.052	101.55
849.227	-76.63
849.403	-25.43
849.578	-23.38
849.753	-7
849.929	56.49
850.104	-97.11
850.279	72.87
850.454	74.92
850.63	15.53
850.805	87.21
850.98	56.49
851.155	9.39
851.33	9.39
851.505	-39.76
851.681	91.31
851.856	-111.44
852.031	60.59
852.206	-43.86
852.381	-109.4
852.556	-31.57
852.731	-19.29
852.906	9.39
853.081	15.53
853.256	122.02
853.431	9.39
853.606	3.24
853.781	15.53
853.956	-78.68
854.131	101.55
854.305	38.06
854.48	-37.72
854.655	-84.82
854.83	27.82
855.005	9.39
855.18	76.97
855.354	36.01
855.529	44.2
855.704	33.96
855.879	29.87
856.053	-33.62
856.228	21.67
856.403	-66.39
856.577	68.78
856.752	-78.68
856.926	-2.9
857.101	52.39
857.276	-127.83
857.45	-21.33
857.625	62.63
857.799	-45.91
857.974	-54.1
858.148	-117.59
858.323	36.01
858.497	-39.76
858.672	-52.05
858.846	-35.67
859.02	89.26
859.195	-64.34
859.369	-2.9
859.543	-54.1
859.718	44.2
859.892	-50
860.066	76.97
860.241	7.34
860.415	-7
860.589	-31.57
860.763	56.49
860.938	54.44
861.112	17.58
861.286	-25.43
861.46	52.39
861.634	-50
861.808	17.58
861.982	-74.58
862.157	-58.2
862.331	31.91
862.505	-82.77
862.679	-152.4
862.853	-15.19
863.027	-64.34
863.201	126.12
863.375	-2.9
863.549	31.91
863.722	5.29
863.896	40.11
864.07	-29.52
864.244	-84.82
864.418	-13.14
864.592	68.78
864.766	-27.48
864.939	36.01
865.113	-43.86
865.287	99.5
865.461	-86.87
865.634	17.58
865.808	-35.67
865.982	9.39
866.156	-37.72
866.329	5.29
866.503	-25.43
866.676	58.54
866.85	33.96
867.024	-37.72
867.197	31.91
867.371	99.5
867.544	56.49
867.718	-142.16
867.891	109.74
868.065	-125.78
868.238	109.74
868.412	74.92
868.585	48.3
868.759	-35.67
868.932	-45.91
869.105	11.43
869.279	-13.14
869.452	-60.24
869.625	7.34
869.799	-21.33
869.972	-84.82
870.145	1.19
870.319	42.15
870.492	-97.11
870.665	11.43
870.838	-41.81
871.011	-76.63
871.185	19.63
871.358	-43.86
871.531	-7
871.704	-68.44
871.877	62.63
872.05	-7
872.223	-47.96
872.396	70.83
872.569	-7
872.742	-123.73
872.915	-31.57
873.088	-7
873.261	-76.63
873.434	25.77
873.607	-13.14
873.78	62.63
873.953	-97.11
874.126	15.53
874.299	11.43
874.471	-45.91
874.644	17.58
874.817	52.39
874.99	134.31
875.163	-58.2
875.335	33.96
875.508	19.63
875.681	81.07
875.853	-0.85
876.026	50.35
876.199	56.49
876.371	31.91
876.544	-27.48
876.717	7.34
876.889	36.01
877.062	-2.9
877.234	-68.44
877.407	-17.24
877.579	-25.43
877.752	-47.96
877.924	-15.19
878.097	81.07
878.269	64.68
878.442	-0.85
878.614	42.15
878.786	19.63
878.959	-11.09
879.131	52.39
879.303	-113.49
879.476	-13.14
879.648	83.11
879.82	-27.48
879.993	11.43
880.165	17.58
880.337	-101.2
880.509	-23.38
880.681	13.48
880.854	-107.35
881.026	36.01
881.198	158.89
881.37	-7
881.542	33.96
881.714	-15.19
881.886	-4.95
882.058	33.96
882.23	33.96
882.402	-43.86
882.574	-17.24
882.746	103.59
882.918	105.64
883.09	33.96
883.262	-9.05
883.434	36.01
883.606	-95.06
883.778	48.3
883.95	109.74
884.122	-17.24
884.293	17.58
884.465	-19.29
884.637	46.25
884.809	-15.19
884.98	29.87
885.152	38.06
885.324	68.78
885.496	-50
885.667	-101.2
885.839	7.34
886.011	15.53
886.182	-2.9
886.354	-9.05
886.525	-13.14
886.697	9.39
886.869	-27.48
887.04	-70.48
887.212	52.39
887.383	91.31
887.555	15.53
887.726	-31.57
887.897	-43.86
888.069	-25.43
888.24	54.44
888.412	-25.43
888.583	-21.33
888.754	25.77
888.926	-78.68
889.097	-2.9
889.268	-78.68
889.44	15.53
889.611	-66.39
889.782	-115.54
889.953	-97.11
890.125	101.55
890.296	-90.96
890.467	-2.9
890.638	-15.19
890.809	-0.85
890.98	7.34
891.151	-7
891.323	64.68
891.494	15.53
891.665	-60.24
891.836	23.72
892.007	40.11
892.178	-7
892.349	33.96
892.52	-60.24
892.691	23.72
892.862	-39.76
893.032	-82.77
893.203	-39.76
893.374	-17.24
893.545	23.72
893.716	17.58
893.887	66.73
894.057	-70.48
894.228	97.45
894.399	-78.68
894.57	117.93
894.74	27.82
894.911	68.78
895.082	-123.73
895.253	-50
895.423	-0.85
895.594	93.35
895.764	119.98
895.935	-101.2
896.106	15.53
896.276	-72.53
896.447	9.39
896.617	-105.3
896.788	-54.1
896.958	-82.77
897.129	7.34
897.299	-37.72
897.47	154.79
897.64	36.01
897.81	-78.68
897.981	25.77
898.151	-19.29
898.322	11.43
898.492	-23.38
898.662	-95.06
898.832	-76.63
899.003	-101.2
899.173	66.73
899.343	-23.38
899.513	-80.72
