Data from USB4F104151__29__10-24-16-042.txt Node

Date: Wed Feb 26 10:24:16 EST 2025
User: louis
Spectrometer: USB4F10415
Trigger mode: 4
Integration Time (sec): 1.000000E-1
Scans to average: 1
Electric dark correction enabled: true
Nonlinearity correction enabled: false
Boxcar width: 0
XAxis mode: Wavelengths
Number of Pixels in Spectrum: 3648
>>>>>Begin Spectral Data<<<<<
178.204	-399.87
178.424	-399.87
178.644	-399.87
178.864	-365.05
179.084	-336.38
179.304	-29.18
179.524	-37.38
179.744	-10.75
179.964	9.73
180.184	34.3
180.404	5.63
180.624	-53.76
180.844	87.55
181.064	-74.24
181.283	15.87
181.503	-29.18
181.723	81.41
181.943	-113.15
182.163	185.85
182.383	-12.8
182.602	48.64
182.822	187.9
183.042	200.19
183.262	-76.29
183.482	38.4
183.701	-31.23
183.921	-0.51
184.141	-39.42
184.361	140.8
184.58	130.56
184.8	65.02
185.02	-70.14
185.239	171.52
185.459	56.83
185.679	177.66
185.898	-94.72
186.118	50.69
186.338	50.69
186.557	134.65
186.777	-78.33
186.997	15.87
187.216	50.69
187.436	214.52
187.655	62.98
187.875	130.56
188.095	95.74
188.314	65.02
188.534	128.51
188.753	-4.61
188.973	128.51
189.192	181.76
189.412	-25.09
189.631	-35.33
189.851	81.41
190.07	126.46
190.29	-41.47
190.509	56.83
190.729	87.55
190.948	171.52
191.168	247.29
191.387	58.88
191.607	48.64
191.826	44.54
192.045	-4.61
192.265	11.78
192.484	52.74
192.704	30.21
192.923	-20.99
193.142	185.85
193.362	110.08
193.581	110.08
193.8	56.83
194.02	62.98
194.239	40.45
194.458	134.65
194.678	19.97
194.897	-61.95
195.116	44.54
195.335	22.02
195.555	87.55
195.774	-18.94
195.993	97.79
196.212	69.12
196.432	-2.56
196.651	67.07
196.87	26.11
197.089	189.95
197.308	75.26
197.528	24.06
197.747	-102.91
197.966	97.79
198.185	151.04
198.404	7.68
198.623	159.23
198.842	83.45
199.062	105.98
199.281	110.08
199.5	24.06
199.719	194.05
199.938	34.3
200.157	48.64
200.376	157.18
200.595	122.37
200.814	97.79
201.033	-25.09
201.252	134.65
201.471	79.36
201.69	71.17
201.909	95.74
202.128	116.22
202.347	132.61
202.566	-31.23
202.785	-51.71
203.004	-53.76
203.223	157.18
203.442	-70.14
203.661	26.11
203.879	24.06
204.098	118.27
204.317	-12.8
204.536	105.98
204.755	198.14
204.974	126.46
205.193	28.16
205.411	155.13
205.63	120.32
205.849	128.51
206.068	-39.42
206.287	-20.99
206.505	124.41
206.724	-0.51
206.943	-2.56
207.162	19.97
207.381	89.6
207.599	83.45
207.818	73.21
208.037	-39.42
208.255	-4.61
208.474	56.83
208.693	26.11
208.911	22.02
209.13	67.07
209.349	122.37
209.567	56.83
209.786	28.16
210.005	62.98
210.223	60.93
210.442	-150.01
210.661	-16.9
210.879	58.88
211.098	54.78
211.316	-20.99
211.535	48.64
211.753	3.58
211.972	77.31
212.191	3.58
212.409	36.35
212.628	77.31
212.846	30.21
213.065	110.08
213.283	62.98
213.502	58.88
213.72	-18.94
213.938	44.54
214.157	34.3
214.375	28.16
214.594	-20.99
214.812	85.5
215.031	42.5
215.249	52.74
215.467	73.21
215.686	13.82
215.904	9.73
216.122	71.17
216.341	97.79
216.559	79.36
216.778	181.76
216.996	167.42
217.214	65.02
217.432	-31.23
217.651	-49.66
217.869	75.26
218.087	32.26
218.306	-16.9
218.524	40.45
218.742	-29.18
218.96	208.38
219.179	44.54
219.397	97.79
219.615	208.38
219.833	151.04
220.051	-0.51
220.27	130.56
220.488	165.37
220.706	126.46
220.924	-25.09
221.142	19.97
221.36	60.93
221.578	97.79
221.796	101.89
222.015	101.89
222.233	36.35
222.451	181.76
222.669	-47.62
222.887	89.6
223.105	-23.04
223.323	65.02
223.541	-0.51
223.759	69.12
223.977	52.74
224.195	165.37
224.413	103.93
224.631	40.45
224.849	91.65
225.067	216.57
225.285	17.92
225.503	44.54
225.721	-98.81
225.939	-20.99
226.157	19.97
226.375	163.33
226.592	1.54
226.81	65.02
227.028	50.69
227.246	157.18
227.464	7.68
227.682	110.08
227.9	52.74
228.117	56.83
228.335	85.5
228.553	108.03
228.771	17.92
228.989	58.88
229.206	140.8
229.424	-10.75
229.642	22.02
229.86	-33.28
230.077	105.98
230.295	24.06
230.513	183.81
230.731	32.26
230.948	235
231.166	128.51
231.384	11.78
231.601	67.07
231.819	181.76
232.037	-6.66
232.254	-84.48
232.472	89.6
232.689	19.97
232.907	97.79
233.125	15.87
233.342	15.87
233.56	-45.57
233.777	28.16
233.995	91.65
234.213	93.69
234.43	93.69
234.648	38.4
234.865	-23.04
235.083	71.17
235.3	91.65
235.518	58.88
235.735	105.98
235.953	124.41
236.17	-4.61
236.388	36.35
236.605	-8.7
236.822	56.83
237.04	75.26
237.257	24.06
237.475	-25.09
237.692	52.74
237.909	120.32
238.127	24.06
238.344	44.54
238.562	50.69
238.779	-18.94
238.996	-18.94
239.214	81.41
239.431	87.55
239.648	-35.33
239.865	159.23
240.083	108.03
240.3	-12.8
240.517	40.45
240.735	52.74
240.952	108.03
241.169	22.02
241.386	69.12
241.603	19.97
241.821	-53.76
242.038	118.27
242.255	97.79
242.472	32.26
242.689	91.65
242.907	75.26
243.124	89.6
243.341	144.89
243.558	-20.99
243.775	-49.66
243.992	-70.14
244.209	124.41
244.426	239.1
244.643	38.4
244.86	11.78
245.078	67.07
245.295	81.41
245.512	54.78
245.729	44.54
245.946	17.92
246.163	101.89
246.38	17.92
246.597	60.93
246.814	69.12
247.031	97.79
247.248	83.45
247.464	62.98
247.681	28.16
247.898	58.88
248.115	-2.56
248.332	-70.14
248.549	151.04
248.766	167.42
248.983	87.55
249.2	81.41
249.417	95.74
249.633	17.92
249.85	60.93
250.067	48.64
250.284	44.54
250.501	116.22
250.717	124.41
250.934	-2.56
251.151	79.36
251.368	42.5
251.585	112.13
251.801	95.74
252.018	-12.8
252.235	85.5
252.451	44.54
252.668	13.82
252.885	118.27
253.102	65.02
253.318	17.92
253.535	-31.23
253.752	-12.8
253.968	40.45
254.185	-61.95
254.401	9.73
254.618	87.55
254.835	34.3
255.051	165.37
255.268	153.09
255.484	116.22
255.701	52.74
255.917	60.93
256.134	-35.33
256.351	48.64
256.567	-80.38
256.784	32.26
257	-119.29
257.217	79.36
257.433	34.3
257.65	56.83
257.866	110.08
258.082	-41.47
258.299	30.21
258.515	65.02
258.732	11.78
258.948	30.21
259.165	38.4
259.381	-23.04
259.597	60.93
259.814	19.97
260.03	75.26
260.246	-6.66
260.463	146.94
260.679	148.99
260.895	34.3
261.112	15.87
261.328	13.82
261.544	28.16
261.761	216.57
261.977	15.87
262.193	-80.38
262.409	105.98
262.626	112.13
262.842	87.55
263.058	17.92
263.274	126.46
263.49	34.3
263.707	134.65
263.923	128.51
264.139	-47.62
264.355	87.55
264.571	140.8
264.787	75.26
265.004	138.75
265.22	58.88
265.436	5.63
265.652	-74.24
265.868	81.41
266.084	-33.28
266.3	91.65
266.516	-6.66
266.732	56.83
266.948	32.26
267.164	-4.61
267.38	126.46
267.596	77.31
267.812	192
268.028	79.36
268.244	44.54
268.46	1.54
268.676	-12.8
268.892	169.47
269.108	-98.81
269.324	56.83
269.54	3.58
269.756	67.07
269.972	-41.47
270.188	26.11
270.403	73.21
270.619	26.11
270.835	128.51
271.051	46.59
271.267	-16.9
271.483	17.92
271.698	120.32
271.914	15.87
272.13	99.84
272.346	15.87
272.562	91.65
272.777	171.52
272.993	3.58
273.209	-0.51
273.425	116.22
273.64	-20.99
273.856	189.95
274.072	13.82
274.287	-27.14
274.503	161.28
274.719	85.5
274.934	-31.23
275.15	-0.51
275.366	-20.99
275.581	7.68
275.797	-4.61
276.012	42.5
276.228	58.88
276.444	99.84
276.659	83.45
276.875	-12.8
277.09	-4.61
277.306	-70.14
277.521	136.7
277.737	81.41
277.952	161.28
278.168	81.41
278.383	95.74
278.599	93.69
278.814	110.08
279.03	67.07
279.245	169.47
279.461	112.13
279.676	187.9
279.892	-100.86
280.107	38.4
280.322	65.02
280.538	77.31
280.753	48.64
280.969	50.69
281.184	30.21
281.399	142.85
281.615	114.17
281.83	62.98
282.045	-37.38
282.26	-61.95
282.476	60.93
282.691	112.13
282.906	-25.09
283.122	77.31
283.337	32.26
283.552	126.46
283.767	22.02
283.983	91.65
284.198	44.54
284.413	1.54
284.628	-47.62
284.843	-25.09
285.058	114.17
285.274	-2.56
285.489	-4.61
285.704	171.52
285.919	-61.95
286.134	34.3
286.349	24.06
286.564	3.58
286.779	112.13
286.995	11.78
287.21	-88.57
287.425	28.16
287.64	67.07
287.855	56.83
288.07	-59.9
288.285	173.57
288.5	114.17
288.715	134.65
288.93	24.06
289.145	-27.14
289.36	85.5
289.575	13.82
289.79	69.12
290.004	46.59
290.219	110.08
290.434	-53.76
290.649	-27.14
290.864	11.78
291.079	22.02
291.294	155.13
291.509	116.22
291.724	58.88
291.938	58.88
292.153	17.92
292.368	11.78
292.583	-6.66
292.798	124.41
293.012	40.45
293.227	89.6
293.442	-27.14
293.657	77.31
293.871	110.08
294.086	24.06
294.301	171.52
294.516	153.09
294.73	108.03
294.945	-72.19
295.16	-14.85
295.374	122.37
295.589	146.94
295.804	22.02
296.018	65.02
296.233	138.75
296.447	42.5
296.662	40.45
296.877	73.21
297.091	48.64
297.306	69.12
297.52	114.17
297.735	81.41
297.949	54.78
298.164	101.89
298.378	79.36
298.593	-18.94
298.807	26.11
299.022	-10.75
299.236	124.41
299.451	-20.99
299.665	65.02
299.88	7.68
300.094	50.69
300.309	91.65
300.523	42.5
300.737	67.07
300.952	116.22
301.166	71.17
301.381	30.21
301.595	75.26
301.809	11.78
302.024	40.45
302.238	-43.52
302.452	81.41
302.667	42.5
302.881	77.31
303.095	83.45
303.309	56.83
303.524	-20.99
303.738	73.21
303.952	67.07
304.166	28.16
304.381	-111.1
304.595	196.09
304.809	-45.57
305.023	83.45
305.237	77.31
305.452	15.87
305.666	136.7
305.88	36.35
306.094	56.83
306.308	77.31
306.522	148.99
306.736	97.79
306.95	15.87
307.164	54.78
307.379	89.6
307.593	62.98
307.807	89.6
308.021	142.85
308.235	46.59
308.449	-104.96
308.663	46.59
308.877	200.19
309.091	-20.99
309.305	118.27
309.519	-98.81
309.733	114.17
309.947	-45.57
310.161	157.18
310.374	138.75
310.588	108.03
310.802	-74.24
311.016	26.11
311.23	58.88
311.444	-0.51
311.658	69.12
311.872	105.98
312.085	148.99
312.299	120.32
312.513	108.03
312.727	85.5
312.941	-29.18
313.154	-2.56
313.368	56.83
313.582	91.65
313.796	75.26
314.009	71.17
314.223	128.51
314.437	44.54
314.651	13.82
314.864	7.68
315.078	-66.05
315.292	-57.86
315.505	-0.51
315.719	116.22
315.933	91.65
316.146	40.45
316.36	36.35
316.573	128.51
316.787	42.5
317.001	95.74
317.214	28.16
317.428	140.8
317.641	-31.23
317.855	79.36
318.068	81.41
318.282	30.21
318.495	235
318.709	114.17
318.922	140.8
319.136	85.5
319.349	146.94
319.563	-51.71
319.776	144.89
319.99	-70.14
320.203	142.85
320.417	-0.51
320.63	103.93
320.843	157.18
321.057	95.74
321.27	40.45
321.483	46.59
321.697	146.94
321.91	15.87
322.124	71.17
322.337	175.61
322.55	38.4
322.763	87.55
322.977	26.11
323.19	-6.66
323.403	46.59
323.617	105.98
323.83	62.98
324.043	26.11
324.256	30.21
324.469	-82.43
324.683	165.37
324.896	40.45
325.109	101.89
325.322	7.68
325.535	95.74
325.748	89.6
325.962	93.69
326.175	83.45
326.388	62.98
326.601	157.18
326.814	44.54
327.027	26.11
327.24	151.04
327.453	-31.23
327.666	83.45
327.879	151.04
328.092	85.5
328.305	69.12
328.518	44.54
328.731	-37.38
328.944	58.88
329.157	48.64
329.37	-23.04
329.583	155.13
329.796	128.51
330.009	-2.56
330.222	48.64
330.435	110.08
330.648	130.56
330.861	30.21
331.073	81.41
331.286	50.69
331.499	58.88
331.712	-47.62
331.925	103.93
332.138	26.11
332.35	122.37
332.563	-29.18
332.776	157.18
332.989	-35.33
333.202	69.12
333.414	81.41
333.627	46.59
333.84	30.21
334.053	62.98
334.265	-6.66
334.478	44.54
334.691	42.5
334.903	13.82
335.116	42.5
335.329	46.59
335.541	17.92
335.754	163.33
335.966	9.73
336.179	-14.85
336.392	52.74
336.604	-41.47
336.817	134.65
337.029	44.54
337.242	38.4
337.454	46.59
337.667	93.69
337.88	38.4
338.092	77.31
338.305	136.7
338.517	40.45
338.729	81.41
338.942	118.27
339.154	-41.47
339.367	26.11
339.579	87.55
339.792	-25.09
340.004	62.98
340.217	-12.8
340.429	151.04
340.641	-80.38
340.854	42.5
341.066	22.02
341.278	153.09
341.491	198.14
341.703	130.56
341.915	-2.56
342.128	116.22
342.34	54.78
342.552	-20.99
342.764	32.26
342.977	-2.56
343.189	159.23
343.401	93.69
343.613	-2.56
343.826	-20.99
344.038	-59.9
344.25	83.45
344.462	22.02
344.674	32.26
344.886	77.31
345.099	22.02
345.311	60.93
345.523	36.35
345.735	-96.77
345.947	124.41
346.159	62.98
346.371	54.78
346.583	-12.8
346.795	179.71
347.007	32.26
347.219	54.78
347.431	9.73
347.643	60.93
347.855	32.26
348.067	169.47
348.279	9.73
348.491	-0.51
348.703	114.17
348.915	69.12
349.127	50.69
349.339	108.03
349.551	81.41
349.763	52.74
349.975	40.45
350.187	50.69
350.399	204.28
350.61	128.51
350.822	15.87
351.034	-37.38
351.246	54.78
351.458	48.64
351.669	54.78
351.881	89.6
352.093	110.08
352.305	65.02
352.517	26.11
352.728	116.22
352.94	110.08
353.152	22.02
353.363	9.73
353.575	69.12
353.787	228.86
353.999	44.54
354.21	189.95
354.422	1.54
354.633	40.45
354.845	38.4
355.057	136.7
355.268	60.93
355.48	122.37
355.692	11.78
355.903	30.21
356.115	-23.04
356.326	-47.62
356.538	214.52
356.749	50.69
356.961	28.16
357.172	5.63
357.384	-27.14
357.595	198.14
357.807	7.68
358.018	-29.18
358.23	-8.7
358.441	89.6
358.653	36.35
358.864	24.06
359.075	-31.23
359.287	69.12
359.498	105.98
359.709	93.69
359.921	110.08
360.132	69.12
360.344	34.3
360.555	-10.75
360.766	97.79
360.977	22.02
361.189	187.9
361.4	5.63
361.611	130.56
361.823	212.48
362.034	5.63
362.245	-94.72
362.456	97.79
362.667	71.17
362.879	30.21
363.09	-2.56
363.301	97.79
363.512	1.54
363.723	32.26
363.935	32.26
364.146	157.18
364.357	26.11
364.568	122.37
364.779	-41.47
364.99	187.9
365.201	-70.14
365.412	108.03
365.623	-23.04
365.834	122.37
366.045	32.26
366.256	91.65
366.467	34.3
366.678	48.64
366.889	58.88
367.1	-0.51
367.311	224.76
367.522	17.92
367.733	67.07
367.944	105.98
368.155	11.78
368.366	48.64
368.577	105.98
368.788	73.21
368.999	-29.18
369.209	67.07
369.42	226.81
369.631	269.82
369.842	19.97
370.053	3.58
370.264	118.27
370.474	3.58
370.685	67.07
370.896	-10.75
371.107	138.75
371.317	30.21
371.528	34.3
371.739	148.99
371.95	62.98
372.16	40.45
372.371	-55.81
372.582	-37.38
372.792	95.74
373.003	-25.09
373.214	9.73
373.424	85.5
373.635	-2.56
373.846	36.35
374.056	40.45
374.267	36.35
374.477	58.88
374.688	-45.57
374.898	52.74
375.109	75.26
375.319	75.26
375.53	128.51
375.74	132.61
375.951	97.79
376.161	105.98
376.372	103.93
376.582	-0.51
376.793	89.6
377.003	13.82
377.214	48.64
377.424	83.45
377.635	13.82
377.845	-6.66
378.055	122.37
378.266	9.73
378.476	-20.99
378.686	-12.8
378.897	13.82
379.107	114.17
379.317	91.65
379.528	9.73
379.738	136.7
379.948	-53.76
380.158	148.99
380.369	77.31
380.579	36.35
380.789	62.98
380.999	140.8
381.21	153.09
381.42	134.65
381.63	36.35
381.84	85.5
382.05	13.82
382.261	83.45
382.471	148.99
382.681	-8.7
382.891	169.47
383.101	46.59
383.311	-55.81
383.521	30.21
383.731	112.13
383.941	65.02
384.151	46.59
384.361	91.65
384.571	48.64
384.781	65.02
384.991	155.13
385.201	202.24
385.411	118.27
385.621	101.89
385.831	85.5
386.041	46.59
386.251	62.98
386.461	99.84
386.671	34.3
386.881	177.66
387.091	36.35
387.301	130.56
387.511	65.02
387.72	77.31
387.93	75.26
388.14	-53.76
388.35	97.79
388.56	146.94
388.769	192
388.979	99.84
389.189	36.35
389.399	52.74
389.609	60.93
389.818	151.04
390.028	69.12
390.238	81.41
390.447	22.02
390.657	60.93
390.867	71.17
391.076	-16.9
391.286	69.12
391.496	13.82
391.705	73.21
391.915	112.13
392.125	151.04
392.334	-14.85
392.544	144.89
392.753	114.17
392.963	-33.28
393.172	56.83
393.382	24.06
393.591	169.47
393.801	15.87
394.01	167.42
394.22	112.13
394.429	48.64
394.639	60.93
394.848	108.03
395.058	32.26
395.267	48.64
395.477	85.5
395.686	60.93
395.895	202.24
396.105	218.62
396.314	87.55
396.524	28.16
396.733	71.17
396.942	126.46
397.152	192
397.361	81.41
397.57	97.79
397.78	58.88
397.989	42.5
398.198	167.42
398.407	77.31
398.617	-29.18
398.826	58.88
399.035	15.87
399.244	140.8
399.453	93.69
399.663	-2.56
399.872	24.06
400.081	50.69
400.29	163.33
400.499	7.68
400.708	83.45
400.917	73.21
401.127	30.21
401.336	71.17
401.545	105.98
401.754	183.81
401.963	112.13
402.172	48.64
402.381	22.02
402.59	60.93
402.799	99.84
403.008	148.99
403.217	60.93
403.426	42.5
403.635	-57.86
403.844	3.58
404.053	58.88
404.262	13.82
404.471	206.33
404.68	138.75
404.888	26.11
405.097	89.6
405.306	54.78
405.515	52.74
405.724	19.97
405.933	101.89
406.142	99.84
406.35	163.33
406.559	5.63
406.768	3.58
406.977	155.13
407.185	36.35
407.394	73.21
407.603	-84.48
407.812	105.98
408.02	196.09
408.229	-10.75
408.438	77.31
408.646	-29.18
408.855	50.69
409.064	81.41
409.272	13.82
409.481	175.61
409.69	-57.86
409.898	-123.39
410.107	67.07
410.315	108.03
410.524	-0.51
410.733	81.41
410.941	79.36
411.15	138.75
411.358	11.78
411.567	148.99
411.775	22.02
411.984	73.21
412.192	108.03
412.401	28.16
412.609	185.85
412.818	81.41
413.026	83.45
413.234	-33.28
413.443	99.84
413.651	5.63
413.86	-25.09
414.068	189.95
414.276	185.85
414.485	-8.7
414.693	196.09
414.901	138.75
415.11	83.45
415.318	75.26
415.526	19.97
415.734	206.33
415.943	81.41
416.151	175.61
416.359	71.17
416.567	71.17
416.776	110.08
416.984	81.41
417.192	169.47
417.4	32.26
417.608	67.07
417.817	-23.04
418.025	103.93
418.233	120.32
418.441	22.02
418.649	-43.52
418.857	75.26
419.065	132.61
419.273	17.92
419.481	36.35
419.689	-6.66
419.897	11.78
420.105	-16.9
420.313	99.84
420.521	179.71
420.729	144.89
420.937	9.73
421.145	7.68
421.353	103.93
421.561	81.41
421.769	71.17
421.977	40.45
422.185	128.51
422.393	28.16
422.601	75.26
422.809	62.98
423.017	93.69
423.224	34.3
423.432	93.69
423.64	93.69
423.848	138.75
424.056	38.4
424.263	155.13
424.471	58.88
424.679	163.33
424.887	7.68
425.094	169.47
425.302	87.55
425.51	34.3
425.718	153.09
425.925	85.5
426.133	-0.51
426.341	257.53
426.548	9.73
426.756	44.54
426.964	144.89
427.171	-2.56
427.379	87.55
427.586	112.13
427.794	69.12
428.001	71.17
428.209	56.83
428.417	148.99
428.624	128.51
428.832	71.17
429.039	99.84
429.247	134.65
429.454	157.18
429.662	185.85
429.869	95.74
430.076	97.79
430.284	126.46
430.491	181.76
430.699	163.33
430.906	245.24
431.114	120.32
431.321	275.96
431.528	91.65
431.736	144.89
431.943	214.52
432.15	202.24
432.358	173.57
432.565	292.35
432.772	-8.7
432.979	97.79
433.187	69.12
433.394	212.48
433.601	126.46
433.808	245.24
434.016	192
434.223	151.04
434.43	175.61
434.637	230.91
434.844	208.38
435.052	185.85
435.259	216.57
435.466	241.15
435.673	220.67
435.88	263.68
436.087	337.4
436.294	255.48
436.501	230.91
436.708	224.76
436.915	265.72
437.122	294.4
437.329	153.09
437.537	282.11
437.743	290.3
437.95	355.83
438.157	286.2
438.364	259.58
438.571	306.68
438.778	357.88
438.985	429.56
439.192	421.37
439.399	321.02
439.606	402.94
439.813	542.2
440.02	617.97
440.227	544.25
440.433	421.37
440.64	392.7
440.847	425.47
441.054	470.52
441.261	617.97
441.467	568.82
441.674	513.53
441.881	638.45
442.088	468.47
442.294	574.97
442.501	615.93
442.708	720.37
442.914	665.08
443.121	703.99
443.328	802.29
443.534	787.96
443.741	792.05
443.948	570.87
444.154	818.68
444.361	914.93
444.568	779.76
444.774	826.87
444.981	798.2
445.187	970.23
445.394	970.23
445.6	902.64
445.807	998.9
446.013	1017.33
446.22	996.85
446.426	1125.87
446.633	1265.13
446.839	1367.53
447.046	1158.64
447.252	1310.19
447.459	1336.81
447.665	1340.91
447.871	1502.7
448.078	1586.66
448.284	1545.7
448.491	1584.62
448.697	1689.06
448.903	1725.93
449.11	1867.24
449.316	1742.31
449.522	1832.42
449.728	2022.88
449.935	2090.46
450.141	2063.84
450.347	2266.59
450.553	2166.24
450.76	2149.86
450.966	2342.36
451.172	2461.15
451.378	2473.43
451.584	2520.54
451.791	2721.24
451.997	2782.68
452.203	2930.13
452.409	3005.91
452.615	3153.36
452.821	2954.71
453.027	2956.75
453.233	3429.84
453.44	3380.68
453.646	3468.75
453.852	3485.13
454.058	3808.71
454.264	3814.85
454.47	4142.53
454.676	4203.97
454.882	4691.38
455.088	4437.44
455.294	4687.29
455.5	4847.03
455.705	5186.99
455.911	5033.4
456.117	5371.31
456.323	5459.37
456.529	5524.91
456.735	6057.38
456.941	6260.13
457.147	6530.46
457.352	6686.11
457.558	6716.83
457.764	7148.95
457.97	7443.85
458.176	7767.43
458.381	8050.05
458.587	8310.15
458.793	8592.76
458.999	8551.81
459.204	9676.14
459.41	9930.09
459.616	9901.42
459.821	10356.07
460.027	10820.95
460.233	11341.14
460.438	11482.45
460.644	12096.84
460.85	12324.16
461.055	12465.47
461.261	13309.24
461.466	13026.62
461.672	13434.16
461.878	14980.38
462.083	14605.6
462.289	14947.61
462.494	15553.81
462.7	15605.01
462.905	15906.06
463.111	17208.57
463.316	17876.21
463.522	18337
463.727	18801.89
463.932	19436.76
464.138	20284.62
464.343	21669.05
464.549	21447.86
464.754	23209.12
464.959	23362.72
465.165	23960.72
465.37	23960.72
465.575	23553.18
465.781	25353.34
465.986	26031.22
466.191	25660.54
466.397	25644.15
466.602	25062.53
466.807	26760.3
467.012	27200.61
467.218	27618.39
467.423	27620.44
467.628	28800.07
467.833	29817.91
468.038	29314.11
468.244	28951.62
468.449	30436.4
468.654	29678.65
468.859	29459.52
469.064	29834.3
469.269	29191.23
469.474	29113.41
469.679	30030.9
469.885	29434.94
470.09	30026.81
470.295	30030.9
470.5	29295.68
470.705	29469.76
470.91	28779.59
471.115	28634.19
471.32	28742.73
471.525	28691.53
471.73	28019.8
471.935	27868.25
472.139	26416.24
472.344	26625.13
472.549	26733.67
472.754	26166.38
472.959	25470.08
473.164	24507.53
473.369	24366.22
473.574	25062.53
473.778	24784.01
473.983	24194.19
474.188	23772.31
474.393	22459.56
474.598	22756.52
474.802	21920.95
475.007	21550.26
475.212	21566.65
475.417	20589.77
475.621	20348.11
475.826	20219.08
476.031	19840.21
476.235	19338.46
476.44	19426.52
476.645	18781.41
476.849	18928.86
477.054	18396.39
477.259	17704.18
477.463	17857.78
477.668	17257.72
477.872	17360.12
478.077	16993.53
478.282	16471.3
478.486	16420.1
478.691	16084.23
478.895	15772.94
479.1	15637.78
479.304	15977.74
479.509	15228.18
479.713	15459.6
479.918	15043.87
480.122	14667.04
480.326	15064.35
480.531	14853.41
480.735	14521.63
480.94	14347.56
481.144	14703.9
481.348	14200.1
481.553	14167.34
481.757	13819.18
481.961	13741.36
482.166	14089.51
482.37	13684.02
482.574	13497.65
482.778	13520.18
482.983	13538.61
483.187	13638.96
483.391	13278.52
483.595	13036.86
483.8	12973.37
484.004	13032.76
484.208	13028.67
484.412	12952.89
484.616	12721.47
484.821	12358.98
485.025	11922.76
485.229	12397.89
485.433	11818.32
485.637	11914.57
485.841	11842.89
486.045	11568.46
486.249	11283.8
486.453	11173.21
486.657	11046.23
486.861	10974.55
487.065	10702.17
487.269	10560.86
487.473	10202.47
487.677	10657.12
487.881	10472.8
488.085	10059.11
488.289	9825.64
488.493	9549.17
488.697	9692.52
488.901	9387.38
489.105	9178.48
489.309	9096.57
489.512	8897.91
489.716	8902.01
489.92	8519.04
490.124	8516.99
490.328	8445.31
490.531	8082.82
490.735	8013.19
490.939	7964.04
491.143	7519.63
491.346	7409.04
491.55	7603.6
491.754	7450
491.958	7228.82
492.161	6970.77
492.365	6944.15
492.569	6886.81
492.772	6950.29
492.976	6686.11
493.18	6567.32
493.383	6555.04
493.587	6655.39
493.79	6473.12
493.994	6290.85
494.197	6213.03
494.401	6278.56
494.605	6081.96
494.808	6239.65
495.012	5811.62
495.215	6118.82
495.419	6135.2
495.622	5629.35
495.825	5879.21
496.029	5713.32
496.232	5924.26
496.436	5791.14
496.639	5950.89
496.843	5799.34
497.046	5653.93
497.249	5967.27
497.453	5787.05
497.656	5666.22
497.859	5856.68
498.063	5834.15
498.266	5954.98
498.469	5793.19
498.673	5670.31
498.876	5828.01
499.079	5787.05
499.282	5897.64
499.485	6137.25
499.689	5871.01
499.892	6106.53
500.095	5748.14
500.298	5871.01
500.501	5850.53
500.705	6167.97
500.908	6188.45
501.111	6354.34
501.314	6360.48
501.517	6507.93
501.72	6426.01
501.923	6389.15
502.126	6385.05
502.329	6698.39
502.532	6546.84
502.735	6854.04
502.938	6741.4
503.141	6874.52
503.344	6886.81
503.547	6956.44
503.75	6862.23
503.953	7120.28
504.156	7484.81
504.359	7230.87
504.562	7349.65
504.765	7529.87
504.968	7667.08
505.17	7781.77
505.373	7843.21
505.576	8074.63
505.779	8215.94
505.982	8242.56
506.185	8420.74
506.387	8562.05
506.59	8750.46
506.793	8856.95
506.996	8852.86
507.198	9403.76
507.401	9444.72
507.604	9512.3
507.807	9760.11
508.009	9983.34
508.212	10095.97
508.415	10265.96
508.617	10399.07
508.82	10655.07
509.022	10550.62
509.225	11191.64
509.428	10995.03
509.63	11214.16
509.833	11656.53
510.035	12213.57
510.238	12275.01
510.44	12504.39
510.643	12541.25
510.845	13075.77
511.048	13092.15
511.25	13356.34
511.453	13751.6
511.655	14593.31
511.858	14357.8
512.06	14628.13
512.262	15015.19
512.465	15115.55
512.667	15818
512.87	15951.12
513.072	16373
513.274	16676.1
513.477	16991.48
513.679	17650.93
513.881	18099.44
514.084	18253.03
514.286	18769.12
514.488	19186.91
514.69	19463.38
514.893	19817.68
515.095	20159.69
515.297	20729.03
515.499	21132.48
515.701	21529.78
515.904	22078.64
516.106	22475.95
516.308	22709.41
516.51	23342.24
516.712	23608.47
516.914	24243.34
517.116	24810.63
517.318	25152.64
517.52	25478.27
517.722	25746.55
517.925	26414.19
518.127	26877.03
518.329	27448.41
518.531	27090.02
518.733	28705.87
518.935	28767.31
519.136	28869.7
519.338	29574.2
519.54	30186.55
519.742	30608.43
519.944	31030.31
520.146	31411.23
520.348	31853.59
520.55	31904.79
520.752	32537.62
520.954	33260.55
521.155	33078.28
521.357	33635.33
521.559	33917.95
521.761	34884.59
521.963	34628.59
522.164	34993.13
522.366	35529.7
522.568	35869.66
522.77	35830.75
522.971	36658.13
523.173	35945.44
523.375	36631.51
523.576	36543.44
523.778	36940.75
523.98	37395.4
524.181	37430.21
524.383	37458.88
524.584	38091.71
524.786	37710.78
524.988	37729.22
525.189	37647.3
525.391	38161.34
525.592	38144.95
525.794	37962.68
525.995	38185.91
526.197	37671.87
526.398	38202.3
526.6	37757.89
526.801	37848
527.003	37581.76
527.204	37217.22
527.406	37422.02
527.607	37299.14
527.808	37176.26
528.01	36295.64
528.211	36565.97
528.412	36760.53
528.614	36787.15
528.815	36053.98
529.016	36150.23
529.218	35675.1
529.419	35374.05
529.62	34919.4
529.822	34763.76
530.023	34372.6
530.224	34198.52
530.425	34092.02
530.626	33152.01
530.828	32824.33
531.029	33240.07
531.23	32070.68
531.431	32050.2
531.632	31876.12
531.833	31265.83
532.035	31026.21
532.236	30833.71
532.437	30362.67
532.638	30116.92
532.839	29383.74
533.04	29623.36
533.241	28595.28
533.442	28789.83
533.643	28030.04
533.844	27610.2
534.045	27356.25
534.246	26496.11
534.447	26748.01
534.648	26293.36
534.849	25902.2
535.05	25228.42
535.251	25330.81
535.451	24880.26
535.652	24493.19
535.853	24001.68
536.054	23973.01
536.255	23717.01
536.456	22932.64
536.657	22965.41
536.857	22592.68
537.058	22256.81
537.259	22314.16
537.46	21820.6
537.66	21294.27
537.861	21277.88
538.062	20546.76
538.263	20618.44
538.463	20419.78
538.664	20282.57
538.865	19864.78
539.065	19602.64
539.266	19545.3
539.466	19522.77
539.667	18752.74
539.868	18750.69
540.068	18398.44
540.269	18330.86
540.469	17976.56
540.67	17603.83
540.87	17706.23
541.071	17517.81
541.271	17405.17
541.472	17102.08
541.672	16858.37
541.873	16753.92
542.073	16381.19
542.274	16585.99
542.474	15967.5
542.675	15697.17
542.875	15727.89
543.075	15385.88
543.276	15199.51
543.476	15244.57
543.676	14910.75
543.877	14775.58
544.077	14957.85
544.277	14599.46
544.478	14327.08
544.678	14361.89
544.878	14218.54
545.078	13937.96
545.279	13595.95
545.479	13372.72
545.679	13518.13
545.879	13122.87
546.079	13024.57
546.28	12741.95
546.48	12703.04
546.68	12817.72
546.88	12418.37
547.08	12272.96
547.28	12234.05
547.48	11838.8
547.68	11965.77
547.88	11945.29
548.081	11801.93
548.281	11343.19
548.481	11470.16
548.681	11304.28
548.881	11124.05
549.081	11005.27
549.28	10702.17
549.48	10677.6
549.68	10478.94
549.88	10409.31
550.08	9917.8
550.28	10206.56
550.48	9930.09
550.68	9973.1
550.88	9452.91
551.08	9381.23
551.279	9508.21
551.479	9108.85
551.679	9411.95
551.879	8744.31
552.079	8852.86
552.278	8703.36
552.478	8666.49
552.678	8693.12
552.878	8347.01
553.077	8336.77
553.277	7953.8
553.477	7865.74
553.676	8070.53
553.876	7884.17
554.076	7572.88
554.275	7452.05
554.475	7386.51
554.674	7417.23
554.874	7239.06
555.074	7144.85
555.273	7052.69
555.473	6978.97
555.672	6671.77
555.872	6632.86
556.071	6583.71
556.271	6426.01
556.47	6170.02
556.67	6264.22
556.869	6206.88
557.068	6110.63
557.268	5852.58
557.467	5785
557.667	5920.17
557.866	5709.22
558.065	5416.37
558.265	5563.82
558.464	5311.92
558.663	5397.93
558.863	5236.14
559.062	5164.47
559.261	5225.9
559.461	5088.69
559.66	4890.04
559.859	4933.04
560.058	4677.05
560.258	4466.11
560.457	4568.51
560.656	4466.11
560.855	4455.87
561.054	4519.36
561.253	4251.07
561.453	4271.55
561.652	4165.06
561.851	3984.84
562.05	4099.52
562.249	3847.62
562.448	3806.66
562.647	3739.08
562.846	3829.19
563.045	3661.26
563.244	3720.65
563.443	3788.23
563.642	3585.48
563.841	3769.8
564.04	3485.13
564.239	3501.51
564.438	3370.44
564.637	3306.96
564.836	3231.18
565.035	2979.28
565.234	3227.09
565.432	3050.96
565.631	3257.81
565.83	3218.89
566.029	2958.8
566.228	2895.32
566.427	2848.21
566.625	2840.02
566.824	2928.08
567.023	2762.2
567.222	2780.63
567.42	2708.95
567.619	2678.23
567.818	2643.42
568.016	2749.91
568.215	2700.76
568.414	2624.98
568.612	2371.04
568.811	2553.31
569.01	2483.67
569.208	2260.45
569.407	2518.49
569.605	2270.69
569.804	2303.45
570.002	2401.76
570.201	2309.6
570.4	2170.33
570.598	2160.1
570.797	2053.6
570.995	2006.5
571.193	1863.14
571.392	2000.35
571.59	1889.76
571.789	2082.27
571.987	2076.13
572.186	1981.92
572.384	1916.39
572.582	1801.7
572.781	1945.06
572.979	1816.04
573.177	1662.44
573.376	1766.89
573.574	1662.44
573.772	1715.69
573.971	1611.24
574.169	1560.04
574.367	1611.24
574.565	1723.88
574.763	1570.28
574.962	1627.62
575.16	1545.7
575.358	1469.93
575.556	1529.32
575.754	1465.83
575.952	1514.98
576.151	1480.17
576.349	1521.13
576.547	1277.42
576.745	1342.96
576.943	1269.23
577.141	1277.42
577.339	1267.18
577.537	1322.48
577.735	1267.18
577.933	1299.95
578.131	1166.83
578.329	1326.57
578.527	1175.02
578.725	1129.97
578.923	1019.38
579.121	1181.17
579.319	1009.14
579.516	1052.14
579.714	1371.63
579.912	1060.34
580.11	1021.42
580.308	955.89
580.506	1076.72
580.704	826.87
580.901	908.79
581.099	1129.97
581.297	1054.19
581.495	1002.99
581.692	951.79
581.89	998.9
582.088	953.84
582.285	943.6
582.483	912.88
582.681	845.3
582.878	779.76
583.076	912.88
583.274	790
583.471	894.45
583.669	863.73
583.866	814.58
584.064	697.85
584.262	744.95
584.459	703.99
584.657	876.02
584.854	710.13
585.052	710.13
585.249	742.9
585.447	726.52
585.644	622.07
585.841	765.43
586.039	706.04
586.236	691.7
586.434	720.37
586.631	667.13
586.828	564.73
587.026	703.99
587.223	540.15
587.42	581.11
587.618	683.51
587.815	734.71
588.012	544.25
588.21	617.97
588.407	613.88
588.604	644.6
588.801	583.16
588.999	617.97
589.196	603.64
589.393	544.25
589.59	503.29
589.787	507.38
589.984	529.91
590.182	572.92
590.379	470.52
590.576	589.3
590.773	491
590.97	531.96
591.167	583.16
591.364	650.74
591.561	493.05
591.758	691.7
591.955	540.15
592.152	454.14
592.349	488.95
592.546	437.75
592.743	482.81
592.94	568.82
593.137	562.68
593.334	622.07
593.531	566.78
593.727	538.1
593.924	566.78
594.121	517.62
594.318	472.57
594.515	544.25
594.712	603.64
594.908	747
595.105	417.27
595.302	562.68
595.499	599.54
595.696	740.85
595.892	445.95
596.089	712.18
596.286	579.06
596.482	708.09
596.679	568.82
596.876	617.97
597.072	740.85
597.269	613.88
597.466	685.56
597.662	663.03
597.859	710.13
598.055	718.33
598.252	767.48
598.448	796.15
598.645	808.44
598.841	845.3
599.038	892.4
599.234	994.8
599.431	1031.66
599.627	943.6
599.824	1039.86
600.02	1013.23
600.217	976.37
600.413	1105.39
600.609	1197.55
600.806	1353.2
601.002	1281.52
601.198	1224.17
601.395	1431.02
601.591	1420.78
601.787	1498.6
601.984	1486.31
602.18	1439.21
602.376	1549.8
602.572	1756.65
602.769	1795.56
602.965	1857
603.161	1881.57
603.357	1965.54
603.553	2055.65
603.75	2059.74
603.946	2080.22
604.142	2293.21
604.338	2457.05
604.534	2209.25
604.73	2405.85
604.926	2483.67
605.122	2620.89
605.318	2579.93
605.514	2784.73
605.71	2786.77
605.906	2946.52
606.102	2966.99
606.298	3145.17
606.494	3145.17
606.69	3311.05
606.886	3341.77
607.082	3282.38
607.278	3421.64
607.474	3585.48
607.67	3704.26
607.866	3675.59
608.062	4013.51
608.257	3995.08
608.453	4040.13
608.649	4240.83
608.845	4154.82
609.041	4343.23
609.236	4613.56
609.432	4758.97
609.628	4822.45
609.824	5017.01
610.019	5174.71
610.215	5223.86
610.411	5594.54
610.606	5621.16
610.802	5608.87
610.998	5817.77
611.193	5875.11
611.389	6018.47
611.584	6221.22
611.78	6337.95
611.976	6667.67
612.171	6858.14
612.367	7091.6
612.562	7150.99
612.758	7136.66
612.953	7175.57
613.149	7753.1
613.344	7820.68
613.539	7933.32
613.735	8283.52
613.93	8490.37
614.126	8500.61
614.321	9016.69
614.517	9096.57
614.712	9422.19
614.907	9661.8
615.103	9932.14
615.298	10157.41
615.493	10362.21
615.688	10343.78
615.884	11134.29
616.079	11251.03
616.274	11619.66
616.47	11765.07
616.665	11869.51
616.86	12301.64
617.055	12848.44
617.25	12838.2
617.445	13350.2
617.641	13466.93
617.836	13921.58
618.031	13989.16
618.226	14900.51
618.421	14791.97
618.616	15443.22
618.811	15615.25
619.006	16252.17
619.201	16203.02
619.396	16749.82
619.591	16839.94
619.786	17626.36
619.981	17845.49
620.176	18232.55
620.371	18361.58
620.566	18906.34
620.761	19305.69
620.956	19625.17
621.151	19918.03
621.346	20403.4
621.541	20839.62
621.735	21490.87
621.93	21431.48
622.125	21937.33
622.32	22023.34
622.515	22852.77
622.709	23198.88
622.904	23780.5
623.099	24016.02
623.294	24874.12
623.488	24988.8
623.683	25529.47
623.878	25287.81
624.072	26356.85
624.267	26651.75
624.462	26850.41
624.656	26969.19
624.851	27552.86
625.046	28193.87
625.24	28560.46
625.435	28916.81
625.629	29424.7
625.824	29883.45
626.018	30037.05
626.213	30075.96
626.407	30510.13
626.602	30796.84
626.796	31708.19
626.991	31407.14
627.185	31826.97
627.38	32119.83
627.574	32359.44
627.768	32363.54
627.963	32228.37
628.157	32855.05
628.352	33223.69
628.546	32502.8
628.74	33319.94
628.935	32822.28
629.129	32773.13
629.323	32580.62
629.517	32715.79
629.712	32635.92
629.906	32257.04
630.1	32011.29
630.294	31972.38
630.489	31656.99
630.683	31116.33
630.877	30426.16
631.071	30123.06
631.265	30020.66
631.459	29170.75
631.653	28630.09
631.848	27941.97
632.042	27159.65
632.236	26778.73
632.43	25834.61
632.624	25377.92
632.818	24757.38
633.012	23909.52
633.206	23170.21
633.4	22580.39
633.594	21341.37
633.788	21064.89
633.982	20421.83
634.176	19821.78
634.369	18961.63
634.563	18171.11
634.757	17173.75
634.951	16889.09
635.145	16338.18
635.339	15574.29
635.533	15050.01
635.726	14556.45
635.92	13784.37
636.114	13438.26
636.308	12700.99
636.501	12385.6
636.695	11877.71
636.889	11314.52
637.083	10952.02
637.276	10325.35
637.47	9803.11
637.664	9557.36
637.857	9344.37
638.051	8789.37
638.244	8541.57
638.438	8209.79
638.632	7865.74
638.825	7363.98
639.019	7153.04
639.212	6704.54
639.406	6741.4
639.599	6450.59
639.793	5926.31
639.986	5871.01
640.18	5672.36
640.373	5522.86
640.567	5189.04
640.76	5215.66
640.954	4791.73
641.147	4601.27
641.34	4447.68
641.534	4345.28
641.727	4269.5
641.92	4060.61
642.114	3841.48
642.307	3763.65
642.5	3640.78
642.694	3372.49
642.887	3397.07
643.08	3347.92
643.273	3177.94
643.467	2987.47
643.66	2817.49
643.853	2700.76
644.046	2721.24
644.239	2561.5
644.432	2524.63
644.626	2252.25
644.819	2325.98
645.012	2188.77
645.205	2127.33
645.398	2061.79
645.591	1975.78
645.784	1799.65
645.977	1752.55
646.17	1748.45
646.363	1609.19
646.556	1586.66
646.749	1527.27
646.942	1555.94
647.135	1396.2
647.328	1385.96
647.521	1392.11
647.714	1310.19
647.907	1261.04
648.099	1113.58
648.292	1230.32
648.485	1121.77
648.678	1162.73
648.871	966.13
649.064	1000.94
649.256	892.4
649.449	914.93
649.642	759.28
649.835	865.78
650.027	720.37
650.22	828.92
650.413	747
650.605	714.23
650.798	665.08
650.991	665.08
651.183	687.61
651.376	740.85
651.568	706.04
651.761	577.02
651.954	679.41
652.146	458.23
652.339	579.06
652.531	609.78
652.724	445.95
652.916	497.14
653.109	341.5
653.301	601.59
653.494	587.26
653.686	456.19
653.879	536.06
654.071	488.95
654.263	341.5
654.456	355.83
654.648	400.89
654.84	407.03
655.033	304.64
655.225	415.23
655.417	237.05
655.61	431.61
655.802	390.65
655.994	433.66
656.186	226.81
656.379	321.02
656.571	255.48
656.763	243.2
656.955	325.12
657.148	275.96
657.34	409.08
657.532	349.69
657.724	183.81
657.916	206.33
658.108	298.49
658.3	337.4
658.492	337.4
658.684	173.57
658.876	257.53
659.068	73.21
659.26	200.19
659.452	179.71
659.644	163.33
659.836	296.44
660.028	194.05
660.22	214.52
660.412	132.61
660.604	216.57
660.796	261.63
660.988	200.19
661.18	259.58
661.372	224.76
661.563	169.47
661.755	235
661.947	132.61
662.139	181.76
662.331	108.03
662.522	157.18
662.714	67.07
662.906	171.52
663.097	153.09
663.289	114.17
663.481	-29.18
663.673	204.28
663.864	187.9
664.056	314.88
664.247	77.31
664.439	212.48
664.631	167.42
664.822	292.35
665.014	136.7
665.205	114.17
665.397	142.85
665.588	171.52
665.78	108.03
665.971	208.38
666.163	75.26
666.354	228.86
666.546	85.5
666.737	77.31
666.929	110.08
667.12	91.65
667.311	183.81
667.503	157.18
667.694	179.71
667.885	220.67
668.077	222.72
668.268	24.06
668.459	93.69
668.651	165.37
668.842	187.9
669.033	11.78
669.224	-37.38
669.416	288.25
669.607	196.09
669.798	81.41
669.989	216.57
670.18	89.6
670.371	153.09
670.563	65.02
670.754	220.67
670.945	146.94
671.136	204.28
671.327	142.85
671.518	232.96
671.709	251.39
671.9	99.84
672.091	226.81
672.282	194.05
672.473	146.94
672.664	77.31
672.855	73.21
673.046	122.37
673.237	280.06
673.428	142.85
673.619	196.09
673.809	116.22
674	253.44
674.191	187.9
674.382	124.41
674.573	185.85
674.764	124.41
674.954	132.61
675.145	185.85
675.336	19.97
675.527	114.17
675.717	110.08
675.908	69.12
676.099	73.21
676.289	210.43
676.48	15.87
676.671	151.04
676.861	99.84
677.052	235
677.243	142.85
677.433	79.36
677.624	196.09
677.814	118.27
678.005	165.37
678.195	273.92
678.386	-33.28
678.576	222.72
678.767	140.8
678.957	157.18
679.148	226.81
679.338	241.15
679.529	161.28
679.719	101.89
679.909	228.86
680.1	228.86
680.29	194.05
680.481	48.64
680.671	318.97
680.861	192
681.052	249.34
681.242	204.28
681.432	212.48
681.622	194.05
681.813	69.12
682.003	187.9
682.193	91.65
682.383	202.24
682.573	202.24
682.764	126.46
682.954	230.91
683.144	308.73
683.334	159.23
683.524	243.2
683.714	247.29
683.904	208.38
684.094	200.19
684.284	249.34
684.474	376.31
684.664	247.29
684.854	200.19
685.044	259.58
685.234	198.14
685.424	181.76
685.614	187.9
685.804	419.32
685.994	280.06
686.184	280.06
686.374	282.11
686.564	261.63
686.753	169.47
686.943	192
687.133	189.95
687.323	204.28
687.513	239.1
687.702	275.96
687.892	208.38
688.082	284.16
688.272	214.52
688.461	255.48
688.651	355.83
688.841	294.4
689.03	132.61
689.22	146.94
689.41	263.68
689.599	202.24
689.789	216.57
689.979	355.83
690.168	216.57
690.358	292.35
690.547	210.43
690.737	214.52
690.926	224.76
691.116	189.95
691.305	314.88
691.495	280.06
691.684	187.9
691.874	157.18
692.063	298.49
692.252	343.55
692.442	194.05
692.631	187.9
692.82	202.24
693.01	216.57
693.199	128.51
693.388	232.96
693.578	255.48
693.767	189.95
693.956	257.53
694.146	183.81
694.335	204.28
694.524	97.79
694.713	232.96
694.902	210.43
695.092	237.05
695.281	243.2
695.47	189.95
695.659	169.47
695.848	103.93
696.037	230.91
696.226	290.3
696.415	241.15
696.604	239.1
696.793	249.34
696.982	192
697.171	376.31
697.36	118.27
697.549	153.09
697.738	5.63
697.927	118.27
698.116	122.37
698.305	181.76
698.494	226.81
698.683	138.75
698.872	366.07
699.061	214.52
699.25	194.05
699.438	204.28
699.627	95.74
699.816	390.65
700.005	9.73
700.193	77.31
700.382	255.48
700.571	269.82
700.76	187.9
700.948	138.75
701.137	304.64
701.326	185.85
701.514	97.79
701.703	189.95
701.892	192
702.08	398.84
702.269	200.19
702.457	134.65
702.646	192
702.834	155.13
703.023	253.44
703.212	253.44
703.4	173.57
703.589	146.94
703.777	134.65
703.965	97.79
704.154	198.14
704.342	128.51
704.531	136.7
704.719	204.28
704.907	243.2
705.096	155.13
705.284	93.69
705.472	265.72
705.661	280.06
705.849	173.57
706.037	222.72
706.226	165.37
706.414	275.96
706.602	151.04
706.79	228.86
706.979	130.56
707.167	198.14
707.355	50.69
707.543	220.67
707.731	159.23
707.919	179.71
708.107	157.18
708.296	151.04
708.484	134.65
708.672	218.62
708.86	196.09
709.048	232.96
709.236	224.76
709.424	183.81
709.612	126.46
709.8	183.81
709.988	126.46
710.176	294.4
710.364	222.72
710.551	159.23
710.739	161.28
710.927	151.04
711.115	269.82
711.303	304.64
711.491	314.88
711.679	169.47
711.866	288.25
712.054	173.57
712.242	224.76
712.43	144.89
712.617	204.28
712.805	257.53
712.993	196.09
713.181	101.89
713.368	275.96
713.556	124.41
713.744	87.55
713.931	450.04
714.119	257.53
714.306	87.55
714.494	198.14
714.682	196.09
714.869	42.5
715.057	171.52
715.244	38.4
715.432	247.29
715.619	161.28
715.807	177.66
715.994	159.23
716.182	228.86
716.369	204.28
716.556	228.86
716.744	126.46
716.931	34.3
717.119	208.38
717.306	235
717.493	321.02
717.681	171.52
717.868	120.32
718.055	331.26
718.242	189.95
718.43	208.38
718.617	306.68
718.804	224.76
718.991	327.16
719.179	220.67
719.366	187.9
719.553	288.25
719.74	198.14
719.927	278.01
720.114	220.67
720.301	163.33
720.488	220.67
720.676	185.85
720.863	396.79
721.05	364.03
721.237	304.64
721.424	304.64
721.611	253.44
721.798	128.51
721.985	165.37
722.172	239.1
722.358	214.52
722.545	275.96
722.732	192
722.919	382.46
723.106	247.29
723.293	226.81
723.48	241.15
723.667	253.44
723.853	290.3
724.04	327.16
724.227	284.16
724.414	220.67
724.6	239.1
724.787	321.02
724.974	454.14
725.161	245.24
725.347	245.24
725.534	255.48
725.72	282.11
725.907	370.17
726.094	318.97
726.28	210.43
726.467	222.72
726.653	261.63
726.84	331.26
727.027	456.19
727.213	243.2
727.4	327.16
727.586	286.2
727.773	214.52
727.959	269.82
728.145	224.76
728.332	306.68
728.518	271.87
728.705	327.16
728.891	327.16
729.077	296.44
729.264	159.23
729.45	259.58
729.636	409.08
729.823	300.54
730.009	337.4
730.195	331.26
730.382	327.16
730.568	245.24
730.754	351.74
730.94	239.1
731.126	292.35
731.313	378.36
731.499	278.01
731.685	417.27
731.871	366.07
732.057	364.03
732.243	366.07
732.429	439.8
732.615	429.56
732.801	417.27
732.987	306.68
733.173	349.69
733.359	237.05
733.545	302.59
733.731	263.68
733.917	361.98
734.103	380.41
734.289	435.71
734.475	265.72
734.661	517.62
734.847	392.7
735.033	331.26
735.219	402.94
735.404	366.07
735.59	255.48
735.776	327.16
735.962	351.74
736.148	345.59
736.333	343.55
736.519	343.55
736.705	325.12
736.89	284.16
737.076	288.25
737.262	259.58
737.447	292.35
737.633	292.35
737.819	443.9
738.004	380.41
738.19	409.08
738.375	355.83
738.561	433.66
738.747	370.17
738.932	255.48
739.118	499.19
739.303	425.47
739.489	349.69
739.674	357.88
739.859	286.2
740.045	345.59
740.23	257.53
740.416	282.11
740.601	357.88
740.786	355.83
740.972	337.4
741.157	273.92
741.342	259.58
741.528	304.64
741.713	445.95
741.898	243.2
742.084	331.26
742.269	267.77
742.454	331.26
742.639	519.67
742.824	378.36
743.01	482.81
743.195	404.99
743.38	376.31
743.565	302.59
743.75	390.65
743.935	323.07
744.12	441.85
744.305	378.36
744.49	323.07
744.675	310.78
744.86	294.4
745.045	372.22
745.23	394.75
745.415	370.17
745.6	386.55
745.785	216.57
745.97	392.7
746.155	407.03
746.34	355.83
746.525	308.73
746.71	366.07
746.895	255.48
747.079	278.01
747.264	343.55
747.449	392.7
747.634	484.86
747.819	286.2
748.003	310.78
748.188	275.96
748.373	402.94
748.557	404.99
748.742	355.83
748.927	400.89
749.111	253.44
749.296	357.88
749.481	361.98
749.665	321.02
749.85	224.76
750.034	415.23
750.219	368.12
750.404	257.53
750.588	341.5
750.773	280.06
750.957	314.88
751.141	241.15
751.326	376.31
751.51	210.43
751.695	331.26
751.879	290.3
752.064	433.66
752.248	265.72
752.432	468.47
752.617	318.97
752.801	298.49
752.985	230.91
753.17	351.74
753.354	265.72
753.538	343.55
753.722	216.57
753.907	151.04
754.091	278.01
754.275	331.26
754.459	171.52
754.643	200.19
754.828	235
755.012	302.59
755.196	237.05
755.38	224.76
755.564	165.37
755.748	212.48
755.932	314.88
756.116	282.11
756.3	239.1
756.484	241.15
756.668	308.73
756.852	138.75
757.036	290.3
757.22	282.11
757.404	210.43
757.588	237.05
757.772	232.96
757.956	237.05
758.14	325.12
758.323	179.71
758.507	251.39
758.691	220.67
758.875	298.49
759.059	339.45
759.242	146.94
759.426	175.61
759.61	177.66
759.794	194.05
759.977	259.58
760.161	450.04
760.345	378.36
760.528	361.98
760.712	228.86
760.895	235
761.079	165.37
761.263	122.37
761.446	194.05
761.63	237.05
761.813	220.67
761.997	161.28
762.18	173.57
762.364	212.48
762.547	58.88
762.731	159.23
762.914	142.85
763.098	173.57
763.281	161.28
763.464	126.46
763.648	241.15
763.831	136.7
764.015	73.21
764.198	265.72
764.381	140.8
764.564	163.33
764.748	140.8
764.931	237.05
765.114	122.37
765.297	294.4
765.481	155.13
765.664	224.76
765.847	155.13
766.03	280.06
766.213	81.41
766.397	161.28
766.58	69.12
766.763	204.28
766.946	144.89
767.129	151.04
767.312	163.33
767.495	85.5
767.678	151.04
767.861	161.28
768.044	189.95
768.227	200.19
768.41	151.04
768.593	103.93
768.776	122.37
768.959	128.51
769.142	314.88
769.324	140.8
769.507	218.62
769.69	140.8
769.873	138.75
770.056	382.46
770.239	269.82
770.421	167.42
770.604	167.42
770.787	97.79
770.97	206.33
771.152	101.89
771.335	101.89
771.518	-12.8
771.7	185.85
771.883	273.92
772.066	71.17
772.248	130.56
772.431	249.34
772.613	179.71
772.796	140.8
772.978	230.91
773.161	318.97
773.343	173.57
773.526	81.41
773.708	40.45
773.891	40.45
774.073	91.65
774.256	54.78
774.438	122.37
774.621	91.65
774.803	140.8
774.985	56.83
775.168	155.13
775.35	103.93
775.532	101.89
775.715	108.03
775.897	118.27
776.079	38.4
776.261	95.74
776.444	173.57
776.626	91.65
776.808	60.93
776.99	75.26
777.173	60.93
777.355	87.55
777.537	146.94
777.719	93.69
777.901	148.99
778.083	87.55
778.265	46.59
778.447	140.8
778.629	87.55
778.811	99.84
778.993	130.56
779.175	97.79
779.357	118.27
779.539	7.68
779.721	81.41
779.903	144.89
780.085	-23.04
780.267	112.13
780.449	112.13
780.631	196.09
780.812	161.28
780.994	83.45
781.176	81.41
781.358	58.88
781.54	144.89
781.721	159.23
781.903	179.71
782.085	58.88
782.267	171.52
782.448	-59.9
782.63	128.51
782.812	136.7
782.993	91.65
783.175	126.46
783.357	48.64
783.538	108.03
783.72	116.22
783.901	138.75
784.083	148.99
784.264	122.37
784.446	-16.9
784.627	24.06
784.809	136.7
784.99	48.64
785.172	93.69
785.353	140.8
785.535	130.56
785.716	48.64
785.897	24.06
786.079	73.21
786.26	13.82
786.441	134.65
786.623	-27.14
786.804	54.78
786.985	-49.66
787.167	161.28
787.348	75.26
787.529	95.74
787.71	171.52
787.891	46.59
788.073	-43.52
788.254	28.16
788.435	181.76
788.616	81.41
788.797	-8.7
788.978	44.54
789.159	28.16
789.34	95.74
789.522	19.97
789.703	15.87
789.884	148.99
790.065	95.74
790.246	206.33
790.427	34.3
790.607	155.13
790.788	228.86
790.969	50.69
791.15	52.74
791.331	-2.56
791.512	56.83
791.693	-96.77
791.874	101.89
792.054	271.87
792.235	122.37
792.416	-51.71
792.597	9.73
792.778	118.27
792.958	108.03
793.139	48.64
793.32	40.45
793.5	-8.7
793.681	118.27
793.862	62.98
794.042	108.03
794.223	-47.62
794.404	26.11
794.584	-64
794.765	54.78
794.945	65.02
795.126	15.87
795.306	79.36
795.487	48.64
795.667	13.82
795.848	54.78
796.028	44.54
796.209	71.17
796.389	54.78
796.57	62.98
796.75	1.54
796.93	67.07
797.111	69.12
797.291	13.82
797.471	42.5
797.652	-18.94
797.832	-8.7
798.012	138.75
798.192	-53.76
798.373	-78.33
798.553	32.26
798.733	93.69
798.913	9.73
799.093	62.98
799.274	40.45
799.454	42.5
799.634	132.61
799.814	48.64
799.994	3.58
800.174	91.65
800.354	13.82
800.534	-84.48
800.714	120.32
800.894	7.68
801.074	-41.47
801.254	42.5
801.434	60.93
801.614	48.64
801.794	-88.57
801.974	1912.29
802.154	85.5
802.334	114.17
802.514	32.26
802.693	19.97
802.873	34.3
803.053	89.6
803.233	112.13
803.413	3.58
803.592	-37.38
803.772	19.97
803.952	30.21
804.131	-35.33
804.311	97.79
804.491	214.52
804.67	-61.95
804.85	-45.57
805.03	28.16
805.209	79.36
805.389	-37.38
805.568	28.16
805.748	-8.7
805.928	11.78
806.107	44.54
806.287	48.64
806.466	44.54
806.646	34.3
806.825	-55.81
807.004	52.74
807.184	138.75
807.363	69.12
807.543	89.6
807.722	-55.81
807.901	151.04
808.081	105.98
808.26	-98.81
808.439	81.41
808.619	34.3
808.798	-55.81
808.977	24.06
809.156	130.56
809.336	50.69
809.515	79.36
809.694	-37.38
809.873	-29.18
810.052	97.79
810.231	198.14
810.411	19.97
810.59	157.18
810.769	44.54
810.948	153.09
811.127	-41.47
811.306	73.21
811.485	17.92
811.664	93.69
811.843	-4.61
812.022	95.74
812.201	-53.76
812.38	-14.85
812.559	9.73
812.737	22.02
812.916	-55.81
813.095	-43.52
813.274	42.5
813.453	-0.51
813.632	24.06
813.811	79.36
813.989	-33.28
814.168	54.78
814.347	-53.76
814.526	19.97
814.704	81.41
814.883	110.08
815.062	-6.66
815.24	103.93
815.419	-121.34
815.598	19.97
815.776	-61.95
815.955	44.54
816.133	-53.76
816.312	44.54
816.49	-104.96
816.669	46.59
816.847	28.16
817.026	54.78
817.204	32.26
817.383	-37.38
817.561	28.16
817.74	62.98
817.918	48.64
818.097	34.3
818.275	38.4
818.453	-0.51
818.632	44.54
818.81	58.88
818.988	48.64
819.167	11.78
819.345	26.11
819.523	-10.75
819.701	28.16
819.879	69.12
820.058	48.64
820.236	110.08
820.414	26.11
820.592	28.16
820.77	24.06
820.948	-23.04
821.127	9.73
821.305	85.5
821.483	-41.47
821.661	44.54
821.839	95.74
822.017	19.97
822.195	7.68
822.373	71.17
822.551	89.6
822.729	91.65
822.907	-94.72
823.085	11.78
823.262	67.07
823.44	50.69
823.618	-12.8
823.796	5.63
823.974	36.35
824.152	-29.18
824.329	-59.9
824.507	138.75
824.685	85.5
824.863	40.45
825.04	-72.19
825.218	48.64
825.396	24.06
825.574	56.83
825.751	60.93
825.929	-10.75
826.107	-2.56
826.284	46.59
826.462	-35.33
826.639	-47.62
826.817	-0.51
826.994	44.54
827.172	-18.94
827.349	95.74
827.527	36.35
827.704	-2.56
827.882	1.54
828.059	22.02
828.237	-70.14
828.414	56.83
828.591	-47.62
828.769	46.59
828.946	32.26
829.124	103.93
829.301	116.22
829.478	-41.47
829.655	40.45
829.833	-23.04
830.01	-59.9
830.187	17.92
830.364	-111.1
830.542	-4.61
830.719	81.41
830.896	52.74
831.073	11.78
831.25	-27.14
831.427	62.98
831.604	15.87
831.782	-90.62
831.959	108.03
832.136	26.11
832.313	60.93
832.49	-47.62
832.667	58.88
832.844	-12.8
833.021	165.37
833.198	5.63
833.374	110.08
833.551	69.12
833.728	-72.19
833.905	56.83
834.082	-115.2
834.259	56.83
834.436	124.41
834.612	-47.62
834.789	73.21
834.966	32.26
835.143	71.17
835.319	-131.58
835.496	60.93
835.673	77.31
835.85	142.85
836.026	-6.66
836.203	136.7
836.38	-35.33
836.556	7.68
836.733	-57.86
836.909	103.93
837.086	26.11
837.262	-35.33
837.439	-35.33
837.616	-16.9
837.792	-14.85
837.968	15.87
838.145	-111.1
838.321	-16.9
838.498	118.27
838.674	65.02
838.851	-10.75
839.027	-4.61
839.203	-37.38
839.38	24.06
839.556	-16.9
839.732	116.22
839.909	-16.9
840.085	9.73
840.261	-23.04
840.437	-39.42
840.614	32.26
840.79	97.79
840.966	3.58
841.142	95.74
841.318	-18.94
841.494	28.16
841.671	95.74
841.847	-10.75
842.023	-61.95
842.199	28.16
842.375	126.46
842.551	-25.09
842.727	52.74
842.903	142.85
843.079	-61.95
843.255	69.12
843.431	71.17
843.607	91.65
843.783	-4.61
843.959	73.21
844.134	-84.48
844.31	50.69
844.486	-98.81
844.662	-131.58
844.838	-16.9
845.013	69.12
845.189	89.6
845.365	65.02
845.541	91.65
845.716	-78.33
845.892	75.26
846.068	-35.33
846.244	-82.43
846.419	54.78
846.595	-45.57
846.77	3.58
846.946	91.65
847.122	3.58
847.297	-94.72
847.473	175.61
847.648	-35.33
847.824	50.69
847.999	-90.62
848.175	7.68
848.35	34.3
848.526	130.56
848.701	83.45
848.876	110.08
849.052	85.5
849.227	42.5
849.403	-25.09
849.578	-74.24
849.753	-12.8
849.929	28.16
850.104	-72.19
850.279	-53.76
850.454	89.6
850.63	44.54
850.805	-12.8
850.98	19.97
851.155	28.16
851.33	50.69
851.505	-47.62
851.681	93.69
851.856	-66.05
852.031	30.21
852.206	58.88
852.381	7.68
852.556	-8.7
852.731	97.79
852.906	73.21
853.081	28.16
853.256	75.26
853.431	3.58
853.606	-8.7
853.781	-55.81
853.956	-82.43
854.131	-16.9
854.305	-39.42
854.48	5.63
854.655	-59.9
854.83	-72.19
855.005	-0.51
855.18	11.78
855.354	42.5
855.529	30.21
855.704	26.11
855.879	-2.56
856.053	-20.99
856.228	-4.61
856.403	-23.04
856.577	15.87
856.752	-74.24
856.926	-86.53
857.101	-45.57
857.276	-39.42
857.45	30.21
857.625	69.12
857.799	24.06
857.974	99.84
858.148	-49.66
858.323	69.12
858.497	-80.38
858.672	-68.09
858.846	-102.91
859.02	153.09
859.195	-49.66
859.369	-18.94
859.543	9.73
859.718	-31.23
859.892	28.16
860.066	7.68
860.241	5.63
860.415	-18.94
860.589	-29.18
860.763	26.11
860.938	-10.75
861.112	36.35
861.286	-51.71
861.46	-25.09
861.634	11.78
861.808	93.69
861.982	-74.24
862.157	-74.24
862.331	-4.61
862.505	-141.82
862.679	-0.51
862.853	-57.86
863.027	-72.19
863.201	114.17
863.375	-61.95
863.549	60.93
863.722	52.74
863.896	120.32
864.07	-47.62
864.244	-37.38
864.418	60.93
864.592	7.68
864.766	36.35
864.939	15.87
865.113	-27.14
865.287	44.54
865.461	-59.9
865.634	5.63
865.808	-4.61
865.982	38.4
866.156	-35.33
866.329	-12.8
866.503	11.78
866.676	58.88
866.85	44.54
867.024	-55.81
867.197	91.65
867.371	79.36
867.544	-8.7
867.718	-57.86
867.891	81.41
868.065	-82.43
868.238	-23.04
868.412	95.74
868.585	5.63
868.759	19.97
868.932	-49.66
869.105	-59.9
869.279	65.02
869.452	-96.77
869.625	42.5
869.799	-51.71
869.972	-125.44
870.145	-51.71
870.319	87.55
870.492	48.64
870.665	-37.38
870.838	-98.81
871.011	-141.82
871.185	91.65
871.358	-94.72
871.531	60.93
871.704	3.58
871.877	30.21
872.05	-68.09
872.223	-78.33
872.396	132.61
872.569	114.17
872.742	-90.62
872.915	73.21
873.088	38.4
873.261	-41.47
873.434	9.73
873.607	54.78
873.78	40.45
873.953	-8.7
874.126	24.06
874.299	73.21
874.471	22.02
874.644	-82.43
874.817	48.64
874.99	58.88
875.163	-31.23
875.335	58.88
875.508	-25.09
875.681	122.37
875.853	71.17
876.026	28.16
876.199	75.26
876.371	-23.04
876.544	7.68
876.717	52.74
876.889	36.35
877.062	24.06
877.234	-51.71
877.407	-51.71
877.579	-4.61
877.752	-16.9
877.924	38.4
878.097	71.17
878.269	-16.9
878.442	77.31
878.614	-6.66
878.786	40.45
878.959	-4.61
879.131	-16.9
879.303	-70.14
879.476	-33.28
879.648	75.26
879.82	-37.38
879.993	-61.95
880.165	-18.94
880.337	-115.2
880.509	40.45
880.681	-66.05
880.854	-27.14
881.026	140.8
881.198	144.89
881.37	30.21
881.542	32.26
881.714	19.97
881.886	5.63
882.058	7.68
882.23	5.63
882.402	-6.66
882.574	-29.18
882.746	77.31
882.918	58.88
883.09	75.26
883.262	-76.29
883.434	97.79
883.606	-66.05
883.778	-4.61
883.95	97.79
884.122	-41.47
884.293	91.65
884.465	-4.61
884.637	67.07
884.809	-12.8
884.98	69.12
885.152	13.82
885.324	85.5
885.496	-39.42
885.667	-35.33
885.839	32.26
886.011	163.33
886.182	-23.04
886.354	85.5
886.525	-35.33
886.697	71.17
886.869	-66.05
887.04	-49.66
887.212	75.26
887.383	146.94
887.555	85.5
887.726	-27.14
887.897	-86.53
888.069	-12.8
888.24	15.87
888.412	-64
888.583	40.45
888.754	22.02
888.926	-27.14
889.097	-27.14
889.268	7.68
889.44	52.74
889.611	-18.94
889.782	-82.43
889.953	-72.19
890.125	122.37
890.296	-47.62
890.467	28.16
890.638	-31.23
890.809	26.11
890.98	13.82
891.151	52.74
891.323	130.56
891.494	7.68
891.665	-23.04
891.836	-0.51
892.007	-14.85
892.178	69.12
892.349	-4.61
892.52	-49.66
892.691	30.21
892.862	32.26
893.032	-115.2
893.203	50.69
893.374	9.73
893.545	91.65
893.716	-86.53
893.887	-35.33
894.057	3.58
894.228	-49.66
894.399	-25.09
894.57	120.32
894.74	-12.8
894.911	28.16
895.082	-12.8
895.253	-94.72
895.423	3.58
895.594	83.45
895.764	56.83
895.935	-123.39
896.106	-41.47
896.276	-49.66
896.447	26.11
896.617	-49.66
896.788	-107.01
896.958	-61.95
897.129	30.21
897.299	-16.9
897.47	71.17
897.64	67.07
897.81	-49.66
897.981	13.82
898.151	-92.67
898.322	-29.18
898.492	-0.51
898.662	-82.43
898.832	-57.86
899.003	-88.57
899.173	52.74
899.343	-51.71
899.513	-66.05
