Data from USB4F104151__64__11-30-54-365.txt Node

Date: Wed Feb 26 11:30:54 EST 2025
User: louis
Spectrometer: USB4F10415
Trigger mode: 4
Integration Time (sec): 1.000000E-1
Scans to average: 1
Electric dark correction enabled: true
Nonlinearity correction enabled: false
Boxcar width: 0
XAxis mode: Wavelengths
Number of Pixels in Spectrum: 3648
>>>>>Begin Spectral Data<<<<<
178.204	-346.45
178.424	-346.45
178.644	-346.45
178.864	-346.45
179.084	-434.51
179.304	-26.96
179.524	-20.82
179.744	32.43
179.964	59.05
180.184	-18.77
180.404	-8.53
180.624	-41.3
180.844	65.19
181.064	-82.26
181.283	40.62
181.503	-57.68
181.723	59.05
181.943	-158.03
182.163	175.78
182.383	18.09
182.602	61.1
182.822	114.34
183.042	120.49
183.262	5.8
183.482	-39.25
183.701	130.73
183.921	38.57
184.141	-82.26
184.361	130.73
184.58	44.71
184.8	1.71
185.02	-22.87
185.239	151.21
185.459	57
185.679	95.91
185.898	-69.97
186.118	-0.34
186.338	71.34
186.557	87.72
186.777	-110.93
186.997	18.09
187.216	5.8
187.436	153.26
187.655	89.77
187.875	167.59
188.095	34.47
188.314	110.25
188.534	11.95
188.753	-49.49
188.973	112.3
189.192	175.78
189.412	22.19
189.631	134.82
189.851	120.49
190.07	177.83
190.29	-57.68
190.509	20.14
190.729	20.14
190.948	130.73
191.168	267.94
191.387	42.67
191.607	-41.3
191.826	114.34
192.045	69.29
192.265	-24.92
192.484	132.78
192.704	38.57
192.923	13.99
193.142	237.22
193.362	106.15
193.581	89.77
193.8	112.3
194.02	65.19
194.239	59.05
194.458	38.57
194.678	-12.63
194.897	26.28
195.116	50.86
195.335	65.19
195.555	100.01
195.774	-18.77
195.993	163.5
196.212	28.33
196.432	-29.01
196.651	-49.49
196.87	9.9
197.089	247.46
197.308	54.95
197.528	114.34
197.747	-67.92
197.966	26.28
198.185	85.67
198.404	-16.73
198.623	145.06
198.842	128.68
199.062	167.59
199.281	77.48
199.5	32.43
199.719	83.63
199.938	52.91
200.157	124.58
200.376	153.26
200.595	202.41
200.814	114.34
201.033	-12.63
201.252	122.54
201.471	65.19
201.69	79.53
201.909	3.75
202.128	186.02
202.347	81.58
202.566	-0.34
202.785	-41.3
203.004	-12.63
203.223	177.83
203.442	18.09
203.661	-31.06
203.879	81.58
204.098	179.88
204.317	63.15
204.536	54.95
204.755	100.01
204.974	147.11
205.193	-20.82
205.411	104.11
205.63	161.45
205.849	-8.53
206.068	13.99
206.287	-53.59
206.505	124.58
206.724	50.86
206.943	-0.34
207.162	-6.49
207.381	100.01
207.599	32.43
207.818	52.91
208.037	13.99
208.255	87.72
208.474	114.34
208.693	42.67
208.911	42.67
209.13	67.24
209.349	36.52
209.567	61.1
209.786	79.53
210.005	114.34
210.223	128.68
210.442	-16.73
210.661	9.9
210.879	61.1
211.098	42.67
211.316	77.48
211.535	93.87
211.753	79.53
211.972	120.49
212.191	-6.49
212.409	-12.63
212.628	130.73
212.846	-33.11
213.065	36.52
213.283	124.58
213.502	52.91
213.72	61.1
213.938	22.19
214.157	-8.53
214.375	52.91
214.594	46.76
214.812	106.15
215.031	59.05
215.249	54.95
215.467	75.43
215.686	50.86
215.904	89.77
216.122	20.14
216.341	155.3
216.559	44.71
216.778	75.43
216.996	200.36
217.214	59.05
217.432	-31.06
217.651	-88.4
217.869	95.91
218.087	16.04
218.306	30.38
218.524	18.09
218.742	32.43
218.96	155.3
219.179	1.71
219.397	50.86
219.615	237.22
219.833	108.2
220.051	-8.53
220.27	126.63
220.488	163.5
220.706	44.71
220.924	-16.73
221.142	-2.39
221.36	143.02
221.578	73.39
221.796	-10.58
222.015	61.1
222.233	93.87
222.451	237.22
222.669	1.71
222.887	38.57
223.105	5.8
223.323	50.86
223.541	-20.82
223.759	102.06
223.977	34.47
224.195	110.25
224.413	118.44
224.631	73.39
224.849	48.81
225.067	214.7
225.285	-14.68
225.503	22.19
225.721	-63.83
225.939	122.54
226.157	-4.44
226.375	274.09
226.592	-33.11
226.81	83.63
227.028	50.86
227.246	165.54
227.464	36.52
227.682	71.34
227.9	83.63
228.117	32.43
228.335	138.92
228.553	-22.87
228.771	73.39
228.989	32.43
229.206	57
229.424	81.58
229.642	-20.82
229.86	-41.3
230.077	108.2
230.295	20.14
230.513	59.05
230.731	81.58
230.948	157.35
231.166	216.74
231.384	42.67
231.601	-16.73
231.819	210.6
232.037	-33.11
232.254	22.19
232.472	110.25
232.689	1.71
232.907	128.68
233.125	46.76
233.342	-88.4
233.56	-47.44
233.777	46.76
233.995	57
234.213	97.96
234.43	126.63
234.648	22.19
234.865	11.95
235.083	128.68
235.3	-0.34
235.518	110.25
235.735	116.39
235.953	102.06
236.17	38.57
236.388	-26.96
236.605	-10.58
236.822	100.01
237.04	167.59
237.257	69.29
237.475	-80.21
237.692	89.77
237.909	93.87
238.127	-49.49
238.344	26.28
238.562	134.82
238.779	11.95
238.996	-0.34
239.214	20.14
239.431	93.87
239.648	18.09
239.865	93.87
240.083	50.86
240.3	32.43
240.517	-6.49
240.735	11.95
240.952	104.11
241.169	69.29
241.386	57
241.603	-12.63
241.821	13.99
242.038	93.87
242.255	87.72
242.472	59.05
242.689	85.67
242.907	69.29
243.124	9.9
243.341	40.62
243.558	7.85
243.775	-117.08
243.992	-72.02
244.209	112.3
244.426	229.03
244.643	46.76
244.86	89.77
245.078	57
245.295	93.87
245.512	57
245.729	3.75
245.946	112.3
246.163	61.1
246.38	69.29
246.597	79.53
246.814	-0.34
247.031	11.95
247.248	-0.34
247.464	147.11
247.681	18.09
247.898	34.47
248.115	116.39
248.332	40.62
248.549	87.72
248.766	222.89
248.983	140.97
249.2	38.57
249.417	71.34
249.633	54.95
249.85	65.19
250.067	46.76
250.284	32.43
250.501	54.95
250.717	75.43
250.934	-92.5
251.151	-67.92
251.368	75.43
251.585	175.78
251.801	36.52
252.018	-18.77
252.235	108.2
252.451	-45.4
252.668	30.38
252.885	100.01
253.102	65.19
253.318	-53.59
253.535	46.76
253.752	-61.78
253.968	18.09
254.185	-123.22
254.401	126.63
254.618	69.29
254.835	-43.35
255.051	196.26
255.268	65.19
255.484	114.34
255.701	91.82
255.917	32.43
256.134	32.43
256.351	-26.96
256.567	-16.73
256.784	54.95
257	-31.06
257.217	42.67
257.433	93.87
257.65	79.53
257.866	157.35
258.082	-61.78
258.299	40.62
258.515	91.82
258.732	75.43
258.948	9.9
259.165	54.95
259.381	-86.36
259.597	77.48
259.814	-33.11
260.03	102.06
260.246	77.48
260.463	102.06
260.679	220.84
260.895	106.15
261.112	87.72
261.328	11.95
261.544	16.04
261.761	186.02
261.977	40.62
262.193	-57.68
262.409	57
262.626	48.81
262.842	30.38
263.058	18.09
263.274	114.34
263.49	48.81
263.707	50.86
263.923	42.67
264.139	-61.78
264.355	44.71
264.571	77.48
264.787	91.82
265.004	140.97
265.22	63.15
265.436	28.33
265.652	5.8
265.868	24.23
266.084	-57.68
266.3	26.28
266.516	-4.44
266.732	108.2
266.948	52.91
267.164	-24.92
267.38	52.91
267.596	87.72
267.812	132.78
268.028	32.43
268.244	71.34
268.46	57
268.676	-0.34
268.892	44.71
269.108	-41.3
269.324	30.38
269.54	-92.5
269.756	24.23
269.972	42.67
270.188	16.04
270.403	42.67
270.619	63.15
270.835	130.73
271.051	65.19
271.267	-18.77
271.483	38.57
271.698	112.3
271.914	59.05
272.13	34.47
272.346	77.48
272.562	36.52
272.777	104.11
272.993	-12.63
273.209	20.14
273.425	122.54
273.64	-2.39
273.856	91.82
274.072	-6.49
274.287	110.25
274.503	110.25
274.719	110.25
274.934	65.19
275.15	-10.58
275.366	95.91
275.581	-4.44
275.797	75.43
276.012	61.1
276.228	69.29
276.444	77.48
276.659	112.3
276.875	-2.39
277.09	-0.34
277.306	24.23
277.521	128.68
277.737	34.47
277.952	118.44
278.168	26.28
278.383	57
278.599	61.1
278.814	89.77
279.03	11.95
279.245	106.15
279.461	42.67
279.676	143.02
279.892	-31.06
280.107	-4.44
280.322	11.95
280.538	91.82
280.753	-35.16
280.969	159.4
281.184	32.43
281.399	97.96
281.615	83.63
281.83	91.82
282.045	-12.63
282.26	7.85
282.476	24.23
282.691	36.52
282.906	147.11
283.122	63.15
283.337	-37.2
283.552	61.1
283.767	-39.25
283.983	97.96
284.198	75.43
284.413	38.57
284.628	-96.6
284.843	140.97
285.058	134.82
285.274	57
285.489	54.95
285.704	169.64
285.919	32.43
286.134	-0.34
286.349	61.1
286.564	48.81
286.779	179.88
286.995	67.24
287.21	-88.4
287.425	73.39
287.64	16.04
287.855	18.09
288.07	-8.53
288.285	100.01
288.5	143.02
288.715	106.15
288.93	69.29
289.145	22.19
289.36	124.58
289.575	-6.49
289.79	100.01
290.004	36.52
290.219	116.39
290.434	-22.87
290.649	-26.96
290.864	159.4
291.079	-29.01
291.294	42.67
291.509	91.82
291.724	24.23
291.938	-22.87
292.153	83.63
292.368	34.47
292.583	112.3
292.798	93.87
293.012	18.09
293.227	52.91
293.442	61.1
293.657	128.68
293.871	136.87
294.086	65.19
294.301	177.83
294.516	95.91
294.73	13.99
294.945	-37.2
295.16	65.19
295.374	71.34
295.589	32.43
295.804	16.04
296.018	16.04
296.233	147.11
296.447	9.9
296.662	-57.68
296.877	206.5
297.091	136.87
297.306	42.67
297.52	11.95
297.735	104.11
297.949	26.28
298.164	34.47
298.378	93.87
298.593	-16.73
298.807	16.04
299.022	18.09
299.236	239.27
299.451	91.82
299.665	9.9
299.88	50.86
300.094	28.33
300.309	65.19
300.523	159.4
300.737	-18.77
300.952	18.09
301.166	52.91
301.381	-45.4
301.595	5.8
301.809	48.81
302.024	11.95
302.238	69.29
302.452	122.54
302.667	71.34
302.881	89.77
303.095	28.33
303.309	118.44
303.524	-18.77
303.738	-43.35
303.952	24.23
304.166	73.39
304.381	-86.36
304.595	177.83
304.809	-0.34
305.023	22.19
305.237	34.47
305.452	-37.2
305.666	140.97
305.88	104.11
306.094	52.91
306.308	124.58
306.522	145.06
306.736	67.24
306.95	108.2
307.164	81.58
307.379	3.75
307.593	106.15
307.807	54.95
308.021	136.87
308.235	20.14
308.449	-29.01
308.663	61.1
308.877	177.83
309.091	34.47
309.305	87.72
309.519	-203.09
309.733	91.82
309.947	-63.83
310.161	126.63
310.374	20.14
310.588	110.25
310.802	-2.39
311.016	-16.73
311.23	116.39
311.444	5.8
311.658	-20.82
311.872	134.82
312.085	83.63
312.299	89.77
312.513	202.41
312.727	16.04
312.941	11.95
313.154	38.57
313.368	-10.58
313.582	32.43
313.796	122.54
314.009	34.47
314.223	140.97
314.437	42.67
314.651	79.53
314.864	-10.58
315.078	32.43
315.292	-92.5
315.505	46.76
315.719	54.95
315.933	169.64
316.146	-78.16
316.36	-16.73
316.573	212.65
316.787	118.44
317.001	118.44
317.214	-20.82
317.428	36.52
317.641	-0.34
317.855	7.85
318.068	126.63
318.282	40.62
318.495	161.45
318.709	40.62
318.922	-0.34
319.136	126.63
319.349	116.39
319.563	-0.34
319.776	126.63
319.99	-112.98
320.203	138.92
320.417	34.47
320.63	42.67
320.843	179.88
321.057	36.52
321.27	65.19
321.483	100.01
321.697	204.46
321.91	91.82
322.124	87.72
322.337	114.34
322.55	-2.39
322.763	59.05
322.977	46.76
323.19	-39.25
323.403	-18.77
323.617	71.34
323.83	159.4
324.043	-10.58
324.256	38.57
324.469	-63.83
324.683	132.78
324.896	50.86
325.109	13.99
325.322	5.8
325.535	116.39
325.748	102.06
325.962	157.35
326.175	22.19
326.388	108.2
326.601	147.11
326.814	83.63
327.027	57
327.24	97.96
327.453	-0.34
327.666	147.11
327.879	83.63
328.092	114.34
328.305	161.45
328.518	18.09
328.731	13.99
328.944	57
329.157	108.2
329.37	24.23
329.583	222.89
329.796	130.73
330.009	-29.01
330.222	106.15
330.435	81.58
330.648	100.01
330.861	71.34
331.073	7.85
331.286	61.1
331.499	52.91
331.712	102.06
331.925	44.71
332.138	16.04
332.35	175.78
332.563	-12.63
332.776	104.11
332.989	-43.35
333.202	26.28
333.414	65.19
333.627	95.91
333.84	-0.34
334.053	65.19
334.265	20.14
334.478	26.28
334.691	116.39
334.903	30.38
335.116	3.75
335.329	67.24
335.541	87.72
335.754	210.6
335.966	-2.39
336.179	-16.73
336.392	18.09
336.604	42.67
336.817	124.58
337.029	85.67
337.242	79.53
337.454	206.5
337.667	132.78
337.88	122.54
338.092	30.38
338.305	93.87
338.517	-33.11
338.729	161.45
338.942	167.59
339.154	-106.84
339.367	-16.73
339.579	81.58
339.792	-18.77
340.004	83.63
340.217	-4.44
340.429	48.81
340.641	-37.2
340.854	24.23
341.066	1.71
341.278	136.87
341.491	177.83
341.703	75.43
341.915	-0.34
342.128	79.53
342.34	73.39
342.552	13.99
342.764	18.09
342.977	79.53
343.189	118.44
343.401	40.62
343.613	-45.4
343.826	44.71
344.038	77.48
344.25	9.9
344.462	-49.49
344.674	81.58
344.886	-24.92
345.099	52.91
345.311	83.63
345.523	-35.16
345.735	-39.25
345.947	100.01
346.159	20.14
346.371	30.38
346.583	13.99
346.795	177.83
347.007	81.58
347.219	79.53
347.431	112.3
347.643	143.02
347.855	9.9
348.067	175.78
348.279	26.28
348.491	151.21
348.703	67.24
348.915	-43.35
349.127	-41.3
349.339	73.39
349.551	28.33
349.763	71.34
349.975	40.62
350.187	63.15
350.399	151.21
350.61	50.86
350.822	1.71
351.034	112.3
351.246	59.05
351.458	-4.44
351.669	138.92
351.881	130.73
352.093	81.58
352.305	114.34
352.517	48.81
352.728	151.21
352.94	85.67
353.152	30.38
353.363	34.47
353.575	85.67
353.787	173.74
353.999	-37.2
354.21	171.69
354.422	-57.68
354.633	-16.73
354.845	5.8
355.057	120.49
355.268	81.58
355.48	73.39
355.692	-82.26
355.903	-12.63
356.115	5.8
356.326	-55.64
356.538	169.64
356.749	40.62
356.961	102.06
357.172	114.34
357.384	-10.58
357.595	224.94
357.807	65.19
358.018	65.19
358.23	36.52
358.441	155.3
358.653	34.47
358.864	48.81
359.075	42.67
359.287	116.39
359.498	79.53
359.709	173.74
359.921	138.92
360.132	26.28
360.344	65.19
360.555	24.23
360.766	89.77
360.977	-20.82
361.189	175.78
361.4	28.33
361.611	163.5
361.823	153.26
362.034	130.73
362.245	-18.77
362.456	93.87
362.667	52.91
362.879	-0.34
363.09	54.95
363.301	134.82
363.512	42.67
363.723	-24.92
363.935	46.76
364.146	138.92
364.357	59.05
364.568	-12.63
364.779	16.04
364.99	130.73
365.201	-14.68
365.412	214.7
365.623	-98.64
365.834	61.1
366.045	71.34
366.256	85.67
366.467	93.87
366.678	32.43
366.889	61.1
367.1	-37.2
367.311	153.26
367.522	61.1
367.733	112.3
367.944	59.05
368.155	30.38
368.366	89.77
368.577	-26.96
368.788	130.73
368.999	-24.92
369.209	18.09
369.42	171.69
369.631	257.7
369.842	79.53
370.053	52.91
370.264	69.29
370.474	5.8
370.685	110.25
370.896	71.34
371.107	161.45
371.317	153.26
371.528	26.28
371.739	126.63
371.95	87.72
372.16	155.3
372.371	-0.34
372.582	61.1
372.792	83.63
373.003	5.8
373.214	114.34
373.424	128.68
373.635	36.52
373.846	91.82
374.056	22.19
374.267	106.15
374.477	65.19
374.688	5.8
374.898	151.21
375.109	59.05
375.319	20.14
375.53	83.63
375.74	83.63
375.951	59.05
376.161	110.25
376.372	120.49
376.582	20.14
376.793	5.8
377.003	-53.59
377.214	-53.59
377.424	171.69
377.635	18.09
377.845	7.85
378.055	186.02
378.266	-4.44
378.476	32.43
378.686	77.48
378.897	65.19
379.107	116.39
379.317	100.01
379.528	61.1
379.738	143.02
379.948	30.38
380.158	81.58
380.369	87.72
380.579	122.54
380.789	26.28
380.999	85.67
381.21	102.06
381.42	140.97
381.63	40.62
381.84	151.21
382.05	89.77
382.261	71.34
382.471	75.43
382.681	-35.16
382.891	210.6
383.101	106.15
383.311	-67.92
383.521	42.67
383.731	130.73
383.941	71.34
384.151	108.2
384.361	20.14
384.571	126.63
384.781	132.78
384.991	181.93
385.201	181.93
385.411	89.77
385.621	151.21
385.831	89.77
386.041	-8.53
386.251	108.2
386.461	91.82
386.671	79.53
386.881	112.3
387.091	48.81
387.301	79.53
387.511	89.77
387.72	112.3
387.93	106.15
388.14	-108.88
388.35	5.8
388.56	75.43
388.769	89.77
388.979	110.25
389.189	18.09
389.399	75.43
389.609	46.76
389.818	132.78
390.028	79.53
390.238	81.58
390.447	50.86
390.657	130.73
390.867	69.29
391.076	-67.92
391.286	97.96
391.496	143.02
391.705	1.71
391.915	200.36
392.125	50.86
392.334	1.71
392.544	126.63
392.753	73.39
392.963	-45.4
393.172	102.06
393.382	5.8
393.591	155.3
393.801	38.57
394.01	175.78
394.22	108.2
394.429	54.95
394.639	16.04
394.848	161.45
395.058	77.48
395.267	32.43
395.477	112.3
395.686	81.58
395.895	153.26
396.105	186.02
396.314	54.95
396.524	108.2
396.733	20.14
396.942	97.96
397.152	108.2
397.361	30.38
397.57	104.11
397.78	93.87
397.989	48.81
398.198	120.49
398.407	52.91
398.617	110.25
398.826	40.62
399.035	36.52
399.244	104.11
399.453	85.67
399.663	116.39
399.872	126.63
400.081	-18.77
400.29	93.87
400.499	-35.16
400.708	136.87
400.917	42.67
401.127	42.67
401.336	32.43
401.545	179.88
401.754	175.78
401.963	38.57
402.172	20.14
402.381	93.87
402.59	100.01
402.799	28.33
403.008	104.11
403.217	114.34
403.426	124.58
403.635	-22.87
403.844	46.76
404.053	69.29
404.262	52.91
404.471	202.41
404.68	36.52
404.888	-35.16
405.097	102.06
405.306	124.58
405.515	179.88
405.724	91.82
405.933	114.34
406.142	175.78
406.35	163.5
406.559	28.33
406.768	69.29
406.977	118.44
407.185	-0.34
407.394	22.19
407.603	-4.44
407.812	67.24
408.02	157.35
408.229	54.95
408.438	104.11
408.646	-59.73
408.855	89.77
409.064	122.54
409.272	46.76
409.481	93.87
409.69	3.75
409.898	-80.21
410.107	91.82
410.315	100.01
410.524	57
410.733	112.3
410.941	95.91
411.15	145.06
411.358	130.73
411.567	112.3
411.775	104.11
411.984	85.67
412.192	194.22
412.401	63.15
412.609	218.79
412.818	157.35
413.026	116.39
413.234	-12.63
413.443	65.19
413.651	-0.34
413.86	81.58
414.068	116.39
414.276	177.83
414.485	24.23
414.693	151.21
414.901	175.78
415.11	161.45
415.318	34.47
415.526	104.11
415.734	91.82
415.943	85.67
416.151	100.01
416.359	93.87
416.567	59.05
416.776	128.68
416.984	112.3
417.192	226.98
417.4	79.53
417.608	20.14
417.817	-39.25
418.025	196.26
418.233	198.31
418.441	16.04
418.649	16.04
418.857	71.34
419.065	188.07
419.273	7.85
419.481	65.19
419.689	16.04
419.897	-43.35
420.105	-16.73
420.313	151.21
420.521	257.7
420.729	112.3
420.937	36.52
421.145	-43.35
421.353	165.54
421.561	261.8
421.769	54.95
421.977	124.58
422.185	140.97
422.393	26.28
422.601	97.96
422.809	18.09
423.017	59.05
423.224	81.58
423.432	138.92
423.64	91.82
423.848	151.21
424.056	-33.11
424.263	151.21
424.471	91.82
424.679	265.89
424.887	-26.96
425.094	163.5
425.302	120.49
425.51	50.86
425.718	124.58
425.925	57
426.133	65.19
426.341	245.41
426.548	52.91
426.756	89.77
426.964	97.96
427.171	48.81
427.379	110.25
427.586	118.44
427.794	63.15
428.001	95.91
428.209	120.49
428.417	181.93
428.624	118.44
428.832	177.83
429.039	155.3
429.247	83.63
429.454	218.79
429.662	261.8
429.869	147.11
430.076	177.83
430.284	169.64
430.491	288.42
430.699	171.69
430.906	319.14
431.114	132.78
431.321	247.46
431.528	79.53
431.736	134.82
431.943	204.46
432.15	198.31
432.358	294.57
432.565	269.99
432.772	95.91
432.979	280.23
433.187	145.06
433.394	239.27
433.601	145.06
433.808	263.85
434.016	276.13
434.223	245.41
434.43	202.41
434.637	300.71
434.844	337.57
435.052	284.33
435.259	302.76
435.466	386.72
435.673	247.46
435.88	298.66
436.087	368.29
436.294	323.24
436.501	399.01
436.708	388.77
436.915	376.48
437.122	392.87
437.329	306.85
437.537	351.91
437.743	358.05
437.95	552.61
438.157	417.44
438.364	380.58
438.571	450.21
438.778	534.18
438.985	509.6
439.192	542.37
439.399	509.6
439.606	554.66
439.813	609.95
440.02	757.41
440.227	661.15
440.433	695.97
440.64	704.16
440.847	601.76
441.054	726.69
441.261	810.65
441.467	747.17
441.674	669.34
441.881	876.19
442.088	689.82
442.294	816.8
442.501	874.14
442.708	1040.03
442.914	833.18
443.121	1033.88
443.328	1115.8
443.534	1119.9
443.741	1003.16
443.948	908.96
444.154	1160.86
444.361	1318.55
444.568	1138.33
444.774	1259.16
444.981	1158.81
445.187	1353.37
445.394	1365.65
445.6	1347.22
445.807	1552.02
446.013	1451.67
446.22	1459.86
446.426	1648.27
446.633	1722
446.839	1896.08
447.046	1676.95
447.252	1947.28
447.459	1906.32
447.665	1986.19
447.871	2117.26
448.078	2279.05
448.284	2088.59
448.491	2371.21
448.697	2455.17
448.903	2549.38
449.11	2514.56
449.316	2610.82
449.522	2723.46
449.728	2887.29
449.935	3008.12
450.141	2885.25
450.347	3227.26
450.553	3235.45
450.76	3305.08
450.966	3602.04
451.172	3569.27
451.378	3581.56
451.584	3632.76
451.791	4087.4
451.997	4142.7
452.203	4202.09
452.409	4474.47
452.615	4597.35
452.821	4437.61
453.027	4480.61
453.233	5011.04
453.44	5011.04
453.646	5127.77
453.852	5412.44
454.058	5725.78
454.264	5893.71
454.47	6260.3
454.676	6243.92
454.882	6573.64
455.088	6381.13
455.294	6886.98
455.5	7288.38
455.705	7726.64
455.911	7661.11
456.117	7988.78
456.323	8293.93
456.529	8353.32
456.735	8947.23
456.941	9291.29
457.147	9766.42
457.352	9936.4
457.558	10208.78
457.764	10788.36
457.97	10939.91
458.176	11539.96
458.381	12033.52
458.587	12492.27
458.793	13151.71
458.999	12942.82
459.204	14556.62
459.41	14992.84
459.616	14849.48
459.821	15623.61
460.027	16504.24
460.233	17040.81
460.438	16989.61
460.644	18189.72
460.85	18310.55
461.055	18980.23
461.261	19977.59
461.466	19539.33
461.672	19959.16
461.878	22107.48
462.083	21902.68
462.289	22498.64
462.494	23010.64
462.7	23481.67
462.905	23713.09
463.111	25976.09
463.316	27090.19
463.522	27495.69
463.727	28347.64
463.932	29568.23
464.138	30338.27
464.343	31429.84
464.549	31909.06
464.754	34256.03
464.959	35079.32
465.165	35404.94
465.37	35251.34
465.575	34964.63
465.781	37590.13
465.986	38769.76
466.191	38134.88
466.397	38806.62
466.602	37745.77
466.807	39701.58
467.012	40191.05
467.218	41057.34
467.423	40899.64
467.628	42591.26
467.833	44168.2
468.038	43678.74
468.244	42673.18
468.449	44622.85
468.654	44110.86
468.859	44041.23
469.064	44164.1
469.269	43279.38
469.474	43371.54
469.679	44557.31
469.885	43369.49
470.09	43568.15
470.295	43897.87
470.5	42884.12
470.705	43512.85
470.91	41917.48
471.115	41675.82
471.32	42247.21
471.525	42095.66
471.73	41174.07
471.935	40240.2
472.139	39271.51
472.344	39318.61
472.549	38786.14
472.754	37971.05
472.959	36856.95
473.164	36009.09
473.369	35404.94
473.574	36594.81
473.778	35523.72
473.983	34983.06
474.188	34622.62
474.393	33117.36
474.598	32720.06
474.802	32079.04
475.007	31444.17
475.212	31159.5
475.417	30022.88
475.621	29797.6
475.826	29263.08
476.031	28634.36
476.235	28124.41
476.44	28386.55
476.645	27325.71
476.849	27311.37
477.054	26725.65
477.259	25828.64
477.463	25969.95
477.668	25376.04
477.872	25236.78
478.077	24702.26
478.282	24053.05
478.486	23948.61
478.691	23614.79
478.895	23375.17
479.1	23110.99
479.304	23164.23
479.509	22498.64
479.713	22576.47
479.918	22177.11
480.122	21525.86
480.326	21886.3
480.531	21796.19
480.735	21538.15
480.94	21032.3
481.144	21601.63
481.348	20610.42
481.553	20874.6
481.757	20190.58
481.961	20258.17
482.166	20610.42
482.37	20174.2
482.574	19979.64
482.778	19983.74
482.983	19854.72
483.187	19707.26
483.391	19596.67
483.595	19346.82
483.8	18867.59
484.004	18916.75
484.208	19111.3
484.412	18701.71
484.616	18572.69
484.821	18343.31
485.025	17835.42
485.229	18025.88
485.433	17413.54
485.637	17497.5
485.841	17274.28
486.045	17102.25
486.249	16768.43
486.453	16289.2
486.657	16504.24
486.861	16162.23
487.065	15502.78
487.269	15502.78
487.473	15039.94
487.677	15365.57
487.881	14900.68
488.085	14595.53
488.289	14583.24
488.493	13966.81
488.697	14022.1
488.901	13600.22
489.105	13409.76
489.309	13530.59
489.512	13125.09
489.716	12805.61
489.92	12574.19
490.124	12439.02
490.328	12551.66
490.531	11791.86
490.735	12011
490.939	11539.96
491.143	11245.06
491.346	11109.89
491.55	11122.18
491.754	10827.27
491.958	10522.12
492.161	10216.97
492.365	10477.07
492.569	10083.86
492.772	10030.61
492.976	9938.45
493.18	9709.08
493.383	9612.82
493.587	9788.95
493.79	9743.89
493.994	9317.92
494.197	9256.48
494.401	9190.94
494.605	8988.19
494.808	9014.82
495.012	9057.82
495.215	8941.09
495.419	8945.19
495.622	8402.47
495.825	8713.77
496.029	8797.73
496.232	8635.94
496.436	8613.42
496.639	8736.29
496.843	8435.24
497.046	8482.35
497.249	8637.99
497.453	8734.25
497.656	8609.32
497.859	8572.46
498.063	8609.32
498.266	8736.29
498.469	8629.8
498.673	8752.68
498.876	8826.4
499.079	8752.68
499.282	8652.33
499.485	9178.65
499.689	8984.1
499.892	9115.17
500.095	8816.16
500.298	9305.63
500.501	8773.16
500.705	9215.52
500.908	9016.87
501.111	9207.33
501.314	9532.95
501.517	9592.34
501.72	9747.99
501.923	9700.89
502.126	9901.59
502.329	10030.61
502.532	10046.99
502.735	10071.57
502.938	10505.74
503.141	10421.77
503.344	10587.66
503.547	10710.54
503.75	10546.7
503.953	10984.96
504.156	10935.81
504.359	11329.02
504.562	11230.72
504.765	11826.68
504.968	11705.85
505.17	11982.32
505.373	12013.04
505.576	12238.32
505.779	12498.41
505.982	12729.83
506.185	13198.82
506.387	13161.95
506.59	13286.88
506.793	13751.77
506.996	13983.19
507.198	14339.54
507.401	14360.02
507.604	14685.64
507.807	15041.99
508.009	15267.27
508.212	15463.87
508.415	15828.41
508.617	16059.83
508.82	16549.29
509.022	16623.02
509.225	17331.62
509.428	17618.33
509.63	17866.14
509.833	18175.38
510.035	18914.7
510.238	18853.26
510.44	19522.94
510.643	19981.69
510.845	20716.91
511.048	20567.41
511.25	21202.28
511.453	21677.41
511.655	22549.84
511.858	22777.17
512.06	23156.04
512.262	23592.26
512.465	24163.64
512.667	24603.96
512.87	25247.02
513.072	25453.86
513.274	26610.96
513.477	26819.86
513.679	27784.45
513.881	28353.79
514.084	28753.14
514.286	29510.89
514.488	29914.34
514.69	31493.32
514.893	31521.99
515.095	31757.51
515.297	32797.88
515.499	33301.68
515.701	34043.04
515.904	34722.97
516.106	36074.63
516.308	36041.86
516.51	36789.37
516.712	37614.7
516.914	38458.46
517.116	39265.36
517.318	39965.77
517.52	40545.34
517.722	40803.39
517.925	41659.44
518.127	42988.57
518.329	43310.1
518.531	43803.66
518.733	45003.77
518.935	45503.48
519.136	45806.58
519.338	47084.51
519.54	47698.9
519.742	48686.02
519.944	48669.64
520.146	50148.27
520.348	50529.19
520.55	50647.97
520.752	51561.37
520.954	52925.32
521.155	52417.42
521.357	53670.78
521.559	53795.7
521.761	54719.34
521.963	54764.39
522.164	55442.27
522.366	55804.76
522.568	56922.95
522.77	56888.13
522.971	57680.7
523.173	57207.62
523.375	58348.34
523.576	58065.72
523.778	58204.98
523.98	58968.87
524.181	59261.73
524.383	59286.31
524.584	59718.43
524.786	59691.8
524.988	59317.03
525.189	60205.84
525.391	60218.13
525.592	60013.33
525.794	60125.97
525.995	59939.61
526.197	59749.15
526.398	59867.93
526.6	59927.32
526.801	59632.41
527.003	59509.53
527.204	58981.16
527.406	59974.42
527.607	59085.61
527.808	58878.76
528.01	57695.03
528.211	57807.67
528.412	58942.25
528.614	57594.68
528.815	57676.6
529.016	57973.56
529.218	56552.27
529.419	56394.57
529.62	55655.26
529.822	55630.68
530.023	54860.65
530.224	54735.72
530.425	53912.44
530.626	53318.53
530.828	52464.52
531.029	52867.97
531.23	51651.48
531.431	51123.1
531.632	50355.11
531.833	50234.28
532.035	49648.57
532.236	49116.09
532.437	48808.9
532.638	47739.86
532.839	47432.66
533.04	46982.11
533.241	45904.88
533.442	46423.01
533.643	45478.9
533.844	44481.54
534.045	44270.6
534.246	43240.47
534.447	43023.39
534.648	42511.39
534.849	42064.94
535.05	41055.29
535.251	40780.86
535.451	39654.48
535.652	39683.15
535.853	39007.32
536.054	38886.49
536.255	38433.89
536.456	37459.06
536.657	37436.53
536.857	36758.65
537.058	36138.12
537.259	35746.95
537.46	35542.16
537.66	34618.52
537.861	34247.84
538.062	33383.6
538.263	33653.93
538.463	33027.25
538.664	33060.02
538.865	32373.95
539.065	32269.5
539.266	31438.03
539.466	31419.6
539.667	30696.66
539.868	30860.5
540.068	30016.74
540.269	29791.46
540.469	29338.86
540.67	29086.96
540.87	28916.98
541.071	28194.04
541.271	28093.69
541.472	27811.07
541.672	27475.21
541.873	27022.61
542.073	26580.25
542.274	26705.17
542.474	26101.02
542.675	25632.04
542.875	25922.85
543.075	25371.94
543.276	24909.1
543.476	25115.95
543.676	24505.65
543.877	24470.84
544.077	24063.29
544.277	23852.35
544.478	23405.89
544.678	23170.38
544.878	23067.98
545.078	23119.18
545.279	22492.5
545.479	21980.51
545.679	22195.54
545.879	21761.37
546.079	21714.27
546.28	21124.46
546.48	20878.7
546.68	20772.21
546.88	20721.01
547.08	20118.9
547.28	20112.76
547.48	19608.96
547.68	19852.67
547.88	19137.93
548.081	19367.3
548.281	18732.43
548.481	18603.41
548.681	18462.1
548.881	18345.36
549.081	17966.49
549.28	17663.39
549.48	17360.29
549.68	17188.26
549.88	17216.93
550.08	16342.45
550.28	16436.66
550.48	16504.24
550.68	16229.81
550.88	15867.32
551.08	15717.82
551.279	15418.82
551.479	15136.2
551.679	14941.64
551.879	14726.6
552.079	14530
552.278	14456.27
552.478	14187.99
552.678	13956.57
552.878	13817.3
553.077	13522.4
553.277	13454.81
553.477	13100.51
553.676	13104.61
553.876	12750.31
554.076	12445.16
554.275	12543.47
554.475	12000.76
554.674	11957.75
554.874	11828.73
555.074	11593.21
555.273	11472.38
555.473	11306.49
555.672	10991.11
555.872	10872.32
556.071	11011.59
556.271	10583.56
556.47	10378.76
556.67	10135.06
556.869	10001.94
557.068	9971.22
557.268	9709.08
557.467	9659.93
557.667	9348.64
557.866	9229.85
558.065	9092.64
558.265	8764.96
558.464	8859.17
558.663	8758.82
558.863	8674.85
559.062	8515.11
559.261	8490.54
559.461	8093.23
559.66	7992.88
559.859	7816.76
560.058	7728.69
560.258	7353.91
560.457	7466.55
560.656	7634.49
560.855	7333.43
561.054	7259.71
561.253	7233.08
561.453	6946.37
561.652	6817.35
561.851	6706.76
562.05	6751.81
562.249	6526.54
562.448	6563.4
562.647	6260.3
562.846	6170.19
563.045	6280.78
563.244	6123.09
563.443	5992.02
563.642	5895.76
563.841	5762.64
564.04	5668.44
564.239	5600.85
564.438	5516.89
564.637	5404.25
564.836	5406.3
565.035	5348.95
565.234	5168.73
565.432	5103.2
565.631	5250.65
565.83	5101.15
566.029	4849.25
566.228	4703.84
566.427	4798.05
566.625	4724.32
566.824	4673.12
567.023	4681.32
567.222	4460.13
567.42	4474.47
567.619	4421.22
567.818	4390.5
568.016	4451.94
568.215	4241
568.414	4118.12
568.612	4208.23
568.811	4023.92
569.01	4023.92
569.208	3946.09
569.407	3888.75
569.605	3913.33
569.804	3808.88
570.002	3692.15
570.201	3501.69
570.4	3628.66
570.598	3561.08
570.797	3540.6
570.995	3403.38
571.193	3425.91
571.392	3524.21
571.59	3247.74
571.789	3364.47
571.987	3300.98
572.186	3419.77
572.384	3157.63
572.582	3065.47
572.781	3059.32
572.979	2834.05
573.177	2850.43
573.376	2915.97
573.574	2899.58
573.772	2666.11
573.971	2752.13
574.169	2696.83
574.367	2727.55
574.565	2606.72
574.763	2629.25
574.962	2506.37
575.16	2469.51
575.358	2444.93
575.556	2473.6
575.754	2340.49
575.952	2416.26
576.151	2375.3
576.349	2342.53
576.547	2164.36
576.745	2174.6
576.943	2184.84
577.141	2104.97
577.339	2115.21
577.537	1994.38
577.735	2160.27
577.933	1949.32
578.131	1891.98
578.329	2043.53
578.527	1842.83
578.725	1951.37
578.923	1812.11
579.121	1842.83
579.319	1668.75
579.516	1760.91
579.714	2031.24
579.912	1695.38
580.11	1478.29
580.308	1621.65
580.506	1588.88
580.704	1552.02
580.901	1568.4
581.099	1607.31
581.297	1564.31
581.495	1558.16
581.692	1482.39
581.89	1613.46
582.088	1480.34
582.285	1490.58
582.483	1371.8
582.681	1341.08
582.878	1285.78
583.076	1384.09
583.274	1437.33
583.471	1371.8
583.669	1328.79
583.866	1230.49
584.064	1296.02
584.262	1128.09
584.459	1171.1
584.657	1210.01
584.854	1269.4
585.052	1236.63
585.249	1226.39
585.447	1126.04
585.644	1066.65
585.841	1160.86
586.039	1191.58
586.236	1222.3
586.434	1111.71
586.631	1003.16
586.828	1128.09
587.026	1023.64
587.223	865.95
587.42	964.25
587.618	978.59
587.815	1078.94
588.012	945.82
588.21	929.44
588.407	945.82
588.604	980.64
588.801	829.09
588.999	855.71
589.196	972.44
589.393	806.56
589.59	941.72
589.787	937.63
589.984	878.24
590.182	761.5
590.379	847.52
590.576	833.18
590.773	829.09
590.97	808.61
591.167	824.99
591.364	915.1
591.561	843.42
591.758	962.2
591.955	837.28
592.152	855.71
592.349	767.65
592.546	777.89
592.743	822.94
592.94	726.69
593.137	847.52
593.334	863.9
593.531	908.96
593.727	943.77
593.924	937.63
594.121	837.28
594.318	824.99
594.515	859.81
594.712	1054.36
594.908	1021.6
595.105	732.83
595.302	960.16
595.499	984.73
595.696	1107.61
595.892	949.92
596.089	1042.07
596.286	896.67
596.482	1130.14
596.679	1078.94
596.876	945.82
597.072	1240.73
597.269	1078.94
597.466	1179.29
597.662	1121.95
597.859	1130.14
598.055	1210.01
598.252	1349.27
598.448	1420.95
598.645	1351.32
598.841	1392.28
599.038	1556.11
599.234	1601.17
599.431	1500.82
599.627	1709.71
599.824	1777.3
600.02	1812.11
600.217	1736.34
600.413	1937.04
600.609	1842.83
600.806	2424.45
601.002	2213.51
601.198	2250.38
601.395	2336.39
601.591	2481.8
601.787	2467.46
601.984	2584.2
602.18	2733.7
602.376	2788.99
602.572	2860.67
602.769	2971.26
602.965	2995.84
603.161	3165.82
603.357	3341.94
603.553	3495.54
603.75	3327.61
603.946	3663.47
604.142	3690.1
604.338	3960.43
604.534	3894.9
604.73	4036.21
604.926	4206.19
605.122	4435.56
605.318	4486.76
605.514	4712.03
605.71	4791.91
605.906	4974.17
606.102	4955.74
606.298	5185.12
606.494	5510.74
606.69	5467.74
606.886	5686.87
607.082	5733.97
607.278	5994.06
607.474	6190.67
607.67	6387.27
607.866	6248.01
608.062	6655.56
608.257	6862.4
608.453	6833.73
608.649	7278.14
608.845	7386.68
609.041	7669.3
609.236	8015.41
609.432	8158.77
609.628	8351.28
609.824	8736.29
610.019	8613.42
610.215	8959.52
610.411	9502.23
610.606	9403.93
610.802	9864.72
610.998	9954.83
611.193	10313.23
611.389	10159.63
611.584	10765.83
611.78	11032.07
611.976	11490.81
612.171	11720.18
612.367	12310
612.562	12318.19
612.758	12410.35
612.953	12662.25
613.149	13215.2
613.344	13225.44
613.539	13989.33
613.735	14159.31
613.93	14788.04
614.126	14992.84
614.321	15449.53
614.517	15990.2
614.712	16350.64
614.907	16729.52
615.103	17194.4
615.298	17436.06
615.493	17989.02
615.688	18253.2
615.884	18912.65
616.079	19344.77
616.274	20008.31
616.47	20108.66
616.665	21011.82
616.86	21335.4
617.055	21783.9
617.25	22234.46
617.445	23139.66
617.641	23340.36
617.836	23889.21
618.031	24368.44
618.226	25609.51
618.421	25945.37
618.616	26668.31
618.811	26668.31
619.006	27946.24
619.201	27866.37
619.396	29160.69
619.591	29379.82
619.786	30043.36
619.981	30231.77
620.176	31497.42
620.371	31683.78
620.566	32785.59
620.761	33324.21
620.956	34075.81
621.151	34397.34
621.346	35542.16
621.541	35554.44
621.735	37100.66
621.93	36705.4
622.125	37762.15
622.32	38788.19
622.515	39334.99
622.709	39769.16
622.904	40346.69
623.099	41636.91
623.294	42175.53
623.488	42519.59
623.683	43455.51
623.878	43465.75
624.072	45263.86
624.267	45622.26
624.462	45939.69
624.656	46805.98
624.851	47487.96
625.046	48051.15
625.24	48397.26
625.435	49161.15
625.629	49839.03
625.824	50459.56
626.018	51317.66
626.213	50815.91
626.407	52061.07
626.602	51927.95
626.796	52820.87
626.991	53623.67
627.185	53842.81
627.38	54123.38
627.574	53842.81
627.768	54193.01
627.963	54475.63
628.157	54590.31
628.352	55284.58
628.546	54485.87
628.74	55581.53
628.935	54846.31
629.129	55210.85
629.323	53912.44
629.517	54317.93
629.712	53828.47
629.906	53564.28
630.1	52669.32
630.294	52392.84
630.489	51327.9
630.683	51202.97
630.877	49605.56
631.071	48741.31
631.265	48266.19
631.459	47338.46
631.653	46060.52
631.848	45106.17
632.042	43746.32
632.236	42939.42
632.43	41733.17
632.624	40604.74
632.818	39306.32
633.012	37948.52
633.206	36732.03
633.4	35902.6
633.594	34395.29
633.788	33440.94
633.982	32421.05
634.176	31104.21
634.369	29773.03
634.563	28759.28
634.757	27667.72
634.951	26676.5
635.145	25742.63
635.339	24880.43
635.533	23672.13
635.726	23002.44
635.92	21706.08
636.114	20737.39
636.308	19787.13
636.501	19058.06
636.695	18259.35
636.889	17571.23
637.083	16870.83
637.276	15982.01
637.47	15377.86
637.664	14699.98
637.857	14511.57
638.051	13802.97
638.244	13213.15
638.438	12813.8
638.632	12250.61
638.825	11509.24
639.019	11447.8
639.212	10604.04
639.406	10485.26
639.599	9850.39
639.793	9528.86
639.986	9098.78
640.18	8891.94
640.373	8427.05
640.567	8158.77
640.76	7913.01
640.954	7530.04
641.147	7429.69
641.34	7050.82
641.534	6766.15
641.727	6614.6
641.92	6239.82
642.114	6141.52
642.307	5922.38
642.5	5654.1
642.694	5236.31
642.887	5246.55
643.08	5084.77
643.273	4832.86
643.467	4441.7
643.66	4300.39
643.853	4191.85
644.046	4099.69
644.239	4062.83
644.432	3784.3
644.626	3552.88
644.819	3444.34
645.012	3403.38
645.205	3298.94
645.398	3204.73
645.591	3006.08
645.784	2762.37
645.977	2762.37
646.17	2653.83
646.363	2604.67
646.556	2436.74
646.749	2348.68
646.942	2297.48
647.135	2277
647.328	2070.16
647.521	2002.57
647.714	1957.52
647.907	1910.41
648.099	1719.95
648.292	1891.98
648.485	1789.58
648.678	1582.74
648.871	1386.13
649.064	1556.11
649.256	1289.88
649.449	1400.47
649.642	1291.93
649.835	1328.79
650.027	1203.86
650.22	1314.45
650.413	1201.82
650.605	1167
650.798	1066.65
650.991	986.78
651.183	1050.27
651.376	1040.03
651.568	1025.69
651.761	814.75
651.954	951.96
652.146	847.52
652.339	831.13
652.531	927.39
652.724	839.33
652.916	792.22
653.109	521.89
653.301	728.74
653.494	790.17
653.686	640.67
653.879	763.55
654.071	642.72
654.263	622.24
654.456	534.18
654.648	722.59
654.84	609.95
655.033	544.42
655.225	620.19
655.417	542.37
655.61	646.82
655.802	558.75
655.994	667.3
656.186	433.83
656.379	487.08
656.571	472.74
656.763	487.08
656.955	482.98
657.148	396.96
657.34	513.7
657.532	464.55
657.724	405.16
657.916	431.78
658.108	448.16
658.3	458.4
658.492	384.68
658.684	356.01
658.876	462.5
659.068	306.85
659.26	267.94
659.452	286.37
659.644	325.29
659.836	456.36
660.028	321.19
660.22	188.07
660.412	331.43
660.604	292.52
660.796	204.46
660.988	356.01
661.18	196.26
661.372	343.72
661.563	257.7
661.755	278.18
661.947	222.89
662.139	153.26
662.331	321.19
662.522	276.13
662.714	192.17
662.906	286.37
663.097	237.22
663.289	190.12
663.481	57
663.673	321.19
663.864	165.54
664.056	290.47
664.247	153.26
664.439	372.39
664.631	356.01
664.822	315.05
665.014	261.8
665.205	145.06
665.397	196.26
665.588	261.8
665.78	196.26
665.971	198.31
666.163	110.25
666.354	206.5
666.546	42.67
666.737	114.34
666.929	59.05
667.12	91.82
667.311	222.89
667.503	171.69
667.694	218.79
667.885	241.32
668.077	143.02
668.268	81.58
668.459	186.02
668.651	237.22
668.842	153.26
669.033	91.82
669.224	73.39
669.416	349.86
669.607	134.82
669.798	36.52
669.989	235.18
670.18	151.21
670.371	173.74
670.563	38.57
670.754	290.47
670.945	177.83
671.136	243.37
671.327	87.72
671.518	224.94
671.709	317.09
671.9	128.68
672.091	167.59
672.282	151.21
672.473	196.26
672.664	155.3
672.855	276.13
673.046	229.03
673.237	308.9
673.428	183.98
673.619	163.5
673.809	57
674	237.22
674.191	186.02
674.382	183.98
674.573	110.25
674.764	81.58
674.954	269.99
675.145	134.82
675.336	136.87
675.527	177.83
675.717	157.35
675.908	69.29
676.099	120.49
676.289	179.88
676.48	11.95
676.671	165.54
676.861	63.15
677.052	112.3
677.243	194.22
677.433	147.11
677.624	106.15
677.814	204.46
678.005	163.5
678.195	245.41
678.386	124.58
678.576	132.78
678.767	143.02
678.957	157.35
679.148	165.54
679.338	282.28
679.529	181.93
679.719	134.82
679.909	175.78
680.1	265.89
680.29	186.02
680.481	81.58
680.671	226.98
680.861	206.5
681.052	159.4
681.242	85.67
681.432	214.7
681.622	183.98
681.813	95.91
682.003	136.87
682.193	165.54
682.383	132.78
682.573	218.79
682.764	241.32
682.954	265.89
683.144	263.85
683.334	89.77
683.524	151.21
683.714	151.21
683.904	226.98
684.094	118.44
684.284	161.45
684.474	278.18
684.664	345.77
684.854	214.7
685.044	245.41
685.234	272.04
685.424	159.4
685.614	106.15
685.804	241.32
685.994	196.26
686.184	173.74
686.374	194.22
686.564	208.55
686.753	255.65
686.943	108.2
687.133	155.3
687.323	165.54
687.513	192.17
687.702	249.51
687.892	218.79
688.082	294.57
688.272	276.13
688.461	263.85
688.651	308.9
688.841	269.99
689.03	216.74
689.22	186.02
689.41	241.32
689.599	224.94
689.789	257.7
689.979	353.96
690.168	233.13
690.358	169.64
690.547	190.12
690.737	208.55
690.926	269.99
691.116	261.8
691.305	255.65
691.495	231.08
691.684	186.02
691.874	155.3
692.063	138.92
692.252	302.76
692.442	302.76
692.631	202.41
692.82	173.74
693.01	208.55
693.199	267.94
693.388	255.65
693.578	192.17
693.767	263.85
693.956	302.76
694.146	229.03
694.335	190.12
694.524	214.7
694.713	288.42
694.902	179.88
695.092	155.3
695.281	269.99
695.47	175.78
695.659	255.65
695.848	173.74
696.037	138.92
696.226	339.62
696.415	208.55
696.604	255.65
696.793	265.89
696.982	235.18
697.171	364.2
697.36	183.98
697.549	163.5
697.738	114.34
697.927	226.98
698.116	140.97
698.305	173.74
698.494	190.12
698.683	212.65
698.872	335.53
699.061	218.79
699.25	163.5
699.438	194.22
699.627	179.88
699.816	331.43
700.005	155.3
700.193	177.83
700.382	286.37
700.571	290.47
700.76	218.79
700.948	243.37
701.137	212.65
701.326	239.27
701.514	181.93
701.703	323.24
701.892	294.57
702.08	415.4
702.269	243.37
702.457	216.74
702.646	243.37
702.834	218.79
703.023	300.71
703.212	218.79
703.4	235.18
703.589	278.18
703.777	155.3
703.965	130.73
704.154	169.64
704.342	81.58
704.531	171.69
704.719	179.88
704.907	257.7
705.096	128.68
705.284	167.59
705.472	222.89
705.661	313
705.849	276.13
706.037	325.29
706.226	257.7
706.414	257.7
706.602	134.82
706.79	267.94
706.979	218.79
707.167	245.41
707.355	77.48
707.543	304.81
707.731	308.9
707.919	212.65
708.107	216.74
708.296	190.12
708.484	138.92
708.672	321.19
708.86	206.5
709.048	202.41
709.236	120.49
709.424	249.51
709.612	263.85
709.8	122.54
709.988	261.8
710.176	259.75
710.364	269.99
710.551	288.42
710.739	196.26
710.927	108.2
711.115	269.99
711.303	294.57
711.491	298.66
711.679	161.45
711.866	196.26
712.054	212.65
712.242	212.65
712.43	300.71
712.617	261.8
712.805	315.05
712.993	298.66
713.181	114.34
713.368	245.41
713.556	210.6
713.744	235.18
713.931	442.02
714.119	386.72
714.306	220.84
714.494	147.11
714.682	173.74
714.869	65.19
715.057	140.97
715.244	87.72
715.432	249.51
715.619	310.95
715.807	210.6
715.994	233.13
716.182	214.7
716.369	282.28
716.556	253.61
716.744	97.96
716.931	93.87
717.119	345.77
717.306	243.37
717.493	278.18
717.681	214.7
717.868	183.98
718.055	347.81
718.242	226.98
718.43	233.13
718.617	372.39
718.804	249.51
718.991	345.77
719.179	265.89
719.366	278.18
719.553	284.33
719.74	253.61
719.927	239.27
720.114	267.94
720.301	116.39
720.488	159.4
720.676	159.4
720.863	319.14
721.05	390.82
721.237	274.09
721.424	304.81
721.611	310.95
721.798	216.74
721.985	239.27
722.172	212.65
722.358	192.17
722.545	407.2
722.732	183.98
722.919	288.42
723.106	306.85
723.293	212.65
723.48	224.94
723.667	251.56
723.853	280.23
724.04	380.58
724.227	284.33
724.414	229.03
724.6	278.18
724.787	304.81
724.974	446.12
725.161	290.47
725.347	179.88
725.534	337.57
725.72	327.33
725.907	294.57
726.094	386.72
726.28	233.13
726.467	226.98
726.653	245.41
726.84	310.95
727.027	448.16
727.213	251.56
727.4	294.57
727.586	280.23
727.773	247.46
727.959	280.23
728.145	278.18
728.332	263.85
728.518	243.37
728.705	321.19
728.891	331.43
729.077	261.8
729.264	233.13
729.45	249.51
729.636	362.15
729.823	253.61
730.009	331.43
730.195	304.81
730.382	376.48
730.568	245.41
730.754	323.24
730.94	302.76
731.126	288.42
731.313	304.81
731.499	208.55
731.685	294.57
731.871	376.48
732.057	292.52
732.243	339.62
732.429	319.14
732.615	415.4
732.801	269.99
732.987	267.94
733.173	241.32
733.359	284.33
733.545	286.37
733.731	226.98
733.917	349.86
734.103	337.57
734.289	272.04
734.475	204.46
734.661	435.88
734.847	313
735.033	353.96
735.219	425.64
735.404	278.18
735.59	272.04
735.776	265.89
735.962	265.89
736.148	366.25
736.333	439.97
736.519	296.61
736.705	376.48
736.89	267.94
737.076	269.99
737.262	251.56
737.447	231.08
737.633	224.94
737.819	392.87
738.004	294.57
738.19	339.62
738.375	339.62
738.561	306.85
738.747	321.19
738.932	202.41
739.118	493.22
739.303	380.58
739.489	329.38
739.674	296.61
739.859	220.84
740.045	392.87
740.23	286.37
740.416	267.94
740.601	325.29
740.786	345.77
740.972	296.61
741.157	333.48
741.342	188.07
741.528	175.78
741.713	356.01
741.898	247.46
742.084	276.13
742.269	315.05
742.454	343.72
742.639	478.88
742.824	306.85
743.01	405.16
743.195	513.7
743.38	294.57
743.565	226.98
743.75	323.24
743.935	374.44
744.12	456.36
744.305	235.18
744.49	325.29
744.675	253.61
744.86	313
745.045	388.77
745.23	300.71
745.415	298.66
745.6	345.77
745.785	186.02
745.97	384.68
746.155	286.37
746.34	302.76
746.525	249.51
746.71	378.53
746.895	198.31
747.079	274.09
747.264	233.13
747.449	333.48
747.634	405.16
747.819	294.57
748.003	259.75
748.188	229.03
748.373	337.57
748.557	292.52
748.742	241.32
748.927	263.85
749.111	186.02
749.296	226.98
749.481	272.04
749.665	208.55
749.85	259.75
750.034	269.99
750.219	263.85
750.404	274.09
750.588	263.85
750.773	149.16
750.957	194.22
751.141	290.47
751.326	298.66
751.51	171.69
751.695	253.61
751.879	198.31
752.064	345.77
752.248	245.41
752.432	308.9
752.617	251.56
752.801	257.7
752.985	196.26
753.17	341.67
753.354	220.84
753.538	269.99
753.722	169.64
753.907	214.7
754.091	165.54
754.275	188.07
754.459	136.87
754.643	183.98
754.828	257.7
755.012	337.57
755.196	122.54
755.38	200.36
755.564	173.74
755.748	206.5
755.932	239.27
756.116	194.22
756.3	204.46
756.484	237.22
756.668	188.07
756.852	171.69
757.036	200.36
757.22	237.22
757.404	149.16
757.588	210.6
757.772	306.85
757.956	188.07
758.14	347.81
758.323	81.58
758.507	218.79
758.691	194.22
758.875	196.26
759.059	335.53
759.242	132.78
759.426	208.55
759.61	272.04
759.794	77.48
759.977	233.13
760.161	331.43
760.345	308.9
760.528	253.61
760.712	235.18
760.895	247.46
761.079	274.09
761.263	100.01
761.446	138.92
761.63	157.35
761.813	235.18
761.997	95.91
762.18	136.87
762.364	210.6
762.547	83.63
762.731	173.74
762.914	159.4
763.098	130.73
763.281	81.58
763.464	85.67
763.648	102.06
763.831	136.87
764.015	108.2
764.198	222.89
764.381	167.59
764.564	143.02
764.748	192.17
764.931	179.88
765.114	175.78
765.297	147.11
765.481	61.1
765.664	145.06
765.847	138.92
766.03	243.37
766.213	130.73
766.397	173.74
766.58	143.02
766.763	147.11
766.946	159.4
767.129	48.81
767.312	28.33
767.495	126.63
767.678	89.77
767.861	165.54
768.044	143.02
768.227	57
768.41	140.97
768.593	104.11
768.776	122.54
768.959	116.39
769.142	181.93
769.324	75.43
769.507	151.21
769.69	93.87
769.873	140.97
770.056	310.95
770.239	186.02
770.421	218.79
770.604	179.88
770.787	151.21
770.97	104.11
771.152	42.67
771.335	161.45
771.518	87.72
771.7	183.98
771.883	235.18
772.066	102.06
772.248	161.45
772.431	212.65
772.613	153.26
772.796	61.1
772.978	165.54
773.161	237.22
773.343	24.23
773.526	26.28
773.708	-10.58
773.891	59.05
774.073	91.82
774.256	114.34
774.438	212.65
774.621	118.44
774.803	122.54
774.985	-18.77
775.168	112.3
775.35	114.34
775.532	122.54
775.715	95.91
775.897	155.3
776.079	106.15
776.261	77.48
776.444	91.82
776.626	57
776.808	143.02
776.99	18.09
777.173	145.06
777.355	67.24
777.537	124.58
777.719	149.16
777.901	30.38
778.083	24.23
778.265	5.8
778.447	91.82
778.629	1.71
778.811	151.21
778.993	214.7
779.175	186.02
779.357	91.82
779.539	-2.39
779.721	38.57
779.903	130.73
780.085	91.82
780.267	91.82
780.449	59.05
780.631	196.26
780.812	140.97
780.994	93.87
781.176	9.9
781.358	-35.16
781.54	16.04
781.721	140.97
781.903	177.83
782.085	91.82
782.267	263.85
782.448	-4.44
782.63	26.28
782.812	65.19
782.993	130.73
783.175	128.68
783.357	22.19
783.538	104.11
783.72	61.1
783.901	16.04
784.083	52.91
784.264	36.52
784.446	-22.87
784.627	-47.44
784.809	116.39
784.99	20.14
785.172	24.23
785.353	16.04
785.535	65.19
785.716	89.77
785.897	-37.2
786.079	-20.82
786.26	116.39
786.441	13.99
786.623	-26.96
786.804	-8.53
786.985	50.86
787.167	34.47
787.348	83.63
787.529	16.04
787.71	155.3
787.891	102.06
788.073	24.23
788.254	-76.12
788.435	134.82
788.616	136.87
788.797	-24.92
788.978	24.23
789.159	28.33
789.34	48.81
789.522	73.39
789.703	-18.77
789.884	81.58
790.065	93.87
790.246	153.26
790.427	-31.06
790.607	179.88
790.788	100.01
790.969	22.19
791.15	65.19
791.331	75.43
791.512	1.71
791.693	48.81
791.874	-2.39
792.054	145.06
792.235	143.02
792.416	-59.73
792.597	50.86
792.778	136.87
792.958	81.58
793.139	42.67
793.32	63.15
793.5	-104.79
793.681	138.92
793.862	-6.49
794.042	87.72
794.223	-94.55
794.404	5.8
794.584	-14.68
794.765	79.53
794.945	36.52
795.126	124.58
795.306	126.63
795.487	16.04
795.667	-43.35
795.848	11.95
796.028	-31.06
796.209	-10.58
796.389	132.78
796.57	-31.06
796.75	-22.87
796.93	85.67
797.111	-33.11
797.291	-2.39
797.471	26.28
797.652	73.39
797.832	-43.35
798.012	108.2
798.192	-4.44
798.373	5.8
798.553	36.52
798.733	-22.87
798.913	-10.58
799.093	-26.96
799.274	71.34
799.454	85.67
799.634	28.33
799.814	95.91
799.994	-26.96
800.174	95.91
800.354	-18.77
800.534	-4.44
800.714	67.24
800.894	44.71
801.074	-6.49
801.254	-49.49
801.434	130.73
801.614	38.57
801.794	-41.3
801.974	1791.63
802.154	28.33
802.334	167.59
802.514	-45.4
802.693	50.86
802.873	-39.25
803.053	136.87
803.233	85.67
803.413	120.49
803.592	-39.25
803.772	-35.16
803.952	67.24
804.131	-102.74
804.311	-35.16
804.491	89.77
804.67	11.95
804.85	-59.73
805.03	77.48
805.209	126.63
805.389	-12.63
805.568	-51.54
805.748	-10.58
805.928	11.95
806.107	69.29
806.287	91.82
806.466	67.24
806.646	30.38
806.825	-14.68
807.004	-65.88
807.184	91.82
807.363	61.1
807.543	34.47
807.722	-49.49
807.901	130.73
808.081	71.34
808.26	-82.26
808.439	30.38
808.619	40.62
808.798	-2.39
808.977	44.71
809.156	75.43
809.336	16.04
809.515	97.96
809.694	-4.44
809.873	-26.96
810.052	32.43
810.231	145.06
810.411	44.71
810.59	42.67
810.769	24.23
810.948	79.53
811.127	-96.6
811.306	24.23
811.485	-108.88
811.664	124.58
811.843	77.48
812.022	-20.82
812.201	-16.73
812.38	36.52
812.559	-8.53
812.737	73.39
812.916	-80.21
813.095	-61.78
813.274	44.71
813.453	52.91
813.632	104.11
813.811	118.44
813.989	-123.22
814.168	63.15
814.347	-37.2
814.526	7.85
814.704	173.74
814.883	87.72
815.062	-45.4
815.24	108.2
815.419	-12.63
815.598	40.62
815.776	-16.73
815.955	-45.4
816.133	-94.55
816.312	61.1
816.49	24.23
816.669	-22.87
816.847	9.9
817.026	-20.82
817.204	-24.92
817.383	16.04
817.561	-61.78
817.74	97.96
817.918	32.43
818.097	-2.39
818.275	-16.73
818.453	34.47
818.632	32.43
818.81	-41.3
818.988	-35.16
819.167	11.95
819.345	-31.06
819.523	-76.12
819.701	5.8
819.879	-35.16
820.058	-2.39
820.236	22.19
820.414	71.34
820.592	7.85
820.77	-31.06
820.948	-22.87
821.127	40.62
821.305	-4.44
821.483	-78.16
821.661	83.63
821.839	77.48
822.017	-43.35
822.195	-45.4
822.373	61.1
822.551	63.15
822.729	67.24
822.907	-6.49
823.085	30.38
823.262	40.62
823.44	-67.92
823.618	-39.25
823.796	59.05
823.974	-65.88
824.152	-4.44
824.329	63.15
824.507	100.01
824.685	9.9
824.863	-10.58
825.04	7.85
825.218	128.68
825.396	-65.88
825.574	50.86
825.751	38.57
825.929	85.67
826.107	-39.25
826.284	11.95
826.462	32.43
826.639	-57.68
826.817	-74.07
826.994	24.23
827.172	-65.88
827.349	147.11
827.527	24.23
827.704	-31.06
827.882	57
828.059	-26.96
828.237	-37.2
828.414	118.44
828.591	-18.77
828.769	-33.11
828.946	-33.11
829.124	108.2
829.301	67.24
829.478	-51.54
829.655	13.99
829.833	24.23
830.01	-92.5
830.187	20.14
830.364	-22.87
830.542	-41.3
830.719	114.34
830.896	87.72
831.073	30.38
831.25	1.71
831.427	67.24
831.604	-31.06
831.782	-102.74
831.959	97.96
832.136	38.57
832.313	67.24
832.49	-37.2
832.667	48.81
832.844	9.9
833.021	120.49
833.198	-2.39
833.374	-43.35
833.551	7.85
833.728	-57.68
833.905	67.24
834.082	-174.42
834.259	13.99
834.436	140.97
834.612	-37.2
834.789	95.91
834.966	93.87
835.143	57
835.319	-37.2
835.496	42.67
835.673	3.75
835.85	138.92
836.026	9.9
836.203	-6.49
836.38	20.14
836.556	-12.63
836.733	-22.87
836.909	190.12
837.086	11.95
837.262	-74.07
837.439	-102.74
837.616	-69.97
837.792	-67.92
837.968	95.91
838.145	-98.64
838.321	69.29
838.498	46.76
838.674	61.1
838.851	-47.44
839.027	-88.4
839.203	30.38
839.38	65.19
839.556	-20.82
839.732	87.72
839.909	-10.58
840.085	71.34
840.261	-43.35
840.437	34.47
840.614	-55.64
840.79	108.2
840.966	167.59
841.142	-8.53
841.318	-2.39
841.494	9.9
841.671	126.63
841.847	-2.39
842.023	-63.83
842.199	38.57
842.375	89.77
842.551	-106.84
842.727	-47.44
842.903	145.06
843.079	-90.45
843.255	69.29
843.431	7.85
843.607	11.95
843.783	-135.51
843.959	-6.49
844.134	-33.11
844.31	69.29
844.486	-41.3
844.662	-92.5
844.838	-6.49
845.013	30.38
845.189	42.67
845.365	-41.3
845.541	7.85
845.716	-0.34
845.892	83.63
846.068	-39.25
846.244	-55.64
846.419	42.67
846.595	-53.59
846.77	-72.02
846.946	73.39
847.122	-33.11
847.297	-6.49
847.473	188.07
847.648	-104.79
847.824	-18.77
847.999	-104.79
848.175	50.86
848.35	-8.53
848.526	65.19
848.701	83.63
848.876	126.63
849.052	167.59
849.227	-14.68
849.403	1.71
849.578	-47.44
849.753	-18.77
849.929	13.99
850.104	-59.73
850.279	40.62
850.454	18.09
850.63	57
850.805	-6.49
850.98	-67.92
851.155	-14.68
851.33	11.95
851.505	-12.63
851.681	71.34
851.856	-76.12
852.031	48.81
852.206	3.75
852.381	-29.01
852.556	22.19
852.731	9.9
852.906	77.48
853.081	79.53
853.256	106.15
853.431	-49.49
853.606	-104.79
853.781	-57.68
853.956	-61.78
854.131	-20.82
854.305	-26.96
854.48	-51.54
854.655	-22.87
854.83	-41.3
855.005	22.19
855.18	32.43
855.354	-14.68
855.529	48.81
855.704	-0.34
855.879	59.05
856.053	-72.02
856.228	-31.06
856.403	-45.4
856.577	108.2
856.752	-145.75
856.926	-86.36
857.101	-74.07
857.276	-39.25
857.45	38.57
857.625	32.43
857.799	28.33
857.974	30.38
858.148	-112.98
858.323	-18.77
858.497	-6.49
858.672	-57.68
858.846	42.67
859.02	93.87
859.195	-39.25
859.369	-49.49
859.543	26.28
859.718	-41.3
859.892	79.53
860.066	-45.4
860.241	-10.58
860.415	95.91
860.589	-94.55
860.763	40.62
860.938	1.71
861.112	44.71
861.286	-0.34
861.46	20.14
861.634	40.62
861.808	110.25
861.982	-129.36
862.157	-67.92
862.331	-31.06
862.505	-69.97
862.679	-72.02
862.853	-53.59
863.027	-12.63
863.201	192.17
863.375	-12.63
863.549	20.14
863.722	59.05
863.896	54.95
864.07	-2.39
864.244	-4.44
864.418	52.91
864.592	40.62
864.766	18.09
864.939	-4.44
865.113	-35.16
865.287	18.09
865.461	-69.97
865.634	46.76
865.808	-88.4
865.982	-69.97
866.156	-53.59
866.329	-29.01
866.503	-14.68
866.676	3.75
866.85	-29.01
867.024	-31.06
867.197	20.14
867.371	40.62
867.544	28.33
867.718	-112.98
867.891	153.26
868.065	-82.26
868.238	11.95
868.412	54.95
868.585	1.71
868.759	-24.92
868.932	-45.4
869.105	-125.27
869.279	79.53
869.452	-67.92
869.625	44.71
869.799	16.04
869.972	-117.08
870.145	5.8
870.319	18.09
870.492	24.23
870.665	-76.12
870.838	-14.68
871.011	-131.41
871.185	-6.49
871.358	11.95
871.531	65.19
871.704	-31.06
871.877	32.43
872.05	-12.63
872.223	-119.12
872.396	16.04
872.569	7.85
872.742	-29.01
872.915	16.04
873.088	-16.73
873.261	-74.07
873.434	42.67
873.607	-39.25
873.78	122.54
873.953	-110.93
874.126	75.43
874.299	3.75
874.471	-82.26
874.644	-22.87
874.817	-33.11
874.99	73.39
875.163	-53.59
875.335	32.43
875.508	20.14
875.681	46.76
875.853	-86.36
876.026	-10.58
876.199	97.96
876.371	50.86
876.544	40.62
876.717	-16.73
876.889	-98.64
877.062	-24.92
877.234	-72.02
877.407	1.71
877.579	57
877.752	-2.39
877.924	59.05
878.097	20.14
878.269	42.67
878.442	22.19
878.614	40.62
878.786	-8.53
878.959	-49.49
879.131	5.8
879.303	-84.31
879.476	-137.56
879.648	83.63
879.82	44.71
879.993	-10.58
880.165	-49.49
880.337	-86.36
880.509	-31.06
880.681	-108.88
880.854	38.57
881.026	20.14
881.198	155.3
881.37	9.9
881.542	-22.87
881.714	69.29
881.886	-14.68
882.058	-53.59
882.23	1.71
882.402	30.38
882.574	34.47
882.746	24.23
882.918	130.73
883.09	32.43
883.262	34.47
883.434	22.19
883.606	-74.07
883.778	44.71
883.95	161.45
884.122	-55.64
884.293	108.2
884.465	71.34
884.637	83.63
884.809	-76.12
884.98	9.9
885.152	18.09
885.324	54.95
885.496	-35.16
885.667	-31.06
885.839	-59.73
886.011	77.48
886.182	38.57
886.354	44.71
886.525	81.58
886.697	61.1
886.869	-82.26
887.04	-84.31
887.212	65.19
887.383	140.97
887.555	9.9
887.726	-123.22
887.897	3.75
888.069	-20.82
888.24	-10.58
888.412	3.75
888.583	-29.01
888.754	9.9
888.926	-137.56
889.097	-31.06
889.268	-90.45
889.44	-67.92
889.611	-76.12
889.782	-96.6
889.953	-35.16
890.125	-16.73
890.296	-24.92
890.467	-35.16
890.638	-14.68
890.809	-84.31
890.98	-39.25
891.151	30.38
891.323	63.15
891.494	38.57
891.665	5.8
891.836	-51.54
892.007	30.38
892.178	50.86
892.349	7.85
892.52	-88.4
892.691	28.33
892.862	5.8
893.032	-133.46
893.203	-51.54
893.374	-35.16
893.545	100.01
893.716	-16.73
893.887	87.72
894.057	-6.49
894.228	-33.11
894.399	-29.01
894.57	143.02
894.74	54.95
894.911	22.19
895.082	-41.3
895.253	-65.88
895.423	75.43
895.594	63.15
895.764	-29.01
895.935	-18.77
896.106	93.87
896.276	-84.31
896.447	48.81
896.617	-39.25
896.788	-78.16
896.958	5.8
897.129	-10.58
897.299	-0.34
897.47	145.06
897.64	63.15
897.81	-78.16
897.981	61.1
898.151	-82.26
898.322	42.67
898.492	71.34
898.662	-53.59
898.832	-80.21
899.003	-2.39
899.173	38.57
899.343	-55.64
899.513	-0.34
