Data from USB4F104151__48__11-26-45-492.txt Node

Date: Wed Feb 26 11:26:45 EST 2025
User: louis
Spectrometer: USB4F10415
Trigger mode: 4
Integration Time (sec): 1.000000E-1
Scans to average: 1
Electric dark correction enabled: true
Nonlinearity correction enabled: false
Boxcar width: 0
XAxis mode: Wavelengths
Number of Pixels in Spectrum: 3648
>>>>>Begin Spectral Data<<<<<
178.204	-455.33
178.424	-455.33
178.644	-455.33
178.864	-412.32
179.084	-410.28
179.304	17.75
179.524	-19.11
179.744	5.46
179.964	27.99
180.184	-4.78
180.404	40.28
180.624	27.99
180.844	5.46
181.064	-6.83
181.283	-33.45
181.503	-43.69
181.723	-17.07
181.943	-76.46
182.163	148.82
182.383	-33.45
182.602	-25.26
182.822	122.2
183.042	44.37
183.262	-27.31
183.482	105.81
183.701	40.28
183.921	64.85
184.141	-43.69
184.361	77.14
184.58	54.61
184.8	-47.79
185.02	32.08
185.239	130.39
185.459	21.85
185.679	103.76
185.898	-21.16
186.118	21.85
186.338	11.61
186.557	122.2
186.777	-39.59
186.997	-6.83
187.216	27.99
187.436	224.59
187.655	46.42
187.875	89.43
188.095	116.05
188.314	169.3
188.534	126.29
188.753	-78.51
188.973	136.53
189.192	220.5
189.412	81.24
189.631	9.56
189.851	77.14
190.07	136.53
190.29	-35.5
190.509	-29.35
190.729	-0.68
190.948	169.3
191.168	269.65
191.387	118.1
191.607	30.04
191.826	68.95
192.045	38.23
192.265	7.51
192.484	163.15
192.704	23.89
192.923	-17.07
193.142	159.06
193.362	114
193.581	167.25
193.8	1.37
194.02	73.04
194.239	-12.97
194.458	109.91
194.678	-0.68
194.897	-8.87
195.116	42.32
195.335	148.82
195.555	111.96
195.774	-17.07
195.993	140.63
196.212	7.51
196.432	54.61
196.651	48.47
196.87	7.51
197.089	253.27
197.308	128.34
197.528	79.19
197.747	-25.26
197.966	-21.16
198.185	142.68
198.404	-25.26
198.623	132.44
198.842	68.95
199.062	146.77
199.281	73.04
199.5	62.8
199.719	111.96
199.938	-27.31
200.157	95.57
200.376	140.63
200.595	150.87
200.814	77.14
201.033	3.41
201.252	163.15
201.471	36.18
201.69	81.24
201.909	62.8
202.128	25.94
202.347	146.77
202.566	46.42
202.785	-101.03
203.004	23.89
203.223	210.26
203.442	-8.87
203.661	21.85
203.879	48.47
204.098	195.92
204.317	-45.74
204.536	210.26
204.755	77.14
204.974	132.44
205.193	38.23
205.411	173.39
205.63	126.29
205.849	77.14
206.068	9.56
206.287	-29.35
206.505	118.1
206.724	79.19
206.943	-29.35
207.162	-2.73
207.381	44.37
207.599	30.04
207.818	101.72
208.037	-6.83
208.255	32.08
208.474	64.85
208.693	3.41
208.911	-33.45
209.13	103.76
209.349	126.29
209.567	97.62
209.786	101.72
210.005	109.91
210.223	15.7
210.442	-119.46
210.661	56.66
210.879	-12.97
211.098	-0.68
211.316	58.71
211.535	32.08
211.753	40.28
211.972	101.72
212.191	38.23
212.409	13.65
212.628	79.19
212.846	-10.92
213.065	5.46
213.283	136.53
213.502	64.85
213.72	-2.73
213.938	3.41
214.157	-10.92
214.375	122.2
214.594	-4.78
214.812	32.08
215.031	34.13
215.249	-17.07
215.467	1.37
215.686	73.04
215.904	21.85
216.122	34.13
216.341	175.44
216.559	77.14
216.778	77.14
216.996	120.15
217.214	40.28
217.432	-4.78
217.651	-60.07
217.869	93.52
218.087	-0.68
218.306	21.85
218.524	34.13
218.742	44.37
218.96	68.95
219.179	23.89
219.397	-72.36
219.615	245.07
219.833	159.06
220.051	3.41
220.27	79.19
220.488	56.66
220.706	152.91
220.924	-21.16
221.142	-2.73
221.36	1.37
221.578	83.28
221.796	-17.07
222.015	95.57
222.233	91.48
222.451	128.34
222.669	-70.31
222.887	91.48
223.105	-86.7
223.323	50.52
223.541	3.41
223.759	81.24
223.977	95.57
224.195	167.25
224.413	64.85
224.631	-0.68
224.849	62.8
225.067	136.53
225.285	23.89
225.503	30.04
225.721	-58.03
225.939	138.58
226.157	93.52
226.375	249.17
226.592	-86.7
226.81	-17.07
227.028	175.44
227.246	148.82
227.464	81.24
227.682	118.1
227.9	54.61
228.117	19.8
228.335	-10.92
228.553	-25.26
228.771	85.33
228.989	60.76
229.206	23.89
229.424	27.99
229.642	38.23
229.86	38.23
230.077	144.72
230.295	54.61
230.513	105.81
230.731	60.76
230.948	40.28
231.166	128.34
231.384	62.8
231.601	-58.03
231.819	169.3
232.037	87.38
232.254	-35.5
232.472	32.08
232.689	-31.4
232.907	175.44
233.125	46.42
233.342	-37.55
233.56	40.28
233.777	-23.21
233.995	44.37
234.213	122.2
234.43	40.28
234.648	32.08
234.865	-10.92
235.083	105.81
235.3	52.56
235.518	58.71
235.735	85.33
235.953	79.19
236.17	21.85
236.388	77.14
236.605	73.04
236.822	144.72
237.04	146.77
237.257	44.37
237.475	-51.88
237.692	87.38
237.909	83.28
238.127	-27.31
238.344	134.48
238.562	87.38
238.779	-29.35
238.996	13.65
239.214	-4.78
239.431	142.68
239.648	15.7
239.865	66.9
240.083	132.44
240.3	40.28
240.517	23.89
240.735	93.52
240.952	134.48
241.169	21.85
241.386	103.76
241.603	52.56
241.821	-25.26
242.038	91.48
242.255	191.83
242.472	32.08
242.689	99.67
242.907	48.47
243.124	114
243.341	-10.92
243.558	15.7
243.775	-49.83
243.992	-29.35
244.209	134.48
244.426	175.44
244.643	79.19
244.86	-6.83
245.078	54.61
245.295	161.11
245.512	-15.02
245.729	11.61
245.946	109.91
246.163	38.23
246.38	66.9
246.597	103.76
246.814	64.85
247.031	81.24
247.248	77.14
247.464	83.28
247.681	116.05
247.898	83.28
248.115	5.46
248.332	-39.59
248.549	126.29
248.766	220.5
248.983	81.24
249.2	130.39
249.417	167.25
249.633	25.94
249.85	38.23
250.067	7.51
250.284	27.99
250.501	19.8
250.717	34.13
250.934	-58.03
251.151	11.61
251.368	52.56
251.585	44.37
251.801	66.9
252.018	13.65
252.235	66.9
252.451	-31.4
252.668	1.37
252.885	140.63
253.102	36.18
253.318	-39.59
253.535	56.66
253.752	48.47
253.968	79.19
254.185	-39.59
254.401	34.13
254.618	93.52
254.835	13.65
255.051	40.28
255.268	138.58
255.484	52.56
255.701	64.85
255.917	91.48
256.134	42.32
256.351	-0.68
256.567	-29.35
256.784	75.09
257	13.65
257.217	107.86
257.433	95.57
257.65	60.76
257.866	124.24
258.082	48.47
258.299	-29.35
258.515	87.38
258.732	27.99
258.948	81.24
259.165	81.24
259.381	-64.17
259.597	54.61
259.814	-0.68
260.03	68.95
260.246	21.85
260.463	105.81
260.679	23.89
260.895	-68.27
261.112	21.85
261.328	3.41
261.544	3.41
261.761	181.59
261.977	-25.26
262.193	-39.59
262.409	101.72
262.626	58.71
262.842	62.8
263.058	15.7
263.274	128.34
263.49	50.52
263.707	118.1
263.923	93.52
264.139	-51.88
264.355	52.56
264.571	114
264.787	32.08
265.004	142.68
265.22	-0.68
265.436	-25.26
265.652	5.46
265.868	64.85
266.084	17.75
266.3	64.85
266.516	52.56
266.732	3.41
266.948	38.23
267.164	-10.92
267.38	136.53
267.596	193.87
267.812	175.44
268.028	46.42
268.244	44.37
268.46	54.61
268.676	52.56
268.892	77.14
269.108	25.94
269.324	-4.78
269.54	-41.64
269.756	34.13
269.972	-17.07
270.188	-41.64
270.403	3.41
270.619	101.72
270.835	103.76
271.051	52.56
271.267	9.56
271.483	-76.46
271.698	73.04
271.914	138.58
272.13	27.99
272.346	15.7
272.562	120.15
272.777	126.29
272.993	15.7
273.209	19.8
273.425	95.57
273.64	1.37
273.856	79.19
274.072	-15.02
274.287	11.61
274.503	148.82
274.719	142.68
274.934	5.46
275.15	25.94
275.366	-64.17
275.581	-19.11
275.797	7.51
276.012	62.8
276.228	85.33
276.444	7.51
276.659	124.24
276.875	-4.78
277.09	44.37
277.306	-27.31
277.521	114
277.737	81.24
277.952	91.48
278.168	111.96
278.383	-15.02
278.599	27.99
278.814	-2.73
279.03	5.46
279.245	89.43
279.461	36.18
279.676	193.87
279.892	-68.27
280.107	50.52
280.322	50.52
280.538	91.48
280.753	36.18
280.969	50.52
281.184	128.34
281.399	181.59
281.615	25.94
281.83	126.29
282.045	60.76
282.26	27.99
282.476	15.7
282.691	103.76
282.906	50.52
283.122	-17.07
283.337	-47.79
283.552	77.14
283.767	73.04
283.983	30.04
284.198	-2.73
284.413	66.9
284.628	-39.59
284.843	54.61
285.058	-6.83
285.274	-2.73
285.489	-43.69
285.704	95.57
285.919	-35.5
286.134	-41.64
286.349	25.94
286.564	30.04
286.779	134.48
286.995	13.65
287.21	-15.02
287.425	140.63
287.64	34.13
287.855	54.61
288.07	-8.87
288.285	130.39
288.5	134.48
288.715	64.85
288.93	-43.69
289.145	-78.51
289.36	138.58
289.575	-21.16
289.79	62.8
290.004	-8.87
290.219	95.57
290.434	107.86
290.649	-53.93
290.864	52.56
291.079	36.18
291.294	85.33
291.509	83.28
291.724	5.46
291.938	-8.87
292.153	81.24
292.368	-12.97
292.583	136.53
292.798	79.19
293.012	73.04
293.227	21.85
293.442	95.57
293.657	56.66
293.871	83.28
294.086	-8.87
294.301	181.59
294.516	175.44
294.73	71
294.945	-15.02
295.16	15.7
295.374	71
295.589	109.91
295.804	25.94
296.018	-2.73
296.233	197.97
296.447	130.39
296.662	68.95
296.877	103.76
297.091	60.76
297.306	30.04
297.52	77.14
297.735	71
297.949	64.85
298.164	42.32
298.378	83.28
298.593	15.7
298.807	-12.97
299.022	103.76
299.236	228.69
299.451	-55.98
299.665	1.37
299.88	50.52
300.094	91.48
300.309	27.99
300.523	5.46
300.737	64.85
300.952	56.66
301.166	77.14
301.381	1.37
301.595	-74.41
301.809	109.91
302.024	-21.16
302.238	71
302.452	120.15
302.667	-29.35
302.881	99.67
303.095	157.01
303.309	23.89
303.524	-29.35
303.738	-4.78
303.952	-49.83
304.166	175.44
304.381	5.46
304.595	89.43
304.809	79.19
305.023	9.56
305.237	83.28
305.452	38.23
305.666	83.28
305.88	120.15
306.094	150.87
306.308	114
306.522	44.37
306.736	40.28
306.95	79.19
307.164	58.71
307.379	34.13
307.593	154.96
307.807	42.32
308.021	66.9
308.235	27.99
308.449	-10.92
308.663	71
308.877	249.17
309.091	120.15
309.305	1.37
309.519	-47.79
309.733	60.76
309.947	-70.31
310.161	124.24
310.374	105.81
310.588	107.86
310.802	-29.35
311.016	25.94
311.23	62.8
311.444	-0.68
311.658	56.66
311.872	138.58
312.085	111.96
312.299	138.58
312.513	167.25
312.727	54.61
312.941	5.46
313.154	83.28
313.368	79.19
313.582	1.37
313.796	62.8
314.009	-8.87
314.223	142.68
314.437	30.04
314.651	73.04
314.864	13.65
315.078	81.24
315.292	-43.69
315.505	17.75
315.719	109.91
315.933	58.71
316.146	-21.16
316.36	-4.78
316.573	154.96
316.787	97.62
317.001	85.33
317.214	-33.45
317.428	40.28
317.641	-33.45
317.855	-8.87
318.068	30.04
318.282	58.71
318.495	173.39
318.709	48.47
318.922	58.71
319.136	191.83
319.349	107.86
319.563	-12.97
319.776	109.91
319.99	-62.12
320.203	83.28
320.417	99.67
320.63	134.48
320.843	243.03
321.057	56.66
321.27	-29.35
321.483	71
321.697	128.34
321.91	68.95
322.124	27.99
322.337	64.85
322.55	-82.6
322.763	17.75
322.977	32.08
323.19	-45.74
323.403	81.24
323.617	32.08
323.83	103.76
324.043	7.51
324.256	81.24
324.469	-55.98
324.683	105.81
324.896	54.61
325.109	30.04
325.322	-49.83
325.535	118.1
325.748	87.38
325.962	13.65
326.175	105.81
326.388	126.29
326.601	157.01
326.814	17.75
327.027	77.14
327.24	132.44
327.453	-37.55
327.666	52.56
327.879	163.15
328.092	81.24
328.305	103.76
328.518	60.76
328.731	58.71
328.944	68.95
329.157	126.29
329.37	71
329.583	243.03
329.796	206.16
330.009	-76.46
330.222	142.68
330.435	101.72
330.648	89.43
330.861	71
331.073	101.72
331.286	134.48
331.499	77.14
331.712	-33.45
331.925	15.7
332.138	79.19
332.35	66.9
332.563	-35.5
332.776	105.81
332.989	64.85
333.202	85.33
333.414	48.47
333.627	54.61
333.84	5.46
334.053	-6.83
334.265	1.37
334.478	11.61
334.691	-17.07
334.903	27.99
335.116	7.51
335.329	11.61
335.541	91.48
335.754	152.91
335.966	-12.97
336.179	46.42
336.392	-43.69
336.604	-10.92
336.817	128.34
337.029	50.52
337.242	11.61
337.454	89.43
337.667	79.19
337.88	185.68
338.092	58.71
338.305	64.85
338.517	32.08
338.729	66.9
338.942	136.53
339.154	-109.22
339.367	-58.03
339.579	64.85
339.792	-41.64
340.004	62.8
340.217	-17.07
340.429	75.09
340.641	44.37
340.854	42.32
341.066	-37.55
341.278	109.91
341.491	202.07
341.703	-2.73
341.915	42.32
342.128	79.19
342.34	66.9
342.552	-72.36
342.764	64.85
342.977	89.43
343.189	150.87
343.401	87.38
343.613	-19.11
343.826	71
344.038	-8.87
344.25	48.47
344.462	68.95
344.674	89.43
344.886	-2.73
345.099	83.28
345.311	142.68
345.523	60.76
345.735	-0.68
345.947	64.85
346.159	64.85
346.371	27.99
346.583	1.37
346.795	197.97
347.007	60.76
347.219	1.37
347.431	-21.16
347.643	62.8
347.855	-39.59
348.067	109.91
348.279	-35.5
348.491	-0.68
348.703	138.58
348.915	38.23
349.127	3.41
349.339	71
349.551	66.9
349.763	144.72
349.975	107.86
350.187	68.95
350.399	101.72
350.61	50.52
350.822	91.48
351.034	68.95
351.246	-25.26
351.458	138.58
351.669	87.38
351.881	116.05
352.093	142.68
352.305	169.3
352.517	36.18
352.728	146.77
352.94	91.48
353.152	83.28
353.363	-49.83
353.575	60.76
353.787	56.66
353.999	99.67
354.21	189.78
354.422	-43.69
354.633	42.32
354.845	64.85
355.057	101.72
355.268	87.38
355.48	142.68
355.692	-6.83
355.903	15.7
356.115	13.65
356.326	19.8
356.538	134.48
356.749	64.85
356.961	97.62
357.172	38.23
357.384	-45.74
357.595	197.97
357.807	83.28
358.018	-0.68
358.23	54.61
358.441	177.49
358.653	27.99
358.864	-8.87
359.075	11.61
359.287	36.18
359.498	122.2
359.709	132.44
359.921	118.1
360.132	64.85
360.344	-2.73
360.555	-29.35
360.766	58.71
360.977	-0.68
361.189	107.86
361.4	-2.73
361.611	150.87
361.823	177.49
362.034	9.56
362.245	-10.92
362.456	111.96
362.667	126.29
362.879	-25.26
363.09	87.38
363.301	87.38
363.512	1.37
363.723	85.33
363.935	73.04
364.146	99.67
364.357	-8.87
364.568	68.95
364.779	-8.87
364.99	136.53
365.201	-29.35
365.412	85.33
365.623	-53.93
365.834	66.9
366.045	19.8
366.256	71
366.467	73.04
366.678	15.7
366.889	40.28
367.1	42.32
367.311	81.24
367.522	13.65
367.733	85.33
367.944	60.76
368.155	83.28
368.366	183.63
368.577	101.72
368.788	161.11
368.999	-64.17
369.209	25.94
369.42	238.93
369.631	202.07
369.842	60.76
370.053	56.66
370.264	169.3
370.474	-10.92
370.685	54.61
370.896	60.76
371.107	144.72
371.317	81.24
371.528	58.71
371.739	193.87
371.95	161.11
372.16	85.33
372.371	-21.16
372.582	15.7
372.792	128.34
373.003	60.76
373.214	50.52
373.424	64.85
373.635	-45.74
373.846	142.68
374.056	-8.87
374.267	68.95
374.477	114
374.688	-43.69
374.898	124.24
375.109	-4.78
375.319	103.76
375.53	77.14
375.74	116.05
375.951	11.61
376.161	52.56
376.372	136.53
376.582	68.95
376.793	89.43
377.003	44.37
377.214	79.19
377.424	64.85
377.635	5.46
377.845	32.08
378.055	247.12
378.266	-39.59
378.476	109.91
378.686	99.67
378.897	150.87
379.107	109.91
379.317	114
379.528	95.57
379.738	13.65
379.948	-0.68
380.158	103.76
380.369	-60.07
380.579	144.72
380.789	-2.73
380.999	66.9
381.21	193.87
381.42	154.96
381.63	40.28
381.84	66.9
382.05	75.09
382.261	103.76
382.471	140.63
382.681	-72.36
382.891	175.44
383.101	42.32
383.311	-49.83
383.521	-25.26
383.731	66.9
383.941	169.3
384.151	73.04
384.361	23.89
384.571	44.37
384.781	38.23
384.991	253.27
385.201	128.34
385.411	62.8
385.621	85.33
385.831	87.38
386.041	46.42
386.251	-23.21
386.461	103.76
386.671	27.99
386.881	60.76
387.091	58.71
387.301	124.24
387.511	19.8
387.72	118.1
387.93	128.34
388.14	-101.03
388.35	124.24
388.56	157.01
388.769	116.05
388.979	46.42
389.189	-66.22
389.399	38.23
389.609	138.58
389.818	154.96
390.028	87.38
390.238	103.76
390.447	5.46
390.657	54.61
390.867	44.37
391.076	-101.03
391.286	25.94
391.496	75.09
391.705	21.85
391.915	103.76
392.125	167.25
392.334	54.61
392.544	208.21
392.753	54.61
392.963	46.42
393.172	-76.46
393.382	52.56
393.591	238.93
393.801	7.51
394.01	210.26
394.22	130.39
394.429	36.18
394.639	7.51
394.848	-21.16
395.058	58.71
395.267	-39.59
395.477	83.28
395.686	23.89
395.895	185.68
396.105	214.35
396.314	34.13
396.524	107.86
396.733	105.81
396.942	146.77
397.152	66.9
397.361	91.48
397.57	126.29
397.78	36.18
397.989	79.19
398.198	226.64
398.407	99.67
398.617	66.9
398.826	85.33
399.035	21.85
399.244	107.86
399.453	111.96
399.663	97.62
399.872	81.24
400.081	-33.45
400.29	167.25
400.499	-58.03
400.708	91.48
400.917	15.7
401.127	-4.78
401.336	3.41
401.545	234.83
401.754	42.32
401.963	44.37
402.172	-4.78
402.381	-31.4
402.59	99.67
402.799	5.46
403.008	44.37
403.217	21.85
403.426	99.67
403.635	-19.11
403.844	120.15
404.053	50.52
404.262	42.32
404.471	146.77
404.68	44.37
404.888	19.8
405.097	46.42
405.306	64.85
405.515	101.72
405.724	46.42
405.933	114
406.142	99.67
406.35	118.1
406.559	101.72
406.768	40.28
406.977	148.82
407.185	105.81
407.394	83.28
407.603	-39.59
407.812	42.32
408.02	154.96
408.229	23.89
408.438	52.56
408.646	-64.17
408.855	93.52
409.064	38.23
409.272	60.76
409.481	142.68
409.69	23.89
409.898	-45.74
410.107	54.61
410.315	208.21
410.524	-15.02
410.733	159.06
410.941	11.61
411.15	124.24
411.358	122.2
411.567	107.86
411.775	62.8
411.984	40.28
412.192	120.15
412.401	15.7
412.609	251.22
412.818	146.77
413.026	48.47
413.234	21.85
413.443	124.24
413.651	11.61
413.86	60.76
414.068	177.49
414.276	142.68
414.485	-62.12
414.693	197.97
414.901	159.06
415.11	60.76
415.318	11.61
415.526	54.61
415.734	73.04
415.943	3.41
416.151	48.47
416.359	46.42
416.567	75.09
416.776	144.72
416.984	101.72
417.192	159.06
417.4	30.04
417.608	68.95
417.817	-2.73
418.025	111.96
418.233	226.64
418.441	44.37
418.649	-15.02
418.857	56.66
419.065	109.91
419.273	48.47
419.481	97.62
419.689	105.81
419.897	38.23
420.105	-4.78
420.313	75.09
420.521	191.83
420.729	114
420.937	38.23
421.145	-2.73
421.353	185.68
421.561	175.44
421.769	85.33
421.977	77.14
422.185	62.8
422.393	40.28
422.601	58.71
422.809	97.62
423.017	128.34
423.224	103.76
423.432	118.1
423.64	60.76
423.848	146.77
424.056	56.66
424.263	175.44
424.471	-0.68
424.679	173.39
424.887	19.8
425.094	169.3
425.302	122.2
425.51	27.99
425.718	138.58
425.925	148.82
426.133	-10.92
426.341	189.78
426.548	81.24
426.756	118.1
426.964	118.1
427.171	44.37
427.379	97.62
427.586	73.04
427.794	140.63
428.001	185.68
428.209	85.33
428.417	220.5
428.624	122.2
428.832	136.53
429.039	126.29
429.247	54.61
429.454	159.06
429.662	189.78
429.869	126.29
430.076	58.71
430.284	169.3
430.491	228.69
430.699	195.92
430.906	142.68
431.114	128.34
431.321	93.52
431.528	204.11
431.736	187.73
431.943	165.2
432.15	218.45
432.358	277.84
432.565	267.6
432.772	38.23
432.979	173.39
433.187	191.83
433.394	273.75
433.601	111.96
433.808	234.83
434.016	263.51
434.223	228.69
434.43	167.25
434.637	286.03
434.844	300.37
435.052	257.36
435.259	234.83
435.466	298.32
435.673	232.79
435.88	290.13
436.087	312.66
436.294	357.71
436.501	316.75
436.708	267.6
436.915	281.94
437.122	386.38
437.329	220.5
437.537	286.03
437.743	357.71
437.95	449.87
438.157	353.62
438.364	390.48
438.571	392.53
438.778	462.16
438.985	478.54
439.192	486.73
439.399	402.77
439.606	496.97
439.813	499.02
440.02	499.02
440.227	605.52
440.433	544.08
440.64	591.18
440.847	458.06
441.054	617.8
441.261	750.92
441.467	636.24
441.674	621.9
441.881	712.01
442.088	664.91
442.294	752.97
442.501	628.04
442.708	818.5
442.914	826.7
443.121	875.85
443.328	810.31
443.534	968.01
443.741	851.27
443.948	824.65
444.154	1109.32
444.361	1135.94
444.568	1056.07
444.774	1035.59
444.981	1033.54
445.187	1211.71
445.394	1224
445.6	1146.18
445.807	1338.69
446.013	1299.78
446.22	1258.82
446.426	1449.28
446.633	1467.71
446.839	1682.75
447.046	1471.81
447.252	1748.28
447.459	1580.35
447.665	1547.58
447.871	1744.19
448.078	2004.28
448.284	1881.4
448.491	1920.31
448.697	2151.73
448.903	2209.08
449.11	2209.08
449.316	2178.36
449.522	2368.82
449.728	2356.53
449.935	2469.17
450.141	2518.32
450.347	2837.8
450.553	2651.44
450.76	2811.18
450.966	3018.02
451.172	3177.76
451.378	3101.99
451.584	3222.82
451.791	3423.52
451.997	3460.38
452.203	3405.09
452.409	3671.33
452.615	4003.1
452.821	3988.76
453.027	3865.88
453.233	4439.31
453.44	4343.06
453.646	4373.78
453.852	4678.93
454.058	4883.72
454.264	4699.41
454.47	5328.13
454.676	5211.4
454.882	5879.04
455.088	5543.17
455.294	5805.31
455.5	6175.99
455.705	6702.32
455.911	6573.3
456.117	6847.72
456.323	6907.12
456.529	7167.21
456.735	7681.25
456.941	7939.29
457.147	8103.13
457.352	8228.06
457.558	8656.08
457.764	9053.39
457.97	9364.68
458.176	9731.26
458.381	10097.85
458.587	10431.67
458.793	10878.13
458.999	10763.44
459.204	12080.28
459.41	12510.36
459.616	12280.99
459.821	13218.96
460.027	13816.96
460.233	14296.19
460.438	14476.41
460.644	15168.62
460.85	15484.01
461.055	15770.72
461.261	16886.87
461.466	16403.55
461.672	16813.14
461.878	18768.95
462.083	18678.84
462.289	18840.63
462.494	19598.38
462.7	19733.54
462.905	19926.05
463.111	21720.07
463.316	22889.46
463.522	23077.88
463.727	23757.8
463.932	24656.86
464.138	25394.13
464.343	27093.94
464.549	26655.68
464.754	28863.39
464.959	29481.88
465.165	29733.78
465.37	30110.6
465.575	29760.4
465.781	31933.29
465.986	32877.41
466.191	32267.11
466.397	32678.75
466.602	31703.92
466.807	33545.05
467.012	34040.65
467.218	34970.43
467.423	34972.48
467.628	35742.52
467.833	37901.07
468.038	36967.2
468.244	36299.56
468.449	38492.94
468.654	37884.69
468.859	37690.13
469.064	37581.59
469.269	36590.37
469.474	36975.39
469.679	38417.16
469.885	36635.43
470.09	37827.35
470.295	37466.91
470.5	36965.15
470.705	37286.68
470.91	36461.35
471.115	35697.46
471.32	36231.98
471.525	35885.87
471.73	35021.63
471.935	35019.58
472.139	33842
472.344	33465.17
472.549	33549.14
472.754	33014.62
472.959	32103.28
473.164	31255.42
473.369	30456.71
473.574	31511.41
473.778	30913.41
473.983	30522.24
474.188	30229.38
474.393	28588.96
474.598	28402.6
474.802	27534.26
475.007	27329.46
475.212	27081.66
475.417	26356.68
475.621	25643.98
475.826	25297.88
476.031	24972.25
476.235	24294.37
476.44	24415.2
476.645	24103.91
476.849	23475.18
477.054	23159.8
477.259	22504.45
477.463	22510.59
477.668	22193.15
477.872	22090.76
478.077	21441.55
478.282	20859.93
478.486	20646.94
478.691	20427.81
478.895	20401.18
479.1	19997.73
479.304	20110.37
479.509	19149.87
479.713	19659.82
479.918	19160.11
480.122	18558.01
480.326	18824.25
480.531	18703.42
480.735	18478.14
480.94	18056.26
481.144	18773.05
481.348	17810.5
481.553	17841.22
481.757	17378.38
481.961	17890.37
482.166	17501.26
482.37	17388.62
482.574	16870.48
482.778	17292.37
482.983	17251.41
483.187	16792.66
483.391	16833.62
483.595	16356.44
483.8	16243.81
484.004	16475.23
484.208	16387.16
484.412	16032.86
484.616	16168.03
484.821	15856.74
485.025	15174.77
485.229	15367.27
485.433	15060.08
485.637	15025.26
485.841	14795.89
486.045	14736.5
486.249	14574.71
486.453	13982.85
486.657	14113.92
486.861	13882.5
487.065	13554.82
487.269	13329.55
487.473	12878.99
487.677	13079.69
487.881	13022.35
488.085	12659.86
488.289	12502.17
488.493	11973.79
488.697	12074.14
488.901	11785.38
489.105	11693.22
489.309	11484.33
489.512	11422.89
489.716	11064.49
489.92	10904.75
490.124	10640.56
490.328	10515.64
490.531	10304.7
490.735	10151.1
490.939	10060.99
491.143	9909.44
491.346	9837.76
491.55	9583.81
491.754	9563.33
491.958	9606.34
492.161	9239.75
492.365	8946.89
492.569	8914.13
492.772	8930.51
492.976	8836.3
493.18	8748.24
493.383	8717.52
493.587	8645.84
493.79	8443.09
493.994	8025.31
494.197	8096.99
494.401	8199.38
494.605	8113.37
494.808	7877.85
495.012	7861.47
495.215	7840.99
495.419	7767.26
495.622	7699.68
495.825	7761.12
496.029	7728.35
496.232	7920.86
496.436	7496.93
496.639	7666.91
496.843	7591.14
497.046	7742.69
497.249	7699.68
497.453	7824.61
497.656	7701.73
497.859	7652.58
498.063	7718.11
498.266	7892.19
498.469	7824.61
498.673	7871.71
498.876	7910.62
499.079	7548.13
499.282	7763.17
499.485	8236.25
499.689	7949.53
499.892	8205.53
500.095	8015.07
500.298	8295.64
500.501	8119.51
500.705	8455.38
500.908	8494.29
501.111	8568.02
501.314	8629.46
501.517	8821.97
501.72	8854.73
501.923	8707.28
502.126	8955.08
502.329	9168.07
502.532	9243.85
502.735	9202.89
502.938	9600.19
503.141	9462.98
503.344	9481.41
503.547	9974.97
503.75	9583.81
503.953	10054.84
504.156	10114.23
504.359	10204.35
504.562	10114.23
504.765	10642.61
504.968	10736.82
505.17	10990.77
505.373	11007.15
505.576	11383.98
505.779	11349.16
505.982	11685.03
506.185	12053.66
506.387	11984.03
506.59	12350.62
506.793	12545.17
506.996	12717.2
507.198	13180.04
507.401	13145.23
507.604	13415.56
507.807	13831.3
508.009	14066.81
508.212	14351.48
508.415	14687.35
508.617	14943.35
508.82	15074.42
509.022	15344.75
509.225	15912.03
509.428	16389.21
509.63	16688.21
509.833	16716.89
510.035	17579.08
510.238	17677.38
510.44	17841.22
510.643	18590.78
510.845	18869.3
511.048	19002.42
511.25	19735.59
511.453	19708.97
511.655	20810.78
511.858	21191.7
512.06	21437.45
512.262	21912.58
512.465	22369.28
512.667	23000.05
512.87	23487.47
513.072	23743.47
513.274	24650.72
513.477	25181.14
513.679	25764.81
513.881	26385.35
514.084	26858.43
514.286	27333.56
514.488	27823.02
514.69	28986.27
514.893	28994.46
515.095	29825.93
515.297	30397.32
515.499	30976.89
515.701	31515.51
515.904	32543.59
516.106	33399.64
516.308	33952.59
516.51	34689.86
516.712	35640.12
516.914	36162.35
517.116	36793.12
517.318	37083.94
517.52	38218.51
517.722	38570.76
517.925	39312.13
518.127	40266.48
518.329	40803.05
518.531	41401.05
518.733	42541.77
518.935	42699.47
519.136	43242.18
519.338	44376.75
519.54	44896.94
519.742	45638.3
519.944	45972.12
520.146	47012.49
520.348	47571.58
520.55	48419.44
520.752	48589.42
520.954	49789.53
521.155	49949.28
521.357	50844.24
521.559	51511.88
521.761	52105.79
521.963	51948.09
522.164	52738.61
522.366	53252.65
522.568	54336.02
522.77	54172.19
522.971	55026.19
523.173	54467.09
523.375	55538.18
523.576	55261.71
523.778	56054.27
523.98	56109.57
524.181	56568.31
524.383	56613.37
524.584	57522.66
524.786	57100.78
524.988	56799.73
525.189	57651.69
525.391	57954.78
525.592	57958.88
525.794	57739.75
525.995	57524.71
526.197	57473.51
526.398	57717.22
526.6	57577.96
526.801	57528.81
527.003	57266.67
527.204	57379.31
527.406	57319.91
527.607	56902.13
527.808	57309.67
528.01	56007.17
528.211	56134.14
528.412	56267.26
528.614	55583.24
528.815	55251.47
529.016	55685.64
529.218	54024.73
529.419	54051.36
529.62	53733.92
529.822	53086.76
530.023	53049.9
530.224	52646.45
530.425	52040.25
530.626	51032.65
530.828	50700.88
531.029	51212.87
531.23	49963.61
531.431	49547.87
531.632	49216.1
531.833	48542.32
532.035	47798.91
532.236	47598.21
532.437	47587.97
532.638	46297.75
532.839	45707.93
533.04	45583.01
533.241	44430
533.442	44831.4
533.643	43772.6
533.844	42865.35
534.045	42377.93
534.246	41865.94
534.447	41351.9
534.648	40831.72
534.849	40381.17
535.05	39744.25
535.251	39453.44
535.451	38974.21
535.652	38441.74
535.853	37698.33
536.054	37491.48
536.255	37180.19
536.456	36035.38
536.657	36311.85
536.857	35529.53
537.058	35052.35
537.259	34685.76
537.46	34085.71
537.66	33534.81
537.861	33147.74
538.062	32727.91
538.263	32224.11
538.463	31820.66
538.664	31564.66
538.865	31157.11
539.065	31320.95
539.266	30126.99
539.466	30038.92
539.667	29586.32
539.868	29580.18
540.068	28849.05
540.269	28545.95
540.469	28210.09
540.67	27876.27
540.87	27993
541.071	27184.05
541.271	26899.39
541.472	26700.73
541.672	25940.94
541.873	25940.94
542.073	25517.01
542.274	25482.19
542.474	25115.61
542.675	24949.72
542.875	24982.49
543.075	24384.48
543.276	23815.15
543.476	23952.36
543.676	23385.07
543.877	23440.37
544.077	22965.24
544.277	22903.8
544.478	22397.95
544.678	22379.52
544.878	21738.51
545.078	21675.02
545.279	21160.98
545.479	21326.86
545.679	20988.95
545.879	20603.93
546.079	20581.4
546.28	19973.16
546.48	20022.31
546.68	19956.77
546.88	19551.28
547.08	19229.74
547.28	19184.69
547.48	18877.49
547.68	18809.91
547.88	18211.9
548.081	18232.38
548.281	17800.26
548.481	17781.83
548.681	17785.93
548.881	17386.57
549.081	17249.36
549.28	16712.79
549.48	16551
549.68	16409.69
549.88	16387.16
550.08	15905.89
550.28	15854.69
550.48	15574.12
550.68	15508.58
550.88	15211.63
551.08	14818.42
551.279	14687.35
551.479	14740.6
551.679	14537.85
551.879	14001.28
552.079	13900.93
552.278	13708.42
552.478	13796.48
552.678	13302.92
552.878	13210.76
553.077	12936.34
553.277	12539.03
553.477	12557.46
553.676	12620.95
553.876	12217.5
554.076	11816.1
554.275	11625.64
554.475	11654.31
554.674	11388.07
554.874	11269.29
555.074	10818.74
555.273	10955.95
555.473	10808.5
555.672	10411.19
555.872	10230.97
556.071	10233.02
556.271	10144.95
556.47	9708.74
556.67	9635.01
556.869	9549
557.068	9354.44
557.268	9280.71
557.467	9082.06
557.667	8991.95
557.866	8815.82
558.065	8557.78
558.265	8453.33
558.464	8369.37
558.663	8379.61
558.863	8064.22
559.062	8008.92
559.261	7605.47
559.461	7826.65
559.66	7716.06
559.859	7396.58
560.058	7189.74
560.258	7247.08
560.457	7187.69
560.656	7132.39
560.855	6638.83
561.054	6907.12
561.253	6716.65
561.453	6597.87
561.652	6481.14
561.851	6378.74
562.05	6313.2
562.249	5987.58
562.448	6243.57
562.647	5936.38
562.846	6034.68
563.045	5856.51
563.244	5577.98
563.443	5723.39
563.642	5365
563.841	5561.6
564.04	5416.19
564.239	5453.06
564.438	5119.24
564.637	5000.46
564.836	5088.52
565.035	4973.83
565.234	4871.44
565.432	4816.14
565.631	4916.49
565.83	4865.29
566.029	4631.82
566.228	4562.19
566.427	4537.62
566.625	4271.38
566.824	4295.96
567.023	4273.43
567.222	4310.29
567.42	4209.94
567.619	4121.88
567.818	4066.58
568.016	4226.32
568.215	3935.51
568.414	3951.9
568.612	3837.21
568.811	3763.48
569.01	3822.88
569.208	3798.3
569.407	3638.56
569.605	3575.07
569.804	3493.15
570.002	3464.48
570.201	3405.09
570.4	3419.43
570.598	3280.16
570.797	3163.43
570.995	3325.22
571.193	3118.37
571.392	3181.86
571.59	3071.27
571.789	3011.88
571.987	2995.5
572.186	3069.22
572.384	2843.95
572.582	2823.47
572.781	2915.62
572.979	2637.1
573.177	2579.76
573.376	2710.83
573.574	2676.01
573.772	2575.66
573.971	2559.28
574.169	2460.98
574.367	2518.32
574.565	2407.73
574.763	2383.15
574.962	2485.55
575.16	2381.11
575.358	2239.8
575.556	2315.57
575.754	2159.92
575.952	2186.55
576.151	2129.2
576.349	2178.36
576.547	1934.65
576.745	1985.85
576.943	1973.56
577.141	1930.55
577.339	1926.46
577.537	1973.56
577.735	1934.65
577.933	1897.78
578.131	1711.42
578.329	1987.89
578.527	1762.62
578.725	1875.26
578.923	1629.5
579.121	1838.39
579.319	1492.29
579.516	1660.22
579.714	1817.91
579.912	1572.16
580.11	1498.43
580.308	1527.1
580.506	1510.72
580.704	1355.07
580.901	1516.86
581.099	1594.69
581.297	1424.7
581.495	1492.29
581.692	1379.65
581.89	1418.56
582.088	1316.16
582.285	1258.82
582.483	1293.63
582.681	1310.02
582.878	1240.39
583.076	1303.87
583.274	1217.86
583.471	1269.06
583.669	1121.6
583.866	1103.17
584.064	1193.28
584.262	1039.69
584.459	1021.25
584.657	1082.69
584.854	1080.64
585.052	1107.27
585.249	1047.88
585.447	1088.84
585.644	904.52
585.841	1021.25
586.039	1017.16
586.236	1064.26
586.434	970.05
586.631	968.01
586.828	867.66
587.026	945.48
587.223	820.55
587.42	795.98
587.618	863.56
587.815	961.86
588.012	920.9
588.21	798.03
588.407	881.99
588.604	982.34
588.801	820.55
588.999	912.71
589.196	900.42
589.393	779.59
589.59	853.32
589.787	773.45
589.984	892.23
590.182	810.31
590.379	734.54
590.576	816.46
590.773	736.59
590.97	744.78
591.167	765.26
591.364	767.31
591.561	755.02
591.758	974.15
591.955	863.56
592.152	759.11
592.349	587.08
592.546	683.34
592.743	673.1
592.94	757.07
593.137	677.19
593.334	832.84
593.531	787.79
593.727	820.55
593.924	800.07
594.121	738.63
594.318	658.76
594.515	775.5
594.712	890.18
594.908	853.32
595.105	650.57
595.302	838.98
595.499	746.83
595.696	906.57
595.892	679.24
596.089	900.42
596.286	830.79
596.482	937.29
596.679	914.76
596.876	779.59
597.072	1088.84
597.269	908.62
597.466	941.38
597.662	910.66
597.859	933.19
598.055	1029.45
598.252	1148.23
598.448	1224
598.645	1217.86
598.841	1142.08
599.038	1318.21
599.234	1488.19
599.431	1244.48
599.627	1326.4
599.824	1328.45
600.02	1463.62
600.217	1375.55
600.413	1527.1
600.609	1488.19
600.806	1840.44
601.002	1717.56
601.198	1740.09
601.395	1854.78
601.591	1889.59
601.787	1981.75
601.984	2059.57
602.18	2174.26
602.376	2149.68
602.572	2325.81
602.769	2495.79
602.965	2491.7
603.161	2620.72
603.357	2618.67
603.553	2753.84
603.75	2882.86
603.946	2962.73
604.142	2979.11
604.338	3134.76
604.534	3087.65
604.73	3317.03
604.926	3376.42
605.122	3603.74
605.318	3710.24
605.514	3661.09
605.71	3882.27
605.906	4027.67
606.102	4193.56
606.298	4226.32
606.494	4316.44
606.69	4467.99
606.886	4648.21
607.082	4746.51
607.278	4955.4
607.474	4965.64
607.67	5131.53
607.866	5063.94
608.062	5524.74
608.257	5510.4
608.453	5629.18
608.649	6026.49
608.845	6010.11
609.041	6077.69
609.236	6200.57
609.432	6653.17
609.628	6765.81
609.824	6984.94
610.019	6878.44
610.215	7238.89
610.411	7576.8
610.606	7701.73
610.802	7656.67
610.998	8049.88
611.193	8287.45
611.389	8209.62
611.584	8760.53
611.78	8752.34
611.976	9112.78
612.171	9430.21
612.367	9606.34
612.562	9915.58
612.758	9972.93
612.953	10167.48
613.149	10480.82
613.344	10732.72
613.539	11044.01
613.735	11611.3
613.93	11777.19
614.126	11672.74
614.321	12477.59
614.517	12829.84
614.712	12965.01
614.907	13386.89
615.103	13630.6
615.298	13921.41
615.493	14378.11
615.688	14576.76
615.884	15258.73
616.079	15268.97
616.274	15733.86
616.47	16241.76
616.665	16444.51
616.86	16946.26
617.055	17513.55
617.25	17634.38
617.445	18349.12
617.641	18500.67
617.836	19166.26
618.031	19237.94
618.226	20149.28
618.421	20487.2
618.616	21249.04
618.811	21195.79
619.006	22017.03
619.201	22197.25
619.396	22885.37
619.591	23133.17
619.786	23958.5
619.981	24200.16
620.176	24953.82
620.371	25138.13
620.566	25727.95
620.761	26489.79
620.956	27216.82
621.151	27177.91
621.346	27941.8
621.541	28365.73
621.735	29324.18
621.93	29168.54
622.125	30163.85
622.32	30262.15
622.515	31249.27
622.709	31345.53
622.904	32170.86
623.099	32535.4
623.294	33530.71
623.488	33895.25
623.683	34915.14
623.878	34927.42
624.072	35541.81
624.267	36082.48
624.462	36401.96
624.656	37094.18
624.851	37843.73
625.046	37970.71
625.24	38777.61
625.435	39123.71
625.629	39971.57
625.824	40317.68
626.018	40788.71
626.213	40534.76
626.407	41579.23
626.602	41396.96
626.796	43117.25
626.991	43135.68
627.185	42996.42
627.38	43354.82
627.574	43664.06
627.768	43705.02
627.963	43868.86
628.157	44280.5
628.352	45013.67
628.546	44462.77
628.74	45556.38
628.935	44855.98
629.129	45189.8
629.323	44479.15
629.517	44118.71
629.712	44165.81
629.906	43887.29
630.1	42885.83
630.294	43391.68
630.489	42603.21
630.683	42617.55
630.877	41356
631.071	41089.76
631.265	40620.78
631.459	39746.29
631.653	38832.9
631.848	38167.31
632.042	37100.32
632.236	36766.5
632.43	35334.97
632.624	34741.06
632.818	33418.07
633.012	32662.37
633.206	31437.69
633.4	30598.02
633.594	29422.48
633.788	28687.26
633.982	27589.55
634.176	26901.43
634.369	25809.87
634.563	24935.38
634.757	23817.19
634.951	23411.7
635.145	22483.97
635.339	21593.1
635.533	20591.64
635.726	19606.57
635.92	18940.98
636.114	18125.89
636.308	17347.66
636.501	16837.72
636.695	15993.95
636.889	15158.38
637.083	14640.25
637.276	14068.86
637.47	13661.32
637.664	13001.87
637.857	12518.55
638.051	11979.93
638.244	11375.78
638.438	11025.58
638.632	10478.77
638.825	9987.26
639.019	9770.18
639.212	9331.91
639.406	8965.32
639.599	8580.31
639.793	8328.41
639.986	7906.52
640.18	7871.71
640.373	7554.27
640.567	7099.62
640.76	6843.63
640.954	6597.87
641.147	6253.81
641.34	6085.88
641.534	5813.5
641.727	5592.32
641.92	5629.18
642.114	5328.13
642.307	5057.8
642.5	4850.96
642.694	4617.49
642.887	4498.7
643.08	4476.18
643.273	4132.12
643.467	3945.75
643.66	3763.48
643.853	3630.37
644.046	3642.65
644.239	3474.72
644.432	3169.57
644.626	3013.93
644.819	3138.85
645.012	2927.91
645.205	2936.1
645.398	2762.03
645.591	2618.67
645.784	2565.42
645.977	2403.63
646.17	2323.76
646.363	2280.75
646.556	2168.12
646.749	1967.42
646.942	1977.66
647.135	1873.21
647.328	1819.96
647.521	1811.77
647.714	1779
647.907	1688.89
648.099	1588.54
648.292	1570.11
648.485	1523.01
648.678	1400.13
648.871	1318.21
649.064	1338.69
649.256	1170.76
649.449	1117.51
649.642	1084.74
649.835	1070.4
650.027	1064.26
650.22	1166.66
650.413	953.67
650.605	1107.27
650.798	1002.82
650.991	859.46
651.183	949.57
651.376	925
651.568	918.86
651.761	783.69
651.954	765.26
652.146	675.15
652.339	781.64
652.531	740.68
652.724	626
652.916	582.99
653.109	548.17
653.301	738.63
653.494	626
653.686	605.52
653.879	650.57
654.071	660.81
654.263	519.5
654.456	515.41
654.648	652.62
654.84	605.52
655.033	505.17
655.225	546.13
655.417	316.75
655.61	548.17
655.802	447.82
655.994	587.08
656.186	273.75
656.379	499.02
656.571	329.04
656.763	324.94
656.955	367.95
657.148	365.9
657.34	505.17
657.532	306.51
657.724	349.52
657.916	363.86
658.108	460.11
658.3	341.33
658.492	337.23
658.684	247.12
658.876	302.42
659.068	318.8
659.26	197.97
659.452	232.79
659.644	365.9
659.836	382.29
660.028	251.22
660.22	195.92
660.412	281.94
660.604	277.84
660.796	324.94
660.988	337.23
661.18	279.89
661.372	193.87
661.563	226.64
661.755	245.07
661.947	140.63
662.139	136.53
662.331	220.5
662.522	216.4
662.714	175.44
662.906	218.45
663.097	249.17
663.289	204.11
663.481	60.76
663.673	251.22
663.864	163.15
664.056	228.69
664.247	208.21
664.439	238.93
664.631	163.15
664.822	283.98
665.014	234.83
665.205	183.63
665.397	111.96
665.588	195.92
665.78	222.55
665.971	228.69
666.163	275.79
666.354	161.11
666.546	189.78
666.737	171.35
666.929	109.91
667.12	206.16
667.311	208.21
667.503	132.44
667.694	179.54
667.885	202.07
668.077	218.45
668.268	48.47
668.459	138.58
668.651	187.73
668.842	185.68
669.033	81.24
669.224	48.47
669.416	392.53
669.607	181.59
669.798	169.3
669.989	304.46
670.18	226.64
670.371	247.12
670.563	38.23
670.754	222.55
670.945	247.12
671.136	265.55
671.327	103.76
671.518	189.78
671.709	255.31
671.9	187.73
672.091	298.32
672.282	218.45
672.473	214.35
672.664	95.57
672.855	208.21
673.046	175.44
673.237	195.92
673.428	146.77
673.619	240.98
673.809	191.83
674	296.27
674.191	234.83
674.382	257.36
674.573	202.07
674.764	126.29
674.954	212.31
675.145	140.63
675.336	142.68
675.527	245.07
675.717	130.39
675.908	187.73
676.099	116.05
676.289	210.26
676.48	93.52
676.671	197.97
676.861	249.17
677.052	208.21
677.243	200.02
677.433	189.78
677.624	224.59
677.814	271.7
678.005	243.03
678.195	398.67
678.386	210.26
678.576	257.36
678.767	71
678.957	212.31
679.148	212.31
679.338	400.72
679.529	294.22
679.719	212.31
679.909	329.04
680.1	380.24
680.29	200.02
680.481	206.16
680.671	257.36
680.861	333.14
681.052	218.45
681.242	269.65
681.432	333.14
681.622	277.84
681.813	152.91
682.003	240.98
682.193	202.07
682.383	271.7
682.573	202.07
682.764	181.59
682.954	290.13
683.144	355.66
683.334	179.54
683.524	271.7
683.714	331.09
683.904	306.51
684.094	298.32
684.284	304.46
684.474	365.9
684.664	345.42
684.854	423.25
685.044	202.07
685.234	306.51
685.424	308.56
685.614	269.65
685.804	408.91
685.994	263.51
686.184	232.79
686.374	320.85
686.564	267.6
686.753	361.81
686.943	265.55
687.133	312.66
687.323	312.66
687.513	374.1
687.702	316.75
687.892	318.8
688.082	376.14
688.272	326.99
688.461	406.86
688.651	427.34
688.841	316.75
689.03	376.14
689.22	314.7
689.41	396.62
689.599	372.05
689.789	263.51
689.979	474.45
690.168	183.63
690.358	413.01
690.547	396.62
690.737	355.66
690.926	353.62
691.116	314.7
691.305	283.98
691.495	351.57
691.684	322.9
691.874	265.55
692.063	314.7
692.252	355.66
692.442	277.84
692.631	302.42
692.82	347.47
693.01	277.84
693.199	283.98
693.388	361.81
693.578	263.51
693.767	288.08
693.956	320.85
694.146	316.75
694.335	290.13
694.524	253.27
694.713	372.05
694.902	306.51
695.092	279.89
695.281	345.42
695.47	275.79
695.659	142.68
695.848	249.17
696.037	228.69
696.226	345.42
696.415	292.18
696.604	355.66
696.793	281.94
696.982	247.12
697.171	378.19
697.36	210.26
697.549	304.46
697.738	189.78
697.927	269.65
698.116	197.97
698.305	290.13
698.494	277.84
698.683	216.4
698.872	382.29
699.061	296.27
699.25	316.75
699.438	322.9
699.627	314.7
699.816	433.49
700.005	226.64
700.193	210.26
700.382	316.75
700.571	296.27
700.76	267.6
700.948	312.66
701.137	343.38
701.326	376.14
701.514	208.21
701.703	253.27
701.892	304.46
702.08	447.82
702.269	265.55
702.457	257.36
702.646	302.42
702.834	253.27
703.023	370
703.212	361.81
703.4	326.99
703.589	234.83
703.777	251.22
703.965	226.64
704.154	261.46
704.342	189.78
704.531	132.44
704.719	247.12
704.907	417.1
705.096	206.16
705.284	202.07
705.472	296.27
705.661	189.78
705.849	247.12
706.037	376.14
706.226	238.93
706.414	335.18
706.602	243.03
706.79	294.22
706.979	277.84
707.167	312.66
707.355	200.02
707.543	322.9
707.731	216.4
707.919	269.65
708.107	220.5
708.296	193.87
708.484	240.98
708.672	275.79
708.86	275.79
709.048	308.56
709.236	214.35
709.424	273.75
709.612	294.22
709.8	161.11
709.988	308.56
710.176	355.66
710.364	361.81
710.551	290.13
710.739	306.51
710.927	304.46
711.115	306.51
711.303	333.14
711.491	372.05
711.679	290.13
711.866	357.71
712.054	218.45
712.242	306.51
712.43	361.81
712.617	181.59
712.805	304.46
712.993	208.21
713.181	138.58
713.368	306.51
713.556	245.07
713.744	197.97
713.931	427.34
714.119	341.33
714.306	286.03
714.494	261.46
714.682	353.62
714.869	230.74
715.057	257.36
715.244	255.31
715.432	277.84
715.619	245.07
715.807	263.51
715.994	222.55
716.182	243.03
716.369	363.86
716.556	316.75
716.744	249.17
716.931	140.63
717.119	275.79
717.306	247.12
717.493	255.31
717.681	163.15
717.868	326.99
718.055	296.27
718.242	310.61
718.43	294.22
718.617	372.05
718.804	298.32
718.991	433.49
719.179	259.41
719.366	335.18
719.553	255.31
719.74	243.03
719.927	339.28
720.114	292.18
720.301	281.94
720.488	271.7
720.676	200.02
720.863	361.81
721.05	443.73
721.237	257.36
721.424	322.9
721.611	374.1
721.798	247.12
721.985	208.21
722.172	292.18
722.358	288.08
722.545	357.71
722.732	331.09
722.919	380.24
723.106	277.84
723.293	308.56
723.48	376.14
723.667	269.65
723.853	218.45
724.04	374.1
724.227	326.99
724.414	343.38
724.6	402.77
724.787	525.65
724.974	392.53
725.161	365.9
725.347	296.27
725.534	320.85
725.72	378.19
725.907	359.76
726.094	335.18
726.28	331.09
726.467	361.81
726.653	322.9
726.84	478.54
727.027	517.45
727.213	351.57
727.4	378.19
727.586	392.53
727.773	343.38
727.959	460.11
728.145	349.52
728.332	339.28
728.518	283.98
728.705	345.42
728.891	300.37
729.077	326.99
729.264	374.1
729.45	322.9
729.636	388.43
729.823	445.77
730.009	480.59
730.195	290.13
730.382	447.82
730.568	361.81
730.754	365.9
730.94	367.95
731.126	374.1
731.313	417.1
731.499	349.52
731.685	443.73
731.871	496.97
732.057	447.82
732.243	417.1
732.429	404.82
732.615	537.93
732.801	419.15
732.987	333.14
733.173	347.47
733.359	298.32
733.545	419.15
733.731	408.91
733.917	490.83
734.103	337.23
734.289	382.29
734.475	247.12
734.661	488.78
734.847	386.38
735.033	410.96
735.219	419.15
735.404	326.99
735.59	286.03
735.776	329.04
735.962	404.82
736.148	431.44
736.333	503.12
736.519	341.33
736.705	347.47
736.89	388.43
737.076	345.42
737.262	349.52
737.447	357.71
737.633	392.53
737.819	554.32
738.004	351.57
738.19	423.25
738.375	439.63
738.561	527.69
738.747	390.48
738.932	335.18
739.118	525.65
739.303	494.93
739.489	380.24
739.674	382.29
739.859	320.85
740.045	447.82
740.23	363.86
740.416	277.84
740.601	402.77
740.786	372.05
740.972	296.27
741.157	308.56
741.342	294.22
741.528	390.48
741.713	484.69
741.898	386.38
742.084	400.72
742.269	408.91
742.454	427.34
742.639	466.25
742.824	404.82
743.01	499.02
743.195	546.13
743.38	449.87
743.565	390.48
743.75	361.81
743.935	413.01
744.12	494.93
744.305	263.51
744.49	388.43
744.675	406.86
744.86	419.15
745.045	351.57
745.23	367.95
745.415	384.34
745.6	439.63
745.785	343.38
745.97	382.29
746.155	413.01
746.34	443.73
746.525	361.81
746.71	447.82
746.895	261.46
747.079	296.27
747.264	433.49
747.449	355.66
747.634	423.25
747.819	351.57
748.003	365.9
748.188	275.79
748.373	367.95
748.557	335.18
748.742	365.9
748.927	234.83
749.111	316.75
749.296	347.47
749.481	380.24
749.665	261.46
749.85	286.03
750.034	400.72
750.219	370
750.404	329.04
750.588	378.19
750.773	347.47
750.957	251.22
751.141	343.38
751.326	302.42
751.51	267.6
751.695	251.22
751.879	255.31
752.064	400.72
752.248	304.46
752.432	372.05
752.617	333.14
752.801	417.1
752.985	292.18
753.17	347.47
753.354	312.66
753.538	308.56
753.722	259.41
753.907	265.55
754.091	277.84
754.275	304.46
754.459	230.74
754.643	257.36
754.828	396.62
755.012	236.88
755.196	187.73
755.38	281.94
755.564	228.69
755.748	212.31
755.932	290.13
756.116	355.66
756.3	329.04
756.484	251.22
756.668	269.65
756.852	146.77
757.036	236.88
757.22	228.69
757.404	116.05
757.588	224.59
757.772	283.98
757.956	308.56
758.14	310.61
758.323	179.54
758.507	320.85
758.691	197.97
758.875	277.84
759.059	343.38
759.242	197.97
759.426	222.55
759.61	232.79
759.794	165.2
759.977	314.7
760.161	372.05
760.345	304.46
760.528	286.03
760.712	236.88
760.895	259.41
761.079	181.59
761.263	206.16
761.446	99.67
761.63	195.92
761.813	288.08
761.997	157.01
762.18	245.07
762.364	228.69
762.547	210.26
762.731	161.11
762.914	206.16
763.098	234.83
763.281	157.01
763.464	148.82
763.648	271.7
763.831	214.35
764.015	126.29
764.198	257.36
764.381	257.36
764.564	189.78
764.748	140.63
764.931	202.07
765.114	171.35
765.297	234.83
765.481	111.96
765.664	152.91
765.847	171.35
766.03	300.37
766.213	163.15
766.397	179.54
766.58	167.25
766.763	220.5
766.946	140.63
767.129	75.09
767.312	138.58
767.495	216.4
767.678	148.82
767.861	195.92
768.044	177.49
768.227	175.44
768.41	177.49
768.593	144.72
768.776	163.15
768.959	191.83
769.142	263.51
769.324	89.43
769.507	181.59
769.69	159.06
769.873	95.57
770.056	314.7
770.239	171.35
770.421	253.27
770.604	150.87
770.787	114
770.97	148.82
771.152	71
771.335	234.83
771.518	54.61
771.7	208.21
771.883	169.3
772.066	103.76
772.248	185.68
772.431	177.49
772.613	202.07
772.796	66.9
772.978	249.17
773.161	259.41
773.343	103.76
773.526	19.8
773.708	-19.11
773.891	21.85
774.073	81.24
774.256	126.29
774.438	232.79
774.621	118.1
774.803	259.41
774.985	89.43
775.168	230.74
775.35	81.24
775.532	210.26
775.715	66.9
775.897	206.16
776.079	56.66
776.261	114
776.444	134.48
776.626	167.25
776.808	159.06
776.99	19.8
777.173	89.43
777.355	66.9
777.537	101.72
777.719	114
777.901	89.43
778.083	118.1
778.265	48.47
778.447	79.19
778.629	40.28
778.811	134.48
778.993	212.31
779.175	175.44
779.357	93.52
779.539	77.14
779.721	56.66
779.903	128.34
780.085	38.23
780.267	146.77
780.449	103.76
780.631	91.48
780.812	216.4
780.994	118.1
781.176	34.13
781.358	-23.21
781.54	81.24
781.721	109.91
781.903	150.87
782.085	62.8
782.267	130.39
782.448	5.46
782.63	103.76
782.812	97.62
782.993	105.81
783.175	128.34
783.357	-19.11
783.538	144.72
783.72	75.09
783.901	56.66
784.083	48.47
784.264	62.8
784.446	-47.79
784.627	5.46
784.809	73.04
784.99	77.14
785.172	111.96
785.353	66.9
785.535	111.96
785.716	5.46
785.897	64.85
786.079	13.65
786.26	99.67
786.441	169.3
786.623	-55.98
786.804	5.46
786.985	56.66
787.167	81.24
787.348	99.67
787.529	19.8
787.71	193.87
787.891	122.2
788.073	19.8
788.254	-27.31
788.435	138.58
788.616	27.99
788.797	56.66
788.978	83.28
789.159	75.09
789.34	71
789.522	73.04
789.703	13.65
789.884	97.62
790.065	58.71
790.246	114
790.427	-27.31
790.607	232.79
790.788	144.72
790.969	-90.79
791.15	152.91
791.331	58.71
791.512	64.85
791.693	-88.75
791.874	73.04
792.054	142.68
792.235	95.57
792.416	-39.59
792.597	-72.36
792.778	105.81
792.958	46.42
793.139	95.57
793.32	36.18
793.5	-25.26
793.681	83.28
793.862	101.72
794.042	40.28
794.223	-27.31
794.404	42.32
794.584	-58.03
794.765	-0.68
794.945	48.47
795.126	150.87
795.306	99.67
795.487	64.85
795.667	30.04
795.848	48.47
796.028	-19.11
796.209	30.04
796.389	105.81
796.57	23.89
796.75	-80.55
796.93	58.71
797.111	-64.17
797.291	44.37
797.471	56.66
797.652	54.61
797.832	30.04
798.012	62.8
798.192	-68.27
798.373	-25.26
798.553	27.99
798.733	154.96
798.913	-27.31
799.093	7.51
799.274	75.09
799.454	64.85
799.634	54.61
799.814	93.52
799.994	99.67
800.174	116.05
800.354	95.57
800.534	-80.55
800.714	122.2
800.894	-23.21
801.074	-51.88
801.254	-25.26
801.434	105.81
801.614	-53.93
801.794	-88.75
801.974	1656.12
802.154	32.08
802.334	122.2
802.514	-33.45
802.693	34.13
802.873	-2.73
803.053	126.29
803.233	62.8
803.413	9.56
803.592	73.04
803.772	-6.83
803.952	42.32
804.131	-68.27
804.311	3.41
804.491	38.23
804.67	38.23
804.85	-96.94
805.03	71
805.209	44.37
805.389	54.61
805.568	-53.93
805.748	-15.02
805.928	-12.97
806.107	54.61
806.287	93.52
806.466	97.62
806.646	5.46
806.825	21.85
807.004	60.76
807.184	60.76
807.363	50.52
807.543	46.42
807.722	-17.07
807.901	99.67
808.081	54.61
808.26	-76.46
808.439	50.52
808.619	-17.07
808.798	42.32
808.977	-6.83
809.156	142.68
809.336	97.62
809.515	48.47
809.694	-0.68
809.873	-0.68
810.052	-4.78
810.231	114
810.411	-31.4
810.59	130.39
810.769	34.13
810.948	25.94
811.127	-23.21
811.306	21.85
811.485	27.99
811.664	97.62
811.843	13.65
812.022	50.52
812.201	-0.68
812.38	44.37
812.559	68.95
812.737	42.32
812.916	-98.99
813.095	-60.07
813.274	-10.92
813.453	-0.68
813.632	48.47
813.811	17.75
813.989	-66.22
814.168	99.67
814.347	-74.41
814.526	-27.31
814.704	101.72
814.883	130.39
815.062	-58.03
815.24	101.72
815.419	-68.27
815.598	95.57
815.776	-17.07
815.955	64.85
816.133	-158.38
816.312	30.04
816.49	-49.83
816.669	56.66
816.847	21.85
817.026	48.47
817.204	-43.69
817.383	-23.21
817.561	-62.12
817.74	128.34
817.918	50.52
818.097	-98.99
818.275	-88.75
818.453	107.86
818.632	50.52
818.81	-37.55
818.988	-12.97
819.167	-0.68
819.345	21.85
819.523	7.51
819.701	-19.11
819.879	85.33
820.058	66.9
820.236	-2.73
820.414	38.23
820.592	-53.93
820.77	38.23
820.948	-31.4
821.127	-39.59
821.305	56.66
821.483	-37.55
821.661	118.1
821.839	40.28
822.017	-37.55
822.195	17.75
822.373	105.81
822.551	-58.03
822.729	36.18
822.907	-2.73
823.085	58.71
823.262	11.61
823.44	-51.88
823.618	-6.83
823.796	-109.22
823.974	21.85
824.152	-49.83
824.329	44.37
824.507	83.28
824.685	11.61
824.863	-41.64
825.04	27.99
825.218	42.32
825.396	-2.73
825.574	3.41
825.751	60.76
825.929	64.85
826.107	-96.94
826.284	34.13
826.462	15.7
826.639	-51.88
826.817	-58.03
826.994	66.9
827.172	-41.64
827.349	187.73
827.527	46.42
827.704	-55.98
827.882	83.28
828.059	-12.97
828.237	-29.35
828.414	1.37
828.591	-76.46
828.769	60.76
828.946	-10.92
829.124	52.56
829.301	157.01
829.478	-58.03
829.655	60.76
829.833	-8.87
830.01	-121.51
830.187	58.71
830.364	68.95
830.542	-49.83
830.719	101.72
830.896	38.23
831.073	36.18
831.25	17.75
831.427	95.57
831.604	89.43
831.782	75.09
831.959	38.23
832.136	3.41
832.313	21.85
832.49	-70.31
832.667	-6.83
832.844	-60.07
833.021	27.99
833.198	-23.21
833.374	32.08
833.551	73.04
833.728	58.71
833.905	40.28
834.082	-10.92
834.259	83.28
834.436	52.56
834.612	-82.6
834.789	32.08
834.966	23.89
835.143	27.99
835.319	-107.18
835.496	9.56
835.673	68.95
835.85	60.76
836.026	17.75
836.203	81.24
836.38	-62.12
836.556	-35.5
836.733	-10.92
836.909	136.53
837.086	73.04
837.262	-82.6
837.439	-19.11
837.616	3.41
837.792	23.89
837.968	21.85
838.145	-107.18
838.321	-0.68
838.498	13.65
838.674	27.99
838.851	126.29
839.027	-4.78
839.203	95.57
839.38	64.85
839.556	-68.27
839.732	34.13
839.909	-6.83
840.085	71
840.261	-12.97
840.437	5.46
840.614	-76.46
840.79	97.62
840.966	38.23
841.142	34.13
841.318	-58.03
841.494	118.1
841.671	68.95
841.847	-0.68
842.023	-31.4
842.199	93.52
842.375	105.81
842.551	-19.11
842.727	-51.88
842.903	163.15
843.079	-98.99
843.255	52.56
843.431	-2.73
843.607	89.43
843.783	-146.09
843.959	50.52
844.134	-53.93
844.31	79.19
844.486	-60.07
844.662	1.37
844.838	-17.07
845.013	52.56
845.189	93.52
845.365	36.18
845.541	17.75
845.716	7.51
845.892	179.54
846.068	-62.12
846.244	-37.55
846.419	-33.45
846.595	-49.83
846.77	-39.59
846.946	120.15
847.122	-66.22
847.297	-12.97
847.473	165.2
847.648	-43.69
847.824	-25.26
847.999	-141.99
848.175	-17.07
848.35	38.23
848.526	85.33
848.701	-8.87
848.876	40.28
849.052	48.47
849.227	-8.87
849.403	73.04
849.578	-92.84
849.753	42.32
849.929	32.08
850.104	-123.56
850.279	17.75
850.454	68.95
850.63	44.37
850.805	-37.55
850.98	-17.07
851.155	25.94
851.33	30.04
851.505	-37.55
851.681	124.24
851.856	-21.16
852.031	13.65
852.206	42.32
852.381	-27.31
852.556	-12.97
852.731	3.41
852.906	46.42
853.081	23.89
853.256	81.24
853.431	-33.45
853.606	-109.22
853.781	-90.79
853.956	-170.66
854.131	-8.87
854.305	-15.02
854.48	-29.35
854.655	-8.87
854.83	-10.92
855.005	-0.68
855.18	32.08
855.354	-29.35
855.529	23.89
855.704	-6.83
855.879	17.75
856.053	-148.14
856.228	46.42
856.403	-80.55
856.577	42.32
856.752	-49.83
856.926	-35.5
857.101	-4.78
857.276	-74.41
857.45	-60.07
857.625	109.91
857.799	58.71
857.974	-10.92
858.148	-88.75
858.323	-27.31
858.497	9.56
858.672	-2.73
858.846	-94.89
859.02	101.72
859.195	-33.45
859.369	-17.07
859.543	-2.73
859.718	23.89
859.892	107.86
860.066	95.57
860.241	-90.79
860.415	-39.59
860.589	7.51
860.763	-66.22
860.938	-45.74
861.112	-6.83
861.286	-62.12
861.46	44.37
861.634	-35.5
861.808	48.47
861.982	-39.59
862.157	-109.22
862.331	-111.27
862.505	-131.75
862.679	-74.41
862.853	-12.97
863.027	-21.16
863.201	159.06
863.375	-8.87
863.549	-41.64
863.722	13.65
863.896	148.82
864.07	-88.75
864.244	-15.02
864.418	46.42
864.592	-31.4
864.766	27.99
864.939	-41.64
865.113	-49.83
865.287	62.8
865.461	-111.27
865.634	15.7
865.808	66.9
865.982	-53.93
866.156	-107.18
866.329	-76.46
866.503	50.52
866.676	73.04
866.85	36.18
867.024	-117.42
867.197	103.76
867.371	32.08
867.544	52.56
867.718	-82.6
867.891	122.2
868.065	-64.17
868.238	-90.79
868.412	81.24
868.585	-0.68
868.759	9.56
868.932	-19.11
869.105	-96.94
869.279	83.28
869.452	-92.84
869.625	48.47
869.799	-72.36
869.972	-58.03
870.145	-37.55
870.319	64.85
870.492	38.23
870.665	-35.5
870.838	-72.36
871.011	-176.81
871.185	42.32
871.358	11.61
871.531	81.24
871.704	-68.27
871.877	-49.83
872.05	-25.26
872.223	15.7
872.396	77.14
872.569	95.57
872.742	-35.5
872.915	44.37
873.088	23.89
873.261	3.41
873.434	27.99
873.607	-43.69
873.78	118.1
873.953	-74.41
874.126	40.28
874.299	109.91
874.471	-41.64
874.644	-74.41
874.817	-33.45
874.99	46.42
875.163	-23.21
875.335	30.04
875.508	-29.35
875.681	140.63
875.853	-12.97
876.026	-55.98
876.199	-21.16
876.371	81.24
876.544	-60.07
876.717	73.04
876.889	-6.83
877.062	27.99
877.234	-121.51
877.407	-58.03
877.579	-35.5
877.752	9.56
877.924	89.43
878.097	42.32
878.269	30.04
878.442	58.71
878.614	54.61
878.786	48.47
878.959	11.61
879.131	23.89
879.303	-74.41
879.476	-17.07
879.648	73.04
879.82	36.18
879.993	-53.93
880.165	-39.59
880.337	-105.13
880.509	81.24
880.681	-141.99
880.854	-94.89
881.026	-45.74
881.198	146.77
881.37	-17.07
881.542	-21.16
881.714	30.04
881.886	-8.87
882.058	23.89
882.23	34.13
882.402	-51.88
882.574	11.61
882.746	5.46
882.918	68.95
883.09	48.47
883.262	-76.46
883.434	38.23
883.606	-10.92
883.778	-15.02
883.95	83.28
884.122	-31.4
884.293	64.85
884.465	-21.16
884.637	81.24
884.809	-2.73
884.98	13.65
885.152	46.42
885.324	9.56
885.496	-31.4
885.667	-88.75
885.839	-15.02
886.011	50.52
886.182	-72.36
886.354	19.8
886.525	-23.21
886.697	-37.55
886.869	-60.07
887.04	15.7
887.212	126.29
887.383	27.99
887.555	30.04
887.726	-49.83
887.897	-47.79
888.069	-58.03
888.24	85.33
888.412	11.61
888.583	-43.69
888.754	-80.55
888.926	-82.6
889.097	15.7
889.268	-25.26
889.44	13.65
889.611	-64.17
889.782	-109.22
889.953	-49.83
890.125	107.86
890.296	-23.21
890.467	-74.41
890.638	-45.74
890.809	-84.65
890.98	-115.37
891.151	79.19
891.323	40.28
891.494	-4.78
891.665	44.37
891.836	5.46
892.007	-84.65
892.178	81.24
892.349	-39.59
892.52	-53.93
892.691	46.42
892.862	-101.03
893.032	-131.75
893.203	7.51
893.374	36.18
893.545	91.48
893.716	-43.69
893.887	105.81
894.057	-121.51
894.228	-84.65
894.399	-74.41
894.57	81.24
894.74	50.52
894.911	52.56
895.082	25.94
895.253	-119.46
895.423	-15.02
895.594	48.47
895.764	30.04
895.935	-39.59
896.106	52.56
896.276	19.8
896.447	-15.02
896.617	-80.55
896.788	-72.36
896.958	25.94
897.129	-92.84
897.299	-72.36
897.47	105.81
897.64	-10.92
897.81	-72.36
897.981	44.37
898.151	-43.69
898.322	58.71
898.492	62.8
898.662	-84.65
898.832	-15.02
899.003	-80.55
899.173	126.29
899.343	-72.36
899.513	-35.5
