Data from USB4F104151__61__10-26-34-527.txt Node

Date: Wed Feb 26 10:26:34 EST 2025
User: louis
Spectrometer: USB4F10415
Trigger mode: 4
Integration Time (sec): 1.000000E-1
Scans to average: 1
Electric dark correction enabled: true
Nonlinearity correction enabled: false
Boxcar width: 0
XAxis mode: Wavelengths
Number of Pixels in Spectrum: 3648
>>>>>Begin Spectral Data<<<<<
178.204	-422.22
178.424	-422.22
178.644	-422.22
178.864	-422.22
179.084	-409.94
179.304	-31.06
179.524	-41.3
179.744	30.38
179.964	28.33
180.184	130.73
180.404	59.05
180.624	-51.54
180.844	-102.74
181.064	-37.2
181.283	75.43
181.503	-35.16
181.723	-24.92
181.943	-147.8
182.163	181.93
182.383	-31.06
182.602	91.82
182.822	95.91
183.042	13.99
183.262	-57.68
183.482	28.33
183.701	63.15
183.921	71.34
184.141	9.9
184.361	85.67
184.58	-10.58
184.8	77.48
185.02	-63.83
185.239	38.57
185.459	71.34
185.679	104.11
185.898	-43.35
186.118	46.76
186.338	44.71
186.557	91.82
186.777	-119.12
186.997	-80.21
187.216	-10.58
187.436	149.16
187.655	104.11
187.875	89.77
188.095	20.14
188.314	114.34
188.534	140.97
188.753	-158.03
188.973	102.06
189.192	165.54
189.412	-16.73
189.631	18.09
189.851	126.63
190.07	112.3
190.29	7.85
190.509	-18.77
190.729	24.23
190.948	124.58
191.168	112.3
191.387	73.39
191.607	34.47
191.826	79.53
192.045	-18.77
192.265	-39.25
192.484	65.19
192.704	-0.34
192.923	-35.16
193.142	93.87
193.362	188.07
193.581	153.26
193.8	67.24
194.02	-29.01
194.239	100.01
194.458	77.48
194.678	77.48
194.897	-59.73
195.116	11.95
195.335	102.06
195.555	40.62
195.774	61.1
195.993	132.78
196.212	20.14
196.432	18.09
196.651	13.99
196.87	54.95
197.089	323.24
197.308	42.67
197.528	50.86
197.747	16.04
197.966	48.81
198.185	63.15
198.404	-8.53
198.623	145.06
198.842	20.14
199.062	167.59
199.281	138.92
199.5	50.86
199.719	65.19
199.938	75.43
200.157	54.95
200.376	93.87
200.595	108.2
200.814	85.67
201.033	-110.93
201.252	165.54
201.471	46.76
201.69	18.09
201.909	87.72
202.128	67.24
202.347	91.82
202.566	-16.73
202.785	-65.88
203.004	38.57
203.223	237.22
203.442	-10.58
203.661	-63.83
203.879	16.04
204.098	116.39
204.317	-18.77
204.536	149.16
204.755	38.57
204.974	28.33
205.193	30.38
205.411	83.63
205.63	177.83
205.849	102.06
206.068	114.34
206.287	-31.06
206.505	132.78
206.724	67.24
206.943	-47.44
207.162	-41.3
207.381	48.81
207.599	24.23
207.818	-43.35
208.037	-10.58
208.255	-8.53
208.474	59.05
208.693	63.15
208.911	-2.39
209.13	97.96
209.349	59.05
209.567	83.63
209.786	50.86
210.005	128.68
210.223	85.67
210.442	-123.22
210.661	-14.68
210.879	-10.58
211.098	73.39
211.316	24.23
211.535	73.39
211.753	42.67
211.972	36.52
212.191	38.57
212.409	46.76
212.628	116.39
212.846	-43.35
213.065	87.72
213.283	95.91
213.502	-49.49
213.72	-39.25
213.938	77.48
214.157	28.33
214.375	95.91
214.594	57
214.812	110.25
215.031	20.14
215.249	5.8
215.467	95.91
215.686	77.48
215.904	71.34
216.122	-6.49
216.341	140.97
216.559	38.57
216.778	26.28
216.996	118.44
217.214	3.75
217.432	-18.77
217.651	-110.93
217.869	40.62
218.087	79.53
218.306	9.9
218.524	20.14
218.742	69.29
218.96	95.91
219.179	-41.3
219.397	65.19
219.615	200.36
219.833	9.9
220.051	42.67
220.27	104.11
220.488	122.54
220.706	24.23
220.924	18.09
221.142	-51.54
221.36	110.25
221.578	-10.58
221.796	36.52
222.015	65.19
222.233	-16.73
222.451	161.45
222.669	-35.16
222.887	32.43
223.105	-22.87
223.323	-41.3
223.541	-31.06
223.759	-12.63
223.977	-84.31
224.195	118.44
224.413	153.26
224.631	167.59
224.849	136.87
225.067	202.41
225.285	-6.49
225.503	-6.49
225.721	-67.92
225.939	9.9
226.157	36.52
226.375	276.13
226.592	-2.39
226.81	42.67
227.028	157.35
227.246	108.2
227.464	69.29
227.682	71.34
227.9	181.93
228.117	9.9
228.335	11.95
228.553	-47.44
228.771	22.19
228.989	57
229.206	79.53
229.424	9.9
229.642	16.04
229.86	-39.25
230.077	18.09
230.295	-14.68
230.513	61.1
230.731	28.33
230.948	145.06
231.166	155.3
231.384	11.95
231.601	-18.77
231.819	212.65
232.037	18.09
232.254	-22.87
232.472	18.09
232.689	1.71
232.907	54.95
233.125	-8.53
233.342	-24.92
233.56	57
233.777	28.33
233.995	26.28
234.213	95.91
234.43	140.97
234.648	63.15
234.865	-18.77
235.083	67.24
235.3	7.85
235.518	85.67
235.735	153.26
235.953	22.19
236.17	52.91
236.388	30.38
236.605	11.95
236.822	106.15
237.04	130.73
237.257	28.33
237.475	-6.49
237.692	44.71
237.909	73.39
238.127	44.71
238.344	50.86
238.562	-22.87
238.779	-82.26
238.996	5.8
239.214	65.19
239.431	67.24
239.648	34.47
239.865	140.97
240.083	59.05
240.3	3.75
240.517	-0.34
240.735	-74.07
240.952	67.24
241.169	108.2
241.386	18.09
241.603	-6.49
241.821	-43.35
242.038	75.43
242.255	54.95
242.472	-102.74
242.689	54.95
242.907	81.58
243.124	65.19
243.341	122.54
243.558	32.43
243.775	-63.83
243.992	-88.4
244.209	57
244.426	177.83
244.643	122.54
244.86	-31.06
245.078	95.91
245.295	26.28
245.512	-8.53
245.729	54.95
245.946	1.71
246.163	81.58
246.38	59.05
246.597	83.63
246.814	30.38
247.031	36.52
247.248	18.09
247.464	97.96
247.681	-20.82
247.898	81.58
248.115	11.95
248.332	-24.92
248.549	120.49
248.766	173.74
248.983	81.58
249.2	89.77
249.417	157.35
249.633	-6.49
249.85	5.8
250.067	52.91
250.284	48.81
250.501	73.39
250.717	128.68
250.934	3.75
251.151	-2.39
251.368	81.58
251.585	-2.39
251.801	67.24
252.018	-31.06
252.235	112.3
252.451	-88.4
252.668	13.99
252.885	38.57
253.102	36.52
253.318	50.86
253.535	-4.44
253.752	44.71
253.968	36.52
254.185	-90.45
254.401	24.23
254.618	79.53
254.835	-31.06
255.051	130.73
255.268	89.77
255.484	22.19
255.701	-16.73
255.917	91.82
256.134	-35.16
256.351	28.33
256.567	-43.35
256.784	3.75
257	-76.12
257.217	159.4
257.433	130.73
257.65	54.95
257.866	108.2
258.082	-108.88
258.299	-2.39
258.515	91.82
258.732	22.19
258.948	18.09
259.165	81.58
259.381	-29.01
259.597	118.44
259.814	95.91
260.03	57
260.246	30.38
260.463	128.68
260.679	102.06
260.895	18.09
261.112	18.09
261.328	89.77
261.544	-4.44
261.761	171.69
261.977	38.57
262.193	-33.11
262.409	149.16
262.626	-4.44
262.842	26.28
263.058	-47.44
263.274	40.62
263.49	75.43
263.707	91.82
263.923	120.49
264.139	-133.46
264.355	-20.82
264.571	120.49
264.787	79.53
265.004	145.06
265.22	13.99
265.436	22.19
265.652	18.09
265.868	48.81
266.084	-33.11
266.3	85.67
266.516	-6.49
266.732	132.78
266.948	9.9
267.164	30.38
267.38	83.63
267.596	71.34
267.812	126.63
268.028	77.48
268.244	26.28
268.46	85.67
268.676	16.04
268.892	38.57
269.108	-43.35
269.324	-45.4
269.54	-33.11
269.756	87.72
269.972	-18.77
270.188	46.76
270.403	-61.78
270.619	48.81
270.835	100.01
271.051	61.1
271.267	-14.68
271.483	9.9
271.698	61.1
271.914	26.28
272.13	134.82
272.346	26.28
272.562	26.28
272.777	140.97
272.993	1.71
273.209	-26.96
273.425	65.19
273.64	-53.59
273.856	93.87
274.072	-61.78
274.287	16.04
274.503	97.96
274.719	91.82
274.934	26.28
275.15	-106.84
275.366	-18.77
275.581	-2.39
275.797	71.34
276.012	46.76
276.228	-16.73
276.444	-6.49
276.659	120.49
276.875	-65.88
277.09	81.58
277.306	26.28
277.521	145.06
277.737	30.38
277.952	-10.58
278.168	16.04
278.383	77.48
278.599	26.28
278.814	81.58
279.03	59.05
279.245	128.68
279.461	9.9
279.676	140.97
279.892	-63.83
280.107	-33.11
280.322	-82.26
280.538	32.43
280.753	1.71
280.969	26.28
281.184	1.71
281.399	153.26
281.615	67.24
281.83	-16.73
282.045	-41.3
282.26	-12.63
282.476	57
282.691	52.91
282.906	85.67
283.122	22.19
283.337	28.33
283.552	110.25
283.767	38.57
283.983	67.24
284.198	-22.87
284.413	65.19
284.628	-67.92
284.843	132.78
285.058	50.86
285.274	54.95
285.489	28.33
285.704	95.91
285.919	34.47
286.134	48.81
286.349	13.99
286.564	11.95
286.779	143.02
286.995	24.23
287.21	-47.44
287.425	83.63
287.64	32.43
287.855	65.19
288.07	-90.45
288.285	87.72
288.5	97.96
288.715	95.91
288.93	50.86
289.145	-39.25
289.36	145.06
289.575	93.87
289.79	85.67
290.004	-41.3
290.219	106.15
290.434	3.75
290.649	22.19
290.864	-43.35
291.079	-10.58
291.294	-0.34
291.509	116.39
291.724	-4.44
291.938	42.67
292.153	46.76
292.368	18.09
292.583	11.95
292.798	50.86
293.012	73.39
293.227	22.19
293.442	-26.96
293.657	79.53
293.871	106.15
294.086	108.2
294.301	171.69
294.516	126.63
294.73	-47.44
294.945	-78.16
295.16	7.85
295.374	149.16
295.589	83.63
295.804	18.09
296.018	112.3
296.233	81.58
296.447	-49.49
296.662	16.04
296.877	114.34
297.091	79.53
297.306	32.43
297.52	24.23
297.735	28.33
297.949	89.77
298.164	22.19
298.378	77.48
298.593	5.8
298.807	46.76
299.022	44.71
299.236	65.19
299.451	3.75
299.665	-45.4
299.88	3.75
300.094	69.29
300.309	16.04
300.523	77.48
300.737	-31.06
300.952	42.67
301.166	79.53
301.381	-61.78
301.595	-80.21
301.809	18.09
302.024	11.95
302.238	-53.59
302.452	159.4
302.667	28.33
302.881	120.49
303.095	118.44
303.309	16.04
303.524	24.23
303.738	-24.92
303.952	-29.01
304.166	91.82
304.381	-43.35
304.595	132.78
304.809	-35.16
305.023	42.67
305.237	5.8
305.452	104.11
305.666	-8.53
305.88	75.43
306.094	79.53
306.308	136.87
306.522	159.4
306.736	71.34
306.95	75.43
307.164	22.19
307.379	44.71
307.593	138.92
307.807	65.19
308.021	-43.35
308.235	85.67
308.449	-51.54
308.663	65.19
308.877	183.98
309.091	34.47
309.305	108.2
309.519	-45.4
309.733	118.44
309.947	-94.55
310.161	59.05
310.374	97.96
310.588	46.76
310.802	44.71
311.016	-53.59
311.23	124.58
311.444	-63.83
311.658	50.86
311.872	175.78
312.085	140.97
312.299	274.09
312.513	46.76
312.727	46.76
312.941	-59.73
313.154	54.95
313.368	38.57
313.582	11.95
313.796	34.47
314.009	40.62
314.223	155.3
314.437	52.91
314.651	63.15
314.864	-14.68
315.078	59.05
315.292	-92.5
315.505	46.76
315.719	183.98
315.933	75.43
316.146	-37.2
316.36	-43.35
316.573	116.39
316.787	7.85
317.001	50.86
317.214	-12.63
317.428	-0.34
317.641	16.04
317.855	67.24
318.068	52.91
318.282	24.23
318.495	206.5
318.709	167.59
318.922	38.57
319.136	157.35
319.349	75.43
319.563	-26.96
319.776	97.96
319.99	-117.08
320.203	85.67
320.417	-10.58
320.63	124.58
320.843	200.36
321.057	26.28
321.27	-8.53
321.483	83.63
321.697	181.93
321.91	48.81
322.124	13.99
322.337	26.28
322.55	-55.64
322.763	44.71
322.977	11.95
323.19	-10.58
323.403	34.47
323.617	22.19
323.83	44.71
324.043	-41.3
324.256	81.58
324.469	-37.2
324.683	91.82
324.896	69.29
325.109	-35.16
325.322	-31.06
325.535	79.53
325.748	124.58
325.962	-8.53
326.175	57
326.388	59.05
326.601	79.53
326.814	44.71
327.027	32.43
327.24	157.35
327.453	-53.59
327.666	42.67
327.879	110.25
328.092	42.67
328.305	48.81
328.518	20.14
328.731	9.9
328.944	-43.35
329.157	108.2
329.37	-22.87
329.583	200.36
329.796	112.3
330.009	-61.78
330.222	75.43
330.435	95.91
330.648	81.58
330.861	-20.82
331.073	61.1
331.286	71.34
331.499	38.57
331.712	-67.92
331.925	-6.49
332.138	-8.53
332.35	61.1
332.563	-63.83
332.776	167.59
332.989	-37.2
333.202	-49.49
333.414	5.8
333.627	18.09
333.84	20.14
334.053	26.28
334.265	54.95
334.478	-53.59
334.691	42.67
334.903	-6.49
335.116	-18.77
335.329	22.19
335.541	108.2
335.754	91.82
335.966	-22.87
336.179	26.28
336.392	32.43
336.604	-14.68
336.817	108.2
337.029	93.87
337.242	34.47
337.454	114.34
337.667	177.83
337.88	114.34
338.092	79.53
338.305	83.63
338.517	32.43
338.729	124.58
338.942	173.74
339.154	40.62
339.367	-26.96
339.579	89.77
339.792	-37.2
340.004	69.29
340.217	44.71
340.429	-20.82
340.641	36.52
340.854	-61.78
341.066	28.33
341.278	157.35
341.491	231.08
341.703	3.75
341.915	-6.49
342.128	108.2
342.34	87.72
342.552	79.53
342.764	-18.77
342.977	24.23
343.189	97.96
343.401	73.39
343.613	7.85
343.826	34.47
344.038	-37.2
344.25	46.76
344.462	-37.2
344.674	46.76
344.886	3.75
345.099	57
345.311	18.09
345.523	-16.73
345.735	-69.97
345.947	24.23
346.159	75.43
346.371	50.86
346.583	-16.73
346.795	159.4
347.007	85.67
347.219	44.71
347.431	-20.82
347.643	134.82
347.855	-41.3
348.067	102.06
348.279	-98.64
348.491	-4.44
348.703	91.82
348.915	24.23
349.127	3.75
349.339	18.09
349.551	-69.97
349.763	85.67
349.975	-94.55
350.187	73.39
350.399	183.98
350.61	57
350.822	40.62
351.034	124.58
351.246	50.86
351.458	13.99
351.669	104.11
351.881	36.52
352.093	157.35
352.305	57
352.517	50.86
352.728	140.97
352.94	52.91
353.152	61.1
353.363	-0.34
353.575	71.34
353.787	147.11
353.999	9.9
354.21	175.78
354.422	-10.58
354.633	-6.49
354.845	26.28
355.057	52.91
355.268	46.76
355.48	102.06
355.692	13.99
355.903	38.57
356.115	7.85
356.326	-53.59
356.538	173.74
356.749	77.48
356.961	165.54
357.172	18.09
357.384	-22.87
357.595	202.41
357.807	20.14
358.018	3.75
358.23	48.81
358.441	106.15
358.653	100.01
358.864	89.77
359.075	36.52
359.287	138.92
359.498	50.86
359.709	28.33
359.921	69.29
360.132	85.67
360.344	36.52
360.555	5.8
360.766	24.23
360.977	26.28
361.189	114.34
361.4	-57.68
361.611	126.63
361.823	112.3
362.034	1.71
362.245	-82.26
362.456	24.23
362.667	128.68
362.879	-39.25
363.09	177.83
363.301	32.43
363.512	22.19
363.723	18.09
363.935	22.19
364.146	87.72
364.357	81.58
364.568	89.77
364.779	-35.16
364.99	104.11
365.201	3.75
365.412	155.3
365.623	13.99
365.834	48.81
366.045	132.78
366.256	122.54
366.467	112.3
366.678	26.28
366.889	-2.39
367.1	-59.73
367.311	140.97
367.522	-4.44
367.733	97.96
367.944	59.05
368.155	24.23
368.366	83.63
368.577	108.2
368.788	120.49
368.999	-67.92
369.209	-22.87
369.42	204.46
369.631	212.65
369.842	143.02
370.053	22.19
370.264	83.63
370.474	7.85
370.685	26.28
370.896	54.95
371.107	155.3
371.317	91.82
371.528	-8.53
371.739	128.68
371.95	130.73
372.16	83.63
372.371	-86.36
372.582	-6.49
372.792	48.81
373.003	77.48
373.214	-14.68
373.424	85.67
373.635	-10.58
373.846	106.15
374.056	30.38
374.267	13.99
374.477	81.58
374.688	-8.53
374.898	61.1
375.109	48.81
375.319	61.1
375.53	147.11
375.74	85.67
375.951	-37.2
376.161	69.29
376.372	128.68
376.582	-6.49
376.793	44.71
377.003	-0.34
377.214	-45.4
377.424	67.24
377.635	118.44
377.845	-69.97
378.055	122.54
378.266	1.71
378.476	130.73
378.686	126.63
378.897	54.95
379.107	134.82
379.317	67.24
379.528	48.81
379.738	50.86
379.948	-51.54
380.158	165.54
380.369	54.95
380.579	116.39
380.789	61.1
380.999	77.48
381.21	186.02
381.42	116.39
381.63	46.76
381.84	110.25
382.05	44.71
382.261	54.95
382.471	134.82
382.681	-51.54
382.891	151.21
383.101	18.09
383.311	-0.34
383.521	42.67
383.731	106.15
383.941	120.49
384.151	44.71
384.361	28.33
384.571	38.57
384.781	61.1
384.991	214.7
385.201	208.55
385.411	147.11
385.621	59.05
385.831	36.52
386.041	40.62
386.251	9.9
386.461	95.91
386.671	42.67
386.881	-16.73
387.091	26.28
387.301	97.96
387.511	38.57
387.72	9.9
387.93	104.11
388.14	-123.22
388.35	89.77
388.56	34.47
388.769	91.82
388.979	73.39
389.189	-63.83
389.399	69.29
389.609	26.28
389.818	50.86
390.028	83.63
390.238	13.99
390.447	40.62
390.657	18.09
390.867	-26.96
391.076	-61.78
391.286	42.67
391.496	-39.25
391.705	91.82
391.915	124.58
392.125	95.91
392.334	87.72
392.544	136.87
392.753	57
392.963	5.8
393.172	5.8
393.382	-57.68
393.591	145.06
393.801	34.47
394.01	255.65
394.22	112.3
394.429	106.15
394.639	-16.73
394.848	59.05
395.058	7.85
395.267	34.47
395.477	181.93
395.686	52.91
395.895	192.17
396.105	214.7
396.314	9.9
396.524	52.91
396.733	46.76
396.942	97.96
397.152	97.96
397.361	155.3
397.57	81.58
397.78	73.39
397.989	93.87
398.198	136.87
398.407	-31.06
398.617	69.29
398.826	11.95
399.035	-33.11
399.244	100.01
399.453	26.28
399.663	61.1
399.872	73.39
400.081	-49.49
400.29	181.93
400.499	-14.68
400.708	145.06
400.917	9.9
401.127	-24.92
401.336	3.75
401.545	179.88
401.754	134.82
401.963	89.77
402.172	-26.96
402.381	-4.44
402.59	61.1
402.799	20.14
403.008	11.95
403.217	52.91
403.426	73.39
403.635	54.95
403.844	75.43
404.053	-31.06
404.262	-63.83
404.471	100.01
404.68	83.63
404.888	44.71
405.097	-10.58
405.306	26.28
405.515	108.2
405.724	18.09
405.933	24.23
406.142	75.43
406.35	118.44
406.559	48.81
406.768	69.29
406.977	132.78
407.185	-22.87
407.394	52.91
407.603	26.28
407.812	24.23
408.02	124.58
408.229	44.71
408.438	75.43
408.646	-24.92
408.855	-51.54
409.064	11.95
409.272	81.58
409.481	48.81
409.69	18.09
409.898	-102.74
410.107	147.11
410.315	183.98
410.524	-88.4
410.733	97.96
410.941	20.14
411.15	50.86
411.358	28.33
411.567	122.54
411.775	77.48
411.984	112.3
412.192	155.3
412.401	63.15
412.609	208.55
412.818	95.91
413.026	63.15
413.234	-10.58
413.443	20.14
413.651	52.91
413.86	44.71
414.068	145.06
414.276	206.5
414.485	-2.39
414.693	151.21
414.901	220.84
415.11	100.01
415.318	46.76
415.526	1.71
415.734	165.54
415.943	69.29
416.151	106.15
416.359	22.19
416.567	85.67
416.776	179.88
416.984	93.87
417.192	190.12
417.4	-41.3
417.608	83.63
417.817	22.19
418.025	120.49
418.233	106.15
418.441	-12.63
418.649	-12.63
418.857	87.72
419.065	95.91
419.273	-22.87
419.481	114.34
419.689	-16.73
419.897	24.23
420.105	-31.06
420.313	71.34
420.521	155.3
420.729	126.63
420.937	-8.53
421.145	-12.63
421.353	52.91
421.561	151.21
421.769	108.2
421.977	-49.49
422.185	104.11
422.393	110.25
422.601	93.87
422.809	138.92
423.017	57
423.224	102.06
423.432	106.15
423.64	18.09
423.848	157.35
424.056	46.76
424.263	169.64
424.471	79.53
424.679	224.94
424.887	-98.64
425.094	114.34
425.302	71.34
425.51	65.19
425.718	108.2
425.925	112.3
426.133	77.48
426.341	190.12
426.548	181.93
426.756	48.81
426.964	200.36
427.171	52.91
427.379	-26.96
427.586	134.82
427.794	100.01
428.001	128.68
428.209	200.36
428.417	108.2
428.624	114.34
428.832	167.59
429.039	104.11
429.247	210.6
429.454	188.07
429.662	138.92
429.869	231.08
430.076	175.78
430.284	245.41
430.491	269.99
430.699	208.55
430.906	243.37
431.114	198.31
431.321	194.22
431.528	167.59
431.736	124.58
431.943	128.68
432.15	198.31
432.358	108.2
432.565	302.76
432.772	-4.44
432.979	188.07
433.187	151.21
433.394	216.74
433.601	77.48
433.808	257.7
434.016	263.85
434.223	278.18
434.43	235.18
434.637	360.1
434.844	302.76
435.052	214.7
435.259	235.18
435.466	380.58
435.673	292.52
435.88	382.63
436.087	315.05
436.294	399.01
436.501	435.88
436.708	224.94
436.915	425.64
437.122	429.73
437.329	331.43
437.537	376.48
437.743	433.83
437.95	525.99
438.157	517.79
438.364	499.36
438.571	444.07
438.778	493.22
438.985	583.33
439.192	603.81
439.399	560.8
439.606	597.67
439.813	636.58
440.02	718.5
440.227	804.51
440.433	767.65
440.64	560.8
440.847	677.54
441.054	693.92
441.261	863.9
441.467	720.54
441.674	741.02
441.881	855.71
442.088	802.46
442.294	861.85
442.501	1013.4
442.708	1060.51
442.914	999.07
443.121	1093.27
443.328	1054.36
443.534	1212.06
443.741	1158.81
443.948	1044.12
444.154	1191.58
444.361	1308.31
444.568	1296.02
444.774	1310.36
444.981	1246.87
445.187	1410.71
445.394	1533.59
445.6	1408.66
445.807	1646.23
446.013	1660.56
446.22	1498.77
446.426	1719.95
446.633	1871.5
446.839	1928.85
447.046	1769.1
447.252	2107.02
447.459	2008.72
447.665	2025.1
447.871	2186.89
448.078	2424.45
448.284	2303.62
448.491	2432.65
448.697	2594.44
448.903	2705.03
449.11	2616.96
449.316	2707.07
449.522	2956.93
449.728	3128.95
449.935	3085.95
450.141	3280.5
450.347	3475.06
450.553	3442.29
450.76	3458.68
450.966	3761.78
451.172	3835.5
451.378	4011.63
451.584	4011.63
451.791	4421.22
451.997	4441.7
452.203	4658.79
452.409	4726.37
452.615	4951.65
452.821	4785.76
453.027	4974.17
453.233	5455.45
453.44	5373.53
453.646	5631.57
453.852	5934.67
454.058	6039.12
454.264	6270.54
454.47	6762.05
454.676	6739.52
454.882	7415.35
455.088	6995.52
455.294	7312.96
455.5	7880.24
455.705	8365.61
455.911	8103.47
456.117	8488.49
456.323	8848.93
456.529	8810.02
456.735	9733.65
456.941	9915.92
457.147	10374.67
457.352	10608.14
457.558	10984.96
457.764	11570.68
457.97	11927.03
458.176	12264.94
458.381	12969.44
458.587	13184.48
458.793	13839.83
458.999	13704.67
459.204	15480.25
459.41	15943.1
459.616	15818.17
459.821	16657.84
460.027	17374.63
460.233	18441.62
460.438	18378.13
460.644	19264.9
460.85	19543.42
461.055	20235.64
461.261	21519.71
461.466	20841.84
461.672	21132.65
461.878	23739.71
462.083	23444.8
462.289	23842.11
462.494	24880.43
462.7	25156.91
462.905	25576.74
463.111	27411.72
463.316	29054.19
463.522	29451.5
463.727	30018.78
463.932	31499.47
464.138	32912.56
464.343	33391.79
464.549	33741.99
464.754	36758.65
464.959	37135.48
465.165	38022.25
465.37	37844.07
465.575	37692.52
465.781	40367.17
465.986	41708.59
466.191	40229.96
466.397	41327.67
466.602	40125.51
466.807	42519.59
467.012	43277.33
467.218	44243.98
467.423	44182.54
467.628	45083.64
467.833	47469.53
468.038	46009.32
468.244	45820.91
468.449	47983.57
468.654	47381.46
468.859	46971.87
469.064	47160.28
469.269	45874.16
469.474	46482.41
469.679	47774.67
469.885	46203.88
470.09	47250.39
470.295	47248.35
470.5	46328.81
470.705	46441.45
470.91	45161.47
471.115	44948.48
471.32	45792.24
471.525	45284.34
471.73	44096.52
471.935	44231.69
472.139	42048.55
472.344	42107.94
472.549	42142.76
472.754	41139.25
472.959	40582.21
473.164	39369.81
473.369	38141.03
473.574	39285.84
473.778	38704.22
473.983	38153.32
474.188	37053.56
474.393	35703.95
474.598	35849.35
474.802	34716.82
475.007	34247.84
475.212	34006.18
475.417	32660.66
475.621	32111.81
475.826	32111.81
476.031	31558.86
476.235	30899.41
476.44	30821.59
476.645	30024.93
476.849	29629.67
477.054	28959.98
477.259	28574.97
477.463	28540.15
477.668	27409.67
477.872	27655.43
478.077	26959.12
478.282	26318.11
478.486	26084.64
478.691	25570.6
478.895	25759.01
479.1	25003.31
479.304	25060.65
479.509	24304.95
479.713	24778.03
479.918	24294.71
480.122	23547.2
480.326	23653.7
480.531	23733.57
480.735	23301.45
480.94	22891.85
481.144	23760.19
481.348	22369.62
481.553	22998.35
481.757	21888.35
481.961	22316.37
482.166	22359.38
482.37	22234.46
482.574	21575.01
482.778	21511.52
482.983	21667.17
483.187	21368.16
483.391	21255.53
483.595	20909.42
483.8	20422
484.004	20634.99
484.208	20555.12
484.412	20231.54
484.616	20163.96
484.821	20055.42
485.025	19455.36
485.229	19535.23
485.433	18902.41
485.637	19017.1
485.841	18562.45
486.045	18539.92
486.249	18472.34
486.453	17675.68
486.657	17776.03
486.861	17587.61
487.065	16919.98
487.269	17044.9
487.473	16567.73
487.677	16717.23
487.881	16448.94
488.085	15857.08
488.289	15971.77
488.493	15429.06
488.697	15496.64
488.901	15236.55
489.105	14699.98
489.309	14507.47
489.512	14294.48
489.716	14038.48
489.92	13635.03
490.124	13526.49
490.328	13540.83
490.531	13045.22
490.735	12789.22
490.939	12809.7
491.143	12238.32
491.346	12264.94
491.55	12146.16
491.754	11906.55
491.958	11834.87
492.161	11539.96
492.365	11202.05
492.569	11247.1
492.772	10882.56
492.976	11032.07
493.18	10597.9
493.383	10741.25
493.587	10692.1
493.79	10507.79
493.994	10227.21
494.197	10173.97
494.401	10012.18
494.605	9817.62
494.808	9852.44
495.012	9967.12
495.215	9625.11
495.419	9821.72
495.622	9491.99
495.825	9487.9
496.029	9338.4
496.232	9580.06
496.436	9309.72
496.639	9485.85
496.843	9221.66
497.046	9483.8
497.249	9612.82
497.453	9487.9
497.656	9356.83
497.859	9356.83
498.063	9440.79
498.266	9510.43
498.469	9260.57
498.673	9555.48
498.876	9487.9
499.079	9598.49
499.282	9430.55
499.485	9778.71
499.689	9584.15
499.892	10044.95
500.095	9735.7
500.298	9981.46
500.501	9715.22
500.705	10167.82
500.908	10092.05
501.111	10137.1
501.314	10378.76
501.517	10397.2
501.72	10640.9
501.923	10419.72
502.126	10708.49
502.329	10993.15
502.532	10857.99
502.735	10997.25
502.938	11412.99
503.141	11351.55
503.344	11601.4
503.547	11658.74
503.75	11798.01
503.953	11910.64
504.156	12025.33
504.359	12279.28
504.562	12232.18
504.765	12735.98
504.968	12750.31
505.17	12783.08
505.373	13102.56
505.576	13530.59
505.779	13641.18
505.982	13587.93
506.185	14294.48
506.387	14263.76
506.59	14566.86
506.793	14644.68
506.996	14984.65
507.198	15424.96
507.401	15734.2
507.604	15793.59
507.807	16252.34
508.009	16547.25
508.212	16817.58
508.415	17198.5
508.617	17212.84
508.82	17581.47
509.022	17939.86
509.225	18462.1
509.428	19047.82
509.63	19158.41
509.833	19330.44
510.035	20309.36
510.238	20217.21
510.44	20743.53
510.643	21534.05
510.845	21910.88
511.048	21714.27
511.25	22613.33
511.453	22898
511.655	23942.46
511.858	24143.16
512.06	24882.48
512.262	25130.28
512.465	25400.62
512.667	26367.26
512.87	26678.55
513.072	27192.59
513.274	28093.69
513.477	28824.82
513.679	29109.49
513.881	29930.72
514.084	30629.08
514.286	30987.47
514.488	31395.02
514.69	32607.42
514.893	33424.56
515.095	33350.83
515.297	34176.16
515.499	34802.84
515.701	35554.44
515.904	36785.27
516.106	37168.24
516.308	37780.59
516.51	38607.97
516.712	39251.03
516.914	39914.57
517.116	40819.77
517.318	41307.19
517.52	41972.78
517.722	42482.72
517.925	43582.48
518.127	44504.07
518.329	45177.85
518.531	45327.35
518.733	46662.63
518.935	47016.93
519.136	47651.8
519.338	48720.84
519.54	49183.68
519.742	49871.79
519.944	50310.06
520.146	51735.45
520.348	51772.31
520.55	52208.53
520.752	52067.22
520.954	53740.41
521.155	53803.89
521.357	54551.4
521.559	55096.16
521.761	56206.16
521.963	56212.3
522.164	56435.53
522.366	57064.26
522.568	57355.07
522.77	57654.07
522.971	58489.65
523.173	58223.41
523.375	58585.9
523.576	58825.51
523.778	58739.5
523.98	59427.62
524.181	59509.53
524.383	59618.08
524.584	60062.49
524.786	59808.54
524.988	60019.48
525.189	60291.86
525.391	60490.51
525.592	59939.61
525.794	60529.42
525.995	59939.61
526.197	60019.48
526.398	59978.52
526.6	60242.71
526.801	59685.66
527.003	59806.49
527.204	59472.67
527.406	59790.11
527.607	58944.3
527.808	58891.05
528.01	57899.83
528.211	57860.92
528.412	58663.72
528.614	57979.7
528.815	57260.86
529.016	57314.11
529.218	56290.13
529.419	56122.19
529.62	55415.65
529.822	54674.28
530.023	54426.48
530.224	54162.29
530.425	53263.23
530.626	52738.95
530.828	52173.71
531.029	52788.1
531.23	51284.89
531.431	50543.53
531.632	50518.95
531.833	49988.53
532.035	49152.96
532.236	48540.61
532.437	48440.26
532.638	47598.55
532.839	47266.78
533.04	46660.58
533.241	45536.24
533.442	45505.52
533.643	44708.86
533.844	43828.24
534.045	43248.66
534.246	42638.37
534.447	42564.64
534.648	41694.25
534.849	41397.3
535.05	40422.47
535.251	40205.38
535.451	39634
535.652	38968.41
535.853	38693.98
536.054	38298.72
536.255	37563.5
536.456	36607.1
536.657	36594.81
536.857	35863.69
537.058	35581.07
537.259	35437.71
537.46	35159.19
537.66	34141.35
537.861	33623.21
538.062	33645.74
538.263	32851.13
538.463	32068.8
538.664	32109.76
538.865	31823.05
539.065	31724.74
539.266	30762.2
539.466	30577.88
539.667	30055.65
539.868	29930.72
540.068	29773.03
540.269	29172.97
540.469	28884.21
540.67	28671.22
540.87	28259.58
541.071	27614.47
541.271	27415.82
541.472	27221.26
541.672	26639.64
541.873	26608.92
542.073	26088.73
542.274	26135.84
542.474	25672.99
542.675	25287.98
542.875	25077.04
543.075	24835.38
543.276	24104.25
543.476	24528.18
543.676	23756.1
543.877	23491.91
544.077	23608.64
544.277	23461.19
544.478	23014.73
544.678	22797.65
544.878	22244.7
545.078	22183.26
545.279	21708.13
545.479	21607.78
545.679	21476.71
545.879	21233
546.079	20929.9
546.28	20340.08
546.48	20237.69
546.68	20202.87
546.88	20131.19
547.08	19828.09
547.28	19438.98
547.48	19404.16
547.68	19299.72
547.88	18791.82
548.081	18757
548.281	18529.68
548.481	17964.44
548.681	17853.85
548.881	17816.99
549.081	17769.88
549.28	17515.94
549.48	17016.23
549.68	16719.28
549.88	16670.12
550.08	16436.66
550.28	16381.36
550.48	16147.89
550.68	15664.57
550.88	15402.43
551.08	15293.89
551.279	15019.46
551.479	14878.15
551.679	14722.51
551.879	14372.3
552.079	14351.82
552.278	14253.52
552.478	13907.41
552.678	13530.59
552.878	13432.29
553.077	13157.86
553.277	12813.8
553.477	12901.86
553.676	12522.99
553.876	12461.55
554.076	12094.96
554.275	11912.69
554.475	11720.18
554.674	11945.46
554.874	11480.57
555.074	11267.58
555.273	10821.13
555.473	11097.6
555.672	10839.56
555.872	10700.3
556.071	10597.9
556.271	10421.77
556.47	10208.78
556.67	9825.81
556.869	9860.63
557.068	9709.08
557.268	9494.04
557.467	9315.87
557.667	9203.23
557.866	8994.34
558.065	8971.81
558.265	8805.92
558.464	8508.97
558.663	8699.43
558.863	8351.28
559.062	8359.47
559.261	8033.84
559.461	7978.54
559.66	7700.02
559.859	7820.85
560.058	7448.12
560.258	7423.55
560.457	7337.53
560.656	7360.06
560.855	7079.49
561.054	7140.93
561.253	7044.67
561.453	6872.64
561.652	6854.21
561.851	6690.37
562.05	6520.39
562.249	6225.48
562.448	6315.59
562.647	6184.52
562.846	6196.81
563.045	5973.58
563.244	5899.86
563.443	6063.69
563.642	5658.2
563.841	5903.95
564.04	5631.57
564.239	5574.23
564.438	5324.38
564.637	5299.8
564.836	5287.51
565.035	5326.43
565.234	5377.62
565.432	5219.93
565.631	5092.96
565.83	5031.52
566.029	4965.98
566.228	4826.72
566.427	4722.27
566.625	4638.31
566.824	4605.54
567.023	4664.93
567.222	4523.62
567.42	4537.96
567.619	4431.46
567.818	4333.16
568.016	4392.55
568.215	4265.58
568.414	4148.84
568.612	4025.97
568.811	4154.99
569.01	3974.77
569.208	3870.32
569.407	3892.85
569.605	3868.27
569.804	3761.78
570.002	3677.81
570.201	3556.98
570.4	3610.23
570.598	3583.6
570.797	3577.46
570.995	3327.61
571.193	3411.57
571.392	3317.37
571.59	3149.43
571.789	3305.08
571.987	3247.74
572.186	3280.5
572.384	3032.7
572.582	3122.81
572.781	3171.96
572.979	2846.34
573.177	2958.97
573.376	2942.59
573.574	2926.21
573.772	2764.42
573.971	2827.9
574.169	2582.15
574.367	2668.16
574.565	2715.27
574.763	2766.46
574.962	2619.01
575.16	2614.91
575.358	2424.45
575.556	2533
575.754	2438.79
575.952	2449.03
576.151	2418.31
576.349	2301.58
576.547	2231.94
576.745	2354.82
576.943	2233.99
577.141	2160.27
577.339	2117.26
577.537	2188.94
577.735	2145.93
577.933	2150.03
578.131	1867.41
578.329	2033.29
578.527	1912.46
578.725	2021
578.923	1781.39
579.121	1818.25
579.319	1754.77
579.516	1898.13
579.714	1980.04
579.912	1748.62
580.11	1746.58
580.308	1691.28
580.506	1646.23
580.704	1586.83
580.901	1566.35
581.099	1775.25
581.297	1484.44
581.495	1570.45
581.692	1552.02
581.89	1648.27
582.088	1480.34
582.285	1386.13
582.483	1437.33
582.681	1351.32
582.878	1498.77
583.076	1435.28
583.274	1468.05
583.471	1423
583.669	1339.03
583.866	1228.44
584.064	1293.97
584.262	1214.1
584.459	1158.81
584.657	1263.26
584.854	1355.41
585.052	1296.02
585.249	1201.82
585.447	1177.24
585.644	1083.03
585.841	1289.88
586.039	1150.62
586.236	1218.2
586.434	1070.75
586.631	1021.6
586.828	1074.84
587.026	1031.83
587.223	1021.6
587.42	1103.51
587.618	1017.5
587.815	1019.55
588.012	1078.94
588.21	990.88
588.407	1011.36
588.604	986.78
588.801	931.48
588.999	972.44
589.196	999.07
589.393	908.96
589.59	949.92
589.787	992.92
589.984	935.58
590.182	906.91
590.379	857.76
590.576	927.39
590.773	837.28
590.97	876.19
591.167	937.63
591.364	978.59
591.561	847.52
591.758	849.57
591.955	958.11
592.152	863.9
592.349	786.08
592.546	890.53
592.743	872.09
592.94	876.19
593.137	908.96
593.334	814.75
593.531	898.72
593.727	937.63
593.924	824.99
594.121	896.67
594.318	820.89
594.515	872.09
594.712	1015.45
594.908	968.35
595.105	798.37
595.302	1015.45
595.499	925.34
595.696	1023.64
595.892	921.24
596.089	1128.09
596.286	853.66
596.482	1040.03
596.679	949.92
596.876	986.78
597.072	1058.46
597.269	1083.03
597.466	1130.14
597.662	1072.79
597.859	1021.6
598.055	1267.35
598.252	1322.65
598.448	1396.37
598.645	1334.93
598.841	1439.38
599.038	1576.59
599.234	1564.31
599.431	1527.44
599.627	1646.23
599.824	1687.18
600.02	1732.24
600.217	1793.68
600.413	1871.5
600.609	1824.4
600.806	2170.51
601.002	2074.25
601.198	2152.07
601.395	2164.36
601.591	2248.33
601.787	2496.13
601.984	2524.8
602.18	2745.98
602.376	2684.55
602.572	2870.91
602.769	2864.77
602.965	2913.92
603.161	3126.91
603.357	3219.07
603.553	3380.86
603.75	3370.62
603.946	3628.66
604.142	3591.8
604.338	4011.63
604.534	3745.39
604.73	3978.86
604.926	4128.36
605.122	4316.78
605.318	4435.56
605.514	4664.93
605.71	4697.7
605.906	4990.56
606.102	5064.29
606.298	5256.79
606.494	5463.64
606.69	5639.76
606.886	5772.88
607.082	5766.74
607.278	6018.64
607.474	6155.85
607.67	6532.68
607.866	6293.07
608.062	6796.87
608.257	6966.85
608.453	6835.78
608.649	7388.73
608.845	7310.91
609.041	7542.33
609.236	7980.59
609.432	8128.05
609.628	8101.42
609.824	8740.39
610.019	8650.28
610.215	8947.23
610.411	9475.61
610.606	9565.72
610.802	9672.22
610.998	9967.12
611.193	10317.33
611.389	10327.57
611.584	10792.45
611.78	11073.03
611.976	11476.48
612.171	11785.72
612.367	11886.07
612.562	12240.37
612.758	12303.85
612.953	12832.23
613.149	13164
613.344	13415.9
613.539	14020.05
613.735	14265.81
613.93	14753.23
614.126	14898.63
614.321	15738.3
614.517	15852.98
614.712	16256.43
614.907	16715.18
615.103	17190.31
615.298	17304.99
615.493	18169.24
615.688	18195.86
615.884	19244.42
616.079	19277.19
616.274	20127.1
616.47	20561.26
616.665	21028.2
616.86	21431.65
617.055	22144.34
617.25	22371.67
617.445	23405.89
617.641	23655.75
617.836	24266.04
618.031	24321.34
618.226	25627.94
618.421	25904.42
618.616	26955.02
618.811	27000.08
619.006	27940.1
619.201	28351.74
619.396	29242.6
619.591	29506.79
619.786	30637.27
619.981	30758.1
620.176	31808.71
620.371	31915.2
620.566	32937.14
620.761	33574.06
620.956	34325.66
621.151	34798.74
621.346	35826.82
621.541	35947.65
621.735	37696.62
621.93	37192.82
622.125	38509.66
622.32	38435.94
622.515	39660.62
622.709	40463.43
622.904	41184.31
623.099	41995.31
623.294	42613.79
623.488	42912.8
623.683	44143.63
623.878	44246.02
624.072	45433.85
624.267	46330.86
624.462	46695.39
624.656	47014.88
624.851	47862.74
625.046	48544.71
625.24	49411
625.435	49873.84
625.629	50719.65
625.824	51424.15
626.018	51635.09
626.213	51811.22
626.407	53181.31
626.602	53068.67
626.796	54295.41
626.991	54322.03
627.185	54625.13
627.38	55120.74
627.574	55352.16
627.768	55753.56
627.963	55628.63
628.157	55651.16
628.352	56689.48
628.546	56111.95
628.74	56920.9
628.935	56230.74
629.129	56689.48
629.323	55735.13
629.517	56376.14
629.712	55753.56
629.906	55055.2
630.1	54504.3
630.294	54418.28
630.489	53760.89
630.683	53881.72
630.877	51917.71
631.071	51426.2
631.265	51379.1
631.459	50039.73
631.653	48999.36
631.848	48640.96
632.042	46607.33
632.236	46558.18
632.43	44954.62
632.624	43768.85
632.818	42523.68
633.012	41241.65
633.206	40004.68
633.4	39218.26
633.594	37233.78
633.788	36600.96
633.982	35234.96
634.176	33868.97
634.369	32773.3
634.563	31829.19
634.757	30313.69
634.951	29615.33
635.145	28243.2
635.339	27145.48
635.533	25642.28
635.726	25238.83
635.92	23672.13
636.114	23086.41
636.308	21929.31
636.501	21108.07
636.695	20145.53
636.889	19615.1
637.083	18711.95
637.276	17833.37
637.47	17309.09
637.664	16659.88
637.857	16002.49
638.051	15455.68
638.244	14769.61
638.438	14081.49
638.632	13489.63
638.825	12951.01
639.019	12592.62
639.212	11759.1
639.406	11515.39
639.599	10921.48
639.793	10589.71
639.986	10337.8
640.18	9846.29
640.373	9453.08
640.567	9070.11
640.76	8939.04
640.954	8447.53
641.147	8035.89
641.34	7751.22
641.534	7501.37
641.727	7396.92
641.92	7024.19
642.114	6692.42
642.307	6481.48
642.5	6174.28
642.694	5783.12
642.887	5801.55
643.08	5596.76
643.273	5320.28
643.467	5138.01
643.66	4986.46
643.853	4714.08
644.046	4494.95
644.239	4388.46
644.432	4122.22
644.626	3987.05
644.819	3919.47
645.012	3712.63
645.205	3630.71
645.398	3593.84
645.591	3337.85
645.784	3102.33
645.977	2956.93
646.17	2918.01
646.363	2967.17
646.556	2805.38
646.749	2649.73
646.942	2588.29
647.135	2590.34
647.328	2377.35
647.521	2317.96
647.714	2260.62
647.907	2193.03
648.099	2018.96
648.292	2012.81
648.485	1889.93
648.678	1941.13
648.871	1740.43
649.064	1699.47
649.256	1515.16
649.449	1486.48
649.642	1437.33
649.835	1472.15
650.027	1414.81
650.22	1461.91
650.413	1320.6
650.605	1336.98
650.798	1222.3
650.991	1152.67
651.183	1078.94
651.376	999.07
651.568	1171.1
651.761	992.92
651.954	1052.31
652.146	925.34
652.339	1013.4
652.531	976.54
652.724	861.85
652.916	900.76
653.109	761.5
653.301	886.43
653.494	822.94
653.686	755.36
653.879	855.71
654.071	714.4
654.263	620.19
654.456	657.06
654.648	693.92
654.84	679.58
655.033	519.84
655.225	720.54
655.417	380.58
655.61	726.69
655.802	607.91
655.994	620.19
656.186	425.64
656.379	607.91
656.571	474.79
656.763	431.78
656.955	462.5
657.148	450.21
657.34	589.47
657.532	411.3
657.724	458.4
657.916	462.5
658.108	548.51
658.3	456.36
658.492	442.02
658.684	339.62
658.876	413.35
659.068	337.57
659.26	353.96
659.452	306.85
659.644	388.77
659.836	446.12
660.028	317.09
660.22	245.41
660.412	317.09
660.604	282.28
660.796	288.42
660.988	304.81
661.18	306.85
661.372	306.85
661.563	239.27
661.755	235.18
661.947	257.7
662.139	249.51
662.331	321.19
662.522	224.94
662.714	212.65
662.906	159.4
663.097	249.51
663.289	130.73
663.481	134.82
663.673	214.7
663.864	243.37
664.056	249.51
664.247	110.25
664.439	351.91
664.631	218.79
664.822	267.94
665.014	216.74
665.205	145.06
665.397	222.89
665.588	196.26
665.78	237.22
665.971	235.18
666.163	196.26
666.354	192.17
666.546	161.45
666.737	173.74
666.929	245.41
667.12	145.06
667.311	208.55
667.503	153.26
667.694	233.13
667.885	212.65
668.077	173.74
668.268	44.71
668.459	81.58
668.651	157.35
668.842	249.51
669.033	138.92
669.224	140.97
669.416	286.37
669.607	149.16
669.798	104.11
669.989	212.65
670.18	128.68
670.371	202.41
670.563	91.82
670.754	267.94
670.945	212.65
671.136	194.22
671.327	132.78
671.518	122.54
671.709	190.12
671.9	159.4
672.091	247.46
672.282	122.54
672.473	118.44
672.664	-12.63
672.855	155.3
673.046	192.17
673.237	204.46
673.428	173.74
673.619	224.94
673.809	75.43
674	282.28
674.191	212.65
674.382	75.43
674.573	118.44
674.764	171.69
674.954	177.83
675.145	-14.68
675.336	112.3
675.527	95.91
675.717	153.26
675.908	177.83
676.099	9.9
676.289	145.06
676.48	59.05
676.671	183.98
676.861	140.97
677.052	134.82
677.243	85.67
677.433	73.39
677.624	151.21
677.814	171.69
678.005	108.2
678.195	278.18
678.386	91.82
678.576	186.02
678.767	48.81
678.957	212.65
679.148	292.52
679.338	321.19
679.529	290.47
679.719	171.69
679.909	179.88
680.1	153.26
680.29	249.51
680.481	126.63
680.671	241.32
680.861	204.46
681.052	239.27
681.242	151.21
681.432	155.3
681.622	140.97
681.813	87.72
682.003	190.12
682.193	145.06
682.383	190.12
682.573	120.49
682.764	202.41
682.954	151.21
683.144	200.36
683.334	124.58
683.524	259.75
683.714	235.18
683.904	97.96
684.094	128.68
684.284	192.17
684.474	265.89
684.664	124.58
684.854	198.31
685.044	114.34
685.234	118.44
685.424	237.22
685.614	116.39
685.804	372.39
685.994	200.36
686.184	179.88
686.374	239.27
686.564	169.64
686.753	214.7
686.943	52.91
687.133	196.26
687.323	183.98
687.513	171.69
687.702	210.6
687.892	190.12
688.082	212.65
688.272	235.18
688.461	167.59
688.651	317.09
688.841	237.22
689.03	114.34
689.22	253.61
689.41	247.46
689.599	196.26
689.789	132.78
689.979	331.43
690.168	210.6
690.358	222.89
690.547	218.79
690.737	226.98
690.926	183.98
691.116	190.12
691.305	200.36
691.495	241.32
691.684	83.63
691.874	214.7
692.063	204.46
692.252	255.65
692.442	237.22
692.631	100.01
692.82	171.69
693.01	198.31
693.199	106.15
693.388	261.8
693.578	218.79
693.767	247.46
693.956	257.7
694.146	161.45
694.335	212.65
694.524	149.16
694.713	214.7
694.902	171.69
695.092	140.97
695.281	196.26
695.47	116.39
695.659	202.41
695.848	167.59
696.037	128.68
696.226	272.04
696.415	163.5
696.604	276.13
696.793	231.08
696.982	206.5
697.171	353.96
697.36	108.2
697.549	120.49
697.738	34.47
697.927	50.86
698.116	118.44
698.305	304.81
698.494	194.22
698.683	218.79
698.872	286.37
699.061	95.91
699.25	138.92
699.438	235.18
699.627	190.12
699.816	282.28
700.005	32.43
700.193	134.82
700.382	212.65
700.571	267.94
700.76	179.88
700.948	237.22
701.137	149.16
701.326	226.98
701.514	42.67
701.703	110.25
701.892	130.73
702.08	272.04
702.269	233.13
702.457	112.3
702.646	177.83
702.834	85.67
703.023	198.31
703.212	235.18
703.4	192.17
703.589	151.21
703.777	91.82
703.965	124.58
704.154	208.55
704.342	52.91
704.531	157.35
704.719	208.55
704.907	269.99
705.096	87.72
705.284	155.3
705.472	169.64
705.661	179.88
705.849	130.73
706.037	302.76
706.226	200.36
706.414	165.54
706.602	112.3
706.79	272.04
706.979	108.2
707.167	251.56
707.355	13.99
707.543	183.98
707.731	206.5
707.919	153.26
708.107	181.93
708.296	120.49
708.484	16.04
708.672	183.98
708.86	173.74
709.048	175.78
709.236	145.06
709.424	192.17
709.612	226.98
709.8	65.19
709.988	138.92
710.176	206.5
710.364	253.61
710.551	188.07
710.739	159.4
710.927	159.4
711.115	192.17
711.303	306.85
711.491	208.55
711.679	100.01
711.866	243.37
712.054	138.92
712.242	249.51
712.43	267.94
712.617	140.97
712.805	183.98
712.993	210.6
713.181	116.39
713.368	118.44
713.556	147.11
713.744	122.54
713.931	356.01
714.119	294.57
714.306	167.59
714.494	161.45
714.682	272.04
714.869	65.19
715.057	46.76
715.244	46.76
715.432	161.45
715.619	128.68
715.807	169.64
715.994	181.93
716.182	263.85
716.369	284.33
716.556	151.21
716.744	112.3
716.931	149.16
717.119	235.18
717.306	206.5
717.493	218.79
717.681	116.39
717.868	173.74
718.055	196.26
718.242	276.13
718.43	175.78
718.617	229.03
718.804	161.45
718.991	253.61
719.179	165.54
719.366	302.76
719.553	165.54
719.74	183.98
719.927	106.15
720.114	239.27
720.301	151.21
720.488	114.34
720.676	188.07
720.863	288.42
721.05	378.53
721.237	206.5
721.424	239.27
721.611	140.97
721.798	130.73
721.985	145.06
722.172	85.67
722.358	226.98
722.545	321.19
722.732	239.27
722.919	278.18
723.106	292.52
723.293	145.06
723.48	190.12
723.667	208.55
723.853	341.67
724.04	233.13
724.227	253.61
724.414	235.18
724.6	179.88
724.787	343.72
724.974	403.11
725.161	237.22
725.347	147.11
725.534	272.04
725.72	294.57
725.907	280.23
726.094	296.61
726.28	235.18
726.467	171.69
726.653	265.89
726.84	351.91
727.027	388.77
727.213	282.28
727.4	231.08
727.586	290.47
727.773	241.32
727.959	272.04
728.145	216.74
728.332	317.09
728.518	181.93
728.705	257.7
728.891	218.79
729.077	229.03
729.264	145.06
729.45	226.98
729.636	243.37
729.823	284.33
730.009	360.1
730.195	198.31
730.382	261.8
730.568	130.73
730.754	226.98
730.94	319.14
731.126	294.57
731.313	302.76
731.499	222.89
731.685	241.32
731.871	267.94
732.057	335.53
732.243	323.24
732.429	257.7
732.615	392.87
732.801	267.94
732.987	251.56
733.173	231.08
733.359	216.74
733.545	364.2
733.731	200.36
733.917	388.77
734.103	286.37
734.289	347.81
734.475	210.6
734.661	399.01
734.847	325.29
735.033	257.7
735.219	347.81
735.404	323.24
735.59	335.53
735.776	300.71
735.962	353.96
736.148	349.86
736.333	284.33
736.519	327.33
736.705	292.52
736.89	347.81
737.076	321.19
737.262	206.5
737.447	212.65
737.633	257.7
737.819	368.29
738.004	331.43
738.19	317.09
738.375	286.37
738.561	306.85
738.747	294.57
738.932	278.18
739.118	433.83
739.303	315.05
739.489	378.53
739.674	292.52
739.859	171.69
740.045	370.34
740.23	321.19
740.416	181.93
740.601	317.09
740.786	349.86
740.972	269.99
741.157	249.51
741.342	224.94
741.528	269.99
741.713	413.35
741.898	300.71
742.084	288.42
742.269	278.18
742.454	353.96
742.639	382.63
742.824	251.56
743.01	370.34
743.195	423.59
743.38	327.33
743.565	329.38
743.75	317.09
743.935	382.63
744.12	394.92
744.305	226.98
744.49	253.61
744.675	235.18
744.86	286.37
745.045	347.81
745.23	337.57
745.415	310.95
745.6	411.3
745.785	276.13
745.97	382.63
746.155	394.92
746.34	392.87
746.525	259.75
746.71	423.59
746.895	153.26
747.079	272.04
747.264	265.89
747.449	263.85
747.634	325.29
747.819	306.85
748.003	300.71
748.188	259.75
748.373	323.24
748.557	327.33
748.742	317.09
748.927	224.94
749.111	284.33
749.296	196.26
749.481	341.67
749.665	310.95
749.85	224.94
750.034	276.13
750.219	167.59
750.404	200.36
750.588	265.89
750.773	251.56
750.957	296.61
751.141	302.76
751.326	351.91
751.51	210.6
751.695	206.5
751.879	249.51
752.064	345.77
752.248	296.61
752.432	349.86
752.617	339.62
752.801	353.96
752.985	222.89
753.17	308.9
753.354	222.89
753.538	202.41
753.722	220.84
753.907	130.73
754.091	106.15
754.275	235.18
754.459	157.35
754.643	179.88
754.828	229.03
755.012	229.03
755.196	136.87
755.38	210.6
755.564	130.73
755.748	149.16
755.932	259.75
756.116	157.35
756.3	304.81
756.484	212.65
756.668	304.81
756.852	93.87
757.036	218.79
757.22	169.64
757.404	167.59
757.588	190.12
757.772	165.54
757.956	165.54
758.14	382.63
758.323	145.06
758.507	265.89
758.691	151.21
758.875	278.18
759.059	245.41
759.242	161.45
759.426	157.35
759.61	157.35
759.794	198.31
759.977	249.51
760.161	429.73
760.345	171.69
760.528	267.94
760.712	149.16
760.895	222.89
761.079	128.68
761.263	140.97
761.446	198.31
761.63	134.82
761.813	224.94
761.997	145.06
762.18	153.26
762.364	206.5
762.547	57
762.731	128.68
762.914	212.65
763.098	177.83
763.281	153.26
763.464	128.68
763.648	161.45
763.831	130.73
764.015	36.52
764.198	286.37
764.381	104.11
764.564	112.3
764.748	89.77
764.931	173.74
765.114	177.83
765.297	151.21
765.481	42.67
765.664	140.97
765.847	108.2
766.03	206.5
766.213	71.34
766.397	159.4
766.58	87.72
766.763	181.93
766.946	120.49
767.129	116.39
767.312	52.91
767.495	108.2
767.678	75.43
767.861	134.82
768.044	116.39
768.227	83.63
768.41	153.26
768.593	95.91
768.776	218.79
768.959	122.54
769.142	229.03
769.324	171.69
769.507	104.11
769.69	136.87
769.873	77.48
770.056	243.37
770.239	110.25
770.421	210.6
770.604	222.89
770.787	134.82
770.97	112.3
771.152	85.67
771.335	202.41
771.518	73.39
771.7	177.83
771.883	204.46
772.066	-31.06
772.248	222.89
772.431	169.64
772.613	122.54
772.796	173.74
772.978	124.58
773.161	245.41
773.343	106.15
773.526	108.2
773.708	7.85
773.891	38.57
774.073	106.15
774.256	97.96
774.438	181.93
774.621	71.34
774.803	116.39
774.985	163.5
775.168	122.54
775.35	104.11
775.532	124.58
775.715	85.67
775.897	155.3
776.079	-10.58
776.261	114.34
776.444	3.75
776.626	46.76
776.808	157.35
776.99	18.09
777.173	71.34
777.355	46.76
777.537	73.39
777.719	102.06
777.901	40.62
778.083	122.54
778.265	-35.16
778.447	138.92
778.629	3.75
778.811	100.01
778.993	138.92
779.175	216.74
779.357	140.97
779.539	-57.68
779.721	95.91
779.903	93.87
780.085	67.24
780.267	79.53
780.449	102.06
780.631	100.01
780.812	177.83
780.994	143.02
781.176	36.52
781.358	22.19
781.54	63.15
781.721	77.48
781.903	136.87
782.085	32.43
782.267	120.49
782.448	-10.58
782.63	54.95
782.812	9.9
782.993	63.15
783.175	112.3
783.357	20.14
783.538	145.06
783.72	-8.53
783.901	30.38
784.083	91.82
784.264	26.28
784.446	-65.88
784.627	-51.54
784.809	63.15
784.99	67.24
785.172	85.67
785.353	77.48
785.535	7.85
785.716	-39.25
785.897	-39.25
786.079	114.34
786.26	52.91
786.441	132.78
786.623	-26.96
786.804	-12.63
786.985	87.72
787.167	40.62
787.348	87.72
787.529	-24.92
787.71	173.74
787.891	120.49
788.073	1.71
788.254	-108.88
788.435	136.87
788.616	132.78
788.797	-53.59
788.978	-16.73
789.159	-2.39
789.34	112.3
789.522	46.76
789.703	5.8
789.884	36.52
790.065	28.33
790.246	153.26
790.427	79.53
790.607	161.45
790.788	151.21
790.969	-31.06
791.15	52.91
791.331	75.43
791.512	-14.68
791.693	1.71
791.874	-0.34
792.054	181.93
792.235	75.43
792.416	-14.68
792.597	-14.68
792.778	38.57
792.958	69.29
793.139	63.15
793.32	13.99
793.5	-96.6
793.681	104.11
793.862	67.24
794.042	77.48
794.223	-45.4
794.404	-31.06
794.584	-0.34
794.765	18.09
794.945	18.09
795.126	85.67
795.306	44.71
795.487	-10.58
795.667	52.91
795.848	95.91
796.028	-29.01
796.209	100.01
796.389	136.87
796.57	-39.25
796.75	-18.77
796.93	57
797.111	52.91
797.291	13.99
797.471	67.24
797.652	-76.12
797.832	44.71
798.012	57
798.192	-33.11
798.373	-65.88
798.553	73.39
798.733	38.57
798.913	-26.96
799.093	59.05
799.274	50.86
799.454	52.91
799.634	132.78
799.814	83.63
799.994	11.95
800.174	122.54
800.354	36.52
800.534	-8.53
800.714	61.1
800.894	-86.36
801.074	-78.16
801.254	-22.87
801.434	97.96
801.614	-41.3
801.794	9.9
801.974	1881.74
802.154	-4.44
802.334	75.43
802.514	-84.31
802.693	-63.83
802.873	-14.68
803.053	97.96
803.233	54.95
803.413	-0.34
803.592	-49.49
803.772	-22.87
803.952	24.23
804.131	-67.92
804.311	40.62
804.491	20.14
804.67	-22.87
804.85	-43.35
805.03	71.34
805.209	85.67
805.389	-22.87
805.568	-51.54
805.748	-0.34
805.928	40.62
806.107	22.19
806.287	5.8
806.466	48.81
806.646	-55.64
806.825	16.04
807.004	5.8
807.184	63.15
807.363	57
807.543	-35.16
807.722	-2.39
807.901	108.2
808.081	1.71
808.26	-145.75
808.439	-0.34
808.619	3.75
808.798	48.81
808.977	85.67
809.156	67.24
809.336	7.85
809.515	126.63
809.694	-16.73
809.873	16.04
810.052	138.92
810.231	73.39
810.411	50.86
810.59	-8.53
810.769	75.43
810.948	83.63
811.127	-94.55
811.306	32.43
811.485	-55.64
811.664	104.11
811.843	-0.34
812.022	20.14
812.201	-8.53
812.38	-8.53
812.559	-100.69
812.737	44.71
812.916	-47.44
813.095	-51.54
813.274	85.67
813.453	-47.44
813.632	57
813.811	42.67
813.989	-86.36
814.168	-110.93
814.347	-106.84
814.526	-24.92
814.704	57
814.883	50.86
815.062	-51.54
815.24	57
815.419	-76.12
815.598	-57.68
815.776	-106.84
815.955	1.71
816.133	-133.46
816.312	50.86
816.49	-94.55
816.669	-55.64
816.847	-6.49
817.026	-24.92
817.204	-63.83
817.383	-22.87
817.561	-14.68
817.74	-74.07
817.918	83.63
818.097	-76.12
818.275	-35.16
818.453	-2.39
818.632	75.43
818.81	42.67
818.988	-18.77
819.167	-31.06
819.345	54.95
819.523	-45.4
819.701	24.23
819.879	-33.11
820.058	57
820.236	-26.96
820.414	1.71
820.592	-2.39
820.77	-98.64
820.948	-31.06
821.127	-18.77
821.305	75.43
821.483	-84.31
821.661	24.23
821.839	22.19
822.017	-22.87
822.195	20.14
822.373	42.67
822.551	1.71
822.729	91.82
822.907	-35.16
823.085	36.52
823.262	1.71
823.44	-51.54
823.618	-51.54
823.796	-2.39
823.974	-33.11
824.152	-57.68
824.329	-51.54
824.507	57
824.685	59.05
824.863	-43.35
825.04	-98.64
825.218	-35.16
825.396	59.05
825.574	-29.01
825.751	44.71
825.929	63.15
826.107	-76.12
826.284	-8.53
826.462	59.05
826.639	-57.68
826.817	-55.64
826.994	-14.68
827.172	-33.11
827.349	85.67
827.527	83.63
827.704	-100.69
827.882	126.63
828.059	-67.92
828.237	-117.08
828.414	116.39
828.591	-106.84
828.769	-12.63
828.946	-39.25
829.124	44.71
829.301	81.58
829.478	-43.35
829.655	59.05
829.833	-8.53
830.01	-39.25
830.187	36.52
830.364	18.09
830.542	69.29
830.719	104.11
830.896	118.44
831.073	20.14
831.25	32.43
831.427	16.04
831.604	1.71
831.782	-78.16
831.959	52.91
832.136	40.62
832.313	11.95
832.49	-43.35
832.667	24.23
832.844	-61.78
833.021	26.28
833.198	5.8
833.374	36.52
833.551	20.14
833.728	67.24
833.905	71.34
834.082	-100.69
834.259	24.23
834.436	57
834.612	-108.88
834.789	38.57
834.966	22.19
835.143	69.29
835.319	-67.92
835.496	59.05
835.673	30.38
835.85	3.75
836.026	28.33
836.203	89.77
836.38	-39.25
836.556	-24.92
836.733	-35.16
836.909	87.72
837.086	11.95
837.262	-80.21
837.439	26.28
837.616	42.67
837.792	-57.68
837.968	-24.92
838.145	-100.69
838.321	-35.16
838.498	-2.39
838.674	69.29
838.851	67.24
839.027	-43.35
839.203	-26.96
839.38	-33.11
839.556	-82.26
839.732	116.39
839.909	-69.97
840.085	7.85
840.261	-59.73
840.437	-6.49
840.614	26.28
840.79	65.19
840.966	89.77
841.142	3.75
841.318	9.9
841.494	54.95
841.671	124.58
841.847	-43.35
842.023	30.38
842.199	-12.63
842.375	97.96
842.551	-110.93
842.727	-108.88
842.903	106.15
843.079	-86.36
843.255	77.48
843.431	-39.25
843.607	48.81
843.783	-162.13
843.959	20.14
844.134	-96.6
844.31	63.15
844.486	-29.01
844.662	-47.44
844.838	-92.5
845.013	44.71
845.189	-8.53
845.365	54.95
845.541	-12.63
845.716	-51.54
845.892	95.91
846.068	-84.31
846.244	-61.78
846.419	-10.58
846.595	-72.02
846.77	-74.07
846.946	38.57
847.122	-26.96
847.297	-53.59
847.473	100.01
847.648	-160.08
847.824	54.95
847.999	-149.84
848.175	-76.12
848.35	-6.49
848.526	48.81
848.701	32.43
848.876	-4.44
849.052	18.09
849.227	-47.44
849.403	-49.49
849.578	-65.88
849.753	46.76
849.929	-51.54
850.104	-67.92
850.279	22.19
850.454	-8.53
850.63	-33.11
850.805	-29.01
850.98	48.81
851.155	-0.34
851.33	18.09
851.505	-123.22
851.681	50.86
851.856	-92.5
852.031	57
852.206	20.14
852.381	-74.07
852.556	-59.73
852.731	50.86
852.906	42.67
853.081	-14.68
853.256	110.25
853.431	7.85
853.606	-63.83
853.781	40.62
853.956	-98.64
854.131	-6.49
854.305	-51.54
854.48	-41.3
854.655	-94.55
854.83	-178.51
855.005	3.75
855.18	-0.34
855.354	1.71
855.529	22.19
855.704	-49.49
855.879	-61.78
856.053	-102.74
856.228	5.8
856.403	-51.54
856.577	71.34
856.752	-125.27
856.926	-2.39
857.101	46.76
857.276	-72.02
857.45	32.43
857.625	69.29
857.799	38.57
857.974	38.57
858.148	-90.45
858.323	87.72
858.497	-8.53
858.672	-41.3
858.846	-39.25
859.02	16.04
859.195	-78.16
859.369	-63.83
859.543	-2.39
859.718	-24.92
859.892	91.82
860.066	30.38
860.241	59.05
860.415	-92.5
860.589	-12.63
860.763	3.75
860.938	-59.73
861.112	13.99
861.286	-35.16
861.46	-31.06
861.634	-16.73
861.808	57
861.982	-39.25
862.157	-88.4
862.331	-96.6
862.505	-125.27
862.679	-106.84
862.853	-49.49
863.027	-0.34
863.201	138.92
863.375	-59.73
863.549	7.85
863.722	7.85
863.896	-10.58
864.07	-22.87
864.244	-74.07
864.418	46.76
864.592	-94.55
864.766	-33.11
864.939	32.43
865.113	7.85
865.287	-2.39
865.461	20.14
865.634	-33.11
865.808	3.75
865.982	-2.39
866.156	-106.84
866.329	-43.35
866.503	36.52
866.676	32.43
866.85	97.96
867.024	1.71
867.197	11.95
867.371	22.19
867.544	26.28
867.718	-22.87
867.891	42.67
868.065	-102.74
868.238	-20.82
868.412	40.62
868.585	11.95
868.759	-59.73
868.932	13.99
869.105	-74.07
869.279	11.95
869.452	-170.32
869.625	75.43
869.799	-43.35
869.972	-98.64
870.145	-86.36
870.319	16.04
870.492	-88.4
870.665	-108.88
870.838	-158.03
871.011	-160.08
871.185	-41.3
871.358	1.71
871.531	16.04
871.704	-29.01
871.877	-22.87
872.05	-102.74
872.223	-104.79
872.396	61.1
872.569	81.58
872.742	-39.25
872.915	26.28
873.088	13.99
873.261	-59.73
873.434	-61.78
873.607	-47.44
873.78	100.01
873.953	-67.92
874.126	-18.77
874.299	48.81
874.471	-53.59
874.644	-33.11
874.817	7.85
874.99	161.45
875.163	-45.4
875.335	-29.01
875.508	20.14
875.681	57
875.853	-115.03
876.026	-26.96
876.199	22.19
876.371	5.8
876.544	-29.01
876.717	11.95
876.889	-22.87
877.062	116.39
877.234	-72.02
877.407	-88.4
877.579	-26.96
877.752	-22.87
877.924	-2.39
878.097	20.14
878.269	-16.73
878.442	-4.44
878.614	-24.92
878.786	59.05
878.959	-18.77
879.131	13.99
879.303	-96.6
879.476	-14.68
879.648	44.71
879.82	-37.2
879.993	13.99
880.165	-53.59
880.337	-10.58
880.509	-8.53
880.681	-106.84
880.854	-129.36
881.026	100.01
881.198	157.35
881.37	-16.73
881.542	5.8
881.714	-37.2
881.886	-39.25
882.058	-33.11
882.23	3.75
882.402	-47.44
882.574	-18.77
882.746	40.62
882.918	116.39
883.09	-59.73
883.262	-8.53
883.434	-82.26
883.606	-88.4
883.778	-43.35
883.95	126.63
884.122	3.75
884.293	67.24
884.465	-33.11
884.637	59.05
884.809	-65.88
884.98	-35.16
885.152	-4.44
885.324	20.14
885.496	-108.88
885.667	-115.03
885.839	-102.74
886.011	95.91
886.182	44.71
886.354	9.9
886.525	-53.59
886.697	9.9
886.869	-22.87
887.04	34.47
887.212	79.53
887.383	57
887.555	-37.2
887.726	-84.31
887.897	-72.02
888.069	-22.87
888.24	-22.87
888.412	22.19
888.583	-10.58
888.754	73.39
888.926	-119.12
889.097	-86.36
889.268	-108.88
889.44	-43.35
889.611	-112.98
889.782	-69.97
889.953	-133.46
890.125	42.67
890.296	-80.21
890.467	-20.82
890.638	-76.12
890.809	-57.68
890.98	-26.96
891.151	24.23
891.323	61.1
891.494	20.14
891.665	3.75
891.836	-6.49
892.007	7.85
892.178	5.8
892.349	48.81
892.52	-96.6
892.691	-33.11
892.862	-117.08
893.032	-51.54
893.203	-37.2
893.374	18.09
893.545	50.86
893.716	-94.55
893.887	16.04
894.057	-37.2
894.228	30.38
894.399	-2.39
894.57	67.24
894.74	3.75
894.911	-14.68
895.082	13.99
895.253	-104.79
895.423	-6.49
895.594	87.72
895.764	-6.49
895.935	-192.85
896.106	16.04
896.276	-31.06
896.447	57
896.617	-84.31
896.788	-94.55
896.958	-108.88
897.129	-96.6
897.299	-90.45
897.47	87.72
897.64	73.39
897.81	-51.54
897.981	-0.34
898.151	-80.21
898.322	7.85
898.492	36.52
898.662	-125.27
898.832	-69.97
899.003	-26.96
899.173	75.43
899.343	-80.21
899.513	-78.16
