Data from USB4F104151__19__09-25-31-021.txt Node

Date: Wed Feb 26 09:25:31 EST 2025
User: louis
Spectrometer: USB4F10415
Trigger mode: 4
Integration Time (sec): 1.000000E-1
Scans to average: 1
Electric dark correction enabled: true
Nonlinearity correction enabled: false
Boxcar width: 0
XAxis mode: Wavelengths
Number of Pixels in Spectrum: 3648
>>>>>Begin Spectral Data<<<<<
178.204	-334.67
178.424	-334.67
178.644	-334.67
178.864	-316.24
179.084	-406.35
179.304	-72.53
179.524	-29.52
179.744	11.43
179.964	74.92
180.184	38.06
180.404	83.11
180.624	-54.1
180.844	-39.76
181.064	-62.29
181.283	11.43
181.503	-37.72
181.723	76.97
181.943	-119.64
182.163	183.46
182.383	-47.96
182.602	74.92
182.822	105.64
183.042	31.91
183.262	17.58
183.482	36.01
183.701	62.63
183.921	107.69
184.141	-72.53
184.361	31.91
184.58	93.35
184.8	74.92
185.02	13.48
185.239	27.82
185.459	93.35
185.679	140.46
185.898	27.82
186.118	27.82
186.338	87.21
186.557	85.16
186.777	11.43
186.997	11.43
187.216	-23.38
187.436	171.18
187.655	138.41
187.875	68.78
188.095	17.58
188.314	83.11
188.534	203.94
188.753	40.11
188.973	76.97
189.192	109.74
189.412	21.67
189.631	44.2
189.851	140.46
190.07	130.22
190.29	-105.3
190.509	-13.14
190.729	-29.52
190.948	60.59
191.168	222.38
191.387	68.78
191.607	44.2
191.826	89.26
192.045	64.68
192.265	15.53
192.484	-29.52
192.704	58.54
192.923	-52.05
193.142	259.24
193.362	33.96
193.581	136.36
193.8	70.83
194.02	81.07
194.239	91.31
194.458	58.54
194.678	-0.85
194.897	-39.76
195.116	-9.05
195.335	42.15
195.555	83.11
195.774	-4.95
195.993	126.12
196.212	60.59
196.432	52.39
196.651	23.72
196.87	-54.1
197.089	203.94
197.308	144.55
197.528	72.87
197.747	-45.91
197.966	29.87
198.185	175.27
198.404	-11.09
198.623	27.82
198.842	91.31
199.062	52.39
199.281	140.46
199.5	-45.91
199.719	42.15
199.938	19.63
200.157	42.15
200.376	117.93
200.595	87.21
200.814	13.48
201.033	-35.67
201.252	169.13
201.471	128.17
201.69	126.12
201.909	87.21
202.128	111.78
202.347	9.39
202.566	27.82
202.785	-9.05
203.004	-103.25
203.223	171.18
203.442	76.97
203.661	56.49
203.879	93.35
204.098	111.78
204.317	-37.72
204.536	117.93
204.755	87.21
204.974	122.02
205.193	9.39
205.411	218.28
205.63	140.46
205.849	72.87
206.068	25.77
206.287	9.39
206.505	76.97
206.724	40.11
206.943	11.43
207.162	36.01
207.381	29.87
207.599	-29.52
207.818	23.72
208.037	-11.09
208.255	38.06
208.474	83.11
208.693	64.68
208.911	50.35
209.13	85.16
209.349	91.31
209.567	126.12
209.786	68.78
210.005	187.56
210.223	40.11
210.442	-80.72
210.661	19.63
210.879	56.49
211.098	40.11
211.316	3.24
211.535	76.97
211.753	11.43
211.972	31.91
212.191	48.3
212.409	-17.24
212.628	93.35
212.846	-0.85
213.065	74.92
213.283	203.94
213.502	25.77
213.72	7.34
213.938	70.83
214.157	3.24
214.375	97.45
214.594	1.19
214.812	132.26
215.031	50.35
215.249	-15.19
215.467	79.02
215.686	70.83
215.904	58.54
216.122	50.35
216.341	91.31
216.559	48.3
216.778	68.78
216.996	60.59
217.214	38.06
217.432	-47.96
217.651	-15.19
217.869	-4.95
218.087	-39.76
218.306	83.11
218.524	68.78
218.742	5.29
218.96	109.74
219.179	76.97
219.397	31.91
219.615	142.5
219.833	142.5
220.051	-11.09
220.27	74.92
220.488	117.93
220.706	44.2
220.924	15.53
221.142	9.39
221.36	52.39
221.578	21.67
221.796	27.82
222.015	21.67
222.233	60.59
222.451	126.12
222.669	11.43
222.887	99.5
223.105	-35.67
223.323	87.21
223.541	64.68
223.759	3.24
223.977	19.63
224.195	216.23
224.413	113.83
224.631	62.63
224.849	44.2
225.067	130.22
225.285	64.68
225.503	56.49
225.721	-140.12
225.939	21.67
226.157	76.97
226.375	130.22
226.592	-23.38
226.81	72.87
227.028	64.68
227.246	146.6
227.464	81.07
227.682	128.17
227.9	44.2
228.117	93.35
228.335	58.54
228.553	44.2
228.771	54.44
228.989	107.69
229.206	103.59
229.424	-13.14
229.642	101.55
229.86	-11.09
230.077	36.01
230.295	44.2
230.513	165.03
230.731	124.07
230.948	103.59
231.166	148.65
231.384	27.82
231.601	-7
231.819	154.79
232.037	-52.05
232.254	-66.39
232.472	64.68
232.689	-41.81
232.907	76.97
233.125	68.78
233.342	15.53
233.56	-39.76
233.777	-13.14
233.995	9.39
234.213	68.78
234.43	13.48
234.648	15.53
234.865	-13.14
235.083	31.91
235.3	74.92
235.518	91.31
235.735	93.35
235.953	42.15
236.17	44.2
236.388	11.43
236.605	-11.09
236.822	89.26
237.04	177.32
237.257	50.35
237.475	-43.86
237.692	81.07
237.909	-4.95
238.127	-23.38
238.344	105.64
238.562	33.96
238.779	-78.68
238.996	29.87
239.214	70.83
239.431	89.26
239.648	74.92
239.865	99.5
240.083	66.73
240.3	33.96
240.517	-2.9
240.735	29.87
240.952	160.94
241.169	68.78
241.386	91.31
241.603	27.82
241.821	-70.48
242.038	95.4
242.255	122.02
242.472	-21.33
242.689	72.87
242.907	107.69
243.124	117.93
243.341	44.2
243.558	74.92
243.775	-56.15
243.992	19.63
244.209	74.92
244.426	136.36
244.643	11.43
244.86	58.54
245.078	36.01
245.295	105.64
245.512	33.96
245.729	-29.52
245.946	52.39
246.163	17.58
246.38	-7
246.597	44.2
246.814	27.82
247.031	23.72
247.248	23.72
247.464	54.44
247.681	54.44
247.898	74.92
248.115	11.43
248.332	-76.63
248.549	167.08
248.766	126.12
248.983	44.2
249.2	66.73
249.417	58.54
249.633	17.58
249.85	52.39
250.067	40.11
250.284	27.82
250.501	89.26
250.717	62.63
250.934	-41.81
251.151	-4.95
251.368	-11.09
251.585	50.35
251.801	-4.95
252.018	-64.34
252.235	48.3
252.451	-29.52
252.668	29.87
252.885	113.83
253.102	21.67
253.318	-13.14
253.535	-21.33
253.752	-66.39
253.968	27.82
254.185	-50
254.401	44.2
254.618	113.83
254.835	-45.91
255.051	132.26
255.268	62.63
255.484	36.01
255.701	-37.72
255.917	68.78
256.134	-27.48
256.351	48.3
256.567	-78.68
256.784	89.26
257	52.39
257.217	93.35
257.433	126.12
257.65	70.83
257.866	138.41
258.082	-35.67
258.299	52.39
258.515	-11.09
258.732	-11.09
258.948	-4.95
259.165	113.83
259.381	-11.09
259.597	95.4
259.814	93.35
260.03	105.64
260.246	83.11
260.463	70.83
260.679	130.22
260.895	52.39
261.112	-0.85
261.328	-2.9
261.544	-19.29
261.761	181.42
261.977	79.02
262.193	-37.72
262.409	83.11
262.626	36.01
262.842	-54.1
263.058	-45.91
263.274	132.26
263.49	99.5
263.707	25.77
263.923	154.79
264.139	-68.44
264.355	-31.57
264.571	89.26
264.787	74.92
265.004	146.6
265.22	60.59
265.436	-9.05
265.652	-33.62
265.868	74.92
266.084	-54.1
266.3	13.48
266.516	-7
266.732	56.49
266.948	97.45
267.164	25.77
267.38	134.31
267.596	113.83
267.812	242.85
268.028	44.2
268.244	50.35
268.46	-9.05
268.676	-45.91
268.892	50.35
269.108	-19.29
269.324	-72.53
269.54	3.24
269.756	109.74
269.972	52.39
270.188	-9.05
270.403	1.19
270.619	126.12
270.835	101.55
271.051	36.01
271.267	3.24
271.483	89.26
271.698	89.26
271.914	58.54
272.13	99.5
272.346	52.39
272.562	36.01
272.777	111.78
272.993	17.58
273.209	-23.38
273.425	40.11
273.64	-60.24
273.856	126.12
274.072	-41.81
274.287	-37.72
274.503	124.07
274.719	126.12
274.934	21.67
275.15	-66.39
275.366	46.25
275.581	-21.33
275.797	85.16
276.012	81.07
276.228	93.35
276.444	64.68
276.659	36.01
276.875	-23.38
277.09	-17.24
277.306	-11.09
277.521	60.59
277.737	13.48
277.952	101.55
278.168	19.63
278.383	31.91
278.599	122.02
278.814	15.53
279.03	122.02
279.245	144.55
279.461	27.82
279.676	158.89
279.892	3.24
280.107	-88.92
280.322	-17.24
280.538	68.78
280.753	44.2
280.969	50.35
281.184	48.3
281.399	72.87
281.615	-4.95
281.83	93.35
282.045	-86.87
282.26	19.63
282.476	33.96
282.691	111.78
282.906	31.91
283.122	66.73
283.337	50.35
283.552	9.39
283.767	3.24
283.983	23.72
284.198	-0.85
284.413	83.11
284.628	-54.1
284.843	-45.91
285.058	93.35
285.274	19.63
285.489	29.87
285.704	60.59
285.919	-13.14
286.134	-56.15
286.349	21.67
286.564	3.24
286.779	109.74
286.995	66.73
287.21	-68.44
287.425	52.39
287.64	52.39
287.855	9.39
288.07	5.29
288.285	46.25
288.5	107.69
288.715	60.59
288.93	76.97
289.145	-11.09
289.36	117.93
289.575	25.77
289.79	117.93
290.004	7.34
290.219	132.26
290.434	-43.86
290.649	31.91
290.864	25.77
291.079	-9.05
291.294	50.35
291.509	74.92
291.724	27.82
291.938	9.39
292.153	64.68
292.368	-31.57
292.583	89.26
292.798	81.07
293.012	29.87
293.227	107.69
293.442	-25.43
293.657	105.64
293.871	144.55
294.086	17.58
294.301	154.79
294.516	99.5
294.73	58.54
294.945	-25.43
295.16	38.06
295.374	72.87
295.589	146.6
295.804	11.43
296.018	9.39
296.233	142.5
296.447	89.26
296.662	-4.95
296.877	68.78
297.091	7.34
297.306	56.49
297.52	-15.19
297.735	38.06
297.949	31.91
298.164	38.06
298.378	50.35
298.593	-11.09
298.807	11.43
299.022	42.15
299.236	117.93
299.451	29.87
299.665	-41.81
299.88	-66.39
300.094	76.97
300.309	36.01
300.523	60.59
300.737	-11.09
300.952	-23.38
301.166	15.53
301.381	64.68
301.595	27.82
301.809	31.91
302.024	-66.39
302.238	-50
302.452	109.74
302.667	7.34
302.881	115.88
303.095	89.26
303.309	58.54
303.524	27.82
303.738	52.39
303.952	7.34
304.166	103.59
304.381	-70.48
304.595	148.65
304.809	-11.09
305.023	87.21
305.237	9.39
305.452	91.31
305.666	62.63
305.88	58.54
306.094	76.97
306.308	79.02
306.522	138.41
306.736	76.97
306.95	72.87
307.164	9.39
307.379	36.01
307.593	130.22
307.807	150.7
308.021	91.31
308.235	68.78
308.449	-13.14
308.663	101.55
308.877	162.98
309.091	99.5
309.305	93.35
309.519	-29.52
309.733	93.35
309.947	-7
310.161	91.31
310.374	115.88
310.588	70.83
310.802	-29.52
311.016	46.25
311.23	44.2
311.444	-7
311.658	29.87
311.872	42.15
312.085	44.2
312.299	183.46
312.513	128.17
312.727	87.21
312.941	3.24
313.154	85.16
313.368	31.91
313.582	52.39
313.796	-23.38
314.009	19.63
314.223	44.2
314.437	27.82
314.651	25.77
314.864	48.3
315.078	68.78
315.292	-21.33
315.505	-54.1
315.719	91.31
315.933	167.08
316.146	42.15
316.36	-4.95
316.573	105.64
316.787	85.16
317.001	60.59
317.214	-29.52
317.428	83.11
317.641	-4.95
317.855	50.35
318.068	25.77
318.282	17.58
318.495	177.32
318.709	60.59
318.922	15.53
319.136	171.18
319.349	93.35
319.563	25.77
319.776	15.53
319.99	-56.15
320.203	89.26
320.417	105.64
320.63	113.83
320.843	136.36
321.057	3.24
321.27	64.68
321.483	44.2
321.697	109.74
321.91	48.3
322.124	76.97
322.337	60.59
322.55	19.63
322.763	44.2
322.977	21.67
323.19	-11.09
323.403	66.73
323.617	44.2
323.83	160.94
324.043	5.29
324.256	48.3
324.469	-64.34
324.683	142.5
324.896	74.92
325.109	76.97
325.322	52.39
325.535	62.63
325.748	85.16
325.962	56.49
326.175	66.73
326.388	72.87
326.601	89.26
326.814	23.72
327.027	105.64
327.24	52.39
327.453	-29.52
327.666	68.78
327.879	119.98
328.092	171.18
328.305	60.59
328.518	-27.48
328.731	85.16
328.944	-4.95
329.157	99.5
329.37	33.96
329.583	201.9
329.796	58.54
330.009	17.58
330.222	97.45
330.435	64.68
330.648	29.87
330.861	54.44
331.073	58.54
331.286	220.33
331.499	1.19
331.712	5.29
331.925	58.54
332.138	48.3
332.35	19.63
332.563	-80.72
332.776	115.88
332.989	-27.48
333.202	-9.05
333.414	72.87
333.627	72.87
333.84	-25.43
334.053	107.69
334.265	-4.95
334.478	21.67
334.691	76.97
334.903	23.72
335.116	66.73
335.329	60.59
335.541	40.11
335.754	109.74
335.966	52.39
336.179	-41.81
336.392	83.11
336.604	31.91
336.817	144.55
337.029	3.24
337.242	1.19
337.454	79.02
337.667	-4.95
337.88	113.83
338.092	167.08
338.305	103.59
338.517	-90.96
338.729	115.88
338.942	167.08
339.154	46.25
339.367	-33.62
339.579	79.02
339.792	36.01
340.004	13.48
340.217	19.63
340.429	48.3
340.641	-27.48
340.854	-31.57
341.066	36.01
341.278	68.78
341.491	103.59
341.703	62.63
341.915	9.39
342.128	122.02
342.34	85.16
342.552	-9.05
342.764	48.3
342.977	-11.09
343.189	15.53
343.401	64.68
343.613	-64.34
343.826	44.2
344.038	9.39
344.25	-47.96
344.462	-47.96
344.674	111.78
344.886	-4.95
345.099	60.59
345.311	-9.05
345.523	50.35
345.735	42.15
345.947	-33.62
346.159	58.54
346.371	36.01
346.583	19.63
346.795	171.18
347.007	-4.95
347.219	109.74
347.431	-4.95
347.643	99.5
347.855	87.21
348.067	138.41
348.279	-43.86
348.491	-23.38
348.703	48.3
348.915	23.72
349.127	-29.52
349.339	5.29
349.551	13.48
349.763	115.88
349.975	58.54
350.187	124.07
350.399	83.11
350.61	93.35
350.822	56.49
351.034	89.26
351.246	107.69
351.458	89.26
351.669	134.31
351.881	124.07
352.093	83.11
352.305	142.5
352.517	-0.85
352.728	117.93
352.94	25.77
353.152	126.12
353.363	1.19
353.575	21.67
353.787	144.55
353.999	150.7
354.21	154.79
354.422	-103.25
354.633	44.2
354.845	3.24
355.057	72.87
355.268	46.25
355.48	36.01
355.692	-66.39
355.903	42.15
356.115	-43.86
356.326	-78.68
356.538	132.26
356.749	93.35
356.961	195.75
357.172	40.11
357.384	33.96
357.595	138.41
357.807	76.97
358.018	-29.52
358.23	81.07
358.441	89.26
358.653	48.3
358.864	-0.85
359.075	11.43
359.287	21.67
359.498	122.02
359.709	93.35
359.921	27.82
360.132	-13.14
360.344	-4.95
360.555	-0.85
360.766	68.78
360.977	40.11
361.189	117.93
361.4	-21.33
361.611	68.78
361.823	40.11
362.034	25.77
362.245	-25.43
362.456	54.44
362.667	128.17
362.879	-37.72
363.09	93.35
363.301	9.39
363.512	72.87
363.723	1.19
363.935	9.39
364.146	36.01
364.357	89.26
364.568	33.96
364.779	1.19
364.99	27.82
365.201	-45.91
365.412	160.94
365.623	-56.15
365.834	93.35
366.045	-66.39
366.256	40.11
366.467	87.21
366.678	97.45
366.889	31.91
367.1	101.55
367.311	83.11
367.522	11.43
367.733	54.44
367.944	81.07
368.155	-23.38
368.366	95.4
368.577	42.15
368.788	85.16
368.999	9.39
369.209	115.88
369.42	220.33
369.631	212.14
369.842	85.16
370.053	46.25
370.264	64.68
370.474	-4.95
370.685	36.01
370.896	68.78
371.107	134.31
371.317	48.3
371.528	126.12
371.739	101.55
371.95	97.45
372.16	70.83
372.371	-4.95
372.582	7.34
372.792	103.59
373.003	-35.67
373.214	68.78
373.424	74.92
373.635	15.53
373.846	93.35
374.056	29.87
374.267	74.92
374.477	72.87
374.688	33.96
374.898	68.78
375.109	40.11
375.319	50.35
375.53	134.31
375.74	76.97
375.951	-15.19
376.161	-9.05
376.372	122.02
376.582	48.3
376.793	48.3
377.003	-39.76
377.214	15.53
377.424	85.16
377.635	79.02
377.845	15.53
378.055	142.5
378.266	-21.33
378.476	-17.24
378.686	52.39
378.897	31.91
379.107	66.73
379.317	36.01
379.528	11.43
379.738	74.92
379.948	-39.76
380.158	60.59
380.369	150.7
380.579	48.3
380.789	36.01
380.999	107.69
381.21	126.12
381.42	107.69
381.63	-45.91
381.84	74.92
382.05	146.6
382.261	72.87
382.471	89.26
382.681	66.73
382.891	89.26
383.101	-0.85
383.311	-7
383.521	-19.29
383.731	111.78
383.941	68.78
384.151	52.39
384.361	113.83
384.571	95.4
384.781	72.87
384.991	199.85
385.201	124.07
385.411	81.07
385.621	-29.52
385.831	60.59
386.041	56.49
386.251	85.16
386.461	124.07
386.671	79.02
386.881	42.15
387.091	27.82
387.301	97.45
387.511	52.39
387.72	60.59
387.93	99.5
388.14	1.19
388.35	124.07
388.56	140.46
388.769	130.22
388.979	56.49
389.189	19.63
389.399	126.12
389.609	89.26
389.818	101.55
390.028	50.35
390.238	58.54
390.447	-7
390.657	142.5
390.867	64.68
391.076	-37.72
391.286	60.59
391.496	-17.24
391.705	50.35
391.915	148.65
392.125	160.94
392.334	33.96
392.544	134.31
392.753	33.96
392.963	17.58
393.172	-15.19
393.382	-29.52
393.591	148.65
393.801	111.78
394.01	105.64
394.22	68.78
394.429	17.58
394.639	29.87
394.848	52.39
395.058	48.3
395.267	-0.85
395.477	68.78
395.686	93.35
395.895	148.65
396.105	187.56
396.314	122.02
396.524	15.53
396.733	7.34
396.942	87.21
397.152	68.78
397.361	74.92
397.57	40.11
397.78	72.87
397.989	17.58
398.198	154.79
398.407	68.78
398.617	19.63
398.826	46.25
399.035	167.08
399.244	134.31
399.453	17.58
399.663	52.39
399.872	93.35
400.081	-41.81
400.29	76.97
400.499	-41.81
400.708	107.69
400.917	-4.95
401.127	19.63
401.336	-19.29
401.545	128.17
401.754	169.13
401.963	101.55
402.172	60.59
402.381	-33.62
402.59	-21.33
402.799	42.15
403.008	79.02
403.217	97.45
403.426	23.72
403.635	-60.24
403.844	11.43
404.053	31.91
404.262	-27.48
404.471	132.26
404.68	130.22
404.888	52.39
405.097	27.82
405.306	29.87
405.515	74.92
405.724	44.2
405.933	130.22
406.142	38.06
406.35	138.41
406.559	38.06
406.768	3.24
406.977	142.5
407.185	91.31
407.394	109.74
407.603	17.58
407.812	27.82
408.02	156.84
408.229	66.73
408.438	52.39
408.646	48.3
408.855	93.35
409.064	44.2
409.272	-7
409.481	79.02
409.69	66.73
409.898	-45.91
410.107	117.93
410.315	87.21
410.524	-37.72
410.733	101.55
410.941	-9.05
411.15	44.2
411.358	117.93
411.567	183.46
411.775	42.15
411.984	66.73
412.192	52.39
412.401	74.92
412.609	117.93
412.818	167.08
413.026	91.31
413.234	115.88
413.443	93.35
413.651	13.48
413.86	89.26
414.068	101.55
414.276	111.78
414.485	9.39
414.693	134.31
414.901	175.27
415.11	87.21
415.318	48.3
415.526	40.11
415.734	85.16
415.943	52.39
416.151	146.6
416.359	99.5
416.567	27.82
416.776	64.68
416.984	81.07
417.192	117.93
417.4	74.92
417.608	60.59
417.817	1.19
418.025	85.16
418.233	167.08
418.441	72.87
418.649	-47.96
418.857	79.02
419.065	124.07
419.273	33.96
419.481	76.97
419.689	81.07
419.897	68.78
420.105	15.53
420.313	111.78
420.521	138.41
420.729	165.03
420.937	25.77
421.145	48.3
421.353	52.39
421.561	128.17
421.769	103.59
421.977	-25.43
422.185	146.6
422.393	79.02
422.601	171.18
422.809	113.83
423.017	33.96
423.224	25.77
423.432	126.12
423.64	99.5
423.848	124.07
424.056	40.11
424.263	122.02
424.471	101.55
424.679	103.59
424.887	33.96
425.094	179.37
425.302	99.5
425.51	140.46
425.718	132.26
425.925	109.74
426.133	17.58
426.341	212.14
426.548	68.78
426.756	109.74
426.964	181.42
427.171	68.78
427.379	128.17
427.586	115.88
427.794	124.07
428.001	183.46
428.209	68.78
428.417	140.46
428.624	113.83
428.832	185.51
429.039	117.93
429.247	175.27
429.454	124.07
429.662	201.9
429.869	228.52
430.076	74.92
430.284	255.14
430.491	228.52
430.699	138.41
430.906	277.67
431.114	175.27
431.321	150.7
431.528	142.5
431.736	189.61
431.943	165.03
432.15	279.72
432.358	152.74
432.565	371.88
432.772	126.12
432.979	283.81
433.187	189.61
433.394	228.52
433.601	156.84
433.808	238.76
434.016	273.57
434.223	322.73
434.43	273.57
434.637	228.52
434.844	384.16
435.052	345.25
435.259	292.01
435.466	388.26
435.673	257.19
435.88	326.82
436.087	365.73
436.294	363.69
436.501	330.92
436.708	349.35
436.915	392.36
437.122	580.77
437.329	433.32
437.537	412.84
437.743	425.12
437.95	584.87
438.157	507.04
438.364	455.84
438.571	507.04
438.778	554.15
438.985	515.23
439.192	599.2
439.399	627.87
439.606	656.54
439.813	664.74
440.02	760.99
440.227	801.95
440.433	756.9
440.64	715.94
440.847	765.09
441.054	720.03
441.261	947.36
441.467	814.24
441.674	830.62
441.881	1041.56
442.088	930.97
442.294	941.21
442.501	900.25
442.708	1051.8
442.914	1051.8
443.121	1098.91
443.328	1158.3
443.534	1121.43
443.741	1256.6
443.948	1174.68
444.154	1393.81
444.361	1578.13
444.568	1402.01
444.774	1381.53
444.981	1356.95
445.187	1567.89
445.394	1617.04
445.6	1565.84
445.807	1840.27
446.013	1748.11
446.22	1707.15
446.426	1838.22
446.633	2065.55
446.839	2276.49
447.046	2098.31
447.252	2184.33
447.459	2096.27
447.665	2276.49
447.871	2397.32
448.078	2503.81
448.284	2559.11
448.491	2559.11
448.697	2868.35
448.903	2899.07
449.11	3116.16
449.316	2862.21
449.522	3157.11
449.728	3277.94
449.935	3419.25
450.141	3320.95
450.347	3599.48
450.553	3591.28
450.76	3791.98
450.966	3984.49
451.172	4131.95
451.378	4289.64
451.584	4400.23
451.791	4656.23
451.997	4701.28
452.203	4899.94
452.409	5110.88
452.615	5293.15
452.821	5088.35
453.027	5168.22
453.233	5925.97
453.44	5672.02
453.646	6044.75
453.852	6272.07
454.058	6462.54
454.264	6753.35
454.47	7279.68
454.676	7261.24
454.882	7838.77
455.088	7500.86
455.294	7810.1
455.5	8457.26
455.705	8825.89
455.911	9096.22
456.117	9366.56
456.323	9677.85
456.529	9667.61
456.735	10578.95
456.941	10601.48
457.147	11248.64
457.352	11400.19
457.558	11676.66
457.764	12151.79
457.97	12901.35
458.176	13450.21
458.381	13837.27
458.587	14089.17
458.793	14877.64
458.999	14891.98
459.204	16780.2
459.41	17075.11
459.616	16948.14
459.821	17937.3
460.027	19108.74
460.233	19723.13
460.438	19510.14
460.644	21015.4
460.85	20972.39
461.055	21967.71
461.261	23110.47
461.466	22354.77
461.672	22879.05
461.878	25797.41
462.083	25322.28
462.289	25910.05
462.494	27067.15
462.7	27081.49
462.905	27491.08
463.111	29598.44
463.316	30921.43
463.522	31814.34
463.727	32486.07
463.932	34185.89
464.138	34744.98
464.343	36598.4
464.549	36309.63
464.754	38961.75
464.959	40065.61
465.165	41013.82
465.37	40456.77
465.575	40782.4
465.781	43352.6
465.986	44618.24
466.191	43858.45
466.397	44507.65
466.602	43256.34
466.807	45234.68
467.012	46356.97
467.218	46938.59
467.423	47264.22
467.628	48370.12
467.833	50876.83
468.038	50067.89
468.244	49068.48
468.449	51319.2
468.654	50379.18
468.859	50506.15
469.064	50368.94
469.269	49144.25
469.474	49111.49
469.679	50581.93
469.885	49541.56
470.09	50321.83
470.295	50606.5
470.5	49469.88
470.705	49648.05
470.91	48214.47
471.115	48034.25
471.32	48331.21
471.525	48116.17
471.73	46694.88
471.935	46602.72
472.139	44773.89
472.344	45410.81
472.549	44874.24
472.754	43831.82
472.959	43004.44
473.164	41546.29
473.369	41093.69
473.574	41964.07
473.778	41294.39
473.983	40512.06
474.188	40041.03
474.393	38267.49
474.598	37884.52
474.802	37012.09
475.007	36684.41
475.212	36129.41
475.417	34970.26
475.621	34237.09
475.826	34345.63
476.031	33403.56
476.235	32746.17
476.44	32903.86
476.645	31630.02
476.849	31855.3
477.054	30956.24
477.259	30243.55
477.463	30530.26
477.668	29547.24
477.872	29266.67
478.077	28488.44
478.282	27917.06
478.486	27556.61
478.691	27069.2
478.895	27054.86
479.1	26956.56
479.304	27022.09
479.509	25963.29
479.713	26084.12
479.918	25506.6
480.122	25092.91
480.326	25277.22
480.531	25752.35
480.735	25217.83
480.94	24578.87
481.144	25514.79
481.348	24021.82
481.553	24206.14
481.757	23262.02
481.961	24159.03
482.166	23890.75
482.37	23556.93
482.574	23112.52
482.778	23202.63
482.983	23122.76
483.187	22969.16
483.391	22545.23
483.595	22530.9
483.8	21887.84
484.004	21943.13
484.208	22014.81
484.412	21740.38
484.616	21271.4
484.821	21169
485.025	20679.54
485.229	20829.04
485.433	20384.63
485.637	20298.61
485.841	19841.92
486.045	19716.99
486.249	19360.64
486.453	19182.47
486.657	18920.33
486.861	18916.23
487.065	18019.22
487.269	17912.73
487.473	17322.91
487.677	17595.29
487.881	17478.56
488.085	16790.44
488.289	16683.95
488.493	16227.25
488.697	16499.63
488.901	15813.56
489.105	15535.04
489.309	15236.03
489.512	15041.48
489.716	14511.05
489.92	14537.68
490.124	14265.3
490.328	14199.76
490.531	13642.71
490.735	13550.56
490.939	13282.27
491.143	12905.45
491.346	12723.18
491.55	12952.55
491.754	12295.15
491.958	12145.65
492.161	12057.59
492.365	11914.23
492.569	11623.42
492.772	11332.61
492.976	11559.93
493.18	11406.33
493.383	11138.05
493.587	10886.15
493.79	10884.1
493.994	10415.12
494.197	10720.26
494.401	10327.05
494.605	10255.37
494.808	10150.93
495.012	10355.72
495.215	10245.13
495.419	10380.3
495.622	9835.54
495.825	9991.19
496.029	9774.1
496.232	10026
496.436	9585.69
496.639	9931.8
496.843	9602.07
497.046	9683.99
497.249	9837.59
497.453	9667.61
497.656	9757.72
497.859	9673.75
498.063	9761.81
498.266	9923.6
498.469	9581.59
498.673	9890.84
498.876	9747.48
499.079	9829.4
499.282	9757.72
499.485	10159.12
499.689	9864.21
499.892	10079.25
500.095	9966.61
500.298	9946.13
500.501	10114.06
500.705	10404.88
500.908	10398.73
501.111	10480.65
501.314	10537.99
501.517	10812.42
501.72	10783.75
501.923	10787.85
502.126	10853.38
502.329	11385.85
502.532	11138.05
502.735	11410.43
502.938	11592.7
503.141	11387.9
503.344	11531.26
503.547	11797.49
503.75	11801.59
503.953	12116.98
504.156	12366.83
504.359	12268.53
504.562	12452.84
504.765	12833.77
504.968	12985.32
505.17	13046.76
505.373	13269.98
505.576	13695.96
505.779	13747.16
505.982	13769.69
506.185	14111.7
506.387	14349.26
506.59	14832.58
506.793	14875.59
506.996	15107.01
507.198	15561.66
507.401	15604.67
507.604	15981.49
507.807	16391.09
508.009	16755.63
508.212	16917.42
508.415	17451.94
508.617	17556.38
508.82	17695.64
509.022	17830.81
509.225	18631.57
509.428	19002.25
509.63	19202.95
509.833	19338.12
510.035	20360.05
510.238	20597.62
510.44	20683.63
510.643	21314.41
510.845	21916.51
511.048	22383.45
511.25	22629.2
511.453	23171.91
511.655	24374.07
511.858	24279.86
512.06	24820.53
512.262	25180.97
512.465	25996.06
512.667	26379.03
512.87	27249.42
513.072	27335.43
513.274	28560.12
513.477	28977.9
513.679	29522.66
513.881	30186.21
514.084	31115.98
514.286	31335.12
514.488	31544.01
514.69	33151.66
514.893	33446.57
515.095	34138.79
515.297	35148.43
515.499	35656.33
515.701	36506.24
515.904	37431.92
516.106	37945.96
516.308	38478.43
516.51	39295.57
516.712	39842.38
516.914	40927.8
517.116	41826.86
517.318	42265.13
517.52	43004.44
517.722	43811.34
517.925	44442.12
518.127	45834.74
518.329	46383.59
518.531	46559.72
518.733	47876.56
518.935	48509.38
519.136	48871.87
519.338	49775.03
519.54	50434.47
519.742	51483.03
519.944	51786.13
520.146	53041.54
520.348	53260.67
520.55	54014.32
520.752	54352.24
520.954	55595.35
521.155	55341.41
521.357	56402.25
521.559	57012.55
521.761	57921.85
521.963	58290.48
522.164	58429.74
522.366	58925.35
522.568	59384.1
522.77	60248.34
522.971	60504.34
523.173	60543.25
523.375	61112.58
523.576	61079.81
523.778	61301
523.98	62476.53
524.181	62226.68
524.383	62351.6
524.584	62402.8
524.786	62836.97
524.988	62394.61
525.189	62845.16
525.391	63127.78
525.592	63135.98
525.794	63148.26
525.995	63221.99
526.197	62931.18
526.398	63019.24
526.6	63033.58
526.801	63254.76
527.003	62750.96
527.204	62759.15
527.406	63029.48
527.607	62091.51
527.808	62564.59
528.01	60739.85
528.211	61028.62
528.412	62095.61
528.614	61067.53
528.815	60645.65
529.016	60733.71
529.218	59437.34
529.419	59461.92
529.62	58773.8
529.822	58407.22
530.023	57803.06
530.224	57299.26
530.425	56820.04
530.626	56037.72
530.828	55267.68
531.029	55992.66
531.23	54694.25
531.431	53977.46
531.632	54075.76
531.833	53395.84
532.035	52355.47
532.236	51581.34
532.437	51650.97
532.638	50680.23
532.839	50590.12
533.04	49584.57
533.241	49025.47
533.442	48681.41
533.643	47583.7
533.844	47194.59
534.045	47077.85
534.246	45574.64
534.447	45380.09
534.648	44790.27
534.849	44481.03
535.05	43487.76
535.251	43237.91
535.451	42306.09
535.652	42064.42
535.853	41284.15
536.054	41261.62
536.255	40757.82
536.456	39377.49
536.657	39881.29
536.857	39172.69
537.058	38701.66
537.259	38220.39
537.46	37462.64
537.66	36541.05
537.861	36414.08
538.062	35910.28
538.263	35363.47
538.463	35015.32
538.664	34509.47
538.865	34138.79
539.065	34106.02
539.266	33131.19
539.466	33342.13
539.667	32258.75
539.868	32639.67
540.068	32223.93
540.269	31582.92
540.469	31425.23
540.67	30730.97
540.87	30720.73
541.071	29960.93
541.271	29715.17
541.472	29172.46
541.672	29080.3
541.873	28447.48
542.073	28226.3
542.274	28513.02
542.474	27886.34
542.675	27497.22
542.875	27755.27
543.075	27015.95
543.276	26417.94
543.476	26585.88
543.676	25723.68
543.877	25981.73
544.077	25561.89
544.277	25408.29
544.478	24490.8
544.678	24576.82
544.878	24275.77
545.078	24161.08
545.279	23933.76
545.479	23479.11
545.679	23583.55
545.879	23053.13
546.079	22793.04
546.28	22479.7
546.48	22055.77
546.68	22129.5
546.88	21875.55
547.08	21646.18
547.28	21232.49
547.48	20851.56
547.68	20851.56
547.88	20351.86
548.081	20290.42
548.281	19704.7
548.481	19708.8
548.681	19628.93
548.881	19297.16
549.081	18881.42
549.28	18744.2
549.48	18445.2
549.68	18252.69
549.88	18506.64
550.08	17652.64
550.28	17576.86
550.48	17300.39
550.68	17181.6
550.88	16849.83
551.08	16602.03
551.279	16628.65
551.479	15956.92
551.679	16047.03
551.879	15649.72
552.079	15420.35
552.278	15256.51
552.478	15473.6
552.678	15107.01
552.878	14625.74
553.077	14449.61
553.277	13861.85
553.477	14015.44
553.676	13724.63
553.876	13505.5
554.076	13491.16
554.275	13132.77
554.475	12927.97
554.674	12796.9
554.874	12489.71
555.074	12213.23
555.273	12211.18
555.473	12061.68
555.672	11654.14
555.872	11506.68
556.071	11402.24
556.271	11289.6
556.47	10970.12
556.67	10744.84
556.869	10759.17
557.068	10505.23
557.268	10271.76
557.467	10134.54
557.667	9946.13
557.866	9925.65
558.065	9847.83
558.265	9554.97
558.464	9315.36
558.663	9370.65
558.863	8975.39
559.062	9147.42
559.261	8547.37
559.461	8764.45
559.66	8385.58
559.859	8467.5
560.058	8385.58
560.258	8109.1
560.457	8072.24
560.656	8047.66
560.855	7758.9
561.054	7887.92
561.253	7461.94
561.453	7443.51
561.652	7439.42
561.851	7244.86
562.05	6931.52
562.249	6962.24
562.448	6915.14
562.647	6749.25
562.846	6491.21
563.045	6603.85
563.244	6450.25
563.443	6552.65
563.642	6319.18
563.841	6241.36
564.04	6116.43
564.239	6098
564.438	5844.05
564.637	5788.75
564.836	5684.31
565.035	5573.72
565.234	5663.83
565.432	5475.42
565.631	5364.82
565.83	5504.09
566.029	5325.91
566.228	5112.92
566.427	5217.37
566.625	4908.13
566.824	5049.44
567.023	4975.71
567.222	4801.63
567.42	4752.48
567.619	4779.11
567.818	4711.52
568.016	4695.14
568.215	4504.68
568.414	4596.84
568.612	4385.9
568.811	4166.76
569.01	4258.92
569.208	4090.99
569.407	4189.29
569.605	4002.93
569.804	4058.22
570.002	4052.08
570.201	3966.06
570.4	3878
570.598	3679.35
570.797	3728.5
570.995	3656.82
571.193	3617.91
571.392	3630.2
571.59	3318.9
571.789	3492.98
571.987	3333.24
572.186	3421.3
572.384	3345.53
572.582	3220.6
572.781	3366.01
572.979	3175.55
573.177	2993.28
573.376	2989.18
573.574	3048.57
573.772	3026.04
573.971	2817.15
574.169	2786.43
574.367	2884.73
574.565	2976.89
574.763	2772.1
574.962	2688.13
575.16	2718.85
575.358	2620.55
575.556	2600.07
575.754	2638.98
575.952	2477.19
576.151	2534.53
576.349	2503.81
576.547	2407.56
576.745	2294.92
576.943	2350.21
577.141	2333.83
577.339	2215.05
577.537	2317.45
577.735	2356.36
577.933	2262.15
578.131	2149.51
578.329	2157.71
578.527	2110.6
578.725	2143.37
578.923	1924.24
579.121	1924.24
579.319	1891.47
579.516	1909.9
579.714	2018.44
579.912	1895.57
580.11	1832.08
580.308	1776.78
580.506	1756.3
580.704	1715.34
580.901	1686.67
581.099	1748.11
581.297	1694.86
581.495	1658
581.692	1488.02
581.89	1713.3
582.088	1518.74
582.285	1660.05
582.483	1455.25
582.681	1516.69
582.878	1410.2
583.076	1623.19
583.274	1459.35
583.471	1500.31
583.669	1324.18
583.866	1293.46
584.064	1293.46
584.262	1326.23
584.459	1262.74
584.657	1309.85
584.854	1346.71
585.052	1252.5
585.249	1313.94
585.447	1266.84
585.644	1121.43
585.841	1275.03
586.039	1244.31
586.236	1244.31
586.434	1150.11
586.631	1133.72
586.828	1125.53
587.026	1221.78
587.223	994.46
587.42	1090.71
587.618	1135.77
587.815	1211.54
588.012	1074.33
588.21	957.6
588.407	1076.38
588.604	969.88
588.801	984.22
588.999	967.84
589.196	955.55
589.393	830.62
589.59	883.87
589.787	935.07
589.984	1016.99
590.182	928.92
590.379	793.76
590.576	920.73
590.773	900.25
590.97	1000.6
591.167	949.4
591.364	951.45
591.561	746.66
591.758	994.46
591.955	900.25
592.152	935.07
592.349	890.01
592.546	859.29
592.743	937.12
592.94	920.73
593.137	924.83
593.334	918.68
593.531	916.64
593.727	1019.04
593.924	894.11
594.121	945.31
594.318	947.36
594.515	990.36
594.712	1064.09
594.908	1025.18
595.105	824.48
595.302	883.87
595.499	1002.65
595.696	1072.28
595.892	1068.19
596.089	1084.57
596.286	1041.56
596.482	1207.45
596.679	1170.58
596.876	984.22
597.072	1166.49
597.269	1197.21
597.466	1246.36
597.662	1272.98
597.859	1352.85
598.055	1299.61
598.252	1387.67
598.448	1426.58
598.645	1451.16
598.841	1608.85
599.038	1576.08
599.234	1819.79
599.431	1731.73
599.627	1832.08
599.824	1967.24
600.02	1909.9
600.217	1969.29
600.413	2151.56
600.609	2169.99
600.806	2339.97
601.002	2213
601.198	2239.62
601.395	2534.53
601.591	2532.48
601.787	2694.27
601.984	2892.93
602.18	2919.55
602.376	2983.04
602.572	3120.25
602.769	3284.09
602.965	3345.53
603.161	3390.58
603.357	3615.86
603.553	3751.03
603.75	3886.19
603.946	3964.01
604.142	4021.36
604.338	4316.26
604.534	4254.83
604.73	4514.92
604.926	4555.88
605.122	4770.91
605.318	4869.22
605.514	4971.61
605.71	5170.27
605.906	5311.58
606.102	5442.65
606.298	5667.92
606.494	5870.67
606.69	6220.88
606.886	6241.36
607.082	6327.37
607.278	6579.27
607.474	6829.12
607.67	6782.02
607.866	7081.02
608.062	7457.85
608.257	7466.04
608.453	7611.45
608.649	7982.13
608.845	8117.29
609.041	8270.89
609.236	8625.19
609.432	8588.33
609.628	9075.74
609.824	9468.95
610.019	9446.43
610.215	9847.83
610.411	10107.92
610.606	10400.78
610.802	10837
610.998	10884.1
611.193	11148.29
611.389	11439.1
611.584	11981.81
611.78	12170.22
611.976	12342.25
612.171	12979.17
612.367	13013.99
612.562	13470.69
612.758	13640.67
612.953	13960.15
613.149	14412.75
613.344	14799.82
613.539	15303.62
613.735	15780.79
613.93	16368.56
614.126	16409.52
614.321	17079.21
614.517	17374.11
614.712	17662.88
614.907	18207.64
615.103	18846.6
615.298	19129.22
615.493	19790.72
615.688	20349.81
615.884	20978.54
616.079	20978.54
616.274	21896.03
616.47	22340.44
616.665	23145.29
616.86	23681.86
617.055	23714.62
617.25	24763.18
617.445	25477.93
617.641	25631.52
617.836	26624.79
618.031	26798.87
618.226	28164.86
618.421	28211.96
618.616	29192.94
618.811	29299.44
619.006	30509.79
619.201	30558.94
619.396	31918.79
619.591	32019.14
619.786	32989.88
619.981	33641.13
620.176	34757.27
620.371	35052.18
620.566	35947.14
620.761	36491.9
620.956	37583.47
621.151	37526.13
621.346	39023.19
621.541	38861.4
621.735	40596.03
621.93	40495.68
622.125	41464.37
622.32	41929.26
622.515	43340.31
622.709	43610.64
622.904	44677.63
623.099	45402.61
623.294	45814.26
623.488	46565.86
623.683	47653.33
623.878	47825.36
624.072	48992.7
624.267	49613.24
624.462	50807.2
624.656	50790.82
624.851	51843.48
625.046	52662.66
625.24	53498.23
625.435	53506.43
625.629	54432.11
625.824	55073.12
626.018	56004.95
626.213	55699.8
626.407	57377.09
626.602	57297.22
626.796	58218.8
626.991	58478.89
627.185	58976.55
627.38	59437.34
627.574	59650.33
627.768	59306.27
627.963	59986.2
628.157	60180.76
628.352	60774.67
628.546	59842.84
628.74	60840.2
628.935	60086.55
629.129	60567.82
629.323	60047.64
629.517	59740.44
629.712	59668.76
629.906	59502.88
630.1	58773.8
630.294	58732.84
630.489	57434.43
630.683	57270.59
630.877	55968.08
631.071	55054.69
631.265	54505.83
631.459	53281.15
631.653	52171.15
631.848	51308.96
632.042	50469.29
632.236	49148.35
632.43	47604.18
632.624	46465.51
632.818	45048.32
633.012	43725.33
633.206	42435.11
633.4	41781.81
633.594	39506.51
633.788	38478.43
633.982	37458.54
634.176	36057.73
634.369	34824.86
634.563	33454.76
634.757	32041.67
634.951	31191.76
635.145	29686.5
635.339	29113.07
635.533	27659.01
635.726	26723.09
635.92	25160.49
636.114	24382.26
636.308	23296.84
636.501	22702.93
636.695	21838.69
636.889	20583.28
637.083	19716.99
637.276	19202.95
637.47	18138.01
637.664	17523.62
637.857	16907.18
638.051	16231.35
638.244	15494.08
638.438	14894.02
638.632	14390.22
638.825	13624.28
639.019	13339.62
639.212	12518.38
639.406	12381.17
639.599	11650.04
639.793	11146.24
639.986	10675.21
640.18	10712.07
640.373	9894.93
640.567	9554.97
640.76	9311.26
640.954	8922.15
641.147	8500.26
641.34	8076.34
641.534	7990.32
641.727	7556.15
641.92	7138.37
642.114	6911.04
642.307	6851.65
642.5	6458.44
642.694	6237.26
642.887	6057.04
643.08	6016.08
643.273	5489.75
643.467	5213.28
643.66	5041.25
643.853	4852.83
644.046	4799.59
644.239	4504.68
644.432	4500.58
644.626	4183.15
644.819	4244.59
645.012	3935.34
645.205	3824.75
645.398	3794.03
645.591	3497.08
645.784	3302.52
645.977	3226.75
646.17	3124.35
646.363	3028.09
646.556	2870.4
646.749	2878.59
646.942	2604.16
647.135	2569.35
647.328	2503.81
647.521	2415.75
647.714	2366.6
647.907	2313.35
648.099	2051.21
648.292	2090.12
648.485	1938.57
648.678	1797.26
648.871	1772.69
649.064	1707.15
649.256	1690.77
649.449	1576.08
649.642	1475.73
649.835	1510.55
650.027	1383.57
650.22	1461.4
650.413	1404.05
650.605	1359
650.798	1213.59
650.991	1160.34
651.183	1215.64
651.376	1107.1
651.568	1117.34
651.761	1072.28
651.954	1092.76
652.146	1002.65
652.339	1080.47
652.531	996.51
652.724	916.64
652.916	793.76
653.109	734.37
653.301	908.44
653.494	900.25
653.686	869.53
653.879	836.77
654.071	808.09
654.263	638.11
654.456	662.69
654.648	787.61
654.84	746.66
655.033	672.93
655.225	636.06
655.417	566.43
655.61	711.84
655.802	638.11
655.994	609.44
656.186	457.89
656.379	576.67
656.571	519.33
656.763	474.28
656.955	490.66
657.148	539.81
657.34	543.91
657.532	414.88
657.724	476.32
657.916	474.28
658.108	580.77
658.3	453.8
658.492	427.17
658.684	332.97
658.876	429.22
659.068	296.1
659.26	289.96
659.452	404.64
659.644	382.12
659.836	470.18
660.028	392.36
660.22	365.73
660.412	351.4
660.604	314.53
660.796	390.31
660.988	378.02
661.18	265.38
661.372	324.77
661.563	355.49
661.755	279.72
661.947	289.96
662.139	304.29
662.331	240.81
662.522	339.11
662.714	330.92
662.906	203.94
663.097	289.96
663.289	222.38
663.481	197.8
663.673	230.57
663.864	240.81
664.056	285.86
664.247	257.19
664.439	240.81
664.631	330.92
664.822	261.29
665.014	230.57
665.205	285.86
665.397	234.66
665.588	267.43
665.78	197.8
665.971	246.95
666.163	140.46
666.354	240.81
666.546	222.38
666.737	175.27
666.929	167.08
667.12	179.37
667.311	224.42
667.503	165.03
667.694	175.27
667.885	148.65
668.077	177.32
668.268	-11.09
668.459	167.08
668.651	154.79
668.842	294.05
669.033	134.31
669.224	175.27
669.416	343.21
669.607	191.66
669.798	193.7
669.989	302.25
670.18	216.23
670.371	205.99
670.563	162.98
670.754	304.29
670.945	199.85
671.136	220.33
671.327	126.12
671.518	275.62
671.709	402.6
671.9	273.57
672.091	277.67
672.282	222.38
672.473	203.94
672.664	165.03
672.855	173.22
673.046	236.71
673.237	369.83
673.428	220.33
673.619	378.02
673.809	224.42
674	308.39
674.191	261.29
674.382	251.05
674.573	154.79
674.764	199.85
674.954	265.38
675.145	156.84
675.336	122.02
675.527	238.76
675.717	150.7
675.908	148.65
676.099	261.29
676.289	242.85
676.48	171.18
676.671	294.05
676.861	173.22
677.052	273.57
677.243	205.99
677.433	216.23
677.624	314.53
677.814	332.97
678.005	232.62
678.195	306.34
678.386	238.76
678.576	234.66
678.767	240.81
678.957	304.29
679.148	289.96
679.338	337.06
679.529	339.11
679.719	269.48
679.909	373.92
680.1	345.25
680.29	263.33
680.481	269.48
680.671	267.43
680.861	244.9
681.052	347.3
681.242	224.42
681.432	257.19
681.622	298.15
681.813	208.04
682.003	281.77
682.193	236.71
682.383	330.92
682.573	318.63
682.764	318.63
682.954	349.35
683.144	380.07
683.334	302.25
683.524	429.22
683.714	330.92
683.904	224.42
684.094	302.25
684.284	371.88
684.474	386.21
684.664	343.21
684.854	339.11
685.044	390.31
685.234	257.19
685.424	306.34
685.614	277.67
685.804	332.97
685.994	410.79
686.184	292.01
686.374	355.49
686.564	287.91
686.753	322.73
686.943	300.2
687.133	289.96
687.323	347.3
687.513	371.88
687.702	302.25
687.892	267.43
688.082	425.12
688.272	375.97
688.461	435.36
688.651	464.04
688.841	437.41
689.03	257.19
689.22	275.62
689.41	330.92
689.599	292.01
689.789	351.4
689.979	343.21
690.168	384.16
690.358	394.4
690.547	279.72
690.737	328.87
690.926	302.25
691.116	369.83
691.305	328.87
691.495	345.25
691.684	308.39
691.874	306.34
692.063	343.21
692.252	322.73
692.442	322.73
692.631	292.01
692.82	322.73
693.01	359.59
693.199	310.44
693.388	285.86
693.578	330.92
693.767	343.21
693.956	404.64
694.146	281.77
694.335	341.16
694.524	328.87
694.713	406.69
694.902	326.82
695.092	310.44
695.281	343.21
695.47	246.95
695.659	289.96
695.848	298.15
696.037	277.67
696.226	330.92
696.415	285.86
696.604	357.54
696.793	375.97
696.982	263.33
697.171	353.45
697.36	279.72
697.549	363.69
697.738	222.38
697.927	310.44
698.116	296.1
698.305	328.87
698.494	265.38
698.683	318.63
698.872	451.75
699.061	232.62
699.25	294.05
699.438	318.63
699.627	234.66
699.816	425.12
700.005	208.04
700.193	191.66
700.382	365.73
700.571	375.97
700.76	466.08
700.948	400.55
701.137	339.11
701.326	316.58
701.514	191.66
701.703	216.23
701.892	314.53
702.08	500.9
702.269	318.63
702.457	249
702.646	328.87
702.834	294.05
703.023	386.21
703.212	341.16
703.4	330.92
703.589	226.47
703.777	281.77
703.965	322.73
704.154	257.19
704.342	216.23
704.531	220.33
704.719	322.73
704.907	326.82
705.096	312.49
705.284	234.66
705.472	306.34
705.661	271.53
705.849	300.2
706.037	271.53
706.226	240.81
706.414	281.77
706.602	261.29
706.79	240.81
706.979	199.85
707.167	322.73
707.355	220.33
707.543	345.25
707.731	281.77
707.919	357.54
708.107	302.25
708.296	265.38
708.484	156.84
708.672	279.72
708.86	369.83
709.048	367.78
709.236	322.73
709.424	335.01
709.612	353.45
709.8	230.57
709.988	355.49
710.176	359.59
710.364	369.83
710.551	273.57
710.739	298.15
710.927	281.77
711.115	312.49
711.303	310.44
711.491	449.7
711.679	265.38
711.866	263.33
712.054	314.53
712.242	224.42
712.43	365.73
712.617	310.44
712.805	361.64
712.993	267.43
713.181	257.19
713.368	404.64
713.556	265.38
713.744	298.15
713.931	453.8
714.119	378.02
714.306	273.57
714.494	296.1
714.682	353.45
714.869	199.85
715.057	298.15
715.244	261.29
715.432	472.23
715.619	353.45
715.807	267.43
715.994	267.43
716.182	433.32
716.369	355.49
716.556	363.69
716.744	220.33
716.931	267.43
717.119	322.73
717.306	308.39
717.493	429.22
717.681	326.82
717.868	249
718.055	369.83
718.242	343.21
718.43	281.77
718.617	335.01
718.804	312.49
718.991	425.12
719.179	402.6
719.366	347.3
719.553	361.64
719.74	312.49
719.927	287.91
720.114	298.15
720.301	193.7
720.488	271.53
720.676	187.56
720.863	433.32
721.05	396.45
721.237	375.97
721.424	396.45
721.611	371.88
721.798	318.63
721.985	255.14
722.172	353.45
722.358	392.36
722.545	363.69
722.732	347.3
722.919	398.5
723.106	347.3
723.293	337.06
723.48	341.16
723.667	308.39
723.853	459.94
724.04	394.4
724.227	404.64
724.414	326.82
724.6	355.49
724.787	412.84
724.974	488.61
725.161	396.45
725.347	306.34
725.534	347.3
725.72	421.03
725.907	421.03
726.094	445.6
726.28	230.57
726.467	359.59
726.653	304.29
726.84	490.66
727.027	490.66
727.213	300.2
727.4	445.6
727.586	326.82
727.773	404.64
727.959	451.75
728.145	451.75
728.332	461.99
728.518	378.02
728.705	345.25
728.891	349.35
729.077	386.21
729.264	353.45
729.45	318.63
729.636	435.36
729.823	468.13
730.009	382.12
730.195	412.84
730.382	519.33
730.568	359.59
730.754	394.4
730.94	406.69
731.126	478.37
731.313	425.12
731.499	410.79
731.685	502.95
731.871	408.74
732.057	341.16
732.243	404.64
732.429	472.23
732.615	478.37
732.801	486.56
732.987	461.99
733.173	400.55
733.359	369.83
733.545	468.13
733.731	361.64
733.917	507.04
734.103	496.8
734.289	410.79
734.475	363.69
734.661	494.76
734.847	459.94
735.033	347.3
735.219	441.51
735.404	375.97
735.59	466.08
735.776	371.88
735.962	488.61
736.148	468.13
736.333	461.99
736.519	378.02
736.705	492.71
736.89	461.99
737.076	484.52
737.262	302.25
737.447	244.9
737.633	400.55
737.819	494.76
738.004	375.97
738.19	335.01
738.375	349.35
738.561	468.13
738.747	427.17
738.932	375.97
739.118	521.38
739.303	431.27
739.489	394.4
739.674	394.4
739.859	343.21
740.045	490.66
740.23	351.4
740.416	281.77
740.601	443.56
740.786	474.28
740.972	396.45
741.157	421.03
741.342	335.01
741.528	400.55
741.713	517.28
741.898	412.84
742.084	466.08
742.269	388.26
742.454	396.45
742.639	425.12
742.824	423.08
743.01	472.23
743.195	511.14
743.38	369.83
743.565	398.5
743.75	433.32
743.935	517.28
744.12	488.61
744.305	330.92
744.49	347.3
744.675	363.69
744.86	388.26
745.045	459.94
745.23	461.99
745.415	396.45
745.6	392.36
745.785	298.15
745.97	414.88
746.155	404.64
746.34	429.22
746.525	384.16
746.71	517.28
746.895	322.73
747.079	244.9
747.264	345.25
747.449	443.56
747.634	371.88
747.819	361.64
748.003	300.2
748.188	330.92
748.373	435.36
748.557	404.64
748.742	330.92
748.927	363.69
749.111	300.2
749.296	412.84
749.481	410.79
749.665	375.97
749.85	345.25
750.034	359.59
750.219	437.41
750.404	349.35
750.588	357.54
750.773	240.81
750.957	369.83
751.141	246.95
751.326	294.05
751.51	216.23
751.695	328.87
751.879	330.92
752.064	400.55
752.248	273.57
752.432	394.4
752.617	326.82
752.801	261.29
752.985	310.44
753.17	382.12
753.354	351.4
753.538	275.62
753.722	277.67
753.907	279.72
754.091	167.08
754.275	251.05
754.459	179.37
754.643	261.29
754.828	322.73
755.012	255.14
755.196	199.85
755.38	355.49
755.564	251.05
755.748	300.2
755.932	300.2
756.116	304.29
756.3	326.82
756.484	267.43
756.668	314.53
756.852	152.74
757.036	212.14
757.22	244.9
757.404	224.42
757.588	251.05
757.772	273.57
757.956	253.09
758.14	279.72
758.323	218.28
758.507	277.67
758.691	162.98
758.875	287.91
759.059	328.87
759.242	150.7
759.426	232.62
759.61	265.38
759.794	251.05
759.977	265.38
760.161	410.79
760.345	246.95
760.528	343.21
760.712	255.14
760.895	287.91
761.079	175.27
761.263	183.46
761.446	113.83
761.63	124.07
761.813	240.81
761.997	167.08
762.18	97.45
762.364	257.19
762.547	99.5
762.731	210.09
762.914	283.81
763.098	205.99
763.281	208.04
763.464	195.75
763.648	191.66
763.831	216.23
764.015	117.93
764.198	185.51
764.381	154.79
764.564	259.24
764.748	216.23
764.931	185.51
765.114	173.22
765.297	240.81
765.481	171.18
765.664	187.56
765.847	134.31
766.03	208.04
766.213	158.89
766.397	183.46
766.58	117.93
766.763	222.38
766.946	27.82
767.129	150.7
767.312	124.07
767.495	111.78
767.678	68.78
767.861	160.94
768.044	201.9
768.227	144.55
768.41	140.46
768.593	218.28
768.776	119.98
768.959	134.31
769.142	189.61
769.324	199.85
769.507	191.66
769.69	124.07
769.873	148.65
770.056	306.34
770.239	169.13
770.421	216.23
770.604	238.76
770.787	154.79
770.97	150.7
771.152	115.88
771.335	160.94
771.518	117.93
771.7	240.81
771.883	300.2
772.066	89.26
772.248	162.98
772.431	142.5
772.613	171.18
772.796	197.8
772.978	183.46
773.161	287.91
773.343	244.9
773.526	64.68
773.708	40.11
773.891	17.58
774.073	117.93
774.256	136.36
774.438	220.33
774.621	50.35
774.803	191.66
774.985	85.16
775.168	140.46
775.35	74.92
775.532	126.12
775.715	85.16
775.897	134.31
776.079	165.03
776.261	101.55
776.444	105.64
776.626	130.22
776.808	79.02
776.99	85.16
777.173	50.35
777.355	171.18
777.537	181.42
777.719	60.59
777.901	25.77
778.083	40.11
778.265	48.3
778.447	160.94
778.629	46.25
778.811	103.59
778.993	128.17
779.175	203.94
779.357	91.31
779.539	72.87
779.721	122.02
779.903	124.07
780.085	60.59
780.267	62.63
780.449	158.89
780.631	165.03
780.812	130.22
780.994	171.18
781.176	-29.52
781.358	115.88
781.54	93.35
781.721	109.74
781.903	148.65
782.085	36.01
782.267	107.69
782.448	31.91
782.63	-9.05
782.812	15.53
782.993	85.16
783.175	160.94
783.357	27.82
783.538	74.92
783.72	11.43
783.901	83.11
784.083	122.02
784.264	162.98
784.446	-0.85
784.627	3.24
784.809	99.5
784.99	119.98
785.172	91.31
785.353	72.87
785.535	74.92
785.716	117.93
785.897	66.73
786.079	-33.62
786.26	130.22
786.441	62.63
786.623	-23.38
786.804	40.11
786.985	58.54
787.167	122.02
787.348	36.01
787.529	38.06
787.71	249
787.891	103.59
788.073	-23.38
788.254	25.77
788.435	187.56
788.616	52.39
788.797	17.58
788.978	89.26
789.159	11.43
789.34	105.64
789.522	7.34
789.703	36.01
789.884	101.55
790.065	68.78
790.246	171.18
790.427	33.96
790.607	107.69
790.788	126.12
790.969	40.11
791.15	113.83
791.331	38.06
791.512	85.16
791.693	-62.29
791.874	42.15
792.054	142.5
792.235	115.88
792.416	-19.29
792.597	-29.52
792.778	66.73
792.958	87.21
793.139	11.43
793.32	44.2
793.5	3.24
793.681	122.02
793.862	117.93
794.042	13.48
794.223	-52.05
794.404	17.58
794.584	-39.76
794.765	21.67
794.945	68.78
795.126	27.82
795.306	85.16
795.487	87.21
795.667	56.49
795.848	115.88
796.028	56.49
796.209	62.63
796.389	105.64
796.57	56.49
796.75	-29.52
796.93	31.91
797.111	-31.57
797.291	-13.14
797.471	58.54
797.652	3.24
797.832	-17.24
798.012	97.45
798.192	-47.96
798.373	-105.3
798.553	1.19
798.733	11.43
798.913	7.34
799.093	7.34
799.274	15.53
799.454	89.26
799.634	72.87
799.814	36.01
799.994	3.24
800.174	150.7
800.354	33.96
800.534	-66.39
800.714	165.03
800.894	-113.49
801.074	-13.14
801.254	-11.09
801.434	187.56
801.614	-62.29
801.794	-27.48
801.974	1571.99
802.154	-37.72
802.334	134.31
802.514	19.63
802.693	105.64
802.873	15.53
803.053	68.78
803.233	50.35
803.413	60.59
803.592	-4.95
803.772	-9.05
803.952	52.39
804.131	-60.24
804.311	83.11
804.491	66.73
804.67	27.82
804.85	-56.15
805.03	124.07
805.209	66.73
805.389	-4.95
805.568	1.19
805.748	15.53
805.928	38.06
806.107	3.24
806.287	52.39
806.466	113.83
806.646	5.29
806.825	9.39
807.004	-17.24
807.184	68.78
807.363	89.26
807.543	48.3
807.722	-25.43
807.901	64.68
808.081	109.74
808.26	-58.2
808.439	-33.62
808.619	48.3
808.798	52.39
808.977	99.5
809.156	52.39
809.336	85.16
809.515	85.16
809.694	-7
809.873	-17.24
810.052	105.64
810.231	79.02
810.411	13.48
810.59	76.97
810.769	95.4
810.948	13.48
811.127	-41.81
811.306	-0.85
811.485	-9.05
811.664	66.73
811.843	33.96
812.022	-4.95
812.201	-21.33
812.38	7.34
812.559	-23.38
812.737	60.59
812.916	-56.15
813.095	-60.24
813.274	40.11
813.453	-50
813.632	9.39
813.811	27.82
813.989	-105.3
814.168	21.67
814.347	-2.9
814.526	38.06
814.704	156.84
814.883	7.34
815.062	7.34
815.24	144.55
815.419	-70.48
815.598	7.34
815.776	-66.39
815.955	11.43
816.133	-97.11
816.312	93.35
816.49	-19.29
816.669	44.2
816.847	31.91
817.026	64.68
817.204	50.35
817.383	36.01
817.561	-50
817.74	81.07
817.918	29.87
818.097	3.24
818.275	11.43
818.453	21.67
818.632	48.3
818.81	-2.9
818.988	27.82
819.167	-54.1
819.345	44.2
819.523	-90.96
819.701	-9.05
819.879	19.63
820.058	52.39
820.236	29.87
820.414	11.43
820.592	29.87
820.77	-15.19
820.948	-99.16
821.127	-13.14
821.305	-7
821.483	-109.4
821.661	3.24
821.839	44.2
822.017	15.53
822.195	-93.01
822.373	128.17
822.551	-80.72
822.729	19.63
822.907	-35.67
823.085	89.26
823.262	44.2
823.44	-54.1
823.618	-35.67
823.796	44.2
823.974	-70.48
824.152	15.53
824.329	-19.29
824.507	27.82
824.685	95.4
824.863	-15.19
825.04	-35.67
825.218	52.39
825.396	89.26
825.574	29.87
825.751	9.39
825.929	13.48
826.107	-70.48
826.284	48.3
826.462	33.96
826.639	-29.52
826.817	-82.77
826.994	27.82
827.172	-129.88
827.349	99.5
827.527	79.02
827.704	-31.57
827.882	72.87
828.059	-23.38
828.237	-4.95
828.414	76.97
828.591	-193.36
828.769	-7
828.946	-56.15
829.124	113.83
829.301	54.44
829.478	42.15
829.655	-27.48
829.833	5.29
830.01	-82.77
830.187	58.54
830.364	48.3
830.542	-2.9
830.719	109.74
830.896	19.63
831.073	31.91
831.25	36.01
831.427	68.78
831.604	19.63
831.782	-15.19
831.959	31.91
832.136	-45.91
832.313	19.63
832.49	-2.9
832.667	5.29
832.844	-62.29
833.021	101.55
833.198	40.11
833.374	-45.91
833.551	11.43
833.728	-11.09
833.905	21.67
834.082	-103.25
834.259	13.48
834.436	42.15
834.612	11.43
834.789	79.02
834.966	36.01
835.143	-47.96
835.319	-88.92
835.496	109.74
835.673	36.01
835.85	70.83
836.026	23.72
836.203	117.93
836.38	-29.52
836.556	-17.24
836.733	-25.43
836.909	107.69
837.086	64.68
837.262	-54.1
837.439	-11.09
837.616	-17.24
837.792	44.2
837.968	15.53
838.145	-62.29
838.321	-13.14
838.498	36.01
838.674	25.77
838.851	54.44
839.027	-50
839.203	3.24
839.38	76.97
839.556	9.39
839.732	85.16
839.909	11.43
840.085	42.15
840.261	-103.25
840.437	23.72
840.614	-31.57
840.79	-0.85
840.966	68.78
841.142	13.48
841.318	7.34
841.494	58.54
841.671	50.35
841.847	19.63
842.023	-99.16
842.199	-4.95
842.375	70.83
842.551	-56.15
842.727	-74.58
842.903	124.07
843.079	-136.02
843.255	111.78
843.431	44.2
843.607	101.55
843.783	-138.07
843.959	50.35
844.134	-78.68
844.31	109.74
844.486	-50
844.662	-68.44
844.838	19.63
845.013	-7
845.189	64.68
845.365	40.11
845.541	111.78
845.716	33.96
845.892	115.88
846.068	-2.9
846.244	-50
846.419	19.63
846.595	-29.52
846.77	-11.09
846.946	117.93
847.122	-41.81
847.297	-78.68
847.473	99.5
847.648	-121.68
847.824	52.39
847.999	-68.44
848.175	-4.95
848.35	29.87
848.526	52.39
848.701	68.78
848.876	115.88
849.052	50.35
849.227	-60.24
849.403	46.25
849.578	-54.1
849.753	36.01
849.929	25.77
850.104	-31.57
850.279	21.67
850.454	29.87
850.63	66.73
850.805	25.77
850.98	-47.96
851.155	1.19
851.33	25.77
851.505	-115.54
851.681	142.5
851.856	-50
852.031	-11.09
852.206	-9.05
852.381	-17.24
852.556	19.63
852.731	222.38
852.906	58.54
853.081	11.43
853.256	58.54
853.431	-33.62
853.606	5.29
853.781	-29.52
853.956	-95.06
854.131	52.39
854.305	-109.4
854.48	-43.86
854.655	-58.2
854.83	-41.81
855.005	-58.2
855.18	50.35
855.354	-80.72
855.529	17.58
855.704	56.49
855.879	-50
856.053	-54.1
856.228	15.53
856.403	-68.44
856.577	-4.95
856.752	-80.72
856.926	15.53
857.101	17.58
857.276	-86.87
857.45	36.01
857.625	79.02
857.799	-35.67
857.974	-50
858.148	-74.58
858.323	15.53
858.497	-41.81
858.672	-37.72
858.846	13.48
859.02	17.58
859.195	-17.24
859.369	-4.95
859.543	-17.24
859.718	15.53
859.892	-13.14
860.066	36.01
860.241	-52.05
860.415	-37.72
860.589	-17.24
860.763	11.43
860.938	-4.95
861.112	15.53
861.286	-15.19
861.46	-50
861.634	3.24
861.808	101.55
861.982	-111.44
862.157	-23.38
862.331	-35.67
862.505	1.19
862.679	-54.1
862.853	-13.14
863.027	-11.09
863.201	183.46
863.375	-66.39
863.549	36.01
863.722	27.82
863.896	95.4
864.07	-33.62
864.244	23.72
864.418	17.58
864.592	91.31
864.766	-7
864.939	19.63
865.113	-39.76
865.287	27.82
865.461	-99.16
865.634	19.63
865.808	66.73
865.982	-78.68
866.156	-103.25
866.329	36.01
866.503	48.3
866.676	-27.48
866.85	13.48
867.024	-50
867.197	27.82
867.371	138.41
867.544	19.63
867.718	-144.21
867.891	72.87
868.065	-27.48
868.238	31.91
868.412	46.25
868.585	101.55
868.759	15.53
868.932	-19.29
869.105	-99.16
869.279	-9.05
869.452	-86.87
869.625	-11.09
869.799	-9.05
869.972	-119.64
870.145	31.91
870.319	29.87
870.492	-13.14
870.665	9.39
870.838	-62.29
871.011	-107.35
871.185	7.34
871.358	-15.19
871.531	27.82
871.704	15.53
871.877	11.43
872.05	27.82
872.223	-31.57
872.396	-7
872.569	50.35
872.742	-4.95
872.915	-23.38
873.088	-43.86
873.261	-37.72
873.434	79.02
873.607	-25.43
873.78	72.87
873.953	-74.58
874.126	-7
874.299	48.3
874.471	-54.1
874.644	-19.29
874.817	-11.09
874.99	109.74
875.163	46.25
875.335	64.68
875.508	64.68
875.681	113.83
875.853	-11.09
876.026	-4.95
876.199	11.43
876.371	-7
876.544	-66.39
876.717	60.59
876.889	-15.19
877.062	19.63
877.234	-140.12
877.407	-15.19
877.579	11.43
877.752	3.24
877.924	113.83
878.097	-13.14
878.269	-13.14
878.442	23.72
878.614	9.39
878.786	9.39
878.959	58.54
879.131	19.63
879.303	-103.25
879.476	38.06
879.648	-33.62
879.82	-58.2
879.993	-45.91
880.165	19.63
880.337	-70.48
880.509	-25.43
880.681	-119.64
880.854	-37.72
881.026	58.54
881.198	158.89
881.37	21.67
881.542	11.43
881.714	1.19
881.886	-0.85
882.058	-29.52
882.23	-58.2
882.402	-56.15
882.574	-11.09
882.746	36.01
882.918	44.2
883.09	111.78
883.262	1.19
883.434	-4.95
883.606	11.43
883.778	-15.19
883.95	134.31
884.122	-97.11
884.293	68.78
884.465	95.4
884.637	15.53
884.809	-52.05
884.98	-27.48
885.152	85.16
885.324	-33.62
885.496	17.58
885.667	-123.73
885.839	-13.14
886.011	87.21
886.182	91.31
886.354	13.48
886.525	42.15
886.697	-13.14
886.869	-23.38
887.04	-7
887.212	74.92
887.383	64.68
887.555	-41.81
887.726	-70.48
887.897	-31.57
888.069	5.29
888.24	62.63
888.412	-29.52
888.583	-27.48
888.754	-54.1
888.926	-97.11
889.097	-11.09
889.268	-62.29
889.44	13.48
889.611	-111.44
889.782	-25.43
889.953	-62.29
890.125	89.26
890.296	-4.95
890.467	-23.38
890.638	-82.77
890.809	144.55
890.98	42.15
891.151	27.82
891.323	42.15
891.494	44.2
891.665	-17.24
891.836	-17.24
892.007	-52.05
892.178	44.2
892.349	-72.53
892.52	42.15
892.691	11.43
892.862	-72.53
893.032	-131.92
893.203	-78.68
893.374	-47.96
893.545	-2.9
893.716	-66.39
893.887	83.11
894.057	-29.52
894.228	-66.39
894.399	-37.72
894.57	105.64
894.74	9.39
894.911	15.53
895.082	-45.91
895.253	-37.72
895.423	25.77
895.594	-66.39
895.764	11.43
895.935	-74.58
896.106	134.31
896.276	-103.25
896.447	11.43
896.617	-70.48
896.788	-74.58
896.958	-82.77
897.129	-43.86
897.299	-56.15
897.47	50.35
897.64	31.91
897.81	-11.09
897.981	3.24
898.151	-97.11
898.322	7.34
898.492	48.3
898.662	-86.87
898.832	-80.72
899.003	-41.81
899.173	9.39
899.343	-86.87
899.513	-70.48
