Data from USB4F104151__108__10-36-14-322.txt Node

Date: Wed Feb 26 10:36:14 EST 2025
User: louis
Spectrometer: USB4F10415
Trigger mode: 4
Integration Time (sec): 1.000000E-1
Scans to average: 1
Electric dark correction enabled: true
Nonlinearity correction enabled: false
Boxcar width: 0
XAxis mode: Wavelengths
Number of Pixels in Spectrum: 3648
>>>>>Begin Spectral Data<<<<<
178.204	-416.93
178.424	-416.93
178.644	-416.93
178.864	-388.26
179.084	-378.02
179.304	-27.82
179.524	-48.3
179.744	-11.43
179.964	45.91
180.184	37.72
180.404	50
180.624	-46.25
180.844	-13.48
181.064	-72.87
181.283	33.62
181.503	-33.96
181.723	86.87
181.943	-150.7
182.163	215.89
182.383	-40.11
182.602	70.48
182.822	199.51
183.042	54.1
183.262	-19.63
183.482	47.96
183.701	13.14
183.921	74.58
184.141	-13.48
184.361	33.62
184.58	39.76
184.8	60.24
185.02	17.24
185.239	82.77
185.459	162.64
185.679	246.61
185.898	-50.35
186.118	33.62
186.338	95.06
186.557	56.15
186.777	2.9
186.997	-3.24
187.216	68.44
187.436	189.27
187.655	131.92
187.875	64.34
188.095	-7.34
188.314	64.34
188.534	115.54
188.753	35.67
188.973	125.78
189.192	228.18
189.412	29.52
189.631	72.53
189.851	45.91
190.07	185.17
190.29	-64.68
190.509	-9.39
190.729	41.81
190.948	66.39
191.168	254.8
191.387	99.16
191.607	70.48
191.826	74.58
192.045	107.35
192.265	66.39
192.484	113.49
192.704	47.96
192.923	-11.43
193.142	162.64
193.362	107.35
193.581	156.5
193.8	70.48
194.02	97.11
194.239	45.91
194.458	50
194.678	9.05
194.897	45.91
195.116	103.25
195.335	66.39
195.555	47.96
195.774	-76.97
195.993	156.5
196.212	39.76
196.432	29.52
196.651	2.9
196.87	58.2
197.089	195.41
197.308	117.59
197.528	121.68
197.747	-21.67
197.966	82.77
198.185	140.12
198.404	-38.06
198.623	148.31
198.842	117.59
199.062	140.12
199.281	144.21
199.5	74.58
199.719	123.73
199.938	133.97
200.157	125.78
200.376	88.92
200.595	105.3
200.814	58.2
201.033	23.38
201.252	123.73
201.471	72.53
201.69	60.24
201.909	2.9
202.128	101.2
202.347	125.78
202.566	62.29
202.785	-76.97
203.004	58.2
203.223	252.75
203.442	47.96
203.661	4.95
203.879	76.63
204.098	224.08
204.317	4.95
204.536	152.4
204.755	95.06
204.974	17.24
205.193	72.53
205.411	138.07
205.63	82.77
205.849	78.68
206.068	21.33
206.287	23.38
206.505	90.96
206.724	21.33
206.943	-5.29
207.162	2.9
207.381	148.31
207.599	-64.68
207.818	66.39
208.037	-27.82
208.255	99.16
208.474	-29.87
208.693	101.2
208.911	-13.48
209.13	131.92
209.349	88.92
209.567	0.85
209.786	207.7
210.005	105.3
210.223	70.48
210.442	-89.26
210.661	7
210.879	127.83
211.098	9.05
211.316	84.82
211.535	29.52
211.753	109.4
211.972	131.92
212.191	37.72
212.409	66.39
212.628	82.77
212.846	17.24
213.065	25.43
213.283	111.44
213.502	13.14
213.72	70.48
213.938	62.29
214.157	62.29
214.375	72.53
214.594	27.48
214.812	148.31
215.031	19.29
215.249	23.38
215.467	54.1
215.686	62.29
215.904	52.05
216.122	9.05
216.341	125.78
216.559	101.2
216.778	187.22
216.996	136.02
217.214	23.38
217.432	7
217.651	-25.77
217.869	31.57
218.087	103.25
218.306	4.95
218.524	-3.24
218.742	-7.34
218.96	95.06
219.179	50
219.397	56.15
219.615	226.13
219.833	109.4
220.051	17.24
220.27	172.88
220.488	113.49
220.706	88.92
220.924	-42.15
221.142	-58.54
221.36	17.24
221.578	64.34
221.796	107.35
222.015	66.39
222.233	4.95
222.451	123.73
222.669	-27.82
222.887	113.49
223.105	39.76
223.323	15.19
223.541	-27.82
223.759	54.1
223.977	-1.19
224.195	168.79
224.413	35.67
224.631	68.44
224.849	47.96
225.067	215.89
225.285	33.62
225.503	-33.96
225.721	-38.06
225.939	74.58
226.157	47.96
226.375	254.8
226.592	52.05
226.81	27.48
227.028	70.48
227.246	74.58
227.464	109.4
227.682	164.69
227.9	58.2
228.117	160.59
228.335	123.73
228.553	21.33
228.771	-46.25
228.989	19.29
229.206	45.91
229.424	60.24
229.642	43.86
229.86	-54.44
230.077	152.4
230.295	80.72
230.513	129.88
230.731	56.15
230.948	115.54
231.166	236.37
231.384	37.72
231.601	41.81
231.819	230.23
232.037	2.9
232.254	9.05
232.472	23.38
232.689	70.48
232.907	140.12
233.125	21.33
233.342	-13.48
233.56	33.62
233.777	74.58
233.995	29.52
234.213	82.77
234.43	29.52
234.648	76.63
234.865	-5.29
235.083	70.48
235.3	13.14
235.518	123.73
235.735	156.5
235.953	109.4
236.17	62.29
236.388	-3.24
236.605	21.33
236.822	129.88
237.04	99.16
237.257	45.91
237.475	-38.06
237.692	29.52
237.909	158.55
238.127	9.05
238.344	97.11
238.562	-9.39
238.779	23.38
238.996	-3.24
239.214	123.73
239.431	84.82
239.648	99.16
239.865	93.01
240.083	123.73
240.3	52.05
240.517	-5.29
240.735	74.58
240.952	70.48
241.169	97.11
241.386	68.44
241.603	13.14
241.821	117.59
242.038	156.5
242.255	129.88
242.472	4.95
242.689	78.68
242.907	93.01
243.124	86.87
243.341	21.33
243.558	-101.55
243.775	-66.73
243.992	-87.21
244.209	113.49
244.426	129.88
244.643	84.82
244.86	-1.19
245.078	72.53
245.295	25.43
245.512	0.85
245.729	93.01
245.946	121.68
246.163	136.02
246.38	2.9
246.597	86.87
246.814	31.57
247.031	17.24
247.248	7
247.464	115.54
247.681	64.34
247.898	129.88
248.115	60.24
248.332	-38.06
248.549	168.79
248.766	238.42
248.983	101.2
249.2	107.35
249.417	162.64
249.633	33.62
249.85	21.33
250.067	52.05
250.284	70.48
250.501	11.09
250.717	140.12
250.934	23.38
251.151	90.96
251.368	160.59
251.585	33.62
251.801	47.96
252.018	15.19
252.235	113.49
252.451	-17.58
252.668	4.95
252.885	140.12
253.102	115.54
253.318	27.48
253.535	33.62
253.752	-5.29
253.968	99.16
254.185	-83.11
254.401	111.44
254.618	25.43
254.835	54.1
255.051	142.16
255.268	129.88
255.484	86.87
255.701	45.91
255.917	117.59
256.134	-7.34
256.351	39.76
256.567	11.09
256.784	68.44
257	-62.63
257.217	113.49
257.433	115.54
257.65	62.29
257.866	213.84
258.082	0.85
258.299	9.05
258.515	43.86
258.732	21.33
258.948	-87.21
259.165	76.63
259.381	86.87
259.597	179.03
259.814	52.05
260.03	-44.2
260.246	52.05
260.463	138.07
260.679	195.41
260.895	125.78
261.112	170.83
261.328	72.53
261.544	25.43
261.761	172.88
261.977	-19.63
262.193	-38.06
262.409	164.69
262.626	62.29
262.842	39.76
263.058	29.52
263.274	82.77
263.49	121.68
263.707	154.45
263.923	125.78
264.139	-83.11
264.355	68.44
264.571	95.06
264.787	72.53
265.004	86.87
265.22	25.43
265.436	-23.72
265.652	52.05
265.868	-27.82
266.084	-3.24
266.3	50
266.516	-19.63
266.732	50
266.948	17.24
267.164	23.38
267.38	111.44
267.596	113.49
267.812	191.31
268.028	64.34
268.244	19.29
268.46	-15.53
268.676	47.96
268.892	76.63
269.108	-52.39
269.324	11.09
269.54	-15.53
269.756	142.16
269.972	-72.87
270.188	82.77
270.403	-38.06
270.619	-23.72
270.835	111.44
271.051	125.78
271.267	45.91
271.483	-15.53
271.698	215.89
271.914	68.44
272.13	-11.43
272.346	-15.53
272.562	25.43
272.777	121.68
272.993	64.34
273.209	78.68
273.425	86.87
273.64	2.9
273.856	80.72
274.072	-48.3
274.287	27.48
274.503	105.3
274.719	95.06
274.934	9.05
275.15	-23.72
275.366	-85.16
275.581	-33.96
275.797	84.82
276.012	93.01
276.228	-17.58
276.444	25.43
276.659	123.73
276.875	-52.39
277.09	41.81
277.306	19.29
277.521	84.82
277.737	13.14
277.952	74.58
278.168	29.52
278.383	121.68
278.599	29.52
278.814	136.02
279.03	52.05
279.245	138.07
279.461	70.48
279.676	160.59
279.892	-81.07
280.107	-21.67
280.322	-42.15
280.538	7
280.753	62.29
280.969	107.35
281.184	93.01
281.399	154.45
281.615	103.25
281.83	74.58
282.045	-31.91
282.26	45.91
282.476	107.35
282.691	109.4
282.906	99.16
283.122	84.82
283.337	-54.44
283.552	99.16
283.767	0.85
283.983	35.67
284.198	68.44
284.413	72.53
284.628	-21.67
284.843	105.3
285.058	105.3
285.274	-19.63
285.489	33.62
285.704	152.4
285.919	13.14
286.134	-25.77
286.349	29.52
286.564	4.95
286.779	123.73
286.995	2.9
287.21	-105.64
287.425	82.77
287.64	-19.63
287.855	90.96
288.07	-23.72
288.285	154.45
288.5	50
288.715	82.77
288.93	58.2
289.145	27.48
289.36	97.11
289.575	23.38
289.79	111.44
290.004	7
290.219	125.78
290.434	-40.11
290.649	-9.39
290.864	25.43
291.079	-21.67
291.294	117.59
291.509	70.48
291.724	50
291.938	99.16
292.153	111.44
292.368	78.68
292.583	52.05
292.798	90.96
293.012	56.15
293.227	66.39
293.442	54.1
293.657	37.72
293.871	172.88
294.086	78.68
294.301	215.89
294.516	111.44
294.73	74.58
294.945	-27.82
295.16	64.34
295.374	121.68
295.589	86.87
295.804	-58.54
296.018	7
296.233	101.2
296.447	47.96
296.662	33.62
296.877	176.98
297.091	99.16
297.306	54.1
297.52	17.24
297.735	125.78
297.949	93.01
298.164	9.05
298.378	144.21
298.593	-42.15
298.807	4.95
299.022	82.77
299.236	195.41
299.451	23.38
299.665	19.29
299.88	0.85
300.094	160.59
300.309	45.91
300.523	68.44
300.737	-3.24
300.952	76.63
301.166	74.58
301.381	72.53
301.595	31.57
301.809	41.81
302.024	-29.87
302.238	-25.77
302.452	144.21
302.667	66.39
302.881	144.21
303.095	166.74
303.309	76.63
303.524	-13.48
303.738	76.63
303.952	21.33
304.166	45.91
304.381	-50.35
304.595	191.31
304.809	-107.69
305.023	82.77
305.237	33.62
305.452	58.2
305.666	152.4
305.88	54.1
306.094	54.1
306.308	41.81
306.522	93.01
306.736	109.4
306.95	105.3
307.164	23.38
307.379	-1.19
307.593	187.22
307.807	119.64
308.021	84.82
308.235	54.1
308.449	-48.3
308.663	-11.43
308.877	222.03
309.091	68.44
309.305	125.78
309.519	-93.35
309.733	82.77
309.947	-46.25
310.161	111.44
310.374	82.77
310.588	156.5
310.802	-1.19
311.016	15.19
311.23	50
311.444	-3.24
311.658	13.14
311.872	123.73
312.085	162.64
312.299	152.4
312.513	183.12
312.727	0.85
312.941	-1.19
313.154	25.43
313.368	76.63
313.582	31.57
313.796	82.77
314.009	7
314.223	144.21
314.437	76.63
314.651	138.07
314.864	25.43
315.078	2.9
315.292	-27.82
315.505	37.72
315.719	107.35
315.933	72.53
316.146	29.52
316.36	-7.34
316.573	160.59
316.787	56.15
317.001	76.63
317.214	21.33
317.428	80.72
317.641	-40.11
317.855	50
318.068	29.52
318.282	68.44
318.495	146.26
318.709	50
318.922	158.55
319.136	136.02
319.349	176.98
319.563	39.76
319.776	82.77
319.99	0.85
320.203	103.25
320.417	107.35
320.63	136.02
320.843	123.73
321.057	-17.58
321.27	72.53
321.483	152.4
321.697	142.16
321.91	80.72
322.124	146.26
322.337	103.25
322.55	99.16
322.763	84.82
322.977	45.91
323.19	-9.39
323.403	74.58
323.617	144.21
323.83	148.31
324.043	70.48
324.256	-9.39
324.469	-27.82
324.683	168.79
324.896	70.48
325.109	17.24
325.322	-5.29
325.535	29.52
325.748	68.44
325.962	64.34
326.175	9.05
326.388	11.09
326.601	109.4
326.814	23.38
327.027	101.2
327.24	66.39
327.453	-97.45
327.666	99.16
327.879	209.75
328.092	111.44
328.305	146.26
328.518	-7.34
328.731	9.05
328.944	41.81
329.157	154.45
329.37	107.35
329.583	238.42
329.796	129.88
330.009	-46.25
330.222	140.12
330.435	125.78
330.648	66.39
330.861	80.72
331.073	68.44
331.286	119.64
331.499	45.91
331.712	-54.44
331.925	23.38
332.138	66.39
332.35	105.3
332.563	-11.43
332.776	150.36
332.989	-7.34
333.202	-56.49
333.414	88.92
333.627	78.68
333.84	58.2
334.053	146.26
334.265	19.29
334.478	76.63
334.691	47.96
334.903	58.2
335.116	15.19
335.329	33.62
335.541	68.44
335.754	123.73
335.966	21.33
336.179	88.92
336.392	4.95
336.604	41.81
336.817	97.11
337.029	45.91
337.242	56.15
337.454	119.64
337.667	88.92
337.88	138.07
338.092	142.16
338.305	45.91
338.517	-7.34
338.729	121.68
338.942	72.53
339.154	-17.58
339.367	0.85
339.579	115.54
339.792	-44.2
340.004	50
340.217	78.68
340.429	54.1
340.641	-58.54
340.854	-44.2
341.066	37.72
341.278	111.44
341.491	140.12
341.703	25.43
341.915	-44.2
342.128	113.49
342.34	105.3
342.552	-40.11
342.764	35.67
342.977	62.29
343.189	127.83
343.401	29.52
343.613	-40.11
343.826	27.48
344.038	-13.48
344.25	-7.34
344.462	43.86
344.674	95.06
344.886	9.05
345.099	35.67
345.311	45.91
345.523	31.57
345.735	25.43
345.947	84.82
346.159	-7.34
346.371	2.9
346.583	121.68
346.795	244.56
347.007	21.33
347.219	82.77
347.431	80.72
347.643	105.3
347.855	78.68
348.067	54.1
348.279	-31.91
348.491	86.87
348.703	76.63
348.915	76.63
349.127	31.57
349.339	72.53
349.551	-11.43
349.763	115.54
349.975	47.96
350.187	62.29
350.399	86.87
350.61	56.15
350.822	39.76
351.034	101.2
351.246	56.15
351.458	95.06
351.669	86.87
351.881	111.44
352.093	95.06
352.305	148.31
352.517	76.63
352.728	199.51
352.94	111.44
353.152	43.86
353.363	-7.34
353.575	60.24
353.787	117.59
353.999	136.02
354.21	103.25
354.422	-25.77
354.633	54.1
354.845	33.62
355.057	82.77
355.268	62.29
355.48	119.64
355.692	37.72
355.903	-1.19
356.115	-33.96
356.326	-13.48
356.538	185.17
356.749	72.53
356.961	172.88
357.172	25.43
357.384	19.29
357.595	199.51
357.807	-19.63
358.018	66.39
358.23	64.34
358.441	199.51
358.653	70.48
358.864	-13.48
359.075	23.38
359.287	88.92
359.498	129.88
359.709	133.97
359.921	37.72
360.132	97.11
360.344	97.11
360.555	64.34
360.766	45.91
360.977	2.9
361.189	158.55
361.4	21.33
361.611	164.69
361.823	115.54
362.034	33.62
362.245	35.67
362.456	90.96
362.667	90.96
362.879	-31.91
363.09	93.01
363.301	103.25
363.512	54.1
363.723	15.19
363.935	23.38
364.146	123.73
364.357	35.67
364.568	80.72
364.779	-21.67
364.99	154.45
365.201	-66.73
365.412	150.36
365.623	21.33
365.834	113.49
366.045	-25.77
366.256	103.25
366.467	33.62
366.678	66.39
366.889	58.2
367.1	41.81
367.311	82.77
367.522	15.19
367.733	72.53
367.944	90.96
368.155	-15.53
368.366	76.63
368.577	150.36
368.788	119.64
368.999	-44.2
369.209	19.29
369.42	213.84
369.631	252.75
369.842	154.45
370.053	41.81
370.264	121.68
370.474	29.52
370.685	41.81
370.896	84.82
371.107	121.68
371.317	7
371.528	21.33
371.739	68.44
371.95	90.96
372.16	90.96
372.371	-54.44
372.582	56.15
372.792	127.83
373.003	78.68
373.214	54.1
373.424	133.97
373.635	-66.73
373.846	162.64
374.056	37.72
374.267	82.77
374.477	86.87
374.688	41.81
374.898	101.2
375.109	54.1
375.319	103.25
375.53	121.68
375.74	68.44
375.951	47.96
376.161	115.54
376.372	95.06
376.582	25.43
376.793	115.54
377.003	-48.3
377.214	35.67
377.424	50
377.635	66.39
377.845	23.38
378.055	209.75
378.266	-50.35
378.476	47.96
378.686	80.72
378.897	78.68
379.107	103.25
379.317	-29.87
379.528	66.39
379.738	109.4
379.948	62.29
380.158	125.78
380.369	23.38
380.579	66.39
380.789	74.58
380.999	138.07
381.21	117.59
381.42	250.71
381.63	33.62
381.84	70.48
382.05	109.4
382.261	193.36
382.471	162.64
382.681	39.76
382.891	131.92
383.101	80.72
383.311	70.48
383.521	50
383.731	21.33
383.941	66.39
384.151	90.96
384.361	23.38
384.571	60.24
384.781	93.01
384.991	199.51
385.201	205.65
385.411	154.45
385.621	99.16
385.831	117.59
386.041	43.86
386.251	115.54
386.461	113.49
386.671	4.95
386.881	90.96
387.091	105.3
387.301	86.87
387.511	56.15
387.72	76.63
387.93	150.36
388.14	-54.44
388.35	21.33
388.56	203.6
388.769	146.26
388.979	84.82
389.189	-9.39
389.399	60.24
389.609	95.06
389.818	109.4
390.028	119.64
390.238	115.54
390.447	-64.68
390.657	88.92
390.867	29.52
391.076	-52.39
391.286	78.68
391.496	41.81
391.705	70.48
391.915	123.73
392.125	133.97
392.334	45.91
392.544	179.03
392.753	131.92
392.963	47.96
393.172	56.15
393.382	9.05
393.591	170.83
393.801	9.05
394.01	166.74
394.22	29.52
394.429	90.96
394.639	78.68
394.848	39.76
395.058	52.05
395.267	25.43
395.477	107.35
395.686	17.24
395.895	158.55
396.105	181.07
396.314	70.48
396.524	72.53
396.733	-25.77
396.942	115.54
397.152	39.76
397.361	119.64
397.57	70.48
397.78	54.1
397.989	47.96
398.198	131.92
398.407	21.33
398.617	133.97
398.826	70.48
399.035	68.44
399.244	160.59
399.453	80.72
399.663	11.09
399.872	72.53
400.081	-25.77
400.29	107.35
400.499	45.91
400.708	88.92
400.917	25.43
401.127	43.86
401.336	4.95
401.545	189.27
401.754	185.17
401.963	164.69
402.172	-52.39
402.381	21.33
402.59	13.14
402.799	11.09
403.008	140.12
403.217	101.2
403.426	107.35
403.635	15.19
403.844	-11.43
404.053	37.72
404.262	29.52
404.471	113.49
404.68	74.58
404.888	95.06
405.097	13.14
405.306	105.3
405.515	72.53
405.724	11.09
405.933	129.88
406.142	74.58
406.35	181.07
406.559	17.24
406.768	43.86
406.977	205.65
407.185	41.81
407.394	41.81
407.603	54.1
407.812	146.26
408.02	164.69
408.229	35.67
408.438	84.82
408.646	-113.83
408.855	-7.34
409.064	88.92
409.272	109.4
409.481	95.06
409.69	41.81
409.898	4.95
410.107	72.53
410.315	133.97
410.524	21.33
410.733	113.49
410.941	64.34
411.15	105.3
411.358	142.16
411.567	101.2
411.775	39.76
411.984	45.91
412.192	181.07
412.401	90.96
412.609	258.9
412.818	107.35
413.026	148.31
413.234	19.29
413.443	72.53
413.651	-64.68
413.86	127.83
414.068	176.98
414.276	183.12
414.485	84.82
414.693	176.98
414.901	246.61
415.11	129.88
415.318	23.38
415.526	97.11
415.734	162.64
415.943	105.3
416.151	211.79
416.359	2.9
416.567	2.9
416.776	148.31
416.984	179.03
417.192	156.5
417.4	39.76
417.608	70.48
417.817	-23.72
418.025	162.64
418.233	156.5
418.441	23.38
418.649	19.29
418.857	43.86
419.065	160.59
419.273	52.05
419.481	68.44
419.689	68.44
419.897	11.09
420.105	25.43
420.313	156.5
420.521	170.83
420.729	215.89
420.937	-9.39
421.145	-50.35
421.353	195.41
421.561	144.21
421.769	119.64
421.977	-44.2
422.185	162.64
422.393	80.72
422.601	160.59
422.809	99.16
423.017	99.16
423.224	88.92
423.432	140.12
423.64	88.92
423.848	164.69
424.056	31.57
424.263	131.92
424.471	9.05
424.679	193.36
424.887	25.43
425.094	240.47
425.302	154.45
425.51	62.29
425.718	226.13
425.925	144.21
426.133	66.39
426.341	240.47
426.548	66.39
426.756	99.16
426.964	144.21
427.171	66.39
427.379	142.16
427.586	148.31
427.794	107.35
428.001	131.92
428.209	148.31
428.417	156.5
428.624	146.26
428.832	109.4
429.039	78.68
429.247	113.49
429.454	70.48
429.662	228.18
429.869	152.4
430.076	201.55
430.284	168.79
430.491	234.32
430.699	148.31
430.906	281.43
431.114	166.74
431.321	191.31
431.528	144.21
431.736	215.89
431.943	150.36
432.15	248.66
432.358	170.83
432.565	275.28
432.772	86.87
432.979	271.19
433.187	174.93
433.394	275.28
433.601	158.55
433.808	256.85
434.016	293.71
434.223	326.48
434.43	197.46
434.637	340.82
434.844	285.52
435.052	179.03
435.259	344.91
435.466	322.38
435.673	240.47
435.88	336.72
436.087	306
436.294	389.97
436.501	355.15
436.708	281.43
436.915	338.77
437.122	463.69
437.329	262.99
437.537	338.77
437.743	334.67
437.95	410.45
438.157	402.26
438.364	344.91
438.571	336.72
438.778	430.93
438.985	463.69
439.192	514.89
439.399	381.78
439.606	510.8
439.813	555.85
440.02	568.14
440.227	686.92
440.433	607.05
440.64	559.95
440.847	521.04
441.054	598.86
441.261	658.25
441.467	547.66
441.674	594.76
441.881	805.71
442.088	625.48
442.294	762.7
442.501	877.38
442.708	811.85
442.914	895.82
443.121	820.04
443.328	846.66
443.534	996.17
443.741	807.75
443.948	813.9
444.154	975.69
444.361	1153.86
444.568	1053.51
444.774	1100.61
444.981	1008.45
445.187	1194.82
445.394	1133.38
445.6	1100.61
445.807	1229.63
446.013	1276.74
446.22	1196.87
446.426	1418.05
446.633	1542.97
446.839	1715
447.046	1432.38
447.252	1723.2
447.459	1715
447.665	1610.56
447.871	1694.52
448.078	1954.62
448.284	1839.93
448.491	2075.45
448.697	2143.03
448.903	2124.6
449.11	2286.39
449.316	2218.8
449.522	2308.91
449.728	2444.08
449.935	2497.33
450.141	2607.92
450.347	2841.39
450.553	2556.72
450.76	2720.56
450.966	2874.15
451.172	2994.98
451.378	3062.57
451.584	3263.27
451.791	3353.38
451.997	3498.78
452.203	3539.74
452.409	3863.32
452.615	4025.11
452.821	3801.88
453.027	3691.29
453.233	4463.38
453.44	4287.25
453.646	4539.15
453.852	4709.13
454.058	4702.99
454.264	4801.29
454.47	5255.94
454.676	5237.51
454.882	5632.77
455.088	5425.92
455.294	5636.86
455.5	6103.8
455.705	6546.16
455.911	6488.82
456.117	6777.58
456.323	6963.95
456.529	6918.89
456.735	7588.58
456.941	7711.46
457.147	8231.64
457.352	8344.28
457.558	8686.29
457.764	9081.55
457.97	9190.09
458.176	9708.23
458.381	10105.53
458.587	10476.21
458.793	10996.4
458.999	10734.26
459.204	12161.69
459.41	12462.74
459.616	12337.82
459.821	13169.29
460.027	13513.35
460.233	14393.98
460.438	14346.87
460.644	15063.66
460.85	15166.06
461.055	15800.93
461.261	16712.28
461.466	16382.56
461.672	16413.27
461.878	18389.56
462.083	18305.6
462.289	18831.93
462.494	19354.16
462.7	19788.33
462.905	19937.83
463.111	21156.37
463.316	22718.97
463.522	22884.86
463.727	23976.42
463.932	24719.84
464.138	25264.6
464.343	26307.01
464.549	26585.54
464.754	28547.49
464.959	29464.98
465.165	29761.94
465.37	29712.78
465.575	29510.04
465.781	31474.04
465.986	32567.65
466.191	32047.47
466.397	32379.24
466.602	31439.22
466.807	33552.73
467.012	33816.91
467.218	34701.64
467.423	34679.11
467.628	35844.4
467.833	37298.46
468.038	36634.92
468.244	36317.48
468.449	37923.09
468.654	36960.55
468.859	37126.43
469.064	37302.56
469.269	36544.81
469.474	36655.4
469.679	37822.74
469.885	36591.91
470.09	37128.48
470.295	37478.68
470.5	36636.97
470.705	37105.95
470.91	35631.41
471.115	35535.16
471.32	35799.35
471.525	35813.68
471.73	34834.75
471.935	34224.46
472.139	33220.95
472.344	33651.03
472.549	33284.44
472.754	32473.45
472.959	31644.02
473.164	30966.14
473.369	30353.8
473.574	31373.69
473.778	30245.26
473.983	30087.56
474.188	29381.01
474.393	27879.85
474.598	28479.91
474.802	27681.2
475.007	27011.51
475.212	27156.92
475.417	25727.44
475.621	25571.79
475.826	25022.94
476.031	24621.53
476.235	24234.47
476.44	24252.9
476.645	23452.14
476.849	23239.15
477.054	22907.38
477.259	22761.98
477.463	22508.03
477.668	21563.92
477.872	21817.86
478.077	21060.12
478.282	20709.91
478.486	20445.73
478.691	20144.67
478.895	19956.26
479.1	20015.65
479.304	19577.39
479.509	18815.54
479.713	19044.91
479.918	18754.1
480.122	18512.44
480.326	18659.9
480.531	18659.9
480.735	18262.59
480.94	18051.65
481.144	18651.7
481.348	17498.7
481.553	17646.15
481.757	17326.67
481.961	17744.45
482.166	17705.54
482.37	17341
482.574	17007.19
482.778	16837.2
482.983	17171.02
483.187	16876.12
483.391	16740.95
483.595	16360.03
483.8	16020.06
484.004	16261.73
484.208	16185.95
484.412	15915.62
484.616	15936.1
484.821	15684.2
485.025	15200.88
485.229	15432.3
485.433	15151.73
485.637	15059.57
485.841	14719.6
486.045	14596.73
486.249	14312.06
486.453	13916.8
486.657	14246.52
486.861	13673.09
487.065	13413
487.269	13341.32
487.473	12917.39
487.677	13126.29
487.881	13030.03
488.085	12554.9
488.289	12405.4
488.493	12071.58
488.697	12102.3
488.901	11858.59
489.105	11365.03
489.309	11469.48
489.512	11475.62
489.716	10894
489.92	10736.31
490.124	10738.35
490.328	10666.67
490.531	10132.15
490.735	10109.63
490.939	9949.89
491.143	9622.21
491.346	9667.27
491.55	9544.39
491.754	9265.86
491.958	9288.39
492.161	8979.15
492.365	8749.78
492.569	8563.41
492.772	8422.1
492.976	8557.27
493.18	8487.64
493.383	8207.06
493.587	8139.48
493.79	8323.8
493.994	7820
494.197	7830.24
494.401	7516.9
494.605	7656.16
494.808	7492.32
495.012	7555.81
495.215	7539.43
495.419	7652.06
495.622	7547.62
495.825	7385.83
496.029	7168.74
496.232	7459.56
496.436	6998.76
496.639	7559.91
496.843	7158.5
497.046	7209.7
497.249	7299.81
497.453	7320.29
497.656	7338.73
497.859	7170.79
498.063	7353.06
498.266	7443.17
498.469	7097.07
498.673	7174.89
498.876	7430.88
499.079	7150.31
499.282	7236.33
499.485	7449.32
499.689	7389.92
499.892	7645.92
500.095	7463.65
500.298	7623.39
500.501	7430.88
500.705	7738.08
500.908	7697.12
501.111	7754.46
501.314	7826.14
501.517	7994.08
501.72	8137.43
501.923	8114.91
502.126	8145.63
502.329	8411.86
502.532	8325.85
502.735	8350.42
502.938	8561.36
503.141	8608.47
503.344	8649.43
503.547	8846.03
503.75	8633.04
503.953	9087.69
504.156	9407.17
504.359	9290.44
504.562	9298.63
504.765	9470.66
504.968	9681.6
505.17	9751.23
505.373	9820.86
505.576	10152.63
505.779	10316.47
505.982	10232.51
506.185	10611.38
506.387	10771.12
506.59	11106.99
506.793	11029.17
506.996	11215.53
507.198	11504.29
507.401	11840.16
507.604	11872.93
507.807	12124.83
508.009	12391.06
508.212	12481.17
508.415	12671.64
508.617	12817.04
508.82	13329.03
509.022	13546.12
509.225	13865.6
509.428	13927.04
509.63	14324.35
509.833	14482.04
510.035	15039.09
510.238	15354.48
510.44	15827.56
510.643	16101.98
510.845	16507.48
511.048	16235.1
511.25	16681.56
511.453	17500.75
511.655	17916.48
511.858	18086.47
512.06	18545.21
512.262	18817.59
512.465	19038.77
512.667	19745.32
512.87	19890.73
513.072	20492.83
513.274	21094.93
513.477	21482
513.679	21817.86
513.881	22477.31
514.084	23054.84
514.286	23255.54
514.488	23656.94
514.69	24828.38
514.893	24703.45
515.095	25287.12
515.297	25745.87
515.499	26100.17
515.701	27034.04
515.904	27529.65
516.106	27744.69
516.308	28588.45
516.51	29237.66
516.712	29661.58
516.914	30202.25
517.116	30960
517.318	30968.19
517.52	32018.8
517.722	32059.76
517.925	32872.8
518.127	33642.84
518.329	34259.27
518.531	34203.98
518.733	35119.42
518.935	35864.88
519.136	36325.68
519.338	36964.64
519.54	36919.59
519.742	37865.75
519.944	37992.72
520.146	38996.23
520.348	39475.45
520.55	39872.76
520.752	39868.66
520.954	41152.74
521.155	40599.79
521.357	41992.4
521.559	42184.91
521.761	43145.41
521.963	42991.81
522.164	43260.1
522.366	43260.1
522.568	43989.17
522.77	44128.44
522.971	44867.75
523.173	44542.13
523.375	45117.6
523.576	45097.13
523.778	45414.56
523.98	45584.54
524.181	46282.9
524.383	45875.35
524.584	46330
524.786	46196.88
524.988	45752.48
525.189	46725.26
525.391	46962.82
525.592	46643.34
525.794	46620.81
525.995	46041.24
526.197	46065.81
526.398	46317.71
526.6	46725.26
526.801	46577.81
527.003	46405.78
527.204	45940.89
527.406	46094.49
527.607	46014.62
527.808	45861.02
528.01	44589.23
528.211	45093.03
528.412	45252.77
528.614	44826.79
528.815	44185.78
529.016	44234.93
529.218	42795.21
529.419	43161.79
529.62	42801.35
529.822	42498.25
530.023	42105.04
530.224	41482.46
530.425	41533.66
530.626	40292.59
530.828	40145.14
531.029	40714.47
531.23	39399.68
531.431	39182.59
531.632	38947.08
531.833	38256.91
532.035	37986.58
532.236	37447.96
532.437	37183.77
532.638	36553
532.839	35920.18
533.04	35514.68
533.241	35174.72
533.442	35277.12
533.643	34236.75
533.844	33726.8
534.045	33565.01
534.246	32637.28
534.447	32420.2
534.648	32086.38
534.849	31844.72
535.05	31136.12
535.251	30753.15
535.451	30503.3
535.652	29966.73
535.853	29528.47
536.054	29356.44
536.255	28991.9
536.456	28004.78
536.657	28371.36
536.857	27443.63
537.058	27163.06
537.259	27101.62
537.46	26888.64
537.66	26235.33
537.861	26106.31
538.062	25543.12
538.263	25303.51
538.463	24973.78
538.664	24445.41
538.865	24435.17
539.065	24424.93
539.266	23286.26
539.466	23439.86
539.667	23022.07
539.868	23026.17
540.068	22454.78
540.269	22518.27
540.469	22024.71
540.67	21754.38
540.87	21512.72
541.071	21299.73
541.271	21187.09
541.472	20744.73
541.672	20589.08
541.873	20095.52
542.073	19810.86
542.274	20132.39
542.474	19565.1
542.675	19415.6
542.875	19397.17
543.075	18676.28
543.276	18709.05
543.476	18715.19
543.676	18229.82
543.877	17982.02
544.077	18072.13
544.277	17848.9
544.478	17609.29
544.678	17498.7
544.878	17031.76
545.078	16998.99
545.279	16933.46
545.479	16423.51
545.679	16417.37
545.879	16142.94
546.079	16372.32
546.28	15657.57
546.48	15794.79
546.68	15503.98
546.88	15428.2
547.08	15407.72
547.28	15078
547.48	14781.04
547.68	14637.69
547.88	14451.32
548.081	14338.68
548.281	14019.2
548.481	13877.89
548.681	13791.87
548.881	13593.22
549.081	13613.7
549.28	12944.02
549.48	13154.96
549.68	12780.18
549.88	12837.52
550.08	12427.93
550.28	12362.39
550.48	12366.49
550.68	11944.61
550.88	11659.94
551.08	11557.54
551.279	11682.47
551.479	11156.14
551.679	11430.57
551.879	11029.17
552.079	10996.4
552.278	10853.04
552.478	10601.14
552.678	10472.12
552.878	10482.36
553.077	10070.72
553.277	9849.54
553.477	9798.34
553.676	9724.61
553.876	9532.1
554.076	9159.37
554.275	9333.45
554.475	9032.4
554.674	9075.4
554.874	8790.74
555.074	8624.85
555.273	8700.62
555.473	8501.97
555.672	8151.77
555.872	8284.89
556.071	8028.89
556.271	8221.4
556.47	7686.88
556.67	7527.14
556.869	7457.51
557.068	7488.23
557.268	7242.47
557.467	7213.8
557.667	7054.06
557.866	6976.23
558.065	7070.44
558.265	6800.11
558.464	6580.98
558.663	6560.5
558.863	6460.15
559.062	6390.52
559.261	5931.77
559.461	6163.19
559.66	5907.2
559.859	5802.75
560.058	5622.53
560.258	5769.98
560.457	5600
560.656	5614.34
560.855	5296.9
561.054	5380.87
561.253	5337.86
561.453	5180.17
561.652	5217.03
561.851	5149.45
562.05	5016.33
562.249	4858.64
562.448	4920.07
562.647	4643.6
562.846	4555.54
563.045	4725.52
563.244	4520.72
563.443	4592.4
563.642	4436.75
563.841	4379.41
564.04	4322.07
564.239	4109.08
564.438	4209.43
564.637	3926.81
564.836	4029.21
565.035	3965.72
565.234	3834.65
565.432	3822.36
565.631	3871.51
565.83	3961.62
566.029	3748.64
566.228	3584.8
566.427	3650.33
566.625	3302.18
566.824	3592.99
567.023	3474.21
567.222	3449.63
567.42	3283.75
567.619	3279.65
567.818	3261.22
568.016	3375.91
568.215	3121.96
568.414	3195.68
568.612	3124.01
568.811	3175.2
569.01	3087.14
569.208	2994.98
569.407	3040.04
569.605	2947.88
569.804	2857.77
570.002	2841.39
570.201	2732.84
570.4	2827.05
570.598	2794.28
570.797	2710.32
570.995	2622.25
571.193	2505.52
571.392	2585.39
571.59	2448.18
571.789	2517.81
571.987	2487.09
572.186	2513.71
572.384	2460.46
572.582	2274.1
572.781	2399.02
572.979	2165.56
573.177	2173.75
573.376	2270
573.574	2253.62
573.772	2134.84
573.971	2061.11
574.169	2034.49
574.367	2138.93
574.565	1860.41
574.763	1981.24
574.962	1866.55
575.16	1913.66
575.358	1774.39
575.556	1850.17
575.754	1872.7
575.952	1796.92
576.151	1819.45
576.349	1784.63
576.547	1710.91
576.745	1704.76
576.943	1635.13
577.141	1663.8
577.339	1645.37
577.537	1649.47
577.735	1747.77
577.933	1583.93
578.131	1368.9
578.329	1534.78
578.527	1403.71
578.725	1516.35
578.923	1364.8
579.121	1493.82
579.319	1342.27
579.516	1321.79
579.714	1573.69
579.912	1411.9
580.11	1207.11
580.308	1221.44
580.506	1227.59
580.704	1112.9
580.901	1192.77
581.099	1375.04
581.297	1172.29
581.495	1184.58
581.692	1157.96
581.89	1299.27
582.088	1143.62
582.285	1026.89
582.483	1110.85
582.681	1035.08
582.878	1069.89
583.076	1100.61
583.274	1110.85
583.471	1119.04
583.669	971.59
583.866	953.16
584.064	1006.41
584.262	906.06
584.459	1006.41
584.657	863.05
584.854	1026.89
585.052	965.45
585.249	967.49
585.447	938.82
585.644	715.59
585.841	944.97
586.039	957.25
586.236	897.86
586.434	873.29
586.631	815.94
586.828	797.51
587.026	815.94
587.223	717.64
587.42	717.64
587.618	799.56
587.815	799.56
588.012	734.03
588.21	701.26
588.407	826.18
588.604	783.18
588.801	721.74
588.999	762.7
589.196	748.36
589.393	650.06
589.59	715.59
589.787	676.68
589.984	723.79
590.182	740.17
590.379	639.82
590.576	613.2
590.773	678.73
590.97	656.2
591.167	697.16
591.364	697.16
591.561	660.3
591.758	793.42
591.955	684.87
592.152	736.07
592.349	684.87
592.546	568.14
592.743	633.68
592.94	633.68
593.137	691.02
593.334	623.44
593.531	650.06
593.727	768.84
593.924	707.4
594.121	611.15
594.318	643.92
594.515	684.87
594.712	873.29
594.908	774.99
595.105	570.19
595.302	707.4
595.499	742.22
595.696	981.83
595.892	680.78
596.089	861
596.286	832.33
596.482	916.3
596.679	744.27
596.876	846.66
597.072	953.16
597.269	793.42
597.466	897.86
597.662	893.77
597.859	805.71
598.055	899.91
598.252	1039.17
598.448	1057.61
598.645	1057.61
598.841	1133.38
599.038	1168.2
599.234	1291.07
599.431	1297.22
599.627	1299.27
599.824	1284.93
600.02	1366.85
600.217	1370.94
600.413	1448.77
600.609	1532.73
600.806	1702.72
601.002	1692.48
601.198	1616.7
601.395	1839.93
601.591	1825.59
601.787	1925.94
601.984	1977.14
602.18	1958.71
602.376	2243.38
602.572	2157.36
602.769	2407.22
602.965	2216.76
603.161	2507.57
603.357	2517.81
603.553	2777.9
603.75	2575.15
603.946	2833.19
604.142	2868.01
604.338	3138.34
604.534	2974.5
604.73	3132.2
604.926	3124.01
605.122	3568.41
605.318	3207.97
605.514	3537.7
605.71	3529.5
605.906	3840.79
606.102	3836.7
606.298	3969.82
606.494	4326.16
606.69	4387.6
606.886	4299.54
607.082	4395.79
607.278	4651.79
607.474	4752.14
607.67	4815.63
607.866	4813.58
608.062	5376.77
608.257	5210.89
608.453	5370.63
608.649	5536.51
608.845	5694.21
609.041	5909.24
609.236	6052.6
609.432	6263.54
609.628	6372.08
609.824	6773.49
610.019	6638.32
610.215	6925.04
610.411	7129.83
610.606	7500.51
610.802	7504.61
610.998	7609.06
611.193	7883.49
611.389	7932.64
611.584	8301.27
611.78	8286.93
611.976	8635.09
612.171	9122.51
612.367	9366.21
612.562	9474.76
612.758	9550.53
612.953	9577.16
613.149	10013.37
613.344	10123.96
613.539	10764.98
613.735	10844.85
613.93	11479.72
614.126	11551.4
614.321	12141.21
614.517	12374.68
614.712	12571.29
614.907	12837.52
615.103	13150.86
615.298	13216.4
615.493	13773.44
615.688	13902.47
615.884	14817.91
616.079	14779
616.274	15331.95
616.47	15546.98
616.665	16065.12
616.86	16405.08
617.055	16695.89
617.25	17054.29
617.445	17650.25
617.641	17732.17
617.836	18577.98
618.031	18541.11
618.226	19677.74
618.421	20064.8
618.616	20222.5
618.811	20634.14
619.006	21578.25
619.201	21709.32
619.396	22176.26
619.591	22413.82
619.786	23269.87
619.981	23214.58
620.176	24357.35
620.371	24416.74
620.566	25416.15
620.761	25754.06
620.956	26188.23
621.151	26599.87
621.346	27654.58
621.541	27482.55
621.735	28281.25
621.93	28678.56
622.125	29282.71
622.32	29555.09
622.515	30343.56
622.709	30933.37
622.904	31586.68
623.099	32022.89
623.294	32958.81
623.488	32930.14
623.683	33556.82
623.878	33618.26
624.072	34877.76
624.267	35223.87
624.462	35729.72
624.656	36012.34
624.851	36843.81
625.046	37151.01
625.24	38129.94
625.435	37996.82
625.629	39334.14
625.824	39536.89
626.018	40161.52
626.213	39583.99
626.407	40954.08
626.602	41244.9
626.796	41853.14
626.991	42148.05
627.185	42354.9
627.38	42977.48
627.574	42629.32
627.768	43389.12
627.963	43169.99
628.157	43532.48
628.352	44026.04
628.546	43116.74
628.74	44136.63
628.935	43434.17
629.129	43772.09
629.323	43249.86
629.517	43174.08
629.712	42973.38
629.906	42641.61
630.1	42201.3
630.294	42281.17
630.489	41404.64
630.683	41533.66
630.877	40186.1
631.071	39442.68
631.265	39473.4
631.459	38342.92
631.653	37335.32
631.848	36649.25
632.042	35928.37
632.236	35672.37
632.43	34414.92
632.624	33788.24
632.818	32225.64
633.012	31570.29
633.206	30734.72
633.4	29698.45
633.594	28563.87
633.788	27869.61
633.982	26657.21
634.176	25987.53
634.369	24994.26
634.563	24072.68
634.757	23007.73
634.951	22551.04
635.145	21230.1
635.339	20765.21
635.533	19667.5
635.726	19014.2
635.92	17769.03
636.114	17545.8
636.308	16743
636.501	16349.79
636.695	15673.96
636.889	14680.69
637.083	14078.59
637.276	13601.41
637.47	12991.12
637.664	12585.62
637.857	11960.99
638.051	11514.53
638.244	11041.45
638.438	10785.46
638.632	10281.66
638.825	9687.75
639.019	9624.26
639.212	9165.51
639.406	8737.49
639.599	8485.59
639.793	8200.92
639.986	7697.12
640.18	7752.42
640.373	7119.59
640.567	6953.71
640.76	6675.18
640.954	6363.89
641.147	6056.7
641.34	5837.56
641.534	5954.3
641.727	5632.77
641.92	5333.76
642.114	5262.09
642.307	5034.76
642.5	4784.91
642.694	4465.43
642.887	4459.28
643.08	4258.58
643.273	4010.78
643.467	3873.56
643.66	3705.63
643.853	3662.62
644.046	3560.22
644.239	3253.03
644.432	3195.68
644.626	3011.37
644.819	2921.26
645.012	2874.15
645.205	2857.77
645.398	2796.33
645.591	2474.8
645.784	2450.22
645.977	2374.45
646.17	2278.19
646.363	2171.7
646.556	2120.5
646.749	2016.05
646.942	1964.86
647.135	1882.94
647.328	1837.88
647.521	1829.69
647.714	1698.62
647.907	1702.72
648.099	1475.39
648.292	1557.31
648.485	1534.78
648.678	1307.46
648.871	1264.45
649.064	1325.89
649.256	1223.49
649.449	1192.77
649.642	1160
649.835	1069.89
650.027	1053.51
650.22	1096.52
650.413	1076.04
650.605	1024.84
650.798	885.58
650.991	992.07
651.183	983.88
651.376	942.92
651.568	867.14
651.761	789.32
651.954	840.52
652.146	693.07
652.339	893.77
652.531	832.33
652.724	705.35
652.916	744.27
653.109	469.84
653.301	635.72
653.494	740.17
653.686	633.68
653.879	691.02
654.071	684.87
654.263	568.14
654.456	598.86
654.648	596.81
654.84	584.52
655.033	490.32
655.225	627.53
655.417	396.11
655.61	619.34
655.802	500.56
655.994	547.66
656.186	367.44
656.379	473.93
656.571	455.5
656.763	383.82
656.955	351.06
657.148	379.73
657.34	539.47
657.532	371.54
657.724	396.11
657.916	402.26
658.108	486.22
658.3	443.21
658.492	455.5
658.684	273.23
658.876	408.4
659.068	275.28
659.26	215.89
659.452	279.38
659.644	322.38
659.836	473.93
660.028	353.1
660.22	230.23
660.412	267.09
660.604	258.9
660.796	379.73
660.988	365.39
661.18	166.74
661.372	291.66
661.563	289.62
661.755	275.28
661.947	113.49
662.139	222.03
662.331	238.42
662.522	246.61
662.714	138.07
662.906	230.23
663.097	303.95
663.289	224.08
663.481	19.29
663.673	213.84
663.864	262.99
664.056	283.47
664.247	211.79
664.439	342.86
664.631	211.79
664.822	246.61
665.014	193.36
665.205	248.66
665.397	162.64
665.588	267.09
665.78	166.74
665.971	258.9
666.163	187.22
666.354	275.28
666.546	133.97
666.737	154.45
666.929	166.74
667.12	224.08
667.311	285.52
667.503	148.31
667.694	250.71
667.885	314.19
668.077	301.9
668.268	88.92
668.459	217.94
668.651	250.71
668.842	181.07
669.033	252.75
669.224	111.44
669.416	432.97
669.607	154.45
669.798	136.02
669.989	301.9
670.18	170.83
670.371	308.05
670.563	119.64
670.754	316.24
670.945	211.79
671.136	269.14
671.327	140.12
671.518	394.06
671.709	330.58
671.9	265.04
672.091	340.82
672.282	215.89
672.473	176.98
672.664	189.27
672.855	127.83
673.046	277.33
673.237	289.62
673.428	238.42
673.619	215.89
673.809	179.03
674	222.03
674.191	189.27
674.382	230.23
674.573	144.21
674.764	248.66
674.954	387.92
675.145	189.27
675.336	197.46
675.527	140.12
675.717	181.07
675.908	277.33
676.099	230.23
676.289	299.86
676.48	185.17
676.671	287.57
676.861	248.66
677.052	201.55
677.243	162.64
677.433	246.61
677.624	219.99
677.814	310.1
678.005	228.18
678.195	459.6
678.386	205.65
678.576	265.04
678.767	191.31
678.957	310.1
679.148	262.99
679.338	361.3
679.529	281.43
679.719	287.57
679.909	445.26
680.1	369.49
680.29	312.14
680.481	195.41
680.671	377.68
680.861	340.82
681.052	375.63
681.242	260.95
681.432	408.4
681.622	289.62
681.813	318.29
682.003	273.23
682.193	252.75
682.383	314.19
682.573	365.39
682.764	310.1
682.954	314.19
683.144	441.17
683.334	267.09
683.524	318.29
683.714	367.44
683.904	398.16
684.094	338.77
684.284	322.38
684.474	533.33
684.664	344.91
684.854	338.77
685.044	373.58
685.234	342.86
685.424	389.97
685.614	349.01
685.804	498.51
685.994	400.21
686.184	340.82
686.374	408.4
686.564	340.82
686.753	324.43
686.943	232.27
687.133	326.48
687.323	248.66
687.513	387.92
687.702	375.63
687.892	344.91
688.082	334.67
688.272	475.98
688.461	346.96
688.651	506.7
688.841	439.12
689.03	357.2
689.22	328.53
689.41	480.08
689.599	394.06
689.789	306
689.979	426.83
690.168	326.48
690.358	443.21
690.547	377.68
690.737	301.9
690.926	312.14
691.116	414.54
691.305	439.12
691.495	363.34
691.684	260.95
691.874	201.55
692.063	349.01
692.252	330.58
692.442	367.44
692.631	291.66
692.82	271.19
693.01	332.62
693.199	271.19
693.388	332.62
693.578	342.86
693.767	383.82
693.956	363.34
694.146	363.34
694.335	385.87
694.524	291.66
694.713	287.57
694.902	299.86
695.092	252.75
695.281	283.47
695.47	316.24
695.659	310.1
695.848	316.24
696.037	299.86
696.226	412.5
696.415	312.14
696.604	324.43
696.793	316.24
696.982	254.8
697.171	346.96
697.36	275.28
697.549	297.81
697.738	160.59
697.927	226.13
698.116	179.03
698.305	398.16
698.494	299.86
698.683	328.53
698.872	412.5
699.061	342.86
699.25	267.09
699.438	273.23
699.627	267.09
699.816	369.49
700.005	189.27
700.193	201.55
700.382	377.68
700.571	279.38
700.76	373.58
700.948	316.24
701.137	373.58
701.326	295.76
701.514	181.07
701.703	277.33
701.892	262.99
702.08	377.68
702.269	252.75
702.457	279.38
702.646	342.86
702.834	316.24
703.023	211.79
703.212	273.23
703.4	277.33
703.589	197.46
703.777	191.31
703.965	197.46
704.154	209.75
704.342	258.9
704.531	246.61
704.719	326.48
704.907	365.39
705.096	187.22
705.284	287.57
705.472	365.39
705.661	283.47
705.849	258.9
706.037	291.66
706.226	355.15
706.414	224.08
706.602	219.99
706.79	310.1
706.979	179.03
707.167	260.95
707.355	191.31
707.543	279.38
707.731	246.61
707.919	252.75
708.107	217.94
708.296	224.08
708.484	222.03
708.672	289.62
708.86	250.71
709.048	293.71
709.236	248.66
709.424	316.24
709.612	289.62
709.8	199.51
709.988	277.33
710.176	344.91
710.364	273.23
710.551	238.42
710.739	267.09
710.927	340.82
711.115	252.75
711.303	330.58
711.491	377.68
711.679	262.99
711.866	377.68
712.054	355.15
712.242	346.96
712.43	320.34
712.617	322.38
712.805	338.77
712.993	209.75
713.181	111.44
713.368	295.76
713.556	283.47
713.744	199.51
713.931	402.26
714.119	381.78
714.306	250.71
714.494	283.47
714.682	301.9
714.869	195.41
715.057	328.53
715.244	195.41
715.432	359.25
715.619	183.12
715.807	260.95
715.994	340.82
716.182	238.42
716.369	387.92
716.556	389.97
716.744	246.61
716.931	295.76
717.119	363.34
717.306	238.42
717.493	318.29
717.681	224.08
717.868	234.32
718.055	385.87
718.242	265.04
718.43	318.29
718.617	387.92
718.804	193.36
718.991	437.07
719.179	332.62
719.366	381.78
719.553	336.72
719.74	269.14
719.927	367.44
720.114	344.91
720.301	211.79
720.488	330.58
720.676	224.08
720.863	412.5
721.05	480.08
721.237	373.58
721.424	412.5
721.611	320.34
721.798	162.64
721.985	314.19
722.172	308.05
722.358	283.47
722.545	355.15
722.732	322.38
722.919	398.16
723.106	435.02
723.293	295.76
723.48	273.23
723.667	365.39
723.853	437.07
724.04	371.54
724.227	383.82
724.414	344.91
724.6	473.93
724.787	539.47
724.974	557.9
725.161	396.11
725.347	289.62
725.534	385.87
725.72	373.58
725.907	404.3
726.094	463.69
726.28	381.78
726.467	400.21
726.653	275.28
726.84	465.74
727.027	426.83
727.213	342.86
727.4	424.78
727.586	379.73
727.773	353.1
727.959	383.82
728.145	371.54
728.332	437.07
728.518	373.58
728.705	516.94
728.891	363.34
729.077	394.06
729.264	404.3
729.45	392.02
729.636	400.21
729.823	457.55
730.009	453.45
730.195	471.89
730.382	521.04
730.568	383.82
730.754	471.89
730.94	340.82
731.126	435.02
731.313	443.21
731.499	500.56
731.685	432.97
731.871	523.09
732.057	414.54
732.243	578.38
732.429	492.37
732.615	508.75
732.801	459.6
732.987	482.13
733.173	355.15
733.359	344.91
733.545	555.85
733.731	379.73
733.917	551.76
734.103	502.61
734.289	486.22
734.475	367.44
734.661	564.04
734.847	478.03
735.033	430.93
735.219	504.65
735.404	422.73
735.59	392.02
735.776	377.68
735.962	514.89
736.148	521.04
736.333	478.03
736.519	441.17
736.705	531.28
736.89	508.75
737.076	502.61
737.262	361.3
737.447	365.39
737.633	447.31
737.819	570.19
738.004	570.19
738.19	469.84
738.375	570.19
738.561	492.37
738.747	488.27
738.932	432.97
739.118	570.19
739.303	531.28
739.489	490.32
739.674	473.93
739.859	357.2
740.045	488.27
740.23	500.56
740.416	402.26
740.601	582.48
740.786	539.47
740.972	435.02
741.157	426.83
741.342	387.92
741.528	478.03
741.713	549.71
741.898	494.41
742.084	406.35
742.269	451.41
742.454	506.7
742.639	516.94
742.824	480.08
743.01	596.81
743.195	617.29
743.38	602.96
743.565	516.94
743.75	475.98
743.935	518.99
744.12	586.57
744.305	385.87
744.49	455.5
744.675	430.93
744.86	475.98
745.045	537.42
745.23	471.89
745.415	506.7
745.6	578.38
745.785	430.93
745.97	617.29
746.155	547.66
746.34	533.33
746.525	547.66
746.71	527.18
746.895	387.92
747.079	432.97
747.264	396.11
747.449	551.76
747.634	484.17
747.819	508.75
748.003	396.11
748.188	346.96
748.373	445.26
748.557	488.27
748.742	457.55
748.927	486.22
749.111	412.5
749.296	529.23
749.481	443.21
749.665	400.21
749.85	355.15
750.034	465.74
750.219	408.4
750.404	371.54
750.588	447.31
750.773	322.38
750.957	371.54
751.141	459.6
751.326	500.56
751.51	344.91
751.695	344.91
751.879	396.11
752.064	539.47
752.248	349.01
752.432	453.45
752.617	490.32
752.801	496.46
752.985	396.11
753.17	449.36
753.354	404.3
753.538	332.62
753.722	357.2
753.907	320.34
754.091	340.82
754.275	445.26
754.459	306
754.643	322.38
754.828	355.15
755.012	365.39
755.196	314.19
755.38	373.58
755.564	310.1
755.748	344.91
755.932	318.29
756.116	398.16
756.3	412.5
756.484	314.19
756.668	295.76
756.852	228.18
757.036	295.76
757.22	367.44
757.404	295.76
757.588	316.24
757.772	336.72
757.956	334.67
758.14	383.82
758.323	228.18
758.507	406.35
758.691	299.86
758.875	365.39
759.059	410.45
759.242	262.99
759.426	293.71
759.61	203.6
759.794	201.55
759.977	373.58
760.161	478.03
760.345	437.07
760.528	326.48
760.712	297.81
760.895	322.38
761.079	256.85
761.263	244.56
761.446	256.85
761.63	306
761.813	357.2
761.997	217.94
762.18	222.03
762.364	234.32
762.547	123.73
762.731	254.8
762.914	262.99
763.098	193.36
763.281	209.75
763.464	166.74
763.648	310.1
763.831	168.79
764.015	131.92
764.198	275.28
764.381	258.9
764.564	324.43
764.748	236.37
764.931	197.46
765.114	191.31
765.297	310.1
765.481	176.98
765.664	150.36
765.847	262.99
766.03	353.1
766.213	115.54
766.397	170.83
766.58	228.18
766.763	226.13
766.946	201.55
767.129	260.95
767.312	197.46
767.495	162.64
767.678	119.64
767.861	306
768.044	181.07
768.227	199.51
768.41	199.51
768.593	224.08
768.776	213.84
768.959	115.54
769.142	308.05
769.324	176.98
769.507	142.16
769.69	201.55
769.873	172.88
770.056	396.11
770.239	90.96
770.421	254.8
770.604	256.85
770.787	271.19
770.97	131.92
771.152	119.64
771.335	320.34
771.518	168.79
771.7	240.47
771.883	322.38
772.066	131.92
772.248	185.17
772.431	226.13
772.613	310.1
772.796	158.55
772.978	195.41
773.161	285.52
773.343	150.36
773.526	131.92
773.708	97.11
773.891	70.48
774.073	219.99
774.256	183.12
774.438	283.47
774.621	125.78
774.803	176.98
774.985	138.07
775.168	203.6
775.35	136.02
775.532	201.55
775.715	90.96
775.897	176.98
776.079	131.92
776.261	193.36
776.444	142.16
776.626	133.97
776.808	93.01
776.99	86.87
777.173	156.5
777.355	133.97
777.537	115.54
777.719	189.27
777.901	76.63
778.083	101.2
778.265	41.81
778.447	234.32
778.629	146.26
778.811	287.57
778.993	267.09
779.175	162.64
779.357	144.21
779.539	21.33
779.721	164.69
779.903	162.64
780.085	84.82
780.267	168.79
780.449	125.78
780.631	226.13
780.812	269.14
780.994	127.83
781.176	109.4
781.358	142.16
781.54	105.3
781.721	127.83
781.903	170.83
782.085	109.4
782.267	201.55
782.448	33.62
782.63	101.2
782.812	142.16
782.993	183.12
783.175	211.79
783.357	107.35
783.538	129.88
783.72	35.67
783.901	54.1
784.083	74.58
784.264	150.36
784.446	129.88
784.627	21.33
784.809	183.12
784.99	62.29
785.172	97.11
785.353	142.16
785.535	162.64
785.716	-15.53
785.897	115.54
786.079	41.81
786.26	109.4
786.441	166.74
786.623	0.85
786.804	23.38
786.985	240.47
787.167	90.96
787.348	197.46
787.529	111.44
787.71	166.74
787.891	76.63
788.073	64.34
788.254	9.05
788.435	181.07
788.616	160.59
788.797	29.52
788.978	23.38
789.159	23.38
789.34	107.35
789.522	70.48
789.703	99.16
789.884	64.34
790.065	82.77
790.246	197.46
790.427	27.48
790.607	213.84
790.788	129.88
790.969	37.72
791.15	187.22
791.331	56.15
791.512	97.11
791.693	31.57
791.874	4.95
792.054	236.37
792.235	195.41
792.416	19.29
792.597	82.77
792.778	107.35
792.958	119.64
793.139	115.54
793.32	23.38
793.5	0.85
793.681	58.2
793.862	111.44
794.042	78.68
794.223	-38.06
794.404	27.48
794.584	25.43
794.765	56.15
794.945	136.02
795.126	60.24
795.306	185.17
795.487	84.82
795.667	47.96
795.848	76.63
796.028	-1.19
796.209	9.05
796.389	109.4
796.57	117.59
796.75	-31.91
796.93	105.3
797.111	-36.01
797.291	50
797.471	101.2
797.652	103.25
797.832	7
798.012	232.27
798.192	0.85
798.373	-21.67
798.553	9.05
798.733	29.52
798.913	13.14
799.093	0.85
799.274	138.07
799.454	144.21
799.634	168.79
799.814	138.07
799.994	47.96
800.174	15.19
800.354	35.67
800.534	-50.35
800.714	105.3
800.894	25.43
801.074	-44.2
801.254	-5.29
801.434	209.75
801.614	60.24
801.794	-40.11
801.974	2022.2
802.154	37.72
802.334	74.58
802.514	-5.29
802.693	78.68
802.873	43.86
803.053	193.36
803.233	-5.29
803.413	64.34
803.592	27.48
803.772	27.48
803.952	21.33
804.131	-23.72
804.311	117.59
804.491	166.74
804.67	-21.67
804.85	-19.63
805.03	29.52
805.209	176.98
805.389	-5.29
805.568	7
805.748	-17.58
805.928	58.2
806.107	58.2
806.287	74.58
806.466	62.29
806.646	95.06
806.825	107.35
807.004	13.14
807.184	148.31
807.363	78.68
807.543	29.52
807.722	-27.82
807.901	90.96
808.081	43.86
808.26	-58.54
808.439	160.59
808.619	70.48
808.798	56.15
808.977	41.81
809.156	58.2
809.336	95.06
809.515	131.92
809.694	-11.43
809.873	-9.39
810.052	78.68
810.231	121.68
810.411	4.95
810.59	43.86
810.769	25.43
810.948	136.02
811.127	-27.82
811.306	45.91
811.485	78.68
811.664	115.54
811.843	62.29
812.022	47.96
812.201	11.09
812.38	-9.39
812.559	45.91
812.737	97.11
812.916	-83.11
813.095	2.9
813.274	11.09
813.453	31.57
813.632	105.3
813.811	54.1
813.989	-7.34
814.168	84.82
814.347	-7.34
814.526	19.29
814.704	176.98
814.883	119.64
815.062	-44.2
815.24	105.3
815.419	-29.87
815.598	37.72
815.776	-48.3
815.955	25.43
816.133	-76.97
816.312	60.24
816.49	-29.87
816.669	23.38
816.847	70.48
817.026	62.29
817.204	-13.48
817.383	25.43
817.561	-42.15
817.74	131.92
817.918	117.59
818.097	-50.35
818.275	101.2
818.453	68.44
818.632	84.82
818.81	-44.2
818.988	-72.87
819.167	-122.02
819.345	13.14
819.523	-3.24
819.701	74.58
819.879	119.64
820.058	50
820.236	62.29
820.414	39.76
820.592	21.33
820.77	-19.63
820.948	62.29
821.127	29.52
821.305	109.4
821.483	-48.3
821.661	160.59
821.839	58.2
822.017	-17.58
822.195	60.24
822.373	66.39
822.551	47.96
822.729	72.53
822.907	19.29
823.085	23.38
823.262	-56.49
823.44	23.38
823.618	19.29
823.796	-19.63
823.974	37.72
824.152	-11.43
824.329	2.9
824.507	-19.63
824.685	7
824.863	21.33
825.04	-3.24
825.218	-5.29
825.396	60.24
825.574	-33.96
825.751	7
825.929	129.88
826.107	-38.06
826.284	11.09
826.462	78.68
826.639	0.85
826.817	-60.59
826.994	52.05
827.172	25.43
827.349	121.68
827.527	50
827.704	25.43
827.882	66.39
828.059	107.35
828.237	-23.72
828.414	166.74
828.591	-138.41
828.769	-27.82
828.946	-107.69
829.124	127.83
829.301	113.49
829.478	0.85
829.655	74.58
829.833	-25.77
830.01	-31.91
830.187	76.63
830.364	35.67
830.542	47.96
830.719	142.16
830.896	142.16
831.073	58.2
831.25	-46.25
831.427	86.87
831.604	29.52
831.782	41.81
831.959	99.16
832.136	13.14
832.313	62.29
832.49	23.38
832.667	39.76
832.844	-36.01
833.021	62.29
833.198	78.68
833.374	0.85
833.551	-17.58
833.728	-33.96
833.905	138.07
834.082	-130.22
834.259	39.76
834.436	19.29
834.612	-87.21
834.789	58.2
834.966	13.14
835.143	117.59
835.319	7
835.496	45.91
835.673	43.86
835.85	17.24
836.026	37.72
836.203	43.86
836.38	43.86
836.556	-33.96
836.733	-19.63
836.909	127.83
837.086	4.95
837.262	-48.3
837.439	9.05
837.616	-38.06
837.792	45.91
837.968	7
838.145	-89.26
838.321	-74.92
838.498	113.49
838.674	109.4
838.851	33.62
839.027	11.09
839.203	17.24
839.38	76.63
839.556	17.24
839.732	136.02
839.909	13.14
840.085	82.77
840.261	-42.15
840.437	70.48
840.614	-27.82
840.79	52.05
840.966	17.24
841.142	-11.43
841.318	-64.68
841.494	88.92
841.671	88.92
841.847	-54.44
842.023	-58.54
842.199	62.29
842.375	131.92
842.551	-105.64
842.727	-62.63
842.903	154.45
843.079	-33.96
843.255	111.44
843.431	-9.39
843.607	39.76
843.783	-101.55
843.959	-17.58
844.134	-72.87
844.31	78.68
844.486	-44.2
844.662	-54.44
844.838	43.86
845.013	27.48
845.189	35.67
845.365	-17.58
845.541	7
845.716	76.63
845.892	78.68
846.068	21.33
846.244	11.09
846.419	78.68
846.595	17.24
846.77	-97.45
846.946	68.44
847.122	-25.77
847.297	23.38
847.473	74.58
847.648	-36.01
847.824	-15.53
847.999	-23.72
848.175	-11.43
848.35	84.82
848.526	164.69
848.701	66.39
848.876	50
849.052	113.49
849.227	-29.87
849.403	60.24
849.578	31.57
849.753	70.48
849.929	68.44
850.104	-9.39
850.279	31.57
850.454	148.31
850.63	86.87
850.805	45.91
850.98	-11.43
851.155	15.19
851.33	93.01
851.505	-85.16
851.681	125.78
851.856	-83.11
852.031	19.29
852.206	58.2
852.381	-97.45
852.556	-64.68
852.731	33.62
852.906	60.24
853.081	39.76
853.256	47.96
853.431	-13.48
853.606	-7.34
853.781	-21.67
853.956	-85.16
854.131	4.95
854.305	-95.4
854.48	-44.2
854.655	-7.34
854.83	9.05
855.005	-58.54
855.18	-7.34
855.354	4.95
855.529	17.24
855.704	25.43
855.879	78.68
856.053	9.05
856.228	2.9
856.403	-33.96
856.577	88.92
856.752	-85.16
856.926	-11.43
857.101	29.52
857.276	-93.35
857.45	35.67
857.625	9.05
857.799	105.3
857.974	-27.82
858.148	-19.63
858.323	21.33
858.497	13.14
858.672	-42.15
858.846	2.9
859.02	0.85
859.195	-23.72
859.369	-3.24
859.543	58.2
859.718	33.62
859.892	0.85
860.066	-36.01
860.241	-103.59
860.415	-56.49
860.589	-58.54
860.763	45.91
860.938	-33.96
861.112	7
861.286	-81.07
861.46	64.34
861.634	11.09
861.808	138.07
861.982	9.05
862.157	-42.15
862.331	-15.53
862.505	-21.67
862.679	-1.19
862.853	-72.87
863.027	7
863.201	99.16
863.375	2.9
863.549	19.29
863.722	-36.01
863.896	31.57
864.07	-52.39
864.244	-5.29
864.418	41.81
864.592	-1.19
864.766	13.14
864.939	72.53
865.113	-50.35
865.287	70.48
865.461	-99.5
865.634	45.91
865.808	17.24
865.982	-23.72
866.156	-48.3
866.329	-111.78
866.503	54.1
866.676	50
866.85	-3.24
867.024	-19.63
867.197	101.2
867.371	50
867.544	105.3
867.718	-68.78
867.891	33.62
868.065	-64.68
868.238	35.67
868.412	111.44
868.585	74.58
868.759	-76.97
868.932	-21.67
869.105	-99.5
869.279	29.52
869.452	-44.2
869.625	82.77
869.799	-46.25
869.972	-60.59
870.145	-9.39
870.319	109.4
870.492	21.33
870.665	-52.39
870.838	33.62
871.011	-150.7
871.185	-40.11
871.358	-64.68
871.531	50
871.704	17.24
871.877	-1.19
872.05	-36.01
872.223	-79.02
872.396	164.69
872.569	76.63
872.742	-115.88
872.915	138.07
873.088	-25.77
873.261	-79.02
873.434	95.06
873.607	-7.34
873.78	47.96
873.953	-115.88
874.126	25.43
874.299	17.24
874.471	11.09
874.644	-17.58
874.817	29.52
874.99	125.78
875.163	-29.87
875.335	64.34
875.508	-68.78
875.681	185.17
875.853	-40.11
876.026	11.09
876.199	27.48
876.371	-27.82
876.544	33.62
876.717	52.05
876.889	-44.2
877.062	2.9
877.234	-44.2
877.407	-85.16
877.579	13.14
877.752	-31.91
877.924	113.49
878.097	-38.06
878.269	117.59
878.442	-33.96
878.614	127.83
878.786	54.1
878.959	39.76
879.131	11.09
879.303	-95.4
879.476	-21.67
879.648	93.01
879.82	33.62
879.993	-46.25
880.165	-21.67
880.337	-3.24
880.509	-17.58
880.681	-83.11
880.854	-17.58
881.026	19.29
881.198	164.69
881.37	23.38
881.542	-17.58
881.714	62.29
881.886	-42.15
882.058	-36.01
882.23	66.39
882.402	0.85
882.574	4.95
882.746	56.15
882.918	62.29
883.09	11.09
883.262	19.29
883.434	74.58
883.606	-54.44
883.778	-38.06
883.95	97.11
884.122	-23.72
884.293	72.53
884.465	-15.53
884.637	72.53
884.809	-33.96
884.98	43.86
885.152	0.85
885.324	68.44
885.496	-64.68
885.667	-31.91
885.839	19.29
886.011	78.68
886.182	50
886.354	60.24
886.525	-15.53
886.697	64.34
886.869	43.86
887.04	-21.67
887.212	111.44
887.383	136.02
887.555	-7.34
887.726	-44.2
887.897	-36.01
888.069	-66.73
888.24	37.72
888.412	-25.77
888.583	-5.29
888.754	19.29
888.926	-122.02
889.097	-9.39
889.268	-64.68
889.44	43.86
889.611	-103.59
889.782	-40.11
889.953	-62.63
890.125	129.88
890.296	-142.5
890.467	21.33
890.638	-11.43
890.809	35.67
890.98	-89.26
891.151	37.72
891.323	103.25
891.494	19.29
891.665	13.14
891.836	-79.02
892.007	25.43
892.178	27.48
892.349	-29.87
892.52	-76.97
892.691	41.81
892.862	11.09
893.032	-64.68
893.203	-13.48
893.374	-15.53
893.545	15.19
893.716	-25.77
893.887	52.05
894.057	50
894.228	70.48
894.399	-15.53
894.57	117.59
894.74	-1.19
894.911	47.96
895.082	52.05
895.253	-42.15
895.423	-9.39
895.594	72.53
895.764	64.34
895.935	-85.16
896.106	80.72
896.276	-130.22
896.447	47.96
896.617	-33.96
896.788	-48.3
896.958	-79.02
897.129	-25.77
897.299	25.43
897.47	101.2
897.64	90.96
897.81	52.05
897.981	-15.53
898.151	-13.48
898.322	9.05
898.492	9.05
898.662	-109.74
898.832	-29.87
899.003	2.9
899.173	41.81
899.343	-64.68
899.513	-74.92
