Data from USB4F104151__52__10-25-47-932.txt Node

Date: Wed Feb 26 10:25:47 EST 2025
User: louis
Spectrometer: USB4F10415
Trigger mode: 4
Integration Time (sec): 1.000000E-1
Scans to average: 1
Electric dark correction enabled: true
Nonlinearity correction enabled: false
Boxcar width: 0
XAxis mode: Wavelengths
Number of Pixels in Spectrum: 3648
>>>>>Begin Spectral Data<<<<<
178.204	-369.66
178.424	-369.66
178.644	-369.66
178.864	-349.18
179.084	-349.18
179.304	-80.89
179.524	9.22
179.744	48.13
179.964	7.17
180.184	31.74
180.404	97.28
180.624	-35.84
180.844	-19.46
181.064	-123.9
181.283	17.41
181.503	-25.6
181.723	74.75
181.943	-80.89
182.163	209.92
182.383	25.6
182.602	99.33
182.822	128
183.042	148.48
183.262	1.02
183.482	13.31
183.701	72.7
183.921	99.33
184.141	-5.12
184.361	72.7
184.58	95.23
184.8	-13.31
185.02	9.22
185.239	168.96
185.459	95.23
185.679	197.63
185.898	-41.98
186.118	95.23
186.338	146.43
186.557	128
186.777	-11.26
186.997	17.41
187.216	11.26
187.436	95.23
187.655	7.17
187.875	105.47
188.095	56.32
188.314	82.94
188.534	68.61
188.753	-62.46
188.973	125.95
189.192	175.1
189.412	93.18
189.631	1.02
189.851	27.65
190.07	226.3
190.29	-13.31
190.509	56.32
190.729	87.04
190.948	60.42
191.168	304.12
191.387	52.22
191.607	37.89
191.826	146.43
192.045	39.94
192.265	39.94
192.484	46.08
192.704	56.32
192.923	-23.55
193.142	228.35
193.362	76.8
193.581	166.91
193.8	48.13
194.02	130.05
194.239	29.7
194.458	76.8
194.678	-5.12
194.897	-19.46
195.116	84.99
195.335	48.13
195.555	48.13
195.774	-11.26
195.993	123.9
196.212	54.27
196.432	3.07
196.651	-33.79
196.87	46.08
197.089	189.44
197.308	44.03
197.528	115.71
197.747	-17.41
197.966	50.18
198.185	140.29
198.404	-17.41
198.623	97.28
198.842	152.57
199.062	93.18
199.281	132.09
199.5	144.38
199.719	130.05
199.938	46.08
200.157	154.62
200.376	152.57
200.595	162.81
200.814	31.74
201.033	70.65
201.252	158.72
201.471	60.42
201.69	29.7
201.909	48.13
202.128	78.85
202.347	23.55
202.566	-25.6
202.785	37.89
203.004	37.89
203.223	201.72
203.442	87.04
203.661	44.03
203.879	7.17
204.098	162.81
204.317	50.18
204.536	97.28
204.755	99.33
204.974	93.18
205.193	37.89
205.411	93.18
205.63	140.29
205.849	52.22
206.068	-15.36
206.287	3.07
206.505	160.77
206.724	13.31
206.943	62.46
207.162	27.65
207.381	185.34
207.599	121.85
207.818	99.33
208.037	-13.31
208.255	64.51
208.474	9.22
208.693	97.28
208.911	62.46
209.13	115.71
209.349	136.19
209.567	78.85
209.786	125.95
210.005	99.33
210.223	-23.55
210.442	-95.23
210.661	7.17
210.879	121.85
211.098	105.47
211.316	78.85
211.535	50.18
211.753	62.46
211.972	123.9
212.191	101.37
212.409	87.04
212.628	162.81
212.846	-25.6
213.065	115.71
213.283	111.61
213.502	19.46
213.72	74.75
213.938	50.18
214.157	68.61
214.375	154.62
214.594	54.27
214.812	105.47
215.031	-50.18
215.249	-15.36
215.467	93.18
215.686	93.18
215.904	50.18
216.122	31.74
216.341	164.86
216.559	101.37
216.778	78.85
216.996	144.38
217.214	-3.07
217.432	29.7
217.651	-25.6
217.869	15.36
218.087	72.7
218.306	44.03
218.524	93.18
218.742	23.55
218.96	132.09
219.179	-11.26
219.397	72.7
219.615	230.4
219.833	128
220.051	-15.36
220.27	66.56
220.488	115.71
220.706	89.09
220.924	-48.13
221.142	46.08
221.36	99.33
221.578	64.51
221.796	56.32
222.015	-7.17
222.233	54.27
222.451	160.77
222.669	-19.46
222.887	84.99
223.105	11.26
223.323	35.84
223.541	15.36
223.759	60.42
223.977	46.08
224.195	113.66
224.413	105.47
224.631	46.08
224.849	41.98
225.067	201.72
225.285	-17.41
225.503	25.6
225.721	-60.42
225.939	128
226.157	52.22
226.375	330.75
226.592	25.6
226.81	39.94
227.028	152.57
227.246	109.57
227.464	35.84
227.682	125.95
227.9	117.76
228.117	64.51
228.335	103.42
228.553	31.74
228.771	3.07
228.989	93.18
229.206	44.03
229.424	-29.7
229.642	-15.36
229.86	19.46
230.077	242.68
230.295	78.85
230.513	136.19
230.731	113.66
230.948	230.4
231.166	148.48
231.384	35.84
231.601	19.46
231.819	201.72
232.037	-84.99
232.254	1.02
232.472	19.46
232.689	54.27
232.907	185.34
233.125	48.13
233.342	-3.07
233.56	-35.84
233.777	11.26
233.995	54.27
234.213	144.38
234.43	150.53
234.648	82.94
234.865	25.6
235.083	-41.98
235.3	70.65
235.518	101.37
235.735	91.13
235.953	117.76
236.17	39.94
236.388	21.5
236.605	111.61
236.822	99.33
237.04	109.57
237.257	84.99
237.475	-1.02
237.692	97.28
237.909	128
238.127	-37.89
238.344	117.76
238.562	60.42
238.779	-82.94
238.996	15.36
239.214	-25.6
239.431	121.85
239.648	62.46
239.865	41.98
240.083	123.9
240.3	1.02
240.517	48.13
240.735	70.65
240.952	156.67
241.169	146.43
241.386	56.32
241.603	48.13
241.821	-54.27
242.038	64.51
242.255	72.7
242.472	-80.89
242.689	35.84
242.907	132.09
243.124	121.85
243.341	76.8
243.558	48.13
243.775	3.07
243.992	-54.27
244.209	82.94
244.426	164.86
244.643	89.09
244.86	13.31
245.078	134.14
245.295	60.42
245.512	84.99
245.729	33.79
245.946	183.29
246.163	64.51
246.38	-9.22
246.597	111.61
246.814	35.84
247.031	44.03
247.248	-17.41
247.464	123.9
247.681	17.41
247.898	95.23
248.115	101.37
248.332	-5.12
248.549	152.57
248.766	148.48
248.983	33.79
249.2	27.65
249.417	39.94
249.633	-1.02
249.85	33.79
250.067	-9.22
250.284	89.09
250.501	144.38
250.717	97.28
250.934	-60.42
251.151	70.65
251.368	29.7
251.585	46.08
251.801	60.42
252.018	-31.74
252.235	134.14
252.451	-17.41
252.668	39.94
252.885	171.01
253.102	25.6
253.318	-1.02
253.535	44.03
253.752	111.61
253.968	11.26
254.185	-64.51
254.401	48.13
254.618	35.84
254.835	1.02
255.051	158.72
255.268	119.81
255.484	89.09
255.701	-1.02
255.917	158.72
256.134	9.22
256.351	21.5
256.567	-7.17
256.784	37.89
257	-128
257.217	115.71
257.433	168.96
257.65	-11.26
257.866	162.81
258.082	9.22
258.299	-21.5
258.515	7.17
258.732	27.65
258.948	-37.89
259.165	56.32
259.381	72.7
259.597	44.03
259.814	35.84
260.03	-13.31
260.246	-17.41
260.463	125.95
260.679	113.66
260.895	-3.07
261.112	68.61
261.328	76.8
261.544	74.75
261.761	156.67
261.977	60.42
262.193	-21.5
262.409	125.95
262.626	148.48
262.842	91.13
263.058	70.65
263.274	60.42
263.49	111.61
263.707	119.81
263.923	187.39
264.139	-19.46
264.355	33.79
264.571	140.29
264.787	46.08
265.004	177.15
265.22	84.99
265.436	-17.41
265.652	13.31
265.868	101.37
266.084	46.08
266.3	111.61
266.516	-15.36
266.732	74.75
266.948	103.42
267.164	46.08
267.38	111.61
267.596	52.22
267.812	175.1
268.028	46.08
268.244	11.26
268.46	27.65
268.676	39.94
268.892	37.89
269.108	60.42
269.324	11.26
269.54	35.84
269.756	140.29
269.972	-52.22
270.188	-5.12
270.403	-35.84
270.619	-39.94
270.835	125.95
271.051	64.51
271.267	-3.07
271.483	-37.89
271.698	128
271.914	105.47
272.13	13.31
272.346	103.42
272.562	72.7
272.777	146.43
272.993	17.41
273.209	103.42
273.425	89.09
273.64	46.08
273.856	148.48
274.072	-5.12
274.287	52.22
274.503	103.42
274.719	66.56
274.934	11.26
275.15	-111.61
275.366	72.7
275.581	11.26
275.797	58.37
276.012	89.09
276.228	97.28
276.444	25.6
276.659	134.14
276.875	-23.55
277.09	-25.6
277.306	82.94
277.521	105.47
277.737	97.28
277.952	62.46
278.168	-5.12
278.383	-9.22
278.599	29.7
278.814	87.04
279.03	60.42
279.245	121.85
279.461	31.74
279.676	113.66
279.892	17.41
280.107	17.41
280.322	39.94
280.538	37.89
280.753	64.51
280.969	44.03
281.184	1.02
281.399	150.53
281.615	37.89
281.83	13.31
282.045	-5.12
282.26	-1.02
282.476	52.22
282.691	101.37
282.906	33.79
283.122	54.27
283.337	-58.37
283.552	107.52
283.767	58.37
283.983	50.18
284.198	74.75
284.413	101.37
284.628	-35.84
284.843	33.79
285.058	93.18
285.274	89.09
285.489	39.94
285.704	82.94
285.919	19.46
286.134	-29.7
286.349	7.17
286.564	15.36
286.779	211.96
286.995	-31.74
287.21	9.22
287.425	89.09
287.64	13.31
287.855	117.76
288.07	-54.27
288.285	82.94
288.5	134.14
288.715	52.22
288.93	99.33
289.145	-1.02
289.36	125.95
289.575	72.7
289.79	117.76
290.004	37.89
290.219	134.14
290.434	-35.84
290.649	-23.55
290.864	80.89
291.079	37.89
291.294	87.04
291.509	39.94
291.724	39.94
291.938	-1.02
292.153	80.89
292.368	80.89
292.583	27.65
292.798	136.19
293.012	80.89
293.227	78.85
293.442	60.42
293.657	123.9
293.871	115.71
294.086	31.74
294.301	216.06
294.516	128
294.73	105.47
294.945	48.13
295.16	46.08
295.374	93.18
295.589	72.7
295.804	62.46
296.018	78.85
296.233	132.09
296.447	101.37
296.662	-1.02
296.877	156.67
297.091	128
297.306	15.36
297.52	70.65
297.735	41.98
297.949	35.84
298.164	41.98
298.378	68.61
298.593	-33.79
298.807	9.22
299.022	89.09
299.236	107.52
299.451	54.27
299.665	23.55
299.88	39.94
300.094	93.18
300.309	101.37
300.523	68.61
300.737	9.22
300.952	187.39
301.166	103.42
301.381	60.42
301.595	37.89
301.809	91.13
302.024	56.32
302.238	46.08
302.452	89.09
302.667	39.94
302.881	162.81
303.095	138.24
303.309	56.32
303.524	107.52
303.738	3.07
303.952	13.31
304.166	93.18
304.381	-78.85
304.595	177.15
304.809	27.65
305.023	113.66
305.237	91.13
305.452	70.65
305.666	119.81
305.88	132.09
306.094	185.34
306.308	62.46
306.522	115.71
306.736	82.94
306.95	105.47
307.164	97.28
307.379	39.94
307.593	158.72
307.807	60.42
308.021	72.7
308.235	125.95
308.449	5.12
308.663	66.56
308.877	252.92
309.091	78.85
309.305	101.37
309.519	-68.61
309.733	164.86
309.947	-52.22
310.161	46.08
310.374	164.86
310.588	74.75
310.802	11.26
311.016	19.46
311.23	138.24
311.444	5.12
311.658	33.79
311.872	80.89
312.085	54.27
312.299	66.56
312.513	144.38
312.727	54.27
312.941	7.17
313.154	25.6
313.368	46.08
313.582	56.32
313.796	99.33
314.009	78.85
314.223	128
314.437	154.62
314.651	76.8
314.864	7.17
315.078	66.56
315.292	7.17
315.505	54.27
315.719	-11.26
315.933	78.85
316.146	87.04
316.36	35.84
316.573	119.81
316.787	107.52
317.001	134.14
317.214	-19.46
317.428	64.51
317.641	21.5
317.855	-13.31
318.068	121.85
318.282	-9.22
318.495	189.44
318.709	7.17
318.922	-9.22
319.136	191.49
319.349	76.8
319.563	56.32
319.776	78.85
319.99	-41.98
320.203	89.09
320.417	82.94
320.63	162.81
320.843	136.19
321.057	78.85
321.27	37.89
321.483	134.14
321.697	154.62
321.91	113.66
322.124	105.47
322.337	99.33
322.55	-62.46
322.763	84.99
322.977	3.07
323.19	-13.31
323.403	117.76
323.617	144.38
323.83	128
324.043	31.74
324.256	76.8
324.469	-21.5
324.683	121.85
324.896	93.18
325.109	66.56
325.322	-54.27
325.535	46.08
325.748	113.66
325.962	60.42
326.175	-9.22
326.388	5.12
326.601	101.37
326.814	-1.02
327.027	87.04
327.24	154.62
327.453	-95.23
327.666	68.61
327.879	199.68
328.092	115.71
328.305	80.89
328.518	-5.12
328.731	-7.17
328.944	48.13
329.157	128
329.37	11.26
329.583	148.48
329.796	146.43
330.009	-46.08
330.222	74.75
330.435	95.23
330.648	111.61
330.861	103.42
331.073	39.94
331.286	74.75
331.499	13.31
331.712	25.6
331.925	-3.07
332.138	64.51
332.35	121.85
332.563	7.17
332.776	148.48
332.989	-3.07
333.202	56.32
333.414	107.52
333.627	21.5
333.84	66.56
334.053	31.74
334.265	-3.07
334.478	-3.07
334.691	13.31
334.903	15.36
335.116	52.22
335.329	29.7
335.541	72.7
335.754	191.49
335.966	44.03
336.179	31.74
336.392	68.61
336.604	93.18
336.817	13.31
337.029	107.52
337.242	80.89
337.454	177.15
337.667	15.36
337.88	228.35
338.092	103.42
338.305	128
338.517	3.07
338.729	117.76
338.942	64.51
339.154	35.84
339.367	1.02
339.579	123.9
339.792	11.26
340.004	95.23
340.217	21.5
340.429	29.7
340.641	58.37
340.854	64.51
341.066	76.8
341.278	171.01
341.491	148.48
341.703	27.65
341.915	-95.23
342.128	173.05
342.34	23.55
342.552	9.22
342.764	21.5
342.977	56.32
343.189	166.91
343.401	87.04
343.613	-89.09
343.826	17.41
344.038	17.41
344.25	134.14
344.462	-44.03
344.674	87.04
344.886	64.51
345.099	148.48
345.311	105.47
345.523	23.55
345.735	-1.02
345.947	44.03
346.159	128
346.371	105.47
346.583	113.66
346.795	193.53
347.007	21.5
347.219	33.79
347.431	5.12
347.643	209.92
347.855	25.6
348.067	173.05
348.279	-87.04
348.491	78.85
348.703	84.99
348.915	27.65
349.127	5.12
349.339	60.42
349.551	25.6
349.763	113.66
349.975	70.65
350.187	78.85
350.399	207.87
350.61	195.58
350.822	60.42
351.034	15.36
351.246	35.84
351.458	121.85
351.669	132.09
351.881	84.99
352.093	99.33
352.305	103.42
352.517	130.05
352.728	113.66
352.94	136.19
353.152	111.61
353.363	44.03
353.575	154.62
353.787	197.63
353.999	121.85
354.21	154.62
354.422	68.61
354.633	13.31
354.845	72.7
355.057	31.74
355.268	97.28
355.48	76.8
355.692	-84.99
355.903	115.71
356.115	-50.18
356.326	-41.98
356.538	216.06
356.749	123.9
356.961	171.01
357.172	23.55
357.384	-25.6
357.595	265.21
357.807	1.02
358.018	46.08
358.23	115.71
358.441	142.33
358.653	78.85
358.864	74.75
359.075	74.75
359.287	64.51
359.498	123.9
359.709	68.61
359.921	78.85
360.132	140.29
360.344	78.85
360.555	21.5
360.766	35.84
360.977	9.22
361.189	95.23
361.4	46.08
361.611	197.63
361.823	138.24
362.034	72.7
362.245	33.79
362.456	54.27
362.667	138.24
362.879	-50.18
363.09	11.26
363.301	99.33
363.512	117.76
363.723	9.22
363.935	166.91
364.146	166.91
364.357	27.65
364.568	91.13
364.779	-19.46
364.99	50.18
365.201	3.07
365.412	138.24
365.623	-37.89
365.834	130.05
366.045	82.94
366.256	70.65
366.467	97.28
366.678	39.94
366.889	-11.26
367.1	-17.41
367.311	74.75
367.522	29.7
367.733	175.1
367.944	97.28
368.155	68.61
368.366	117.76
368.577	91.13
368.788	44.03
368.999	27.65
369.209	107.52
369.42	201.72
369.631	271.36
369.842	121.85
370.053	72.7
370.264	130.05
370.474	-19.46
370.685	37.89
370.896	68.61
371.107	166.91
371.317	50.18
371.528	35.84
371.739	115.71
371.95	99.33
372.16	62.46
372.371	-7.17
372.582	50.18
372.792	89.09
373.003	111.61
373.214	39.94
373.424	74.75
373.635	-5.12
373.846	134.14
374.056	119.81
374.267	97.28
374.477	136.19
374.688	-66.56
374.898	123.9
375.109	109.57
375.319	123.9
375.53	132.09
375.74	179.2
375.951	-46.08
376.161	105.47
376.372	154.62
376.582	64.51
376.793	91.13
377.003	78.85
377.214	-17.41
377.424	125.95
377.635	19.46
377.845	3.07
378.055	97.28
378.266	-87.04
378.476	39.94
378.686	105.47
378.897	80.89
379.107	138.24
379.317	119.81
379.528	35.84
379.738	142.33
379.948	13.31
380.158	162.81
380.369	25.6
380.579	27.65
380.789	68.61
380.999	152.57
381.21	68.61
381.42	220.16
381.63	11.26
381.84	140.29
382.05	5.12
382.261	87.04
382.471	144.38
382.681	103.42
382.891	160.77
383.101	99.33
383.311	-99.33
383.521	56.32
383.731	132.09
383.941	156.67
384.151	99.33
384.361	5.12
384.571	70.65
384.781	105.47
384.991	242.68
385.201	203.77
385.411	115.71
385.621	70.65
385.831	97.28
386.041	91.13
386.251	103.42
386.461	144.38
386.671	21.5
386.881	115.71
387.091	119.81
387.301	158.72
387.511	99.33
387.72	119.81
387.93	115.71
388.14	-95.23
388.35	39.94
388.56	111.61
388.769	103.42
388.979	1.02
389.189	1.02
389.399	80.89
389.609	150.53
389.818	179.2
390.028	44.03
390.238	121.85
390.447	-23.55
390.657	109.57
390.867	-3.07
391.076	-56.32
391.286	142.33
391.496	142.33
391.705	-3.07
391.915	211.96
392.125	115.71
392.334	37.89
392.544	107.52
392.753	-21.5
392.963	-3.07
393.172	56.32
393.382	3.07
393.591	132.09
393.801	-50.18
394.01	156.67
394.22	44.03
394.429	-15.36
394.639	5.12
394.848	132.09
395.058	93.18
395.267	-13.31
395.477	164.86
395.686	78.85
395.895	224.25
396.105	185.34
396.314	97.28
396.524	119.81
396.733	50.18
396.942	187.39
397.152	125.95
397.361	203.77
397.57	130.05
397.78	95.23
397.989	95.23
398.198	220.16
398.407	37.89
398.617	74.75
398.826	89.09
399.035	119.81
399.244	117.76
399.453	134.14
399.663	72.7
399.872	95.23
400.081	56.32
400.29	211.96
400.499	-3.07
400.708	66.56
400.917	52.22
401.127	15.36
401.336	-29.7
401.545	230.4
401.754	121.85
401.963	76.8
402.172	-21.5
402.381	13.31
402.59	-9.22
402.799	58.37
403.008	164.86
403.217	132.09
403.426	62.46
403.635	-33.79
403.844	23.55
404.053	9.22
404.262	56.32
404.471	185.34
404.68	97.28
404.888	121.85
405.097	109.57
405.306	93.18
405.515	136.19
405.724	66.56
405.933	113.66
406.142	31.74
406.35	154.62
406.559	87.04
406.768	58.37
406.977	220.16
407.185	121.85
407.394	74.75
407.603	-46.08
407.812	136.19
408.02	154.62
408.229	93.18
408.438	119.81
408.646	-60.42
408.855	125.95
409.064	76.8
409.272	41.98
409.481	132.09
409.69	-11.26
409.898	-68.61
410.107	146.43
410.315	171.01
410.524	23.55
410.733	87.04
410.941	130.05
411.15	99.33
411.358	87.04
411.567	142.33
411.775	31.74
411.984	56.32
412.192	52.22
412.401	13.31
412.609	171.01
412.818	134.14
413.026	70.65
413.234	13.31
413.443	37.89
413.651	31.74
413.86	48.13
414.068	130.05
414.276	125.95
414.485	9.22
414.693	191.49
414.901	162.81
415.11	33.79
415.318	27.65
415.526	99.33
415.734	105.47
415.943	138.24
416.151	138.24
416.359	19.46
416.567	105.47
416.776	140.29
416.984	123.9
417.192	232.44
417.4	146.43
417.608	21.5
417.817	68.61
418.025	154.62
418.233	70.65
418.441	11.26
418.649	-25.6
418.857	113.66
419.065	220.16
419.273	46.08
419.481	121.85
419.689	103.42
419.897	27.65
420.105	35.84
420.313	148.48
420.521	173.05
420.729	214.01
420.937	31.74
421.145	15.36
421.353	132.09
421.561	154.62
421.769	136.19
421.977	48.13
422.185	50.18
422.393	29.7
422.601	148.48
422.809	93.18
423.017	68.61
423.224	136.19
423.432	119.81
423.64	13.31
423.848	105.47
424.056	76.8
424.263	148.48
424.471	115.71
424.679	228.35
424.887	87.04
425.094	293.88
425.302	144.38
425.51	-15.36
425.718	189.44
425.925	158.72
426.133	39.94
426.341	228.35
426.548	121.85
426.756	152.57
426.964	27.65
427.171	138.24
427.379	166.91
427.586	119.81
427.794	175.1
428.001	187.39
428.209	132.09
428.417	207.87
428.624	134.14
428.832	101.37
429.039	95.23
429.247	146.43
429.454	130.05
429.662	183.29
429.869	224.25
430.076	216.06
430.284	179.2
430.491	226.3
430.699	220.16
430.906	232.44
431.114	140.29
431.321	89.09
431.528	211.96
431.736	152.57
431.943	179.2
432.15	171.01
432.358	197.63
432.565	236.54
432.772	50.18
432.979	238.59
433.187	97.28
433.394	273.4
433.601	224.25
433.808	300.03
434.016	287.74
434.223	242.68
434.43	228.35
434.637	244.73
434.844	287.74
435.052	205.82
435.259	244.73
435.466	390.14
435.673	234.49
435.88	308.22
436.087	330.75
436.294	414.71
436.501	306.17
436.708	291.84
436.915	291.84
437.122	408.57
437.329	310.27
437.537	349.18
437.743	326.65
437.95	472.06
438.157	375.8
438.364	441.34
438.571	414.71
438.778	506.87
438.985	521.21
439.192	494.58
439.399	537.59
439.606	517.11
439.813	564.22
440.02	592.89
440.227	662.52
440.433	590.84
440.64	621.56
440.847	576.5
441.054	644.09
441.261	793.59
441.467	693.24
441.674	676.85
441.881	740.34
442.088	773.11
442.294	719.86
442.501	816.12
442.708	965.62
442.914	926.71
443.121	959.47
443.328	869.36
443.534	1104.88
443.741	1022.96
443.948	906.23
444.154	1104.88
444.361	1338.35
444.568	1129.45
444.774	1174.51
444.981	1092.59
445.187	1350.64
445.394	1301.48
445.6	1203.18
445.807	1455.08
446.013	1485.8
446.22	1385.45
446.426	1453.03
446.633	1643.49
446.839	1893.35
447.046	1528.81
447.252	1866.72
447.459	1696.74
447.665	1784.8
447.871	1950.69
448.078	2206.69
448.284	2087.9
448.491	2073.57
448.697	2272.22
448.903	2393.05
449.11	2444.25
449.316	2362.33
449.522	2651.1
449.728	2647
449.935	2659.29
450.141	2679.77
450.347	2991.06
450.553	2921.43
450.76	3150.8
450.966	3267.53
451.172	3216.33
451.378	3462.09
451.584	3390.41
451.791	3754.95
451.997	3910.6
452.203	3871.68
452.409	4201.41
452.615	4268.99
452.821	4199.36
453.027	4215.74
453.233	4719.54
453.44	4518.84
453.646	4875.19
453.852	5133.23
454.058	5333.93
454.264	5102.51
454.47	5667.75
454.676	5860.26
454.882	6245.28
455.088	6112.16
455.294	6396.83
455.5	6771.61
455.705	7224.21
455.911	7123.86
456.117	7283.6
456.323	7674.76
456.529	7467.92
456.735	8108.93
456.941	8457.09
457.147	8833.91
457.352	8950.65
457.558	9356.15
457.764	10107.75
457.97	10036.07
458.176	10476.38
458.381	11043.67
458.587	11195.22
458.793	11653.97
458.999	11606.86
459.204	13228.85
459.41	13644.59
459.616	13396.79
459.821	14246.69
460.027	14828.32
460.233	15498
460.438	15688.46
460.644	16630.53
460.85	16513.8
461.055	17433.33
461.261	18062.06
461.466	17728.24
461.672	18416.36
461.878	20517.57
462.083	20114.13
462.289	20443.85
462.494	21476.02
462.7	21467.83
462.905	21664.44
463.111	23415.45
463.316	24427.15
463.522	25004.67
463.727	25977.46
463.932	26853.99
464.138	27880.02
464.343	28678.73
464.549	28994.12
464.754	31310.37
464.959	31928.86
465.165	32490
465.37	32662.03
465.575	32418.32
465.781	34335.22
465.986	35430.88
466.191	34884.08
466.397	34859.5
466.602	34427.38
466.807	36311.51
467.012	36874.7
467.218	37167.56
467.423	37841.34
467.628	38416.82
467.833	40233.37
468.038	40128.92
468.244	39360.94
468.449	41085.33
468.654	40538.52
468.859	40221.08
469.064	40352.15
469.269	39379.37
469.474	39530.92
469.679	40739.22
469.885	39838.11
470.09	40190.36
470.295	40135.07
470.5	39045.55
470.705	39391.65
470.91	38285.75
471.115	37896.64
471.32	38738.35
471.525	38318.52
471.73	37302.73
471.935	36934.09
472.139	35969.5
472.344	35668.45
472.549	35711.46
472.754	34972.14
472.959	33802.75
473.164	32786.96
473.369	32379.41
473.574	33266.18
473.778	32485.9
473.983	32369.17
474.188	31650.33
474.393	29827.64
474.598	30132.79
474.802	29258.31
475.007	29045.32
475.212	28371.54
475.417	27390.56
475.621	27497.05
475.826	27052.64
476.031	26073.71
476.235	25739.9
476.44	25825.91
476.645	24922.76
476.849	24896.13
477.054	24525.45
477.259	23540.38
477.463	23917.2
477.668	22993.57
477.872	23147.17
478.077	22626.98
478.282	22028.98
478.486	21889.71
478.691	21512.89
478.895	21248.7
479.1	21396.15
479.304	21394.11
479.509	20357.83
479.713	20480.71
479.918	19997.39
480.122	19677.91
480.326	20001.49
480.531	19815.12
480.735	19493.59
480.94	19292.89
481.144	19960.53
481.348	18875.1
481.553	19114.72
481.757	18539.24
481.961	18836.19
482.166	18899.68
482.37	18698.98
482.574	18094.83
482.778	17974
482.983	18490.09
483.187	18148.08
483.391	17832.69
483.595	17613.56
483.8	17234.68
484.004	17365.75
484.208	17449.72
484.412	17109.75
484.616	17013.5
484.821	16745.22
485.025	16157.45
485.229	16407.3
485.433	16282.38
485.637	15766.29
485.841	15827.73
486.045	15565.59
486.249	15489.81
486.453	14887.71
486.657	14770.97
486.861	14715.68
487.065	14134.06
487.269	14265.13
487.473	13753.13
487.677	13912.88
487.881	13900.59
488.085	13357.88
488.289	13077.3
488.493	12602.18
488.697	12935.99
488.901	12555.07
489.105	12229.45
489.309	12079.94
489.512	11858.76
489.716	11754.32
489.92	11522.9
490.124	11238.23
490.328	11154.26
490.531	10810.2
490.735	10908.51
490.939	10453.86
491.143	10298.21
491.346	10290.02
491.55	10242.92
491.754	9980.78
491.958	9806.7
492.161	9655.15
492.365	9599.85
492.569	9325.43
492.772	9177.97
492.976	9165.68
493.18	8981.37
493.383	8932.22
493.587	8641.4
493.79	8911.74
493.994	8391.55
494.197	8532.86
494.401	8590.2
494.605	8352.64
494.808	8217.47
495.012	8432.51
495.215	8098.69
495.419	8082.31
495.622	7969.67
495.825	7906.18
496.029	7861.13
496.232	8113.03
496.436	7811.98
496.639	7986.05
496.843	7916.42
497.046	7754.63
497.249	7994.25
497.453	7992.2
497.656	7828.36
497.859	7838.6
498.063	7728.01
498.266	7934.85
498.469	7826.31
498.673	7885.7
498.876	7854.98
499.079	7979.91
499.282	7861.13
499.485	8309.63
499.689	8145.8
499.892	8131.46
500.095	8231.81
500.298	8377.22
500.501	8082.31
500.705	8446.85
500.908	8530.81
501.111	8704.89
501.314	8778.62
501.517	8969.08
501.72	8928.12
501.923	8969.08
502.126	9046.9
502.329	9286.51
502.532	9388.91
502.735	9208.69
502.938	9552.75
503.141	9591.66
503.344	9722.73
503.547	10011.5
503.75	9911.14
503.953	9896.81
504.156	10087.27
504.359	10220.39
504.562	10181.48
504.765	10478.43
504.968	10873.69
505.17	10994.52
505.373	11209.56
505.576	11516.75
505.779	11361.11
505.982	11264.85
506.185	11895.63
506.387	11967.31
506.59	12401.47
506.793	12471.11
506.996	12317.51
507.198	12849.98
507.401	13112.12
507.604	13148.98
507.807	13687.6
508.009	13833
508.212	14181.16
508.415	14506.79
508.617	15037.21
508.82	14932.76
509.022	15102.75
509.225	15698.7
509.428	15842.06
509.63	16415.49
509.833	16546.56
510.035	17189.63
510.238	17259.26
510.44	17500.92
510.643	17978.09
510.845	18434.79
511.048	18752.23
511.25	19059.42
511.453	19489.49
511.655	20599.49
511.858	20179.66
512.06	20972.22
512.262	21150.4
512.465	21478.07
512.667	22092.46
512.87	22858.4
513.072	23136.93
513.274	24113.81
513.477	24400.52
513.679	24758.92
513.881	25166.46
514.084	26010.23
514.286	25959.03
514.488	26675.82
514.69	27972.18
514.893	28271.18
515.095	28394.06
515.297	29143.62
515.499	29839.93
515.701	30300.72
515.904	30853.67
516.106	31767.07
516.308	31912.47
516.51	32619.02
516.712	33073.67
516.914	33909.24
517.116	34519.54
517.318	35125.74
517.52	35602.91
517.722	35928.54
517.925	37073.35
518.127	37755.33
518.329	38359.48
518.531	38320.57
518.733	39580.07
518.935	40311.19
519.136	40638.87
519.338	41222.54
519.54	41521.54
519.742	42539.38
519.944	42948.98
520.146	43778.4
520.348	44300.64
520.55	44308.83
520.752	44808.53
520.954	45863.24
521.155	45830.47
521.357	47075.63
521.559	47022.39
521.761	47743.27
521.963	47827.24
522.164	48331.04
522.366	48677.15
522.568	48857.37
522.77	49013.01
522.971	50151.68
523.173	49645.83
523.375	50405.63
523.576	50733.31
523.778	50393.34
523.98	51212.53
524.181	51511.53
524.383	50985.21
524.584	52367.58
524.786	51325.17
524.988	51071.22
525.189	51730.67
525.391	51740.91
525.592	51792.11
525.794	51542.25
525.995	51439.86
526.197	51505.39
526.398	51398.9
526.6	51196.15
526.801	51577.07
527.003	51323.12
527.204	51280.11
527.406	51161.33
527.607	50788.6
527.808	51036.41
528.01	49371.41
528.211	49512.72
528.412	49983.75
528.614	49776.9
528.815	49168.66
529.016	48978.2
529.218	47921.44
529.419	48144.67
529.62	47360.3
529.822	46788.92
530.023	46424.38
530.224	46498.11
530.425	45783.37
530.626	44562.78
530.828	44593.5
531.029	44992.85
531.23	43843.94
531.431	42987.89
531.632	43039.09
531.833	42455.42
532.035	41628.04
532.236	41404.81
532.437	41253.26
532.638	40163.74
532.839	40079.77
533.04	39670.18
533.241	38500.79
533.442	39285.16
533.643	38351.29
533.844	37185.99
534.045	36860.37
534.246	36127.19
534.447	36026.84
534.648	35308.01
534.849	35308.01
535.05	34173.43
535.251	34200.05
535.451	33759.74
535.652	33102.34
535.853	32547.34
536.054	32215.57
536.255	31803.93
536.456	31240.74
536.657	31347.23
536.857	30689.84
537.058	30001.72
537.259	29633.08
537.46	29450.81
537.66	28852.81
537.861	28371.54
538.062	28256.85
538.263	27972.18
538.463	27660.89
538.664	27193.95
538.865	27028.07
539.065	26817.13
539.266	26169.97
539.466	25983.6
539.667	25172.61
539.868	25604.73
540.068	24996.48
540.269	24846.98
540.469	24701.58
540.67	24162.96
540.87	23519.9
541.071	23407.26
541.271	23458.46
541.472	23100.06
541.672	22848.16
541.873	22352.55
542.073	21957.3
542.274	22184.62
542.474	21660.34
542.675	21357.24
542.875	21052.09
543.075	20847.3
543.276	20615.88
543.476	20746.95
543.676	20361.93
543.877	20099.79
544.077	19854.03
544.277	19675.86
544.478	19368.66
544.678	19038.94
544.878	18928.35
545.078	18666.21
545.279	18240.23
545.479	18232.04
545.679	18340.58
545.879	17853.17
546.079	18004.72
546.28	17279.74
546.48	17292.02
546.68	17199.87
546.88	17105.66
547.08	17036.03
547.28	16472.84
547.48	16296.71
547.68	16225.03
547.88	15934.22
548.081	15844.11
548.281	15162.14
548.481	15250.2
548.681	15057.69
548.881	14936.86
549.081	14664.48
549.28	14240.55
549.48	14330.66
549.68	13966.12
549.88	13904.68
550.08	13720.37
550.28	13720.37
550.48	13708.08
550.68	13271.86
550.88	13112.12
551.08	12690.24
551.279	12751.68
551.479	12350.28
551.679	12669.76
551.879	11965.26
552.079	12174.15
552.278	11727.69
552.478	11793.23
552.678	11529.04
552.878	11586.38
553.077	11006.81
553.277	10703.71
553.477	10867.55
553.676	10722.14
553.876	10541.92
554.076	10427.23
554.275	10337.12
554.475	9868.14
554.674	9902.95
554.874	9591.66
555.074	9448.3
555.273	9397.1
555.473	9141.11
555.672	9071.48
555.872	8799.1
556.071	8674.17
556.271	8876.92
556.47	8500.09
556.67	8276.87
556.869	8248.19
557.068	8125.32
557.268	8020.87
557.467	7969.67
557.667	7979.91
557.866	7801.74
558.065	7449.49
558.265	7347.09
558.464	7136.15
558.663	7195.54
558.863	7054.23
559.062	6962.07
559.261	6755.22
559.461	6824.86
559.66	6607.77
559.859	6452.13
560.058	6478.75
560.258	6216.61
560.457	6093.73
560.656	6245.28
560.855	5964.71
561.054	6001.57
561.253	5809.06
561.453	5831.59
561.652	5829.54
561.851	5712.81
562.05	5471.15
562.249	5340.08
562.448	5288.88
562.647	5067.7
562.846	5215.15
563.045	5071.79
563.244	5084.08
563.443	5110.71
563.642	4858.81
563.841	4756.41
564.04	4735.93
564.239	4654.01
564.438	4592.57
564.637	4508.6
564.836	4422.59
565.035	4176.83
565.234	4301.76
565.432	4221.89
565.631	4289.47
565.83	4193.22
566.029	4121.54
566.228	4033.47
566.427	4037.57
566.625	3724.23
566.824	3853.25
567.023	3828.68
567.222	3625.93
567.42	3701.7
567.619	3609.54
567.818	3703.75
568.016	3761.09
568.215	3523.53
568.414	3607.5
568.612	3552.2
568.811	3331.02
569.01	3304.4
569.208	3263.44
569.407	3275.73
569.605	3183.57
569.804	3158.99
570.002	3075.03
570.201	3060.69
570.4	3011.54
570.598	2993.11
570.797	2968.53
570.995	2878.42
571.193	2788.31
571.392	3001.3
571.59	2769.88
571.789	2862.04
571.987	2757.59
572.186	2843.6
572.384	2487.26
572.582	2558.94
572.781	2651.1
572.979	2370.52
573.177	2464.73
573.376	2429.91
573.574	2452.44
573.772	2292.7
573.971	2272.22
574.169	2130.91
574.367	2343.9
574.565	2186.21
574.763	2108.38
574.962	2186.21
575.16	2020.32
575.358	1983.46
575.556	1985.51
575.754	2055.14
575.952	1924.07
576.151	1973.22
576.349	1928.16
576.547	1733.61
576.745	1983.46
576.943	1993.7
577.141	1733.61
577.339	1674.21
577.537	1782.76
577.735	1864.68
577.933	1657.83
578.131	1500.14
578.329	1790.95
578.527	1565.67
578.725	1635.3
578.923	1453.03
579.121	1635.3
579.319	1483.75
579.516	1457.13
579.714	1680.36
579.912	1461.23
580.11	1481.71
580.308	1403.88
580.506	1350.64
580.704	1235.95
580.901	1248.24
581.099	1399.79
581.297	1373.16
581.495	1315.82
581.692	1231.85
581.89	1350.64
582.088	1289.2
582.285	1297.39
582.483	1229.81
582.681	1186.8
582.878	1098.74
583.076	1176.56
583.274	1197.04
583.471	1235.95
583.669	1039.34
583.866	1039.34
584.064	1084.4
584.262	893.94
584.459	990.19
584.657	1166.32
584.854	1025.01
585.052	990.19
585.249	1080.3
585.447	1022.96
585.644	914.42
585.841	1088.5
586.039	959.47
586.236	971.76
586.434	920.56
586.631	842.74
586.828	895.99
587.026	963.57
587.223	779.25
587.42	885.75
587.618	916.47
587.815	850.93
588.012	816.12
588.21	848.88
588.407	840.69
588.604	977.91
588.801	707.57
588.999	836.6
589.196	842.74
589.393	752.63
589.59	814.07
589.787	828.4
589.984	787.44
590.182	746.48
590.379	664.57
590.576	769.01
590.773	699.38
590.97	740.34
591.167	797.68
591.364	848.88
591.561	769.01
591.758	834.55
591.955	748.53
592.152	732.15
592.349	719.86
592.546	642.04
592.743	691.19
592.94	762.87
593.137	705.53
593.334	771.06
593.531	826.36
593.727	826.36
593.924	748.53
594.121	801.78
594.318	642.04
594.515	719.86
594.712	834.55
594.908	887.79
595.105	648.18
595.302	803.83
595.499	838.64
595.696	895.99
595.892	760.82
596.089	857.07
596.286	744.44
596.482	984.05
596.679	902.13
596.876	869.36
597.072	1037.3
597.269	846.84
597.466	961.52
597.662	994.29
597.859	1016.82
598.055	1020.91
598.252	1160.17
598.448	1098.74
598.645	1129.45
598.841	1197.04
599.038	1319.92
599.234	1315.82
599.431	1352.68
599.627	1315.82
599.824	1440.75
600.02	1352.68
600.217	1414.12
600.413	1465.32
600.609	1522.66
600.806	1823.72
601.002	1700.84
601.198	1711.08
601.395	1856.48
601.591	1975.27
601.787	1991.65
601.984	2061.28
602.18	2165.73
602.376	2124.77
602.572	2370.52
602.769	2481.11
602.965	2462.68
603.161	2544.6
603.357	2651.1
603.553	2917.33
603.75	2745.3
603.946	2890.71
604.142	3052.5
604.338	3310.54
604.534	3247.05
604.73	3245.01
604.926	3349.45
605.122	3722.18
605.318	3572.68
605.514	3779.53
605.71	3918.79
605.906	4080.58
606.102	4033.47
606.298	4355.01
606.494	4346.81
606.69	4731.83
606.886	4449.21
607.082	4639.67
607.278	4879.29
607.474	5102.51
607.67	5110.71
607.866	5311.41
608.062	5522.35
608.257	5682.09
608.453	5585.83
608.649	6007.72
608.845	6058.92
609.041	6108.07
609.236	6472.61
609.432	6556.57
609.628	6730.65
609.824	7023.51
610.019	7205.78
610.215	7246.74
610.411	7668.62
610.606	7744.39
610.802	7797.64
610.998	8160.13
611.193	8602.49
611.389	8375.17
611.584	8979.32
611.78	8835.96
611.976	9137.01
612.171	9595.76
612.367	9759.6
612.562	9923.43
612.758	10093.41
612.953	10324.83
613.149	10613.6
613.344	10885.98
613.539	11430.74
613.735	11692.88
613.93	11922.25
614.126	12251.97
614.321	12571.46
614.517	12948.28
614.712	13402.93
614.907	13538.1
615.103	13843.24
615.298	14158.63
615.493	14621.47
615.688	14938.91
615.884	15516.44
616.079	15414.04
616.274	16179.98
616.47	16554.76
616.665	17042.17
616.86	17435.38
617.055	17840.88
617.25	18039.53
617.445	18866.91
617.641	18838.24
617.836	19649.24
618.031	19550.93
618.226	20691.65
618.421	21170.88
618.616	21668.53
618.811	21562.04
619.006	22876.83
619.201	22651.56
619.396	23597.72
619.591	23554.71
619.786	24650.38
619.981	24545.93
620.176	25414.27
620.371	25961.08
620.566	26774.12
620.761	27196
620.956	27724.38
621.151	27947.61
621.346	28973.64
621.541	28873.29
621.735	29925.94
621.93	30106.16
622.125	30812.71
622.32	30931.5
622.515	31711.77
622.709	32293.4
622.904	33100.29
623.099	33190.41
623.294	34419.19
623.488	34548.21
623.683	35404.26
623.878	35488.23
624.072	36659.66
624.267	37016.01
624.462	37575.11
624.656	37325.25
624.851	38957.49
625.046	39225.77
625.24	39403.94
625.435	40096.16
625.629	40870.29
625.824	41050.51
626.018	41939.33
626.213	41501.06
626.407	42721.65
626.602	42832.24
626.796	43268.46
626.991	43891.04
627.185	44298.59
627.38	44271.96
627.574	44491.1
627.768	44794.2
627.963	45199.69
628.157	44990.8
628.352	45384.01
628.546	45082.96
628.74	45996.35
628.935	45095.25
629.129	45003.09
629.323	45035.86
629.517	44554.58
629.712	44616.02
629.906	44274.01
630.1	43530.6
630.294	43975.01
630.489	42785.14
630.683	42791.28
630.877	41757.06
631.071	41021.84
631.265	40624.53
631.459	39625.12
631.653	38924.72
631.848	37732.8
632.042	36946.38
632.236	36573.65
632.43	34834.92
632.624	34517.49
632.818	33249.8
633.012	32248.34
633.206	31136.29
633.4	30503.47
633.594	29012.55
633.788	28441.17
633.982	27564.64
634.176	26354.29
634.369	25619.07
634.563	24507.02
634.757	23380.64
634.951	22758.05
635.145	21807.8
635.339	21004.99
635.533	20275.91
635.726	19620.56
635.92	18338.54
636.114	18049.77
636.308	17046.27
636.501	16648.96
636.695	16022.28
636.889	14992.16
637.083	14392.1
637.276	13941.55
637.47	13349.68
637.664	12796.73
637.857	12413.76
638.051	11842.38
638.244	11283.28
638.438	10822.49
638.632	10584.93
638.825	10193.76
639.019	9739.12
639.212	9335.67
639.406	8924.02
639.599	8438.66
639.793	8301.44
639.986	7879.56
640.18	7685
640.373	7338.9
640.567	7056.28
640.76	6792.09
640.954	6357.92
641.147	6294.43
641.34	5966.76
641.534	5811.11
641.727	5616.55
641.92	5501.87
642.114	5364.65
642.307	4922.29
642.5	4879.29
642.694	4512.7
642.887	4516.8
643.08	4389.82
643.273	4275.13
643.467	3910.6
643.66	3824.58
643.853	3713.99
644.046	3724.23
644.239	3390.41
644.432	3240.91
644.626	2921.43
644.819	2913.24
645.012	2935.76
645.205	2866.13
645.398	2735.06
645.591	2663.38
645.784	2446.3
645.977	2378.72
646.17	2335.71
646.363	2227.17
646.556	2155.49
646.749	2077.66
646.942	2038.75
647.135	1991.65
647.328	1928.16
647.521	1848.29
647.714	1706.98
647.907	1723.37
648.099	1606.63
648.292	1575.91
648.485	1524.71
648.678	1381.35
648.871	1319.92
649.064	1315.82
649.256	1223.66
649.449	1272.81
649.642	1127.41
649.835	1170.41
650.027	1010.67
650.22	1084.4
650.413	977.91
650.605	1022.96
650.798	941.04
650.991	1002.48
651.183	883.7
651.376	963.57
651.568	832.5
651.761	721.91
651.954	762.87
652.146	771.06
652.339	875.51
652.531	840.69
652.724	664.57
652.916	705.53
653.109	594.93
653.301	709.62
653.494	723.96
653.686	676.85
653.879	775.16
654.071	584.7
654.263	535.54
654.456	531.45
654.648	719.86
654.84	590.84
655.033	535.54
655.225	668.66
655.417	332.79
655.61	582.65
655.802	527.35
655.994	527.35
656.186	410.62
656.379	492.54
656.571	367.61
656.763	457.72
656.955	328.7
657.148	285.69
657.34	496.63
657.532	383.99
657.724	367.61
657.916	379.9
658.108	443.39
658.3	433.15
658.492	404.47
658.684	244.73
658.876	443.39
659.068	189.44
659.26	312.32
659.452	216.06
659.644	283.64
659.836	470.01
660.028	232.44
660.22	226.3
660.412	244.73
660.604	197.63
660.796	240.64
660.988	340.99
661.18	359.42
661.372	234.49
661.563	207.87
661.755	261.12
661.947	179.2
662.139	107.52
662.331	242.68
662.522	236.54
662.714	197.63
662.906	218.11
663.097	224.25
663.289	220.16
663.481	82.94
663.673	261.12
663.864	232.44
664.056	283.64
664.247	193.53
664.439	269.31
664.631	248.83
664.822	283.64
665.014	216.06
665.205	125.95
665.397	166.91
665.588	211.96
665.78	156.67
665.971	228.35
666.163	171.01
666.354	244.73
666.546	93.18
666.737	119.81
666.929	89.09
667.12	214.01
667.311	128
667.503	128
667.694	211.96
667.885	152.57
668.077	252.92
668.268	46.08
668.459	164.86
668.651	211.96
668.842	195.58
669.033	89.09
669.224	123.9
669.416	388.09
669.607	162.81
669.798	93.18
669.989	304.12
670.18	232.44
670.371	242.68
670.563	68.61
670.754	259.07
670.945	187.39
671.136	152.57
671.327	166.91
671.518	242.68
671.709	273.4
671.9	228.35
672.091	328.7
672.282	183.29
672.473	189.44
672.664	138.24
672.855	144.38
673.046	201.72
673.237	191.49
673.428	171.01
673.619	226.3
673.809	121.85
674	191.49
674.191	183.29
674.382	179.2
674.573	148.48
674.764	121.85
674.954	263.16
675.145	150.53
675.336	119.81
675.527	125.95
675.717	164.86
675.908	82.94
676.099	134.14
676.289	197.63
676.48	56.32
676.671	152.57
676.861	52.22
677.052	197.63
677.243	158.72
677.433	113.66
677.624	91.13
677.814	189.44
678.005	183.29
678.195	244.73
678.386	191.49
678.576	285.69
678.767	72.7
678.957	179.2
679.148	250.88
679.338	412.67
679.529	232.44
679.719	175.1
679.909	336.89
680.1	254.97
680.29	216.06
680.481	209.92
680.671	242.68
680.861	240.64
681.052	297.98
681.242	203.77
681.432	271.36
681.622	291.84
681.813	205.82
682.003	228.35
682.193	171.01
682.383	242.68
682.573	252.92
682.764	148.48
682.954	232.44
683.144	379.9
683.334	181.25
683.524	289.79
683.714	236.54
683.904	283.64
684.094	265.21
684.284	283.64
684.474	254.97
684.664	295.93
684.854	259.07
685.044	244.73
685.234	289.79
685.424	271.36
685.614	187.39
685.804	357.37
685.994	248.83
686.184	230.4
686.374	273.4
686.564	183.29
686.753	177.15
686.943	160.77
687.133	181.25
687.323	154.62
687.513	369.66
687.702	252.92
687.892	265.21
688.082	402.43
688.272	300.03
688.461	244.73
688.651	410.62
688.841	252.92
689.03	259.07
689.22	388.09
689.41	287.74
689.599	314.36
689.789	191.49
689.979	338.94
690.168	293.88
690.358	250.88
690.547	183.29
690.737	257.02
690.926	277.5
691.116	250.88
691.305	328.7
691.495	328.7
691.684	236.54
691.874	171.01
692.063	224.25
692.252	357.37
692.442	293.88
692.631	189.44
692.82	187.39
693.01	226.3
693.199	152.57
693.388	230.4
693.578	132.09
693.767	244.73
693.956	236.54
694.146	168.96
694.335	211.96
694.524	187.39
694.713	340.99
694.902	195.58
695.092	195.58
695.281	201.72
695.47	171.01
695.659	232.44
695.848	185.34
696.037	177.15
696.226	250.88
696.415	187.39
696.604	277.5
696.793	328.7
696.982	136.19
697.171	390.14
697.36	154.62
697.549	285.69
697.738	123.9
697.927	183.29
698.116	150.53
698.305	248.83
698.494	203.77
698.683	211.96
698.872	300.03
699.061	228.35
699.25	134.14
699.438	181.25
699.627	156.67
699.816	263.16
700.005	111.61
700.193	240.64
700.382	283.64
700.571	193.53
700.76	267.26
700.948	330.75
701.137	263.16
701.326	304.12
701.514	238.59
701.703	203.77
701.892	230.4
702.08	332.79
702.269	171.01
702.457	171.01
702.646	224.25
702.834	156.67
703.023	254.97
703.212	283.64
703.4	134.14
703.589	179.2
703.777	101.37
703.965	115.71
704.154	171.01
704.342	152.57
704.531	162.81
704.719	234.49
704.907	271.36
705.096	187.39
705.284	136.19
705.472	168.96
705.661	211.96
705.849	316.41
706.037	269.31
706.226	191.49
706.414	277.5
706.602	154.62
706.79	263.16
706.979	152.57
707.167	195.58
707.355	119.81
707.543	275.45
707.731	261.12
707.919	259.07
708.107	171.01
708.296	201.72
708.484	160.77
708.672	293.88
708.86	156.67
709.048	240.64
709.236	101.37
709.424	244.73
709.612	191.49
709.8	158.72
709.988	236.54
710.176	332.79
710.364	304.12
710.551	293.88
710.739	162.81
710.927	175.1
711.115	115.71
711.303	277.5
711.491	277.5
711.679	154.62
711.866	269.31
712.054	109.57
712.242	234.49
712.43	338.94
712.617	254.97
712.805	275.45
712.993	248.83
713.181	142.33
713.368	277.5
713.556	252.92
713.744	218.11
713.931	408.57
714.119	324.6
714.306	84.99
714.494	183.29
714.682	224.25
714.869	191.49
715.057	166.91
715.244	101.37
715.432	275.45
715.619	199.68
715.807	173.05
715.994	166.91
716.182	246.78
716.369	349.18
716.556	281.6
716.744	111.61
716.931	203.77
717.119	160.77
717.306	234.49
717.493	257.02
717.681	138.24
717.868	185.34
718.055	236.54
718.242	138.24
718.43	175.1
718.617	287.74
718.804	242.68
718.991	252.92
719.179	300.03
719.366	238.59
719.553	201.72
719.74	195.58
719.927	232.44
720.114	252.92
720.301	189.44
720.488	185.34
720.676	160.77
720.863	322.56
721.05	343.03
721.237	275.45
721.424	226.3
721.611	257.02
721.798	211.96
721.985	173.05
722.172	285.69
722.358	289.79
722.545	252.92
722.732	300.03
722.919	269.31
723.106	361.47
723.293	322.56
723.48	224.25
723.667	185.34
723.853	306.17
724.04	293.88
724.227	386.04
724.414	275.45
724.6	326.65
724.787	414.71
724.974	408.57
725.161	277.5
725.347	269.31
725.534	236.54
725.72	254.97
725.907	287.74
726.094	244.73
726.28	232.44
726.467	302.08
726.653	312.32
726.84	381.95
727.027	470.01
727.213	214.01
727.4	338.94
727.586	343.03
727.773	277.5
727.959	334.84
728.145	302.08
728.332	334.84
728.518	277.5
728.705	412.67
728.891	314.36
729.077	207.87
729.264	269.31
729.45	271.36
729.636	330.75
729.823	312.32
730.009	386.04
730.195	306.17
730.382	312.32
730.568	277.5
730.754	304.12
730.94	271.36
731.126	263.16
731.313	381.95
731.499	209.92
731.685	447.48
731.871	252.92
732.057	334.84
732.243	375.8
732.429	388.09
732.615	470.01
732.801	343.03
732.987	297.98
733.173	414.71
733.359	328.7
733.545	304.12
733.731	326.65
733.917	388.09
734.103	312.32
734.289	437.24
734.475	302.08
734.661	445.43
734.847	363.51
735.033	363.51
735.219	388.09
735.404	336.89
735.59	308.22
735.776	338.94
735.962	359.42
736.148	398.33
736.333	422.91
736.519	412.67
736.705	328.7
736.89	316.41
737.076	326.65
737.262	197.63
737.447	277.5
737.633	240.64
737.819	420.86
738.004	373.75
738.19	343.03
738.375	433.15
738.561	420.86
738.747	363.51
738.932	289.79
739.118	478.2
739.303	404.47
739.489	431.1
739.674	263.16
739.859	277.5
740.045	345.08
740.23	453.63
740.416	222.2
740.601	463.86
740.786	408.57
740.972	386.04
741.157	302.08
741.342	330.75
741.528	322.56
741.713	431.1
741.898	359.42
742.084	304.12
742.269	338.94
742.454	351.23
742.639	488.44
742.824	394.23
743.01	445.43
743.195	488.44
743.38	363.51
743.565	289.79
743.75	336.89
743.935	361.47
744.12	543.74
744.305	324.6
744.49	248.83
744.675	336.89
744.86	343.03
745.045	355.32
745.23	361.47
745.415	340.99
745.6	414.71
745.785	271.36
745.97	400.38
746.155	396.28
746.34	386.04
746.525	396.28
746.71	394.23
746.895	257.02
747.079	310.27
747.264	347.13
747.449	418.81
747.634	361.47
747.819	439.29
748.003	250.88
748.188	240.64
748.373	398.33
748.557	318.46
748.742	363.51
748.927	338.94
749.111	281.6
749.296	242.68
749.481	359.42
749.665	359.42
749.85	300.03
750.034	336.89
750.219	275.45
750.404	285.69
750.588	412.67
750.773	267.26
750.957	295.93
751.141	287.74
751.326	322.56
751.51	259.07
751.695	277.5
751.879	283.64
752.064	482.3
752.248	244.73
752.432	349.18
752.617	250.88
752.801	343.03
752.985	265.21
753.17	375.8
753.354	365.56
753.538	349.18
753.722	148.48
753.907	312.32
754.091	300.03
754.275	275.45
754.459	254.97
754.643	281.6
754.828	289.79
755.012	281.6
755.196	201.72
755.38	320.51
755.564	228.35
755.748	238.59
755.932	336.89
756.116	320.51
756.3	269.31
756.484	246.78
756.668	287.74
756.852	238.59
757.036	183.29
757.22	248.83
757.404	218.11
757.588	168.96
757.772	234.49
757.956	214.01
758.14	373.75
758.323	109.57
758.507	297.98
758.691	140.29
758.875	275.45
759.059	363.51
759.242	177.15
759.426	211.96
759.61	281.6
759.794	158.72
759.977	277.5
760.161	381.95
760.345	404.47
760.528	310.27
760.712	246.78
760.895	244.73
761.079	136.19
761.263	138.24
761.446	132.09
761.63	191.49
761.813	293.88
761.997	191.49
762.18	252.92
762.364	248.83
762.547	142.33
762.731	189.44
762.914	154.62
763.098	209.92
763.281	154.62
763.464	107.52
763.648	160.77
763.831	246.78
764.015	128
764.198	148.48
764.381	142.33
764.564	267.26
764.748	224.25
764.931	250.88
765.114	128
765.297	283.64
765.481	134.14
765.664	142.33
765.847	130.05
766.03	257.02
766.213	107.52
766.397	175.1
766.58	101.37
766.763	269.31
766.946	173.05
767.129	211.96
767.312	146.43
767.495	144.38
767.678	128
767.861	156.67
768.044	177.15
768.227	158.72
768.41	154.62
768.593	177.15
768.776	209.92
768.959	156.67
769.142	230.4
769.324	89.09
769.507	136.19
769.69	37.89
769.873	164.86
770.056	357.37
770.239	130.05
770.421	259.07
770.604	183.29
770.787	115.71
770.97	187.39
771.152	76.8
771.335	197.63
771.518	117.76
771.7	248.83
771.883	277.5
772.066	185.34
772.248	228.35
772.431	220.16
772.613	175.1
772.796	187.39
772.978	91.13
773.161	222.2
773.343	128
773.526	29.7
773.708	1.02
773.891	41.98
774.073	160.77
774.256	109.57
774.438	289.79
774.621	121.85
774.803	105.47
774.985	91.13
775.168	171.01
775.35	156.67
775.532	214.01
775.715	74.75
775.897	101.37
776.079	171.01
776.261	136.19
776.444	168.96
776.626	66.56
776.808	162.81
776.99	62.46
777.173	121.85
777.355	93.18
777.537	72.7
777.719	183.29
777.901	191.49
778.083	58.37
778.265	37.89
778.447	156.67
778.629	5.12
778.811	99.33
778.993	218.11
779.175	158.72
779.357	138.24
779.539	23.55
779.721	39.94
779.903	121.85
780.085	64.51
780.267	158.72
780.449	121.85
780.631	105.47
780.812	166.91
780.994	84.99
781.176	111.61
781.358	35.84
781.54	31.74
781.721	136.19
781.903	142.33
782.085	35.84
782.267	150.53
782.448	25.6
782.63	39.94
782.812	146.43
782.993	175.1
783.175	68.61
783.357	48.13
783.538	158.72
783.72	50.18
783.901	117.76
784.083	52.22
784.264	95.23
784.446	-19.46
784.627	23.55
784.809	179.2
784.99	27.65
785.172	142.33
785.353	74.75
785.535	128
785.716	-35.84
785.897	62.46
786.079	50.18
786.26	185.34
786.441	173.05
786.623	15.36
786.804	31.74
786.985	50.18
787.167	62.46
787.348	62.46
787.529	7.17
787.71	232.44
787.891	66.56
788.073	56.32
788.254	21.5
788.435	224.25
788.616	82.94
788.797	130.05
788.978	52.22
789.159	97.28
789.34	91.13
789.522	-1.02
789.703	-35.84
789.884	113.66
790.065	93.18
790.246	134.14
790.427	70.65
790.607	195.58
790.788	148.48
790.969	-5.12
791.15	80.89
791.331	-48.13
791.512	39.94
791.693	1.02
791.874	3.07
792.054	211.96
792.235	121.85
792.416	39.94
792.597	29.7
792.778	78.85
792.958	56.32
793.139	95.23
793.32	50.18
793.5	41.98
793.681	140.29
793.862	41.98
794.042	62.46
794.223	-44.03
794.404	-13.31
794.584	-56.32
794.765	13.31
794.945	-13.31
795.126	101.37
795.306	95.23
795.487	-48.13
795.667	35.84
795.848	109.57
796.028	80.89
796.209	99.33
796.389	123.9
796.57	3.07
796.75	21.5
796.93	80.89
797.111	13.31
797.291	62.46
797.471	152.57
797.652	64.51
797.832	-1.02
798.012	158.72
798.192	-23.55
798.373	-3.07
798.553	35.84
798.733	162.81
798.913	5.12
799.093	99.33
799.274	52.22
799.454	93.18
799.634	117.76
799.814	119.81
799.994	60.42
800.174	93.18
800.354	84.99
800.534	-13.31
800.714	97.28
800.894	-37.89
801.074	-64.51
801.254	-21.5
801.434	80.89
801.614	9.22
801.794	-50.18
801.974	1735.65
802.154	5.12
802.334	105.47
802.514	-21.5
802.693	64.51
802.873	66.56
803.053	35.84
803.233	87.04
803.413	15.36
803.592	-35.84
803.772	-58.37
803.952	97.28
804.131	-111.61
804.311	97.28
804.491	205.82
804.67	58.37
804.85	-11.26
805.03	-11.26
805.209	72.7
805.389	-11.26
805.568	-19.46
805.748	52.22
805.928	23.55
806.107	93.18
806.287	-7.17
806.466	-1.02
806.646	52.22
806.825	11.26
807.004	1.02
807.184	95.23
807.363	-25.6
807.543	15.36
807.722	-37.89
807.901	91.13
808.081	44.03
808.26	-70.65
808.439	5.12
808.619	95.23
808.798	-50.18
808.977	70.65
809.156	78.85
809.336	107.52
809.515	105.47
809.694	-52.22
809.873	44.03
810.052	54.27
810.231	128
810.411	-5.12
810.59	56.32
810.769	31.74
810.948	74.75
811.127	-68.61
811.306	7.17
811.485	46.08
811.664	193.53
811.843	50.18
812.022	39.94
812.201	-70.65
812.38	23.55
812.559	1.02
812.737	128
812.916	-62.46
813.095	-82.94
813.274	-76.8
813.453	21.5
813.632	23.55
813.811	56.32
813.989	-87.04
814.168	74.75
814.347	-54.27
814.526	-5.12
814.704	130.05
814.883	123.9
815.062	5.12
815.24	109.57
815.419	-19.46
815.598	-17.41
815.776	-93.18
815.955	9.22
816.133	-50.18
816.312	72.7
816.49	-7.17
816.669	-33.79
816.847	68.61
817.026	-19.46
817.204	64.51
817.383	-11.26
817.561	23.55
817.74	76.8
817.918	17.41
818.097	35.84
818.275	17.41
818.453	109.57
818.632	107.52
818.81	-50.18
818.988	-54.27
819.167	41.98
819.345	7.17
819.523	-1.02
819.701	11.26
819.879	74.75
820.058	39.94
820.236	35.84
820.414	46.08
820.592	17.41
820.77	31.74
820.948	-13.31
821.127	3.07
821.305	130.05
821.483	3.07
821.661	91.13
821.839	58.37
822.017	-44.03
822.195	7.17
822.373	146.43
822.551	-31.74
822.729	72.7
822.907	-15.36
823.085	48.13
823.262	70.65
823.44	-80.89
823.618	44.03
823.796	9.22
823.974	-70.65
824.152	-46.08
824.329	21.5
824.507	48.13
824.685	41.98
824.863	-25.6
825.04	84.99
825.218	109.57
825.396	68.61
825.574	1.02
825.751	99.33
825.929	56.32
826.107	-101.37
826.284	13.31
826.462	31.74
826.639	-56.32
826.817	-130.05
826.994	62.46
827.172	5.12
827.349	171.01
827.527	46.08
827.704	-3.07
827.882	5.12
828.059	-3.07
828.237	-39.94
828.414	101.37
828.591	-35.84
828.769	97.28
828.946	-25.6
829.124	103.42
829.301	93.18
829.478	-13.31
829.655	56.32
829.833	48.13
830.01	-23.55
830.187	11.26
830.364	-9.22
830.542	78.85
830.719	87.04
830.896	60.42
831.073	89.09
831.25	80.89
831.427	99.33
831.604	54.27
831.782	11.26
831.959	25.6
832.136	48.13
832.313	70.65
832.49	15.36
832.667	54.27
832.844	15.36
833.021	80.89
833.198	80.89
833.374	41.98
833.551	9.22
833.728	-39.94
833.905	74.75
834.082	-58.37
834.259	95.23
834.436	97.28
834.612	-56.32
834.789	91.13
834.966	-52.22
835.143	128
835.319	-68.61
835.496	97.28
835.673	-27.65
835.85	82.94
836.026	-15.36
836.203	152.57
836.38	-54.27
836.556	-21.5
836.733	44.03
836.909	148.48
837.086	33.79
837.262	-37.89
837.439	15.36
837.616	-33.79
837.792	-48.13
837.968	-37.89
838.145	-78.85
838.321	-21.5
838.498	72.7
838.674	78.85
838.851	17.41
839.027	64.51
839.203	44.03
839.38	78.85
839.556	-50.18
839.732	31.74
839.909	41.98
840.085	-13.31
840.261	13.31
840.437	64.51
840.614	13.31
840.79	39.94
840.966	19.46
841.142	33.79
841.318	-27.65
841.494	82.94
841.671	91.13
841.847	70.65
842.023	-35.84
842.199	35.84
842.375	175.1
842.551	-48.13
842.727	3.07
842.903	136.19
843.079	-78.85
843.255	130.05
843.431	62.46
843.607	82.94
843.783	-74.75
843.959	125.95
844.134	-15.36
844.31	19.46
844.486	-1.02
844.662	35.84
844.838	115.71
845.013	39.94
845.189	50.18
845.365	95.23
845.541	-44.03
845.716	-25.6
845.892	99.33
846.068	-17.41
846.244	27.65
846.419	15.36
846.595	-37.89
846.77	-84.99
846.946	72.7
847.122	-66.56
847.297	-29.7
847.473	105.47
847.648	-54.27
847.824	27.65
847.999	-78.85
848.175	-15.36
848.35	134.14
848.526	107.52
848.701	130.05
848.876	68.61
849.052	123.9
849.227	31.74
849.403	31.74
849.578	31.74
849.753	48.13
849.929	62.46
850.104	-76.8
850.279	11.26
850.454	21.5
850.63	68.61
850.805	23.55
850.98	3.07
851.155	-11.26
851.33	62.46
851.505	-11.26
851.681	181.25
851.856	41.98
852.031	48.13
852.206	15.36
852.381	-11.26
852.556	-54.27
852.731	31.74
852.906	19.46
853.081	3.07
853.256	134.14
853.431	-44.03
853.606	-87.04
853.781	-46.08
853.956	-128
854.131	-11.26
854.305	-33.79
854.48	-25.6
854.655	-80.89
854.83	25.6
855.005	-21.5
855.18	44.03
855.354	23.55
855.529	5.12
855.704	29.7
855.879	41.98
856.053	-35.84
856.228	27.65
856.403	-44.03
856.577	3.07
856.752	-93.18
856.926	95.23
857.101	66.56
857.276	-31.74
857.45	56.32
857.625	97.28
857.799	9.22
857.974	31.74
858.148	-19.46
858.323	15.36
858.497	50.18
858.672	-62.46
858.846	-31.74
859.02	80.89
859.195	-41.98
859.369	19.46
859.543	-41.98
859.718	44.03
859.892	52.22
860.066	-3.07
860.241	-60.42
860.415	-46.08
860.589	39.94
860.763	19.46
860.938	-9.22
861.112	56.32
861.286	25.6
861.46	-9.22
861.634	7.17
861.808	113.66
861.982	-27.65
862.157	-93.18
862.331	33.79
862.505	-82.94
862.679	-76.8
862.853	-9.22
863.027	-87.04
863.201	115.71
863.375	-48.13
863.549	56.32
863.722	3.07
863.896	60.42
864.07	-62.46
864.244	-19.46
864.418	132.09
864.592	-1.02
864.766	37.89
864.939	11.26
865.113	29.7
865.287	82.94
865.461	25.6
865.634	62.46
865.808	-17.41
865.982	-44.03
866.156	-19.46
866.329	-74.75
866.503	-5.12
866.676	123.9
866.85	-50.18
867.024	-3.07
867.197	125.95
867.371	15.36
867.544	-3.07
867.718	-70.65
867.891	128
868.065	-19.46
868.238	60.42
868.412	162.81
868.585	-3.07
868.759	3.07
868.932	-46.08
869.105	-41.98
869.279	-46.08
869.452	3.07
869.625	95.23
869.799	-44.03
869.972	-60.42
870.145	62.46
870.319	89.09
870.492	-11.26
870.665	62.46
870.838	3.07
871.011	-109.57
871.185	68.61
871.358	-107.52
871.531	91.13
871.704	17.41
871.877	19.46
872.05	-84.99
872.223	-41.98
872.396	64.51
872.569	72.7
872.742	-111.61
872.915	13.31
873.088	7.17
873.261	-46.08
873.434	62.46
873.607	-31.74
873.78	76.8
873.953	-68.61
874.126	23.55
874.299	27.65
874.471	-1.02
874.644	25.6
874.817	68.61
874.99	130.05
875.163	-60.42
875.335	35.84
875.508	-17.41
875.681	113.66
875.853	-48.13
876.026	-11.26
876.199	101.37
876.371	60.42
876.544	44.03
876.717	101.37
876.889	-41.98
877.062	60.42
877.234	-72.7
877.407	3.07
877.579	7.17
877.752	-15.36
877.924	25.6
878.097	99.33
878.269	-25.6
878.442	31.74
878.614	72.7
878.786	27.65
878.959	54.27
879.131	37.89
879.303	-140.29
879.476	-31.74
879.648	91.13
879.82	21.5
879.993	-60.42
880.165	-64.51
880.337	-9.22
880.509	-27.65
880.681	-150.53
880.854	-11.26
881.026	84.99
881.198	136.19
881.37	5.12
881.542	27.65
881.714	-7.17
881.886	-54.27
882.058	54.27
882.23	80.89
882.402	-3.07
882.574	-31.74
882.746	107.52
882.918	121.85
883.09	78.85
883.262	-7.17
883.434	41.98
883.606	-105.47
883.778	13.31
883.95	95.23
884.122	-11.26
884.293	89.09
884.465	70.65
884.637	46.08
884.809	-5.12
884.98	56.32
885.152	52.22
885.324	74.75
885.496	-50.18
885.667	37.89
885.839	-35.84
886.011	97.28
886.182	-17.41
886.354	50.18
886.525	95.23
886.697	50.18
886.869	-48.13
887.04	-11.26
887.212	154.62
887.383	56.32
887.555	89.09
887.726	-54.27
887.897	-41.98
888.069	3.07
888.24	123.9
888.412	-13.31
888.583	-1.02
888.754	1.02
888.926	-9.22
889.097	17.41
889.268	-78.85
889.44	44.03
889.611	-97.28
889.782	-125.95
889.953	-52.22
890.125	109.57
890.296	-74.75
890.467	41.98
890.638	7.17
890.809	50.18
890.98	11.26
891.151	93.18
891.323	103.42
891.494	21.5
891.665	27.65
891.836	48.13
892.007	21.5
892.178	1.02
892.349	21.5
892.52	-64.51
892.691	-31.74
892.862	-15.36
893.032	-1.02
893.203	-33.79
893.374	68.61
893.545	-3.07
893.716	41.98
893.887	13.31
894.057	11.26
894.228	72.7
894.399	-66.56
894.57	128
894.74	41.98
894.911	44.03
895.082	-9.22
895.253	3.07
895.423	19.46
895.594	82.94
895.764	132.09
895.935	-46.08
896.106	78.85
896.276	-46.08
896.447	-11.26
896.617	-64.51
896.788	-3.07
896.958	-50.18
897.129	-41.98
897.299	-58.37
897.47	146.43
897.64	39.94
897.81	66.56
897.981	-23.55
898.151	-48.13
898.322	1.02
898.492	70.65
898.662	-54.27
898.832	3.07
899.003	29.7
899.173	48.13
899.343	-66.56
899.513	-60.42
