Data from USB4F104151__50__10-25-32-533.txt Node

Date: Wed Feb 26 10:25:32 EST 2025
User: louis
Spectrometer: USB4F10415
Trigger mode: 4
Integration Time (sec): 1.000000E-1
Scans to average: 1
Electric dark correction enabled: true
Nonlinearity correction enabled: false
Boxcar width: 0
XAxis mode: Wavelengths
Number of Pixels in Spectrum: 3648
>>>>>Begin Spectral Data<<<<<
178.204	-382.29
178.424	-382.29
178.644	-382.29
178.864	-423.25
179.084	-386.38
179.304	10.92
179.524	12.97
179.744	-1.37
179.964	23.21
180.184	27.31
180.404	15.02
180.624	-50.52
180.844	0.68
181.064	-50.52
181.283	21.16
181.503	-77.14
181.723	68.27
181.943	-42.32
182.163	199.34
182.383	64.17
182.602	103.08
182.822	121.51
183.042	70.31
183.262	-48.47
183.482	8.87
183.701	41.64
183.921	98.99
184.141	-48.47
184.361	76.46
184.58	98.99
184.8	90.79
185.02	47.79
185.239	58.03
185.459	135.85
185.679	109.22
185.898	-77.14
186.118	139.94
186.338	125.61
186.557	60.07
186.777	-17.75
186.997	29.35
187.216	80.55
187.436	271.01
187.655	84.65
187.875	123.56
188.095	74.41
188.314	141.99
188.534	160.42
188.753	12.97
188.973	96.94
189.192	115.37
189.412	-13.65
189.631	43.69
189.851	86.7
190.07	109.22
190.29	-118.1
190.509	15.02
190.729	4.78
190.948	131.75
191.168	228.01
191.387	125.61
191.607	17.07
191.826	117.42
192.045	-17.75
192.265	72.36
192.484	144.04
192.704	68.27
192.923	-159.06
193.142	172.71
193.362	92.84
193.581	146.09
193.8	64.17
194.02	76.46
194.239	29.35
194.458	129.7
194.678	41.64
194.897	-54.61
195.116	78.51
195.335	2.73
195.555	123.56
195.774	39.59
195.993	131.75
196.212	76.46
196.432	23.21
196.651	-36.18
196.87	45.74
197.089	219.82
197.308	86.7
197.528	78.51
197.747	-58.71
197.966	55.98
198.185	166.57
198.404	-1.37
198.623	133.8
198.842	101.03
199.062	162.47
199.281	96.94
199.5	53.93
199.719	113.32
199.938	125.61
200.157	101.03
200.376	51.88
200.595	115.37
200.814	68.27
201.033	29.35
201.252	78.51
201.471	53.93
201.69	10.92
201.909	68.27
202.128	68.27
202.347	96.94
202.566	119.46
202.785	-9.56
203.004	4.78
203.223	211.62
203.442	6.83
203.661	-42.32
203.879	23.21
204.098	58.03
204.317	-27.99
204.536	129.7
204.755	41.64
204.974	88.75
205.193	-5.46
205.411	105.13
205.63	-11.61
205.849	127.66
206.068	4.78
206.287	-30.04
206.505	176.81
206.724	29.35
206.943	-3.41
207.162	-1.37
207.381	105.13
207.599	-46.42
207.818	127.66
208.037	19.11
208.255	64.17
208.474	90.79
208.693	43.69
208.911	-34.13
209.13	115.37
209.349	19.11
209.567	88.75
209.786	92.84
210.005	88.75
210.223	68.27
210.442	-103.76
210.661	-1.37
210.879	53.93
211.098	101.03
211.316	103.08
211.535	-15.7
211.753	41.64
211.972	39.59
212.191	39.59
212.409	119.46
212.628	101.03
212.846	60.07
213.065	35.5
213.283	96.94
213.502	35.5
213.72	8.87
213.938	37.55
214.157	51.88
214.375	66.22
214.594	19.11
214.812	103.08
215.031	-17.75
215.249	49.83
215.467	68.27
215.686	43.69
215.904	47.79
216.122	90.79
216.341	131.75
216.559	-44.37
216.778	74.41
216.996	92.84
217.214	31.4
217.432	103.08
217.651	-56.66
217.869	121.51
218.087	41.64
218.306	37.55
218.524	15.02
218.742	64.17
218.96	111.27
219.179	-58.71
219.397	10.92
219.615	182.95
219.833	127.66
220.051	-79.19
220.27	123.56
220.488	131.75
220.706	80.55
220.924	-25.94
221.142	-64.85
221.36	80.55
221.578	88.75
221.796	43.69
222.015	55.98
222.233	21.16
222.451	78.51
222.669	-93.52
222.887	111.27
223.105	107.18
223.323	33.45
223.541	-23.89
223.759	55.98
223.977	74.41
224.195	127.66
224.413	70.31
224.631	101.03
224.849	19.11
225.067	125.61
225.285	60.07
225.503	29.35
225.721	-23.89
225.939	103.08
226.157	96.94
226.375	248.49
226.592	-54.61
226.81	49.83
227.028	123.56
227.246	90.79
227.464	49.83
227.682	31.4
227.9	94.89
228.117	109.22
228.335	98.99
228.553	19.11
228.771	39.59
228.989	-7.51
229.206	55.98
229.424	47.79
229.642	10.92
229.86	12.97
230.077	154.28
230.295	35.5
230.513	111.27
230.731	43.69
230.948	148.14
231.166	174.76
231.384	-9.56
231.601	-60.76
231.819	172.71
232.037	-25.94
232.254	4.78
232.472	31.4
232.689	49.83
232.907	103.08
233.125	27.31
233.342	-44.37
233.56	-21.85
233.777	6.83
233.995	72.36
234.213	88.75
234.43	49.83
234.648	25.26
234.865	25.26
235.083	35.5
235.3	35.5
235.518	68.27
235.735	168.62
235.953	33.45
236.17	74.41
236.388	10.92
236.605	33.45
236.822	80.55
237.04	68.27
237.257	-7.51
237.475	-38.23
237.692	-36.18
237.909	113.32
238.127	43.69
238.344	74.41
238.562	72.36
238.779	6.83
238.996	-7.51
239.214	49.83
239.431	103.08
239.648	76.46
239.865	144.04
240.083	21.16
240.3	27.31
240.517	31.4
240.735	90.79
240.952	129.7
241.169	117.42
241.386	60.07
241.603	109.22
241.821	-1.37
242.038	156.33
242.255	146.09
242.472	-36.18
242.689	43.69
242.907	60.07
243.124	88.75
243.341	84.65
243.558	60.07
243.775	-27.99
243.992	-60.76
244.209	117.42
244.426	154.28
244.643	-25.94
244.86	-3.41
245.078	43.69
245.295	-3.41
245.512	35.5
245.729	49.83
245.946	78.51
246.163	-32.08
246.38	41.64
246.597	105.13
246.814	43.69
247.031	117.42
247.248	6.83
247.464	96.94
247.681	84.65
247.898	109.22
248.115	82.6
248.332	-48.47
248.549	201.38
248.766	156.33
248.983	76.46
249.2	111.27
249.417	84.65
249.633	-9.56
249.85	88.75
250.067	-30.04
250.284	92.84
250.501	39.59
250.717	41.64
250.934	17.07
251.151	-1.37
251.368	10.92
251.585	76.46
251.801	96.94
252.018	-19.8
252.235	174.76
252.451	-48.47
252.668	-27.99
252.885	170.66
253.102	55.98
253.318	-42.32
253.535	51.88
253.752	21.16
253.968	-89.43
254.185	25.26
254.401	0.68
254.618	53.93
254.835	47.79
255.051	176.81
255.268	119.46
255.484	62.12
255.701	10.92
255.917	92.84
256.134	-9.56
256.351	105.13
256.567	-15.7
256.784	-32.08
257	-27.99
257.217	88.75
257.433	137.9
257.65	25.26
257.866	125.61
258.082	-91.48
258.299	39.59
258.515	53.93
258.732	60.07
258.948	6.83
259.165	45.74
259.381	-13.65
259.597	41.64
259.814	70.31
260.03	31.4
260.246	47.79
260.463	158.38
260.679	105.13
260.895	35.5
261.112	139.94
261.328	117.42
261.544	-7.51
261.761	185
261.977	10.92
262.193	8.87
262.409	105.13
262.626	12.97
262.842	82.6
263.058	74.41
263.274	176.81
263.49	78.51
263.707	107.18
263.923	51.88
264.139	-93.52
264.355	41.64
264.571	96.94
264.787	15.02
265.004	82.6
265.22	6.83
265.436	-62.8
265.652	-25.94
265.868	72.36
266.084	8.87
266.3	72.36
266.516	-15.7
266.732	47.79
266.948	29.35
267.164	64.17
267.38	129.7
267.596	74.41
267.812	195.24
268.028	74.41
268.244	-1.37
268.46	58.03
268.676	82.6
268.892	62.12
269.108	-1.37
269.324	-17.75
269.54	70.31
269.756	53.93
269.972	-46.42
270.188	-15.7
270.403	-105.81
270.619	-9.56
270.835	115.37
271.051	21.16
271.267	10.92
271.483	6.83
271.698	135.85
271.914	96.94
272.13	35.5
272.346	25.26
272.562	43.69
272.777	78.51
272.993	74.41
273.209	-13.65
273.425	139.94
273.64	-7.51
273.856	98.99
274.072	10.92
274.287	6.83
274.503	121.51
274.719	105.13
274.934	-50.52
275.15	-83.28
275.366	39.59
275.581	-32.08
275.797	68.27
276.012	-27.99
276.228	23.21
276.444	45.74
276.659	76.46
276.875	-21.85
277.09	37.55
277.306	64.17
277.521	39.59
277.737	43.69
277.952	84.65
278.168	105.13
278.383	80.55
278.599	41.64
278.814	76.46
279.03	117.42
279.245	139.94
279.461	10.92
279.676	123.56
279.892	2.73
280.107	15.02
280.322	-38.23
280.538	121.51
280.753	-3.41
280.969	86.7
281.184	-32.08
281.399	43.69
281.615	131.75
281.83	88.75
282.045	19.11
282.26	-15.7
282.476	127.66
282.691	49.83
282.906	47.79
283.122	10.92
283.337	-15.7
283.552	88.75
283.767	4.78
283.983	92.84
284.198	37.55
284.413	96.94
284.628	-75.09
284.843	141.99
285.058	94.89
285.274	-44.37
285.489	19.11
285.704	117.42
285.919	41.64
286.134	-3.41
286.349	47.79
286.564	17.07
286.779	148.14
286.995	92.84
287.21	-93.52
287.425	53.93
287.64	-50.52
287.855	76.46
288.07	-1.37
288.285	156.33
288.5	84.65
288.715	64.17
288.93	41.64
289.145	-7.51
289.36	123.56
289.575	10.92
289.79	82.6
290.004	15.02
290.219	68.27
290.434	-32.08
290.649	41.64
290.864	41.64
291.079	39.59
291.294	68.27
291.509	72.36
291.724	43.69
291.938	0.68
292.153	35.5
292.368	49.83
292.583	33.45
292.798	101.03
293.012	154.28
293.227	82.6
293.442	-71
293.657	76.46
293.871	82.6
294.086	60.07
294.301	217.77
294.516	141.99
294.73	80.55
294.945	92.84
295.16	-27.99
295.374	176.81
295.589	115.37
295.804	12.97
296.018	53.93
296.233	90.79
296.447	92.84
296.662	39.59
296.877	131.75
297.091	84.65
297.306	117.42
297.52	-44.37
297.735	51.88
297.949	109.22
298.164	27.31
298.378	74.41
298.593	-3.41
298.807	31.4
299.022	31.4
299.236	193.19
299.451	31.4
299.665	17.07
299.88	76.46
300.094	101.03
300.309	-56.66
300.523	55.98
300.737	41.64
300.952	86.7
301.166	31.4
301.381	-23.89
301.595	-15.7
301.809	53.93
302.024	-30.04
302.238	-15.7
302.452	86.7
302.667	62.12
302.881	141.99
303.095	127.66
303.309	144.04
303.524	-62.8
303.738	12.97
303.952	39.59
304.166	10.92
304.381	17.07
304.595	150.18
304.809	27.31
305.023	-32.08
305.237	12.97
305.452	64.17
305.666	76.46
305.88	113.32
306.094	101.03
306.308	68.27
306.522	66.22
306.736	27.31
306.95	41.64
307.164	19.11
307.379	72.36
307.593	152.23
307.807	101.03
308.021	158.38
308.235	129.7
308.449	-52.56
308.663	21.16
308.877	185
309.091	19.11
309.305	123.56
309.519	-89.43
309.733	162.47
309.947	-36.18
310.161	127.66
310.374	82.6
310.588	141.99
310.802	-34.13
311.016	60.07
311.23	113.32
311.444	0.68
311.658	23.21
311.872	131.75
312.085	88.75
312.299	146.09
312.513	41.64
312.727	107.18
312.941	-54.61
313.154	107.18
313.368	19.11
313.582	37.55
313.796	88.75
314.009	37.55
314.223	98.99
314.437	47.79
314.651	66.22
314.864	-13.65
315.078	-19.8
315.292	15.02
315.505	35.5
315.719	10.92
315.933	35.5
316.146	45.74
316.36	-19.8
316.573	74.41
316.787	60.07
317.001	39.59
317.214	-38.23
317.428	55.98
317.641	-5.46
317.855	-17.75
318.068	88.75
318.282	64.17
318.495	197.29
318.709	27.31
318.922	53.93
319.136	164.52
319.349	172.71
319.563	-5.46
319.776	96.94
319.99	-52.56
320.203	109.22
320.417	-44.37
320.63	62.12
320.843	195.24
321.057	121.51
321.27	64.17
321.483	43.69
321.697	160.42
321.91	27.31
322.124	80.55
322.337	113.32
322.55	-5.46
322.763	121.51
322.977	76.46
323.19	-13.65
323.403	31.4
323.617	74.41
323.83	146.09
324.043	0.68
324.256	103.08
324.469	2.73
324.683	4.78
324.896	0.68
325.109	-1.37
325.322	-38.23
325.535	139.94
325.748	176.81
325.962	29.35
326.175	80.55
326.388	70.31
326.601	125.61
326.814	98.99
327.027	62.12
327.24	195.24
327.453	-71
327.666	78.51
327.879	78.51
328.092	66.22
328.305	193.19
328.518	15.02
328.731	60.07
328.944	115.37
329.157	58.03
329.37	-9.56
329.583	139.94
329.796	113.32
330.009	-87.38
330.222	8.87
330.435	123.56
330.648	113.32
330.861	55.98
331.073	31.4
331.286	88.75
331.499	53.93
331.712	-34.13
331.925	60.07
332.138	31.4
332.35	137.9
332.563	-93.52
332.776	168.62
332.989	45.74
333.202	58.03
333.414	119.46
333.627	10.92
333.84	43.69
334.053	49.83
334.265	-48.47
334.478	17.07
334.691	-5.46
334.903	41.64
335.116	31.4
335.329	27.31
335.541	39.59
335.754	86.7
335.966	-5.46
336.179	62.12
336.392	51.88
336.604	55.98
336.817	135.85
337.029	53.93
337.242	33.45
337.454	66.22
337.667	88.75
337.88	135.85
338.092	90.79
338.305	39.59
338.517	-30.04
338.729	64.17
338.942	103.08
339.154	-11.61
339.367	-7.51
339.579	146.09
339.792	64.17
340.004	123.56
340.217	6.83
340.429	125.61
340.641	45.74
340.854	17.07
341.066	25.26
341.278	109.22
341.491	146.09
341.703	103.08
341.915	-7.51
342.128	72.36
342.34	-5.46
342.552	84.65
342.764	60.07
342.977	35.5
343.189	21.16
343.401	55.98
343.613	-79.19
343.826	-7.51
344.038	35.5
344.25	-27.99
344.462	72.36
344.674	88.75
344.886	33.45
345.099	68.27
345.311	107.18
345.523	17.07
345.735	-75.09
345.947	62.12
346.159	43.69
346.371	64.17
346.583	58.03
346.795	219.82
347.007	17.07
347.219	141.99
347.431	35.5
347.643	166.57
347.855	-79.19
348.067	90.79
348.279	8.87
348.491	62.12
348.703	123.56
348.915	62.12
349.127	43.69
349.339	51.88
349.551	41.64
349.763	109.22
349.975	76.46
350.187	68.27
350.399	62.12
350.61	86.7
350.822	25.26
351.034	160.42
351.246	47.79
351.458	129.7
351.669	29.35
351.881	150.18
352.093	27.31
352.305	53.93
352.517	6.83
352.728	207.53
352.94	160.42
353.152	31.4
353.363	-23.89
353.575	31.4
353.787	182.95
353.999	37.55
354.21	166.57
354.422	-34.13
354.633	51.88
354.845	-11.61
355.057	39.59
355.268	-40.28
355.48	72.36
355.692	-87.38
355.903	10.92
356.115	21.16
356.326	-146.77
356.538	158.38
356.749	43.69
356.961	117.42
357.172	74.41
357.384	58.03
357.595	131.75
357.807	12.97
358.018	-30.04
358.23	27.31
358.441	146.09
358.653	146.09
358.864	-7.51
359.075	60.07
359.287	74.41
359.498	121.51
359.709	96.94
359.921	133.8
360.132	84.65
360.344	70.31
360.555	29.35
360.766	55.98
360.977	0.68
361.189	101.03
361.4	10.92
361.611	127.66
361.823	117.42
362.034	0.68
362.245	0.68
362.456	60.07
362.667	103.08
362.879	-17.75
363.09	86.7
363.301	53.93
363.512	27.31
363.723	-23.89
363.935	39.59
364.146	82.6
364.357	41.64
364.568	15.02
364.779	-19.8
364.99	111.27
365.201	-89.43
365.412	141.99
365.623	-38.23
365.834	15.02
366.045	29.35
366.256	113.32
366.467	131.75
366.678	4.78
366.889	35.5
367.1	-1.37
367.311	180.9
367.522	33.45
367.733	107.18
367.944	66.22
368.155	58.03
368.366	37.55
368.577	182.95
368.788	78.51
368.999	33.45
369.209	92.84
369.42	133.8
369.631	158.38
369.842	139.94
370.053	35.5
370.264	80.55
370.474	66.22
370.685	135.85
370.896	47.79
371.107	131.75
371.317	39.59
371.528	84.65
371.739	146.09
371.95	17.07
372.16	107.18
372.371	-58.71
372.582	78.51
372.792	45.74
373.003	55.98
373.214	109.22
373.424	72.36
373.635	-36.18
373.846	170.66
374.056	55.98
374.267	127.66
374.477	-3.41
374.688	66.22
374.898	53.93
375.109	101.03
375.319	82.6
375.53	113.32
375.74	111.27
375.951	74.41
376.161	92.84
376.372	141.99
376.582	51.88
376.793	21.16
377.003	-40.28
377.214	-9.56
377.424	141.99
377.635	49.83
377.845	10.92
378.055	78.51
378.266	-1.37
378.476	6.83
378.686	51.88
378.897	84.65
379.107	166.57
379.317	53.93
379.528	-32.08
379.738	111.27
379.948	-48.47
380.158	103.08
380.369	121.51
380.579	78.51
380.789	109.22
380.999	98.99
381.21	111.27
381.42	180.9
381.63	12.97
381.84	90.79
382.05	119.46
382.261	129.7
382.471	123.56
382.681	33.45
382.891	189.1
383.101	101.03
383.311	-52.56
383.521	70.31
383.731	133.8
383.941	141.99
384.151	76.46
384.361	8.87
384.571	64.17
384.781	98.99
384.991	215.72
385.201	129.7
385.411	41.64
385.621	12.97
385.831	55.98
386.041	-7.51
386.251	23.21
386.461	107.18
386.671	111.27
386.881	0.68
387.091	17.07
387.301	131.75
387.511	17.07
387.72	94.89
387.93	92.84
388.14	-75.09
388.35	37.55
388.56	33.45
388.769	170.66
388.979	43.69
389.189	39.59
389.399	43.69
389.609	123.56
389.818	47.79
390.028	49.83
390.238	4.78
390.447	21.16
390.657	45.74
390.867	55.98
391.076	-27.99
391.286	27.31
391.496	131.75
391.705	82.6
391.915	172.71
392.125	111.27
392.334	27.31
392.544	176.81
392.753	82.6
392.963	-75.09
393.172	90.79
393.382	31.4
393.591	144.04
393.801	25.26
394.01	129.7
394.22	90.79
394.429	-25.94
394.639	19.11
394.848	109.22
395.058	58.03
395.267	-9.56
395.477	-19.8
395.686	105.13
395.895	187.05
396.105	176.81
396.314	51.88
396.524	76.46
396.733	84.65
396.942	152.23
397.152	98.99
397.361	66.22
397.57	51.88
397.78	2.73
397.989	105.13
398.198	254.63
398.407	15.02
398.617	41.64
398.826	113.32
399.035	45.74
399.244	123.56
399.453	-3.41
399.663	12.97
399.872	103.08
400.081	-44.37
400.29	72.36
400.499	-30.04
400.708	209.58
400.917	62.12
401.127	68.27
401.336	27.31
401.545	176.81
401.754	98.99
401.963	94.89
402.172	64.17
402.381	-38.23
402.59	17.07
402.799	43.69
403.008	109.22
403.217	-9.56
403.426	62.12
403.635	19.11
403.844	15.02
404.053	37.55
404.262	27.31
404.471	162.47
404.68	25.26
404.888	31.4
405.097	33.45
405.306	146.09
405.515	72.36
405.724	66.22
405.933	152.23
406.142	92.84
406.35	117.42
406.559	31.4
406.768	-3.41
406.977	168.62
407.185	158.38
407.394	113.32
407.603	-60.76
407.812	78.51
408.02	162.47
408.229	53.93
408.438	15.02
408.646	-58.71
408.855	76.46
409.064	15.02
409.272	146.09
409.481	109.22
409.69	-73.04
409.898	45.74
410.107	35.5
410.315	189.1
410.524	58.03
410.733	70.31
410.941	66.22
411.15	158.38
411.358	74.41
411.567	180.9
411.775	12.97
411.984	107.18
412.192	12.97
412.401	53.93
412.609	240.3
412.818	80.55
413.026	82.6
413.234	101.03
413.443	37.55
413.651	10.92
413.86	-71
414.068	193.19
414.276	141.99
414.485	-15.7
414.693	168.62
414.901	135.85
415.11	94.89
415.318	78.51
415.526	12.97
415.734	135.85
415.943	119.46
416.151	115.37
416.359	47.79
416.567	82.6
416.776	137.9
416.984	80.55
417.192	148.14
417.4	-36.18
417.608	4.78
417.817	-27.99
418.025	74.41
418.233	193.19
418.441	-60.76
418.649	68.27
418.857	125.61
419.065	115.37
419.273	-23.89
419.481	51.88
419.689	55.98
419.897	70.31
420.105	-1.37
420.313	92.84
420.521	131.75
420.729	111.27
420.937	-5.46
421.145	-17.75
421.353	123.56
421.561	70.31
421.769	103.08
421.977	66.22
422.185	82.6
422.393	86.7
422.601	144.04
422.809	88.75
423.017	80.55
423.224	64.17
423.432	103.08
423.64	45.74
423.848	174.76
424.056	70.31
424.263	90.79
424.471	64.17
424.679	166.57
424.887	33.45
425.094	168.62
425.302	176.81
425.51	103.08
425.718	84.65
425.925	80.55
426.133	-11.61
426.341	189.1
426.548	74.41
426.756	2.73
426.964	101.03
427.171	37.55
427.379	35.5
427.586	68.27
427.794	137.9
428.001	135.85
428.209	72.36
428.417	197.29
428.624	146.09
428.832	135.85
429.039	201.38
429.247	82.6
429.454	146.09
429.662	248.49
429.869	84.65
430.076	41.64
430.284	150.18
430.491	254.63
430.699	70.31
430.906	219.82
431.114	62.12
431.321	150.18
431.528	96.94
431.736	203.43
431.943	150.18
432.15	234.15
432.358	209.58
432.565	262.82
432.772	-32.08
432.979	197.29
433.187	162.47
433.394	236.2
433.601	94.89
433.808	207.53
434.016	182.95
434.223	225.96
434.43	158.38
434.637	275.11
434.844	180.9
435.052	293.54
435.259	248.49
435.466	242.34
435.673	320.17
435.88	406.18
436.087	371.37
436.294	387.75
436.501	289.45
436.708	283.3
436.915	244.39
437.122	420.52
437.329	303.78
437.537	342.69
437.743	283.3
437.95	432.8
438.157	324.26
438.364	332.45
438.571	397.99
438.778	451.24
438.985	455.33
439.192	451.24
439.399	410.28
439.606	395.94
439.813	490.15
440.02	572.07
440.227	596.64
440.433	545.44
440.64	518.82
440.847	549.54
441.054	574.11
441.261	686.75
441.467	674.46
441.674	647.84
441.881	768.67
442.088	668.32
442.294	729.76
442.501	811.68
442.708	760.48
442.914	783.01
443.121	883.36
443.328	805.53
443.534	907.93
443.741	866.97
443.948	785.05
444.154	918.17
444.361	1073.82
444.568	924.32
444.774	1053.34
444.981	1020.57
445.187	1079.96
445.394	1204.89
445.6	1149.59
445.807	1290.9
446.013	1190.55
446.22	1217.18
446.426	1391.25
446.633	1430.16
446.839	1647.25
447.046	1438.36
447.252	1491.6
447.459	1383.06
447.665	1600.15
447.871	1774.22
448.078	1823.37
448.284	1827.47
448.491	1870.48
448.697	2069.13
448.903	2194.06
449.11	2093.71
449.316	2114.19
449.522	2235.02
449.728	2388.61
449.935	2493.06
450.141	2351.75
450.347	2667.14
450.553	2534.02
450.76	2591.36
450.966	2824.83
451.172	2839.17
451.378	3175.03
451.584	3091.07
451.791	3416.69
451.997	3334.78
452.203	3365.5
452.409	3592.82
452.615	3523.19
452.821	3646.07
453.027	3730.03
453.233	4211.31
453.44	3971.69
453.646	4252.27
453.852	4440.68
454.058	4577.89
454.264	4665.96
454.47	5055.07
454.676	4975.2
454.882	5620.31
455.088	5216.86
455.294	5689.94
455.5	5931.6
455.705	6324.81
455.911	6335.05
456.117	6443.59
456.323	6634.05
456.529	6605.38
456.735	7336.51
456.941	7447.1
457.147	7811.64
457.352	7944.75
457.558	8327.72
457.764	8827.43
457.97	8886.82
458.176	9183.77
458.381	9925.14
458.587	9810.45
458.793	10471.95
458.999	10064.4
459.204	11645.43
459.41	12061.17
459.616	11809.27
459.821	12503.53
460.027	13173.22
460.233	13601.24
460.438	13662.68
460.644	14508.49
460.85	14709.19
461.055	15137.22
461.261	15983.03
461.466	15741.37
461.672	16007.61
461.878	17973.66
462.083	17674.65
462.289	18061.72
462.494	18690.45
462.7	18835.85
462.905	19249.54
463.111	20728.17
463.316	21821.79
463.522	21942.62
463.727	22997.32
463.932	24000.83
464.138	24246.58
464.343	25491.75
464.549	25710.88
464.754	27384.07
464.959	28006.66
465.165	28496.12
465.37	28309.75
465.575	28213.5
465.781	30150.88
465.986	31174.86
466.191	30628.06
466.397	30906.58
466.602	30451.93
466.807	31772.87
467.012	32880.82
467.218	33026.23
467.423	33460.4
467.628	34101.41
467.833	35956.87
468.038	35459.21
468.244	34660.51
468.449	36493.44
468.654	35485.84
468.859	35229.84
469.064	35512.46
469.269	34939.03
469.474	35158.16
469.679	35930.25
469.885	34873.49
470.09	35659.91
470.295	35584.14
470.5	34814.1
470.705	35076.24
470.91	33972.39
471.115	33411.24
471.32	34289.82
471.525	33996.96
471.73	33138.86
471.935	32831.67
472.139	31858.88
472.344	31606.98
472.549	31391.95
472.754	31011.03
472.959	30230.75
473.164	29008.11
473.369	28819.7
473.574	29618.41
473.778	29118.7
473.983	28653.81
474.188	28297.47
474.393	26849.55
474.598	26859.79
474.802	25968.93
475.007	25825.57
475.212	25454.89
475.417	24502.58
475.621	24328.5
475.826	24250.68
476.031	23456.07
476.235	22770
476.44	22823.25
476.645	22526.29
476.849	22475.09
477.054	21780.83
477.259	21334.37
477.463	21410.15
477.668	20326.77
477.872	20767.09
478.077	20306.29
478.282	19657.09
478.486	19370.37
478.691	19353.99
478.895	19165.57
479.1	18622.86
479.304	18909.58
479.509	18215.32
479.713	18497.94
479.918	18020.76
480.122	17480.1
480.326	17662.37
480.531	17629.6
480.735	17754.52
480.94	17299.87
481.144	17709.47
481.348	16945.58
481.553	17074.6
481.757	16599.47
481.961	16665
482.166	16732.59
482.37	16482.74
482.574	16054.71
482.778	16155.06
482.983	16349.62
483.187	16099.76
483.391	15962.55
483.595	15739.32
483.8	15243.71
484.004	15770.04
484.208	15428.03
484.412	15276.48
484.616	15114.69
484.821	15053.25
485.025	14453.2
485.229	14416.33
485.433	14004.69
485.637	14252.5
485.841	13912.53
486.045	13746.65
486.249	13726.17
486.453	13384.16
486.657	13439.45
486.861	13177.31
487.065	12831.21
487.269	12519.92
487.473	12321.26
487.677	12462.57
487.881	12405.23
488.085	12161.52
488.289	11667.96
488.493	11559.42
488.697	11831.8
488.901	11395.58
489.105	10994.18
489.309	10938.88
489.512	11037.19
489.716	10478.09
489.92	10394.12
490.124	10031.63
490.328	10295.82
490.531	9630.23
490.735	9814.55
490.939	9560.6
491.143	9411.1
491.346	9368.09
491.55	9003.55
491.754	8970.79
491.958	8892.96
492.161	8895.01
492.365	8770.08
492.569	8450.6
492.772	8411.69
492.976	8426.03
493.18	8243.76
493.383	8026.67
493.587	7973.43
493.79	8002.1
493.994	7780.92
494.197	7801.4
494.401	7596.6
494.605	7588.41
494.808	7430.71
495.012	7514.68
495.215	7678.52
495.419	7424.57
495.622	7289.4
495.825	7365.18
496.029	7281.21
496.232	7305.79
496.436	7105.09
496.639	7522.87
496.843	7295.55
497.046	7197.24
497.249	7434.81
497.453	7338.55
497.656	7209.53
497.859	7246.4
498.063	7453.24
498.266	7412.28
498.469	7330.36
498.673	7356.99
498.876	7447.1
499.079	7494.2
499.282	7422.52
499.485	7780.92
499.689	7627.32
499.892	7682.61
500.095	7703.09
500.298	7959.09
500.501	7817.78
500.705	7948.85
500.908	8194.61
501.111	8088.11
501.314	8145.45
501.517	8485.42
501.72	8370.73
501.923	8458.79
502.126	8561.19
502.329	8643.11
502.532	8663.59
502.735	8935.97
502.938	9024.03
503.141	9196.06
503.344	9132.58
503.547	9390.62
503.75	9282.08
503.953	9499.16
504.156	9486.87
504.359	9714.2
504.562	9773.59
504.765	10244.62
504.968	10465.8
505.17	10414.6
505.373	10592.78
505.576	10961.41
505.779	10871.3
505.982	11088.39
506.185	11147.78
506.387	11469.31
506.59	11823.61
506.793	11969.01
506.996	12149.23
507.198	12542.44
507.401	12698.09
507.604	12960.23
507.807	13296.1
508.009	13326.82
508.212	13830.62
508.415	13795.8
508.617	14084.56
508.82	14631.37
509.022	14567.88
509.225	15157.7
509.428	15391.17
509.63	15933.88
509.833	15761.85
510.035	16572.85
510.238	16683.44
510.44	16923.05
510.643	17340.83
510.845	18012.57
511.048	18125.21
511.25	18397.59
511.453	18778.51
511.655	19825.02
511.858	19829.12
512.06	20298.1
512.262	20898.16
512.465	20994.41
512.667	21526.88
512.87	22102.36
513.072	22485.33
513.274	23275.85
513.477	23374.15
513.679	24242.49
513.881	24521.01
514.084	24981.81
514.286	25375.02
514.488	26335.51
514.69	27130.12
514.893	27312.39
515.095	27762.95
515.297	28608.76
515.499	28619
515.701	29507.82
515.904	30488.79
516.106	30830.8
516.308	31389.9
516.51	32155.84
516.712	32362.68
516.914	33210.54
517.116	33894.57
517.318	34367.65
517.52	34869.4
517.722	35440.78
517.925	36204.67
518.127	36810.87
518.329	37736.55
518.531	37765.23
518.733	38948.95
518.935	39231.57
519.136	39534.67
519.338	40480.83
519.54	41074.74
519.742	41259.06
519.944	42113.06
520.146	42971.16
520.348	43255.83
520.55	43610.13
520.752	44208.14
520.954	44892.16
521.155	44546.05
521.357	45973.49
521.559	46045.16
521.761	46923.74
521.963	47151.07
522.164	47689.68
522.366	47808.47
522.568	48416.71
522.77	48144.33
522.971	49313.72
523.173	48582.6
523.375	49639.35
523.576	49776.56
523.778	49571.77
523.98	50165.68
524.181	50155.44
524.383	50278.32
524.584	50950.05
524.786	50626.47
524.988	50278.32
525.189	51052.45
525.391	50794.4
525.592	51099.55
525.794	50757.54
525.995	50474.92
526.197	50859.94
526.398	51038.11
526.6	50483.11
526.801	50397.1
527.003	50745.25
527.204	50294.7
527.406	50597.8
527.607	49913.78
527.808	49891.25
528.01	48779.2
528.211	48897.98
528.412	49389.5
528.614	48969.66
528.815	48121.8
529.016	48351.18
529.218	47245.27
529.419	46864.35
529.62	46639.07
529.822	46743.52
530.023	45533.17
530.224	45486.07
530.425	44883.97
530.626	43970.57
530.828	43696.14
531.029	44056.59
531.23	43329.56
531.431	42889.24
531.632	42496.03
531.833	41859.12
532.035	41642.03
532.236	40507.46
532.437	40441.92
532.638	39817.29
532.839	39415.89
533.04	39084.12
533.241	38350.95
533.442	38363.23
533.643	37341.3
533.844	36917.37
534.045	36771.96
534.246	35420.3
534.447	35887.24
534.648	34943.13
534.849	34939.03
535.05	33935.52
535.251	33517.74
535.451	32854.2
535.652	32972.98
535.853	32063.68
536.054	31977.67
536.255	31158.48
536.456	30769.37
536.657	31226.06
536.857	30257.37
537.058	29589.74
537.259	29571.3
537.46	28942.58
537.66	28479.74
537.861	28377.34
538.062	27926.78
538.263	27574.53
538.463	26964.24
538.664	26704.15
538.865	26505.49
539.065	26446.1
539.266	25958.69
539.466	25915.68
539.667	24926.51
539.868	25078.06
540.068	24858.93
540.269	24504.63
540.469	24256.82
540.67	23667.01
540.87	23447.88
541.071	22960.46
541.271	23292.23
541.472	22786.38
541.672	22638.93
541.873	22223.19
542.073	21504.35
542.274	21850.46
542.474	21344.61
542.675	21049.71
542.875	21012.84
543.075	20806
543.276	20148.6
543.476	20359.54
543.676	20337.01
543.877	20029.82
544.077	19900.79
544.277	19538.3
544.478	19188.1
544.678	19407.23
544.878	18952.59
545.078	18432.4
545.279	18258.32
545.479	18233.75
545.679	18016.66
545.879	17521.06
546.079	17449.38
546.28	17340.83
546.48	16918.95
546.68	17045.93
546.88	16724.4
547.08	16710.06
547.28	16515.5
547.48	16083.38
547.68	16310.71
547.88	15950.26
548.081	15772.09
548.281	15419.84
548.481	15051.2
548.681	14993.86
548.881	14827.98
549.081	14643.66
549.28	14430.67
549.48	14103
549.68	14037.46
549.88	14111.19
550.08	13615.58
550.28	13593.05
550.48	13310.43
550.68	13117.92
550.88	13109.73
551.08	12689.9
551.279	12642.79
551.479	12345.84
551.679	12478.96
551.879	11975.16
552.079	12104.18
552.278	11772.41
552.478	11381.24
552.678	11571.71
552.878	11385.34
553.077	11106.82
553.277	10795.53
553.477	10736.13
553.676	10381.84
553.876	10453.52
554.076	10314.25
554.275	10252.81
554.475	9611.8
554.674	9826.84
554.874	9548.31
555.074	9292.32
555.273	9427.48
555.473	9220.64
555.672	8989.22
555.872	8903.2
556.071	8591.91
556.271	8761.89
556.47	8403.5
556.67	8282.67
556.869	8161.84
557.068	8122.93
557.268	7922.23
557.467	7715.38
557.667	7797.3
557.866	7561.78
558.065	7447.1
558.265	7332.41
558.464	7117.37
558.663	7035.46
558.863	6935.1
559.062	6978.11
559.261	6576.71
559.461	6824.51
559.66	6431.3
559.859	6302.28
560.058	6210.12
560.258	6214.22
560.457	6222.41
560.656	6197.84
560.855	6029.9
561.054	5907.02
561.253	5646.93
561.453	5778
561.652	5667.41
561.851	5648.98
562.05	5278.3
562.249	5380.7
562.448	5390.94
562.647	5128.8
562.846	5042.78
563.045	5077.6
563.244	4954.72
563.443	5106.27
563.642	4762.21
563.841	4801.12
564.04	4805.22
564.239	4631.14
564.438	4555.37
564.637	4383.34
564.836	4422.25
565.035	4282.99
565.234	4280.94
565.432	4215.4
565.631	4092.52
565.83	4078.19
566.029	4094.57
566.228	3998.32
566.427	4108.91
566.625	3930.73
566.824	3742.32
567.023	3789.42
567.222	3742.32
567.42	3725.94
567.619	3807.86
567.818	3607.16
568.016	3693.17
568.215	3607.16
568.414	3465.85
568.612	3459.7
568.811	3459.7
569.01	3281.53
569.208	3177.08
569.407	3334.78
569.605	3035.77
569.804	3068.54
570.002	3041.92
570.201	2962.05
570.4	2916.99
570.598	2949.76
570.797	2978.43
570.995	2759.3
571.193	2955.9
571.392	2853.5
571.59	2626.18
571.789	2833.02
571.987	2669.19
572.186	2599.56
572.384	2517.64
572.582	2521.73
572.781	2544.26
572.979	2554.5
573.177	2511.49
573.376	2527.88
573.574	2474.63
573.772	2329.22
573.971	2165.39
574.169	2247.3
574.367	2259.59
574.565	2181.77
574.763	2120.33
574.962	2089.61
575.16	2024.08
575.358	2124.43
575.556	2060.94
575.754	2062.99
575.952	2007.69
576.151	1929.87
576.349	1999.5
576.547	1751.7
576.745	1833.61
576.943	1759.89
577.141	1680.02
577.339	1729.17
577.537	1811.09
577.735	1757.84
577.933	1702.54
578.131	1612.43
578.329	1817.23
578.527	1505.94
578.725	1692.3
578.923	1450.64
579.121	1583.76
579.319	1426.07
579.516	1479.32
579.714	1620.63
579.912	1481.36
580.11	1397.4
580.308	1206.94
580.506	1354.39
580.704	1163.93
580.901	1231.51
581.099	1407.64
581.297	1338.01
581.495	1325.72
581.692	1122.97
581.89	1366.68
582.088	1219.22
582.285	1196.7
582.483	1202.84
582.681	1221.27
582.878	1254.04
583.076	1198.74
583.274	1112.73
583.471	1190.55
583.669	1090.2
583.866	1022.62
584.064	1069.72
584.262	996
584.459	934.56
584.657	1043.1
584.854	1073.82
585.052	1067.67
585.249	1063.58
585.447	1051.29
585.644	909.98
585.841	1036.95
586.039	938.65
586.236	975.52
586.434	928.41
586.631	793.25
586.828	768.67
587.026	909.98
587.223	742.05
587.42	811.68
587.618	858.78
587.815	983.71
588.012	789.15
588.21	809.63
588.407	883.36
588.604	780.96
588.801	633.5
588.999	670.37
589.196	926.36
589.393	752.29
589.59	764.58
589.787	764.58
589.984	852.64
590.182	815.77
590.379	682.66
590.576	664.22
590.773	672.42
590.97	649.89
591.167	756.38
591.364	701.09
591.561	729.76
591.758	817.82
591.955	772.77
592.152	783.01
592.349	660.13
592.546	709.28
592.743	666.27
592.94	645.79
593.137	696.99
593.334	830.11
593.531	699.04
593.727	772.77
593.924	715.42
594.121	725.66
594.318	701.09
594.515	719.52
594.712	838.3
594.908	735.9
595.105	660.13
595.302	783.01
595.499	694.94
595.696	934.56
595.892	740
596.089	854.69
596.286	723.62
596.482	934.56
596.679	901.79
596.876	778.91
597.072	828.06
597.269	916.12
597.466	1043.1
597.662	940.7
597.859	893.6
598.055	877.21
598.252	1051.29
598.448	998.04
598.645	1057.43
598.841	1112.73
599.038	1266.33
599.234	1251.99
599.431	1266.33
599.627	1208.98
599.824	1344.15
600.02	1360.53
600.217	1368.73
600.413	1415.83
600.609	1485.46
600.806	1682.06
601.002	1622.67
601.198	1589.91
601.395	1684.11
601.591	1778.32
601.787	1778.32
601.984	1974.92
602.18	2017.93
602.376	2024.08
602.572	2200.2
602.769	2271.88
602.965	2280.07
603.161	2413.19
603.357	2476.68
603.553	2640.51
603.75	2542.21
603.946	2704
604.142	2859.65
604.338	2910.85
604.534	2833.02
604.73	2962.05
604.926	2976.38
605.122	3416.69
605.318	3394.17
605.514	3400.31
605.71	3549.81
605.906	3756.66
606.102	3705.46
606.298	3947.12
606.494	3971.69
606.69	4227.69
606.886	4199.02
607.082	4356.71
607.278	4379.24
607.474	4653.67
607.67	4807.27
607.866	4741.73
608.062	5196.38
608.257	5231.19
608.453	5136.99
608.649	5229.15
608.845	5577.3
609.041	5558.87
609.236	5859.92
609.432	6093.39
609.628	6181.45
609.824	6357.58
610.019	6414.92
610.215	6611.53
610.411	7113.28
610.606	7172.67
610.802	7148.09
610.998	7338.55
611.193	7832.12
611.389	7479.86
611.584	7959.09
611.78	8088.11
611.976	8350.25
612.171	8815.14
612.367	8950.31
612.562	9110.05
612.758	9202.21
612.953	9454.11
613.149	9706.01
613.344	10058.26
613.539	10332.68
613.735	10648.07
613.93	10942.98
614.126	11098.63
614.321	11510.27
614.517	11762.17
614.712	12136.95
614.907	12155.38
615.103	12661.23
615.298	13031.91
615.493	13423.07
615.688	13562.33
615.884	14199.25
616.079	14199.25
616.274	14735.82
616.47	15030.73
616.665	15675.84
616.86	15731.13
617.055	16095.67
617.25	16628.14
617.445	17271.2
617.641	17332.64
617.836	17834.39
618.031	18035.1
618.226	19046.79
618.421	19124.61
618.616	19798.4
618.811	19771.77
619.006	20629.87
619.201	20648.3
619.396	21459.3
619.591	21500.26
619.786	22151.51
619.981	22640.98
620.176	23165.26
620.371	23238.98
620.566	24414.52
620.761	25010.48
620.956	25499.94
621.151	25442.6
621.346	26196.25
621.541	26296.6
621.735	27275.53
621.93	27220.24
622.125	28104.96
622.32	28365.05
622.515	29141.23
622.709	29905.12
622.904	30226.65
623.099	30630.1
623.294	31432.91
623.488	31742.15
623.683	32598.2
623.878	32503.99
624.072	33466.54
624.267	33796.26
624.462	34242.72
624.656	34693.27
624.851	35442.83
625.046	35827.85
625.24	36550.78
625.435	36462.72
625.629	37394.54
625.824	37693.55
626.018	38469.73
626.213	38467.68
626.407	39168.08
626.602	39657.55
626.796	39991.37
626.991	40931.39
627.185	40759.36
627.38	40636.48
627.574	41218.1
627.768	41349.17
627.963	41660.46
628.157	41230.39
628.352	41955.37
628.546	41517.11
628.74	42328.1
628.935	41334.84
629.129	42004.52
629.323	41101.37
629.517	41306.16
629.712	41156.66
629.906	41027.64
630.1	40435.78
630.294	40294.47
630.489	39450.7
630.683	39657.55
630.877	38221.92
631.071	37826.67
631.265	37224.56
631.459	36857.98
631.653	35813.51
631.848	35211.41
632.042	34513.05
632.236	33902.76
632.43	32671.93
632.624	32106.69
632.818	30922.96
633.012	29798.63
633.206	29280.49
633.4	28276.99
633.594	27056.4
633.788	26495.25
633.982	25882.91
634.176	24885.55
634.369	23593.28
634.563	23019.85
634.757	21834.08
634.951	21518.69
635.145	20281.72
635.339	19763.58
635.533	18706.83
635.726	18129.3
635.92	17220
636.114	16406.96
636.308	15927.74
636.501	15288.77
636.695	14885.32
636.889	14107.09
637.083	13806.04
637.276	12876.26
637.47	12335.6
637.664	11819.51
637.857	11694.58
638.051	11127.3
638.244	10684.94
638.438	10375.69
638.632	9822.74
638.825	9308.7
639.019	8966.69
639.212	8718.89
639.406	8466.99
639.599	7875.12
639.793	7678.52
639.986	7324.22
640.18	7227.96
640.373	6885.95
640.567	6408.78
640.76	6435.4
640.954	6189.64
641.147	5878.35
641.34	5522.01
641.534	5503.57
641.727	5368.41
641.92	5106.27
642.114	4868.7
642.307	4538.98
642.5	4729.44
642.694	4217.45
642.887	4059.76
643.08	4244.07
643.273	3945.07
643.467	3725.94
643.66	3584.63
643.853	3359.35
644.046	3349.11
644.239	3142.27
644.432	2968.19
644.626	2808.45
644.819	2769.54
645.012	2796.16
645.205	2697.86
645.398	2712.19
645.591	2419.33
645.784	2202.25
645.977	2116.23
646.17	2220.68
646.363	2032.27
646.556	1964.68
646.749	1884.81
646.942	1901.2
647.135	1819.28
647.328	1694.35
647.521	1643.15
647.714	1551
647.907	1497.75
648.099	1510.04
648.292	1432.21
648.485	1532.56
648.678	1264.28
648.871	1223.32
649.064	1256.09
649.256	1204.89
649.449	1030.81
649.642	987.8
649.835	967.32
650.027	926.36
650.22	1088.15
650.413	928.41
650.605	977.56
650.798	916.12
650.991	854.69
651.183	830.11
651.376	864.93
651.568	774.81
651.761	729.76
651.954	723.62
652.146	637.6
652.339	817.82
652.531	740
652.724	598.69
652.916	555.68
653.109	457.38
653.301	744.1
653.494	645.79
653.686	625.31
653.879	608.93
654.071	649.89
654.263	492.2
654.456	494.24
654.648	580.26
654.84	545.44
655.033	426.66
655.225	520.87
655.417	318.12
655.61	524.96
655.802	471.72
655.994	524.96
656.186	328.36
656.379	488.1
656.571	283.3
656.763	400.04
656.955	332.45
657.148	414.37
657.34	514.72
657.532	383.65
657.724	338.6
657.916	328.36
658.108	395.94
658.3	363.17
658.492	426.66
658.684	266.92
658.876	336.55
659.068	211.62
659.26	191.14
659.452	283.3
659.644	264.87
659.836	348.84
660.028	299.69
660.22	217.77
660.412	238.25
660.604	234.15
660.796	193.19
660.988	258.73
661.18	232.1
661.372	344.74
661.563	234.15
661.755	203.43
661.947	141.99
662.139	146.09
662.331	150.18
662.522	154.28
662.714	185
662.906	158.38
663.097	230.06
663.289	139.94
663.481	90.79
663.673	225.96
663.864	223.91
664.056	258.73
664.247	168.62
664.439	326.31
664.631	123.56
664.822	277.16
665.014	262.82
665.205	119.46
665.397	105.13
665.588	174.76
665.78	170.66
665.971	293.54
666.163	207.53
666.354	207.53
666.546	72.36
666.737	105.13
666.929	195.24
667.12	148.14
667.311	154.28
667.503	139.94
667.694	154.28
667.885	225.96
668.077	105.13
668.268	94.89
668.459	152.23
668.651	215.72
668.842	248.49
669.033	88.75
669.224	86.7
669.416	305.83
669.607	127.66
669.798	154.28
669.989	264.87
670.18	148.14
670.371	189.1
670.563	86.7
670.754	279.21
670.945	162.47
671.136	242.34
671.327	113.32
671.518	240.3
671.709	234.15
671.9	219.82
672.091	219.82
672.282	96.94
672.473	158.38
672.664	137.9
672.855	174.76
673.046	139.94
673.237	232.1
673.428	207.53
673.619	197.29
673.809	178.86
674	348.84
674.191	141.99
674.382	119.46
674.573	170.66
674.764	180.9
674.954	256.68
675.145	111.27
675.336	51.88
675.527	60.07
675.717	101.03
675.908	74.41
676.099	88.75
676.289	162.47
676.48	127.66
676.671	197.29
676.861	137.9
677.052	225.96
677.243	162.47
677.433	129.7
677.624	189.1
677.814	185
678.005	185
678.195	248.49
678.386	174.76
678.576	156.33
678.767	156.33
678.957	189.1
679.148	221.86
679.338	307.88
679.529	252.58
679.719	174.76
679.909	223.91
680.1	250.53
680.29	236.2
680.481	203.43
680.671	268.97
680.861	221.86
681.052	260.77
681.242	123.56
681.432	189.1
681.622	273.06
681.813	150.18
682.003	176.81
682.193	193.19
682.383	205.48
682.573	195.24
682.764	189.1
682.954	137.9
683.144	367.27
683.334	180.9
683.524	225.96
683.714	193.19
683.904	316.07
684.094	256.68
684.284	264.87
684.474	322.21
684.664	316.07
684.854	213.67
685.044	207.53
685.234	275.11
685.424	281.25
685.614	289.45
685.804	363.17
685.994	268.97
686.184	242.34
686.374	291.49
686.564	287.4
686.753	309.93
686.943	279.21
687.133	197.29
687.323	277.16
687.513	277.16
687.702	271.01
687.892	217.77
688.082	363.17
688.272	303.78
688.461	238.25
688.651	402.08
688.841	279.21
689.03	174.76
689.22	203.43
689.41	305.83
689.599	299.69
689.789	164.52
689.979	342.69
690.168	219.82
690.358	283.3
690.547	228.01
690.737	232.1
690.926	359.08
691.116	279.21
691.305	223.91
691.495	209.58
691.684	96.94
691.874	217.77
692.063	254.63
692.252	293.54
692.442	250.53
692.631	152.23
692.82	148.14
693.01	301.73
693.199	254.63
693.388	287.4
693.578	209.58
693.767	250.53
693.956	307.88
694.146	211.62
694.335	334.5
694.524	187.05
694.713	285.35
694.902	160.42
695.092	211.62
695.281	172.71
695.47	195.24
695.659	205.48
695.848	232.1
696.037	94.89
696.226	277.16
696.415	187.05
696.604	305.83
696.793	252.58
696.982	162.47
697.171	367.27
697.36	146.09
697.549	170.66
697.738	109.22
697.927	254.63
698.116	174.76
698.305	234.15
698.494	152.23
698.683	152.23
698.872	309.93
699.061	195.24
699.25	246.44
699.438	217.77
699.627	215.72
699.816	395.94
700.005	144.04
700.193	123.56
700.382	244.39
700.571	248.49
700.76	219.82
700.948	273.06
701.137	309.93
701.326	281.25
701.514	162.47
701.703	217.77
701.892	211.62
702.08	402.08
702.269	172.71
702.457	154.28
702.646	221.86
702.834	201.38
703.023	283.3
703.212	273.06
703.4	139.94
703.589	193.19
703.777	148.14
703.965	135.85
704.154	148.14
704.342	119.46
704.531	162.47
704.719	215.72
704.907	246.44
705.096	146.09
705.284	113.32
705.472	277.16
705.661	174.76
705.849	260.77
706.037	291.49
706.226	197.29
706.414	230.06
706.602	189.1
706.79	160.42
706.979	236.2
707.167	201.38
707.355	76.46
707.543	232.1
707.731	262.82
707.919	176.81
708.107	137.9
708.296	187.05
708.484	182.95
708.672	228.01
708.86	228.01
709.048	166.57
709.236	47.79
709.424	268.97
709.612	289.45
709.8	117.42
709.988	219.82
710.176	266.92
710.364	271.01
710.551	195.24
710.739	250.53
710.927	221.86
711.115	250.53
711.303	299.69
711.491	252.58
711.679	158.38
711.866	293.54
712.054	230.06
712.242	225.96
712.43	281.25
712.617	217.77
712.805	301.73
712.993	189.1
713.181	98.99
713.368	256.68
713.556	234.15
713.744	82.6
713.931	430.76
714.119	223.91
714.306	195.24
714.494	225.96
714.682	162.47
714.869	121.51
715.057	205.48
715.244	88.75
715.432	215.72
715.619	127.66
715.807	172.71
715.994	215.72
716.182	115.37
716.369	236.2
716.556	268.97
716.744	150.18
716.931	133.8
717.119	277.16
717.306	238.25
717.493	299.69
717.681	223.91
717.868	225.96
718.055	205.48
718.242	176.81
718.43	258.73
718.617	275.11
718.804	201.38
718.991	406.18
719.179	332.45
719.366	228.01
719.553	236.2
719.74	221.86
719.927	221.86
720.114	201.38
720.301	197.29
720.488	158.38
720.676	180.9
720.863	367.27
721.05	383.65
721.237	236.2
721.424	273.06
721.611	244.39
721.798	135.85
721.985	197.29
722.172	271.01
722.358	185
722.545	340.65
722.732	244.39
722.919	340.65
723.106	359.08
723.293	199.34
723.48	211.62
723.667	244.39
723.853	264.87
724.04	363.17
724.227	430.76
724.414	211.62
724.6	311.97
724.787	379.56
724.974	471.72
725.161	379.56
725.347	223.91
725.534	350.89
725.72	305.83
725.907	414.37
726.094	299.69
726.28	230.06
726.467	219.82
726.653	228.01
726.84	457.38
727.027	453.28
727.213	283.3
727.4	316.07
727.586	342.69
727.773	256.68
727.959	330.41
728.145	293.54
728.332	336.55
728.518	273.06
728.705	305.83
728.891	387.75
729.077	340.65
729.264	307.88
729.45	240.3
729.636	359.08
729.823	273.06
730.009	352.93
730.195	316.07
730.382	400.04
730.568	305.83
730.754	316.07
730.94	309.93
731.126	264.87
731.313	484
731.499	381.6
731.685	438.95
731.871	332.45
732.057	334.5
732.243	445.09
732.429	342.69
732.615	504.48
732.801	393.89
732.987	311.97
733.173	377.51
733.359	260.77
733.545	357.03
733.731	449.19
733.917	531.11
734.103	330.41
734.289	406.18
734.475	268.97
734.661	565.92
734.847	350.89
735.033	314.02
735.219	324.26
735.404	389.8
735.59	326.31
735.776	326.31
735.962	314.02
736.148	332.45
736.333	400.04
736.519	400.04
736.705	324.26
736.89	363.17
737.076	354.98
737.262	381.6
737.447	350.89
737.633	418.47
737.819	404.13
738.004	252.58
738.19	307.88
738.375	426.66
738.561	447.14
738.747	406.18
738.932	256.68
739.118	502.44
739.303	338.6
739.489	357.03
739.674	297.64
739.859	332.45
740.045	365.22
740.23	367.27
740.416	195.24
740.601	397.99
740.786	426.66
740.972	316.07
741.157	344.74
741.342	299.69
741.528	340.65
741.713	498.34
741.898	387.75
742.084	330.41
742.269	309.93
742.454	412.32
742.639	500.39
742.824	373.41
743.01	459.43
743.195	469.67
743.38	397.99
743.565	395.94
743.75	424.61
743.935	424.61
744.12	385.7
744.305	309.93
744.49	340.65
744.675	242.34
744.86	379.56
745.045	404.13
745.23	441
745.415	309.93
745.6	418.47
745.785	301.73
745.97	373.41
746.155	357.03
746.34	420.52
746.525	385.7
746.71	494.24
746.895	277.16
747.079	326.31
747.264	332.45
747.449	393.89
747.634	434.85
747.819	412.32
748.003	211.62
748.188	221.86
748.373	395.94
748.557	291.49
748.742	402.08
748.927	348.84
749.111	326.31
749.296	305.83
749.481	369.32
749.665	410.28
749.85	277.16
750.034	395.94
750.219	307.88
750.404	266.92
750.588	281.25
750.773	266.92
750.957	309.93
751.141	322.21
751.326	424.61
751.51	219.82
751.695	322.21
751.879	359.08
752.064	455.33
752.248	338.6
752.432	412.32
752.617	354.98
752.801	391.84
752.985	344.74
753.17	318.12
753.354	215.72
753.538	344.74
753.722	223.91
753.907	264.87
754.091	277.16
754.275	295.59
754.459	144.04
754.643	285.35
754.828	271.01
755.012	275.11
755.196	195.24
755.38	297.64
755.564	234.15
755.748	223.91
755.932	332.45
756.116	283.3
756.3	393.89
756.484	268.97
756.668	316.07
756.852	201.38
757.036	201.38
757.22	303.78
757.404	242.34
757.588	121.51
757.772	291.49
757.956	219.82
758.14	359.08
758.323	203.43
758.507	238.25
758.691	217.77
758.875	260.77
759.059	365.22
759.242	248.49
759.426	336.55
759.61	303.78
759.794	221.86
759.977	309.93
760.161	410.28
760.345	342.69
760.528	352.93
760.712	262.82
760.895	268.97
761.079	207.53
761.263	115.37
761.446	213.67
761.63	170.66
761.813	266.92
761.997	115.37
762.18	193.19
762.364	299.69
762.547	62.12
762.731	211.62
762.914	225.96
763.098	150.18
763.281	172.71
763.464	158.38
763.648	209.58
763.831	135.85
764.015	144.04
764.198	287.4
764.381	141.99
764.564	209.58
764.748	182.95
764.931	219.82
765.114	90.79
765.297	273.06
765.481	146.09
765.664	162.47
765.847	123.56
766.03	281.25
766.213	176.81
766.397	168.62
766.58	139.94
766.763	176.81
766.946	176.81
767.129	139.94
767.312	178.86
767.495	191.14
767.678	180.9
767.861	193.19
768.044	133.8
768.227	129.7
768.41	141.99
768.593	150.18
768.776	221.86
768.959	166.57
769.142	205.48
769.324	150.18
769.507	150.18
769.69	162.47
769.873	129.7
770.056	385.7
770.239	103.08
770.421	182.95
770.604	209.58
770.787	76.46
770.97	207.53
771.152	121.51
771.335	160.42
771.518	94.89
771.7	271.01
771.883	236.2
772.066	131.75
772.248	176.81
772.431	252.58
772.613	187.05
772.796	84.65
772.978	144.04
773.161	162.47
773.343	150.18
773.526	47.79
773.708	12.97
773.891	2.73
774.073	70.31
774.256	115.37
774.438	219.82
774.621	160.42
774.803	174.76
774.985	146.09
775.168	125.61
775.35	137.9
775.532	219.82
775.715	64.17
775.897	141.99
776.079	-5.46
776.261	92.84
776.444	156.33
776.626	84.65
776.808	90.79
776.99	-9.56
777.173	125.61
777.355	107.18
777.537	119.46
777.719	158.38
777.901	35.5
778.083	21.16
778.265	98.99
778.447	152.23
778.629	96.94
778.811	64.17
778.993	156.33
779.175	191.14
779.357	121.51
779.539	39.59
779.721	90.79
779.903	123.56
780.085	144.04
780.267	78.51
780.449	92.84
780.631	74.41
780.812	172.71
780.994	119.46
781.176	90.79
781.358	49.83
781.54	49.83
781.721	68.27
781.903	146.09
782.085	-25.94
782.267	187.05
782.448	-19.8
782.63	72.36
782.812	156.33
782.993	125.61
783.175	170.66
783.357	21.16
783.538	58.03
783.72	47.79
783.901	123.56
784.083	144.04
784.264	156.33
784.446	66.22
784.627	6.83
784.809	72.36
784.99	103.08
785.172	109.22
785.353	25.26
785.535	-3.41
785.716	92.84
785.897	31.4
786.079	101.03
786.26	86.7
786.441	98.99
786.623	-11.61
786.804	41.64
786.985	103.08
787.167	92.84
787.348	103.08
787.529	60.07
787.71	217.77
787.891	129.7
788.073	131.75
788.254	-48.47
788.435	260.77
788.616	78.51
788.797	17.07
788.978	12.97
789.159	66.22
789.34	94.89
789.522	129.7
789.703	92.84
789.884	47.79
790.065	4.78
790.246	228.01
790.427	-27.99
790.607	150.18
790.788	133.8
790.969	23.21
791.15	158.38
791.331	45.74
791.512	58.03
791.693	21.16
791.874	47.79
792.054	185
792.235	176.81
792.416	-93.52
792.597	-7.51
792.778	78.51
792.958	62.12
793.139	98.99
793.32	82.6
793.5	27.31
793.681	107.18
793.862	92.84
794.042	152.23
794.223	-73.04
794.404	19.11
794.584	-101.72
794.765	31.4
794.945	17.07
795.126	168.62
795.306	123.56
795.487	-17.75
795.667	15.02
795.848	109.22
796.028	55.98
796.209	64.17
796.389	160.42
796.57	43.69
796.75	-34.13
796.93	84.65
797.111	88.75
797.291	17.07
797.471	78.51
797.652	31.4
797.832	4.78
798.012	133.8
798.192	37.55
798.373	-50.52
798.553	10.92
798.733	174.76
798.913	43.69
799.093	55.98
799.274	53.93
799.454	139.94
799.634	80.55
799.814	137.9
799.994	127.66
800.174	66.22
800.354	80.55
800.534	-30.04
800.714	98.99
800.894	4.78
801.074	-124.24
801.254	53.93
801.434	60.07
801.614	31.4
801.794	-30.04
801.974	1583.76
802.154	15.02
802.334	146.09
802.514	-71
802.693	0.68
802.873	-15.7
803.053	109.22
803.233	123.56
803.413	51.88
803.592	47.79
803.772	-77.14
803.952	72.36
804.131	-17.75
804.311	113.32
804.491	133.8
804.67	19.11
804.85	-52.56
805.03	111.27
805.209	43.69
805.389	-15.7
805.568	-38.23
805.748	12.97
805.928	6.83
806.107	27.31
806.287	117.42
806.466	51.88
806.646	19.11
806.825	-19.8
807.004	-21.85
807.184	31.4
807.363	129.7
807.543	94.89
807.722	-11.61
807.901	94.89
808.081	62.12
808.26	-68.95
808.439	55.98
808.619	0.68
808.798	8.87
808.977	-15.7
809.156	170.66
809.336	98.99
809.515	88.75
809.694	4.78
809.873	-38.23
810.052	121.51
810.231	98.99
810.411	105.13
810.59	123.56
810.769	60.07
810.948	78.51
811.127	-52.56
811.306	-52.56
811.485	19.11
811.664	152.23
811.843	31.4
812.022	-32.08
812.201	0.68
812.38	43.69
812.559	37.55
812.737	64.17
812.916	-50.52
813.095	-83.28
813.274	80.55
813.453	51.88
813.632	2.73
813.811	78.51
813.989	-87.38
814.168	45.74
814.347	-42.32
814.526	-27.99
814.704	121.51
814.883	148.14
815.062	-38.23
815.24	55.98
815.419	-46.42
815.598	27.31
815.776	-68.95
815.955	37.55
816.133	-95.57
816.312	96.94
816.49	-11.61
816.669	74.41
816.847	4.78
817.026	-62.8
817.204	-5.46
817.383	37.55
817.561	-46.42
817.74	92.84
817.918	-23.89
818.097	-36.18
818.275	-60.76
818.453	98.99
818.632	25.26
818.81	-11.61
818.988	-32.08
819.167	-77.14
819.345	-32.08
819.523	-46.42
819.701	47.79
819.879	-1.37
820.058	37.55
820.236	72.36
820.414	68.27
820.592	25.26
820.77	15.02
820.948	-42.32
821.127	-1.37
821.305	162.47
821.483	-54.61
821.661	60.07
821.839	15.02
822.017	-21.85
822.195	-17.75
822.373	96.94
822.551	15.02
822.729	92.84
822.907	60.07
823.085	35.5
823.262	33.45
823.44	-87.38
823.618	15.02
823.796	19.11
823.974	-62.8
824.152	-56.66
824.329	0.68
824.507	-19.8
824.685	35.5
824.863	-15.7
825.04	80.55
825.218	84.65
825.396	78.51
825.574	49.83
825.751	4.78
825.929	-54.61
826.107	-83.28
826.284	111.27
826.462	68.27
826.639	-99.67
826.817	-48.47
826.994	35.5
827.172	-36.18
827.349	109.22
827.527	-3.41
827.704	29.35
827.882	135.85
828.059	-9.56
828.237	10.92
828.414	47.79
828.591	-124.24
828.769	17.07
828.946	-7.51
829.124	10.92
829.301	58.03
829.478	15.02
829.655	19.11
829.833	27.31
830.01	-101.72
830.187	31.4
830.364	64.17
830.542	33.45
830.719	182.95
830.896	72.36
831.073	158.38
831.25	92.84
831.427	-23.89
831.604	-21.85
831.782	8.87
831.959	58.03
832.136	92.84
832.313	-11.61
832.49	17.07
832.667	6.83
832.844	8.87
833.021	68.27
833.198	41.64
833.374	4.78
833.551	-7.51
833.728	21.16
833.905	49.83
834.082	-71
834.259	86.7
834.436	72.36
834.612	-23.89
834.789	2.73
834.966	-30.04
835.143	19.11
835.319	-48.47
835.496	68.27
835.673	37.55
835.85	70.31
836.026	60.07
836.203	88.75
836.38	-85.33
836.556	47.79
836.733	-32.08
836.909	182.95
837.086	-5.46
837.262	-95.57
837.439	-3.41
837.616	-17.75
837.792	33.45
837.968	-1.37
838.145	-116.05
838.321	19.11
838.498	31.4
838.674	96.94
838.851	17.07
839.027	15.02
839.203	19.11
839.38	109.22
839.556	-17.75
839.732	78.51
839.909	-30.04
840.085	82.6
840.261	-19.8
840.437	-1.37
840.614	-48.47
840.79	111.27
840.966	31.4
841.142	-5.46
841.318	17.07
841.494	19.11
841.671	107.18
841.847	-38.23
842.023	-54.61
842.199	45.74
842.375	76.46
842.551	-105.81
842.727	-13.65
842.903	131.75
843.079	-3.41
843.255	27.31
843.431	17.07
843.607	12.97
843.783	-146.77
843.959	39.59
844.134	4.78
844.31	62.12
844.486	-5.46
844.662	-17.75
844.838	19.11
845.013	8.87
845.189	49.83
845.365	21.16
845.541	15.02
845.716	4.78
845.892	33.45
846.068	-17.75
846.244	-111.96
846.419	-9.56
846.595	-50.52
846.77	-25.94
846.946	80.55
847.122	17.07
847.297	10.92
847.473	127.66
847.648	-157.01
847.824	-17.75
847.999	-152.91
848.175	-9.56
848.35	39.59
848.526	88.75
848.701	41.64
848.876	29.35
849.052	66.22
849.227	0.68
849.403	0.68
849.578	78.51
849.753	33.45
849.929	43.69
850.104	-85.33
850.279	-64.85
850.454	35.5
850.63	74.41
850.805	76.46
850.98	-5.46
851.155	4.78
851.33	-9.56
851.505	0.68
851.681	103.08
851.856	-62.8
852.031	-64.85
852.206	43.69
852.381	-71
852.556	-40.28
852.731	76.46
852.906	158.38
853.081	25.26
853.256	98.99
853.431	43.69
853.606	2.73
853.781	-52.56
853.956	-136.53
854.131	98.99
854.305	-36.18
854.48	-11.61
854.655	-23.89
854.83	-23.89
855.005	-21.85
855.18	105.13
855.354	53.93
855.529	41.64
855.704	35.5
855.879	43.69
856.053	-105.81
856.228	53.93
856.403	-73.04
856.577	15.02
856.752	-114
856.926	6.83
857.101	78.51
857.276	-132.44
857.45	-56.66
857.625	6.83
857.799	23.21
857.974	10.92
858.148	-83.28
858.323	64.17
858.497	-9.56
858.672	-19.8
858.846	60.07
859.02	21.16
859.195	-62.8
859.369	-5.46
859.543	37.55
859.718	-23.89
859.892	6.83
860.066	74.41
860.241	-99.67
860.415	-56.66
860.589	6.83
860.763	-25.94
860.938	76.46
861.112	-27.99
861.286	-48.47
861.46	-27.99
861.634	-40.28
861.808	84.65
861.982	-21.85
862.157	-83.28
862.331	-42.32
862.505	-58.71
862.679	-73.04
862.853	-42.32
863.027	-93.52
863.201	170.66
863.375	-30.04
863.549	33.45
863.722	-13.65
863.896	96.94
864.07	-56.66
864.244	2.73
864.418	62.12
864.592	8.87
864.766	51.88
864.939	53.93
865.113	-64.85
865.287	133.8
865.461	-71
865.634	31.4
865.808	-21.85
865.982	-64.85
866.156	-42.32
866.329	-54.61
866.503	-60.76
866.676	88.75
866.85	94.89
867.024	-103.76
867.197	125.61
867.371	35.5
867.544	4.78
867.718	-116.05
867.891	53.93
868.065	-54.61
868.238	39.59
868.412	47.79
868.585	80.55
868.759	-71
868.932	0.68
869.105	-68.95
869.279	41.64
869.452	-23.89
869.625	25.26
869.799	-40.28
869.972	-60.76
870.145	-34.13
870.319	96.94
870.492	15.02
870.665	-32.08
870.838	19.11
871.011	-138.58
871.185	-38.23
871.358	-85.33
871.531	64.17
871.704	-97.62
871.877	-66.9
872.05	15.02
872.223	-128.34
872.396	-5.46
872.569	90.79
872.742	-34.13
872.915	-42.32
873.088	-38.23
873.261	-27.99
873.434	43.69
873.607	-54.61
873.78	-13.65
873.953	-91.48
874.126	-3.41
874.299	29.35
874.471	-42.32
874.644	-99.67
874.817	103.08
874.99	195.24
875.163	2.73
875.335	2.73
875.508	53.93
875.681	133.8
875.853	-54.61
876.026	6.83
876.199	68.27
876.371	29.35
876.544	43.69
876.717	-48.47
876.889	-5.46
877.062	76.46
877.234	-46.42
877.407	-54.61
877.579	2.73
877.752	127.66
877.924	2.73
878.097	90.79
878.269	92.84
878.442	-5.46
878.614	41.64
878.786	60.07
878.959	74.41
879.131	33.45
879.303	-38.23
879.476	39.59
879.648	101.03
879.82	37.55
879.993	-32.08
880.165	-25.94
880.337	-54.61
880.509	64.17
880.681	-60.76
880.854	47.79
881.026	88.75
881.198	172.71
881.37	-46.42
881.542	-116.05
881.714	-66.9
881.886	78.51
882.058	15.02
882.23	37.55
882.402	-1.37
882.574	21.16
882.746	60.07
882.918	133.8
883.09	82.6
883.262	-56.66
883.434	-19.8
883.606	-138.58
883.778	-46.42
883.95	119.46
884.122	-58.71
884.293	82.6
884.465	74.41
884.637	101.03
884.809	-68.95
884.98	-15.7
885.152	43.69
885.324	-9.56
885.496	-13.65
885.667	23.21
885.839	-56.66
886.011	135.85
886.182	-34.13
886.354	12.97
886.525	23.21
886.697	2.73
886.869	8.87
887.04	0.68
887.212	160.42
887.383	174.76
887.555	0.68
887.726	-34.13
887.897	-17.75
888.069	31.4
888.24	6.83
888.412	27.31
888.583	6.83
888.754	-52.56
888.926	6.83
889.097	-91.48
889.268	-62.8
889.44	51.88
889.611	-58.71
889.782	-52.56
889.953	-50.52
890.125	125.61
890.296	-97.62
890.467	-5.46
890.638	-73.04
890.809	21.16
890.98	-13.65
891.151	-21.85
891.323	152.23
891.494	-46.42
891.665	-1.37
891.836	27.31
892.007	37.55
892.178	35.5
892.349	-17.75
892.52	-58.71
892.691	33.45
892.862	17.07
893.032	-54.61
893.203	12.97
893.374	35.5
893.545	82.6
893.716	-48.47
893.887	66.22
894.057	-60.76
894.228	-25.94
894.399	-34.13
894.57	62.12
894.74	76.46
894.911	58.03
895.082	-7.51
895.253	-114
895.423	-30.04
895.594	-13.65
895.764	33.45
895.935	-62.8
896.106	47.79
896.276	-30.04
896.447	15.02
896.617	-36.18
896.788	-79.19
896.958	-15.7
897.129	-9.56
897.299	-83.28
897.47	92.84
897.64	6.83
897.81	-19.8
897.981	58.03
898.151	4.78
898.322	68.27
898.492	23.21
898.662	17.07
898.832	-42.32
899.003	49.83
899.173	-9.56
899.343	-48.47
899.513	-56.66
