Data from USB4F104151__58__09-28-41-600.txt Node

Date: Wed Feb 26 09:28:41 EST 2025
User: louis
Spectrometer: USB4F10415
Trigger mode: 4
Integration Time (sec): 1.000000E-1
Scans to average: 1
Electric dark correction enabled: true
Nonlinearity correction enabled: false
Boxcar width: 0
XAxis mode: Wavelengths
Number of Pixels in Spectrum: 3648
>>>>>Begin Spectral Data<<<<<
178.204	-387.07
178.424	-387.07
178.644	-387.07
178.864	-352.25
179.084	-374.78
179.304	8.19
179.524	-20.48
179.744	-8.19
179.964	47.1
180.184	47.1
180.404	49.15
180.624	4.1
180.844	-40.96
181.064	-114.69
181.283	20.48
181.503	-51.2
181.723	59.39
181.943	-90.11
182.163	135.17
182.383	-6.14
182.602	20.48
182.822	110.59
183.042	59.39
183.262	-88.06
183.482	-12.29
183.701	18.43
183.921	51.2
184.141	-18.43
184.361	45.06
184.58	73.73
184.8	32.77
185.02	8.19
185.239	108.54
185.459	63.49
185.679	40.96
185.898	-86.01
186.118	69.63
186.338	10.24
186.557	108.54
186.777	0
186.997	-24.58
187.216	10.24
187.436	98.3
187.655	38.91
187.875	51.2
188.095	-6.14
188.314	126.97
188.534	61.44
188.753	-20.48
188.973	45.06
189.192	151.55
189.412	-12.29
189.631	38.91
189.851	12.29
190.07	102.4
190.29	0
190.509	-83.97
190.729	-59.39
190.948	77.82
191.168	258.04
191.387	43.01
191.607	47.1
191.826	83.97
192.045	26.62
192.265	63.49
192.484	139.26
192.704	116.73
192.923	-73.73
193.142	151.55
193.362	122.88
193.581	163.84
193.8	53.25
194.02	108.54
194.239	16.38
194.458	49.15
194.678	-10.24
194.897	24.58
195.116	30.72
195.335	-16.38
195.555	69.63
195.774	18.43
195.993	77.82
196.212	36.86
196.432	28.67
196.651	-10.24
196.87	6.14
197.089	186.37
197.308	55.3
197.528	100.35
197.747	-86.01
197.966	18.43
198.185	204.8
198.404	10.24
198.623	45.06
198.842	65.54
199.062	165.89
199.281	45.06
199.5	-30.72
199.719	73.73
199.938	22.53
200.157	118.78
200.376	139.26
200.595	79.87
200.814	73.73
201.033	12.29
201.252	90.11
201.471	61.44
201.69	57.34
201.909	-51.2
202.128	83.97
202.347	26.62
202.566	61.44
202.785	-32.77
203.004	-30.72
203.223	104.45
203.442	-4.1
203.661	-12.29
203.879	-4.1
204.098	36.86
204.317	-63.49
204.536	32.77
204.755	34.82
204.974	106.49
205.193	10.24
205.411	67.58
205.63	69.63
205.849	65.54
206.068	26.62
206.287	-45.06
206.505	53.25
206.724	-6.14
206.943	18.43
207.162	-24.58
207.381	96.25
207.599	12.29
207.818	71.68
208.037	-65.53
208.255	4.1
208.474	12.29
208.693	55.3
208.911	-57.34
209.13	94.21
209.349	98.3
209.567	102.4
209.786	133.12
210.005	55.3
210.223	-22.53
210.442	-151.55
210.661	63.49
210.879	108.54
211.098	143.36
211.316	67.58
211.535	69.63
211.753	51.2
211.972	67.58
212.191	-49.15
212.409	28.67
212.628	100.35
212.846	-61.44
213.065	59.39
213.283	122.88
213.502	61.44
213.72	71.68
213.938	-22.53
214.157	22.53
214.375	28.67
214.594	-22.53
214.812	88.06
215.031	24.58
215.249	129.02
215.467	16.38
215.686	8.19
215.904	2.05
216.122	-14.34
216.341	178.17
216.559	20.48
216.778	112.64
216.996	83.97
217.214	53.25
217.432	51.2
217.651	-71.68
217.869	34.82
218.087	30.72
218.306	106.49
218.524	63.49
218.742	-32.77
218.96	145.41
219.179	-45.06
219.397	57.34
219.615	151.55
219.833	55.3
220.051	-12.29
220.27	106.49
220.488	65.54
220.706	94.21
220.924	4.1
221.142	47.1
221.36	69.63
221.578	157.69
221.796	77.82
222.015	-24.58
222.233	24.58
222.451	122.88
222.669	-45.06
222.887	83.97
223.105	-8.19
223.323	28.67
223.541	-20.48
223.759	112.64
223.977	-20.48
224.195	151.55
224.413	75.77
224.631	-10.24
224.849	67.58
225.067	247.8
225.285	-61.44
225.503	-24.58
225.721	-38.91
225.939	26.62
226.157	77.82
226.375	153.6
226.592	-32.77
226.81	59.39
227.028	122.88
227.246	108.54
227.464	14.34
227.682	114.69
227.9	61.44
228.117	16.38
228.335	92.16
228.553	-8.19
228.771	57.34
228.989	16.38
229.206	108.54
229.424	-63.49
229.642	18.43
229.86	-36.86
230.077	124.93
230.295	14.34
230.513	108.54
230.731	139.26
230.948	143.36
231.166	81.92
231.384	55.3
231.601	8.19
231.819	212.99
232.037	49.15
232.254	24.58
232.472	10.24
232.689	12.29
232.907	176.13
233.125	-51.2
233.342	32.77
233.56	-32.77
233.777	32.77
233.995	20.48
234.213	100.35
234.43	81.92
234.648	30.72
234.865	81.92
235.083	20.48
235.3	71.68
235.518	96.25
235.735	86.01
235.953	55.3
236.17	-38.91
236.388	47.1
236.605	-32.77
236.822	112.64
237.04	65.54
237.257	53.25
237.475	-32.77
237.692	61.44
237.909	83.97
238.127	45.06
238.344	92.16
238.562	-12.29
238.779	-4.1
238.996	-36.86
239.214	59.39
239.431	36.86
239.648	-12.29
239.865	47.1
240.083	94.21
240.3	-8.19
240.517	-59.39
240.735	-6.14
240.952	92.16
241.169	22.53
241.386	65.54
241.603	28.67
241.821	-6.14
242.038	63.49
242.255	131.07
242.472	-14.34
242.689	53.25
242.907	124.93
243.124	94.21
243.341	0
243.558	-83.97
243.775	22.53
243.992	-110.59
244.209	55.3
244.426	129.02
244.643	49.15
244.86	61.44
245.078	69.63
245.295	108.54
245.512	-8.19
245.729	-51.2
245.946	75.77
246.163	73.73
246.38	-28.67
246.597	83.97
246.814	65.54
247.031	55.3
247.248	18.43
247.464	-24.58
247.681	67.58
247.898	32.77
248.115	69.63
248.332	-20.48
248.549	124.93
248.766	135.17
248.983	45.06
249.2	32.77
249.417	94.21
249.633	-12.29
249.85	112.64
250.067	-20.48
250.284	45.06
250.501	106.49
250.717	49.15
250.934	-38.91
251.151	32.77
251.368	-20.48
251.585	106.49
251.801	-12.29
252.018	-6.14
252.235	59.39
252.451	-20.48
252.668	-12.29
252.885	124.93
253.102	92.16
253.318	-36.86
253.535	-10.24
253.752	-10.24
253.968	-45.06
254.185	-69.63
254.401	-36.86
254.618	6.14
254.835	4.1
255.051	81.92
255.268	69.63
255.484	-4.1
255.701	-12.29
255.917	18.43
256.134	34.82
256.351	57.34
256.567	-45.06
256.784	69.63
257	45.06
257.217	43.01
257.433	18.43
257.65	49.15
257.866	157.69
258.082	-77.82
258.299	-36.86
258.515	40.96
258.732	26.62
258.948	-20.48
259.165	26.62
259.381	-47.1
259.597	104.45
259.814	2.05
260.03	-8.19
260.246	-36.86
260.463	126.97
260.679	124.93
260.895	92.16
261.112	69.63
261.328	-38.91
261.544	38.91
261.761	94.21
261.977	-10.24
262.193	-69.63
262.409	96.25
262.626	94.21
262.842	47.1
263.058	36.86
263.274	63.49
263.49	81.92
263.707	22.53
263.923	26.62
264.139	-36.86
264.355	45.06
264.571	34.82
264.787	16.38
265.004	102.4
265.22	18.43
265.436	18.43
265.652	-28.67
265.868	22.53
266.084	6.14
266.3	51.2
266.516	0
266.732	0
266.948	81.92
267.164	47.1
267.38	10.24
267.596	94.21
267.812	217.08
268.028	26.62
268.244	-2.05
268.46	114.69
268.676	8.19
268.892	69.63
269.108	-20.48
269.324	-38.91
269.54	36.86
269.756	43.01
269.972	-57.34
270.188	-34.82
270.403	-8.19
270.619	34.82
270.835	92.16
271.051	-59.39
271.267	45.06
271.483	-14.34
271.698	47.1
271.914	94.21
272.13	10.24
272.346	-53.25
272.562	8.19
272.777	155.65
272.993	18.43
273.209	12.29
273.425	106.49
273.64	-63.49
273.856	88.06
274.072	-45.06
274.287	32.77
274.503	53.25
274.719	43.01
274.934	22.53
275.15	-169.98
275.366	40.96
275.581	-10.24
275.797	57.34
276.012	55.3
276.228	57.34
276.444	0
276.659	106.49
276.875	-36.86
277.09	49.15
277.306	69.63
277.521	10.24
277.737	-2.05
277.952	43.01
278.168	86.01
278.383	14.34
278.599	-12.29
278.814	81.92
279.03	2.05
279.245	161.79
279.461	51.2
279.676	57.34
279.892	-8.19
280.107	-12.29
280.322	-8.19
280.538	-24.58
280.753	28.67
280.969	86.01
281.184	-32.77
281.399	114.69
281.615	67.58
281.83	100.35
282.045	-43.01
282.26	4.1
282.476	61.44
282.691	65.54
282.906	34.82
283.122	96.25
283.337	-92.16
283.552	73.73
283.767	-55.3
283.983	139.26
284.198	38.91
284.413	129.02
284.628	-8.19
284.843	24.58
285.058	94.21
285.274	45.06
285.489	-14.34
285.704	49.15
285.919	2.05
286.134	43.01
286.349	12.29
286.564	-77.82
286.779	94.21
286.995	45.06
287.21	10.24
287.425	67.58
287.64	-8.19
287.855	34.82
288.07	-36.86
288.285	28.67
288.5	45.06
288.715	45.06
288.93	65.54
289.145	0
289.36	165.89
289.575	-28.67
289.79	114.69
290.004	40.96
290.219	96.25
290.434	-81.92
290.649	61.44
290.864	-59.39
291.079	53.25
291.294	38.91
291.509	53.25
291.724	18.43
291.938	40.96
292.153	28.67
292.368	4.1
292.583	53.25
292.798	10.24
293.012	114.69
293.227	-53.25
293.442	-16.38
293.657	98.3
293.871	92.16
294.086	49.15
294.301	194.56
294.516	77.82
294.73	-6.14
294.945	-28.67
295.16	-47.1
295.374	192.51
295.589	14.34
295.804	-40.96
296.018	49.15
296.233	77.82
296.447	65.54
296.662	-12.29
296.877	98.3
297.091	106.49
297.306	63.49
297.52	18.43
297.735	55.3
297.949	43.01
298.164	45.06
298.378	-18.43
298.593	-40.96
298.807	34.82
299.022	16.38
299.236	98.3
299.451	26.62
299.665	-4.1
299.88	-10.24
300.094	86.01
300.309	55.3
300.523	77.82
300.737	-57.34
300.952	28.67
301.166	57.34
301.381	-61.44
301.595	-2.05
301.809	43.01
302.024	6.14
302.238	-34.82
302.452	-8.19
302.667	24.58
302.881	61.44
303.095	53.25
303.309	69.63
303.524	-30.72
303.738	18.43
303.952	-65.53
304.166	12.29
304.381	-129.02
304.595	116.73
304.809	0
305.023	8.19
305.237	32.77
305.452	6.14
305.666	59.39
305.88	-36.86
306.094	51.2
306.308	65.54
306.522	143.36
306.736	36.86
306.95	112.64
307.164	-6.14
307.379	-28.67
307.593	57.34
307.807	79.87
308.021	16.38
308.235	45.06
308.449	-28.67
308.663	-18.43
308.877	196.61
309.091	38.91
309.305	81.92
309.519	-102.4
309.733	53.25
309.947	-40.96
310.161	86.01
310.374	20.48
310.588	112.64
310.802	-55.3
311.016	-4.1
311.23	40.96
311.444	-14.34
311.658	26.62
311.872	75.77
312.085	83.97
312.299	143.36
312.513	92.16
312.727	12.29
312.941	-69.63
313.154	77.82
313.368	16.38
313.582	-43.01
313.796	24.58
314.009	-4.1
314.223	114.69
314.437	73.73
314.651	34.82
314.864	-32.77
315.078	57.34
315.292	-16.38
315.505	-32.77
315.719	102.4
315.933	40.96
316.146	10.24
316.36	-24.58
316.573	129.02
316.787	86.01
317.001	53.25
317.214	32.77
317.428	65.54
317.641	-69.63
317.855	24.58
318.068	57.34
318.282	67.58
318.495	147.45
318.709	4.1
318.922	47.1
319.136	157.69
319.349	69.63
319.563	69.63
319.776	69.63
319.99	-102.4
320.203	26.62
320.417	26.62
320.63	73.73
320.843	90.11
321.057	40.96
321.27	34.82
321.483	47.1
321.697	120.83
321.91	57.34
322.124	28.67
322.337	51.2
322.55	34.82
322.763	63.49
322.977	20.48
323.19	59.39
323.403	102.4
323.617	20.48
323.83	53.25
324.043	32.77
324.256	43.01
324.469	-67.58
324.683	143.36
324.896	0
325.109	-6.14
325.322	-69.63
325.535	110.59
325.748	2.05
325.962	6.14
326.175	-20.48
326.388	69.63
326.601	86.01
326.814	36.86
327.027	6.14
327.24	28.67
327.453	-38.91
327.666	57.34
327.879	69.63
328.092	59.39
328.305	75.77
328.518	12.29
328.731	-24.58
328.944	49.15
329.157	67.58
329.37	-49.15
329.583	122.88
329.796	145.41
330.009	-63.49
330.222	40.96
330.435	118.78
330.648	2.05
330.861	88.06
331.073	20.48
331.286	40.96
331.499	36.86
331.712	-12.29
331.925	30.72
332.138	-2.05
332.35	124.93
332.563	-20.48
332.776	143.36
332.989	-61.44
333.202	59.39
333.414	28.67
333.627	-10.24
333.84	61.44
334.053	45.06
334.265	-6.14
334.478	65.54
334.691	6.14
334.903	92.16
335.116	-36.86
335.329	32.77
335.541	126.97
335.754	71.68
335.966	24.58
336.179	57.34
336.392	75.77
336.604	-18.43
336.817	34.82
337.029	86.01
337.242	34.82
337.454	73.73
337.667	53.25
337.88	86.01
338.092	75.77
338.305	75.77
338.517	45.06
338.729	57.34
338.942	118.78
339.154	-2.05
339.367	-14.34
339.579	75.77
339.792	-22.53
340.004	61.44
340.217	-16.38
340.429	63.49
340.641	10.24
340.854	-14.34
341.066	28.67
341.278	88.06
341.491	98.3
341.703	69.63
341.915	-4.1
342.128	65.54
342.34	14.34
342.552	-114.69
342.764	32.77
342.977	51.2
343.189	10.24
343.401	34.82
343.613	-20.48
343.826	-28.67
344.038	-8.19
344.25	43.01
344.462	18.43
344.674	69.63
344.886	90.11
345.099	26.62
345.311	-32.77
345.523	81.92
345.735	-38.91
345.947	69.63
346.159	57.34
346.371	-4.1
346.583	-16.38
346.795	167.93
347.007	-45.06
347.219	57.34
347.431	-6.14
347.643	98.3
347.855	0
348.067	49.15
348.279	-28.67
348.491	61.44
348.703	30.72
348.915	69.63
349.127	-24.58
349.339	-6.14
349.551	75.77
349.763	81.92
349.975	-36.86
350.187	106.49
350.399	141.31
350.61	114.69
350.822	20.48
351.034	59.39
351.246	61.44
351.458	43.01
351.669	59.39
351.881	45.06
352.093	90.11
352.305	118.78
352.517	40.96
352.728	135.17
352.94	-28.67
353.152	28.67
353.363	0
353.575	28.67
353.787	69.63
353.999	112.64
354.21	96.25
354.422	45.06
354.633	2.05
354.845	-14.34
355.057	16.38
355.268	-24.58
355.48	79.87
355.692	-57.34
355.903	-8.19
356.115	61.44
356.326	-24.58
356.538	81.92
356.749	137.21
356.961	59.39
357.172	36.86
357.384	-30.72
357.595	157.69
357.807	0
358.018	8.19
358.23	36.86
358.441	153.6
358.653	-20.48
358.864	2.05
359.075	-36.86
359.287	22.53
359.498	116.73
359.709	43.01
359.921	-2.05
360.132	77.82
360.344	20.48
360.555	-53.25
360.766	49.15
360.977	-53.25
361.189	18.43
361.4	-6.14
361.611	61.44
361.823	75.77
362.034	61.44
362.245	-79.87
362.456	30.72
362.667	-45.06
362.879	-20.48
363.09	36.86
363.301	88.06
363.512	49.15
363.723	-53.25
363.935	18.43
364.146	94.21
364.357	-8.19
364.568	28.67
364.779	-38.91
364.99	86.01
365.201	-77.82
365.412	67.58
365.623	28.67
365.834	94.21
366.045	40.96
366.256	106.49
366.467	86.01
366.678	40.96
366.889	26.62
367.1	10.24
367.311	36.86
367.522	-20.48
367.733	49.15
367.944	-65.53
368.155	28.67
368.366	92.16
368.577	4.1
368.788	120.83
368.999	-20.48
369.209	16.38
369.42	188.41
369.631	280.57
369.842	86.01
370.053	-45.06
370.264	124.93
370.474	30.72
370.685	102.4
370.896	43.01
371.107	57.34
371.317	59.39
371.528	63.49
371.739	86.01
371.95	43.01
372.16	59.39
372.371	10.24
372.582	34.82
372.792	145.41
373.003	34.82
373.214	40.96
373.424	12.29
373.635	-38.91
373.846	110.59
374.056	83.97
374.267	106.49
374.477	51.2
374.688	22.53
374.898	-12.29
375.109	53.25
375.319	-4.1
375.53	81.92
375.74	151.55
375.951	12.29
376.161	108.54
376.372	40.96
376.582	18.43
376.793	-34.82
377.003	-22.53
377.214	-4.1
377.424	94.21
377.635	43.01
377.845	-100.35
378.055	169.98
378.266	-20.48
378.476	30.72
378.686	49.15
378.897	30.72
379.107	49.15
379.317	-14.34
379.528	-45.06
379.738	106.49
379.948	20.48
380.158	75.77
380.369	86.01
380.579	57.34
380.789	-8.19
380.999	81.92
381.21	100.35
381.42	139.26
381.63	18.43
381.84	16.38
382.05	116.73
382.261	104.45
382.471	108.54
382.681	10.24
382.891	100.35
383.101	77.82
383.311	-8.19
383.521	-28.67
383.731	-30.72
383.941	-8.19
384.151	55.3
384.361	-12.29
384.571	8.19
384.781	106.49
384.991	157.69
385.201	163.84
385.411	28.67
385.621	81.92
385.831	92.16
386.041	104.45
386.251	-28.67
386.461	122.88
386.671	20.48
386.881	-51.2
387.091	-30.72
387.301	92.16
387.511	0
387.72	51.2
387.93	67.58
388.14	-43.01
388.35	18.43
388.56	126.97
388.769	133.12
388.979	53.25
389.189	24.58
389.399	26.62
389.609	92.16
389.818	36.86
390.028	61.44
390.238	49.15
390.447	10.24
390.657	94.21
390.867	36.86
391.076	-40.96
391.286	12.29
391.496	-63.49
391.705	6.14
391.915	81.92
392.125	98.3
392.334	38.91
392.544	4.1
392.753	18.43
392.963	-45.06
393.172	108.54
393.382	-20.48
393.591	176.13
393.801	45.06
394.01	94.21
394.22	122.88
394.429	49.15
394.639	4.1
394.848	96.25
395.058	53.25
395.267	-12.29
395.477	32.77
395.686	129.02
395.895	167.93
396.105	122.88
396.314	24.58
396.524	67.58
396.733	26.62
396.942	145.41
397.152	-14.34
397.361	24.58
397.57	65.54
397.78	12.29
397.989	71.68
398.198	102.4
398.407	26.62
398.617	-4.1
398.826	-4.1
399.035	18.43
399.244	77.82
399.453	53.25
399.663	83.97
399.872	47.1
400.081	61.44
400.29	112.64
400.499	-69.63
400.708	106.49
400.917	0
401.127	14.34
401.336	-51.2
401.545	153.6
401.754	12.29
401.963	59.39
402.172	26.62
402.381	-75.77
402.59	-12.29
402.799	57.34
403.008	83.97
403.217	100.35
403.426	122.88
403.635	-55.3
403.844	20.48
404.053	65.54
404.262	-2.05
404.471	174.08
404.68	20.48
404.888	-22.53
405.097	2.05
405.306	57.34
405.515	75.77
405.724	34.82
405.933	61.44
406.142	106.49
406.35	165.89
406.559	-6.14
406.768	47.1
406.977	104.45
407.185	4.1
407.394	133.12
407.603	-81.92
407.812	65.54
408.02	75.77
408.229	38.91
408.438	38.91
408.646	-34.82
408.855	-14.34
409.064	22.53
409.272	38.91
409.481	77.82
409.69	-38.91
409.898	-45.06
410.107	86.01
410.315	102.4
410.524	-55.3
410.733	65.54
410.941	10.24
411.15	59.39
411.358	59.39
411.567	225.28
411.775	45.06
411.984	32.77
412.192	75.77
412.401	10.24
412.609	122.88
412.818	106.49
413.026	30.72
413.234	28.67
413.443	47.1
413.651	0
413.86	22.53
414.068	61.44
414.276	71.68
414.485	20.48
414.693	116.73
414.901	147.45
415.11	51.2
415.318	73.73
415.526	79.87
415.734	61.44
415.943	51.2
416.151	118.78
416.359	14.34
416.567	-10.24
416.776	86.01
416.984	28.67
417.192	129.02
417.4	4.1
417.608	43.01
417.817	-51.2
418.025	126.97
418.233	147.45
418.441	-26.62
418.649	-28.67
418.857	81.92
419.065	141.31
419.273	-20.48
419.481	112.64
419.689	45.06
419.897	28.67
420.105	-4.1
420.313	18.43
420.521	188.41
420.729	92.16
420.937	-6.14
421.145	-79.87
421.353	36.86
421.561	118.78
421.769	108.54
421.977	-4.1
422.185	83.97
422.393	-32.77
422.601	114.69
422.809	4.1
423.017	77.82
423.224	49.15
423.432	100.35
423.64	100.35
423.848	139.26
424.056	100.35
424.263	106.49
424.471	-16.38
424.679	131.07
424.887	-36.86
425.094	65.54
425.302	65.54
425.51	36.86
425.718	110.59
425.925	83.97
426.133	40.96
426.341	137.21
426.548	20.48
426.756	-4.1
426.964	88.06
427.171	18.43
427.379	49.15
427.586	79.87
427.794	90.11
428.001	112.64
428.209	57.34
428.417	129.02
428.624	69.63
428.832	83.97
429.039	30.72
429.247	14.34
429.454	126.97
429.662	129.02
429.869	118.78
430.076	129.02
430.284	110.59
430.491	190.46
430.699	155.65
430.906	145.41
431.114	53.25
431.321	118.78
431.528	18.43
431.736	149.5
431.943	116.73
432.15	92.16
432.358	163.84
432.565	204.8
432.772	2.05
432.979	159.74
433.187	61.44
433.394	133.12
433.601	36.86
433.808	206.84
434.016	249.85
434.223	122.88
434.43	79.87
434.637	61.44
434.844	258.04
435.052	149.5
435.259	196.61
435.466	139.26
435.673	163.84
435.88	217.08
436.087	208.89
436.294	198.65
436.501	196.61
436.708	178.17
436.915	221.18
437.122	217.08
437.329	149.5
437.537	208.89
437.743	258.04
437.95	215.04
438.157	212.99
438.364	194.56
438.571	278.52
438.778	346.11
438.985	282.62
439.192	387.07
439.399	303.1
439.606	323.58
439.813	352.25
440.02	458.74
440.227	460.79
440.433	331.77
440.64	430.07
440.847	327.68
441.054	444.41
441.261	511.99
441.467	423.93
441.674	428.03
441.881	649.21
442.088	391.16
442.294	458.74
442.501	550.9
442.708	608.25
442.914	464.89
443.121	557.05
443.328	491.51
443.534	630.77
443.741	675.83
443.948	581.62
444.154	659.45
444.361	798.71
444.568	665.59
444.774	673.78
444.981	704.5
445.187	708.6
445.394	772.08
445.6	901.11
445.807	800.76
446.013	921.59
446.22	806.9
446.426	983.03
446.633	995.31
446.839	1066.99
447.046	888.82
447.252	1124.33
447.459	946.16
447.665	1122.29
447.871	1142.77
448.078	1327.08
448.284	1236.97
448.491	1341.42
448.697	1413.1
448.903	1435.63
449.11	1470.44
449.316	1490.92
449.522	1511.4
449.728	1609.7
449.935	1740.77
450.141	1613.8
450.347	1822.69
450.553	1937.38
450.76	1855.46
450.966	1959.91
451.172	2062.3
451.378	2121.7
451.584	2054.11
451.791	2275.29
451.997	2351.07
452.203	2359.26
452.409	2490.33
452.615	2590.68
452.821	2570.2
453.027	2555.86
453.233	2944.98
453.44	2783.19
453.646	2899.92
453.852	3143.63
454.058	3117.01
454.264	3338.19
454.47	3514.31
454.676	3448.78
454.882	3893.19
455.088	3588.04
455.294	3782.6
455.5	4255.68
455.705	4335.55
455.911	4212.67
456.117	4370.37
456.323	4726.71
456.529	4739
456.735	5287.86
456.941	5056.43
457.147	5377.97
457.352	5627.82
457.558	5586.86
457.764	6049.7
457.97	6287.26
458.176	6416.29
458.381	6815.64
458.587	7024.53
458.793	7296.91
458.999	7137.17
459.204	7974.79
459.41	8277.89
459.616	8343.42
459.821	8617.85
460.027	9125.75
460.233	9432.94
460.438	9557.87
460.644	10235.75
460.85	10180.45
461.055	10585.95
461.261	11210.58
461.466	10858.33
461.672	11124.57
461.878	12513.09
462.083	12355.4
462.289	12506.95
462.494	13111.1
462.7	13115.19
462.905	13289.27
463.111	14667.55
463.316	15150.87
463.522	15400.72
463.727	15935.24
463.932	16318.22
464.138	17104.63
464.343	17708.79
464.549	17854.19
464.754	19607.25
464.959	19250.91
465.165	20158.16
465.37	19635.92
465.575	19822.29
465.781	21171.9
465.986	21929.65
466.191	21403.32
466.397	21931.7
466.602	21116.61
466.807	22707.88
467.012	22640.29
467.218	23086.75
467.423	23355.04
467.628	23979.67
467.833	24995.46
468.038	24651.4
468.244	24395.4
468.449	25245.31
468.654	25032.32
468.859	24821.38
469.064	24741.51
469.269	24106.64
469.474	24622.73
469.679	25273.98
469.885	24493.71
470.09	24843.91
470.295	25030.27
470.5	24127.12
470.705	24891.01
470.91	23957.14
471.115	23633.56
471.32	24243.85
471.525	24286.86
471.73	23248.54
471.935	23199.39
472.139	22357.67
472.344	22443.69
472.549	22568.62
472.754	21659.32
472.959	21446.33
473.164	20807.36
473.369	20326.09
473.574	20924.1
473.778	20334.28
473.983	20092.62
474.188	19779.28
474.393	19011.29
474.598	18546.4
474.802	18386.66
475.007	18040.56
475.212	17895.15
475.417	17340.15
475.621	16940.8
475.826	16873.21
476.031	16496.39
476.235	16156.43
476.44	16058.12
476.645	15693.58
476.849	15673.1
477.054	15281.94
477.259	14958.36
477.463	14796.57
477.668	14571.3
477.872	14577.44
478.077	14081.83
478.282	13590.32
478.486	13653.81
478.691	13469.49
478.895	13514.55
479.1	13219.64
479.304	13231.93
479.509	12812.09
479.713	12924.73
479.918	12478.27
480.122	12324.68
480.326	12425.03
480.531	12463.94
480.735	12316.48
480.94	11988.81
481.144	12527.42
481.348	11745.1
481.553	11706.19
481.757	11417.43
481.961	11661.13
482.166	11636.56
482.37	11583.31
482.574	11104.09
482.778	11259.73
482.983	11562.83
483.187	10991.45
483.391	11169.62
483.595	10856.28
483.8	10694.49
484.004	10694.49
484.208	10764.12
484.412	10463.07
484.616	10516.32
484.821	10358.63
485.025	10063.72
485.229	10057.57
485.433	9924.46
485.637	9973.61
485.841	9709.42
486.045	9619.31
486.249	9709.42
486.453	9228.15
486.657	9101.17
486.861	9113.46
487.065	8857.46
487.269	8941.43
487.473	8290.18
487.677	8681.34
487.881	8531.84
488.085	8386.43
488.289	8243.07
488.493	8038.28
488.697	8034.18
488.901	7794.57
489.105	7681.93
489.309	7593.87
489.512	7571.34
489.716	7221.14
489.92	7122.84
490.124	7098.26
490.328	6911.89
490.531	6709.15
490.735	6852.5
490.939	6516.64
491.143	6383.52
491.346	6406.05
491.55	6297.5
491.754	6225.82
491.958	6209.44
492.161	5943.21
492.365	5980.07
492.569	5955.49
492.772	5654.44
492.976	5658.54
493.18	5560.24
493.383	5443.5
493.587	5455.79
493.79	5418.93
493.994	5326.77
494.197	5271.47
494.401	5263.28
494.605	5017.52
494.808	5099.44
495.012	4972.47
495.215	5007.28
495.419	5179.31
495.622	5066.67
495.825	4857.78
496.029	4917.17
496.232	4931.51
496.436	4888.5
496.639	5044.15
496.843	4876.21
497.046	4767.67
497.249	4788.15
497.453	4825.01
497.656	4868.02
497.859	4874.17
498.063	4870.07
498.266	4919.22
498.469	4851.64
498.673	4904.89
498.876	4911.03
499.079	4837.3
499.282	4906.93
499.485	5277.62
499.689	5015.48
499.892	5070.77
500.095	5179.31
500.298	5130.16
500.501	5214.13
500.705	5291.95
500.908	5443.5
501.111	5334.96
501.314	5298.1
501.517	5244.85
501.72	5377.97
501.923	5515.18
502.126	5468.08
502.329	5877.67
502.532	5812.14
502.735	5689.26
502.938	5969.83
503.141	5949.35
503.344	5754.79
503.547	6023.08
503.75	6143.91
503.953	6193.06
504.156	6360.99
504.359	6326.18
504.562	6420.38
504.765	6541.21
504.968	6746.01
505.17	6838.17
505.373	6707.1
505.576	7077.78
505.779	7075.73
505.982	7124.88
506.185	7411.6
506.387	7341.97
506.59	7640.97
506.793	7827.34
506.996	7978.89
507.198	8122.24
507.401	8023.94
507.604	8241.03
507.807	8488.83
508.009	8789.88
508.212	8959.86
508.415	8712.06
508.617	9060.21
508.82	9260.91
509.022	9316.21
509.225	9725.8
509.428	10012.52
509.63	10170.21
509.833	10076.01
510.035	10776.41
510.238	10590.05
510.44	10981.21
510.643	11276.12
510.845	11476.82
511.048	11777.87
511.25	11822.92
511.453	11994.95
511.655	12726.08
511.858	12887.87
512.06	13127.48
512.262	13502.26
512.465	13600.56
512.667	13934.38
512.87	14106.41
513.072	14569.25
513.274	15103.77
513.477	15193.88
513.679	15640.34
513.881	15984.4
514.084	16434.95
514.286	16809.73
514.488	16975.61
514.69	17659.63
514.893	17923.82
515.095	18179.82
515.297	18517.73
515.499	18673.38
515.701	19400.41
515.904	20084.43
516.106	20459.21
516.308	20702.92
516.51	21526.2
516.712	21589.69
516.914	22169.26
517.116	22343.34
517.318	22810.28
517.52	23180.96
517.722	23594.65
517.925	24116.88
518.127	24610.44
518.329	25228.93
518.531	25187.97
518.733	25853.56
518.935	26519.15
519.136	26738.28
519.338	27530.84
519.54	27663.96
519.742	28137.04
519.944	28708.43
520.146	29414.98
520.348	29843
520.55	29705.79
520.752	30303.79
520.954	31082.02
521.155	31022.63
521.357	31708.7
521.559	31839.77
521.761	32407.06
521.963	32855.56
522.164	32908.81
522.366	33089.03
522.568	33467.91
522.77	33703.42
522.971	34588.14
523.173	34096.63
523.375	34719.21
523.576	34276.85
523.778	34518.51
523.98	35466.72
524.181	35395.04
524.383	35569.12
524.584	35716.58
524.786	35581.41
524.988	35886.56
525.189	36251.09
525.391	36249.05
525.592	36333.01
525.794	36193.75
525.995	35993.05
526.197	35995.1
526.398	36021.72
526.6	36111.83
526.801	36165.08
527.003	35954.14
527.204	36040.15
527.406	36074.97
527.607	35689.95
527.808	35804.64
528.01	35194.34
528.211	35255.78
528.412	35442.15
528.614	35298.79
528.815	35227.11
529.016	34858.48
529.218	34328.05
529.419	34362.87
529.62	33908.22
529.822	33535.49
530.023	33404.42
530.224	33283.59
530.425	32820.75
530.626	32466.45
530.828	31831.58
531.029	32286.23
531.23	31714.84
531.431	31362.59
531.632	31143.46
531.833	30371.38
532.035	30348.85
532.236	29742.65
532.437	29619.77
532.638	28808.78
532.839	28989
533.04	28413.52
533.241	27887.19
533.442	27860.57
533.643	27455.07
533.844	26977.89
534.045	26906.21
534.246	26029.68
534.447	25982.58
534.648	25685.62
534.849	25480.83
535.05	24671.88
535.251	24680.07
535.451	24465.03
535.652	23903.89
535.853	23699.09
536.054	23373.47
536.255	23135.9
536.456	22476.46
536.657	22642.34
536.857	22056.62
537.058	21935.79
537.259	21874.35
537.46	21538.49
537.66	20958.91
537.861	21104.32
538.062	20379.34
538.263	20358.86
538.463	20143.82
538.664	19738.32
538.865	19568.34
539.065	19576.53
539.266	19150.56
539.466	19035.87
539.667	18695.91
539.868	18517.73
540.068	18335.46
540.269	17981.17
540.469	17960.69
540.67	17592.05
540.87	17559.28
541.071	17035
541.271	16963.33
541.472	17047.29
541.672	16486.15
541.873	16346.89
542.073	15896.33
542.274	16408.33
542.474	15748.88
542.675	15517.46
542.875	15732.5
543.075	15056.67
543.276	15183.64
543.476	15261.46
543.676	14864.16
543.877	14610.21
544.077	14634.78
544.277	14438.18
544.478	14020.39
544.678	14307.11
544.878	13823.79
545.078	13788.97
545.279	13524.79
545.479	13539.12
545.679	13262.65
545.879	12990.27
546.079	12834.62
546.28	12816.19
546.48	12689.21
546.68	12527.42
546.88	12472.13
547.08	12324.68
547.28	12109.64
547.48	11775.82
547.68	11763.53
547.88	11630.41
548.081	11556.69
548.281	11022.17
548.481	11061.08
548.681	10999.64
548.881	11026.26
549.081	10837.85
549.28	10766.17
549.48	10588
549.68	10495.84
549.88	10590.05
550.08	9877.35
550.28	9813.87
550.48	9860.97
550.68	9713.52
550.88	9465.71
551.08	9359.22
551.279	9428.85
551.479	9142.13
551.679	8929.14
551.879	8890.23
552.079	8675.2
552.278	8519.55
552.478	8466.3
552.678	8290.18
552.878	8308.61
553.077	8028.04
553.277	7866.25
553.477	8066.95
553.676	7733.13
553.876	7769.99
554.076	7452.56
554.275	7427.98
554.475	7260.05
554.674	7188.37
554.874	7002.01
555.074	6905.75
555.273	6801.3
555.473	6606.75
555.672	6514.59
555.872	6537.12
556.071	6528.92
556.271	6502.3
556.47	6236.06
556.67	6107.04
556.869	6082.47
557.068	6016.93
557.268	5812.14
557.467	5605.29
557.667	5777.32
557.866	5484.46
558.065	5472.17
558.265	5361.58
558.464	5107.63
558.663	5191.6
558.863	5056.43
559.062	5138.35
559.261	4974.52
559.461	4839.35
559.66	4755.38
559.859	4683.7
560.058	4593.59
560.258	4536.25
560.457	4495.29
560.656	4501.44
560.855	4286.4
561.054	4308.93
561.253	4194.24
561.453	4190.14
561.652	4100.03
561.851	4106.18
562.05	3995.59
562.249	3753.93
562.448	3944.39
562.647	3837.89
562.846	3772.36
563.045	3764.17
563.244	3663.82
563.443	3641.29
563.642	3491.79
563.841	3549.13
564.04	3428.3
564.239	3346.38
564.438	3219.41
564.637	3221.45
564.836	3205.07
565.035	3051.47
565.234	3026.9
565.432	3155.92
565.631	3024.85
565.83	2918.36
566.029	2799.57
566.228	2930.64
566.427	2936.79
566.625	2691.03
566.824	2744.28
567.023	2686.94
567.222	2629.59
567.42	2719.7
567.619	2682.84
567.818	2543.58
568.016	2580.44
568.215	2445.27
568.414	2420.7
568.612	2488.28
568.811	2346.97
569.01	2181.09
569.208	2263.01
569.407	2299.87
569.605	2197.47
569.804	2183.13
570.002	2133.98
570.201	2271.2
570.4	2105.31
570.598	2052.06
570.797	1933.28
570.995	1896.42
571.193	1918.95
571.392	1884.13
571.59	1877.99
571.789	1972.19
571.987	1882.08
572.186	1822.69
572.384	1949.67
572.582	1732.58
572.781	1904.61
572.979	1693.67
573.177	1667.05
573.376	1708.01
573.574	1654.76
573.772	1566.7
573.971	1546.22
574.169	1527.78
574.367	1509.35
574.565	1535.98
574.763	1490.92
574.962	1353.71
575.16	1361.9
575.358	1337.32
575.556	1376.24
575.754	1382.38
575.952	1316.84
576.151	1404.91
576.349	1353.71
576.547	1142.77
576.745	1279.98
576.943	1284.08
577.141	1279.98
577.339	1208.3
577.537	1085.42
577.735	1279.98
577.933	1054.7
578.131	1081.33
578.329	1122.29
578.527	1048.56
578.725	1179.63
578.923	1007.6
579.121	1044.46
579.319	1001.46
579.516	1036.27
579.714	1163.25
579.912	1015.79
580.11	839.67
580.308	952.31
580.506	870.39
580.704	733.17
580.901	856.05
581.099	983.03
581.297	880.63
581.495	915.44
581.692	849.91
581.89	946.16
582.088	813.04
582.285	833.52
582.483	716.79
582.681	790.52
582.878	819.19
583.076	708.6
583.274	806.9
583.471	909.3
583.669	724.98
583.866	731.12
584.064	727.03
584.262	585.72
584.459	626.68
584.657	671.73
584.854	704.5
585.052	677.88
585.249	663.54
585.447	663.54
585.644	593.91
585.841	698.36
586.039	667.64
586.236	704.5
586.434	536.57
586.631	495.61
586.828	495.61
587.026	514.04
587.223	501.75
587.42	507.9
587.618	534.52
587.815	546.81
588.012	581.62
588.21	544.76
588.407	548.86
588.604	479.22
588.801	528.38
588.999	538.62
589.196	561.14
589.393	446.46
589.59	503.8
589.787	489.46
589.984	528.38
590.182	577.53
590.379	364.54
590.576	514.04
590.773	569.34
590.97	458.74
591.167	485.37
591.364	428.03
591.561	454.65
591.758	581.62
591.955	430.07
592.152	495.61
592.349	417.79
592.546	452.6
592.743	403.45
592.94	395.26
593.137	477.18
593.334	567.29
593.531	479.22
593.727	391.16
593.924	483.32
594.121	458.74
594.318	372.73
594.515	452.6
594.712	520.18
594.908	569.34
595.105	376.83
595.302	419.83
595.499	505.85
595.696	616.44
595.892	409.59
596.089	522.23
596.286	471.03
596.482	675.83
596.679	499.7
596.876	503.8
597.072	544.76
597.269	520.18
597.466	585.72
597.662	542.71
597.859	495.61
598.055	534.52
598.252	659.45
598.448	606.2
598.645	767.99
598.841	767.99
599.038	825.33
599.234	749.56
599.431	806.9
599.627	745.46
599.824	856.05
600.02	864.24
600.217	854
600.413	876.53
600.609	894.96
600.806	1095.66
601.002	1003.5
601.198	1015.79
601.395	1040.37
601.591	1048.56
601.787	1134.57
601.984	1255.4
602.18	1249.26
602.376	1271.79
602.572	1374.19
602.769	1472.49
602.965	1466.35
603.161	1613.8
603.357	1599.46
603.553	1640.42
603.75	1585.13
603.946	1730.53
604.142	1746.92
604.338	1959.91
604.534	1890.28
604.73	1996.77
604.926	1984.48
605.122	2127.84
605.318	2162.66
605.514	2273.25
605.71	2361.31
605.906	2344.92
606.102	2387.93
606.298	2482.14
606.494	2559.96
606.69	2772.95
606.886	2699.22
607.082	2783.19
607.278	2805.72
607.474	2942.93
607.67	2990.03
607.866	3028.95
608.062	3239.89
608.257	3266.51
608.453	3264.46
608.649	3397.58
608.845	3514.31
609.041	3536.84
609.236	3690.44
609.432	3942.34
609.628	3846.09
609.824	4171.71
610.019	4087.75
610.215	4190.14
610.411	4472.76
610.606	4693.94
610.802	4530.11
610.998	4720.57
611.193	4810.68
611.389	4886.45
611.584	5250.99
611.78	5058.48
611.976	5347.25
612.171	5648.3
612.367	5679.02
612.562	5746.6
612.758	5918.63
612.953	5826.47
613.149	6303.65
613.344	6148
613.539	6500.25
613.735	6686.62
613.93	6887.32
614.126	7075.73
614.321	7331.73
614.517	7354.26
614.712	7647.12
614.907	7792.52
615.103	7976.84
615.298	8081.28
615.493	8396.67
615.688	8458.11
615.884	9121.65
616.079	8927.1
616.274	9355.12
616.47	9564.01
616.665	9873.26
616.86	9920.36
617.055	10325.86
617.25	10295.14
617.445	10895.19
617.641	10809.18
617.836	11288.4
618.031	11364.18
618.226	11710.29
618.421	11999.05
618.616	12418.88
618.811	12595.01
619.006	12975.93
619.201	12920.63
619.396	13645.62
619.591	13246.26
619.786	14106.41
619.981	14169.9
620.176	14591.78
620.371	14690.08
620.566	15240.98
620.761	15712.02
620.956	15564.56
621.151	15961.87
621.346	16535.3
621.541	16600.83
621.735	17223.42
621.93	17157.88
622.125	17471.22
622.32	17655.54
622.515	18300.65
622.709	18595.56
622.904	18968.29
623.099	19429.08
623.294	19777.23
623.488	19900.11
623.683	20250.31
623.878	20709.06
624.072	21108.41
624.267	21337.79
624.462	21708.47
624.656	21759.67
624.851	22376.11
625.046	22429.35
625.24	22914.72
625.435	23230.11
625.629	23291.55
625.824	23465.63
626.018	23776.92
626.213	23856.79
626.407	24694.41
626.602	24721.03
626.796	25050.75
626.991	25398.91
627.185	25413.24
627.38	25521.79
627.574	25745.02
627.768	25988.72
627.963	26033.78
628.157	26064.5
628.352	26359.41
628.546	26058.35
628.74	26721.9
628.935	26277.49
629.129	26818.15
629.323	26007.16
629.517	26463.85
629.712	26103.41
629.906	25904.76
630.1	25458.3
630.294	25808.5
630.489	25190.02
630.683	24813.19
630.877	24532.62
631.071	24219.28
631.265	23887.51
631.459	23580.31
631.653	22539.94
631.848	22654.63
632.042	21708.47
632.236	21442.23
632.43	20733.64
632.624	20340.43
632.818	19857.1
633.012	18931.42
633.206	18392.81
633.4	17936.11
633.594	17356.54
633.788	16887.55
633.982	16373.51
634.176	15793.93
634.369	15249.18
634.563	14536.48
634.757	13860.65
634.951	13532.98
635.145	12963.64
635.339	12461.89
635.533	12027.72
635.726	11745.1
635.92	10960.73
636.114	10653.53
636.308	10033
636.501	9899.88
636.695	9457.52
636.889	8929.14
637.083	8755.07
637.276	8458.11
637.47	7778.19
637.664	7620.49
637.857	7368.59
638.051	7065.49
638.244	6832.02
638.438	6555.55
638.632	6221.73
638.825	5812.14
639.019	5777.32
639.212	5490.6
639.406	5435.31
639.599	5078.96
639.793	4919.22
639.986	4648.89
640.18	4530.11
640.373	4323.26
640.567	4126.66
640.76	4208.58
640.954	3846.09
641.147	3614.66
641.34	3493.83
641.534	3518.41
641.727	3270.61
641.92	3270.61
642.114	3155.92
642.307	2973.65
642.5	2901.97
642.694	2680.79
642.887	2602.97
643.08	2559.96
643.273	2609.11
643.467	2363.36
643.66	2142.18
643.853	2150.37
644.046	2179.04
644.239	1966.05
644.432	1939.43
644.626	1730.53
644.819	1753.06
645.012	1810.4
645.205	1677.29
645.398	1716.2
645.591	1490.92
645.784	1288.17
645.977	1312.75
646.17	1347.56
646.363	1204.21
646.556	1288.17
646.749	1148.91
646.942	1169.39
647.135	1124.33
647.328	1030.13
647.521	1058.8
647.714	1028.08
647.907	1015.79
648.099	792.56
648.292	983.03
648.485	851.95
648.678	761.84
648.871	794.61
649.064	710.65
649.256	696.31
649.449	716.79
649.642	614.39
649.835	602.1
650.027	561.14
650.22	806.9
650.413	645.11
650.605	622.58
650.798	526.33
650.991	501.75
651.183	501.75
651.376	481.27
651.568	534.52
651.761	462.84
651.954	499.7
652.146	376.83
652.339	520.18
652.531	413.69
652.724	323.58
652.916	393.21
653.109	241.66
653.301	454.65
653.494	395.26
653.686	417.79
653.879	485.37
654.071	362.49
654.263	260.09
654.456	266.24
654.648	372.73
654.84	288.76
655.033	264.19
655.225	280.57
655.417	147.45
655.61	350.2
655.802	405.5
655.994	382.97
656.186	239.61
656.379	299
656.571	184.32
656.763	299
656.955	139.26
657.148	190.46
657.34	372.73
657.532	188.41
657.724	137.21
657.916	264.19
658.108	288.76
658.3	198.65
658.492	278.52
658.684	143.36
658.876	239.61
659.068	86.01
659.26	110.59
659.452	163.84
659.644	229.37
659.836	190.46
660.028	139.26
660.22	129.02
660.412	262.14
660.604	188.41
660.796	200.7
660.988	165.89
661.18	229.37
661.372	225.28
661.563	167.93
661.755	188.41
661.947	55.3
662.139	141.31
662.331	129.02
662.522	167.93
662.714	43.01
662.906	4.1
663.097	126.97
663.289	28.67
663.481	53.25
663.673	176.13
663.864	102.4
664.056	157.69
664.247	69.63
664.439	196.61
664.631	151.55
664.822	223.23
665.014	135.17
665.205	53.25
665.397	108.54
665.588	63.49
665.78	106.49
665.971	114.69
666.163	147.45
666.354	151.55
666.546	32.77
666.737	108.54
666.929	131.07
667.12	83.97
667.311	43.01
667.503	77.82
667.694	98.3
667.885	135.17
668.077	131.07
668.268	10.24
668.459	69.63
668.651	157.69
668.842	59.39
669.033	-6.14
669.224	-12.29
669.416	239.61
669.607	108.54
669.798	8.19
669.989	153.6
670.18	65.54
670.371	174.08
670.563	12.29
670.754	215.04
670.945	104.45
671.136	133.12
671.327	83.97
671.518	176.13
671.709	253.95
671.9	174.08
672.091	159.74
672.282	141.31
672.473	79.87
672.664	131.07
672.855	108.54
673.046	172.03
673.237	190.46
673.428	53.25
673.619	208.89
673.809	36.86
674	198.65
674.191	172.03
674.382	53.25
674.573	169.98
674.764	90.11
674.954	172.03
675.145	83.97
675.336	83.97
675.527	100.35
675.717	145.41
675.908	139.26
676.099	135.17
676.289	120.83
676.48	126.97
676.671	65.54
676.861	92.16
677.052	169.98
677.243	143.36
677.433	43.01
677.624	233.47
677.814	141.31
678.005	55.3
678.195	208.89
678.386	157.69
678.576	163.84
678.767	135.17
678.957	270.33
679.148	180.22
679.338	237.56
679.529	229.37
679.719	129.02
679.909	169.98
680.1	235.52
680.29	145.41
680.481	112.64
680.671	237.56
680.861	153.6
681.052	188.41
681.242	145.41
681.432	206.84
681.622	178.17
681.813	77.82
682.003	176.13
682.193	81.92
682.383	71.68
682.573	122.88
682.764	190.46
682.954	204.8
683.144	227.32
683.334	147.45
683.524	208.89
683.714	204.8
683.904	198.65
684.094	188.41
684.284	135.17
684.474	258.04
684.664	210.94
684.854	233.47
685.044	204.8
685.234	131.07
685.424	231.42
685.614	133.12
685.804	323.58
685.994	260.09
686.184	247.8
686.374	258.04
686.564	284.67
686.753	196.61
686.943	167.93
687.133	245.76
687.323	182.27
687.513	262.14
687.702	264.19
687.892	122.88
688.082	235.52
688.272	286.72
688.461	249.85
688.651	321.53
688.841	167.93
689.03	149.5
689.22	180.22
689.41	196.61
689.599	225.28
689.789	223.23
689.979	292.86
690.168	190.46
690.358	206.84
690.547	239.61
690.737	202.75
690.926	188.41
691.116	202.75
691.305	266.24
691.495	145.41
691.684	147.45
691.874	86.01
692.063	131.07
692.252	188.41
692.442	239.61
692.631	157.69
692.82	139.26
693.01	165.89
693.199	163.84
693.388	180.22
693.578	169.98
693.767	196.61
693.956	245.76
694.146	172.03
694.335	184.32
694.524	141.31
694.713	217.08
694.902	59.39
695.092	118.78
695.281	243.71
695.47	157.69
695.659	124.93
695.848	174.08
696.037	174.08
696.226	192.51
696.415	180.22
696.604	186.37
696.793	196.61
696.982	151.55
697.171	290.81
697.36	96.25
697.549	92.16
697.738	129.02
697.927	200.7
698.116	143.36
698.305	208.89
698.494	157.69
698.683	178.17
698.872	266.24
699.061	161.79
699.25	118.78
699.438	137.21
699.627	114.69
699.816	329.72
700.005	86.01
700.193	110.59
700.382	196.61
700.571	126.97
700.76	192.51
700.948	163.84
701.137	258.04
701.326	176.13
701.514	122.88
701.703	174.08
701.892	217.08
702.08	290.81
702.269	149.5
702.457	100.35
702.646	159.74
702.834	153.6
703.023	239.61
703.212	215.04
703.4	172.03
703.589	153.6
703.777	147.45
703.965	124.93
704.154	167.93
704.342	49.15
704.531	151.55
704.719	167.93
704.907	206.84
705.096	114.69
705.284	151.55
705.472	139.26
705.661	198.65
705.849	190.46
706.037	200.7
706.226	194.56
706.414	233.47
706.602	122.88
706.79	198.65
706.979	245.76
707.167	161.79
707.355	40.96
707.543	229.37
707.731	120.83
707.919	200.7
708.107	139.26
708.296	49.15
708.484	83.97
708.672	204.8
708.86	176.13
709.048	151.55
709.236	122.88
709.424	190.46
709.612	116.73
709.8	51.2
709.988	180.22
710.176	323.58
710.364	245.76
710.551	151.55
710.739	137.21
710.927	192.51
711.115	188.41
711.303	258.04
711.491	223.23
711.679	81.92
711.866	264.19
712.054	200.7
712.242	245.76
712.43	278.52
712.617	204.8
712.805	163.84
712.993	155.65
713.181	0
713.368	253.95
713.556	180.22
713.744	116.73
713.931	272.38
714.119	243.71
714.306	106.49
714.494	210.94
714.682	184.32
714.869	98.3
715.057	147.45
715.244	40.96
715.432	223.23
715.619	198.65
715.807	112.64
715.994	155.65
716.182	169.98
716.369	225.28
716.556	241.66
716.744	110.59
716.931	124.93
717.119	198.65
717.306	221.18
717.493	157.69
717.681	75.77
717.868	206.84
718.055	221.18
718.242	131.07
718.43	184.32
718.617	296.96
718.804	165.89
718.991	278.52
719.179	176.13
719.366	202.75
719.553	309.24
719.74	182.27
719.927	139.26
720.114	258.04
720.301	200.7
720.488	143.36
720.676	163.84
720.863	256
721.05	282.62
721.237	256
721.424	184.32
721.611	206.84
721.798	90.11
721.985	116.73
722.172	184.32
722.358	200.7
722.545	167.93
722.732	262.14
722.919	249.85
723.106	231.42
723.293	188.41
723.48	161.79
723.667	196.61
723.853	311.29
724.04	151.55
724.227	235.52
724.414	155.65
724.6	270.33
724.787	356.35
724.974	301.05
725.161	241.66
725.347	122.88
725.534	174.08
725.72	215.04
725.907	329.72
726.094	212.99
726.28	223.23
726.467	172.03
726.653	229.37
726.84	276.48
727.027	344.06
727.213	221.18
727.4	288.76
727.586	229.37
727.773	245.76
727.959	198.65
728.145	190.46
728.332	194.56
728.518	182.27
728.705	229.37
728.891	159.74
729.077	256
729.264	204.8
729.45	153.6
729.636	221.18
729.823	301.05
730.009	299
730.195	200.7
730.382	200.7
730.568	188.41
730.754	282.62
730.94	239.61
731.126	182.27
731.313	282.62
731.499	223.23
731.685	262.14
731.871	344.06
732.057	268.28
732.243	274.43
732.429	258.04
732.615	319.48
732.801	282.62
732.987	262.14
733.173	210.94
733.359	323.58
733.545	217.08
733.731	256
733.917	450.55
734.103	274.43
734.289	346.11
734.475	178.17
734.661	405.5
734.847	274.43
735.033	307.2
735.219	294.91
735.404	229.37
735.59	204.8
735.776	309.24
735.962	266.24
736.148	356.35
736.333	360.44
736.519	221.18
736.705	231.42
736.89	282.62
737.076	225.28
737.262	186.37
737.447	243.71
737.633	268.28
737.819	358.39
738.004	274.43
738.19	223.23
738.375	251.9
738.561	303.1
738.747	268.28
738.932	194.56
739.118	440.31
739.303	260.09
739.489	299
739.674	198.65
739.859	176.13
740.045	321.53
740.23	274.43
740.416	147.45
740.601	321.53
740.786	303.1
740.972	151.55
741.157	329.72
741.342	151.55
741.528	215.04
741.713	360.44
741.898	200.7
742.084	260.09
742.269	249.85
742.454	280.57
742.639	335.87
742.824	327.68
743.01	380.92
743.195	380.92
743.38	284.67
743.565	241.66
743.75	280.57
743.935	342.01
744.12	346.11
744.305	233.47
744.49	194.56
744.675	272.38
744.86	202.75
745.045	272.38
745.23	94.21
745.415	258.04
745.6	331.77
745.785	202.75
745.97	307.2
746.155	325.63
746.34	290.81
746.525	260.09
746.71	342.01
746.895	225.28
747.079	176.13
747.264	163.84
747.449	282.62
747.634	339.96
747.819	307.2
748.003	192.51
748.188	215.04
748.373	190.46
748.557	333.82
748.742	260.09
748.927	223.23
749.111	212.99
749.296	223.23
749.481	264.19
749.665	266.24
749.85	208.89
750.034	280.57
750.219	188.41
750.404	184.32
750.588	231.42
750.773	206.84
750.957	172.03
751.141	227.32
751.326	221.18
751.51	83.97
751.695	208.89
751.879	184.32
752.064	370.68
752.248	163.84
752.432	315.39
752.617	225.28
752.801	288.76
752.985	188.41
753.17	217.08
753.354	176.13
753.538	155.65
753.722	151.55
753.907	141.31
754.091	143.36
754.275	176.13
754.459	198.65
754.643	118.78
754.828	317.44
755.012	188.41
755.196	81.92
755.38	223.23
755.564	126.97
755.748	180.22
755.932	200.7
756.116	196.61
756.3	206.84
756.484	174.08
756.668	180.22
756.852	88.06
757.036	180.22
757.22	133.12
757.404	141.31
757.588	172.03
757.772	151.55
757.956	94.21
758.14	198.65
758.323	131.07
758.507	241.66
758.691	182.27
758.875	237.56
759.059	270.33
759.242	98.3
759.426	102.4
759.61	174.08
759.794	81.92
759.977	241.66
760.161	321.53
760.345	208.89
760.528	145.41
760.712	165.89
760.895	169.98
761.079	110.59
761.263	157.69
761.446	86.01
761.63	149.5
761.813	270.33
761.997	112.64
762.18	69.63
762.364	102.4
762.547	92.16
762.731	61.44
762.914	86.01
763.098	98.3
763.281	90.11
763.464	57.34
763.648	69.63
763.831	98.3
764.015	161.79
764.198	264.19
764.381	94.21
764.564	182.27
764.748	122.88
764.931	169.98
765.114	71.68
765.297	174.08
765.481	135.17
765.664	114.69
765.847	75.77
766.03	178.17
766.213	2.05
766.397	126.97
766.58	36.86
766.763	184.32
766.946	133.12
767.129	30.72
767.312	-14.34
767.495	147.45
767.678	79.87
767.861	145.41
768.044	90.11
768.227	40.96
768.41	94.21
768.593	92.16
768.776	169.98
768.959	40.96
769.142	124.93
769.324	55.3
769.507	73.73
769.69	69.63
769.873	112.64
770.056	180.22
770.239	73.73
770.421	229.37
770.604	129.02
770.787	106.49
770.97	133.12
771.152	69.63
771.335	100.35
771.518	12.29
771.7	118.78
771.883	178.17
772.066	73.73
772.248	155.65
772.431	129.02
772.613	112.64
772.796	69.63
772.978	116.73
773.161	223.23
773.343	108.54
773.526	61.44
773.708	16.38
773.891	-47.1
774.073	94.21
774.256	-18.43
774.438	188.41
774.621	90.11
774.803	77.82
774.985	92.16
775.168	139.26
775.35	151.55
775.532	147.45
775.715	20.48
775.897	104.45
776.079	28.67
776.261	73.73
776.444	131.07
776.626	22.53
776.808	53.25
776.99	55.3
777.173	92.16
777.355	36.86
777.537	131.07
777.719	155.65
777.901	32.77
778.083	-12.29
778.265	81.92
778.447	94.21
778.629	45.06
778.811	86.01
778.993	133.12
779.175	71.68
779.357	61.44
779.539	22.53
779.721	86.01
779.903	94.21
780.085	51.2
780.267	86.01
780.449	57.34
780.631	94.21
780.812	149.5
780.994	12.29
781.176	53.25
781.358	38.91
781.54	53.25
781.721	36.86
781.903	141.31
782.085	75.77
782.267	77.82
782.448	-86.01
782.63	16.38
782.812	53.25
782.993	102.4
783.175	79.87
783.357	59.39
783.538	32.77
783.72	-32.77
783.901	10.24
784.083	108.54
784.264	55.3
784.446	-61.44
784.627	-94.21
784.809	40.96
784.99	-51.2
785.172	75.77
785.353	67.58
785.535	86.01
785.716	20.48
785.897	6.14
786.079	40.96
786.26	55.3
786.441	63.49
786.623	-100.35
786.804	-110.59
786.985	57.34
787.167	71.68
787.348	32.77
787.529	28.67
787.71	165.89
787.891	-6.14
788.073	-45.06
788.254	-90.11
788.435	129.02
788.616	51.2
788.797	28.67
788.978	0
789.159	14.34
789.34	4.1
789.522	47.1
789.703	0
789.884	43.01
790.065	-38.91
790.246	161.79
790.427	-2.05
790.607	114.69
790.788	92.16
790.969	-49.15
791.15	28.67
791.331	-43.01
791.512	0
791.693	-98.3
791.874	67.58
792.054	208.89
792.235	77.82
792.416	-77.82
792.597	2.05
792.778	28.67
792.958	79.87
793.139	57.34
793.32	43.01
793.5	51.2
793.681	69.63
793.862	10.24
794.042	36.86
794.223	-86.01
794.404	20.48
794.584	-65.53
794.765	26.62
794.945	47.1
795.126	73.73
795.306	100.35
795.487	47.1
795.667	-2.05
795.848	59.39
796.028	18.43
796.209	16.38
796.389	79.87
796.57	12.29
796.75	-28.67
796.93	65.54
797.111	-18.43
797.291	4.1
797.471	75.77
797.652	28.67
797.832	-22.53
798.012	26.62
798.192	-20.48
798.373	-143.36
798.553	-92.16
798.733	45.06
798.913	-12.29
799.093	-12.29
799.274	32.77
799.454	90.11
799.634	126.97
799.814	88.06
799.994	69.63
800.174	65.54
800.354	2.05
800.534	-36.86
800.714	53.25
800.894	-4.1
801.074	-81.92
801.254	-36.86
801.434	75.77
801.614	-57.34
801.794	-40.96
801.974	1626.09
802.154	-79.87
802.334	-4.1
802.514	-75.77
802.693	-49.15
802.873	4.1
803.053	106.49
803.233	18.43
803.413	-4.1
803.592	-18.43
803.772	-81.92
803.952	-34.82
804.131	-53.25
804.311	53.25
804.491	102.4
804.67	4.1
804.85	-12.29
805.03	122.88
805.209	34.82
805.389	28.67
805.568	12.29
805.748	-26.62
805.928	-14.34
806.107	69.63
806.287	22.53
806.466	20.48
806.646	10.24
806.825	34.82
807.004	-8.19
807.184	38.91
807.363	30.72
807.543	53.25
807.722	-98.3
807.901	81.92
808.081	10.24
808.26	-122.88
808.439	59.39
808.619	-8.19
808.798	4.1
808.977	34.82
809.156	77.82
809.336	18.43
809.515	38.91
809.694	-34.82
809.873	-53.25
810.052	75.77
810.231	65.54
810.411	28.67
810.59	43.01
810.769	28.67
810.948	55.3
811.127	-77.82
811.306	-28.67
811.485	-20.48
811.664	129.02
811.843	-20.48
812.022	47.1
812.201	-26.62
812.38	-36.86
812.559	-36.86
812.737	55.3
812.916	-14.34
813.095	-94.21
813.274	28.67
813.453	-51.2
813.632	51.2
813.811	77.82
813.989	-57.34
814.168	57.34
814.347	-53.25
814.526	40.96
814.704	153.6
814.883	96.25
815.062	-28.67
815.24	20.48
815.419	-36.86
815.598	49.15
815.776	-71.68
815.955	18.43
816.133	-137.21
816.312	0
816.49	-79.87
816.669	-14.34
816.847	-14.34
817.026	135.17
817.204	-69.63
817.383	-20.48
817.561	-16.38
817.74	-10.24
817.918	-4.1
818.097	51.2
818.275	-57.34
818.453	59.39
818.632	45.06
818.81	-22.53
818.988	36.86
819.167	-65.53
819.345	-32.77
819.523	-10.24
819.701	-20.48
819.879	63.49
820.058	45.06
820.236	86.01
820.414	-4.1
820.592	-2.05
820.77	90.11
820.948	-61.44
821.127	-36.86
821.305	0
821.483	-55.3
821.661	-38.91
821.839	24.58
822.017	-4.1
822.195	-49.15
822.373	16.38
822.551	-38.91
822.729	126.97
822.907	-4.1
823.085	79.87
823.262	10.24
823.44	10.24
823.618	-28.67
823.796	36.86
823.974	12.29
824.152	-40.96
824.329	-45.06
824.507	-40.96
824.685	53.25
824.863	-28.67
825.04	18.43
825.218	79.87
825.396	38.91
825.574	4.1
825.751	-20.48
825.929	81.92
826.107	-47.1
826.284	14.34
826.462	-4.1
826.639	-28.67
826.817	-98.3
826.994	14.34
827.172	-94.21
827.349	106.49
827.527	20.48
827.704	-43.01
827.882	108.54
828.059	-55.3
828.237	14.34
828.414	69.63
828.591	-147.45
828.769	43.01
828.946	-16.38
829.124	36.86
829.301	28.67
829.478	-57.34
829.655	65.54
829.833	20.48
830.01	-159.74
830.187	61.44
830.364	0
830.542	2.05
830.719	65.54
830.896	32.77
831.073	45.06
831.25	-18.43
831.427	34.82
831.604	-73.73
831.782	-36.86
831.959	-32.77
832.136	-32.77
832.313	-51.2
832.49	-36.86
832.667	-32.77
832.844	-131.07
833.021	94.21
833.198	34.82
833.374	43.01
833.551	24.58
833.728	0
833.905	108.54
834.082	-32.77
834.259	6.14
834.436	94.21
834.612	-51.2
834.789	88.06
834.966	59.39
835.143	63.49
835.319	-104.45
835.496	-36.86
835.673	53.25
835.85	34.82
836.026	26.62
836.203	69.63
836.38	-65.53
836.556	-36.86
836.733	-131.07
836.909	106.49
837.086	34.82
837.262	-45.06
837.439	28.67
837.616	-53.25
837.792	24.58
837.968	-122.88
838.145	-69.63
838.321	28.67
838.498	40.96
838.674	-18.43
838.851	28.67
839.027	-47.1
839.203	-28.67
839.38	-22.53
839.556	-55.3
839.732	71.68
839.909	-55.3
840.085	67.58
840.261	-77.82
840.437	-36.86
840.614	-34.82
840.79	73.73
840.966	94.21
841.142	83.97
841.318	-38.91
841.494	14.34
841.671	61.44
841.847	0
842.023	-47.1
842.199	38.91
842.375	75.77
842.551	-30.72
842.727	-104.45
842.903	143.36
843.079	-24.58
843.255	172.03
843.431	-8.19
843.607	34.82
843.783	-135.17
843.959	8.19
844.134	-126.97
844.31	151.55
844.486	-86.01
844.662	-24.58
844.838	-2.05
845.013	32.77
845.189	110.59
845.365	-36.86
845.541	2.05
845.716	-24.58
845.892	61.44
846.068	14.34
846.244	-108.54
846.419	34.82
846.595	-69.63
846.77	-100.35
846.946	77.82
847.122	-120.83
847.297	-4.1
847.473	53.25
847.648	-88.06
847.824	53.25
847.999	-69.63
848.175	-12.29
848.35	40.96
848.526	40.96
848.701	86.01
848.876	40.96
849.052	14.34
849.227	-12.29
849.403	-36.86
849.578	-8.19
849.753	32.77
849.929	45.06
850.104	14.34
850.279	88.06
850.454	98.3
850.63	53.25
850.805	8.19
850.98	-20.48
851.155	-36.86
851.33	0
851.505	-104.45
851.681	45.06
851.856	-71.68
852.031	2.05
852.206	16.38
852.381	-53.25
852.556	-12.29
852.731	69.63
852.906	45.06
853.081	-79.87
853.256	102.4
853.431	18.43
853.606	-49.15
853.781	-32.77
853.956	-79.87
854.131	45.06
854.305	-67.58
854.48	-45.06
854.655	-10.24
854.83	-73.73
855.005	34.82
855.18	-49.15
855.354	28.67
855.529	-6.14
855.704	-67.58
855.879	61.44
856.053	-69.63
856.228	20.48
856.403	-100.35
856.577	43.01
856.752	-120.83
856.926	16.38
857.101	-12.29
857.276	-55.3
857.45	28.67
857.625	73.73
857.799	10.24
857.974	49.15
858.148	-69.63
858.323	-38.91
858.497	-34.82
858.672	-77.82
858.846	-30.72
859.02	10.24
859.195	-36.86
859.369	-12.29
859.543	12.29
859.718	-4.1
859.892	83.97
860.066	-20.48
860.241	-61.44
860.415	12.29
860.589	-49.15
860.763	26.62
860.938	-22.53
861.112	36.86
861.286	-61.44
861.46	53.25
861.634	4.1
861.808	20.48
861.982	-20.48
862.157	-86.01
862.331	-49.15
862.505	-45.06
862.679	-163.84
862.853	-4.1
863.027	-20.48
863.201	71.68
863.375	-8.19
863.549	14.34
863.722	92.16
863.896	102.4
864.07	-57.34
864.244	-6.14
864.418	-4.1
864.592	-12.29
864.766	-16.38
864.939	20.48
865.113	20.48
865.287	77.82
865.461	-24.58
865.634	63.49
865.808	-53.25
865.982	-24.58
866.156	-49.15
866.329	-114.69
866.503	53.25
866.676	-10.24
866.85	45.06
867.024	-10.24
867.197	45.06
867.371	67.58
867.544	83.97
867.718	-135.17
867.891	69.63
868.065	-110.59
868.238	-14.34
868.412	71.68
868.585	-4.1
868.759	-47.1
868.932	-16.38
869.105	-34.82
869.279	-4.1
869.452	-2.05
869.625	77.82
869.799	-6.14
869.972	-81.92
870.145	-73.73
870.319	110.59
870.492	-8.19
870.665	-16.38
870.838	-77.82
871.011	-112.64
871.185	-8.19
871.358	-69.63
871.531	83.97
871.704	-16.38
871.877	4.1
872.05	-65.53
872.223	-43.01
872.396	43.01
872.569	18.43
872.742	-163.84
872.915	-12.29
873.088	-55.3
873.261	-63.49
873.434	53.25
873.607	-38.91
873.78	55.3
873.953	-88.06
874.126	-8.19
874.299	-16.38
874.471	-36.86
874.644	-2.05
874.817	20.48
874.99	79.87
875.163	-47.1
875.335	8.19
875.508	-20.48
875.681	-10.24
875.853	-61.44
876.026	-12.29
876.199	24.58
876.371	0
876.544	-28.67
876.717	-61.44
876.889	-38.91
877.062	34.82
877.234	-8.19
877.407	-51.2
877.579	-18.43
877.752	-79.87
877.924	86.01
878.097	45.06
878.269	28.67
878.442	-51.2
878.614	30.72
878.786	-4.1
878.959	-47.1
879.131	57.34
879.303	-102.4
879.476	0
879.648	65.54
879.82	-65.53
879.993	-83.97
880.165	-83.97
880.337	-73.73
880.509	20.48
880.681	-69.63
880.854	-94.21
881.026	47.1
881.198	102.4
881.37	14.34
881.542	-59.39
881.714	-16.38
881.886	-43.01
882.058	-49.15
882.23	4.1
882.402	-30.72
882.574	6.14
882.746	135.17
882.918	53.25
883.09	-20.48
883.262	-4.1
883.434	-45.06
883.606	-24.58
883.778	-28.67
883.95	94.21
884.122	-8.19
884.293	-38.91
884.465	-83.97
884.637	0
884.809	-69.63
884.98	-40.96
885.152	34.82
885.324	-6.14
885.496	-81.92
885.667	4.1
885.839	-2.05
886.011	-4.1
886.182	61.44
886.354	98.3
886.525	-24.58
886.697	-8.19
886.869	-67.58
887.04	4.1
887.212	71.68
887.383	110.59
887.555	8.19
887.726	-34.82
887.897	-32.77
888.069	8.19
888.24	75.77
888.412	-28.67
888.583	4.1
888.754	-8.19
888.926	-172.03
889.097	-112.64
889.268	-102.4
889.44	18.43
889.611	-94.21
889.782	-94.21
889.953	-45.06
890.125	36.86
890.296	-47.1
890.467	34.82
890.638	4.1
890.809	51.2
890.98	-83.97
891.151	49.15
891.323	61.44
891.494	8.19
891.665	-28.67
891.836	-61.44
892.007	4.1
892.178	-51.2
892.349	59.39
892.52	-43.01
892.691	36.86
892.862	-14.34
893.032	-159.74
893.203	-10.24
893.374	49.15
893.545	83.97
893.716	-88.06
893.887	14.34
894.057	12.29
894.228	6.14
894.399	-67.58
894.57	-45.06
894.74	-34.82
894.911	14.34
895.082	-4.1
895.253	8.19
895.423	-16.38
895.594	55.3
895.764	75.77
895.935	-86.01
896.106	10.24
896.276	-14.34
896.447	-16.38
896.617	6.14
896.788	-55.3
896.958	10.24
897.129	2.05
897.299	-79.87
897.47	75.77
897.64	124.93
897.81	-65.53
897.981	-49.15
898.151	-47.1
898.322	-14.34
898.492	32.77
898.662	-116.73
898.832	-38.91
899.003	-8.19
899.173	77.82
899.343	-98.3
899.513	-110.59
