Data from USB4F104151__58__11-30-49-165.txt Node

Date: Wed Feb 26 11:30:49 EST 2025
User: louis
Spectrometer: USB4F10415
Trigger mode: 4
Integration Time (sec): 1.000000E-1
Scans to average: 1
Electric dark correction enabled: true
Nonlinearity correction enabled: false
Boxcar width: 0
XAxis mode: Wavelengths
Number of Pixels in Spectrum: 3648
>>>>>Begin Spectral Data<<<<<
178.204	-333.48
178.424	-333.48
178.644	-333.48
178.864	-351.91
179.084	-435.88
179.304	-22.19
179.524	-28.33
179.744	39.25
179.964	24.92
180.184	26.96
180.404	31.06
180.624	8.53
180.844	41.3
181.064	-143.02
181.283	18.77
181.503	-38.57
181.723	41.3
181.943	-126.63
182.163	143.7
182.383	-36.52
182.602	43.35
182.822	137.56
183.042	37.2
183.262	33.11
183.482	-26.28
183.701	96.6
183.921	61.78
184.141	-77.48
184.361	110.93
184.58	72.02
184.8	-3.75
185.02	-40.62
185.239	112.98
185.459	4.44
185.679	51.54
185.898	-120.49
186.118	47.44
186.338	-54.95
186.557	39.25
186.777	-18.09
186.997	-50.86
187.216	-3.75
187.436	178.51
187.655	20.82
187.875	80.21
188.095	31.06
188.314	135.51
188.534	96.6
188.753	8.53
188.973	133.46
189.192	135.51
189.412	133.46
189.631	43.35
189.851	-11.95
190.07	151.89
190.29	-52.91
190.509	51.54
190.729	20.82
190.948	112.98
191.168	250.19
191.387	129.36
191.607	-1.71
191.826	-18.09
192.045	-71.34
192.265	-83.63
192.484	37.2
192.704	-11.95
192.923	-36.52
193.142	155.99
193.362	121.17
193.581	110.93
193.8	67.92
194.02	129.36
194.239	61.78
194.458	72.02
194.678	41.3
194.897	63.83
195.116	78.16
195.335	72.02
195.555	67.92
195.774	-22.19
195.993	100.69
196.212	20.82
196.432	67.92
196.651	39.25
196.87	31.06
197.089	131.41
197.308	108.88
197.528	43.35
197.747	-61.1
197.966	-24.23
198.185	127.32
198.404	-57
198.623	100.69
198.842	92.5
199.062	55.64
199.281	92.5
199.5	22.87
199.719	31.06
199.938	63.83
200.157	112.98
200.376	90.45
200.595	176.47
200.814	61.78
201.033	-9.9
201.252	164.18
201.471	149.84
201.69	47.44
201.909	69.97
202.128	80.21
202.347	119.12
202.566	22.87
202.785	-24.23
203.004	-5.8
203.223	225.62
203.442	4.44
203.661	-50.86
203.879	20.82
204.098	125.27
204.317	-20.14
204.536	35.16
204.755	133.46
204.974	78.16
205.193	-7.85
205.411	67.92
205.63	82.26
205.849	49.49
206.068	12.63
206.287	-44.71
206.505	176.47
206.724	43.35
206.943	-91.82
207.162	-13.99
207.381	-7.85
207.599	18.77
207.818	51.54
208.037	37.2
208.255	-28.33
208.474	112.98
208.693	106.84
208.911	-50.86
209.13	127.32
209.349	31.06
209.567	92.5
209.786	96.6
210.005	45.4
210.223	51.54
210.442	-54.95
210.661	22.87
210.879	63.83
211.098	41.3
211.316	90.45
211.535	108.88
211.753	84.31
211.972	115.03
212.191	31.06
212.409	39.25
212.628	47.44
212.846	-91.82
213.065	18.77
213.283	82.26
213.502	57.68
213.72	37.2
213.938	-9.9
214.157	-5.8
214.375	10.58
214.594	-36.52
214.812	115.03
215.031	22.87
215.249	-30.38
215.467	41.3
215.686	12.63
215.904	59.73
216.122	121.17
216.341	139.6
216.559	57.68
216.778	196.95
216.996	115.03
217.214	49.49
217.432	-50.86
217.651	-91.82
217.869	22.87
218.087	-9.9
218.306	26.96
218.524	16.73
218.742	-26.28
218.96	98.64
219.179	6.49
219.397	-7.85
219.615	231.76
219.833	145.75
220.051	-1.71
220.27	47.44
220.488	43.35
220.706	33.11
220.924	-34.47
221.142	-44.71
221.36	61.78
221.578	90.45
221.796	-9.9
222.015	69.97
222.233	67.92
222.451	86.36
222.669	-118.44
222.887	88.4
223.105	8.53
223.323	4.44
223.541	-26.28
223.759	61.78
223.977	-9.9
224.195	125.27
224.413	100.69
224.631	47.44
224.849	145.75
225.067	160.08
225.285	-26.28
225.503	2.39
225.721	-116.39
225.939	55.64
226.157	16.73
226.375	201.04
226.592	0.34
226.81	33.11
227.028	102.74
227.246	112.98
227.464	86.36
227.682	49.49
227.9	115.03
228.117	55.64
228.335	65.88
228.553	61.78
228.771	29.01
228.989	18.77
229.206	37.2
229.424	-24.23
229.642	6.49
229.86	-22.19
230.077	203.09
230.295	18.77
230.513	168.27
230.731	4.44
230.948	135.51
231.166	168.27
231.384	59.73
231.601	-75.43
231.819	178.51
232.037	-28.33
232.254	-42.67
232.472	16.73
232.689	41.3
232.907	180.56
233.125	43.35
233.342	-9.9
233.56	31.06
233.777	-40.62
233.995	16.73
234.213	80.21
234.43	160.08
234.648	108.88
234.865	-46.76
235.083	98.64
235.3	69.97
235.518	65.88
235.735	133.46
235.953	86.36
236.17	20.82
236.388	16.73
236.605	16.73
236.822	125.27
237.04	170.32
237.257	12.63
237.475	14.68
237.692	39.25
237.909	106.84
238.127	-3.75
238.344	65.88
238.562	59.73
238.779	-40.62
238.996	-9.9
239.214	61.78
239.431	96.6
239.648	-30.38
239.865	74.07
240.083	72.02
240.3	31.06
240.517	67.92
240.735	59.73
240.952	112.98
241.169	0.34
241.386	57.68
241.603	61.78
241.821	-114.34
242.038	45.4
242.255	78.16
242.472	-18.09
242.689	31.06
242.907	65.88
243.124	143.7
243.341	-30.38
243.558	-42.67
243.775	-44.71
243.992	-46.76
244.209	67.92
244.426	170.32
244.643	43.35
244.86	45.4
245.078	61.78
245.295	86.36
245.512	41.3
245.729	98.64
245.946	59.73
246.163	39.25
246.38	61.78
246.597	74.07
246.814	18.77
247.031	-38.57
247.248	-20.14
247.464	115.03
247.681	-69.29
247.898	-22.19
248.115	63.83
248.332	-1.71
248.549	110.93
248.766	168.27
248.983	106.84
249.2	80.21
249.417	149.84
249.633	33.11
249.85	14.68
250.067	98.64
250.284	26.96
250.501	65.88
250.717	76.12
250.934	2.39
251.151	26.96
251.368	65.88
251.585	33.11
251.801	88.4
252.018	-104.11
252.235	96.6
252.451	-138.92
252.668	10.58
252.885	127.32
253.102	90.45
253.318	-75.43
253.535	0.34
253.752	-28.33
253.968	35.16
254.185	-100.01
254.401	8.53
254.618	53.59
254.835	-18.09
255.051	198.99
255.268	69.97
255.484	76.12
255.701	26.96
255.917	96.6
256.134	10.58
256.351	35.16
256.567	-16.04
256.784	74.07
257	-67.24
257.217	221.52
257.433	65.88
257.65	10.58
257.866	106.84
258.082	24.92
258.299	65.88
258.515	55.64
258.732	31.06
258.948	-38.57
259.165	119.12
259.381	-22.19
259.597	108.88
259.814	20.82
260.03	-34.47
260.246	-65.19
260.463	139.6
260.679	129.36
260.895	59.73
261.112	65.88
261.328	-1.71
261.544	-73.39
261.761	112.98
261.977	8.53
262.193	-40.62
262.409	119.12
262.626	22.87
262.842	69.97
263.058	-18.09
263.274	67.92
263.49	80.21
263.707	59.73
263.923	112.98
264.139	-52.91
264.355	98.64
264.571	53.59
264.787	0.34
265.004	168.27
265.22	31.06
265.436	0.34
265.652	51.54
265.868	6.49
266.084	-75.43
266.3	-34.47
266.516	-52.91
266.732	-20.14
266.948	-1.71
267.164	20.82
267.38	160.08
267.596	98.64
267.812	135.51
268.028	51.54
268.244	20.82
268.46	-7.85
268.676	-32.43
268.892	-3.75
269.108	-9.9
269.324	-46.76
269.54	-5.8
269.756	96.6
269.972	-116.39
270.188	45.4
270.403	-22.19
270.619	-54.95
270.835	96.6
271.051	0.34
271.267	2.39
271.483	49.49
271.698	104.79
271.914	53.59
272.13	57.68
272.346	10.58
272.562	33.11
272.777	102.74
272.993	33.11
273.209	6.49
273.425	90.45
273.64	-48.81
273.856	82.26
274.072	14.68
274.287	14.68
274.503	47.44
274.719	129.36
274.934	49.49
275.15	-85.67
275.366	16.73
275.581	-54.95
275.797	26.96
276.012	41.3
276.228	6.49
276.444	4.44
276.659	125.27
276.875	-28.33
277.09	49.49
277.306	-5.8
277.521	12.63
277.737	76.12
277.952	106.84
278.168	39.25
278.383	37.2
278.599	55.64
278.814	84.31
279.03	45.4
279.245	127.32
279.461	55.64
279.676	121.17
279.892	-13.99
280.107	-52.91
280.322	-28.33
280.538	86.36
280.753	-63.15
280.969	29.01
281.184	43.35
281.399	127.32
281.615	43.35
281.83	123.22
282.045	-3.75
282.26	-42.67
282.476	-9.9
282.691	74.07
282.906	72.02
283.122	14.68
283.337	-44.71
283.552	100.69
283.767	2.39
283.983	127.32
284.198	-28.33
284.413	26.96
284.628	-65.19
284.843	55.64
285.058	84.31
285.274	55.64
285.489	37.2
285.704	55.64
285.919	-5.8
286.134	29.01
286.349	-20.14
286.564	55.64
286.779	98.64
286.995	-97.96
287.21	-32.43
287.425	57.68
287.64	-24.23
287.855	112.98
288.07	-79.53
288.285	65.88
288.5	121.17
288.715	102.74
288.93	-1.71
289.145	-3.75
289.36	90.45
289.575	-32.43
289.79	139.6
290.004	4.44
290.219	166.23
290.434	-32.43
290.649	-36.52
290.864	-7.85
291.079	33.11
291.294	88.4
291.509	24.92
291.724	12.63
291.938	102.74
292.153	49.49
292.368	-22.19
292.583	65.88
292.798	84.31
293.012	88.4
293.227	65.88
293.442	80.21
293.657	41.3
293.871	96.6
294.086	4.44
294.301	219.47
294.516	-9.9
294.73	-46.76
294.945	16.73
295.16	-3.75
295.374	117.08
295.589	65.88
295.804	-11.95
296.018	10.58
296.233	129.36
296.447	86.36
296.662	-40.62
296.877	86.36
297.091	72.02
297.306	-1.71
297.52	98.64
297.735	74.07
297.949	-5.8
298.164	26.96
298.378	20.82
298.593	-22.19
298.807	37.2
299.022	16.73
299.236	151.89
299.451	12.63
299.665	67.92
299.88	8.53
300.094	14.68
300.309	69.97
300.523	41.3
300.737	-65.19
300.952	86.36
301.166	2.39
301.381	29.01
301.595	-3.75
301.809	39.25
302.024	26.96
302.238	-38.57
302.452	143.7
302.667	33.11
302.881	184.66
303.095	78.16
303.309	53.59
303.524	-26.28
303.738	-28.33
303.952	-18.09
304.166	110.93
304.381	-87.72
304.595	78.16
304.809	47.44
305.023	92.5
305.237	37.2
305.452	-11.95
305.666	49.49
305.88	80.21
306.094	88.4
306.308	18.77
306.522	61.78
306.736	26.96
306.95	82.26
307.164	55.64
307.379	-1.71
307.593	135.51
307.807	172.37
308.021	137.56
308.235	57.68
308.449	-50.86
308.663	8.53
308.877	192.85
309.091	-24.23
309.305	59.73
309.519	-106.15
309.733	153.94
309.947	-44.71
310.161	117.08
310.374	112.98
310.588	96.6
310.802	-11.95
311.016	-73.39
311.23	-7.85
311.444	4.44
311.658	123.22
311.872	121.17
312.085	151.89
312.299	133.46
312.513	205.14
312.727	10.58
312.941	-57
313.154	155.99
313.368	31.06
313.582	31.06
313.796	33.11
314.009	31.06
314.223	168.27
314.437	74.07
314.651	145.75
314.864	-13.99
315.078	6.49
315.292	-52.91
315.505	117.08
315.719	22.87
315.933	63.83
316.146	45.4
316.36	-36.52
316.573	184.66
316.787	141.65
317.001	33.11
317.214	-13.99
317.428	-13.99
317.641	-22.19
317.855	8.53
318.068	72.02
318.282	61.78
318.495	164.18
318.709	-46.76
318.922	26.96
319.136	186.71
319.349	143.7
319.563	-30.38
319.776	55.64
319.99	-30.38
320.203	76.12
320.417	2.39
320.63	55.64
320.843	182.61
321.057	45.4
321.27	-5.8
321.483	41.3
321.697	72.02
321.91	86.36
322.124	82.26
322.337	69.97
322.55	-5.8
322.763	6.49
322.977	-11.95
323.19	26.96
323.403	-20.14
323.617	158.03
323.83	98.64
324.043	-5.8
324.256	72.02
324.469	-50.86
324.683	53.59
324.896	16.73
325.109	-38.57
325.322	20.82
325.535	168.27
325.748	123.22
325.962	14.68
326.175	31.06
326.388	82.26
326.601	155.99
326.814	14.68
327.027	20.82
327.24	137.56
327.453	-38.57
327.666	18.77
327.879	168.27
328.092	53.59
328.305	43.35
328.518	-18.09
328.731	-32.43
328.944	55.64
329.157	69.97
329.37	-16.04
329.583	123.22
329.796	108.88
330.009	-95.91
330.222	47.44
330.435	100.69
330.648	-22.19
330.861	26.96
331.073	29.01
331.286	178.51
331.499	98.64
331.712	-40.62
331.925	65.88
332.138	35.16
332.35	162.13
332.563	-18.09
332.776	213.33
332.989	-73.39
333.202	47.44
333.414	43.35
333.627	18.77
333.84	39.25
334.053	63.83
334.265	-67.24
334.478	-13.99
334.691	14.68
334.903	137.56
335.116	-7.85
335.329	16.73
335.541	104.79
335.754	131.41
335.966	35.16
336.179	61.78
336.392	115.03
336.604	-28.33
336.817	67.92
337.029	96.6
337.242	80.21
337.454	94.55
337.667	24.92
337.88	110.93
338.092	112.98
338.305	94.55
338.517	-1.71
338.729	63.83
338.942	115.03
339.154	-9.9
339.367	-57
339.579	24.92
339.792	-38.57
340.004	72.02
340.217	108.88
340.429	59.73
340.641	-36.52
340.854	-11.95
341.066	-16.04
341.278	143.7
341.491	127.32
341.703	69.97
341.915	-73.39
342.128	127.32
342.34	18.77
342.552	-85.67
342.764	65.88
342.977	41.3
343.189	104.79
343.401	-24.23
343.613	-87.72
343.826	92.5
344.038	-57
344.25	59.73
344.462	-81.58
344.674	84.31
344.886	-3.75
345.099	39.25
345.311	80.21
345.523	26.96
345.735	-83.63
345.947	55.64
346.159	121.17
346.371	61.78
346.583	-32.43
346.795	225.62
347.007	-42.67
347.219	29.01
347.431	10.58
347.643	74.07
347.855	16.73
348.067	88.4
348.279	-42.67
348.491	10.58
348.703	112.98
348.915	33.11
349.127	31.06
349.339	18.77
349.551	-34.47
349.763	166.23
349.975	10.58
350.187	98.64
350.399	121.17
350.61	100.69
350.822	0.34
351.034	110.93
351.246	82.26
351.458	39.25
351.669	76.12
351.881	201.04
352.093	108.88
352.305	31.06
352.517	-42.67
352.728	133.46
352.94	20.82
353.152	160.08
353.363	-24.23
353.575	82.26
353.787	131.41
353.999	47.44
354.21	229.71
354.422	-24.23
354.633	41.3
354.845	37.2
355.057	53.59
355.268	55.64
355.48	41.3
355.692	-44.71
355.903	6.49
356.115	-87.72
356.326	-79.53
356.538	115.03
356.749	86.36
356.961	117.08
357.172	-1.71
357.384	29.01
357.595	244.05
357.807	16.73
358.018	41.3
358.23	-1.71
358.441	192.85
358.653	92.5
358.864	49.49
359.075	-65.19
359.287	-30.38
359.498	98.64
359.709	98.64
359.921	37.2
360.132	6.49
360.344	18.77
360.555	35.16
360.766	31.06
360.977	0.34
361.189	131.41
361.4	-9.9
361.611	72.02
361.823	108.88
362.034	67.92
362.245	35.16
362.456	76.12
362.667	69.97
362.879	72.02
363.09	29.01
363.301	108.88
363.512	86.36
363.723	-65.19
363.935	14.68
364.146	80.21
364.357	33.11
364.568	12.63
364.779	-18.09
364.99	178.51
365.201	-18.09
365.412	117.08
365.623	-22.19
365.834	112.98
366.045	33.11
366.256	98.64
366.467	139.6
366.678	41.3
366.889	33.11
367.1	4.44
367.311	115.03
367.522	43.35
367.733	45.4
367.944	14.68
368.155	-40.62
368.366	143.7
368.577	102.74
368.788	49.49
368.999	8.53
369.209	26.96
369.42	172.37
369.631	182.61
369.842	55.64
370.053	43.35
370.264	112.98
370.474	24.92
370.685	65.88
370.896	-20.14
371.107	176.47
371.317	8.53
371.528	43.35
371.739	39.25
371.95	65.88
372.16	61.78
372.371	-71.34
372.582	10.58
372.792	67.92
373.003	33.11
373.214	18.77
373.424	88.4
373.635	-81.58
373.846	102.74
374.056	-32.43
374.267	31.06
374.477	55.64
374.688	12.63
374.898	65.88
375.109	31.06
375.319	59.73
375.53	112.98
375.74	106.84
375.951	16.73
376.161	67.92
376.372	168.27
376.582	-20.14
376.793	112.98
377.003	-1.71
377.214	-9.9
377.424	43.35
377.635	33.11
377.845	-69.29
378.055	112.98
378.266	-18.09
378.476	22.87
378.686	131.41
378.897	94.55
379.107	96.6
379.317	22.87
379.528	4.44
379.738	67.92
379.948	-48.81
380.158	80.21
380.369	55.64
380.579	80.21
380.789	80.21
380.999	155.99
381.21	102.74
381.42	162.13
381.63	0.34
381.84	102.74
382.05	80.21
382.261	82.26
382.471	151.89
382.681	-75.43
382.891	151.89
383.101	-24.23
383.311	-61.1
383.521	22.87
383.731	135.51
383.941	98.64
384.151	69.97
384.361	31.06
384.571	90.45
384.781	110.93
384.991	151.89
385.201	262.48
385.411	55.64
385.621	47.44
385.831	67.92
386.041	131.41
386.251	41.3
386.461	125.27
386.671	35.16
386.881	139.6
387.091	-22.19
387.301	104.79
387.511	12.63
387.72	84.31
387.93	110.93
388.14	33.11
388.35	72.02
388.56	139.6
388.769	94.55
388.979	-28.33
389.189	-59.05
389.399	29.01
389.609	102.74
389.818	110.93
390.028	-59.05
390.238	88.4
390.447	33.11
390.657	35.16
390.867	86.36
391.076	-89.77
391.286	67.92
391.496	-38.57
391.705	59.73
391.915	139.6
392.125	63.83
392.334	-48.81
392.544	135.51
392.753	78.16
392.963	2.39
393.172	-34.47
393.382	-3.75
393.591	123.22
393.801	69.97
394.01	137.56
394.22	57.68
394.429	41.3
394.639	100.69
394.848	26.96
395.058	78.16
395.267	57.68
395.477	41.3
395.686	35.16
395.895	164.18
396.105	186.71
396.314	117.08
396.524	31.06
396.733	35.16
396.942	151.89
397.152	82.26
397.361	149.84
397.57	47.44
397.78	10.58
397.989	153.94
398.198	160.08
398.407	14.68
398.617	74.07
398.826	-1.71
399.035	51.54
399.244	45.4
399.453	-46.76
399.663	31.06
399.872	12.63
400.081	53.59
400.29	149.84
400.499	39.25
400.708	178.51
400.917	69.97
401.127	47.44
401.336	61.78
401.545	119.12
401.754	115.03
401.963	131.41
402.172	33.11
402.381	-18.09
402.59	53.59
402.799	57.68
403.008	139.6
403.217	78.16
403.426	37.2
403.635	-69.29
403.844	-20.14
404.053	18.77
404.262	61.78
404.471	139.6
404.68	74.07
404.888	18.77
405.097	98.64
405.306	65.88
405.515	55.64
405.724	-1.71
405.933	110.93
406.142	72.02
406.35	112.98
406.559	-5.8
406.768	82.26
406.977	137.56
407.185	65.88
407.394	20.82
407.603	6.49
407.812	33.11
408.02	129.36
408.229	4.44
408.438	127.32
408.646	-36.52
408.855	10.58
409.064	41.3
409.272	26.96
409.481	125.27
409.69	-32.43
409.898	57.68
410.107	145.75
410.315	102.74
410.524	-13.99
410.733	78.16
410.941	90.45
411.15	106.84
411.358	80.21
411.567	237.91
411.775	-11.95
411.984	45.4
412.192	139.6
412.401	82.26
412.609	153.94
412.818	88.4
413.026	129.36
413.234	14.68
413.443	69.97
413.651	69.97
413.86	20.82
414.068	102.74
414.276	211.28
414.485	59.73
414.693	115.03
414.901	164.18
415.11	94.55
415.318	59.73
415.526	43.35
415.734	63.83
415.943	127.32
416.151	84.31
416.359	57.68
416.567	51.54
416.776	207.19
416.984	65.88
417.192	182.61
417.4	-67.24
417.608	4.44
417.817	59.73
418.025	162.13
418.233	149.84
418.441	8.53
418.649	-7.85
418.857	102.74
419.065	188.75
419.273	29.01
419.481	37.2
419.689	57.68
419.897	61.78
420.105	8.53
420.313	84.31
420.521	160.08
420.729	137.56
420.937	37.2
421.145	-13.99
421.353	84.31
421.561	186.71
421.769	90.45
421.977	-5.8
422.185	78.16
422.393	45.4
422.601	174.42
422.809	90.45
423.017	57.68
423.224	88.4
423.432	108.88
423.64	35.16
423.848	188.75
424.056	-11.95
424.263	110.93
424.471	-11.95
424.679	166.23
424.887	41.3
425.094	149.84
425.302	18.77
425.51	90.45
425.718	76.12
425.925	131.41
426.133	20.82
426.341	147.8
426.548	37.2
426.756	18.77
426.964	94.55
427.171	8.53
427.379	110.93
427.586	-7.85
427.794	59.73
428.001	209.23
428.209	102.74
428.417	256.34
428.624	164.18
428.832	100.69
429.039	80.21
429.247	143.7
429.454	160.08
429.662	190.8
429.869	166.23
430.076	86.36
430.284	139.6
430.491	170.32
430.699	162.13
430.906	149.84
431.114	151.89
431.321	186.71
431.528	74.07
431.736	168.27
431.943	233.81
432.15	98.64
432.358	221.52
432.565	282.96
432.772	49.49
432.979	203.09
433.187	92.5
433.394	219.47
433.601	76.12
433.808	268.63
434.016	256.34
434.223	330.06
434.43	164.18
434.637	328.02
434.844	223.57
435.052	323.92
435.259	323.92
435.466	317.78
435.673	299.34
435.88	373.07
436.087	387.41
436.294	338.26
436.501	364.88
436.708	342.35
436.915	379.22
437.122	432.46
437.329	235.86
437.537	416.08
437.743	420.17
437.95	541.01
438.157	473.42
438.364	371.02
438.571	479.57
438.778	475.47
438.985	534.86
439.192	594.25
439.399	532.81
439.606	528.72
439.813	571.72
440.02	729.42
440.227	692.55
440.433	579.92
440.64	624.97
440.847	663.88
441.054	735.56
441.261	870.73
441.467	739.66
441.674	686.41
441.881	846.15
442.088	799.05
442.294	864.58
442.501	860.49
442.708	901.45
442.914	973.13
443.121	1020.23
443.328	987.46
443.534	1075.52
443.741	1100.1
443.948	1024.33
444.154	1177.92
444.361	1419.58
444.568	1198.4
444.774	1239.36
444.981	1245.51
445.187	1478.97
445.394	1524.03
445.6	1356.1
445.807	1507.65
446.013	1435.97
446.22	1536.32
446.426	1651
446.633	1767.74
446.839	1904.95
447.046	1724.73
447.252	2040.12
447.459	2042.17
447.665	1990.97
447.871	2203.96
448.078	2281.78
448.284	2238.77
448.491	2502.96
448.697	2527.53
448.903	2601.26
449.11	2646.32
449.316	2701.61
449.522	2900.27
449.728	3084.58
449.935	3068.2
450.141	3160.36
450.347	3348.77
450.553	3289.38
450.76	3416.35
450.966	3680.54
451.172	3717.4
451.378	3946.78
451.584	3885.34
451.791	4366.61
451.997	4280.6
452.203	4337.94
452.409	4632.85
452.615	4792.59
452.821	4708.62
453.027	4686.09
453.233	5388.55
453.44	5243.14
453.646	5529.86
453.852	5792
454.058	6015.23
454.264	6189.3
454.47	6461.68
454.676	6650.1
454.882	7110.89
455.088	6957.29
455.294	7268.58
455.5	7657.7
455.705	8093.91
455.911	8294.61
456.117	8311
456.323	8683.73
456.529	8710.35
456.735	9509.06
456.941	9810.11
457.147	10217.66
457.352	10354.87
457.558	10793.14
457.764	11360.42
457.97	11743.39
458.176	12173.47
458.381	12785.81
458.587	13107.34
458.793	13731.97
458.999	13717.64
459.204	15190.13
459.41	15925.35
459.616	15503.46
459.821	16296.03
460.027	17193.04
460.233	18169.92
460.438	18110.53
460.644	19073.07
460.85	19337.26
461.055	20164.64
461.261	21587.98
461.466	20817.94
461.672	21037.08
461.878	23896.04
462.083	23320.56
462.289	23943.14
462.494	25227.22
462.7	25040.86
462.905	25239.51
463.111	27537.33
463.316	28686.24
463.522	29071.26
463.727	30250.89
463.932	31801.2
464.138	32319.34
464.343	33584.98
464.549	33654.61
464.754	36046.64
464.959	36794.15
465.165	37398.3
465.37	37441.31
465.575	37422.87
465.781	40453.87
465.986	40896.23
466.191	40863.46
466.397	40707.82
466.602	39814.9
466.807	42092.24
467.012	43241.15
467.218	43634.36
467.423	43835.06
467.628	44869.29
467.833	47244.93
468.038	46098.07
468.244	45516.45
468.449	47537.79
468.654	47093.38
468.859	46589.58
469.064	46802.57
469.269	45321.89
469.474	46104.21
469.679	47087.24
469.885	46040.73
470.09	46214.8
470.295	46438.03
470.5	45545.12
470.705	46102.17
470.91	44768.94
471.115	44140.21
471.32	44824.23
471.525	44705.45
471.73	43146.95
471.935	42618.57
472.139	41971.41
472.344	41436.89
472.549	40953.57
472.754	40341.23
472.959	39866.1
473.164	38442.76
473.369	37777.17
473.574	38684.42
473.778	37902.1
473.983	37265.18
474.188	36572.97
474.393	35202.88
474.598	35022.65
474.802	33666.9
475.007	33707.86
475.212	33570.65
475.417	31790.96
475.621	31752.05
475.826	31633.27
476.031	30943.1
476.235	29882.25
476.44	30314.37
476.645	29333.4
476.849	28897.18
477.054	28643.23
477.259	27838.38
477.463	27555.76
477.668	27090.87
477.872	26875.84
478.077	26523.58
478.282	25651.15
478.486	25657.29
478.691	25116.63
478.895	25018.33
479.1	24903.64
479.304	25006.04
479.509	23707.63
479.713	24242.15
479.918	23910.38
480.122	22927.35
480.326	23390.19
480.531	23207.92
480.735	22988.79
480.94	22431.74
481.144	23336.95
481.348	21784.58
481.553	22216.71
481.757	21811.21
481.961	22013.96
482.166	22233.09
482.37	21714.95
482.574	21088.28
482.778	21286.93
482.983	21331.98
483.187	21358.61
483.391	20832.28
483.595	20863
483.8	20078.63
484.004	20293.66
484.208	20375.58
484.412	19832.87
484.616	20056.1
484.821	19861.54
485.025	19152.95
485.229	19365.93
485.433	18735.16
485.637	18581.56
485.841	18231.36
486.045	18073.67
486.249	17942.6
486.453	17584.2
486.657	17416.27
486.861	17219.66
487.065	16574.55
487.269	16492.63
487.473	16205.92
487.677	16164.96
487.881	16281.69
488.085	15638.63
488.289	15313
488.493	15054.96
488.697	15011.95
488.901	14966.9
489.105	14395.51
489.309	14067.84
489.512	13944.96
489.716	13455.5
489.92	13398.15
490.124	12937.36
490.328	12998.8
490.531	12738.71
490.735	12490.9
490.939	12298.39
491.143	11948.19
491.346	11970.72
491.55	11835.55
491.754	11499.69
491.958	11331.75
492.161	10971.31
492.365	10959.02
492.569	10664.11
492.772	10498.23
492.976	10612.92
493.18	10428.6
493.383	10346.68
493.587	10281.14
493.79	10203.32
493.994	9822.4
494.197	9781.44
494.401	9832.64
494.605	9507.01
494.808	9531.59
495.012	9459.91
495.215	9429.19
495.419	9496.77
495.622	9281.74
495.825	9173.19
496.029	9119.95
496.232	9132.23
496.436	8964.3
496.639	9232.58
496.843	9015.5
497.046	9130.19
497.249	9291.98
497.453	8966.35
497.656	9076.94
497.859	8751.31
498.063	8995.02
498.266	9259.21
498.469	8896.72
498.673	8958.16
498.876	9203.91
499.079	9128.14
499.282	8949.96
499.485	9543.88
499.689	9187.53
499.892	9240.78
500.095	9306.31
500.298	9502.92
500.501	9310.41
500.705	9638.08
500.908	9584.84
501.111	9670.85
501.314	9701.57
501.517	10004.67
501.72	10240.19
501.923	9808.06
502.126	10358.97
502.329	10305.72
502.532	10522.8
502.735	10483.89
502.938	10752.18
503.141	10803.38
503.344	10893.49
503.547	10991.79
503.75	11118.76
503.953	11331.75
504.156	11528.36
504.359	11792.55
504.562	11718.82
504.765	12075.17
504.968	12062.88
505.17	12218.52
505.373	12396.7
505.576	12423.32
505.779	12943.5
505.982	13033.61
506.185	13324.43
506.387	13537.41
506.59	13869.19
506.793	14272.64
506.996	14153.85
507.198	14801.01
507.401	14510.2
507.604	14995.57
507.807	15646.82
508.009	15530.09
508.212	15941.73
508.415	16298.08
508.617	16795.73
508.82	16971.86
509.022	16795.73
509.225	17713.22
509.428	17963.08
509.63	18223.17
509.833	18262.08
510.035	19378.22
510.238	19449.9
510.44	19830.82
510.643	20496.41
510.845	20619.29
511.048	21219.35
511.25	21536.78
511.453	22067.2
511.655	23300.08
511.858	23138.29
512.06	23715.82
512.262	23877.61
512.465	24408.03
512.667	25151.45
512.87	25681.87
513.072	26032.07
513.274	27269.05
513.477	27670.45
513.679	28006.31
513.881	28608.42
514.084	29667.22
514.286	29808.53
514.488	30457.73
514.69	31805.3
514.893	32094.06
515.095	32626.53
515.297	33570.65
515.499	33963.86
515.701	34664.26
515.904	35245.88
516.106	36149.04
516.308	37078.82
516.51	37218.08
516.712	38176.53
516.914	38964.99
517.116	39855.86
517.318	40312.56
517.52	41182.94
517.722	41578.2
517.925	42450.64
518.127	42976.97
518.329	44107.44
518.531	43869.88
518.733	45201.06
518.935	46032.53
519.136	46440.08
519.338	47767.16
519.54	48080.5
519.742	48920.17
519.944	49241.7
520.146	50525.78
520.348	51068.49
520.55	51541.57
520.752	51893.82
520.954	52969.01
521.155	53005.87
521.357	53730.85
521.559	54378.01
521.761	55606.79
521.963	55752.19
522.164	56043.01
522.366	56000
522.568	57492.97
522.77	57239.02
522.971	58086.88
523.173	58142.17
523.375	58842.58
523.576	58308.06
523.778	58828.24
523.98	59983.3
524.181	59303.37
524.383	59723.21
524.584	59753.93
524.786	59946.43
524.988	59952.58
525.189	60040.64
525.391	60384.7
525.592	60618.17
525.794	60380.6
525.995	60421.56
526.197	59991.49
526.398	59749.83
526.6	60140.99
526.801	60059.07
527.003	60227.01
527.204	59923.91
527.406	59848.13
527.607	59749.83
527.808	59770.31
528.01	58080.74
528.211	58553.82
528.412	58717.65
528.614	58246.62
528.815	58052.06
529.016	57798.12
529.218	56864.24
529.419	56296.95
529.62	56126.97
529.822	55107.08
530.023	55285.26
530.224	55184.91
530.425	54242.84
530.626	53065.26
530.828	52794.93
531.029	52915.76
531.23	51684.93
531.431	51228.23
531.632	51351.11
531.833	50382.42
532.035	49849.95
532.236	49583.71
532.437	49139.3
532.638	48207.48
532.839	48135.8
533.04	47371.91
533.241	45952.66
533.442	46638.73
533.643	45418.14
533.844	45082.28
534.045	44420.78
534.246	43253.44
534.447	43296.45
534.648	42428.11
534.849	42100.43
535.05	41481.95
535.251	41051.87
535.451	40136.43
535.652	39929.59
535.853	39407.36
536.054	39128.83
536.255	38194.96
536.456	37340.96
536.657	37674.77
536.857	36572.97
537.058	36128.56
537.259	36089.65
537.46	35131.2
537.66	34750.28
537.861	34686.79
538.062	34006.86
538.263	33943.38
538.463	33267.55
538.664	32761.7
538.865	32679.78
539.065	32358.25
539.266	31414.13
539.466	31467.38
539.667	30867.33
539.868	30633.86
540.068	30435.2
540.269	29730.7
540.469	29804.43
540.67	29247.38
540.87	28934.04
541.071	28372.9
541.271	28415.91
541.472	27711.41
541.672	27557.81
541.873	27088.82
542.073	26755.01
542.274	27172.79
542.474	26513.34
542.675	25837.52
542.875	26118.09
543.075	25296.85
543.276	25159.64
543.476	25167.83
543.676	24831.96
543.877	24600.54
544.077	24149.99
544.277	23891.94
544.478	23693.29
544.678	23320.56
544.878	23109.62
545.078	23015.41
545.279	22716.41
545.479	22263.81
545.679	21936.13
545.879	22073.35
546.079	21944.33
546.28	21000.21
546.48	21233.68
546.68	21147.67
546.88	20873.24
547.08	20418.59
547.28	20412.45
547.48	19707.94
547.68	20072.48
547.88	19523.63
548.081	19386.41
548.281	19337.26
548.481	18675.77
548.681	18524.22
548.881	18556.99
549.081	18208.83
549.28	17657.93
549.48	17840.2
549.68	17608.78
549.88	17348.68
550.08	16928.85
550.28	16920.66
550.48	16568.41
550.68	16226.4
550.88	16068.7
551.08	15865.96
551.279	15829.09
551.479	15323.24
551.679	15399.02
551.879	14983.28
552.079	14798.96
552.278	14489.72
552.478	14612.6
552.678	14246.01
552.878	14250.11
553.077	13734.02
553.277	13336.71
553.477	13297.8
553.676	13107.34
553.876	12994.7
554.076	12660.88
554.275	12652.69
554.475	12091.55
554.674	12152.99
554.874	12030.11
555.074	11761.83
555.273	11710.63
555.473	11477.16
555.672	11069.61
555.872	11253.93
556.071	10840.24
556.271	10860.72
556.47	10422.45
556.67	10279.1
556.869	10223.8
557.068	9877.69
557.268	9840.83
557.467	9763.01
557.667	9728.19
557.866	9349.32
558.065	9115.85
558.265	9070.79
558.464	9005.26
558.663	8859.85
558.863	8634.58
559.062	8667.35
559.261	8433.88
559.461	8194.26
559.66	8112.35
559.859	7907.55
560.058	7868.64
560.258	7676.13
560.457	7424.23
560.656	7575.78
560.855	7260.39
561.054	7446.76
561.253	7327.97
561.453	7053.55
561.652	6852.84
561.851	6949.1
562.05	6701.3
562.249	6486.26
562.448	6592.75
562.647	6476.02
562.846	6303.99
563.045	6428.92
563.244	6189.3
563.443	6111.48
563.642	5976.31
563.841	6015.23
564.04	5837.05
564.239	5853.44
564.438	5460.23
564.637	5396.74
564.836	5538.05
565.035	5251.33
565.234	5273.86
565.432	5460.23
565.631	5300.48
565.83	5255.43
566.029	5026.06
566.228	4854.03
566.427	4958.47
566.625	4835.6
566.824	4790.54
567.023	4729.1
567.222	4514.06
567.42	4618.51
567.619	4421.91
567.818	4557.07
568.016	4342.04
568.215	4532.5
568.414	4272.4
568.612	4157.72
568.811	4219.16
569.01	4116.76
569.208	3846.43
569.407	4069.66
569.605	3924.25
569.804	3879.19
570.002	3840.28
570.201	3834.14
570.4	3737.88
570.598	3496.22
570.797	3584.29
570.995	3395.87
571.193	3483.94
571.392	3582.24
571.59	3254.56
571.789	3449.12
571.987	3445.02
572.186	3266.85
572.384	3141.93
572.582	3141.93
572.781	3256.61
572.979	2855.21
573.177	3066.15
573.376	3000.62
573.574	3027.24
573.772	2810.15
573.971	2818.35
574.169	2724.14
574.367	2791.72
574.565	2654.51
574.763	2715.95
574.962	2607.41
575.16	2588.97
575.358	2593.07
575.556	2439.47
575.754	2449.71
575.952	2414.9
576.151	2308.4
576.349	2519.34
576.547	2298.16
576.745	2351.41
576.943	2265.39
577.141	2296.11
577.339	2134.32
577.537	2259.25
577.735	2218.29
577.933	2068.79
578.131	2103.61
578.329	2160.95
578.527	1863.99
578.725	1993.01
578.923	1962.3
579.121	1876.28
579.319	1741.11
579.516	1847.61
579.714	2001.21
579.912	1843.51
580.11	1716.54
580.308	1741.11
580.506	1767.74
580.704	1558.85
580.901	1653.05
581.099	1712.44
581.297	1694.01
581.495	1487.17
581.692	1534.27
581.89	1737.02
582.088	1524.03
582.285	1511.74
582.483	1487.17
582.681	1425.73
582.878	1397.06
583.076	1483.07
583.274	1409.34
583.471	1544.51
583.669	1454.4
583.866	1151.3
584.064	1276.23
584.262	1239.36
584.459	1245.51
584.657	1214.79
584.854	1233.22
585.052	1333.57
585.249	1196.36
585.447	1253.7
585.644	1122.63
585.841	1188.16
586.039	1216.83
586.236	1231.17
586.434	1038.66
586.631	1030.47
586.828	1102.15
587.026	1108.29
587.223	987.46
587.42	1016.13
587.618	1053
587.815	964.93
588.012	1057.09
588.21	1014.09
588.407	1038.66
588.604	1079.62
588.801	930.12
588.999	950.6
589.196	1016.13
589.393	1014.09
589.59	971.08
589.787	930.12
589.984	946.5
590.182	973.13
590.379	934.22
590.576	860.49
590.773	903.5
590.97	891.21
591.167	964.93
591.364	827.72
591.561	899.4
591.758	1030.47
591.955	903.5
592.152	858.44
592.349	835.91
592.546	801.1
592.743	846.15
592.94	790.86
593.137	1014.09
593.334	895.3
593.531	964.93
593.727	934.22
593.924	876.87
594.121	860.49
594.318	932.17
594.515	940.36
594.712	1038.66
594.908	1093.96
595.105	809.29
595.302	964.93
595.499	975.17
595.696	1012.04
595.892	1014.09
596.089	1122.63
596.286	1057.09
596.482	1007.94
596.679	1118.53
596.876	1079.62
597.072	1270.08
597.269	1202.5
597.466	1255.75
597.662	1104.2
597.859	1321.28
598.055	1360.19
598.252	1478.97
598.448	1431.87
598.645	1542.46
598.841	1536.32
599.038	1661.24
599.234	1730.87
599.431	1741.11
599.627	1716.54
599.824	1927.48
600.02	1911.1
600.217	2007.35
600.413	2070.84
600.609	2167.09
600.806	2447.66
601.002	2298.16
601.198	2382.13
601.395	2640.17
601.591	2570.54
601.787	2619.69
601.984	2595.12
602.18	2871.59
602.376	3002.66
602.572	3125.54
602.769	3344.67
602.965	3273
603.161	3483.94
603.357	3621.15
603.553	3834.14
603.75	3842.33
603.946	3891.48
604.142	4239.64
604.338	4313.36
604.534	4204.82
604.73	4413.71
604.926	4634.89
605.122	4802.83
605.318	4888.84
605.514	5169.41
605.71	5165.32
605.906	5449.99
606.102	5460.23
606.298	5701.89
606.494	5955.83
606.69	6179.06
606.886	6189.3
607.082	6381.81
607.278	6582.51
607.474	6549.75
607.67	6951.15
607.866	6963.44
608.062	7424.23
608.257	7467.24
608.453	7549.15
608.649	8161.5
608.845	8169.69
609.041	8386.77
609.236	8728.78
609.432	8837.33
609.628	9160.91
609.824	9449.67
610.019	9711.81
610.215	9982.14
610.411	10391.73
610.606	10574
610.802	10748.08
610.998	10801.33
611.193	11360.42
611.389	11378.86
611.584	11958.43
611.78	12056.73
611.976	12329.11
612.171	13025.42
612.367	13244.56
612.562	13502.6
612.758	13940.86
612.953	13879.43
613.149	14624.89
613.344	14921.84
613.539	15616.1
613.735	15796.32
613.93	16048.22
614.126	16617.56
614.321	17266.77
614.517	17510.47
614.712	18026.56
614.907	18214.98
615.103	18716.73
615.298	19122.23
615.493	19916.84
615.688	20285.47
615.884	21106.71
616.079	21170.19
616.274	21886.98
616.47	22290.43
616.665	22980.6
616.86	23777.26
617.055	24229.86
617.25	24498.14
617.445	25520.08
617.641	25319.38
617.836	26773.44
618.031	26994.62
618.226	28299.17
618.421	28219.3
618.616	29400.98
618.811	29493.14
619.006	30703.49
619.201	30877.57
619.396	32081.77
619.591	31917.93
619.786	33552.21
619.981	33728.34
620.176	35004.22
620.371	35252.03
620.566	35862.32
620.761	36554.54
620.956	37908.24
621.151	37547.8
621.346	39331.58
621.541	39040.77
621.735	40490.73
621.93	40537.83
622.125	41897.69
622.32	41981.65
622.515	43368.13
622.709	43984.57
622.904	44891.82
623.099	45194.92
623.294	46339.73
623.488	46888.59
623.683	47642.24
623.878	48215.67
624.072	49456.74
624.267	50161.24
624.462	50597.46
624.656	51428.93
624.851	52225.59
625.046	52848.17
625.24	53716.51
625.435	54232.6
625.629	54537.75
625.824	55268.87
626.018	56096.25
626.213	55506.44
626.407	57097.71
626.602	57052.65
626.796	58469.85
626.991	58418.65
627.185	58938.83
627.38	59094.48
627.574	59065.81
627.768	59608.52
627.963	59811.27
628.157	59585.99
628.352	60044.74
628.546	59375.05
628.74	60140.99
628.935	59426.25
629.129	59876.8
629.323	59213.26
629.517	59303.37
629.712	58400.22
629.906	58406.36
630.1	57153.01
630.294	57120.24
630.489	56243.71
630.683	56198.65
630.877	54367.77
631.071	53548.58
631.265	52508.21
631.459	51652.16
631.653	50026.07
631.848	49266.28
632.042	47998.58
632.236	47509.12
632.43	45254.31
632.624	44641.96
632.818	42700.49
633.012	41756.38
633.206	40089.33
633.4	39591.67
633.594	37558.04
633.788	36704.04
633.982	35348.28
634.176	34164.56
634.369	32655.2
634.563	31364.98
634.757	30062.47
634.951	29472.66
635.145	27701.17
635.339	27094.97
635.533	25538.51
635.726	24864.73
635.92	23807.98
636.114	22726.65
636.308	21620.75
636.501	21116.95
636.695	19947.56
636.889	19208.24
637.083	18608.19
637.276	17780.81
637.47	17014.87
637.664	16384.09
637.857	15646.82
638.051	15061.1
638.244	14585.97
638.438	13957.25
638.632	13576.33
638.825	12544.15
639.019	12306.59
639.212	11751.59
639.406	11419.82
639.599	10942.64
639.793	10397.88
639.986	10012.86
640.18	9965.76
640.373	9265.35
640.567	8925.39
640.76	8478.93
640.954	8419.54
641.147	7915.74
641.34	7807.2
641.534	7450.85
641.727	7325.93
641.92	6856.94
642.114	6689.01
642.307	6324.47
642.5	6242.55
642.694	5878.01
642.887	5509.38
643.08	5482.75
643.273	5474.56
643.467	4897.03
643.66	4899.08
643.853	4567.31
644.046	4423.95
644.239	4225.3
644.432	4071.7
644.626	3791.13
644.819	3698.97
645.012	3584.29
645.205	3711.26
645.398	3389.73
645.591	3254.56
645.784	3105.06
645.977	2943.27
646.17	2955.56
646.363	2877.74
646.556	2750.76
646.749	2570.54
646.942	2449.71
647.135	2521.39
647.328	2292.02
647.521	2160.95
647.714	2019.64
647.907	2038.07
648.099	2044.21
648.292	1976.63
648.485	1810.75
648.678	1845.56
648.871	1751.35
649.064	1698.11
649.256	1476.93
649.449	1528.13
649.642	1415.49
649.835	1450.3
650.027	1257.79
650.22	1354.05
650.413	1325.38
650.605	1265.99
650.798	1102.15
650.991	1212.74
651.183	1132.87
651.376	1053
651.568	1145.16
651.761	1018.18
651.954	969.03
652.146	928.07
652.339	987.46
652.531	966.98
652.724	801.1
652.916	821.58
653.109	708.94
653.301	790.86
653.494	848.2
653.686	680.27
653.879	833.86
654.071	706.89
654.263	598.35
654.456	672.08
654.648	747.85
654.84	614.73
655.033	575.82
655.225	588.11
655.417	502.09
655.61	629.07
655.802	667.98
655.994	680.27
656.186	432.46
656.379	547.15
656.571	450.89
656.763	504.14
656.955	483.66
657.148	448.85
657.34	485.71
657.532	485.71
657.724	358.74
657.916	358.74
658.108	534.86
658.3	463.18
658.492	414.03
658.684	330.06
658.876	405.84
659.068	270.67
659.26	313.68
659.452	280.91
659.644	332.11
659.836	416.08
660.028	315.73
660.22	373.07
660.412	334.16
660.604	375.12
660.796	321.87
660.988	297.3
661.18	213.33
661.372	387.41
661.563	295.25
661.755	246.1
661.947	246.1
662.139	176.47
662.331	217.43
662.522	192.85
662.714	108.88
662.906	100.69
663.097	182.61
663.289	201.04
663.481	74.07
663.673	252.24
663.864	180.56
664.056	276.82
664.247	172.37
664.439	211.28
664.631	239.95
664.822	280.91
665.014	135.51
665.205	104.79
665.397	188.75
665.588	194.9
665.78	129.36
665.971	198.99
666.163	96.6
666.354	131.41
666.546	133.46
666.737	119.12
666.929	80.21
667.12	133.46
667.311	119.12
667.503	147.8
667.694	213.33
667.885	188.75
668.077	305.49
668.268	20.82
668.459	188.75
668.651	178.51
668.842	102.74
669.033	94.55
669.224	63.83
669.416	299.34
669.607	82.26
669.798	123.22
669.989	180.56
670.18	108.88
670.371	135.51
670.563	69.97
670.754	176.47
670.945	201.04
671.136	153.94
671.327	49.49
671.518	192.85
671.709	262.48
671.9	143.7
672.091	301.39
672.282	149.84
672.473	162.13
672.664	55.64
672.855	174.42
673.046	145.75
673.237	119.12
673.428	229.71
673.619	203.09
673.809	74.07
674	215.38
674.191	166.23
674.382	151.89
674.573	196.95
674.764	201.04
674.954	270.67
675.145	2.39
675.336	82.26
675.527	98.64
675.717	84.31
675.908	133.46
676.099	141.65
676.289	147.8
676.48	16.73
676.671	194.9
676.861	106.84
677.052	158.03
677.243	82.26
677.433	74.07
677.624	147.8
677.814	125.27
678.005	151.89
678.195	291.15
678.386	6.49
678.576	221.52
678.767	94.55
678.957	117.08
679.148	268.63
679.338	237.91
679.529	203.09
679.719	102.74
679.909	289.1
680.1	270.67
680.29	198.99
680.481	112.98
680.671	250.19
680.861	252.24
681.052	129.36
681.242	190.8
681.432	201.04
681.622	158.03
681.813	-28.33
682.003	67.92
682.193	119.12
682.383	184.66
682.573	131.41
682.764	209.23
682.954	164.18
683.144	219.47
683.334	98.64
683.524	203.09
683.714	225.62
683.904	215.38
684.094	139.6
684.284	219.47
684.474	203.09
684.664	248.15
684.854	209.23
685.044	172.37
685.234	149.84
685.424	219.47
685.614	86.36
685.804	381.26
685.994	258.39
686.184	239.95
686.374	184.66
686.564	231.76
686.753	172.37
686.943	129.36
687.133	119.12
687.323	92.5
687.513	217.43
687.702	186.71
687.892	110.93
688.082	209.23
688.272	192.85
688.461	184.66
688.651	264.53
688.841	190.8
689.03	92.5
689.22	168.27
689.41	256.34
689.599	170.32
689.789	129.36
689.979	256.34
690.168	162.13
690.358	323.92
690.547	233.81
690.737	258.39
690.926	246.1
691.116	215.38
691.305	291.15
691.495	196.95
691.684	86.36
691.874	172.37
692.063	260.43
692.252	207.19
692.442	196.95
692.631	176.47
692.82	149.84
693.01	254.29
693.199	184.66
693.388	131.41
693.578	162.13
693.767	262.48
693.956	231.76
694.146	289.1
694.335	252.24
694.524	209.23
694.713	258.39
694.902	149.84
695.092	155.99
695.281	233.81
695.47	205.14
695.659	172.37
695.848	90.45
696.037	119.12
696.226	264.53
696.415	184.66
696.604	270.67
696.793	262.48
696.982	203.09
697.171	184.66
697.36	123.22
697.549	246.1
697.738	104.79
697.927	155.99
698.116	170.32
698.305	315.73
698.494	244.05
698.683	192.85
698.872	373.07
699.061	149.84
699.25	125.27
699.438	229.71
699.627	78.16
699.816	307.54
700.005	151.89
700.193	78.16
700.382	188.75
700.571	217.43
700.76	190.8
700.948	221.52
701.137	213.33
701.326	262.48
701.514	131.41
701.703	233.81
701.892	254.29
702.08	330.06
702.269	260.43
702.457	174.42
702.646	219.47
702.834	194.9
703.023	213.33
703.212	250.19
703.4	223.57
703.589	211.28
703.777	192.85
703.965	239.95
704.154	168.27
704.342	141.65
704.531	141.65
704.719	209.23
704.907	256.34
705.096	119.12
705.284	123.22
705.472	223.57
705.661	266.58
705.849	315.73
706.037	244.05
706.226	254.29
706.414	229.71
706.602	139.6
706.79	227.67
706.979	303.44
707.167	282.96
707.355	123.22
707.543	282.96
707.731	229.71
707.919	221.52
708.107	180.56
708.296	168.27
708.484	201.04
708.672	137.56
708.86	129.36
709.048	239.95
709.236	158.03
709.424	239.95
709.612	188.75
709.8	135.51
709.988	209.23
710.176	315.73
710.364	328.02
710.551	192.85
710.739	221.52
710.927	102.74
711.115	164.18
711.303	235.86
711.491	323.92
711.679	196.95
711.866	317.78
712.054	229.71
712.242	225.62
712.43	201.04
712.617	162.13
712.805	256.34
712.993	133.46
713.181	141.65
713.368	254.29
713.556	205.14
713.744	125.27
713.931	366.93
714.119	264.53
714.306	176.47
714.494	145.75
714.682	215.38
714.869	92.5
715.057	155.99
715.244	151.89
715.432	303.44
715.619	160.08
715.807	229.71
715.994	186.71
716.182	239.95
716.369	258.39
716.556	293.2
716.744	201.04
716.931	143.7
717.119	239.95
717.306	256.34
717.493	244.05
717.681	174.42
717.868	162.13
718.055	219.47
718.242	239.95
718.43	203.09
718.617	381.26
718.804	260.43
718.991	293.2
719.179	260.43
719.366	268.63
719.553	264.53
719.74	280.91
719.927	158.03
720.114	278.87
720.301	151.89
720.488	69.97
720.676	170.32
720.863	321.87
721.05	430.41
721.237	278.87
721.424	301.39
721.611	348.5
721.798	98.64
721.985	186.71
722.172	194.9
722.358	215.38
722.545	389.46
722.732	233.81
722.919	260.43
723.106	258.39
723.293	246.1
723.48	315.73
723.667	174.42
723.853	311.63
724.04	258.39
724.227	315.73
724.414	237.91
724.6	313.68
724.787	293.2
724.974	379.22
725.161	323.92
725.347	129.36
725.534	270.67
725.72	350.54
725.907	403.79
726.094	297.3
726.28	354.64
726.467	248.15
726.653	217.43
726.84	313.68
727.027	399.7
727.213	270.67
727.4	266.58
727.586	274.77
727.773	297.3
727.959	346.45
728.145	330.06
728.332	287.06
728.518	221.52
728.705	323.92
728.891	231.76
729.077	323.92
729.264	213.33
729.45	180.56
729.636	270.67
729.823	280.91
730.009	303.44
730.195	266.58
730.382	393.55
730.568	242
730.754	246.1
730.94	282.96
731.126	338.26
731.313	301.39
731.499	254.29
731.685	385.36
731.871	340.3
732.057	356.69
732.243	321.87
732.429	354.64
732.615	342.35
732.801	282.96
732.987	309.58
733.173	266.58
733.359	272.72
733.545	383.31
733.731	340.3
733.917	366.93
734.103	356.69
734.289	317.78
734.475	227.67
734.661	389.46
734.847	348.5
735.033	205.14
735.219	379.22
735.404	260.43
735.59	295.25
735.776	246.1
735.962	381.26
736.148	362.83
736.333	391.5
736.519	250.19
736.705	295.25
736.89	303.44
737.076	293.2
737.262	256.34
737.447	201.04
737.633	192.85
737.819	401.74
738.004	287.06
738.19	309.58
738.375	305.49
738.561	457.04
738.747	315.73
738.932	149.84
739.118	475.47
739.303	391.5
739.489	325.97
739.674	278.87
739.859	237.91
740.045	397.65
740.23	225.62
740.416	129.36
740.601	289.1
740.786	317.78
740.972	174.42
741.157	301.39
741.342	219.47
741.528	258.39
741.713	387.41
741.898	250.19
742.084	336.21
742.269	297.3
742.454	348.5
742.639	356.69
742.824	262.48
743.01	436.56
743.195	452.94
743.38	438.61
743.565	293.2
743.75	356.69
743.935	348.5
744.12	387.41
744.305	203.09
744.49	207.19
744.675	258.39
744.86	260.43
745.045	338.26
745.23	252.24
745.415	215.38
745.6	444.75
745.785	289.1
745.97	362.83
746.155	330.06
746.34	340.3
746.525	285.01
746.71	364.88
746.895	143.7
747.079	196.95
747.264	274.77
747.449	289.1
747.634	330.06
747.819	278.87
748.003	250.19
748.188	168.27
748.373	330.06
748.557	274.77
748.742	221.52
748.927	340.3
749.111	266.58
749.296	203.09
749.481	248.15
749.665	262.48
749.85	231.76
750.034	309.58
750.219	278.87
750.404	215.38
750.588	250.19
750.773	147.8
750.957	186.71
751.141	223.57
751.326	287.06
751.51	166.23
751.695	229.71
751.879	250.19
752.064	354.64
752.248	258.39
752.432	244.05
752.617	252.24
752.801	309.58
752.985	280.91
753.17	289.1
753.354	198.99
753.538	262.48
753.722	180.56
753.907	221.52
754.091	139.6
754.275	323.92
754.459	168.27
754.643	117.08
754.828	227.67
755.012	285.01
755.196	98.64
755.38	235.86
755.564	229.71
755.748	280.91
755.932	160.08
756.116	252.24
756.3	223.57
756.484	133.46
756.668	256.34
756.852	129.36
757.036	162.13
757.22	244.05
757.404	117.08
757.588	184.66
757.772	246.1
757.956	151.89
758.14	244.05
758.323	98.64
758.507	270.67
758.691	125.27
758.875	217.43
759.059	285.01
759.242	190.8
759.426	176.47
759.61	248.15
759.794	143.7
759.977	211.28
760.161	317.78
760.345	291.15
760.528	196.95
760.712	117.08
760.895	201.04
761.079	155.99
761.263	127.32
761.446	78.16
761.63	106.84
761.813	221.52
761.997	143.7
762.18	78.16
762.364	127.32
762.547	61.78
762.731	74.07
762.914	74.07
763.098	35.16
763.281	182.61
763.464	125.27
763.648	196.95
763.831	141.65
764.015	115.03
764.198	196.95
764.381	219.47
764.564	151.89
764.748	110.93
764.931	219.47
765.114	158.03
765.297	219.47
765.481	78.16
765.664	96.6
765.847	61.78
766.03	250.19
766.213	69.97
766.397	86.36
766.58	76.12
766.763	215.38
766.946	149.84
767.129	162.13
767.312	151.89
767.495	104.79
767.678	37.2
767.861	110.93
768.044	205.14
768.227	59.73
768.41	121.17
768.593	112.98
768.776	76.12
768.959	147.8
769.142	250.19
769.324	115.03
769.507	72.02
769.69	104.79
769.873	123.22
770.056	285.01
770.239	145.75
770.421	149.84
770.604	137.56
770.787	72.02
770.97	55.64
771.152	31.06
771.335	78.16
771.518	41.3
771.7	155.99
771.883	182.61
772.066	-7.85
772.248	174.42
772.431	264.53
772.613	147.8
772.796	78.16
772.978	145.75
773.161	190.8
773.343	29.01
773.526	45.4
773.708	110.93
773.891	-65.19
774.073	151.89
774.256	63.83
774.438	223.57
774.621	104.79
774.803	67.92
774.985	74.07
775.168	176.47
775.35	188.75
775.532	108.88
775.715	4.44
775.897	147.8
776.079	100.69
776.261	125.27
776.444	61.78
776.626	67.92
776.808	98.64
776.99	35.16
777.173	151.89
777.355	49.49
777.537	90.45
777.719	143.7
777.901	12.63
778.083	57.68
778.265	-28.33
778.447	96.6
778.629	-5.8
778.811	86.36
778.993	72.02
779.175	112.98
779.357	98.64
779.539	0.34
779.721	65.88
779.903	127.32
780.085	-20.14
780.267	143.7
780.449	106.84
780.631	141.65
780.812	110.93
780.994	20.82
781.176	72.02
781.358	0.34
781.54	22.87
781.721	82.26
781.903	112.98
782.085	-16.04
782.267	127.32
782.448	10.58
782.63	-1.71
782.812	98.64
782.993	102.74
783.175	76.12
783.357	14.68
783.538	63.83
783.72	-13.99
783.901	82.26
784.083	96.6
784.264	18.77
784.446	29.01
784.627	0.34
784.809	57.68
784.99	24.92
785.172	115.03
785.353	65.88
785.535	84.31
785.716	-13.99
785.897	55.64
786.079	16.73
786.26	29.01
786.441	-1.71
786.623	-87.72
786.804	-13.99
786.985	-3.75
787.167	65.88
787.348	53.59
787.529	86.36
787.71	217.43
787.891	53.59
788.073	-30.38
788.254	-1.71
788.435	149.84
788.616	63.83
788.797	16.73
788.978	-11.95
789.159	-48.81
789.34	4.44
789.522	49.49
789.703	76.12
789.884	53.59
790.065	41.3
790.246	196.95
790.427	67.92
790.607	125.27
790.788	76.12
790.969	10.58
791.15	43.35
791.331	26.96
791.512	33.11
791.693	-9.9
791.874	117.08
792.054	201.04
792.235	82.26
792.416	37.2
792.597	-7.85
792.778	123.22
792.958	84.31
793.139	125.27
793.32	14.68
793.5	10.58
793.681	115.03
793.862	41.3
794.042	43.35
794.223	-91.82
794.404	37.2
794.584	-5.8
794.765	72.02
794.945	0.34
795.126	24.92
795.306	78.16
795.487	-3.75
795.667	72.02
795.848	63.83
796.028	59.73
796.209	-3.75
796.389	78.16
796.57	57.68
796.75	-28.33
796.93	-32.43
797.111	-26.28
797.291	-40.62
797.471	86.36
797.652	-44.71
797.832	-20.14
798.012	106.84
798.192	-65.19
798.373	-24.23
798.553	-1.71
798.733	72.02
798.913	-1.71
799.093	76.12
799.274	6.49
799.454	51.54
799.634	47.44
799.814	86.36
799.994	0.34
800.174	-13.99
800.354	90.45
800.534	-108.2
800.714	92.5
800.894	-61.1
801.074	-106.15
801.254	-24.23
801.434	106.84
801.614	-3.75
801.794	-83.63
801.974	1870.14
802.154	2.39
802.334	94.55
802.514	-81.58
802.693	-34.47
802.873	-61.1
803.053	45.4
803.233	6.49
803.413	-18.09
803.592	-69.29
803.772	51.54
803.952	51.54
804.131	-22.19
804.311	29.01
804.491	110.93
804.67	22.87
804.85	6.49
805.03	82.26
805.209	31.06
805.389	37.2
805.568	29.01
805.748	33.11
805.928	-42.67
806.107	53.59
806.287	43.35
806.466	102.74
806.646	69.97
806.825	-44.71
807.004	6.49
807.184	8.53
807.363	53.59
807.543	61.78
807.722	-42.67
807.901	137.56
808.081	39.25
808.26	-140.97
808.439	55.64
808.619	2.39
808.798	-104.11
808.977	-7.85
809.156	76.12
809.336	10.58
809.515	80.21
809.694	-22.19
809.873	-38.57
810.052	18.77
810.231	82.26
810.411	39.25
810.59	139.6
810.769	18.77
810.948	33.11
811.127	-100.01
811.306	47.44
811.485	-32.43
811.664	102.74
811.843	51.54
812.022	-18.09
812.201	20.82
812.38	-26.28
812.559	-59.05
812.737	-1.71
812.916	-65.19
813.095	-52.91
813.274	20.82
813.453	6.49
813.632	65.88
813.811	33.11
813.989	-34.47
814.168	49.49
814.347	-106.15
814.526	-13.99
814.704	117.08
814.883	102.74
815.062	-22.19
815.24	94.55
815.419	45.4
815.598	82.26
815.776	-130.73
815.955	-9.9
816.133	-145.06
816.312	31.06
816.49	-97.96
816.669	29.01
816.847	-44.71
817.026	-38.57
817.204	-81.58
817.383	16.73
817.561	-32.43
817.74	-30.38
817.918	31.06
818.097	-71.34
818.275	8.53
818.453	33.11
818.632	20.82
818.81	-9.9
818.988	-77.48
819.167	-22.19
819.345	-7.85
819.523	-69.29
819.701	76.12
819.879	41.3
820.058	-36.52
820.236	-3.75
820.414	-24.23
820.592	-42.67
820.77	37.2
820.948	-57
821.127	-54.95
821.305	35.16
821.483	-63.15
821.661	88.4
821.839	-7.85
822.017	4.44
822.195	-50.86
822.373	37.2
822.551	-77.48
822.729	12.63
822.907	41.3
823.085	51.54
823.262	-13.99
823.44	-5.8
823.618	-75.43
823.796	0.34
823.974	-42.67
824.152	-22.19
824.329	0.34
824.507	-7.85
824.685	61.78
824.863	12.63
825.04	-11.95
825.218	76.12
825.396	-32.43
825.574	-38.57
825.751	-30.38
825.929	51.54
826.107	-116.39
826.284	14.68
826.462	-11.95
826.639	33.11
826.817	-97.96
826.994	14.68
827.172	-85.67
827.349	108.88
827.527	-44.71
827.704	-71.34
827.882	59.73
828.059	49.49
828.237	-13.99
828.414	37.2
828.591	-93.87
828.769	12.63
828.946	-50.86
829.124	33.11
829.301	39.25
829.478	-46.76
829.655	45.4
829.833	20.82
830.01	-183.98
830.187	-30.38
830.364	-71.34
830.542	49.49
830.719	63.83
830.896	-44.71
831.073	24.92
831.25	2.39
831.427	26.96
831.604	26.96
831.782	-50.86
831.959	10.58
832.136	6.49
832.313	-3.75
832.49	33.11
832.667	20.82
832.844	-73.39
833.021	45.4
833.198	51.54
833.374	-3.75
833.551	-57
833.728	-63.15
833.905	123.22
834.082	-63.15
834.259	-7.85
834.436	69.97
834.612	-28.33
834.789	-46.76
834.966	-7.85
835.143	16.73
835.319	-71.34
835.496	33.11
835.673	-1.71
835.85	69.97
836.026	108.88
836.203	37.2
836.38	-30.38
836.556	-102.06
836.733	14.68
836.909	63.83
837.086	10.58
837.262	-71.34
837.439	-38.57
837.616	-83.63
837.792	-7.85
837.968	18.77
838.145	-69.29
838.321	-9.9
838.498	-36.52
838.674	100.69
838.851	-24.23
839.027	-5.8
839.203	-36.52
839.38	-38.57
839.556	-11.95
839.732	82.26
839.909	-54.95
840.085	10.58
840.261	-38.57
840.437	-13.99
840.614	53.59
840.79	82.26
840.966	69.97
841.142	43.35
841.318	-63.15
841.494	24.92
841.671	47.44
841.847	-9.9
842.023	-42.67
842.199	-5.8
842.375	90.45
842.551	-175.78
842.727	-20.14
842.903	94.55
843.079	-87.72
843.255	53.59
843.431	-59.05
843.607	31.06
843.783	-175.78
843.959	69.97
844.134	-63.15
844.31	119.12
844.486	-22.19
844.662	-61.1
844.838	-5.8
845.013	63.83
845.189	29.01
845.365	22.87
845.541	24.92
845.716	-3.75
845.892	41.3
846.068	-106.15
846.244	-52.91
846.419	37.2
846.595	-110.25
846.77	-114.34
846.946	41.3
847.122	-52.91
847.297	-28.33
847.473	80.21
847.648	-134.82
847.824	31.06
847.999	-106.15
848.175	-42.67
848.35	2.39
848.526	55.64
848.701	65.88
848.876	94.55
849.052	49.49
849.227	45.4
849.403	76.12
849.578	6.49
849.753	0.34
849.929	41.3
850.104	-77.48
850.279	-61.1
850.454	35.16
850.63	65.88
850.805	53.59
850.98	-48.81
851.155	-36.52
851.33	55.64
851.505	-46.76
851.681	102.74
851.856	26.96
852.031	78.16
852.206	149.84
852.381	-18.09
852.556	-13.99
852.731	20.82
852.906	-34.47
853.081	-85.67
853.256	51.54
853.431	-20.14
853.606	-75.43
853.781	-34.47
853.956	-50.86
854.131	37.2
854.305	-26.28
854.48	-48.81
854.655	-63.15
854.83	-69.29
855.005	-46.76
855.18	61.78
855.354	-16.04
855.529	82.26
855.704	-36.52
855.879	-3.75
856.053	-85.67
856.228	-44.71
856.403	-128.68
856.577	37.2
856.752	-126.63
856.926	20.82
857.101	-38.57
857.276	-97.96
857.45	37.2
857.625	20.82
857.799	26.96
857.974	20.82
858.148	-81.58
858.323	39.25
858.497	-18.09
858.672	-97.96
858.846	-16.04
859.02	112.98
859.195	-11.95
859.369	-22.19
859.543	0.34
859.718	-1.71
859.892	-48.81
860.066	-22.19
860.241	-54.95
860.415	-22.19
860.589	12.63
860.763	24.92
860.938	-42.67
861.112	-9.9
861.286	-54.95
861.46	88.4
861.634	49.49
861.808	18.77
861.982	-7.85
862.157	-149.16
862.331	-91.82
862.505	-132.78
862.679	-79.53
862.853	-95.91
863.027	-65.19
863.201	108.88
863.375	-65.19
863.549	12.63
863.722	47.44
863.896	55.64
864.07	-36.52
864.244	29.01
864.418	35.16
864.592	-1.71
864.766	-3.75
864.939	-50.86
865.113	-1.71
865.287	155.99
865.461	-52.91
865.634	41.3
865.808	-26.28
865.982	-65.19
866.156	-118.44
866.329	-110.25
866.503	55.64
866.676	115.03
866.85	16.73
867.024	-89.77
867.197	-7.85
867.371	41.3
867.544	-13.99
867.718	-108.2
867.891	84.31
868.065	-124.58
868.238	35.16
868.412	74.07
868.585	65.88
868.759	-65.19
868.932	4.44
869.105	-81.58
869.279	-3.75
869.452	-89.77
869.625	16.73
869.799	55.64
869.972	-95.91
870.145	-52.91
870.319	80.21
870.492	-46.76
870.665	16.73
870.838	-85.67
871.011	-149.16
871.185	-48.81
871.358	-26.28
871.531	18.77
871.704	-18.09
871.877	39.25
872.05	-114.34
872.223	-36.52
872.396	26.96
872.569	0.34
872.742	-71.34
872.915	-3.75
873.088	-30.38
873.261	-91.82
873.434	112.98
873.607	-9.9
873.78	16.73
873.953	-48.81
874.126	-61.1
874.299	51.54
874.471	-57
874.644	-22.19
874.817	33.11
874.99	176.47
875.163	-1.71
875.335	35.16
875.508	-38.57
875.681	67.92
875.853	-77.48
876.026	-40.62
876.199	98.64
876.371	-40.62
876.544	-42.67
876.717	2.39
876.889	-65.19
877.062	49.49
877.234	-77.48
877.407	-54.95
877.579	41.3
877.752	-7.85
877.924	24.92
878.097	-1.71
878.269	14.68
878.442	43.35
878.614	-34.47
878.786	26.96
878.959	-9.9
879.131	-63.15
879.303	-36.52
879.476	-40.62
879.648	65.88
879.82	10.58
879.993	-22.19
880.165	-16.04
880.337	-128.68
880.509	-11.95
880.681	-54.95
880.854	-20.14
881.026	96.6
881.198	115.03
881.37	-42.67
881.542	16.73
881.714	-61.1
881.886	8.53
882.058	26.96
882.23	-59.05
882.402	-42.67
882.574	12.63
882.746	72.02
882.918	141.65
883.09	33.11
883.262	-22.19
883.434	-16.04
883.606	-143.02
883.778	22.87
883.95	84.31
884.122	16.73
884.293	-24.23
884.465	-30.38
884.637	18.77
884.809	-87.72
884.98	-3.75
885.152	39.25
885.324	82.26
885.496	-30.38
885.667	-46.76
885.839	33.11
886.011	100.69
886.182	-24.23
886.354	129.36
886.525	-48.81
886.697	-42.67
886.869	-116.39
887.04	-52.91
887.212	176.47
887.383	106.84
887.555	10.58
887.726	-9.9
887.897	0.34
888.069	-59.05
888.24	80.21
888.412	-65.19
888.583	-32.43
888.754	-28.33
888.926	-91.82
889.097	-69.29
889.268	-67.24
889.44	59.73
889.611	-126.63
889.782	-79.53
889.953	-93.87
890.125	82.26
890.296	-59.05
890.467	-50.86
890.638	-108.2
890.809	-65.19
890.98	-50.86
891.151	37.2
891.323	135.51
891.494	26.96
891.665	-28.33
891.836	-7.85
892.007	-16.04
892.178	37.2
892.349	-3.75
892.52	-87.72
892.691	-22.19
892.862	-104.11
893.032	-181.93
893.203	55.64
893.374	41.3
893.545	65.88
893.716	-40.62
893.887	-34.47
894.057	-102.06
894.228	-22.19
894.399	-52.91
894.57	74.07
894.74	-30.38
894.911	-7.85
895.082	-63.15
895.253	-73.39
895.423	-11.95
895.594	-13.99
895.764	43.35
895.935	-46.76
896.106	4.44
896.276	-20.14
896.447	61.78
896.617	-36.52
896.788	-114.34
896.958	-16.04
897.129	-54.95
897.299	18.77
897.47	123.22
897.64	55.64
897.81	-11.95
897.981	18.77
898.151	-138.92
898.322	20.82
898.492	104.79
898.662	-104.11
898.832	-67.24
899.003	0.34
899.173	80.21
899.343	-44.71
899.513	-71.34
