Data from USB4F104151__40__09-27-32-708.txt Node

Date: Wed Feb 26 09:27:32 EST 2025
User: louis
Spectrometer: USB4F10415
Trigger mode: 4
Integration Time (sec): 1.000000E-1
Scans to average: 1
Electric dark correction enabled: true
Nonlinearity correction enabled: false
Boxcar width: 0
XAxis mode: Wavelengths
Number of Pixels in Spectrum: 3648
>>>>>Begin Spectral Data<<<<<
178.204	-317.09
178.424	-317.09
178.644	-317.09
178.864	-335.53
179.084	-276.13
179.304	14.68
179.524	-40.62
179.744	49.49
179.964	29.01
180.184	-5.8
180.404	49.49
180.624	-18.09
180.844	-11.95
181.064	-48.81
181.283	-32.43
181.503	-28.33
181.723	43.35
181.943	-159.4
182.163	149.84
182.383	22.87
182.602	65.88
182.822	96.6
183.042	65.88
183.262	-71.34
183.482	-100.01
183.701	-13.99
183.921	82.26
184.141	-59.05
184.361	106.84
184.58	82.26
184.8	33.11
185.02	-38.57
185.239	117.08
185.459	14.68
185.679	61.78
185.898	-89.77
186.118	22.87
186.338	141.65
186.557	117.08
186.777	-63.15
186.997	35.16
187.216	43.35
187.436	59.73
187.655	43.35
187.875	57.68
188.095	22.87
188.314	145.75
188.534	90.45
188.753	-16.04
188.973	125.27
189.192	139.6
189.412	8.53
189.631	65.88
189.851	112.98
190.07	155.99
190.29	-3.75
190.509	-34.47
190.729	4.44
190.948	129.36
191.168	262.48
191.387	94.55
191.607	18.77
191.826	45.4
192.045	96.6
192.265	76.12
192.484	125.27
192.704	41.3
192.923	-100.01
193.142	190.8
193.362	29.01
193.581	72.02
193.8	67.92
194.02	88.4
194.239	45.4
194.458	90.45
194.678	33.11
194.897	51.54
195.116	90.45
195.335	2.39
195.555	47.44
195.774	47.44
195.993	98.64
196.212	39.25
196.432	-7.85
196.651	-22.19
196.87	-18.09
197.089	176.47
197.308	43.35
197.528	22.87
197.747	-9.9
197.966	63.83
198.185	110.93
198.404	-75.43
198.623	100.69
198.842	153.94
199.062	125.27
199.281	121.17
199.5	10.58
199.719	141.65
199.938	78.16
200.157	67.92
200.376	43.35
200.595	80.21
200.814	47.44
201.033	-16.04
201.252	106.84
201.471	2.39
201.69	67.92
201.909	47.44
202.128	127.32
202.347	31.06
202.566	33.11
202.785	-46.76
203.004	-3.75
203.223	215.38
203.442	59.73
203.661	-48.81
203.879	33.11
204.098	88.4
204.317	59.73
204.536	172.37
204.755	72.02
204.974	84.31
205.193	-11.95
205.411	82.26
205.63	76.12
205.849	39.25
206.068	16.73
206.287	-3.75
206.505	72.02
206.724	47.44
206.943	57.68
207.162	-22.19
207.381	26.96
207.599	57.68
207.818	14.68
208.037	-1.71
208.255	-24.23
208.474	2.39
208.693	41.3
208.911	57.68
209.13	24.92
209.349	33.11
209.567	69.97
209.786	47.44
210.005	84.31
210.223	67.92
210.442	-83.63
210.661	110.93
210.879	49.49
211.098	76.12
211.316	49.49
211.535	92.5
211.753	-46.76
211.972	47.44
212.191	14.68
212.409	82.26
212.628	55.64
212.846	-5.8
213.065	49.49
213.283	92.5
213.502	24.92
213.72	4.44
213.938	31.06
214.157	-52.91
214.375	59.73
214.594	16.73
214.812	106.84
215.031	37.2
215.249	2.39
215.467	100.69
215.686	-1.71
215.904	78.16
216.122	18.77
216.341	127.32
216.559	67.92
216.778	51.54
216.996	74.07
217.214	-22.19
217.432	-34.47
217.651	-11.95
217.869	51.54
218.087	100.69
218.306	-9.9
218.524	123.22
218.742	10.58
218.96	47.44
219.179	-13.99
219.397	39.25
219.615	180.56
219.833	82.26
220.051	-30.38
220.27	153.94
220.488	84.31
220.706	14.68
220.924	4.44
221.142	-46.76
221.36	69.97
221.578	4.44
221.796	-40.62
222.015	67.92
222.233	45.4
222.451	153.94
222.669	35.16
222.887	106.84
223.105	-26.28
223.323	8.53
223.541	18.77
223.759	129.36
223.977	31.06
224.195	41.3
224.413	84.31
224.631	-7.85
224.849	78.16
225.067	178.51
225.285	-16.04
225.503	18.77
225.721	-104.11
225.939	10.58
226.157	92.5
226.375	158.03
226.592	-5.8
226.81	33.11
227.028	98.64
227.246	143.7
227.464	26.96
227.682	80.21
227.9	72.02
228.117	57.68
228.335	76.12
228.553	63.83
228.771	55.64
228.989	12.63
229.206	74.07
229.424	-11.95
229.642	-5.8
229.86	10.58
230.077	53.59
230.295	24.92
230.513	39.25
230.731	98.64
230.948	137.56
231.166	205.14
231.384	35.16
231.601	8.53
231.819	139.6
232.037	41.3
232.254	2.39
232.472	10.58
232.689	-73.39
232.907	80.21
233.125	37.2
233.342	-67.24
233.56	39.25
233.777	18.77
233.995	90.45
234.213	155.99
234.43	86.36
234.648	108.88
234.865	-5.8
235.083	35.16
235.3	67.92
235.518	10.58
235.735	117.08
235.953	86.36
236.17	0.34
236.388	20.82
236.605	-5.8
236.822	92.5
237.04	92.5
237.257	86.36
237.475	-7.85
237.692	41.3
237.909	180.56
238.127	-1.71
238.344	80.21
238.562	14.68
238.779	-59.05
238.996	-26.28
239.214	10.58
239.431	84.31
239.648	33.11
239.865	90.45
240.083	102.74
240.3	55.64
240.517	10.58
240.735	-3.75
240.952	96.6
241.169	67.92
241.386	55.64
241.603	4.44
241.821	-38.57
242.038	110.93
242.255	135.51
242.472	16.73
242.689	59.73
242.907	82.26
243.124	-24.23
243.341	35.16
243.558	22.87
243.775	-18.09
243.992	-40.62
244.209	43.35
244.426	178.51
244.643	96.6
244.86	74.07
245.078	4.44
245.295	51.54
245.512	35.16
245.729	-30.38
245.946	-22.19
246.163	69.97
246.38	55.64
246.597	125.27
246.814	53.59
247.031	-13.99
247.248	63.83
247.464	61.78
247.681	43.35
247.898	82.26
248.115	18.77
248.332	12.63
248.549	112.98
248.766	180.56
248.983	41.3
249.2	86.36
249.417	108.88
249.633	-28.33
249.85	-18.09
250.067	-26.28
250.284	49.49
250.501	82.26
250.717	92.5
250.934	-46.76
251.151	-22.19
251.368	26.96
251.585	67.92
251.801	37.2
252.018	31.06
252.235	69.97
252.451	-7.85
252.668	8.53
252.885	121.17
253.102	92.5
253.318	-20.14
253.535	57.68
253.752	51.54
253.968	26.96
254.185	-24.23
254.401	-36.52
254.618	55.64
254.835	-20.14
255.051	98.64
255.268	49.49
255.484	51.54
255.701	-13.99
255.917	86.36
256.134	84.31
256.351	10.58
256.567	-32.43
256.784	43.35
257	-54.95
257.217	35.16
257.433	139.6
257.65	0.34
257.866	94.55
258.082	-65.19
258.299	-36.52
258.515	22.87
258.732	51.54
258.948	-7.85
259.165	47.44
259.381	8.53
259.597	35.16
259.814	-7.85
260.03	-46.76
260.246	22.87
260.463	57.68
260.679	94.55
260.895	18.77
261.112	92.5
261.328	0.34
261.544	-59.05
261.761	235.86
261.977	-46.76
262.193	-18.09
262.409	100.69
262.626	92.5
262.842	76.12
263.058	16.73
263.274	88.4
263.49	-28.33
263.707	137.56
263.923	139.6
264.139	-24.23
264.355	59.73
264.571	102.74
264.787	20.82
265.004	63.83
265.22	37.2
265.436	-69.29
265.652	22.87
265.868	49.49
266.084	-83.63
266.3	80.21
266.516	10.58
266.732	-16.04
266.948	26.96
267.164	24.92
267.38	82.26
267.596	-22.19
267.812	110.93
268.028	69.97
268.244	-63.15
268.46	29.01
268.676	47.44
268.892	84.31
269.108	-5.8
269.324	-5.8
269.54	22.87
269.756	141.65
269.972	-50.86
270.188	-28.33
270.403	-71.34
270.619	4.44
270.835	115.03
271.051	-11.95
271.267	0.34
271.483	12.63
271.698	117.08
271.914	33.11
272.13	41.3
272.346	69.97
272.562	33.11
272.777	178.51
272.993	49.49
273.209	-16.04
273.425	43.35
273.64	-28.33
273.856	137.56
274.072	-26.28
274.287	33.11
274.503	53.59
274.719	121.17
274.934	14.68
275.15	24.92
275.366	2.39
275.581	-61.1
275.797	-61.1
276.012	100.69
276.228	22.87
276.444	26.96
276.659	108.88
276.875	-79.53
277.09	55.64
277.306	45.4
277.521	102.74
277.737	139.6
277.952	63.83
278.168	51.54
278.383	14.68
278.599	74.07
278.814	69.97
279.03	-16.04
279.245	59.73
279.461	-22.19
279.676	78.16
279.892	-118.44
280.107	-50.86
280.322	37.2
280.538	35.16
280.753	57.68
280.969	53.59
281.184	-7.85
281.399	129.36
281.615	61.78
281.83	8.53
282.045	-85.67
282.26	-67.24
282.476	59.73
282.691	2.39
282.906	4.44
283.122	51.54
283.337	-54.95
283.552	-16.04
283.767	-59.05
283.983	74.07
284.198	6.49
284.413	88.4
284.628	-65.19
284.843	35.16
285.058	49.49
285.274	35.16
285.489	72.02
285.704	-1.71
285.919	-42.67
286.134	18.77
286.349	31.06
286.564	4.44
286.779	88.4
286.995	-9.9
287.21	-63.15
287.425	129.36
287.64	-38.57
287.855	53.59
288.07	-24.23
288.285	188.75
288.5	141.65
288.715	110.93
288.93	98.64
289.145	-5.8
289.36	67.92
289.575	10.58
289.79	41.3
290.004	2.39
290.219	133.46
290.434	35.16
290.649	43.35
290.864	0.34
291.079	-59.05
291.294	20.82
291.509	26.96
291.724	51.54
291.938	63.83
292.153	94.55
292.368	-28.33
292.583	-9.9
292.798	137.56
293.012	108.88
293.227	96.6
293.442	-7.85
293.657	123.22
293.871	61.78
294.086	67.92
294.301	82.26
294.516	84.31
294.73	49.49
294.945	0.34
295.16	29.01
295.374	53.59
295.589	76.12
295.804	35.16
296.018	6.49
296.233	41.3
296.447	37.2
296.662	-114.34
296.877	123.22
297.091	143.7
297.306	96.6
297.52	-22.19
297.735	20.82
297.949	92.5
298.164	6.49
298.378	61.78
298.593	-71.34
298.807	-9.9
299.022	29.01
299.236	110.93
299.451	35.16
299.665	8.53
299.88	-9.9
300.094	76.12
300.309	10.58
300.523	51.54
300.737	-22.19
300.952	108.88
301.166	22.87
301.381	26.96
301.595	63.83
301.809	78.16
302.024	2.39
302.238	-24.23
302.452	133.46
302.667	35.16
302.881	74.07
303.095	63.83
303.309	76.12
303.524	8.53
303.738	18.77
303.952	-11.95
304.166	45.4
304.381	-83.63
304.595	96.6
304.809	43.35
305.023	35.16
305.237	20.82
305.452	-5.8
305.666	90.45
305.88	76.12
306.094	43.35
306.308	61.78
306.522	59.73
306.736	39.25
306.95	110.93
307.164	31.06
307.379	43.35
307.593	22.87
307.807	47.44
308.021	88.4
308.235	47.44
308.449	-18.09
308.663	24.92
308.877	186.71
309.091	-59.05
309.305	14.68
309.519	-20.14
309.733	88.4
309.947	16.73
310.161	84.31
310.374	33.11
310.588	141.65
310.802	-97.96
311.016	-20.14
311.23	78.16
311.444	-34.47
311.658	0.34
311.872	31.06
312.085	57.68
312.299	166.23
312.513	4.44
312.727	-32.43
312.941	-38.57
313.154	137.56
313.368	6.49
313.582	2.39
313.796	-9.9
314.009	37.2
314.223	14.68
314.437	35.16
314.651	155.99
314.864	-46.76
315.078	6.49
315.292	35.16
315.505	-30.38
315.719	43.35
315.933	82.26
316.146	-20.14
316.36	-30.38
316.573	51.54
316.787	67.92
317.001	72.02
317.214	-22.19
317.428	-38.57
317.641	-26.28
317.855	35.16
318.068	41.3
318.282	43.35
318.495	139.6
318.709	14.68
318.922	29.01
319.136	37.2
319.349	59.73
319.563	41.3
319.776	2.39
319.99	33.11
320.203	41.3
320.417	63.83
320.63	35.16
320.843	110.93
321.057	72.02
321.27	35.16
321.483	90.45
321.697	121.17
321.91	33.11
322.124	117.08
322.337	41.3
322.55	14.68
322.763	-34.47
322.977	31.06
323.19	-38.57
323.403	22.87
323.617	84.31
323.83	82.26
324.043	82.26
324.256	63.83
324.469	-65.19
324.683	100.69
324.896	26.96
325.109	47.44
325.322	-81.58
325.535	26.96
325.748	0.34
325.962	22.87
326.175	0.34
326.388	117.08
326.601	131.41
326.814	22.87
327.027	43.35
327.24	121.17
327.453	-13.99
327.666	74.07
327.879	57.68
328.092	106.84
328.305	51.54
328.518	12.63
328.731	26.96
328.944	-26.28
329.157	90.45
329.37	61.78
329.583	82.26
329.796	121.17
330.009	-50.86
330.222	55.64
330.435	80.21
330.648	84.31
330.861	92.5
331.073	96.6
331.286	72.02
331.499	35.16
331.712	-36.52
331.925	123.22
332.138	6.49
332.35	80.21
332.563	6.49
332.776	147.8
332.989	-16.04
333.202	-5.8
333.414	-50.86
333.627	98.64
333.84	18.77
334.053	108.88
334.265	-52.91
334.478	78.16
334.691	-26.28
334.903	45.4
335.116	-50.86
335.329	31.06
335.541	45.4
335.754	158.03
335.966	-36.52
336.179	26.96
336.392	2.39
336.604	18.77
336.817	55.64
337.029	100.69
337.242	65.88
337.454	49.49
337.667	108.88
337.88	84.31
338.092	39.25
338.305	39.25
338.517	-32.43
338.729	74.07
338.942	90.45
339.154	12.63
339.367	16.73
339.579	37.2
339.792	-71.34
340.004	76.12
340.217	-24.23
340.429	80.21
340.641	0.34
340.854	6.49
341.066	22.87
341.278	117.08
341.491	158.03
341.703	-95.91
341.915	-97.96
342.128	92.5
342.34	55.64
342.552	-52.91
342.764	12.63
342.977	47.44
343.189	53.59
343.401	10.58
343.613	18.77
343.826	20.82
344.038	-34.47
344.25	16.73
344.462	-50.86
344.674	20.82
344.886	35.16
345.099	108.88
345.311	61.78
345.523	-18.09
345.735	-42.67
345.947	55.64
346.159	51.54
346.371	63.83
346.583	-128.68
346.795	223.57
347.007	-32.43
347.219	98.64
347.431	8.53
347.643	168.27
347.855	-7.85
348.067	219.47
348.279	-104.11
348.491	35.16
348.703	47.44
348.915	18.77
349.127	-44.71
349.339	-24.23
349.551	-36.52
349.763	125.27
349.975	18.77
350.187	88.4
350.399	149.84
350.61	76.12
350.822	-16.04
351.034	6.49
351.246	57.68
351.458	108.88
351.669	74.07
351.881	76.12
352.093	31.06
352.305	108.88
352.517	49.49
352.728	39.25
352.94	84.31
353.152	76.12
353.363	80.21
353.575	-16.04
353.787	108.88
353.999	37.2
354.21	100.69
354.422	-63.15
354.633	20.82
354.845	92.5
355.057	-24.23
355.268	31.06
355.48	117.08
355.692	-85.67
355.903	55.64
356.115	-18.09
356.326	-40.62
356.538	106.84
356.749	8.53
356.961	98.64
357.172	12.63
357.384	-22.19
357.595	242
357.807	65.88
358.018	-63.15
358.23	49.49
358.441	192.85
358.653	139.6
358.864	39.25
359.075	45.4
359.287	2.39
359.498	178.51
359.709	-9.9
359.921	-1.71
360.132	33.11
360.344	61.78
360.555	43.35
360.766	80.21
360.977	98.64
361.189	49.49
361.4	35.16
361.611	112.98
361.823	100.69
362.034	125.27
362.245	-5.8
362.456	125.27
362.667	92.5
362.879	-50.86
363.09	53.59
363.301	67.92
363.512	55.64
363.723	26.96
363.935	24.92
364.146	106.84
364.357	20.82
364.568	-5.8
364.779	-22.19
364.99	115.03
365.201	22.87
365.412	145.75
365.623	-22.19
365.834	61.78
366.045	-5.8
366.256	74.07
366.467	131.41
366.678	12.63
366.889	12.63
367.1	-16.04
367.311	51.54
367.522	-1.71
367.733	82.26
367.944	45.4
368.155	-3.75
368.366	147.8
368.577	84.31
368.788	49.49
368.999	2.39
369.209	-28.33
369.42	166.23
369.631	211.28
369.842	47.44
370.053	47.44
370.264	84.31
370.474	10.58
370.685	39.25
370.896	14.68
371.107	65.88
371.317	153.94
371.528	-9.9
371.739	74.07
371.95	-3.75
372.16	90.45
372.371	-13.99
372.582	-44.71
372.792	24.92
373.003	53.59
373.214	8.53
373.424	104.79
373.635	-7.85
373.846	96.6
374.056	67.92
374.267	43.35
374.477	12.63
374.688	-79.53
374.898	37.2
375.109	14.68
375.319	24.92
375.53	43.35
375.74	149.84
375.951	-7.85
376.161	16.73
376.372	133.46
376.582	-38.57
376.793	92.5
377.003	-13.99
377.214	-63.15
377.424	45.4
377.635	31.06
377.845	-38.57
378.055	65.88
378.266	-52.91
378.476	-16.04
378.686	43.35
378.897	18.77
379.107	137.56
379.317	74.07
379.528	-50.86
379.738	137.56
379.948	-24.23
380.158	84.31
380.369	24.92
380.579	20.82
380.789	92.5
380.999	51.54
381.21	51.54
381.42	227.67
381.63	-1.71
381.84	123.22
382.05	121.17
382.261	76.12
382.471	57.68
382.681	59.73
382.891	117.08
383.101	20.82
383.311	33.11
383.521	-1.71
383.731	18.77
383.941	160.08
384.151	51.54
384.361	-36.52
384.571	35.16
384.781	74.07
384.991	217.43
385.201	168.27
385.411	135.51
385.621	63.83
385.831	39.25
386.041	88.4
386.251	24.92
386.461	119.12
386.671	55.64
386.881	24.92
387.091	18.77
387.301	145.75
387.511	6.49
387.72	67.92
387.93	127.32
388.14	0.34
388.35	35.16
388.56	190.8
388.769	92.5
388.979	20.82
389.189	6.49
389.399	72.02
389.609	110.93
389.818	84.31
390.028	61.78
390.238	26.96
390.447	10.58
390.657	47.44
390.867	43.35
391.076	-63.15
391.286	80.21
391.496	37.2
391.705	-11.95
391.915	94.55
392.125	35.16
392.334	26.96
392.544	104.79
392.753	-16.04
392.963	-3.75
393.172	22.87
393.382	-5.8
393.591	133.46
393.801	6.49
394.01	57.68
394.22	63.83
394.429	-26.28
394.639	63.83
394.848	112.98
395.058	33.11
395.267	74.07
395.477	33.11
395.686	2.39
395.895	90.45
396.105	149.84
396.314	100.69
396.524	59.73
396.733	6.49
396.942	115.03
397.152	115.03
397.361	90.45
397.57	149.84
397.78	-1.71
397.989	31.06
398.198	145.75
398.407	-30.38
398.617	31.06
398.826	39.25
399.035	16.73
399.244	59.73
399.453	96.6
399.663	90.45
399.872	74.07
400.081	-52.91
400.29	112.98
400.499	-18.09
400.708	115.03
400.917	76.12
401.127	-22.19
401.336	-26.28
401.545	129.36
401.754	98.64
401.963	76.12
402.172	-5.8
402.381	10.58
402.59	100.69
402.799	22.87
403.008	94.55
403.217	102.74
403.426	-22.19
403.635	-104.11
403.844	26.96
404.053	-5.8
404.262	51.54
404.471	102.74
404.68	63.83
404.888	53.59
405.097	8.53
405.306	-34.47
405.515	82.26
405.724	43.35
405.933	31.06
406.142	14.68
406.35	98.64
406.559	-22.19
406.768	2.39
406.977	158.03
407.185	84.31
407.394	104.79
407.603	-52.91
407.812	92.5
408.02	63.83
408.229	59.73
408.438	-34.47
408.646	-69.29
408.855	-22.19
409.064	18.77
409.272	-16.04
409.481	55.64
409.69	-1.71
409.898	-50.86
410.107	102.74
410.315	63.83
410.524	-1.71
410.733	231.76
410.941	24.92
411.15	63.83
411.358	35.16
411.567	158.03
411.775	0.34
411.984	10.58
412.192	94.55
412.401	-5.8
412.609	166.23
412.818	108.88
413.026	72.02
413.234	-13.99
413.443	47.44
413.651	53.59
413.86	82.26
414.068	104.79
414.276	133.46
414.485	-46.76
414.693	92.5
414.901	246.1
415.11	102.74
415.318	-5.8
415.526	133.46
415.734	78.16
415.943	20.82
416.151	160.08
416.359	104.79
416.567	129.36
416.776	86.36
416.984	94.55
417.192	151.89
417.4	-50.86
417.608	-48.81
417.817	-22.19
418.025	72.02
418.233	129.36
418.441	-42.67
418.649	-153.26
418.857	-13.99
419.065	133.46
419.273	-42.67
419.481	72.02
419.689	45.4
419.897	51.54
420.105	10.58
420.313	88.4
420.521	108.88
420.729	141.65
420.937	72.02
421.145	37.2
421.353	117.08
421.561	112.98
421.769	67.92
421.977	-1.71
422.185	55.64
422.393	33.11
422.601	43.35
422.809	90.45
423.017	-30.38
423.224	47.44
423.432	143.7
423.64	-13.99
423.848	155.99
424.056	-22.19
424.263	57.68
424.471	41.3
424.679	131.41
424.887	35.16
425.094	110.93
425.302	61.78
425.51	49.49
425.718	139.6
425.925	43.35
426.133	61.78
426.341	141.65
426.548	82.26
426.756	41.3
426.964	47.44
427.171	22.87
427.379	100.69
427.586	18.77
427.794	74.07
428.001	135.51
428.209	10.58
428.417	98.64
428.624	125.27
428.832	168.27
429.039	86.36
429.247	-3.75
429.454	117.08
429.662	223.57
429.869	104.79
430.076	176.47
430.284	88.4
430.491	164.18
430.699	90.45
430.906	213.33
431.114	90.45
431.321	170.32
431.528	67.92
431.736	129.36
431.943	117.08
432.15	125.27
432.358	160.08
432.565	254.29
432.772	-16.04
432.979	188.75
433.187	59.73
433.394	207.19
433.601	147.8
433.808	231.76
434.016	227.67
434.223	164.18
434.43	151.89
434.637	237.91
434.844	231.76
435.052	164.18
435.259	334.16
435.466	231.76
435.673	215.38
435.88	188.75
436.087	305.49
436.294	256.34
436.501	319.82
436.708	274.77
436.915	207.19
437.122	254.29
437.329	151.89
437.537	176.47
437.743	242
437.95	364.88
438.157	332.11
438.364	287.06
438.571	375.12
438.778	350.54
438.985	416.08
439.192	360.78
439.399	315.73
439.606	401.74
439.813	444.75
440.02	541.01
440.227	444.75
440.433	401.74
440.64	500.05
440.847	393.55
441.054	424.27
441.261	520.53
441.467	600.4
441.674	473.42
441.881	489.81
442.088	432.46
442.294	633.16
442.501	600.4
442.708	627.02
442.914	635.21
443.121	708.94
443.328	641.36
443.534	688.46
443.741	678.22
443.948	653.64
444.154	837.96
444.361	932.17
444.568	702.79
444.774	821.58
444.981	745.8
445.187	960.84
445.394	893.26
445.6	852.3
445.807	1110.34
446.013	1014.09
446.22	997.7
446.426	1042.76
446.633	1120.58
446.839	1280.32
447.046	1112.39
447.252	1347.9
447.459	1245.51
447.665	1366.34
447.871	1435.97
448.078	1513.79
448.284	1577.28
448.491	1526.08
448.697	1747.26
448.903	1724.73
449.11	1714.49
449.316	1671.48
449.522	1933.62
449.728	1925.43
449.935	2103.61
450.141	1907
450.347	2214.2
450.553	2169.14
450.76	2296.11
450.966	2326.83
451.172	2322.74
451.378	2578.73
451.584	2525.49
451.791	2631.98
451.997	2685.23
452.203	2713.9
452.409	2949.42
452.615	3158.31
452.821	2998.57
453.027	3143.97
453.233	3473.7
453.44	3389.73
453.646	3426.59
453.852	3623.2
454.058	3858.71
454.264	3782.94
454.47	4127
454.676	4096.28
454.882	4473.11
455.088	4342.04
455.294	4714.77
455.5	4962.57
455.705	5081.35
455.911	4974.86
456.117	5196.04
456.323	5486.85
456.529	5525.76
456.735	5978.36
456.941	6285.56
457.147	6349.04
457.352	6510.83
457.558	6746.35
457.764	7223.53
457.97	7221.48
458.176	7500
458.381	7971.04
458.587	7973.08
458.793	8454.36
458.999	8405.21
459.204	9545.92
459.41	9877.69
459.616	9752.77
459.821	10303.67
460.027	10653.87
460.233	11239.59
460.438	11303.08
460.644	11868.32
460.85	12218.52
461.055	12388.5
461.261	13197.45
461.466	12939.41
461.672	13004.94
461.878	14717.04
462.083	14551.16
462.289	14790.77
462.494	15380.59
462.7	15597.67
462.905	15710.31
463.111	17098.83
463.316	17733.7
463.522	18079.81
463.727	18804.79
463.932	19300.4
464.138	19900.45
464.343	20713.5
464.549	20983.83
464.754	22706.17
464.959	23193.59
465.165	23521.26
465.37	23230.45
465.575	23470.06
465.781	24635.36
465.986	25602
466.191	25612.24
466.397	25589.71
466.602	25018.33
466.807	26355.65
467.012	27027.38
467.218	27275.19
467.423	27479.99
467.628	28407.72
467.833	29689.74
468.038	28886.94
468.244	28407.72
468.449	29753.23
468.654	29398.93
468.859	29456.28
469.064	29304.73
469.269	28465.06
469.474	29075.35
469.679	29876.11
469.885	28796.83
470.09	29065.11
470.295	29231
470.5	28792.73
470.705	28942.24
470.91	28364.71
471.115	28250.02
471.32	28495.78
471.525	27832.24
471.73	27723.69
471.935	27338.68
472.139	26243.01
472.344	26187.72
472.549	26398.66
472.754	25548.75
472.959	25085.91
473.164	24166.37
473.369	23996.39
473.574	24420.32
473.778	24039.4
473.983	23519.21
474.188	23314.42
474.393	22075.4
474.598	21938.18
474.802	21399.57
475.007	21391.37
475.212	20895.77
475.417	20252.7
475.621	19789.86
475.826	19896.36
476.031	19337.26
476.235	19157.04
476.44	19046.45
476.645	18081.86
476.849	18296.89
477.054	18110.53
477.259	17649.74
477.463	17547.34
477.668	16875.6
477.872	16795.73
478.077	16568.41
478.282	16230.49
478.486	15788.13
478.691	15747.17
478.895	15648.87
479.1	15847.52
479.304	15757.41
479.509	15042.67
479.713	15257.71
479.918	14782.58
480.122	14407.8
480.326	14602.36
480.531	14598.26
480.735	14502.01
480.94	14223.48
481.144	14700.66
481.348	13865.09
481.553	13846.66
481.757	13537.41
481.961	13805.7
482.166	13676.68
482.37	13652.1
482.574	13402.25
482.778	13310.09
482.983	13574.28
483.187	13209.74
483.391	12826.77
483.595	12841.11
483.8	12664.98
484.004	12695.7
484.208	12822.67
484.412	12306.59
484.616	12570.77
484.821	12396.7
485.025	11833.5
485.229	11940
485.433	11729.06
485.637	11757.73
485.841	11274.41
486.045	11290.79
486.249	11237.55
486.453	11014.32
486.657	10754.23
486.861	10686.64
487.065	10455.22
487.269	10369.21
487.473	9830.59
487.677	10037.44
487.881	10268.86
488.085	9810.11
488.289	9599.17
488.493	9418.95
488.697	9380.04
488.901	9050.32
489.105	9003.21
489.309	8831.18
489.512	8685.78
489.716	8511.7
489.92	8222.94
490.124	8079.58
490.328	8358.1
490.531	8009.95
490.735	7758.05
490.939	7801.05
491.143	7411.94
491.346	7454.95
491.55	7325.93
491.754	7215.34
491.958	6945
492.161	7047.4
492.365	6897.9
492.569	6613.23
492.772	6652.14
492.976	6713.58
493.18	6553.84
493.383	6643.95
493.587	6351.09
493.79	6301.94
493.994	6154.49
494.197	6023.42
494.401	6072.57
494.605	5912.83
494.808	6078.71
495.012	5998.84
495.215	6015.23
495.419	6013.18
495.622	5736.7
495.825	5785.85
496.029	5654.78
496.232	5783.81
496.436	5671.17
496.639	5921.02
496.843	5628.16
497.046	5540.1
497.249	5818.62
497.453	5716.22
497.656	5613.82
497.859	5521.67
498.063	5691.65
498.266	5675.26
498.469	5523.71
498.673	5671.17
498.876	5781.76
499.079	5691.65
499.282	5603.58
499.485	6029.56
499.689	5955.83
499.892	5933.31
500.095	5843.2
500.298	5882.11
500.501	5912.83
500.705	5966.07
500.908	6154.49
501.111	5994.75
501.314	6125.82
501.517	6295.8
501.72	6140.15
501.923	6250.74
502.126	6377.72
502.329	6559.99
502.532	6506.74
502.735	6664.43
502.938	6803.69
503.141	6711.53
503.344	6691.06
503.547	6996.2
503.75	6883.56
503.953	7022.83
504.156	7190.76
504.359	7217.38
504.562	7233.77
504.765	7481.57
504.968	7706.85
505.17	7712.99
505.373	7721.18
505.576	8138.97
505.779	8104.15
505.982	8161.5
506.185	8272.09
506.387	8610
506.59	8550.61
506.793	8747.22
506.996	8927.44
507.198	9472.2
507.401	9402.57
507.604	9517.25
507.807	9689.28
508.009	9709.76
508.212	10049.72
508.415	10297.53
508.617	10408.12
508.82	10459.32
509.022	10760.37
509.225	10952.88
509.428	11307.18
509.63	11657.38
509.833	11501.73
510.035	12206.24
510.238	12097.69
510.44	12437.66
510.643	12908.69
510.845	12978.32
511.048	13136.01
511.25	13535.37
511.453	13994.11
511.655	14542.97
511.858	14688.37
512.06	14970.99
512.262	15403.11
512.465	15468.65
512.667	15812.71
512.87	16195.68
513.072	16687.19
513.274	16871.51
513.477	17330.25
513.679	17942.6
513.881	18225.22
514.084	18702.39
514.286	18599.99
514.488	19521.58
514.69	19855.4
514.893	20158.5
515.095	20641.82
515.297	20926.49
515.499	21544.97
515.701	21762.06
515.904	22302.72
516.106	22765.56
516.308	23189.49
516.51	23775.21
516.712	24371.17
516.914	24514.53
517.116	25323.47
517.318	25630.67
517.52	26146.76
517.722	26228.68
517.925	27086.78
518.127	27715.5
518.329	28321.7
518.531	28155.82
518.733	29142.94
518.935	29564.82
519.136	29806.48
519.338	30306.18
519.54	30529.41
519.742	31225.72
519.944	31561.59
520.146	32667.49
520.348	32925.53
520.55	33462.1
520.752	33916.75
520.954	34125.64
521.155	34410.31
521.357	34645.83
521.559	35467.06
521.761	36013.87
521.963	35921.71
522.164	36478.76
522.366	36902.69
522.568	37236.51
522.77	37543.7
522.971	37797.65
523.173	37928.72
523.375	38403.85
523.576	38205.2
523.778	38334.22
523.98	38600.46
524.181	39497.47
524.383	39317.25
524.584	39993.08
524.786	39489.27
524.988	39565.05
525.189	39628.54
525.391	40058.61
525.592	39929.59
525.794	39948.02
525.995	39739.13
526.197	40038.13
526.398	40115.95
526.6	39917.3
526.801	39730.94
527.003	39747.32
527.204	39763.7
527.406	39982.84
527.607	39558.91
527.808	39706.36
528.01	38313.74
528.211	38852.36
528.412	39077.63
528.614	39175.94
528.815	38358.8
529.016	38457.1
529.218	37795.6
529.419	37502.75
529.62	37140.25
529.822	36681.51
530.023	36708.13
530.224	36278.06
530.425	36120.37
530.626	35340.09
530.828	35166.01
531.029	35632.95
531.23	34525
531.431	34279.24
531.632	33816.4
531.833	33789.78
532.035	33230.68
532.236	32763.75
532.437	32722.79
532.638	31731.57
532.839	31453.05
533.04	31346.55
533.241	30314.37
533.442	30994.3
533.643	30273.42
533.844	29724.56
534.045	29284.25
534.246	28725.15
534.447	28710.82
534.648	28022.7
534.849	27778.99
535.05	27404.21
535.251	26927.03
535.451	26652.61
535.652	26406.85
535.853	25843.66
536.054	25722.83
536.255	25159.64
536.456	24625.12
536.657	24977.37
536.857	24147.94
537.058	24133.61
537.259	23842.79
537.46	23420.91
537.66	23097.33
537.861	22775.8
538.062	22724.6
538.263	22257.67
538.463	21991.43
538.664	21641.23
538.865	21665.8
539.065	21268.5
539.266	20619.29
539.466	20830.23
539.667	20375.58
539.868	20471.84
540.068	19796.01
540.269	19775.53
540.469	19654.7
540.67	19159.09
540.87	19122.23
541.071	18700.34
541.271	18671.67
541.472	18477.12
541.672	18001.99
541.873	17940.55
542.073	17520.71
542.274	17512.52
542.474	17178.7
542.675	16988.24
542.875	16939.09
543.075	16433.24
543.276	16513.11
543.476	16384.09
543.676	16224.35
543.877	15999.07
544.077	15878.24
544.277	15636.58
544.478	15603.82
544.678	15482.99
544.878	15118.45
545.078	15071.34
545.279	14612.6
545.479	14700.66
545.679	14329.98
545.879	14465.14
546.079	14354.55
546.28	13871.23
546.48	13510.79
546.68	13830.27
546.88	13439.11
547.08	13389.96
547.28	13037.71
547.48	12851.35
547.68	12841.11
547.88	12781.71
548.081	12730.52
548.281	12286.11
548.481	12292.25
548.681	12282.01
548.881	11851.94
549.081	11505.83
549.28	11663.52
549.48	11362.47
549.68	11405.48
549.88	11464.87
550.08	10795.18
550.28	10895.54
550.48	10985.65
550.68	10743.99
550.88	10377.4
551.08	10252.47
551.279	10281.14
551.479	10102.97
551.679	9947.33
551.879	9763.01
552.079	9597.12
552.278	9537.73
552.478	9459.91
552.678	9017.55
552.878	9197.77
553.077	9017.55
553.277	8790.22
553.477	8628.43
553.676	8423.64
553.876	8325.33
554.076	8124.63
554.275	8075.48
554.475	7807.2
554.674	7858.4
554.874	7739.62
555.074	7520.48
555.273	7452.9
555.473	7512.29
555.672	7137.51
555.872	7090.41
556.071	6883.56
556.271	6893.8
556.47	6940.91
556.67	6494.45
556.869	6670.58
557.068	6516.98
557.268	6199.54
557.467	6232.31
557.667	6172.92
557.866	6027.51
558.065	5818.62
558.265	5959.93
558.464	5794.04
558.663	5576.96
558.863	5597.44
559.062	5552.38
559.261	5318.92
559.461	5267.72
559.66	5275.91
559.859	5124.36
560.058	5107.98
560.258	4964.62
560.457	4786.44
560.656	4950.28
560.855	4632.85
561.054	4843.79
561.253	4628.75
561.453	4491.54
561.652	4497.68
561.851	4339.99
562.05	4184.34
562.249	4172.05
562.448	4245.78
562.647	4174.1
562.846	3868.95
563.045	4114.71
563.244	3959.06
563.443	3893.53
563.642	3856.67
563.841	3672.35
564.04	3701.02
564.239	3569.95
564.438	3676.45
564.637	3432.74
564.836	3451.17
565.035	3428.64
565.234	3428.64
565.432	3406.11
565.631	3391.78
565.83	3240.23
566.029	3176.74
566.228	3244.32
566.427	3098.92
566.625	3039.53
566.824	2969.9
567.023	3043.62
567.222	2896.17
567.42	2918.7
567.619	2920.74
567.818	2711.85
568.016	3012.9
568.215	2713.9
568.414	2806.06
568.612	2642.22
568.811	2492.72
569.01	2537.77
569.208	2556.21
569.407	2484.53
569.605	2480.43
569.804	2457.9
570.002	2447.66
570.201	2337.07
570.4	2375.99
570.598	2189.62
570.797	2230.58
570.995	2081.08
571.193	2236.72
571.392	2218.29
571.59	2046.26
571.789	2064.69
571.987	2109.75
572.186	2214.2
572.384	1917.24
572.582	1943.86
572.781	1968.44
572.979	1759.55
573.177	1806.65
573.376	1843.51
573.574	1898.81
573.772	1796.41
573.971	1730.87
574.169	1679.68
574.367	1714.49
574.565	1608
574.763	1634.62
574.962	1542.46
575.16	1521.98
575.358	1517.89
575.556	1601.85
575.754	1595.71
575.952	1403.2
576.151	1524.03
576.349	1405.25
576.547	1311.04
576.745	1343.81
576.943	1460.54
577.141	1321.28
577.339	1360.19
577.537	1341.76
577.735	1382.72
577.933	1304.9
578.131	1208.64
578.329	1323.33
578.527	1225.03
578.725	1315.14
578.923	1110.34
579.121	1220.93
579.319	1026.37
579.516	1059.14
579.714	1239.36
579.912	1139.01
580.11	971.08
580.308	1098.05
580.506	1022.28
580.704	1024.33
580.901	954.69
581.099	1071.43
581.297	1042.76
581.495	938.31
581.692	1012.04
581.89	954.69
582.088	960.84
582.285	831.82
582.483	876.87
582.681	901.45
582.878	860.49
583.076	878.92
583.274	895.3
583.471	993.61
583.669	907.59
583.866	710.99
584.064	788.81
584.262	690.51
584.459	725.32
584.657	717.13
584.854	797
585.052	678.22
585.249	799.05
585.447	797
585.644	575.82
585.841	719.18
586.039	739.66
586.236	813.38
586.434	629.07
586.631	604.49
586.828	469.33
587.026	690.51
587.223	559.44
587.42	606.54
587.618	670.03
587.815	723.27
588.012	629.07
588.21	545.1
588.407	633.16
588.604	629.07
588.801	590.16
588.999	561.48
589.196	614.73
589.393	454.99
589.59	549.2
589.787	545.1
589.984	620.88
590.182	569.68
590.379	594.25
590.576	502.09
590.773	567.63
590.97	563.53
591.167	596.3
591.364	495.95
591.561	518.48
591.758	678.22
591.955	567.63
592.152	465.23
592.349	444.75
592.546	469.33
592.743	495.95
592.94	606.54
593.137	498
593.334	655.69
593.531	502.09
593.727	522.57
593.924	452.94
594.121	567.63
594.318	387.41
594.515	481.61
594.712	596.3
594.908	672.08
595.105	487.76
595.302	536.91
595.499	473.42
595.696	725.32
595.892	551.24
596.089	633.16
596.286	448.85
596.482	620.88
596.679	579.92
596.876	667.98
597.072	706.89
597.269	688.46
597.466	686.41
597.662	702.79
597.859	631.12
598.055	710.99
598.252	723.27
598.448	727.37
598.645	821.58
598.841	842.06
599.038	993.61
599.234	1130.82
599.431	907.59
599.627	973.13
599.824	1048.9
600.02	995.65
600.217	921.93
600.413	983.37
600.609	1204.55
600.806	1268.03
601.002	1231.17
601.198	1239.36
601.395	1333.57
601.591	1321.28
601.787	1435.97
601.984	1390.91
602.18	1571.13
602.376	1587.52
602.572	1483.07
602.769	1763.64
602.965	1671.48
603.161	1833.27
603.357	1904.95
603.553	1995.06
603.75	1925.43
603.946	1976.63
604.142	2140.47
604.338	2308.4
604.534	2183.48
604.73	2287.92
604.926	2335.03
605.122	2451.76
605.318	2566.45
605.514	2646.32
605.71	2631.98
605.906	2826.54
606.102	2775.34
606.298	2951.46
606.494	3229.99
606.69	3170.6
606.886	3205.41
607.082	3316
607.278	3455.26
607.474	3494.18
607.67	3535.14
607.866	3451.17
608.062	3909.91
608.257	3897.63
608.453	3893.53
608.649	4215.06
608.845	4040.98
609.041	4346.13
609.236	4442.39
609.432	4489.49
609.628	4768.01
609.824	4931.85
610.019	4917.51
610.215	5153.03
610.411	5234.95
610.606	5374.21
610.802	5425.41
610.998	5644.54
611.193	5744.89
611.389	5796.09
611.584	5937.4
611.78	6142.2
611.976	6301.94
612.171	6807.79
612.367	6719.73
612.562	6908.14
612.758	7026.92
612.953	7057.64
613.149	7346.41
613.344	7536.87
613.539	7624.93
613.735	7831.77
613.93	8261.85
614.126	8220.89
614.321	8640.72
614.517	8702.16
614.712	9095.37
614.907	9464
615.103	9552.07
615.298	9840.83
615.493	9963.71
615.688	10047.68
615.884	11018.41
616.079	10590.39
616.274	10985.65
616.47	11081.9
616.665	11806.88
616.86	11831.46
617.055	12050.59
617.25	12396.7
617.445	12841.11
617.641	13025.42
617.836	13387.91
618.031	13688.96
618.226	13942.91
618.421	14106.75
618.616	14702.71
618.811	15198.32
619.006	15335.53
619.201	15331.44
619.396	16103.52
619.591	16179.29
619.786	16799.83
619.981	16990.29
620.176	17518.67
620.371	17733.7
620.566	18116.67
620.761	18487.36
620.956	18950.2
621.151	19111.99
621.346	19900.45
621.541	19652.65
621.735	20578.33
621.93	20523.04
622.125	20955.16
622.32	21454.86
622.515	21897.22
622.709	22261.76
622.904	22702.07
623.099	22964.21
623.294	23648.24
623.488	23877.61
623.683	24250.34
623.878	24471.52
624.072	25169.88
624.267	25339.86
624.462	25831.37
624.656	26058.7
624.851	26967.99
625.046	26945.47
625.24	27522.99
625.435	27676.59
625.629	28108.71
625.824	28374.95
626.018	28587.94
626.213	28729.25
626.407	29591.44
626.602	29482.9
626.796	30302.09
626.991	30635.91
627.185	30795.65
627.38	30721.92
627.574	30852.99
627.768	31016.83
627.963	31244.15
628.157	31348.6
628.352	31870.83
628.546	31162.23
628.74	31752.05
628.935	31360.89
629.129	31723.38
629.323	31379.32
629.517	31524.72
629.712	31104.89
629.906	31143.8
630.1	30658.43
630.294	30474.12
630.489	30183.3
630.683	30353.29
630.877	29093.79
631.071	28598.18
631.265	28655.52
631.459	28198.82
631.653	27410.36
631.848	27160.5
632.042	26142.66
632.236	25991.11
632.43	25069.53
632.624	24481.76
632.818	23613.42
633.012	22941.69
633.206	22255.62
633.4	21643.28
633.594	20652.06
633.788	20330.53
633.982	19703.85
634.176	18851.89
634.369	18485.31
634.563	17832.01
634.757	17033.3
634.951	16300.12
635.145	15861.86
635.339	15044.72
635.533	14454.9
635.726	14151.81
635.92	13207.69
636.114	12904.59
636.308	12322.97
636.501	11856.03
636.695	11491.49
636.889	10752.18
637.083	10531
637.276	9793.73
637.47	9459.91
637.664	9269.45
637.857	8696.02
638.051	8566.99
638.244	7995.61
638.438	7827.68
638.632	7473.38
638.825	7157.99
639.019	6914.28
639.212	6596.85
639.406	6383.86
639.599	5972.22
639.793	5990.65
639.986	5687.55
640.18	5349.64
640.373	5218.57
640.567	4978.95
640.76	4970.76
640.954	4770.06
641.147	4319.51
641.34	4266.26
641.534	4256.02
641.727	3995.93
641.92	3782.94
642.114	3739.93
642.307	3629.34
642.5	3504.42
642.694	3125.54
642.887	3229.99
643.08	3197.22
643.273	2949.42
643.467	2834.73
643.66	2832.68
643.853	2609.45
644.046	2672.94
644.239	2330.93
644.432	2306.35
644.626	2124.08
644.819	2179.38
645.012	2113.85
645.205	2083.13
645.398	1982.78
645.591	1896.76
645.784	1759.55
645.977	1640.76
646.17	1665.34
646.363	1665.34
646.556	1476.93
646.749	1442.11
646.942	1411.39
647.135	1472.83
647.328	1263.94
647.521	1216.83
647.714	1222.98
647.907	1270.08
648.099	1143.11
648.292	1165.64
648.485	1067.33
648.678	1003.85
648.871	966.98
649.064	964.93
649.256	780.62
649.449	930.12
649.642	708.94
649.835	756.04
650.027	719.18
650.22	780.62
650.413	770.38
650.605	698.7
650.798	661.84
650.991	592.2
651.183	620.88
651.376	541.01
651.568	596.3
651.761	514.38
651.954	581.96
652.146	520.53
652.339	510.29
652.531	612.68
652.724	436.56
652.916	491.85
653.109	473.42
653.301	457.04
653.494	416.08
653.686	442.7
653.879	489.81
654.071	434.51
654.263	356.69
654.456	373.07
654.648	467.28
654.84	434.51
655.033	252.24
655.225	416.08
655.417	215.38
655.61	442.7
655.802	434.51
655.994	418.13
656.186	231.76
656.379	354.64
656.571	250.19
656.763	256.34
656.955	244.05
657.148	266.58
657.34	342.35
657.532	213.33
657.724	211.28
657.916	309.58
658.108	280.91
658.3	254.29
658.492	268.63
658.684	164.18
658.876	268.63
659.068	141.65
659.26	145.75
659.452	170.32
659.644	221.52
659.836	319.82
660.028	194.9
660.22	149.84
660.412	168.27
660.604	215.38
660.796	178.51
660.988	237.91
661.18	162.13
661.372	198.99
661.563	153.94
661.755	219.47
661.947	115.03
662.139	100.69
662.331	207.19
662.522	153.94
662.714	106.84
662.906	102.74
663.097	123.22
663.289	49.49
663.481	-18.09
663.673	233.81
663.864	155.99
664.056	194.9
664.247	82.26
664.439	166.23
664.631	178.51
664.822	196.95
665.014	112.98
665.205	49.49
665.397	84.31
665.588	127.32
665.78	117.08
665.971	248.15
666.163	26.96
666.354	180.56
666.546	55.64
666.737	67.92
666.929	117.08
667.12	155.99
667.311	160.08
667.503	51.54
667.694	153.94
667.885	117.08
668.077	176.47
668.268	39.25
668.459	80.21
668.651	186.71
668.842	96.6
669.033	88.4
669.224	117.08
669.416	223.57
669.607	110.93
669.798	33.11
669.989	182.61
670.18	158.03
670.371	192.85
670.563	102.74
670.754	205.14
670.945	67.92
671.136	112.98
671.327	41.3
671.518	139.6
671.709	194.9
671.9	137.56
672.091	233.81
672.282	10.58
672.473	125.27
672.664	72.02
672.855	155.99
673.046	143.7
673.237	102.74
673.428	82.26
673.619	178.51
673.809	51.54
674	239.95
674.191	231.76
674.382	121.17
674.573	29.01
674.764	117.08
674.954	223.57
675.145	37.2
675.336	102.74
675.527	133.46
675.717	80.21
675.908	92.5
676.099	76.12
676.289	178.51
676.48	-5.8
676.671	127.32
676.861	100.69
677.052	164.18
677.243	119.12
677.433	96.6
677.624	215.38
677.814	213.33
678.005	162.13
678.195	143.7
678.386	166.23
678.576	129.36
678.767	51.54
678.957	72.02
679.148	190.8
679.338	211.28
679.529	172.37
679.719	135.51
679.909	184.66
680.1	186.71
680.29	233.81
680.481	12.63
680.671	266.58
680.861	207.19
681.052	172.37
681.242	119.12
681.432	82.26
681.622	59.73
681.813	137.56
682.003	96.6
682.193	147.8
682.383	155.99
682.573	203.09
682.764	147.8
682.954	178.51
683.144	201.04
683.334	133.46
683.524	207.19
683.714	209.23
683.904	190.8
684.094	119.12
684.284	129.36
684.474	252.24
684.664	272.72
684.854	178.51
685.044	141.65
685.234	207.19
685.424	135.51
685.614	182.61
685.804	198.99
685.994	176.47
686.184	203.09
686.374	211.28
686.564	278.87
686.753	106.84
686.943	72.02
687.133	102.74
687.323	192.85
687.513	158.03
687.702	209.23
687.892	112.98
688.082	266.58
688.272	239.95
688.461	221.52
688.651	223.57
688.841	227.67
689.03	137.56
689.22	164.18
689.41	166.23
689.599	217.43
689.789	119.12
689.979	272.72
690.168	145.75
690.358	272.72
690.547	201.04
690.737	235.86
690.926	194.9
691.116	139.6
691.305	262.48
691.495	182.61
691.684	149.84
691.874	82.26
692.063	166.23
692.252	215.38
692.442	117.08
692.631	158.03
692.82	139.6
693.01	182.61
693.199	149.84
693.388	166.23
693.578	217.43
693.767	260.43
693.956	121.17
694.146	160.08
694.335	127.32
694.524	127.32
694.713	221.52
694.902	141.65
695.092	133.46
695.281	215.38
695.47	149.84
695.659	139.6
695.848	117.08
696.037	180.56
696.226	174.42
696.415	125.27
696.604	239.95
696.793	192.85
696.982	184.66
697.171	127.32
697.36	96.6
697.549	274.77
697.738	59.73
697.927	190.8
698.116	106.84
698.305	194.9
698.494	192.85
698.683	153.94
698.872	323.92
699.061	174.42
699.25	168.27
699.438	133.46
699.627	133.46
699.816	301.39
700.005	115.03
700.193	123.22
700.382	180.56
700.571	149.84
700.76	166.23
700.948	260.43
701.137	147.8
701.326	102.74
701.514	26.96
701.703	213.33
701.892	203.09
702.08	375.12
702.269	170.32
702.457	96.6
702.646	221.52
702.834	160.08
703.023	213.33
703.212	248.15
703.4	129.36
703.589	149.84
703.777	143.7
703.965	63.83
704.154	147.8
704.342	76.12
704.531	151.89
704.719	121.17
704.907	174.42
705.096	149.84
705.284	31.06
705.472	174.42
705.661	227.67
705.849	215.38
706.037	162.13
706.226	141.65
706.414	149.84
706.602	100.69
706.79	213.33
706.979	119.12
707.167	174.42
707.355	96.6
707.543	172.37
707.731	235.86
707.919	123.22
708.107	172.37
708.296	80.21
708.484	155.99
708.672	112.98
708.86	158.03
709.048	170.32
709.236	82.26
709.424	237.91
709.612	186.71
709.8	90.45
709.988	100.69
710.176	280.91
710.364	176.47
710.551	149.84
710.739	182.61
710.927	69.97
711.115	115.03
711.303	229.71
711.491	256.34
711.679	121.17
711.866	248.15
712.054	94.55
712.242	180.56
712.43	182.61
712.617	133.46
712.805	190.8
712.993	96.6
713.181	72.02
713.368	178.51
713.556	196.95
713.744	205.14
713.931	293.2
714.119	192.85
714.306	92.5
714.494	94.55
714.682	155.99
714.869	117.08
715.057	135.51
715.244	41.3
715.432	127.32
715.619	188.75
715.807	153.94
715.994	92.5
716.182	211.28
716.369	194.9
716.556	250.19
716.744	98.64
716.931	127.32
717.119	166.23
717.306	182.61
717.493	145.75
717.681	155.99
717.868	217.43
718.055	164.18
718.242	223.57
718.43	201.04
718.617	289.1
718.804	225.62
718.991	307.54
719.179	164.18
719.366	129.36
719.553	188.75
719.74	164.18
719.927	121.17
720.114	172.37
720.301	166.23
720.488	153.94
720.676	149.84
720.863	274.77
721.05	330.06
721.237	178.51
721.424	289.1
721.611	235.86
721.798	90.45
721.985	90.45
722.172	198.99
722.358	235.86
722.545	211.28
722.732	248.15
722.919	252.24
723.106	207.19
723.293	338.26
723.48	182.61
723.667	90.45
723.853	309.58
724.04	268.63
724.227	250.19
724.414	186.71
724.6	278.87
724.787	373.07
724.974	332.11
725.161	219.47
725.347	141.65
725.534	205.14
725.72	256.34
725.907	342.35
726.094	293.2
726.28	125.27
726.467	211.28
726.653	131.41
726.84	387.41
727.027	299.34
727.213	274.77
727.4	235.86
727.586	239.95
727.773	205.14
727.959	260.43
728.145	207.19
728.332	237.91
728.518	127.32
728.705	215.38
728.891	239.95
729.077	258.39
729.264	217.43
729.45	205.14
729.636	242
729.823	250.19
730.009	315.73
730.195	219.47
730.382	297.3
730.568	203.09
730.754	280.91
730.94	319.82
731.126	282.96
731.313	258.39
731.499	272.72
731.685	256.34
731.871	233.81
732.057	287.06
732.243	225.62
732.429	248.15
732.615	323.92
732.801	305.49
732.987	203.09
733.173	205.14
733.359	180.56
733.545	248.15
733.731	305.49
733.917	354.64
734.103	215.38
734.289	282.96
734.475	262.48
734.661	444.75
734.847	254.29
735.033	282.96
735.219	317.78
735.404	282.96
735.59	182.61
735.776	256.34
735.962	291.15
736.148	276.82
736.333	334.16
736.519	317.78
736.705	198.99
736.89	227.67
737.076	168.27
737.262	229.71
737.447	235.86
737.633	346.45
737.819	258.39
738.004	297.3
738.19	301.39
738.375	258.39
738.561	323.92
738.747	237.91
738.932	270.67
739.118	364.88
739.303	311.63
739.489	395.6
739.674	323.92
739.859	166.23
740.045	272.72
740.23	278.87
740.416	151.89
740.601	321.87
740.786	276.82
740.972	295.25
741.157	293.2
741.342	196.95
741.528	194.9
741.713	268.63
741.898	262.48
742.084	254.29
742.269	293.2
742.454	303.44
742.639	321.87
742.824	270.67
743.01	340.3
743.195	340.3
743.38	260.43
743.565	203.09
743.75	301.39
743.935	323.92
744.12	414.03
744.305	180.56
744.49	332.11
744.675	280.91
744.86	213.33
745.045	256.34
745.23	280.91
745.415	233.81
745.6	411.98
745.785	194.9
745.97	340.3
746.155	276.82
746.34	381.26
746.525	321.87
746.71	352.59
746.895	207.19
747.079	172.37
747.264	305.49
747.449	266.58
747.634	387.41
747.819	211.28
748.003	260.43
748.188	239.95
748.373	272.72
748.557	227.67
748.742	237.91
748.927	164.18
749.111	221.52
749.296	266.58
749.481	301.39
749.665	176.47
749.85	201.04
750.034	319.82
750.219	211.28
750.404	151.89
750.588	207.19
750.773	223.57
750.957	147.8
751.141	149.84
751.326	219.47
751.51	106.84
751.695	135.51
751.879	231.76
752.064	262.48
752.248	219.47
752.432	334.16
752.617	307.54
752.801	242
752.985	217.43
753.17	299.34
753.354	244.05
753.538	211.28
753.722	248.15
753.907	121.17
754.091	67.92
754.275	190.8
754.459	102.74
754.643	149.84
754.828	194.9
755.012	221.52
755.196	155.99
755.38	129.36
755.564	174.42
755.748	201.04
755.932	164.18
756.116	213.33
756.3	242
756.484	166.23
756.668	239.95
756.852	57.68
757.036	65.88
757.22	217.43
757.404	112.98
757.588	203.09
757.772	170.32
757.956	86.36
758.14	332.11
758.323	182.61
758.507	186.71
758.691	180.56
758.875	198.99
759.059	250.19
759.242	92.5
759.426	164.18
759.61	256.34
759.794	31.06
759.977	176.47
760.161	387.41
760.345	186.71
760.528	272.72
760.712	166.23
760.895	110.93
761.079	139.6
761.263	76.12
761.446	123.22
761.63	158.03
761.813	211.28
761.997	65.88
762.18	139.6
762.364	125.27
762.547	49.49
762.731	180.56
762.914	86.36
763.098	139.6
763.281	176.47
763.464	84.31
763.648	184.66
763.831	149.84
764.015	92.5
764.198	162.13
764.381	41.3
764.564	166.23
764.748	184.66
764.931	151.89
765.114	100.69
765.297	141.65
765.481	90.45
765.664	112.98
765.847	106.84
766.03	215.38
766.213	41.3
766.397	74.07
766.58	-5.8
766.763	176.47
766.946	108.88
767.129	162.13
767.312	92.5
767.495	108.88
767.678	108.88
767.861	153.94
768.044	88.4
768.227	-5.8
768.41	115.03
768.593	63.83
768.776	196.95
768.959	137.56
769.142	198.99
769.324	61.78
769.507	43.35
769.69	65.88
769.873	108.88
770.056	305.49
770.239	84.31
770.421	248.15
770.604	98.64
770.787	63.83
770.97	80.21
771.152	43.35
771.335	139.6
771.518	41.3
771.7	174.42
771.883	164.18
772.066	76.12
772.248	121.17
772.431	205.14
772.613	106.84
772.796	129.36
772.978	225.62
773.161	137.56
773.343	63.83
773.526	117.08
773.708	51.54
773.891	18.77
774.073	123.22
774.256	35.16
774.438	198.99
774.621	43.35
774.803	43.35
774.985	20.82
775.168	196.95
775.35	0.34
775.532	127.32
775.715	41.3
775.897	131.41
776.079	65.88
776.261	117.08
776.444	94.55
776.626	106.84
776.808	67.92
776.99	29.01
777.173	104.79
777.355	137.56
777.537	47.44
777.719	74.07
777.901	90.45
778.083	67.92
778.265	39.25
778.447	84.31
778.629	72.02
778.811	127.32
778.993	100.69
779.175	139.6
779.357	127.32
779.539	-44.71
779.721	125.27
779.903	104.79
780.085	76.12
780.267	112.98
780.449	112.98
780.631	72.02
780.812	149.84
780.994	14.68
781.176	59.73
781.358	33.11
781.54	123.22
781.721	90.45
781.903	112.98
782.085	35.16
782.267	80.21
782.448	-57
782.63	-18.09
782.812	67.92
782.993	41.3
783.175	12.63
783.357	41.3
783.538	201.04
783.72	18.77
783.901	110.93
784.083	59.73
784.264	-13.99
784.446	-32.43
784.627	-61.1
784.809	78.16
784.99	59.73
785.172	92.5
785.353	41.3
785.535	106.84
785.716	8.53
785.897	16.73
786.079	78.16
786.26	55.64
786.441	88.4
786.623	-73.39
786.804	-9.9
786.985	29.01
787.167	57.68
787.348	76.12
787.529	24.92
787.71	131.41
787.891	65.88
788.073	-16.04
788.254	-57
788.435	170.32
788.616	104.79
788.797	-22.19
788.978	98.64
789.159	112.98
789.34	41.3
789.522	51.54
789.703	8.53
789.884	43.35
790.065	121.17
790.246	158.03
790.427	80.21
790.607	90.45
790.788	131.41
790.969	0.34
791.15	51.54
791.331	20.82
791.512	49.49
791.693	-7.85
791.874	18.77
792.054	207.19
792.235	110.93
792.416	-22.19
792.597	14.68
792.778	16.73
792.958	55.64
793.139	112.98
793.32	80.21
793.5	-11.95
793.681	24.92
793.862	49.49
794.042	-38.57
794.223	-59.05
794.404	14.68
794.584	-30.38
794.765	0.34
794.945	69.97
795.126	59.73
795.306	121.17
795.487	94.55
795.667	10.58
795.848	43.35
796.028	43.35
796.209	33.11
796.389	96.6
796.57	49.49
796.75	-42.67
796.93	-16.04
797.111	-22.19
797.291	22.87
797.471	141.65
797.652	117.08
797.832	-20.14
798.012	55.64
798.192	63.83
798.373	-26.28
798.553	-46.76
798.733	51.54
798.913	8.53
799.093	2.39
799.274	98.64
799.454	180.56
799.634	55.64
799.814	-16.04
799.994	4.44
800.174	31.06
800.354	-16.04
800.534	-32.43
800.714	10.58
800.894	-9.9
801.074	-52.91
801.254	-42.67
801.434	90.45
801.614	-16.04
801.794	-32.43
801.974	1706.3
802.154	-9.9
802.334	33.11
802.514	-59.05
802.693	-18.09
802.873	-18.09
803.053	90.45
803.233	53.59
803.413	-50.86
803.592	49.49
803.772	-36.52
803.952	57.68
804.131	-48.81
804.311	55.64
804.491	76.12
804.67	-40.62
804.85	-34.47
805.03	6.49
805.209	98.64
805.389	69.97
805.568	65.88
805.748	-22.19
805.928	-9.9
806.107	8.53
806.287	53.59
806.466	43.35
806.646	53.59
806.825	-30.38
807.004	6.49
807.184	117.08
807.363	10.58
807.543	59.73
807.722	-11.95
807.901	51.54
808.081	24.92
808.26	-169.64
808.439	26.96
808.619	16.73
808.798	18.77
808.977	10.58
809.156	145.75
809.336	2.39
809.515	63.83
809.694	8.53
809.873	-38.57
810.052	49.49
810.231	141.65
810.411	24.92
810.59	69.97
810.769	2.39
810.948	55.64
811.127	-34.47
811.306	-13.99
811.485	45.4
811.664	121.17
811.843	-24.23
812.022	61.78
812.201	20.82
812.38	-38.57
812.559	-28.33
812.737	90.45
812.916	-5.8
813.095	2.39
813.274	41.3
813.453	-16.04
813.632	119.12
813.811	96.6
813.989	35.16
814.168	63.83
814.347	-59.05
814.526	33.11
814.704	41.3
814.883	67.92
815.062	-140.97
815.24	63.83
815.419	-69.29
815.598	-5.8
815.776	-85.67
815.955	18.77
816.133	-106.15
816.312	-9.9
816.49	26.96
816.669	-9.9
816.847	-30.38
817.026	14.68
817.204	43.35
817.383	-50.86
817.561	-77.48
817.74	26.96
817.918	20.82
818.097	-7.85
818.275	-73.39
818.453	18.77
818.632	-16.04
818.81	0.34
818.988	-65.19
819.167	-63.15
819.345	10.58
819.523	2.39
819.701	-1.71
819.879	-7.85
820.058	29.01
820.236	-26.28
820.414	-52.91
820.592	-85.67
820.77	2.39
820.948	-7.85
821.127	2.39
821.305	-1.71
821.483	-50.86
821.661	119.12
821.839	33.11
822.017	-48.81
822.195	-40.62
822.373	125.27
822.551	-3.75
822.729	69.97
822.907	-46.76
823.085	-42.67
823.262	59.73
823.44	6.49
823.618	-22.19
823.796	29.01
823.974	10.58
824.152	-1.71
824.329	18.77
824.507	45.4
824.685	24.92
824.863	-46.76
825.04	-16.04
825.218	49.49
825.396	92.5
825.574	-42.67
825.751	-9.9
825.929	-1.71
826.107	-42.67
826.284	51.54
826.462	43.35
826.639	-7.85
826.817	-63.15
826.994	-18.09
827.172	-97.96
827.349	96.6
827.527	26.96
827.704	-36.52
827.882	92.5
828.059	12.63
828.237	-26.28
828.414	-5.8
828.591	-46.76
828.769	55.64
828.946	6.49
829.124	88.4
829.301	129.36
829.478	-3.75
829.655	20.82
829.833	53.59
830.01	-75.43
830.187	0.34
830.364	2.39
830.542	57.68
830.719	94.55
830.896	33.11
831.073	37.2
831.25	-13.99
831.427	139.6
831.604	131.41
831.782	-50.86
831.959	-34.47
832.136	20.82
832.313	43.35
832.49	-1.71
832.667	0.34
832.844	-13.99
833.021	67.92
833.198	86.36
833.374	43.35
833.551	-42.67
833.728	24.92
833.905	33.11
834.082	-100.01
834.259	-38.57
834.436	121.17
834.612	-22.19
834.789	67.92
834.966	59.73
835.143	43.35
835.319	-52.91
835.496	-34.47
835.673	74.07
835.85	72.02
836.026	100.69
836.203	59.73
836.38	8.53
836.556	-38.57
836.733	-18.09
836.909	104.79
837.086	-34.47
837.262	-89.77
837.439	-44.71
837.616	31.06
837.792	-22.19
837.968	45.4
838.145	-63.15
838.321	39.25
838.498	26.96
838.674	121.17
838.851	16.73
839.027	-22.19
839.203	53.59
839.38	-24.23
839.556	6.49
839.732	45.4
839.909	14.68
840.085	0.34
840.261	-18.09
840.437	14.68
840.614	-42.67
840.79	18.77
840.966	59.73
841.142	-73.39
841.318	18.77
841.494	10.58
841.671	22.87
841.847	-95.91
842.023	-24.23
842.199	98.64
842.375	96.6
842.551	-81.58
842.727	-108.2
842.903	115.03
843.079	-7.85
843.255	65.88
843.431	-48.81
843.607	110.93
843.783	-87.72
843.959	47.44
844.134	10.58
844.31	125.27
844.486	-50.86
844.662	31.06
844.838	-3.75
845.013	2.39
845.189	117.08
845.365	26.96
845.541	12.63
845.716	-57
845.892	63.83
846.068	0.34
846.244	-114.34
846.419	-42.67
846.595	-91.82
846.77	-50.86
846.946	43.35
847.122	-24.23
847.297	-20.14
847.473	129.36
847.648	-100.01
847.824	-18.09
847.999	-104.11
848.175	14.68
848.35	31.06
848.526	129.36
848.701	110.93
848.876	18.77
849.052	57.68
849.227	-87.72
849.403	-28.33
849.578	18.77
849.753	-24.23
849.929	8.53
850.104	-22.19
850.279	0.34
850.454	-22.19
850.63	-24.23
850.805	6.49
850.98	-20.14
851.155	-11.95
851.33	0.34
851.505	-22.19
851.681	41.3
851.856	-112.3
852.031	61.78
852.206	4.44
852.381	-63.15
852.556	8.53
852.731	43.35
852.906	6.49
853.081	22.87
853.256	145.75
853.431	-32.43
853.606	-40.62
853.781	-67.24
853.956	-93.87
854.131	49.49
854.305	-1.71
854.48	-83.63
854.655	-22.19
854.83	-83.63
855.005	-26.28
855.18	49.49
855.354	-48.81
855.529	51.54
855.704	74.07
855.879	57.68
856.053	12.63
856.228	131.41
856.403	-46.76
856.577	-22.19
856.752	-48.81
856.926	-36.52
857.101	76.12
857.276	-48.81
857.45	35.16
857.625	74.07
857.799	-11.95
857.974	47.44
858.148	-65.19
858.323	-36.52
858.497	26.96
858.672	-48.81
858.846	-42.67
859.02	65.88
859.195	-112.3
859.369	-67.24
859.543	-46.76
859.718	33.11
859.892	35.16
860.066	24.92
860.241	4.44
860.415	-24.23
860.589	-7.85
860.763	43.35
860.938	0.34
861.112	39.25
861.286	-11.95
861.46	-11.95
861.634	8.53
861.808	129.36
861.982	18.77
862.157	-159.4
862.331	-18.09
862.505	-57
862.679	-32.43
862.853	2.39
863.027	-22.19
863.201	102.74
863.375	-22.19
863.549	31.06
863.722	-32.43
863.896	84.31
864.07	-153.26
864.244	-28.33
864.418	76.12
864.592	-30.38
864.766	76.12
864.939	59.73
865.113	-40.62
865.287	6.49
865.461	-57
865.634	43.35
865.808	14.68
865.982	-5.8
866.156	-26.28
866.329	-97.96
866.503	4.44
866.676	39.25
866.85	-22.19
867.024	-63.15
867.197	49.49
867.371	41.3
867.544	-5.8
867.718	-122.54
867.891	92.5
868.065	-114.34
868.238	26.96
868.412	55.64
868.585	-7.85
868.759	-63.15
868.932	-83.63
869.105	-77.48
869.279	57.68
869.452	-95.91
869.625	76.12
869.799	-63.15
869.972	-73.39
870.145	-9.9
870.319	65.88
870.492	-63.15
870.665	-5.8
870.838	-9.9
871.011	-83.63
871.185	26.96
871.358	-16.04
871.531	22.87
871.704	-87.72
871.877	16.73
872.05	-81.58
872.223	-38.57
872.396	33.11
872.569	63.83
872.742	-9.9
872.915	-9.9
873.088	-5.8
873.261	-71.34
873.434	-34.47
873.607	-24.23
873.78	96.6
873.953	-75.43
874.126	-26.28
874.299	10.58
874.471	-48.81
874.644	-36.52
874.817	-13.99
874.99	145.75
875.163	-13.99
875.335	10.58
875.508	4.44
875.681	-40.62
875.853	-63.15
876.026	-61.1
876.199	51.54
876.371	-5.8
876.544	-3.75
876.717	-50.86
876.889	2.39
877.062	74.07
877.234	-9.9
877.407	-46.76
877.579	41.3
877.752	76.12
877.924	78.16
878.097	-22.19
878.269	59.73
878.442	33.11
878.614	-26.28
878.786	-48.81
878.959	47.44
879.131	-11.95
879.303	-30.38
879.476	39.25
879.648	76.12
879.82	-22.19
879.993	-26.28
880.165	-30.38
880.337	-44.71
880.509	-50.86
880.681	-130.73
880.854	-24.23
881.026	45.4
881.198	76.12
881.37	31.06
881.542	12.63
881.714	22.87
881.886	18.77
882.058	26.96
882.23	-32.43
882.402	0.34
882.574	22.87
882.746	16.73
882.918	51.54
883.09	49.49
883.262	14.68
883.434	78.16
883.606	-124.58
883.778	-3.75
883.95	57.68
884.122	-73.39
884.293	49.49
884.465	-38.57
884.637	8.53
884.809	45.4
884.98	76.12
885.152	43.35
885.324	16.73
885.496	-18.09
885.667	-87.72
885.839	-83.63
886.011	10.58
886.182	98.64
886.354	55.64
886.525	2.39
886.697	76.12
886.869	-54.95
887.04	-38.57
887.212	43.35
887.383	139.6
887.555	-50.86
887.726	37.2
887.897	-30.38
888.069	-32.43
888.24	41.3
888.412	-59.05
888.583	-81.58
888.754	-91.82
888.926	-138.92
889.097	-83.63
889.268	-91.82
889.44	16.73
889.611	-79.53
889.782	-63.15
889.953	-73.39
890.125	98.64
890.296	-63.15
890.467	-32.43
890.638	-38.57
890.809	39.25
890.98	2.39
891.151	33.11
891.323	45.4
891.494	-42.67
891.665	-59.05
891.836	-34.47
892.007	-7.85
892.178	41.3
892.349	-18.09
892.52	-13.99
892.691	2.39
892.862	-18.09
893.032	-16.04
893.203	4.44
893.374	-7.85
893.545	117.08
893.716	-22.19
893.887	-5.8
894.057	-36.52
894.228	10.58
894.399	16.73
894.57	45.4
894.74	18.77
894.911	29.01
895.082	-18.09
895.253	-75.43
895.423	-50.86
895.594	72.02
895.764	39.25
895.935	-126.63
896.106	-65.19
896.276	16.73
896.447	67.92
896.617	-79.53
896.788	-79.53
896.958	-30.38
897.129	-36.52
897.299	-77.48
897.47	41.3
897.64	45.4
897.81	-34.47
897.981	-1.71
898.151	-79.53
898.322	29.01
898.492	35.16
898.662	-108.2
898.832	14.68
899.003	-83.63
899.173	26.96
899.343	-32.43
899.513	-7.85
