Data from USB4F104151__42__10-25-03-036.txt Node

Date: Wed Feb 26 10:25:03 EST 2025
User: louis
Spectrometer: USB4F10415
Trigger mode: 4
Integration Time (sec): 1.000000E-1
Scans to average: 1
Electric dark correction enabled: true
Nonlinearity correction enabled: false
Boxcar width: 0
XAxis mode: Wavelengths
Number of Pixels in Spectrum: 3648
>>>>>Begin Spectral Data<<<<<
178.204	-353.79
178.424	-353.79
178.644	-353.79
178.864	-413.18
179.084	-333.31
179.304	6.66
179.524	-50.69
179.744	-15.87
179.964	35.33
180.184	59.9
180.404	18.94
180.624	31.23
180.844	-3.58
181.064	-48.64
181.283	-11.78
181.503	-48.64
181.723	27.14
181.943	-83.45
182.163	221.69
182.383	-56.83
182.602	121.34
182.822	201.21
183.042	84.48
183.262	-7.68
183.482	59.9
183.701	68.09
183.921	47.62
184.141	-34.3
184.361	82.43
184.58	59.9
184.8	37.38
185.02	-19.97
185.239	147.97
185.459	53.76
185.679	119.29
185.898	-28.16
186.118	31.23
186.338	25.09
186.557	111.1
186.777	-36.35
186.997	55.81
187.216	27.14
187.436	225.79
187.655	27.14
187.875	94.72
188.095	14.85
188.314	102.91
188.534	107.01
188.753	-99.84
188.973	33.28
189.192	92.67
189.412	27.14
189.631	35.33
189.851	72.19
190.07	141.82
190.29	-62.98
190.509	33.28
190.729	23.04
190.948	197.12
191.168	297.47
191.387	33.28
191.607	8.7
191.826	104.96
192.045	-15.87
192.265	25.09
192.484	43.52
192.704	39.42
192.923	-69.12
193.142	135.68
193.362	94.72
193.581	174.59
193.8	41.47
194.02	143.87
194.239	31.23
194.458	80.38
194.678	4.61
194.897	-7.68
195.116	86.53
195.335	47.62
195.555	104.96
195.774	29.18
195.993	102.91
196.212	14.85
196.432	-30.21
196.651	8.7
196.87	94.72
197.089	225.79
197.308	88.57
197.528	51.71
197.747	-1.54
197.966	107.01
198.185	158.21
198.404	-46.59
198.623	115.2
198.842	104.96
199.062	96.77
199.281	92.67
199.5	45.57
199.719	147.97
199.938	139.77
200.157	68.09
200.376	117.25
200.595	53.76
200.814	98.81
201.033	4.61
201.252	178.69
201.471	127.49
201.69	92.67
201.909	-26.11
202.128	41.47
202.347	111.1
202.566	107.01
202.785	-42.5
203.004	-95.74
203.223	291.32
203.442	29.18
203.661	-44.54
203.879	45.57
204.098	84.48
204.317	-38.4
204.536	143.87
204.755	90.62
204.974	64
205.193	-3.58
205.411	98.81
205.63	156.16
205.849	86.53
206.068	29.18
206.287	20.99
206.505	131.58
206.724	39.42
206.943	27.14
207.162	23.04
207.381	102.91
207.599	59.9
207.818	18.94
208.037	-15.87
208.255	41.47
208.474	25.09
208.693	-15.87
208.911	4.61
209.13	80.38
209.349	111.1
209.567	121.34
209.786	49.66
210.005	98.81
210.223	115.2
210.442	-151.04
210.661	49.66
210.879	-28.16
211.098	16.9
211.316	16.9
211.535	137.73
211.753	0.51
211.972	119.29
212.191	12.8
212.409	27.14
212.628	102.91
212.846	-15.87
213.065	64
213.283	84.48
213.502	35.33
213.72	66.05
213.938	33.28
214.157	43.52
214.375	174.59
214.594	10.75
214.812	127.49
215.031	12.8
215.249	25.09
215.467	49.66
215.686	61.95
215.904	23.04
216.122	150.01
216.341	92.67
216.559	90.62
216.778	41.47
216.996	84.48
217.214	-60.93
217.432	8.7
217.651	-48.64
217.869	-9.73
218.087	64
218.306	27.14
218.524	86.53
218.742	39.42
218.96	113.15
219.179	39.42
219.397	82.43
219.615	166.4
219.833	170.49
220.051	-28.16
220.27	61.95
220.488	51.71
220.706	29.18
220.924	-5.63
221.142	-69.12
221.36	66.05
221.578	90.62
221.796	27.14
222.015	80.38
222.233	25.09
222.451	223.74
222.669	-46.59
222.887	94.72
223.105	-36.35
223.323	-5.63
223.541	-38.4
223.759	57.86
223.977	-3.58
224.195	231.93
224.413	61.95
224.631	37.38
224.849	111.1
225.067	330.23
225.285	-44.54
225.503	49.66
225.721	-97.79
225.939	90.62
226.157	59.9
226.375	264.7
226.592	49.66
226.81	20.99
227.028	78.33
227.246	150.01
227.464	37.38
227.682	80.38
227.9	74.24
228.117	127.49
228.335	115.2
228.553	59.9
228.771	6.66
228.989	20.99
229.206	39.42
229.424	4.61
229.642	64
229.86	-62.98
230.077	188.93
230.295	25.09
230.513	129.53
230.731	53.76
230.948	66.05
231.166	188.93
231.384	47.62
231.601	-44.54
231.819	145.92
232.037	51.71
232.254	-62.98
232.472	98.81
232.689	23.04
232.907	137.73
233.125	86.53
233.342	-11.78
233.56	-1.54
233.777	8.7
233.995	41.47
234.213	113.15
234.43	23.04
234.648	16.9
234.865	51.71
235.083	59.9
235.3	25.09
235.518	66.05
235.735	107.01
235.953	61.95
236.17	53.76
236.388	12.8
236.605	49.66
236.822	72.19
237.04	164.35
237.257	137.73
237.475	-11.78
237.692	16.9
237.909	74.24
238.127	14.85
238.344	72.19
238.562	86.53
238.779	-65.02
238.996	-60.93
239.214	-7.68
239.431	137.73
239.648	31.23
239.865	143.87
240.083	64
240.3	-26.11
240.517	-11.78
240.735	109.05
240.952	131.58
241.169	74.24
241.386	61.95
241.603	94.72
241.821	-69.12
242.038	20.99
242.255	107.01
242.472	-91.65
242.689	121.34
242.907	98.81
243.124	92.67
243.341	2.56
243.558	-40.45
243.775	-15.87
243.992	-75.26
244.209	72.19
244.426	129.53
244.643	53.76
244.86	80.38
245.078	94.72
245.295	55.81
245.512	-19.97
245.729	-91.65
245.946	61.95
246.163	4.61
246.38	57.86
246.597	78.33
246.814	49.66
247.031	20.99
247.248	25.09
247.464	107.01
247.681	123.39
247.898	20.99
248.115	125.44
248.332	25.09
248.549	195.07
248.766	209.4
248.983	66.05
249.2	121.34
249.417	78.33
249.633	-13.82
249.85	68.09
250.067	51.71
250.284	96.77
250.501	150.01
250.717	102.91
250.934	-7.68
251.151	-9.73
251.368	68.09
251.585	74.24
251.801	59.9
252.018	-28.16
252.235	178.69
252.451	-32.26
252.668	12.8
252.885	104.96
253.102	80.38
253.318	76.29
253.535	37.38
253.752	-24.06
253.968	12.8
254.185	-93.69
254.401	72.19
254.618	61.95
254.835	-22.02
255.051	96.77
255.268	61.95
255.484	109.05
255.701	23.04
255.917	27.14
256.134	18.94
256.351	-7.68
256.567	-32.26
256.784	31.23
257	-26.11
257.217	84.48
257.433	72.19
257.65	92.67
257.866	170.49
258.082	-126.46
258.299	25.09
258.515	80.38
258.732	6.66
258.948	27.14
259.165	107.01
259.381	25.09
259.597	88.57
259.814	80.38
260.03	53.76
260.246	-48.64
260.463	115.2
260.679	156.16
260.895	66.05
261.112	70.14
261.328	41.47
261.544	-65.02
261.761	168.45
261.977	33.28
262.193	-11.78
262.409	90.62
262.626	90.62
262.842	66.05
263.058	-46.59
263.274	66.05
263.49	133.63
263.707	125.44
263.923	88.57
264.139	-48.64
264.355	94.72
264.571	125.44
264.787	90.62
265.004	135.68
265.22	59.9
265.436	-15.87
265.652	57.86
265.868	102.91
266.084	-26.11
266.3	88.57
266.516	-24.06
266.732	115.2
266.948	0.51
267.164	-54.78
267.38	80.38
267.596	49.66
267.812	166.4
268.028	33.28
268.244	49.66
268.46	53.76
268.676	0.51
268.892	76.29
269.108	59.9
269.324	-5.63
269.54	-46.59
269.756	61.95
269.972	-75.26
270.188	31.23
270.403	-34.3
270.619	-1.54
270.835	160.25
271.051	33.28
271.267	14.85
271.483	4.61
271.698	90.62
271.914	-44.54
272.13	27.14
272.346	-22.02
272.562	127.49
272.777	162.3
272.993	55.81
273.209	72.19
273.425	70.14
273.64	-24.06
273.856	109.05
274.072	51.71
274.287	43.52
274.503	156.16
274.719	96.77
274.934	37.38
275.15	-50.69
275.366	-9.73
275.581	18.94
275.797	64
276.012	102.91
276.228	16.9
276.444	23.04
276.659	139.77
276.875	-81.41
277.09	84.48
277.306	37.38
277.521	133.63
277.737	66.05
277.952	111.1
278.168	-24.06
278.383	14.85
278.599	4.61
278.814	41.47
279.03	47.62
279.245	139.77
279.461	104.96
279.676	139.77
279.892	-36.35
280.107	-46.59
280.322	-40.45
280.538	31.23
280.753	23.04
280.969	111.1
281.184	10.75
281.399	141.82
281.615	25.09
281.83	23.04
282.045	-65.02
282.26	2.56
282.476	109.05
282.691	162.3
282.906	14.85
283.122	12.8
283.337	33.28
283.552	158.21
283.767	-22.02
283.983	137.73
284.198	59.9
284.413	61.95
284.628	-75.26
284.843	66.05
285.058	86.53
285.274	4.61
285.489	84.48
285.704	78.33
285.919	-5.63
286.134	107.01
286.349	76.29
286.564	4.61
286.779	135.68
286.995	121.34
287.21	-71.17
287.425	125.44
287.64	-5.63
287.855	10.75
288.07	-9.73
288.285	86.53
288.5	117.25
288.715	86.53
288.93	-24.06
289.145	41.47
289.36	125.44
289.575	-26.11
289.79	121.34
290.004	-7.68
290.219	90.62
290.434	-3.58
290.649	98.81
290.864	47.62
291.079	2.56
291.294	14.85
291.509	86.53
291.724	45.57
291.938	-36.35
292.153	121.34
292.368	23.04
292.583	135.68
292.798	156.16
293.012	47.62
293.227	45.57
293.442	-9.73
293.657	123.39
293.871	92.67
294.086	92.67
294.301	252.41
294.516	176.64
294.73	68.09
294.945	57.86
295.16	-36.35
295.374	115.2
295.589	102.91
295.804	61.95
296.018	68.09
296.233	147.97
296.447	51.71
296.662	39.42
296.877	166.4
297.091	111.1
297.306	4.61
297.52	43.52
297.735	147.97
297.949	45.57
298.164	6.66
298.378	43.52
298.593	51.71
298.807	-15.87
299.022	10.75
299.236	137.73
299.451	27.14
299.665	98.81
299.88	35.33
300.094	55.81
300.309	37.38
300.523	18.94
300.737	-38.4
300.952	55.81
301.166	90.62
301.381	12.8
301.595	78.33
301.809	-62.98
302.024	0.51
302.238	14.85
302.452	94.72
302.667	53.76
302.881	193.02
303.095	131.58
303.309	59.9
303.524	61.95
303.738	10.75
303.952	6.66
304.166	18.94
304.381	-60.93
304.595	190.97
304.809	61.95
305.023	-19.97
305.237	57.86
305.452	23.04
305.666	129.53
305.88	160.25
306.094	137.73
306.308	27.14
306.522	86.53
306.736	59.9
306.95	27.14
307.164	74.24
307.379	-22.02
307.593	225.79
307.807	90.62
308.021	86.53
308.235	84.48
308.449	-110.08
308.663	57.86
308.877	203.26
309.091	27.14
309.305	37.38
309.519	-71.17
309.733	176.64
309.947	-99.84
310.161	49.66
310.374	90.62
310.588	72.19
310.802	-77.31
311.016	-17.92
311.23	115.2
311.444	-36.35
311.658	68.09
311.872	104.96
312.085	96.77
312.299	70.14
312.513	152.06
312.727	37.38
312.941	-38.4
313.154	51.71
313.368	4.61
313.582	88.57
313.796	51.71
314.009	29.18
314.223	96.77
314.437	25.09
314.651	66.05
314.864	78.33
315.078	6.66
315.292	35.33
315.505	61.95
315.719	104.96
315.933	70.14
316.146	-19.97
316.36	-13.82
316.573	129.53
316.787	98.81
317.001	76.29
317.214	-48.64
317.428	119.29
317.641	18.94
317.855	-62.98
318.068	59.9
318.282	78.33
318.495	203.26
318.709	137.73
318.922	25.09
319.136	115.2
319.349	92.67
319.563	43.52
319.776	25.09
319.99	-118.27
320.203	111.1
320.417	0.51
320.63	125.44
320.843	143.87
321.057	78.33
321.27	74.24
321.483	61.95
321.697	143.87
321.91	-3.58
322.124	121.34
322.337	102.91
322.55	12.8
322.763	41.47
322.977	-50.69
323.19	14.85
323.403	53.76
323.617	104.96
323.83	127.49
324.043	82.43
324.256	92.67
324.469	-34.3
324.683	51.71
324.896	4.61
325.109	6.66
325.322	-22.02
325.535	193.02
325.748	96.77
325.962	49.66
326.175	47.62
326.388	80.38
326.601	59.9
326.814	35.33
327.027	33.28
327.24	160.25
327.453	-34.3
327.666	147.97
327.879	176.64
328.092	57.86
328.305	31.23
328.518	96.77
328.731	-13.82
328.944	66.05
329.157	45.57
329.37	59.9
329.583	147.97
329.796	125.44
330.009	-32.26
330.222	121.34
330.435	147.97
330.648	47.62
330.861	74.24
331.073	125.44
331.286	70.14
331.499	10.75
331.712	14.85
331.925	59.9
332.138	-1.54
332.35	219.64
332.563	-30.21
332.776	154.11
332.989	-11.78
333.202	2.56
333.414	-11.78
333.627	76.29
333.84	29.18
334.053	-5.63
334.265	-44.54
334.478	-42.5
334.691	84.48
334.903	31.23
335.116	-34.3
335.329	2.56
335.541	72.19
335.754	156.16
335.966	12.8
336.179	90.62
336.392	-7.68
336.604	57.86
336.817	156.16
337.029	113.15
337.242	-38.4
337.454	66.05
337.667	-9.73
337.88	70.14
338.092	41.47
338.305	51.71
338.517	-1.54
338.729	82.43
338.942	145.92
339.154	8.7
339.367	35.33
339.579	145.92
339.792	-19.97
340.004	86.53
340.217	29.18
340.429	31.23
340.641	-73.21
340.854	-7.68
341.066	18.94
341.278	121.34
341.491	162.3
341.703	72.19
341.915	-32.26
342.128	37.38
342.34	53.76
342.552	-46.59
342.764	45.57
342.977	-19.97
343.189	156.16
343.401	117.25
343.613	-69.12
343.826	27.14
344.038	-7.68
344.25	150.01
344.462	35.33
344.674	82.43
344.886	94.72
345.099	78.33
345.311	68.09
345.523	37.38
345.735	-69.12
345.947	29.18
346.159	80.38
346.371	33.28
346.583	41.47
346.795	217.6
347.007	66.05
347.219	16.9
347.431	49.66
347.643	107.01
347.855	74.24
348.067	82.43
348.279	-5.63
348.491	-3.58
348.703	127.49
348.915	33.28
349.127	14.85
349.339	64
349.551	53.76
349.763	86.53
349.975	41.47
350.187	41.47
350.399	197.12
350.61	141.82
350.822	25.09
351.034	80.38
351.246	-3.58
351.458	133.63
351.669	76.29
351.881	74.24
352.093	115.2
352.305	74.24
352.517	37.38
352.728	141.82
352.94	156.16
353.152	68.09
353.363	-17.92
353.575	27.14
353.787	219.64
353.999	125.44
354.21	129.53
354.422	-62.98
354.633	23.04
354.845	98.81
355.057	61.95
355.268	80.38
355.48	111.1
355.692	18.94
355.903	53.76
356.115	-42.5
356.326	-114.17
356.538	131.58
356.749	92.67
356.961	156.16
357.172	27.14
357.384	-56.83
357.595	225.79
357.807	10.75
358.018	-1.54
358.23	59.9
358.441	205.31
358.653	104.96
358.864	49.66
359.075	33.28
359.287	104.96
359.498	64
359.709	70.14
359.921	20.99
360.132	68.09
360.344	-19.97
360.555	76.29
360.766	76.29
360.977	80.38
361.189	109.05
361.4	53.76
361.611	172.54
361.823	111.1
362.034	72.19
362.245	-50.69
362.456	82.43
362.667	31.23
362.879	47.62
363.09	35.33
363.301	61.95
363.512	57.86
363.723	-5.63
363.935	-17.92
364.146	6.66
364.357	-11.78
364.568	61.95
364.779	-101.89
364.99	133.63
365.201	8.7
365.412	76.29
365.623	-7.68
365.834	51.71
366.045	57.86
366.256	133.63
366.467	68.09
366.678	90.62
366.889	12.8
367.1	-30.21
367.311	139.77
367.522	4.61
367.733	82.43
367.944	172.54
368.155	41.47
368.366	143.87
368.577	154.11
368.788	133.63
368.999	-48.64
369.209	72.19
369.42	201.21
369.631	227.84
369.842	133.63
370.053	49.66
370.264	119.29
370.474	31.23
370.685	104.96
370.896	51.71
371.107	162.3
371.317	88.57
371.528	25.09
371.739	88.57
371.95	88.57
372.16	74.24
372.371	41.47
372.582	-30.21
372.792	121.34
373.003	70.14
373.214	61.95
373.424	82.43
373.635	-62.98
373.846	115.2
374.056	68.09
374.267	61.95
374.477	59.9
374.688	-73.21
374.898	8.7
375.109	109.05
375.319	47.62
375.53	39.42
375.74	119.29
375.951	37.38
376.161	41.47
376.372	86.53
376.582	88.57
376.793	61.95
377.003	0.51
377.214	59.9
377.424	135.68
377.635	102.91
377.845	31.23
378.055	160.25
378.266	6.66
378.476	37.38
378.686	45.57
378.897	43.52
379.107	61.95
379.317	94.72
379.528	0.51
379.738	90.62
379.948	29.18
380.158	141.82
380.369	49.66
380.579	29.18
380.789	-13.82
380.999	70.14
381.21	113.15
381.42	217.6
381.63	23.04
381.84	131.58
382.05	61.95
382.261	121.34
382.471	41.47
382.681	20.99
382.891	152.06
383.101	37.38
383.311	-11.78
383.521	8.7
383.731	133.63
383.941	64
384.151	98.81
384.361	-1.54
384.571	88.57
384.781	113.15
384.991	193.02
385.201	154.11
385.411	160.25
385.621	25.09
385.831	115.2
386.041	113.15
386.251	102.91
386.461	84.48
386.671	68.09
386.881	100.86
387.091	45.57
387.301	109.05
387.511	53.76
387.72	-1.54
387.93	113.15
388.14	14.85
388.35	102.91
388.56	72.19
388.769	104.96
388.979	12.8
389.189	18.94
389.399	35.33
389.609	111.1
389.818	35.33
390.028	121.34
390.238	133.63
390.447	29.18
390.657	100.86
390.867	2.56
391.076	4.61
391.286	74.24
391.496	16.9
391.705	23.04
391.915	119.29
392.125	80.38
392.334	10.75
392.544	49.66
392.753	49.66
392.963	12.8
393.172	68.09
393.382	88.57
393.591	152.06
393.801	25.09
394.01	170.49
394.22	25.09
394.429	-15.87
394.639	12.8
394.848	100.86
395.058	80.38
395.267	41.47
395.477	107.01
395.686	123.39
395.895	272.89
396.105	281.08
396.314	98.81
396.524	12.8
396.733	12.8
396.942	137.73
397.152	-9.73
397.361	76.29
397.57	45.57
397.78	10.75
397.989	29.18
398.198	178.69
398.407	88.57
398.617	84.48
398.826	33.28
399.035	80.38
399.244	199.16
399.453	109.05
399.663	117.25
399.872	90.62
400.081	-7.68
400.29	123.39
400.499	4.61
400.708	141.82
400.917	25.09
401.127	10.75
401.336	-13.82
401.545	283.13
401.754	143.87
401.963	76.29
402.172	-22.02
402.381	23.04
402.59	35.33
402.799	45.57
403.008	121.34
403.217	31.23
403.426	90.62
403.635	-73.21
403.844	78.33
404.053	-9.73
404.262	20.99
404.471	117.25
404.68	94.72
404.888	20.99
405.097	113.15
405.306	66.05
405.515	70.14
405.724	45.57
405.933	102.91
406.142	47.62
406.35	133.63
406.559	47.62
406.768	86.53
406.977	219.64
407.185	82.43
407.394	41.47
407.603	8.7
407.812	107.01
408.02	182.78
408.229	25.09
408.438	119.29
408.646	20.99
408.855	10.75
409.064	25.09
409.272	104.96
409.481	129.53
409.69	33.28
409.898	64
410.107	45.57
410.315	147.97
410.524	39.42
410.733	143.87
410.941	51.71
411.15	160.25
411.358	129.53
411.567	229.88
411.775	41.47
411.984	90.62
412.192	-13.82
412.401	2.56
412.609	236.03
412.818	127.49
413.026	55.81
413.234	29.18
413.443	78.33
413.651	43.52
413.86	59.9
414.068	55.81
414.276	160.25
414.485	-11.78
414.693	193.02
414.901	168.45
415.11	115.2
415.318	49.66
415.526	18.94
415.734	90.62
415.943	10.75
416.151	193.02
416.359	25.09
416.567	72.19
416.776	82.43
416.984	174.59
417.192	254.46
417.4	-40.45
417.608	109.05
417.817	25.09
418.025	141.82
418.233	121.34
418.441	-69.12
418.649	-36.35
418.857	76.29
419.065	104.96
419.273	55.81
419.481	90.62
419.689	-11.78
419.897	-7.68
420.105	-11.78
420.313	51.71
420.521	176.64
420.729	84.48
420.937	2.56
421.145	-3.58
421.353	117.25
421.561	172.54
421.769	109.05
421.977	135.68
422.185	205.31
422.393	51.71
422.601	139.77
422.809	51.71
423.017	14.85
423.224	68.09
423.432	244.22
423.64	31.23
423.848	121.34
424.056	-36.35
424.263	158.21
424.471	29.18
424.679	160.25
424.887	0.51
425.094	125.44
425.302	107.01
425.51	55.81
425.718	119.29
425.925	14.85
426.133	23.04
426.341	174.59
426.548	43.52
426.756	43.52
426.964	182.78
427.171	-13.82
427.379	166.4
427.586	27.14
427.794	139.77
428.001	221.69
428.209	61.95
428.417	152.06
428.624	158.21
428.832	168.45
429.039	139.77
429.247	109.05
429.454	90.62
429.662	193.02
429.869	127.49
430.076	125.44
430.284	190.97
430.491	211.45
430.699	188.93
430.906	236.03
431.114	152.06
431.321	152.06
431.528	162.3
431.736	164.35
431.943	266.75
432.15	170.49
432.358	272.89
432.565	313.85
432.772	-7.68
432.979	242.17
433.187	158.21
433.394	207.36
433.601	190.97
433.808	301.56
434.016	279.04
434.223	172.54
434.43	258.56
434.637	274.94
434.844	242.17
435.052	268.8
435.259	250.36
435.466	242.17
435.673	254.46
435.88	385.53
436.087	317.95
436.294	387.58
436.501	373.24
436.708	358.91
436.915	303.61
437.122	428.54
437.329	252.41
437.537	291.32
437.743	375.29
437.95	424.44
438.157	367.1
438.364	395.77
438.571	328.19
438.778	451.07
438.985	440.83
439.192	510.46
439.399	416.25
439.606	485.88
439.813	543.22
440.02	672.25
440.227	784.88
440.433	639.48
440.64	565.75
440.847	557.56
441.054	588.28
441.261	762.36
441.467	668.15
441.674	664.05
441.881	762.36
442.088	752.12
442.294	782.84
442.501	952.82
442.708	862.71
442.914	803.32
443.121	877.04
443.328	975.35
443.534	1067.5
443.741	946.67
443.948	840.18
444.154	1090.03
444.361	1198.57
444.568	1174
444.774	1122.8
444.981	1010.16
445.187	1321.45
445.394	1212.91
445.6	1223.15
445.807	1382.89
446.013	1346.03
446.22	1343.98
446.426	1444.33
446.633	1620.46
446.839	1847.78
447.046	1544.68
447.252	1737.19
447.459	1685.99
447.665	1772
447.871	2007.52
448.078	2152.93
448.284	2015.71
448.491	2154.98
448.697	2220.51
448.903	2355.68
449.11	2445.79
449.316	2423.26
449.522	2548.19
449.728	2671.06
449.935	2656.73
450.141	2744.79
450.347	2957.78
450.553	2978.26
450.76	2959.83
450.966	3103.18
451.172	3248.59
451.378	3457.48
451.584	3379.66
451.791	3625.42
451.997	3854.79
452.203	3879.36
452.409	4178.37
452.615	4307.39
452.821	4049.35
453.027	4221.38
453.233	4721.08
453.44	4751.8
453.646	4776.38
453.852	5056.95
454.058	5130.67
454.264	5302.7
454.47	5783.98
454.676	5724.58
454.882	6431.13
455.088	5945.77
455.294	6304.16
455.5	6582.68
455.705	7209.36
455.911	7223.7
456.117	7248.27
456.323	7526.8
456.529	7627.15
456.735	8366.46
456.941	8493.44
457.147	8708.48
457.352	8978.81
457.558	9195.89
457.764	9982.31
457.97	10099.05
458.176	10557.79
458.381	11016.54
458.587	11419.99
458.793	11739.47
458.999	11983.18
459.204	13121.85
459.41	13717.81
459.616	13377.84
459.821	14141.74
460.027	14881.05
460.233	15462.68
460.438	15784.21
460.644	16410.89
460.85	16726.27
461.055	17391.86
461.261	18247.91
461.466	17678.58
461.672	18350.31
461.878	20130
462.083	19992.78
462.289	20500.68
462.494	21244.09
462.7	21711.03
462.905	22005.94
463.111	23353.5
463.316	24731.78
463.522	25282.69
463.727	25702.52
463.932	26466.41
464.138	27537.5
464.343	28620.88
464.549	29042.76
464.754	31160.36
464.959	32018.46
465.165	32397.33
465.37	32311.31
465.575	32313.36
465.781	34541.55
465.986	35635.17
466.191	34793.45
466.397	35289.06
466.602	33906.68
466.807	36145.11
467.012	36671.44
467.218	37642.18
467.423	37425.09
467.628	38727.6
467.833	40683.41
468.038	40144.8
468.244	39333.8
468.449	41189.26
468.654	40478.61
468.859	40656.79
469.064	40511.38
469.269	39782.3
469.474	39436.2
469.679	41072.53
469.885	39929.76
470.09	40198.04
470.295	40152.99
470.5	39251.88
470.705	39767.97
470.91	38700.98
471.115	38741.94
471.32	39172.01
471.525	38705.07
471.73	37550.02
471.935	37480.39
472.139	36067.29
472.344	36284.37
472.549	35758.05
472.754	34998.25
472.959	34613.23
473.164	33404.93
473.369	32997.38
473.574	33808.38
473.778	33232.9
473.983	32706.57
474.188	32069.65
474.393	30435.38
474.598	30353.46
474.802	29780.03
475.007	29429.82
475.212	29438.01
475.417	28096.6
475.621	27502.68
475.826	27424.86
476.031	26841.19
476.235	26028.15
476.44	26204.27
476.645	25325.69
476.849	25514.11
477.054	24897.67
477.259	24604.81
477.463	24144.02
477.668	23142.56
477.872	23668.89
478.077	22974.63
478.282	22460.59
478.486	22202.54
478.691	22081.71
478.895	21694.64
479.1	21377.21
479.304	21512.38
479.509	20603.08
479.713	21076.16
479.918	20498.63
480.122	20312.27
480.326	20162.76
480.531	20193.48
480.735	19884.24
480.94	19359.96
481.144	20195.53
481.348	19124.44
481.553	19325.15
481.757	18710.75
481.961	19050.72
482.166	18981.09
482.37	18772.19
482.574	18540.77
482.778	18503.91
482.983	18659.56
483.187	18313.45
483.391	18307.3
483.595	18018.54
483.8	17529.08
484.004	17654
484.208	17666.29
484.412	17334.52
484.616	16877.82
484.821	16853.25
485.025	16228.62
485.229	16521.48
485.433	16457.99
485.637	16115.98
485.841	15839.5
486.045	15683.86
486.249	15505.68
486.453	15307.03
486.657	15087.9
486.861	15079.71
487.065	14465.32
487.269	14479.65
487.473	13918.51
487.677	14186.79
487.881	13981.99
488.085	13293.88
488.289	13383.99
488.493	13173.05
488.697	13148.47
488.901	12847.42
489.105	12468.55
489.309	12276.04
489.512	12104.01
489.716	11929.93
489.92	11678.03
490.124	11225.43
490.328	11325.78
490.531	10971.48
490.735	11018.58
490.939	10781.02
491.143	10531.17
491.346	10303.84
491.55	10336.61
491.754	10105.19
491.958	9884.01
492.161	9822.57
492.365	9484.66
492.569	9396.59
492.772	9183.6
492.976	9380.21
493.18	9048.44
493.383	9107.83
493.587	8788.35
493.79	8814.97
493.994	8636.8
494.197	8581.5
494.401	8624.51
494.605	8401.28
494.808	8372.61
495.012	8192.39
495.215	8169.86
495.419	8421.76
495.622	7973.25
495.825	8229.25
496.029	8030.6
496.232	8092.04
496.436	7948.68
496.639	8044.93
496.843	7905.67
497.046	7852.42
497.249	8229.25
497.453	8046.98
497.656	7938.44
497.859	7793.03
498.063	8016.26
498.266	8163.72
498.469	7809.42
498.673	8034.69
498.876	8028.55
499.079	8092.04
499.282	8202.63
499.485	8376.7
499.689	8100.23
499.892	8542.59
500.095	8233.35
500.298	8649.08
500.501	8188.29
500.705	8368.51
500.908	8368.51
501.111	8657.28
501.314	8802.68
501.517	8862.07
501.72	8878.46
501.923	8991.09
502.126	9191.8
502.329	9441.65
502.532	9357.68
502.735	9361.78
502.938	9527.66
503.141	9607.53
503.344	9707.88
503.547	9865.58
503.75	9947.5
503.953	10070.37
504.156	10084.71
504.359	10180.96
504.562	10248.55
504.765	10486.11
504.968	10584.41
505.17	10744.16
505.373	10903.9
505.576	11440.47
505.779	11438.42
505.982	11331.92
506.185	11725.13
506.387	12038.47
506.59	12079.43
506.793	12599.62
506.996	12591.42
507.198	12874.04
507.401	13136.18
507.604	13351.22
507.807	13603.12
508.009	13705.52
508.212	14041.39
508.415	14131.5
508.617	14244.13
508.82	14993.69
509.022	14860.57
509.225	15745.3
509.428	15739.15
509.63	16103.69
509.833	16216.33
510.035	17096.96
510.238	17107.19
510.44	17395.96
510.643	17694.96
510.845	18282.73
511.048	18407.66
511.25	18882.78
511.453	19099.87
511.655	20007.12
511.858	20252.87
512.06	20861.12
512.262	20902.08
512.465	21237.95
512.667	21815.48
512.87	22632.61
513.072	22663.33
513.274	23488.67
513.477	24086.67
513.679	24578.18
513.881	25108.61
514.084	25397.37
514.286	25790.58
514.488	26364.01
514.69	27652.19
514.893	27578.46
515.095	28061.78
515.297	28489.81
515.499	29118.53
515.701	30058.55
515.904	30529.58
516.106	31184.93
516.308	31627.29
516.51	32577.55
516.712	32745.48
516.914	33333.25
517.116	34277.36
517.318	34447.35
517.52	35264.49
517.722	35493.86
517.925	36110.3
518.127	37005.26
518.329	38000.57
518.531	37797.82
518.733	38635.44
518.935	39438.25
519.136	40003.49
519.338	40898.45
519.54	41017.23
519.742	41785.22
519.944	42116.99
520.146	43022.19
520.348	43298.67
520.55	43853.67
520.752	44207.97
520.954	45334.35
521.155	44812.12
521.357	45795.14
521.559	46608.18
521.761	47091.51
521.963	46925.62
522.164	47367.98
522.366	47703.85
522.568	48383.77
522.77	48795.42
522.971	49063.7
523.173	48559.9
523.375	49342.22
523.576	49405.71
523.778	49196.82
523.98	50142.98
524.181	50202.37
524.383	49864.46
524.584	50599.68
524.786	50585.34
524.988	50308.86
525.189	50523.9
525.391	51007.22
525.592	50802.42
525.794	51246.83
525.995	50554.62
526.197	50681.59
526.398	50632.44
526.6	50517.76
526.801	50087.68
527.003	49895.17
527.204	50001.67
527.406	49841.93
527.607	49164.05
527.808	49508.11
528.01	48746.26
528.211	48500.51
528.412	48994.07
528.614	48211.74
528.815	47462.19
529.016	48301.85
529.218	47191.86
529.419	46567.23
529.62	46094.14
529.822	45836.1
530.023	45485.9
530.224	45088.59
530.425	44525.4
530.626	43794.28
530.828	43304.81
531.029	43736.93
531.23	42690.42
531.431	42282.87
531.632	42076.03
531.833	41590.66
532.035	40918.93
532.236	40191.9
532.437	40302.49
532.638	39096.24
532.839	38758.32
533.04	38770.61
533.241	37904.32
533.442	37906.37
533.643	36853.71
533.844	36153.3
534.045	36323.29
534.246	35219.43
534.447	35211.24
534.648	34400.24
534.849	33918.97
535.05	33484.8
535.251	33458.18
535.451	32614.41
535.652	32286.74
535.853	32032.79
536.054	31754.27
536.255	31379.49
536.456	30257.2
536.657	30617.64
536.857	29741.11
537.058	29327.42
537.259	29620.28
537.46	28430.41
537.66	28371.02
537.861	27983.96
538.062	27836.5
538.263	27150.43
538.463	26663.02
538.664	26304.62
538.865	26214.51
539.065	26028.15
539.266	25374.84
539.466	25440.38
539.667	24701.06
539.868	24584.33
540.068	24610.95
540.269	24303.76
540.469	23906.45
540.67	23398.55
540.87	23195.81
541.071	22747.3
541.271	22823.08
541.472	22735.01
541.672	22147.25
541.873	21751.99
542.073	21172.41
542.274	21557.43
542.474	21147.84
542.675	20689.09
542.875	20828.35
543.075	20107.47
543.276	19964.11
543.476	20170.96
543.676	20113.61
543.877	19550.42
544.077	19505.37
544.277	19417.3
544.478	19091.68
544.678	18647.27
544.878	18491.62
545.078	18190.57
545.279	18116.84
545.479	17764.59
545.679	17895.66
545.879	17539.32
546.079	17365.24
546.28	16972.03
546.48	16627.97
546.68	16894.21
546.88	16527.62
547.08	16486.66
547.28	16115.98
547.48	15747.34
547.68	15735.06
547.88	15382.81
548.081	15479.06
548.281	15091.99
548.481	14805.28
548.681	14706.98
548.881	14813.47
549.081	14518.56
549.28	14418.21
549.48	13957.42
549.68	14000.43
549.88	13631.79
550.08	13394.23
550.28	13287.73
550.48	13269.3
550.68	13046.07
550.88	12564.8
551.08	12613.95
551.279	12601.66
551.479	12040.52
551.679	12050.76
551.879	11764.04
552.079	11626.83
552.278	11442.51
552.478	11389.27
552.678	11219.28
552.878	11061.59
553.077	10799.45
553.277	10643.81
553.477	10733.92
553.676	10342.75
553.876	10244.45
554.076	10015.08
554.275	9793.9
554.475	9695.6
554.674	9605.49
554.874	9421.17
555.074	9242.99
555.273	9187.7
555.473	9185.65
555.672	9019.77
555.872	8765.82
556.071	8622.46
556.271	8677.76
556.47	8366.46
556.67	8067.46
556.869	8053.13
557.068	7778.7
557.268	7833.99
557.467	7707.02
557.667	7565.71
557.866	7635.34
558.065	7278.99
558.265	7164.31
558.464	7010.71
558.663	7039.38
558.863	6752.66
559.062	6777.24
559.261	6648.22
559.461	6627.74
559.66	6506.91
559.859	6363.55
560.058	6189.47
560.258	6232.48
560.457	6044.07
560.656	6134.18
560.855	5910.95
561.054	5876.13
561.253	5669.29
561.453	5687.72
561.652	5570.99
561.851	5708.2
562.05	5280.18
562.249	5145.01
562.448	5454.25
562.647	5110.19
562.846	4942.26
563.045	5032.37
563.244	4929.97
563.443	4987.32
563.642	4741.56
563.841	4839.86
564.04	4649.4
564.239	4803
564.438	4467.13
564.637	4319.68
564.836	4379.07
565.035	4262.33
565.234	4297.15
565.432	4108.74
565.631	4168.13
565.83	4090.31
566.029	4067.78
566.228	3889.6
566.427	3987.91
566.625	3809.73
566.824	3869.12
567.023	3781.06
567.222	3654.09
567.42	3666.38
567.619	3641.8
567.818	3588.55
568.016	3670.47
568.215	3482.06
568.414	3416.52
568.612	3580.36
568.811	3219.92
569.01	3338.7
569.208	3295.69
569.407	3320.27
569.605	3084.75
569.804	3090.9
570.002	3060.18
570.201	2990.55
570.4	2972.11
570.598	2912.72
570.797	2836.95
570.995	2841.04
571.193	2863.57
571.392	2904.53
571.59	2712.02
571.789	2699.73
571.987	2839
572.186	2656.73
572.384	2490.84
572.582	2601.43
572.781	2515.42
572.979	2447.83
573.177	2384.35
573.376	2367.96
573.574	2329.05
573.772	2353.63
573.971	2296.28
574.169	2253.28
574.367	2288.09
574.565	2120.16
574.763	2101.73
574.962	2079.2
575.16	2068.96
575.358	2068.96
575.556	2091.49
575.754	1989.09
575.952	1911.27
576.151	1950.18
576.349	2093.54
576.547	1741.29
576.745	1974.75
576.943	1982.95
577.141	1864.16
577.339	1710.57
577.537	1673.7
577.735	1751.53
577.933	1751.53
578.131	1599.98
578.329	1718.76
578.527	1591.78
578.725	1685.99
578.923	1438.19
579.121	1675.75
579.319	1403.37
579.516	1546.73
579.714	1716.71
579.912	1407.47
580.11	1403.37
580.308	1423.85
580.506	1376.75
580.704	1208.81
580.901	1352.17
581.099	1552.87
581.297	1307.12
581.495	1260.01
581.692	1284.59
581.89	1421.8
582.088	1237.49
582.285	1157.61
582.483	1231.34
582.681	1217.01
582.878	1098.22
583.076	1133.04
583.274	1106.42
583.471	1397.23
583.669	1167.85
583.866	1014.26
584.064	1071.6
584.262	1036.78
584.459	1036.78
584.657	995.82
584.854	1155.57
585.052	993.78
585.249	1040.88
585.447	1067.5
585.644	954.87
585.841	1077.74
586.039	1006.06
586.236	1006.06
586.434	946.67
586.631	795.12
586.828	860.66
587.026	918
587.223	866.8
587.42	700.92
587.618	938.48
587.815	963.06
588.012	815.6
588.21	772.6
588.407	850.42
588.604	895.47
588.801	745.97
588.999	774.64
589.196	838.13
589.393	690.68
589.59	770.55
589.787	770.55
589.984	819.7
590.182	797.17
590.379	721.4
590.576	797.17
590.773	623.09
590.97	752.12
591.167	766.45
591.364	803.32
591.561	647.67
591.758	905.71
591.955	727.54
592.152	662.01
592.349	629.24
592.546	713.21
592.743	750.07
592.94	700.92
593.137	707.06
593.334	823.8
593.531	842.23
593.727	782.84
593.924	766.45
594.121	774.64
594.318	649.72
594.515	752.12
594.712	905.71
594.908	821.75
595.105	635.38
595.302	831.99
595.499	870.9
595.696	831.99
595.892	831.99
596.089	913.91
596.286	797.17
596.482	977.39
596.679	907.76
596.876	889.33
597.072	887.28
597.269	930.29
597.466	981.49
597.662	995.82
597.859	997.87
598.055	1087.98
598.252	1122.8
598.448	1208.81
598.645	1241.58
598.841	1219.05
599.038	1333.74
599.234	1448.43
599.431	1466.86
599.627	1415.66
599.824	1520.1
600.02	1391.08
600.217	1462.76
600.413	1591.78
600.609	1640.93
600.806	1843.68
601.002	1778.15
601.198	1767.91
601.395	2034.14
601.591	2013.67
601.787	2097.63
601.984	2138.59
602.18	2236.89
602.376	2329.05
602.572	2363.87
602.769	2537.95
602.965	2529.75
603.161	2720.21
603.357	2752.98
603.553	2812.37
603.75	2879.96
603.946	3000.79
604.142	3125.71
604.338	3385.8
604.534	3273.17
604.73	3451.34
604.926	3518.92
605.122	3844.55
605.318	3682.76
605.514	3883.46
605.71	3871.17
605.906	4198.85
606.102	4252.1
606.298	4583.87
606.494	4577.72
606.69	4716.98
606.886	4921.78
607.082	4915.64
607.278	5149.11
607.474	5200.3
607.67	5444.01
607.866	5454.25
608.062	5802.41
608.257	5890.47
608.453	5915.05
608.649	6287.78
608.845	6160.8
609.041	6406.56
609.236	6754.71
609.432	6822.3
609.628	6971.8
609.824	7434.64
610.019	7287.18
610.215	7612.81
610.411	7944.58
610.606	8049.03
610.802	8141.19
610.998	8429.95
611.193	8878.46
611.389	8819.07
611.584	9146.74
611.78	9185.65
611.976	9806.19
612.171	9867.63
612.367	10170.72
612.562	10404.19
612.758	10654.05
612.953	10887.51
613.149	11272.53
613.344	11657.55
613.539	12011.85
613.735	12159.3
613.93	12613.95
614.126	12616
614.321	13152.57
614.517	13529.39
614.712	13846.83
614.907	13984.04
615.103	14799.13
615.298	14774.56
615.493	15175.96
615.688	15370.52
615.884	16204.04
616.079	16083.21
616.274	16947.45
616.47	17234.17
616.665	17475.83
616.86	17946.86
617.055	18680.03
617.25	19310.81
617.445	19790.03
617.641	19818.71
617.836	20461.77
618.031	20582.6
618.226	21727.41
618.421	21954.74
618.616	22833.32
618.811	22900.9
619.006	23797.91
619.201	23978.13
619.396	24569.99
619.591	24690.82
619.786	25712.76
619.981	25950.32
620.176	27318.37
620.371	27404.38
620.566	28235.86
620.761	28344.4
620.956	28907.59
621.151	29263.94
621.346	30388.27
621.541	30541.87
621.735	31594.53
621.93	31811.61
622.125	32430.1
622.32	32720.91
622.515	33583.1
622.709	34033.66
622.904	34727.92
623.099	35534.82
623.294	36274.13
623.488	36384.72
623.683	37197.77
623.878	37533.64
624.072	38434.74
624.267	39161.77
624.462	39425.96
624.656	39808.93
624.851	40703.89
625.046	41019.28
625.24	41826.18
625.435	42391.42
625.629	42991.47
625.824	43229.04
626.018	44232.54
626.213	44119.9
626.407	45160.27
626.602	45264.72
626.796	46004.03
626.991	46382.91
627.185	46421.82
627.38	47019.83
627.574	47378.22
627.768	47277.87
627.963	47623.98
628.157	47576.87
628.352	48361.25
628.546	47583.02
628.74	48455.45
628.935	47843.11
629.129	48109.35
629.323	47826.73
629.517	47628.07
629.712	47384.36
629.906	47552.3
630.1	46475.07
630.294	47007.54
630.489	45510.47
630.683	45709.13
630.877	44382.04
631.071	44070.75
631.265	43757.41
631.459	42424.18
631.653	41600.9
631.848	41013.13
632.042	39479.21
632.236	39120.81
632.43	37803.97
632.624	36976.59
632.818	35876.83
633.012	34795.5
633.206	33712.13
633.4	33110.02
633.594	31672.35
633.788	31062.05
633.982	29984.82
634.176	28725.32
634.369	27639.9
634.563	26648.68
634.757	25299.07
634.951	24559.75
635.145	23824.53
635.339	22835.36
635.533	21921.97
635.726	21115.07
635.92	20072.65
636.114	19194.08
636.308	18677.99
636.501	17959.15
636.695	17273.08
636.889	16384.26
637.083	15583.51
637.276	15122.71
637.47	14502.18
637.664	14061.87
637.857	13418.8
638.051	12808.51
638.244	12355.91
638.438	11854.16
638.632	11364.69
638.825	10881.37
639.019	10377.57
639.212	10119.53
639.406	9787.75
639.599	9318.77
639.793	8964.47
639.986	8520.06
640.18	8403.33
640.373	7786.89
640.567	7598.48
640.76	7371.15
640.954	7123.35
641.147	6840.73
641.34	6558.11
641.534	6422.94
641.727	6216.1
641.92	5802.41
642.114	5745.06
642.307	5419.44
642.5	5302.7
642.694	4907.45
642.887	4803
643.08	4927.92
643.273	4456.89
643.467	4297.15
643.66	3998.15
643.853	3963.33
644.046	3852.74
644.239	3770.82
644.432	3602.89
644.626	3242.45
644.819	3334.61
645.012	3269.07
645.205	3123.66
645.398	3092.94
645.591	2867.67
645.784	2654.68
645.977	2537.95
646.17	2599.38
646.363	2388.44
646.556	2304.48
646.749	2284
646.942	2228.7
647.135	2056.67
647.328	2023.91
647.521	2048.48
647.714	1909.22
647.907	1712.61
648.099	1696.23
648.292	1745.38
648.485	1622.5
648.678	1610.22
648.871	1544.68
649.064	1395.18
649.256	1264.11
649.449	1337.84
649.642	1311.21
649.835	1221.1
650.027	1100.27
650.22	1276.4
650.413	1073.65
650.605	1165.81
650.798	1044.98
650.991	956.91
651.183	997.87
651.376	885.23
651.568	987.63
651.761	879.09
651.954	862.71
652.146	858.61
652.339	922.1
652.531	891.38
652.724	643.57
652.916	741.88
653.109	637.43
653.301	758.26
653.494	743.92
653.686	588.28
653.879	760.31
654.071	616.95
654.263	537.08
654.456	602.61
654.648	741.88
654.84	573.94
655.033	508.41
655.225	653.81
655.417	444.92
655.61	614.9
655.802	514.55
655.994	627.19
656.186	414.2
656.379	537.08
656.571	320
656.763	428.54
656.955	338.43
657.148	428.54
657.34	487.93
657.532	305.66
657.724	418.3
657.916	385.53
658.108	479.74
658.3	446.97
658.492	418.3
658.684	340.47
658.876	446.97
659.068	242.17
659.26	268.8
659.452	383.48
659.644	326.14
659.836	444.92
660.028	322.04
660.22	272.89
660.412	248.32
660.604	186.88
660.796	358.91
660.988	285.18
661.18	236.03
661.372	322.04
661.563	293.37
661.755	260.6
661.947	176.64
662.139	297.47
662.331	256.51
662.522	207.36
662.714	195.07
662.906	229.88
663.097	262.65
663.289	147.97
663.481	143.87
663.673	223.74
663.864	197.12
664.056	276.99
664.247	143.87
664.439	381.43
664.631	215.55
664.822	268.8
665.014	195.07
665.205	188.93
665.397	209.4
665.588	203.26
665.78	143.87
665.971	233.98
666.163	162.3
666.354	176.64
666.546	78.33
666.737	150.01
666.929	176.64
667.12	117.25
667.311	195.07
667.503	139.77
667.694	143.87
667.885	190.97
668.077	268.8
668.268	12.8
668.459	160.25
668.651	254.46
668.842	205.31
669.033	53.76
669.224	135.68
669.416	297.47
669.607	180.73
669.798	111.1
669.989	307.71
670.18	174.59
670.371	170.49
670.563	64
670.754	188.93
670.945	250.36
671.136	260.6
671.327	92.67
671.518	231.93
671.709	336.38
671.9	180.73
672.091	358.91
672.282	180.73
672.473	176.64
672.664	70.14
672.855	176.64
673.046	201.21
673.237	317.95
673.428	242.17
673.619	215.55
673.809	143.87
674	315.9
674.191	279.04
674.382	145.92
674.573	184.83
674.764	166.4
674.954	238.08
675.145	39.42
675.336	193.02
675.527	213.5
675.717	129.53
675.908	186.88
676.099	133.63
676.289	178.69
676.48	61.95
676.671	170.49
676.861	147.97
677.052	127.49
677.243	190.97
677.433	166.4
677.624	190.97
677.814	211.45
678.005	139.77
678.195	336.38
678.386	178.69
678.576	233.98
678.767	113.15
678.957	268.8
679.148	297.47
679.338	320
679.529	240.12
679.719	115.2
679.909	354.81
680.1	281.08
680.29	252.41
680.481	193.02
680.671	326.14
680.861	246.27
681.052	231.93
681.242	203.26
681.432	246.27
681.622	305.66
681.813	260.6
682.003	326.14
682.193	215.55
682.383	356.86
682.573	242.17
682.764	221.69
682.954	281.08
683.144	363
683.334	260.6
683.524	219.64
683.714	305.66
683.904	387.58
684.094	305.66
684.284	303.61
684.474	434.68
684.664	365.05
684.854	303.61
685.044	207.36
685.234	246.27
685.424	332.28
685.614	217.6
685.804	412.15
685.994	276.99
686.184	231.93
686.374	324.09
686.564	244.22
686.753	387.58
686.943	201.21
687.133	293.37
687.323	317.95
687.513	262.65
687.702	260.6
687.892	291.32
688.082	406.01
688.272	299.52
688.461	258.56
688.651	469.5
688.841	291.32
689.03	285.18
689.22	270.84
689.41	223.74
689.599	274.94
689.789	207.36
689.979	420.35
690.168	252.41
690.358	287.23
690.547	207.36
690.737	356.86
690.926	254.46
691.116	307.71
691.305	340.47
691.495	352.76
691.684	266.75
691.874	215.55
692.063	272.89
692.252	297.47
692.442	283.13
692.631	186.88
692.82	240.12
693.01	272.89
693.199	170.49
693.388	258.56
693.578	215.55
693.767	274.94
693.956	205.31
694.146	270.84
694.335	305.66
694.524	260.6
694.713	367.1
694.902	154.11
695.092	227.84
695.281	344.57
695.47	209.4
695.659	248.32
695.848	190.97
696.037	168.45
696.226	311.8
696.415	211.45
696.604	285.18
696.793	281.08
696.982	217.6
697.171	367.1
697.36	197.12
697.549	227.84
697.738	170.49
697.927	180.73
698.116	188.93
698.305	250.36
698.494	190.97
698.683	209.4
698.872	375.29
699.061	190.97
699.25	193.02
699.438	256.51
699.627	207.36
699.816	260.6
700.005	127.49
700.193	133.63
700.382	199.16
700.571	256.51
700.76	233.98
700.948	297.47
701.137	262.65
701.326	274.94
701.514	166.4
701.703	203.26
701.892	195.07
702.08	289.28
702.269	147.97
702.457	170.49
702.646	248.32
702.834	164.35
703.023	233.98
703.212	231.93
703.4	180.73
703.589	64
703.777	195.07
703.965	74.24
704.154	201.21
704.342	217.6
704.531	154.11
704.719	162.3
704.907	240.12
705.096	170.49
705.284	137.73
705.472	182.78
705.661	186.88
705.849	293.37
706.037	326.14
706.226	186.88
706.414	221.69
706.602	123.39
706.79	221.69
706.979	162.3
707.167	154.11
707.355	86.53
707.543	283.13
707.731	201.21
707.919	207.36
708.107	209.4
708.296	139.77
708.484	96.77
708.672	240.12
708.86	190.97
709.048	190.97
709.236	221.69
709.424	272.89
709.612	209.4
709.8	115.2
709.988	207.36
710.176	233.98
710.364	246.27
710.551	217.6
710.739	135.68
710.927	131.58
711.115	182.78
711.303	320
711.491	256.51
711.679	186.88
711.866	219.64
712.054	158.21
712.242	242.17
712.43	303.61
712.617	131.58
712.805	268.8
712.993	238.08
713.181	113.15
713.368	240.12
713.556	238.08
713.744	168.45
713.931	360.95
714.119	303.61
714.306	168.45
714.494	74.24
714.682	276.99
714.869	162.3
715.057	252.41
715.244	10.75
715.432	274.94
715.619	217.6
715.807	223.74
715.994	213.5
716.182	236.03
716.369	211.45
716.556	207.36
716.744	104.96
716.931	188.93
717.119	205.31
717.306	252.41
717.493	248.32
717.681	143.87
717.868	215.55
718.055	219.64
718.242	184.83
718.43	266.75
718.617	346.62
718.804	236.03
718.991	322.04
719.179	270.84
719.366	307.71
719.553	287.23
719.74	205.31
719.927	236.03
720.114	285.18
720.301	199.16
720.488	184.83
720.676	143.87
720.863	289.28
721.05	305.66
721.237	248.32
721.424	283.13
721.611	236.03
721.798	141.82
721.985	217.6
722.172	268.8
722.358	193.02
722.545	272.89
722.732	258.56
722.919	295.42
723.106	285.18
723.293	205.31
723.48	193.02
723.667	285.18
723.853	283.13
724.04	324.09
724.227	315.9
724.414	287.23
724.6	287.23
724.787	375.29
724.974	422.39
725.161	350.71
725.347	121.34
725.534	291.32
725.72	377.34
725.907	340.47
726.094	326.14
726.28	266.75
726.467	287.23
726.653	219.64
726.84	354.81
727.027	436.73
727.213	246.27
727.4	401.91
727.586	385.53
727.773	315.9
727.959	283.13
728.145	285.18
728.332	346.62
728.518	238.08
728.705	330.23
728.891	254.46
729.077	371.19
729.264	207.36
729.45	229.88
729.636	360.95
729.823	346.62
730.009	422.39
730.195	266.75
730.382	342.52
730.568	233.98
730.754	334.33
730.94	322.04
731.126	365.05
731.313	299.52
731.499	320
731.685	326.14
731.871	315.9
732.057	354.81
732.243	408.06
732.429	387.58
732.615	418.3
732.801	348.67
732.987	242.17
733.173	332.28
733.359	246.27
733.545	344.57
733.731	311.8
733.917	354.81
734.103	266.75
734.289	420.35
734.475	301.56
734.661	475.64
734.847	340.47
735.033	387.58
735.219	403.96
735.404	360.95
735.59	295.42
735.776	301.56
735.962	446.97
736.148	463.35
736.333	479.74
736.519	346.62
736.705	344.57
736.89	328.19
737.076	373.24
737.262	346.62
737.447	281.08
737.633	295.42
737.819	436.73
738.004	307.71
738.19	324.09
738.375	358.91
738.561	428.54
738.747	371.19
738.932	305.66
739.118	516.6
739.303	424.44
739.489	420.35
739.674	219.64
739.859	328.19
740.045	442.87
740.23	403.96
740.416	285.18
740.601	414.2
740.786	346.62
740.972	291.32
741.157	332.28
741.342	313.85
741.528	338.43
741.713	420.35
741.898	391.67
742.084	377.34
742.269	350.71
742.454	455.16
742.639	475.64
742.824	373.24
743.01	432.63
743.195	500.22
743.38	346.62
743.565	418.3
743.75	369.15
743.935	393.72
744.12	485.88
744.305	375.29
744.49	356.86
744.675	381.43
744.86	225.79
745.045	420.35
745.23	346.62
745.415	311.8
745.6	414.2
745.785	326.14
745.97	420.35
746.155	313.85
746.34	500.22
746.525	256.51
746.71	428.54
746.895	274.94
747.079	332.28
747.264	291.32
747.449	424.44
747.634	375.29
747.819	403.96
748.003	397.82
748.188	221.69
748.373	365.05
748.557	336.38
748.742	369.15
748.927	338.43
749.111	297.47
749.296	287.23
749.481	416.25
749.665	285.18
749.85	360.95
750.034	403.96
750.219	274.94
750.404	301.56
750.588	291.32
750.773	258.56
750.957	334.33
751.141	274.94
751.326	373.24
751.51	248.32
751.695	324.09
751.879	287.23
752.064	426.49
752.248	291.32
752.432	475.64
752.617	403.96
752.801	381.43
752.985	190.97
753.17	389.63
753.354	322.04
753.538	354.81
753.722	221.69
753.907	229.88
754.091	195.07
754.275	336.38
754.459	211.45
754.643	260.6
754.828	289.28
755.012	330.23
755.196	229.88
755.38	303.61
755.564	209.4
755.748	279.04
755.932	358.91
756.116	293.37
756.3	279.04
756.484	127.49
756.668	311.8
756.852	240.12
757.036	209.4
757.22	172.54
757.404	186.88
757.588	195.07
757.772	313.85
757.956	244.22
758.14	379.39
758.323	121.34
758.507	332.28
758.691	207.36
758.875	330.23
759.059	305.66
759.242	258.56
759.426	301.56
759.61	184.83
759.794	123.39
759.977	276.99
760.161	383.48
760.345	309.76
760.528	229.88
760.712	233.98
760.895	250.36
761.079	229.88
761.263	133.63
761.446	154.11
761.63	223.74
761.813	244.22
761.997	186.88
762.18	221.69
762.364	250.36
762.547	141.82
762.731	182.78
762.914	150.01
763.098	174.59
763.281	152.06
763.464	143.87
763.648	197.12
763.831	221.69
764.015	164.35
764.198	182.78
764.381	190.97
764.564	158.21
764.748	131.58
764.931	190.97
765.114	123.39
765.297	236.03
765.481	102.91
765.664	111.1
765.847	158.21
766.03	291.32
766.213	82.43
766.397	190.97
766.58	68.09
766.763	223.74
766.946	96.77
767.129	168.45
767.312	78.33
767.495	182.78
767.678	129.53
767.861	201.21
768.044	160.25
768.227	109.05
768.41	152.06
768.593	133.63
768.776	107.01
768.959	102.91
769.142	262.65
769.324	139.77
769.507	127.49
769.69	137.73
769.873	174.59
770.056	346.62
770.239	133.63
770.421	205.31
770.604	213.5
770.787	61.95
770.97	139.77
771.152	193.02
771.335	240.12
771.518	86.53
771.7	240.12
771.883	287.23
772.066	84.48
772.248	170.49
772.431	158.21
772.613	168.45
772.796	137.73
772.978	172.54
773.161	180.73
773.343	107.01
773.526	127.49
773.708	2.56
773.891	43.52
774.073	109.05
774.256	68.09
774.438	215.55
774.621	133.63
774.803	115.2
774.985	113.15
775.168	133.63
775.35	135.68
775.532	199.16
775.715	145.92
775.897	203.26
776.079	33.28
776.261	100.86
776.444	88.57
776.626	45.57
776.808	119.29
776.99	31.23
777.173	141.82
777.355	111.1
777.537	96.77
777.719	-15.87
777.901	100.86
778.083	29.18
778.265	39.42
778.447	213.5
778.629	78.33
778.811	102.91
778.993	150.01
779.175	162.3
779.357	174.59
779.539	6.66
779.721	184.83
779.903	119.29
780.085	78.33
780.267	147.97
780.449	76.29
780.631	203.26
780.812	125.44
780.994	119.29
781.176	41.47
781.358	27.14
781.54	57.86
781.721	156.16
781.903	70.14
782.085	18.94
782.267	102.91
782.448	-22.02
782.63	20.99
782.812	74.24
782.993	154.11
783.175	137.73
783.357	47.62
783.538	113.15
783.72	41.47
783.901	35.33
784.083	158.21
784.264	156.16
784.446	-19.97
784.627	-28.16
784.809	92.67
784.99	-22.02
785.172	74.24
785.353	78.33
785.535	100.86
785.716	25.09
785.897	12.8
786.079	-48.64
786.26	88.57
786.441	211.45
786.623	72.19
786.804	14.85
786.985	127.49
787.167	76.29
787.348	102.91
787.529	43.52
787.71	166.4
787.891	152.06
788.073	49.66
788.254	-34.3
788.435	209.4
788.616	-46.59
788.797	55.81
788.978	72.19
789.159	49.66
789.34	49.66
789.522	43.52
789.703	86.53
789.884	12.8
790.065	100.86
790.246	170.49
790.427	27.14
790.607	166.4
790.788	109.05
790.969	31.23
791.15	74.24
791.331	23.04
791.512	-9.73
791.693	-22.02
791.874	37.38
792.054	270.84
792.235	74.24
792.416	20.99
792.597	8.7
792.778	98.81
792.958	92.67
793.139	68.09
793.32	74.24
793.5	-101.89
793.681	221.69
793.862	86.53
794.042	-26.11
794.223	-36.35
794.404	35.33
794.584	-108.03
794.765	-13.82
794.945	90.62
795.126	125.44
795.306	115.2
795.487	80.38
795.667	-1.54
795.848	31.23
796.028	117.25
796.209	70.14
796.389	102.91
796.57	6.66
796.75	47.62
796.93	8.7
797.111	66.05
797.291	-28.16
797.471	94.72
797.652	23.04
797.832	-32.26
798.012	117.25
798.192	64
798.373	-7.68
798.553	59.9
798.733	150.01
798.913	2.56
799.093	37.38
799.274	14.85
799.454	66.05
799.634	90.62
799.814	61.95
799.994	102.91
800.174	86.53
800.354	78.33
800.534	-97.79
800.714	147.97
800.894	-19.97
801.074	-136.7
801.254	-62.98
801.434	137.73
801.614	-17.92
801.794	-69.12
801.974	1946.08
802.154	-19.97
802.334	92.67
802.514	-58.88
802.693	-30.21
802.873	35.33
803.053	72.19
803.233	109.05
803.413	70.14
803.592	45.57
803.772	14.85
803.952	64
804.131	-132.61
804.311	59.9
804.491	119.29
804.67	2.56
804.85	27.14
805.03	82.43
805.209	133.63
805.389	-89.6
805.568	-81.41
805.748	-1.54
805.928	51.71
806.107	131.58
806.287	-5.63
806.466	14.85
806.646	64
806.825	-5.63
807.004	72.19
807.184	94.72
807.363	102.91
807.543	57.86
807.722	47.62
807.901	119.29
808.081	92.67
808.26	-122.37
808.439	33.28
808.619	18.94
808.798	2.56
808.977	98.81
809.156	100.86
809.336	84.48
809.515	49.66
809.694	-5.63
809.873	25.09
810.052	64
810.231	107.01
810.411	45.57
810.59	88.57
810.769	25.09
810.948	70.14
811.127	-79.36
811.306	-48.64
811.485	20.99
811.664	104.96
811.843	16.9
812.022	-44.54
812.201	33.28
812.38	-24.06
812.559	12.8
812.737	64
812.916	-7.68
813.095	16.9
813.274	41.47
813.453	23.04
813.632	33.28
813.811	98.81
813.989	-71.17
814.168	74.24
814.347	-44.54
814.526	2.56
814.704	164.35
814.883	92.67
815.062	-48.64
815.24	66.05
815.419	-30.21
815.598	49.66
815.776	-19.97
815.955	18.94
816.133	-124.41
816.312	59.9
816.49	-1.54
816.669	8.7
816.847	-62.98
817.026	139.77
817.204	-48.64
817.383	6.66
817.561	-36.35
817.74	-44.54
817.918	47.62
818.097	-108.03
818.275	-3.58
818.453	33.28
818.632	-36.35
818.81	41.47
818.988	-11.78
819.167	6.66
819.345	53.76
819.523	-77.31
819.701	43.52
819.879	31.23
820.058	45.57
820.236	-7.68
820.414	-40.45
820.592	39.42
820.77	12.8
820.948	-40.45
821.127	29.18
821.305	33.28
821.483	6.66
821.661	100.86
821.839	-1.54
822.017	-93.69
822.195	4.61
822.373	31.23
822.551	2.56
822.729	39.42
822.907	-65.02
823.085	51.71
823.262	98.81
823.44	-42.5
823.618	-34.3
823.796	74.24
823.974	-19.97
824.152	-38.4
824.329	-99.84
824.507	123.39
824.685	53.76
824.863	6.66
825.04	0.51
825.218	137.73
825.396	57.86
825.574	90.62
825.751	31.23
825.929	66.05
826.107	-120.32
826.284	-38.4
826.462	-5.63
826.639	-89.6
826.817	-32.26
826.994	-11.78
827.172	-56.83
827.349	205.31
827.527	18.94
827.704	10.75
827.882	74.24
828.059	-19.97
828.237	47.62
828.414	70.14
828.591	-101.89
828.769	-1.54
828.946	-30.21
829.124	119.29
829.301	188.93
829.478	-44.54
829.655	35.33
829.833	23.04
830.01	-81.41
830.187	16.9
830.364	94.72
830.542	14.85
830.719	168.45
830.896	4.61
831.073	16.9
831.25	74.24
831.427	88.57
831.604	51.71
831.782	4.61
831.959	31.23
832.136	-85.5
832.313	96.77
832.49	8.7
832.667	47.62
832.844	-13.82
833.021	80.38
833.198	-50.69
833.374	84.48
833.551	145.92
833.728	78.33
833.905	76.29
834.082	-130.56
834.259	59.9
834.436	92.67
834.612	-71.17
834.789	115.2
834.966	-69.12
835.143	-42.5
835.319	-34.3
835.496	39.42
835.673	14.85
835.85	68.09
836.026	-67.07
836.203	113.15
836.38	2.56
836.556	-9.73
836.733	-81.41
836.909	90.62
837.086	86.53
837.262	-26.11
837.439	-56.83
837.616	-44.54
837.792	33.28
837.968	-1.54
838.145	-124.41
838.321	-26.11
838.498	10.75
838.674	43.52
838.851	45.57
839.027	-7.68
839.203	39.42
839.38	66.05
839.556	-30.21
839.732	47.62
839.909	20.99
840.085	35.33
840.261	25.09
840.437	125.44
840.614	-50.69
840.79	55.81
840.966	98.81
841.142	78.33
841.318	-17.92
841.494	-7.68
841.671	45.57
841.847	-5.63
842.023	-91.65
842.199	-15.87
842.375	139.77
842.551	-60.93
842.727	-77.31
842.903	121.34
843.079	2.56
843.255	119.29
843.431	33.28
843.607	72.19
843.783	-200.19
843.959	14.85
844.134	-130.56
844.31	119.29
844.486	41.47
844.662	8.7
844.838	-36.35
845.013	-58.88
845.189	29.18
845.365	-5.63
845.541	-58.88
845.716	2.56
845.892	104.96
846.068	-42.5
846.244	-36.35
846.419	41.47
846.595	-85.5
846.77	-3.58
846.946	68.09
847.122	0.51
847.297	4.61
847.473	127.49
847.648	-89.6
847.824	6.66
847.999	-89.6
848.175	49.66
848.35	82.43
848.526	86.53
848.701	37.38
848.876	39.42
849.052	90.62
849.227	84.48
849.403	29.18
849.578	-56.83
849.753	14.85
849.929	-3.58
850.104	-5.63
850.279	-120.32
850.454	109.05
850.63	51.71
850.805	16.9
850.98	39.42
851.155	47.62
851.33	14.85
851.505	-58.88
851.681	143.87
851.856	-34.3
852.031	64
852.206	-28.16
852.381	-138.75
852.556	70.14
852.731	-44.54
852.906	102.91
853.081	111.1
853.256	86.53
853.431	-87.55
853.606	2.56
853.781	-73.21
853.956	-73.21
854.131	37.38
854.305	-69.12
854.48	43.52
854.655	-101.89
854.83	-46.59
855.005	6.66
855.18	39.42
855.354	16.9
855.529	18.94
855.704	-13.82
855.879	-30.21
856.053	16.9
856.228	31.23
856.403	-9.73
856.577	57.86
856.752	-60.93
856.926	4.61
857.101	-24.06
857.276	-42.5
857.45	-28.16
857.625	143.87
857.799	64
857.974	66.05
858.148	-99.84
858.323	64
858.497	76.29
858.672	-36.35
858.846	-26.11
859.02	111.1
859.195	-24.06
859.369	72.19
859.543	29.18
859.718	-101.89
859.892	16.9
860.066	92.67
860.241	-85.5
860.415	14.85
860.589	-19.97
860.763	-15.87
860.938	-44.54
861.112	18.94
861.286	-34.3
861.46	-9.73
861.634	51.71
861.808	104.96
861.982	-30.21
862.157	-73.21
862.331	-71.17
862.505	-81.41
862.679	-32.26
862.853	-62.98
863.027	-32.26
863.201	166.4
863.375	-75.26
863.549	23.04
863.722	74.24
863.896	14.85
864.07	-44.54
864.244	-67.07
864.418	39.42
864.592	-17.92
864.766	-3.58
864.939	23.04
865.113	-7.68
865.287	31.23
865.461	2.56
865.634	27.14
865.808	-105.98
865.982	-42.5
866.156	-93.69
866.329	-50.69
866.503	25.09
866.676	55.81
866.85	39.42
867.024	-85.5
867.197	51.71
867.371	92.67
867.544	51.71
867.718	-79.36
867.891	127.49
868.065	-11.78
868.238	-15.87
868.412	141.82
868.585	74.24
868.759	-60.93
868.932	18.94
869.105	-54.78
869.279	64
869.452	-40.45
869.625	39.42
869.799	14.85
869.972	-110.08
870.145	-52.74
870.319	35.33
870.492	-7.68
870.665	-9.73
870.838	-85.5
871.011	-105.98
871.185	-24.06
871.358	-58.88
871.531	51.71
871.704	-24.06
871.877	59.9
872.05	-48.64
872.223	-17.92
872.396	-13.82
872.569	57.86
872.742	-103.93
872.915	14.85
873.088	-85.5
873.261	-93.69
873.434	43.52
873.607	-83.45
873.78	39.42
873.953	-167.42
874.126	35.33
874.299	78.33
874.471	-40.45
874.644	-28.16
874.817	96.77
874.99	107.01
875.163	-28.16
875.335	12.8
875.508	16.9
875.681	29.18
875.853	-17.92
876.026	-7.68
876.199	117.25
876.371	10.75
876.544	-46.59
876.717	-44.54
876.889	-67.07
877.062	4.61
877.234	-116.22
877.407	2.56
877.579	-58.88
877.752	27.14
877.924	10.75
878.097	-11.78
878.269	10.75
878.442	33.28
878.614	-17.92
878.786	12.8
878.959	-22.02
879.131	8.7
879.303	-56.83
879.476	-32.26
879.648	76.29
879.82	33.28
879.993	-83.45
880.165	-54.78
880.337	-77.31
880.509	-103.93
880.681	-116.22
880.854	-26.11
881.026	70.14
881.198	45.57
881.37	41.47
881.542	-48.64
881.714	25.09
881.886	6.66
882.058	-71.17
882.23	23.04
882.402	23.04
882.574	-5.63
882.746	92.67
882.918	186.88
883.09	72.19
883.262	-79.36
883.434	6.66
883.606	-83.45
883.778	8.7
883.95	125.44
884.122	-65.02
884.293	18.94
884.465	41.47
884.637	49.66
884.809	-89.6
884.98	-9.73
885.152	35.33
885.324	10.75
885.496	23.04
885.667	-85.5
885.839	-77.31
886.011	86.53
886.182	16.9
886.354	111.1
886.525	39.42
886.697	41.47
886.869	-97.79
887.04	51.71
887.212	80.38
887.383	102.91
887.555	-48.64
887.726	-97.79
887.897	-77.31
888.069	-19.97
888.24	-56.83
888.412	10.75
888.583	-17.92
888.754	37.38
888.926	-118.27
889.097	-1.54
889.268	-77.31
889.44	37.38
889.611	-87.55
889.782	-65.02
889.953	-67.07
890.125	111.1
890.296	-138.75
890.467	-22.02
890.638	-32.26
890.809	-65.02
890.98	-24.06
891.151	115.2
891.323	111.1
891.494	16.9
891.665	23.04
891.836	-7.68
892.007	6.66
892.178	66.05
892.349	49.66
892.52	-42.5
892.691	51.71
892.862	-89.6
893.032	-56.83
893.203	-67.07
893.374	4.61
893.545	158.21
893.716	-79.36
893.887	51.71
894.057	16.9
894.228	-24.06
894.399	-11.78
894.57	37.38
894.74	-48.64
894.911	72.19
895.082	-69.12
895.253	-19.97
895.423	-58.88
895.594	-7.68
895.764	0.51
895.935	8.7
896.106	-22.02
896.276	-67.07
896.447	61.95
896.617	-89.6
896.788	-126.46
896.958	-42.5
897.129	-19.97
897.299	-50.69
897.47	102.91
897.64	39.42
897.81	-13.82
897.981	-19.97
898.151	-34.3
898.322	-3.58
898.492	43.52
898.662	-79.36
898.832	-15.87
899.003	-22.02
899.173	-17.92
899.343	-11.78
899.513	-52.74
