Data from USB4F104151__74__09-29-54-791.txt Node

Date: Wed Feb 26 09:29:54 EST 2025
User: louis
Spectrometer: USB4F10415
Trigger mode: 4
Integration Time (sec): 1.000000E-1
Scans to average: 1
Electric dark correction enabled: true
Nonlinearity correction enabled: false
Boxcar width: 0
XAxis mode: Wavelengths
Number of Pixels in Spectrum: 3648
>>>>>Begin Spectral Data<<<<<
178.204	-333.82
178.424	-333.82
178.644	-333.82
178.864	-407.55
179.084	-376.83
179.304	-2.05
179.524	-10.24
179.744	-49.15
179.964	129.02
180.184	8.19
180.404	59.39
180.624	-16.38
180.844	-14.34
181.064	14.34
181.283	-0
181.503	-79.87
181.723	-38.91
181.943	-163.84
182.163	124.93
182.383	18.43
182.602	36.86
182.822	126.97
183.042	73.73
183.262	-10.24
183.482	14.34
183.701	14.34
183.921	79.87
184.141	10.24
184.361	34.82
184.58	67.58
184.8	-30.72
185.02	-12.29
185.239	94.21
185.459	34.82
185.679	120.83
185.898	-88.06
186.118	83.97
186.338	100.35
186.557	172.03
186.777	-75.77
186.997	90.11
187.216	38.91
187.436	194.56
187.655	120.83
187.875	73.73
188.095	34.82
188.314	188.41
188.534	118.78
188.753	-47.1
188.973	59.39
189.192	112.64
189.412	47.1
189.631	47.1
189.851	20.48
190.07	83.97
190.29	-81.92
190.509	12.29
190.729	106.49
190.948	161.79
191.168	268.28
191.387	141.31
191.607	-12.29
191.826	88.06
192.045	79.87
192.265	106.49
192.484	139.26
192.704	12.29
192.923	-40.96
193.142	190.46
193.362	12.29
193.581	112.64
193.8	118.78
194.02	55.3
194.239	4.1
194.458	30.72
194.678	-14.34
194.897	-18.43
195.116	75.77
195.335	34.82
195.555	-18.43
195.774	38.91
195.993	12.29
196.212	55.3
196.432	-10.24
196.651	2.05
196.87	18.43
197.089	200.7
197.308	-6.14
197.528	-32.77
197.747	-63.49
197.966	59.39
198.185	75.77
198.404	-61.44
198.623	79.87
198.842	20.48
199.062	57.34
199.281	92.16
199.5	-10.24
199.719	55.3
199.938	10.24
200.157	57.34
200.376	71.68
200.595	118.78
200.814	100.35
201.033	18.43
201.252	133.12
201.471	30.72
201.69	96.25
201.909	63.49
202.128	65.53
202.347	96.25
202.566	63.49
202.785	-47.1
203.004	59.39
203.223	149.5
203.442	90.11
203.661	20.48
203.879	26.62
204.098	79.87
204.317	28.67
204.536	63.49
204.755	-18.43
204.974	120.83
205.193	18.43
205.411	186.37
205.63	83.97
205.849	51.2
206.068	-6.14
206.287	-10.24
206.505	198.65
206.724	-32.77
206.943	18.43
207.162	-32.77
207.381	43.01
207.599	16.38
207.818	2.05
208.037	18.43
208.255	22.53
208.474	-30.72
208.693	94.21
208.911	38.91
209.13	-2.05
209.349	-8.19
209.567	53.25
209.786	69.63
210.005	57.34
210.223	67.58
210.442	-61.44
210.661	65.53
210.879	59.39
211.098	38.91
211.316	24.58
211.535	122.88
211.753	-10.24
211.972	145.41
212.191	-0
212.409	61.44
212.628	102.4
212.846	118.78
213.065	-10.24
213.283	96.25
213.502	-4.1
213.72	22.53
213.938	20.48
214.157	22.53
214.375	186.37
214.594	24.58
214.812	40.96
215.031	63.49
215.249	38.91
215.467	114.69
215.686	92.16
215.904	92.16
216.122	32.77
216.341	157.69
216.559	2.05
216.778	145.41
216.996	118.78
217.214	71.68
217.432	6.14
217.651	-49.15
217.869	10.24
218.087	38.91
218.306	-34.82
218.524	43.01
218.742	18.43
218.96	98.3
219.179	-22.53
219.397	55.3
219.615	174.08
219.833	51.2
220.051	-43.01
220.27	47.1
220.488	124.93
220.706	32.77
220.924	-38.91
221.142	2.05
221.36	-47.1
221.578	51.2
221.796	26.62
222.015	40.96
222.233	40.96
222.451	231.42
222.669	30.72
222.887	61.44
223.105	-0
223.323	57.34
223.541	-28.67
223.759	49.15
223.977	-22.53
224.195	133.12
224.413	65.53
224.631	75.77
224.849	18.43
225.067	108.54
225.285	-34.82
225.503	-10.24
225.721	-55.3
225.939	30.72
226.157	67.58
226.375	124.93
226.592	-49.15
226.81	65.53
227.028	90.11
227.246	114.69
227.464	36.86
227.682	96.25
227.9	75.77
228.117	45.06
228.335	81.92
228.553	2.05
228.771	38.91
228.989	2.05
229.206	20.48
229.424	71.68
229.642	-4.1
229.86	-16.38
230.077	141.31
230.295	-38.91
230.513	110.59
230.731	61.44
230.948	178.17
231.166	120.83
231.384	-0
231.601	-14.34
231.819	198.65
232.037	-6.14
232.254	-43.01
232.472	-0
232.689	55.3
232.907	190.46
233.125	-36.86
233.342	-22.53
233.56	-47.1
233.777	2.05
233.995	26.62
234.213	59.39
234.43	-14.34
234.648	-2.05
234.865	55.3
235.083	75.77
235.3	30.72
235.518	61.44
235.735	155.65
235.953	131.07
236.17	124.93
236.388	-10.24
236.605	4.1
236.822	34.82
237.04	108.54
237.257	20.48
237.475	-63.49
237.692	34.82
237.909	24.58
238.127	16.38
238.344	40.96
238.562	106.49
238.779	-6.14
238.996	-10.24
239.214	-10.24
239.431	67.58
239.648	10.24
239.865	51.2
240.083	112.64
240.3	51.2
240.517	-0
240.735	88.06
240.952	49.15
241.169	26.62
241.386	-0
241.603	92.16
241.821	-2.05
242.038	100.35
242.255	122.88
242.472	-14.34
242.689	98.3
242.907	24.58
243.124	38.91
243.341	83.97
243.558	34.82
243.775	-32.77
243.992	43.01
244.209	61.44
244.426	186.37
244.643	30.72
244.86	14.34
245.078	36.86
245.295	-22.53
245.512	20.48
245.729	-36.86
245.946	36.86
246.163	-83.97
246.38	16.38
246.597	63.49
246.814	20.48
247.031	24.58
247.248	14.34
247.464	180.22
247.681	32.77
247.898	86.01
248.115	6.14
248.332	22.53
248.549	178.17
248.766	137.21
248.983	71.68
249.2	32.77
249.417	53.25
249.633	10.24
249.85	34.82
250.067	34.82
250.284	61.44
250.501	67.58
250.717	-30.72
250.934	-4.1
251.151	38.91
251.368	-38.91
251.585	59.39
251.801	51.2
252.018	-16.38
252.235	165.89
252.451	-32.77
252.668	79.87
252.885	88.06
253.102	88.06
253.318	4.1
253.535	51.2
253.752	38.91
253.968	-30.72
254.185	-55.3
254.401	34.82
254.618	100.35
254.835	4.1
255.051	116.73
255.268	81.92
255.484	79.87
255.701	59.39
255.917	63.49
256.134	26.62
256.351	6.14
256.567	-126.97
256.784	104.45
257	-59.39
257.217	45.06
257.433	47.1
257.65	30.72
257.866	120.83
258.082	-59.39
258.299	-73.73
258.515	-47.1
258.732	-92.16
258.948	-20.48
259.165	10.24
259.381	-22.53
259.597	65.53
259.814	-36.86
260.03	16.38
260.246	73.73
260.463	122.88
260.679	161.79
260.895	49.15
261.112	81.92
261.328	18.43
261.544	51.2
261.761	106.49
261.977	-57.34
262.193	-73.73
262.409	51.2
262.626	81.92
262.842	4.1
263.058	38.91
263.274	131.07
263.49	57.34
263.707	14.34
263.923	129.02
264.139	-79.87
264.355	59.39
264.571	75.77
264.787	47.1
265.004	90.11
265.22	8.19
265.436	-14.34
265.652	36.86
265.868	88.06
266.084	-75.77
266.3	-6.14
266.516	-45.06
266.732	108.54
266.948	14.34
267.164	-2.05
267.38	32.77
267.596	20.48
267.812	98.3
268.028	20.48
268.244	-14.34
268.46	38.91
268.676	28.67
268.892	57.34
269.108	-100.35
269.324	-26.62
269.54	-20.48
269.756	90.11
269.972	-28.67
270.188	18.43
270.403	-16.38
270.619	45.06
270.835	59.39
271.051	-14.34
271.267	-92.16
271.483	-12.29
271.698	63.49
271.914	34.82
272.13	34.82
272.346	98.3
272.562	81.92
272.777	106.49
272.993	-38.91
273.209	-16.38
273.425	71.68
273.64	-88.06
273.856	116.73
274.072	-26.62
274.287	10.24
274.503	51.2
274.719	96.25
274.934	-32.77
275.15	-59.39
275.366	16.38
275.581	-6.14
275.797	34.82
276.012	90.11
276.228	-8.19
276.444	16.38
276.659	63.49
276.875	-73.73
277.09	98.3
277.306	-18.43
277.521	137.21
277.737	75.77
277.952	120.83
278.168	38.91
278.383	51.2
278.599	-22.53
278.814	63.49
279.03	30.72
279.245	147.45
279.461	83.97
279.676	81.92
279.892	4.1
280.107	-51.2
280.322	-63.49
280.538	43.01
280.753	36.86
280.969	16.38
281.184	100.35
281.399	167.93
281.615	14.34
281.83	51.2
282.045	6.14
282.26	-22.53
282.476	98.3
282.691	71.68
282.906	-4.1
283.122	4.1
283.337	16.38
283.552	65.53
283.767	-26.62
283.983	116.73
284.198	-22.53
284.413	40.96
284.628	-8.19
284.843	10.24
285.058	30.72
285.274	-24.58
285.489	-30.72
285.704	75.77
285.919	-67.58
286.134	14.34
286.349	36.86
286.564	-18.43
286.779	32.77
286.995	16.38
287.21	-71.68
287.425	34.82
287.64	63.49
287.855	67.58
288.07	14.34
288.285	102.4
288.5	112.64
288.715	81.92
288.93	40.96
289.145	-10.24
289.36	71.68
289.575	-26.62
289.79	163.84
290.004	51.2
290.219	90.11
290.434	-36.86
290.649	55.3
290.864	-6.14
291.079	-14.34
291.294	77.82
291.509	-0
291.724	-49.15
291.938	30.72
292.153	-30.72
292.368	2.05
292.583	26.62
292.798	59.39
293.012	32.77
293.227	36.86
293.442	-20.48
293.657	112.64
293.871	30.72
294.086	2.05
294.301	186.37
294.516	172.03
294.73	90.11
294.945	-24.58
295.16	124.93
295.374	116.73
295.589	63.49
295.804	10.24
296.018	73.73
296.233	94.21
296.447	55.3
296.662	-16.38
296.877	79.87
297.091	83.97
297.306	47.1
297.52	36.86
297.735	88.06
297.949	8.19
298.164	43.01
298.378	22.53
298.593	-18.43
298.807	-71.68
299.022	-4.1
299.236	143.36
299.451	30.72
299.665	83.97
299.88	34.82
300.094	22.53
300.309	49.15
300.523	14.34
300.737	-24.58
300.952	38.91
301.166	-2.05
301.381	-4.1
301.595	38.91
301.809	-6.14
302.024	-22.53
302.238	43.01
302.452	106.49
302.667	-14.34
302.881	83.97
303.095	86.01
303.309	-6.14
303.524	32.77
303.738	49.15
303.952	-38.91
304.166	51.2
304.381	-73.73
304.595	92.16
304.809	-26.62
305.023	-6.14
305.237	59.39
305.452	8.19
305.666	88.06
305.88	71.68
306.094	10.24
306.308	43.01
306.522	30.72
306.736	71.68
306.95	110.59
307.164	53.25
307.379	67.58
307.593	120.83
307.807	169.98
308.021	51.2
308.235	67.58
308.449	-59.39
308.663	-65.54
308.877	172.03
309.091	100.35
309.305	51.2
309.519	-88.06
309.733	83.97
309.947	-55.3
310.161	71.68
310.374	163.84
310.588	49.15
310.802	-30.72
311.016	-79.87
311.23	55.3
311.444	-40.96
311.658	53.25
311.872	65.53
312.085	100.35
312.299	45.06
312.513	149.5
312.727	22.53
312.941	24.58
313.154	61.44
313.368	34.82
313.582	73.73
313.796	77.82
314.009	92.16
314.223	124.93
314.437	24.58
314.651	71.68
314.864	2.05
315.078	-22.53
315.292	-51.2
315.505	55.3
315.719	53.25
315.933	63.49
316.146	-65.54
316.36	-22.53
316.573	98.3
316.787	45.06
317.001	116.73
317.214	-51.2
317.428	2.05
317.641	-65.54
317.855	10.24
318.068	63.49
318.282	55.3
318.495	182.27
318.709	36.86
318.922	-73.73
319.136	92.16
319.349	90.11
319.563	-12.29
319.776	28.67
319.99	-10.24
320.203	71.68
320.417	43.01
320.63	108.54
320.843	126.97
321.057	71.68
321.27	-40.96
321.483	-10.24
321.697	116.73
321.91	83.97
322.124	110.59
322.337	63.49
322.55	10.24
322.763	69.63
322.977	18.43
323.19	18.43
323.403	51.2
323.617	43.01
323.83	57.34
324.043	71.68
324.256	67.58
324.469	-30.72
324.683	71.68
324.896	135.17
325.109	26.62
325.322	-53.25
325.535	190.46
325.748	133.12
325.962	75.77
326.175	83.97
326.388	49.15
326.601	120.83
326.814	-2.05
327.027	61.44
327.24	180.22
327.453	-16.38
327.666	88.06
327.879	71.68
328.092	55.3
328.305	73.73
328.518	-38.91
328.731	36.86
328.944	81.92
329.157	36.86
329.37	-43.01
329.583	165.89
329.796	163.84
330.009	-34.82
330.222	210.94
330.435	2.05
330.648	18.43
330.861	40.96
331.073	69.63
331.286	122.88
331.499	135.17
331.712	-71.68
331.925	88.06
332.138	-8.19
332.35	63.49
332.563	32.77
332.776	102.4
332.989	24.58
333.202	-26.62
333.414	-0
333.627	-26.62
333.84	-30.72
334.053	65.53
334.265	-30.72
334.478	49.15
334.691	18.43
334.903	40.96
335.116	-14.34
335.329	45.06
335.541	116.73
335.754	208.89
335.966	12.29
336.179	-45.06
336.392	24.58
336.604	-57.34
336.817	30.72
337.029	129.02
337.242	-10.24
337.454	79.87
337.667	10.24
337.88	133.12
338.092	157.69
338.305	43.01
338.517	53.25
338.729	55.3
338.942	122.88
339.154	45.06
339.367	-65.54
339.579	57.34
339.792	53.25
340.004	63.49
340.217	47.1
340.429	16.38
340.641	6.14
340.854	51.2
341.066	51.2
341.278	83.97
341.491	202.75
341.703	49.15
341.915	-34.82
342.128	61.44
342.34	51.2
342.552	-53.25
342.764	-65.54
342.977	43.01
343.189	100.35
343.401	47.1
343.613	-104.45
343.826	131.07
344.038	-16.38
344.25	38.91
344.462	6.14
344.674	26.62
344.886	51.2
345.099	53.25
345.311	12.29
345.523	8.19
345.735	-96.25
345.947	38.91
346.159	98.3
346.371	-32.77
346.583	22.53
346.795	153.6
347.007	-32.77
347.219	75.77
347.431	-16.38
347.643	120.83
347.855	-57.34
348.067	120.83
348.279	71.68
348.491	40.96
348.703	71.68
348.915	83.97
349.127	-49.15
349.339	81.92
349.551	2.05
349.763	63.49
349.975	28.67
350.187	34.82
350.399	184.32
350.61	65.53
350.822	-10.24
351.034	18.43
351.246	100.35
351.458	100.35
351.669	28.67
351.881	90.11
352.093	108.54
352.305	116.73
352.517	129.02
352.728	210.94
352.94	67.58
353.152	40.96
353.363	-104.45
353.575	81.92
353.787	122.88
353.999	77.82
354.21	215.04
354.422	51.2
354.633	-26.62
354.845	30.72
355.057	34.82
355.268	28.67
355.48	92.16
355.692	-20.48
355.903	45.06
356.115	47.1
356.326	-61.44
356.538	145.41
356.749	83.97
356.961	157.69
357.172	67.58
357.384	-63.49
357.595	223.23
357.807	22.53
358.018	-22.53
358.23	2.05
358.441	159.74
358.653	-16.38
358.864	65.53
359.075	-55.3
359.287	59.39
359.498	28.67
359.709	83.97
359.921	88.06
360.132	69.63
360.344	-0
360.555	10.24
360.766	51.2
360.977	34.82
361.189	90.11
361.4	-16.38
361.611	77.82
361.823	147.45
362.034	100.35
362.245	-141.31
362.456	55.3
362.667	34.82
362.879	71.68
363.09	49.15
363.301	86.01
363.512	-14.34
363.723	83.97
363.935	2.05
364.146	30.72
364.357	26.62
364.568	71.68
364.779	-98.3
364.99	51.2
365.201	63.49
365.412	108.54
365.623	-55.3
365.834	69.63
366.045	-22.53
366.256	-0
366.467	61.44
366.678	20.48
366.889	30.72
367.1	16.38
367.311	75.77
367.522	-30.72
367.733	47.1
367.944	43.01
368.155	45.06
368.366	67.58
368.577	75.77
368.788	24.58
368.999	2.05
369.209	63.49
369.42	129.02
369.631	182.27
369.842	106.49
370.053	2.05
370.264	163.84
370.474	-32.77
370.685	90.11
370.896	106.49
371.107	90.11
371.317	83.97
371.528	34.82
371.739	51.2
371.95	116.73
372.16	28.67
372.371	-47.1
372.582	-75.77
372.792	86.01
373.003	57.34
373.214	98.3
373.424	59.39
373.635	-65.54
373.846	92.16
374.056	6.14
374.267	57.34
374.477	26.62
374.688	-38.91
374.898	12.29
375.109	63.49
375.319	-18.43
375.53	190.46
375.74	75.77
375.951	83.97
376.161	81.92
376.372	43.01
376.582	-20.48
376.793	92.16
377.003	-22.53
377.214	-24.58
377.424	71.68
377.635	75.77
377.845	-32.77
378.055	131.07
378.266	-24.58
378.476	79.87
378.686	38.91
378.897	43.01
379.107	108.54
379.317	100.35
379.528	30.72
379.738	100.35
379.948	-30.72
380.158	12.29
380.369	22.53
380.579	30.72
380.789	63.49
380.999	92.16
381.21	98.3
381.42	120.83
381.63	77.82
381.84	61.44
382.05	63.49
382.261	114.69
382.471	139.26
382.681	-0
382.891	90.11
383.101	67.58
383.311	-22.53
383.521	16.38
383.731	-8.19
383.941	126.97
384.151	122.88
384.361	-16.38
384.571	47.1
384.781	6.14
384.991	215.04
385.201	106.49
385.411	147.45
385.621	73.73
385.831	81.92
386.041	-24.58
386.251	63.49
386.461	100.35
386.671	59.39
386.881	86.01
387.091	47.1
387.301	79.87
387.511	92.16
387.72	81.92
387.93	65.53
388.14	-122.88
388.35	32.77
388.56	81.92
388.769	143.36
388.979	114.69
389.189	-43.01
389.399	96.25
389.609	26.62
389.818	159.74
390.028	38.91
390.238	-10.24
390.447	24.58
390.657	12.29
390.867	88.06
391.076	-2.05
391.286	26.62
391.496	110.59
391.705	4.1
391.915	165.89
392.125	112.64
392.334	61.44
392.544	83.97
392.753	79.87
392.963	-36.86
393.172	2.05
393.382	-38.91
393.591	126.97
393.801	8.19
394.01	112.64
394.22	90.11
394.429	2.05
394.639	18.43
394.848	79.87
395.058	104.45
395.267	71.68
395.477	110.59
395.686	26.62
395.895	141.31
396.105	157.69
396.314	14.34
396.524	2.05
396.733	-26.62
396.942	100.35
397.152	98.3
397.361	110.59
397.57	100.35
397.78	12.29
397.989	124.93
398.198	202.75
398.407	112.64
398.617	43.01
398.826	36.86
399.035	-8.19
399.244	10.24
399.453	24.58
399.663	24.58
399.872	36.86
400.081	-20.48
400.29	178.17
400.499	-22.53
400.708	73.73
400.917	-47.1
401.127	67.58
401.336	63.49
401.545	223.23
401.754	98.3
401.963	81.92
402.172	30.72
402.381	-32.77
402.59	22.53
402.799	63.49
403.008	124.93
403.217	100.35
403.426	24.58
403.635	-8.19
403.844	59.39
404.053	30.72
404.262	26.62
404.471	129.02
404.68	34.82
404.888	90.11
405.097	36.86
405.306	114.69
405.515	92.16
405.724	43.01
405.933	129.02
406.142	149.5
406.35	157.69
406.559	-10.24
406.768	20.48
406.977	61.44
407.185	22.53
407.394	172.03
407.603	-51.2
407.812	45.06
408.02	83.97
408.229	18.43
408.438	77.82
408.646	-47.1
408.855	16.38
409.064	92.16
409.272	79.87
409.481	88.06
409.69	30.72
409.898	-49.15
410.107	153.6
410.315	165.89
410.524	18.43
410.733	116.73
410.941	157.69
411.15	102.4
411.358	22.53
411.567	145.41
411.775	88.06
411.984	24.58
412.192	69.63
412.401	34.82
412.609	149.5
412.818	145.41
413.026	10.24
413.234	75.77
413.443	-26.62
413.651	34.82
413.86	102.4
414.068	147.45
414.276	192.51
414.485	30.72
414.693	135.17
414.901	186.37
415.11	18.43
415.318	51.2
415.526	-18.43
415.734	180.22
415.943	104.45
416.151	114.69
416.359	81.92
416.567	73.73
416.776	86.01
416.984	98.3
417.192	137.21
417.4	-4.1
417.608	57.34
417.817	26.62
418.025	133.12
418.233	139.26
418.441	26.62
418.649	-4.1
418.857	98.3
419.065	215.04
419.273	-16.38
419.481	49.15
419.689	75.77
419.897	59.39
420.105	-4.1
420.313	151.55
420.521	147.45
420.729	180.22
420.937	90.11
421.145	24.58
421.353	135.17
421.561	143.36
421.769	65.53
421.977	55.3
422.185	106.49
422.393	96.25
422.601	71.68
422.809	163.84
423.017	100.35
423.224	92.16
423.432	71.68
423.64	-4.1
423.848	165.89
424.056	90.11
424.263	106.49
424.471	24.58
424.679	178.17
424.887	38.91
425.094	157.69
425.302	67.58
425.51	36.86
425.718	190.46
425.925	90.11
426.133	43.01
426.341	206.84
426.548	77.82
426.756	34.82
426.964	192.51
427.171	14.34
427.379	137.21
427.586	51.2
427.794	92.16
428.001	190.46
428.209	92.16
428.417	194.56
428.624	145.41
428.832	229.37
429.039	159.74
429.247	106.49
429.454	153.6
429.662	256
429.869	149.5
430.076	98.3
430.284	180.22
430.491	245.76
430.699	163.84
430.906	231.42
431.114	124.93
431.321	206.84
431.528	116.73
431.736	194.56
431.943	266.24
432.15	227.32
432.358	163.84
432.565	313.34
432.772	20.48
432.979	299
433.187	227.32
433.394	325.63
433.601	192.51
433.808	370.68
434.016	260.09
434.223	268.28
434.43	247.8
434.637	350.2
434.844	352.25
435.052	284.67
435.259	346.11
435.466	395.26
435.673	346.11
435.88	485.37
436.087	376.83
436.294	397.31
436.501	481.27
436.708	364.54
436.915	350.2
437.122	477.18
437.329	325.63
437.537	497.66
437.743	413.69
437.95	622.58
438.157	530.42
438.364	583.67
438.571	495.61
438.778	559.1
438.985	624.63
439.192	649.21
439.399	606.2
439.606	681.97
439.813	641.01
440.02	704.5
440.227	860.15
440.433	641.01
440.64	661.49
440.847	827.38
441.054	911.35
441.261	915.44
441.467	880.63
441.674	819.19
441.881	964.59
442.088	968.69
442.294	999.41
442.501	1087.47
442.708	1165.29
442.914	1064.94
443.121	1222.64
443.328	1140.72
443.534	1320.94
443.741	1322.99
443.948	1308.65
444.154	1398.76
444.361	1513.45
444.568	1525.74
444.774	1460.2
444.981	1501.16
445.187	1617.9
445.394	1687.53
445.6	1613.8
445.807	1859.56
446.013	1869.8
446.22	1869.8
446.426	2039.78
446.633	2060.26
446.839	2351.07
447.046	2045.92
447.252	2473.95
447.459	2439.13
447.665	2357.21
447.871	2615.26
448.078	2758.61
448.284	2729.94
448.491	2887.64
448.697	2983.89
448.903	3129.3
449.11	3016.66
449.316	3157.97
449.522	3432.4
449.728	3553.23
449.935	3663.82
450.141	3665.86
450.347	3995.59
450.553	3672.01
450.76	4032.45
450.966	4229.06
451.172	4249.54
451.378	4540.35
451.584	4583.35
451.791	4761.53
451.997	5070.77
452.203	5117.87
452.409	5228.46
452.615	5617.58
452.821	5609.39
453.027	5607.34
453.233	6258.59
453.44	6121.38
453.646	6371.23
453.852	6475.68
454.058	6940.57
454.264	7167.89
454.47	7718.79
454.676	7595.92
454.882	8169.35
455.088	8028.04
455.294	8376.19
455.5	8836.99
455.705	9453.42
455.911	9488.24
456.117	9586.54
456.323	9914.22
456.529	10008.42
456.735	10958.68
456.941	11267.92
457.147	11513.68
457.352	11953.99
457.558	12412.74
457.764	12939.07
457.97	13518.64
458.176	14028.59
458.381	14802.72
458.587	14843.68
458.793	15337.24
458.999	15539.99
459.204	17635.06
459.41	18224.87
459.616	17979.12
459.821	18753.25
460.027	19816.15
460.233	20580.04
460.438	20760.26
460.644	21626.55
460.85	22220.46
461.055	22615.72
461.261	24094.35
461.466	23563.93
461.672	23883.41
461.878	26893.93
462.083	26496.62
462.289	27389.53
462.494	27997.78
462.7	28429.9
462.905	29204.03
463.111	31010.34
463.316	32501.26
463.522	32830.99
463.727	34252.28
463.932	35628.51
464.138	36556.24
464.343	38051.26
464.549	38303.16
464.754	40574.36
464.959	42036.61
465.165	42442.1
465.37	42218.88
465.575	42016.13
465.781	44637.53
465.986	46083.39
466.191	45634.89
466.397	45833.54
466.602	44854.61
466.807	47312.17
467.012	47934.76
467.218	48903.45
467.423	49212.69
467.628	50257.15
467.833	52653.28
468.038	51985.64
468.244	51051.76
468.449	53282
468.654	52675.8
468.859	52632.8
469.064	52460.77
469.269	51279.09
469.474	51418.35
469.679	52841.69
469.885	51498.22
470.09	52075.75
470.295	52178.15
470.5	51655.92
470.705	51487.98
470.91	50375.94
471.115	50162.95
471.32	50423.04
471.525	50486.53
471.73	48768.28
471.935	48506.14
472.139	47062.32
472.344	47170.86
472.549	46243.13
472.754	45329.74
472.959	44942.67
473.164	43023.73
473.369	42892.66
473.574	43824.48
473.778	42782.07
473.983	42159.48
474.188	41516.42
474.393	39337.38
474.598	39232.94
474.802	38450.61
475.007	38286.78
475.212	37545.41
475.417	36117.98
475.621	35716.57
475.826	35515.87
476.031	34756.08
476.235	33644.03
476.44	33877.5
476.645	33009.16
476.849	32933.39
477.054	32206.36
477.259	31473.18
477.463	31491.62
477.668	30266.93
477.872	30443.06
478.077	29855.29
478.282	28989
478.486	28509.77
478.691	28345.94
478.895	28409.42
479.1	27772.5
479.304	27631.19
479.509	26746.47
479.713	26629.74
479.918	26621.55
480.122	25917.04
480.326	26300.01
480.531	25892.47
480.735	25773.69
480.94	25572.99
481.144	26064.5
481.348	25032.32
481.553	24858.24
481.757	24247.95
481.961	24528.52
482.166	24698.5
482.37	24487.56
482.574	23488.15
482.778	23869.08
482.983	23715.48
483.187	23580.31
483.391	23326.36
483.595	22933.15
483.8	22767.27
484.004	22814.37
484.208	22718.12
484.412	22202.03
484.616	22034.1
484.821	21784.24
485.025	21030.59
485.229	21292.73
485.433	21243.58
485.637	20840.13
485.841	20305.61
486.045	20340.43
486.249	19977.94
486.453	19732.18
486.657	19439.32
486.861	19255
487.065	18534.12
487.269	18419.43
487.473	17872.62
487.677	18247.4
487.881	18073.32
488.085	17413.88
488.289	17385.21
488.493	16703.23
488.697	16437
488.901	16238.34
489.105	15953.68
489.309	15871.76
489.512	15423.25
489.716	15251.22
489.92	15003.42
490.124	14649.12
490.328	14681.89
490.531	14247.72
490.735	14059.31
490.939	13735.73
491.143	13313.84
491.346	13264.69
491.55	13070.14
491.754	12785.47
491.958	12554.05
492.161	12494.66
492.365	12353.35
492.569	12074.82
492.772	11849.55
492.976	11824.97
493.18	11421.52
493.383	11558.74
493.587	11312.98
493.79	11345.75
493.994	11097.94
494.197	11102.04
494.401	11046.74
494.605	10700.64
494.808	10768.22
495.012	10651.49
495.215	10422.11
495.419	10487.65
495.622	10340.19
495.825	10477.41
496.029	10047.33
496.232	10159.97
496.436	10147.69
496.639	10139.49
496.843	10334.05
497.046	10086.25
497.249	10235.75
497.453	10274.66
497.656	10078.05
497.859	10176.36
498.063	10159.97
498.266	10385.25
498.469	10078.05
498.673	10274.66
498.876	10426.21
499.079	10379.11
499.282	10280.8
499.485	10624.86
499.689	10528.61
499.892	10805.08
500.095	10440.54
500.298	10772.32
500.501	10606.43
500.705	10733.4
500.908	10858.33
501.111	11126.61
501.314	11120.47
501.517	11368.27
501.72	11331.41
501.923	11284.31
502.126	11587.41
502.329	11788.11
502.532	11917.13
502.735	11751.24
502.938	12148.55
503.141	12271.43
503.344	12328.77
503.547	12539.71
503.75	12597.06
503.953	12762.94
504.156	12740.41
504.359	13233.97
504.562	13254.45
504.765	13467.44
504.968	13645.62
505.17	13965.1
505.373	14006.06
505.576	14339.88
505.779	14796.57
505.982	14649.12
506.185	15159.06
506.387	15269.65
506.59	15593.23
506.793	15867.66
506.996	15871.76
507.198	16334.6
507.401	16662.27
507.604	16983.8
507.807	17336.06
508.009	17391.35
508.212	18009.84
508.415	18446.05
508.617	18644.71
508.82	18982.62
509.022	19152.6
509.225	19820.24
509.428	20270.79
509.63	20577.99
509.833	21016.26
510.035	21634.74
510.238	21569.21
510.44	22159.02
510.643	22738.6
510.845	23307.93
511.048	23670.42
511.25	23932.56
511.453	24835.72
511.655	25982.58
511.858	25538.17
512.06	26181.23
512.262	26781.29
512.465	27418.21
512.667	27676.25
512.87	28694.09
513.072	29314.62
513.274	30072.37
513.477	30488.11
513.679	31170.08
513.881	32167.45
514.084	32517.65
514.286	33332.74
514.488	33672.7
514.69	34848.24
514.893	35249.64
515.095	36013.53
515.297	36734.42
515.499	37176.78
515.701	38147.51
515.904	39112.11
516.106	39493.03
516.308	40525.21
516.51	41432.46
516.712	41686.4
516.914	42659.19
517.116	43517.29
517.318	44152.16
517.52	44811.6
517.722	45495.63
517.925	46447.93
518.127	47641.9
518.329	48360.73
518.531	48008.48
518.733	49356.05
518.935	50363.65
519.136	50517.25
519.338	51580.14
519.54	52251.87
519.742	53392.59
519.944	53619.92
520.146	54604.99
520.348	55073.98
520.55	55645.36
520.752	56159.4
520.954	57457.81
521.155	56968.35
521.357	58317.96
521.559	58735.74
521.761	59198.58
521.963	59790.45
522.164	60257.38
522.366	60267.62
522.568	61031.52
522.77	61525.08
522.971	62049.36
523.173	61549.65
523.375	62417.99
523.576	62467.14
523.778	62434.38
523.98	62835.78
524.181	63278.14
524.383	63478.84
524.584	63855.67
524.786	63767.6
524.988	63802.42
525.189	63818.8
525.391	63855.67
525.592	63855.67
525.794	63855.67
525.995	63769.65
526.197	63573.05
526.398	63738.93
526.6	63855.67
526.801	63636.53
527.003	63607.86
527.204	62983.23
527.406	63138.88
527.607	62782.53
527.808	62831.68
528.01	61656.15
528.211	61576.28
528.412	62135.37
528.614	61396.06
528.815	61158.49
529.016	61039.71
529.218	59864.17
529.419	59591.79
529.62	59124.86
529.822	58551.43
530.023	58559.62
530.224	58051.72
530.425	57238.68
530.626	56356
530.828	55344.31
531.029	55915.69
531.23	55200.95
531.431	54193.35
531.632	54078.66
531.833	53408.98
532.035	52268.26
532.236	52030.69
532.437	51703.02
532.638	50535.68
532.839	50498.81
533.04	49964.29
533.241	48852.25
533.442	48749.85
533.643	47920.42
533.844	47084.85
534.045	46634.3
534.246	46079.3
534.447	45581.64
534.648	44750.17
534.849	44406.11
535.05	43292.01
535.251	43052.4
535.451	42536.31
535.652	41864.58
535.853	41481.61
536.054	40832.4
536.255	40842.64
536.456	39447.97
536.657	39757.22
536.857	38669.75
537.058	38278.58
537.259	37932.48
537.46	37561.79
537.66	36625.87
537.861	36173.27
538.062	35581.41
538.263	35362.28
538.463	34948.59
538.664	34303.48
538.865	34297.33
539.065	33662.46
539.266	32976.39
539.466	33056.26
539.667	32034.33
539.868	32390.67
540.068	31626.78
540.269	31510.05
540.469	31309.35
540.67	30484.01
540.87	30258.74
541.071	29730.36
541.271	29759.03
541.472	29498.94
541.672	28769.87
541.873	28667.47
542.073	27903.57
542.274	27952.73
542.474	27260.51
542.675	27235.94
542.875	27213.41
543.075	26736.23
543.276	26252.91
543.476	26197.62
543.676	25724.54
543.877	25702.01
544.077	25691.77
544.277	25067.14
544.478	24620.68
544.678	24321.68
544.878	23797.4
545.078	24213.13
545.279	23465.63
545.479	23131.81
545.679	23350.94
545.879	22904.48
546.079	22673.06
546.28	22234.8
546.48	22038.19
546.68	21495.48
546.88	21274.3
547.08	21368.51
547.28	21124.8
547.48	20747.97
547.68	20686.53
547.88	20070.09
548.081	20084.43
548.281	19687.12
548.481	19408.6
548.681	19547.86
548.881	18980.57
549.081	18702.05
549.28	18448.1
549.48	18108.14
549.68	18050.8
549.88	17788.66
550.08	17229.56
550.28	17366.78
550.48	17243.9
550.68	16819.97
550.88	16262.92
551.08	16307.98
551.279	16258.82
551.479	15449.88
551.679	15914.77
551.879	15445.78
552.079	15126.3
552.278	14909.21
552.478	15001.37
552.678	14499.62
552.878	14669.6
553.077	13981.48
553.277	13700.91
553.477	13737.77
553.676	13471.54
553.876	13311.8
554.076	13059.9
554.275	13066.04
554.475	12451.65
554.674	12605.25
554.874	12345.16
555.074	12148.55
555.273	11851.6
555.473	11837.26
555.672	11509.58
555.872	11358.03
556.071	11065.18
556.271	11048.79
556.47	10987.35
556.67	10622.81
556.869	10438.5
557.068	10315.62
557.268	10180.45
557.467	9928.55
557.667	9881.45
557.866	9838.44
558.065	9316.21
558.265	9340.79
558.464	9217.91
558.663	9279.35
558.863	9144.18
559.062	8857.46
559.261	8613.76
559.461	8568.7
559.66	8339.33
559.859	8236.93
560.058	7919.5
560.258	7958.41
560.457	7692.17
560.656	7915.4
560.855	7538.57
561.054	7423.89
561.253	7372.69
561.453	7243.67
561.652	7307.15
561.851	7108.5
562.05	6997.91
562.249	6637.47
562.448	6709.15
562.647	6649.75
562.846	6469.53
563.045	6512.54
563.244	6289.31
563.443	6234.02
563.642	6115.23
563.841	6123.43
564.04	6010.79
564.239	6002.6
564.438	5722.02
564.637	5765.03
564.836	5795.75
565.035	5490.6
565.234	5427.12
565.432	5377.97
565.631	5380.01
565.83	5248.94
566.029	5027.76
566.228	5113.78
566.427	4992.95
566.625	4894.65
566.824	4933.56
567.023	4870.07
567.222	4526.01
567.42	4628.41
567.619	4624.31
567.818	4640.7
568.016	4650.94
568.215	4562.87
568.414	4433.85
568.612	4310.97
568.811	4224.96
569.01	4110.27
569.208	4106.18
569.407	3964.87
569.605	4030.4
569.804	3981.25
570.002	3889.09
570.201	3899.33
570.4	3739.59
570.598	3592.14
570.797	3774.41
570.995	3532.75
571.193	3547.08
571.392	3479.5
571.59	3393.48
571.789	3545.03
571.987	3436.49
572.186	3303.37
572.384	3131.34
572.582	3289.04
572.781	3243.98
572.979	3053.52
573.177	3157.97
573.376	3061.71
573.574	3082.19
573.772	3033.04
573.971	2834.39
574.169	2785.24
574.367	2826.2
574.565	2623.45
574.763	2725.85
574.962	2787.29
575.16	2584.54
575.358	2578.39
575.556	2605.02
575.754	2516.95
575.952	2426.84
576.151	2492.38
576.349	2422.75
576.547	2301.92
576.745	2359.26
576.943	2437.08
577.141	2238.43
577.339	2168.8
577.537	2232.29
577.735	2205.66
577.933	2211.81
578.131	2066.4
578.329	2062.3
578.527	1982.43
578.725	2148.32
578.923	1869.8
579.121	2004.96
579.319	1804.26
579.516	1804.26
579.714	1892.32
579.912	1810.4
580.11	1714.15
580.308	1796.07
580.506	1673.19
580.704	1605.61
580.901	1665
581.099	1705.96
581.297	1705.96
581.495	1558.5
581.692	1540.07
581.89	1566.7
582.088	1621.99
582.285	1503.21
582.483	1470.44
582.681	1472.49
582.878	1452.01
583.076	1380.33
583.274	1423.34
583.471	1462.25
583.669	1357.8
583.866	1279.98
584.064	1288.17
584.262	1357.8
584.459	1296.36
584.657	1341.42
584.854	1376.23
585.052	1277.93
585.249	1304.56
585.447	1167.34
585.644	1140.72
585.841	1239.02
586.039	1181.68
586.236	1196.01
586.434	1075.18
586.631	1118.19
586.828	1056.75
587.026	1107.95
587.223	1013.74
587.42	993.26
587.618	983.02
587.815	1120.24
588.012	993.26
588.21	950.26
588.407	1253.36
588.604	1030.13
588.801	968.69
588.999	944.11
589.196	1001.46
589.393	999.41
589.59	942.07
589.787	915.44
589.984	958.45
590.182	974.83
590.379	825.33
590.576	942.07
590.773	872.43
590.97	870.39
591.167	899.06
591.364	843.76
591.561	937.97
591.758	952.31
591.955	876.53
592.152	837.62
592.349	903.15
592.546	817.14
592.743	796.66
592.94	870.39
593.137	897.01
593.334	911.35
593.531	886.77
593.727	923.63
593.924	874.48
594.121	749.56
594.318	837.62
594.515	831.48
594.712	1083.38
594.908	985.07
595.105	761.84
595.302	958.45
595.499	933.87
595.696	989.17
595.892	935.92
596.089	1071.09
596.286	985.07
596.482	1222.64
596.679	1177.58
596.876	997.36
597.072	1128.43
597.269	1216.49
597.466	1228.78
597.662	1193.97
597.859	1179.63
598.055	1216.49
598.252	1279.98
598.448	1265.64
598.645	1404.91
598.841	1423.34
599.038	1581.03
599.234	1568.74
599.431	1572.84
599.627	1585.13
599.824	1763.3
600.02	1667.05
600.217	1748.97
600.413	1951.71
600.609	2000.87
600.806	2238.43
601.002	2129.89
601.198	2062.3
601.395	2246.62
601.591	2377.69
601.787	2367.45
601.984	2623.45
602.18	2504.67
602.376	2742.23
602.572	2858.96
602.769	3024.85
602.965	2916.31
603.161	3155.92
603.357	3278.8
603.553	3393.48
603.75	3254.22
603.946	3557.32
604.142	3661.77
604.338	3958.72
604.534	3925.96
604.73	4114.37
604.926	4202.43
605.122	4261.82
605.318	4351.93
605.514	4671.42
605.71	4630.46
605.906	4964.28
606.102	5089.2
606.298	5253.04
606.494	5347.25
606.69	5453.74
606.886	5674.92
607.082	5500.84
607.278	5922.73
607.474	5998.5
607.67	6406.05
607.866	6336.42
608.062	6883.22
608.257	6909.85
608.453	7055.25
608.649	7163.79
608.845	7372.69
609.041	7448.46
609.236	7813
609.432	8212.35
609.628	8288.13
609.824	8456.06
610.019	8554.37
610.215	9027.45
610.411	9375.6
610.606	9529.2
610.802	9566.06
610.998	9914.22
611.193	10297.19
611.389	10370.91
611.584	10772.32
611.78	10706.78
611.976	11521.87
612.171	11906.89
612.367	11677.52
612.562	12074.82
612.758	12339.01
612.953	12547.9
613.149	13201.21
613.344	13496.11
613.539	13844.27
613.735	14153.51
613.93	14473
614.126	14790.43
614.321	15515.41
614.517	15978.25
614.712	15963.92
614.907	16490.24
615.103	16903.93
615.298	17239.8
615.493	18304.74
615.688	18337.51
615.884	18939.62
616.079	19085.02
616.274	20123.34
616.47	20041.42
616.665	20645.57
616.86	21122.75
617.055	21612.21
617.25	21966.51
617.445	22886.05
617.641	23525.02
617.836	24032.91
618.031	24084.11
618.226	25022.08
618.421	25513.59
618.616	26396.27
618.811	26711.66
619.006	27823.7
619.201	27700.83
619.396	28702.28
619.591	28931.65
619.786	30146.1
619.981	30299.7
620.176	31217.19
620.371	31677.98
620.566	32437.78
620.761	33136.13
620.956	33918.46
621.151	34477.55
621.346	35337.7
621.541	35223.01
621.735	36546
621.93	36582.87
622.125	37647.81
622.32	37815.74
622.515	38888.88
622.709	39460.26
622.904	40248.73
623.099	40578.45
623.294	41840
623.488	41905.54
623.683	43249
623.878	43267.44
624.072	44350.81
624.267	45233.49
624.462	45960.51
624.656	45825.35
624.851	46896.44
625.046	47574.31
625.24	48411.93
625.435	48516.38
625.629	49722.63
625.824	50023.68
626.018	50896.12
626.213	50676.99
626.407	52030.69
626.602	51948.78
626.796	52907.22
626.991	53443.79
627.185	53611.73
627.38	53599.44
627.574	54301.89
627.768	54559.94
627.963	54621.37
628.157	54922.43
628.352	55766.19
628.546	54664.38
628.74	56032.42
628.935	55014.58
629.129	55364.79
629.323	54650.05
629.517	54654.14
629.712	54109.38
629.906	54418.63
630.1	53322.96
630.294	53146.84
630.489	52444.38
630.683	52548.83
630.877	50863.35
631.071	50457.85
631.265	50466.05
631.459	48450.84
631.653	47658.28
631.848	47052.08
632.042	45753.67
632.236	45329.74
632.43	43717.99
632.624	43081.07
632.818	41622.92
633.012	39941.53
633.206	38630.83
633.4	38018.49
633.594	36244.95
633.788	35397.09
633.982	34229.75
634.176	33033.74
634.369	31651.36
634.563	30547.5
634.757	29306.43
634.951	28550.73
635.145	27518.56
635.339	26535.53
635.533	25157.25
635.726	24450.7
635.92	22994.59
636.114	22488.74
636.308	21391.03
636.501	20479.69
636.695	19687.12
636.889	18937.57
637.083	18058.99
637.276	17395.45
637.47	16645.89
637.664	16340.74
637.857	15435.54
638.051	14970.65
638.244	14120.74
638.438	13641.52
638.632	13041.46
638.825	12334.92
639.019	12144.45
639.212	11716.43
639.406	11206.48
639.599	10592.09
639.793	10256.23
639.986	9832.3
640.18	9611.12
640.373	8931.19
640.567	8675.2
640.76	8374.14
640.954	8046.47
641.147	7970.69
641.34	7415.69
641.534	7294.86
641.727	6971.29
641.92	7004.05
642.114	6352.8
642.307	6191.01
642.5	6027.17
642.694	5558.19
642.887	5531.56
643.08	5437.36
643.273	5134.26
643.467	4870.07
643.66	4745.14
643.853	4589.5
644.046	4343.74
644.239	4253.63
644.432	3944.39
644.626	3762.12
644.819	3657.67
645.012	3518.41
645.205	3612.62
645.398	3391.44
645.591	3336.14
645.784	3164.11
645.977	2877.4
646.17	2789.33
646.363	2756.57
646.556	2627.54
646.749	2482.14
646.942	2367.45
647.135	2365.4
647.328	2205.66
647.521	2191.33
647.714	2144.22
647.907	1908.71
648.099	2052.06
648.292	1955.81
648.485	1789.92
648.678	1687.53
648.871	1611.75
649.064	1642.47
649.256	1464.3
649.449	1533.93
649.642	1316.84
649.835	1402.86
650.027	1228.78
650.22	1282.03
650.413	1191.92
650.605	1279.98
650.798	1189.87
650.991	1130.48
651.183	1112.05
651.376	1110
651.568	999.41
651.761	931.83
651.954	997.36
652.146	915.44
652.339	993.26
652.531	976.88
652.724	784.37
652.916	663.54
653.109	731.12
653.301	907.25
653.494	780.28
653.686	772.08
653.879	813.04
654.071	784.37
654.263	632.82
654.456	583.67
654.648	671.73
654.84	636.92
655.033	487.42
655.225	651.25
655.417	464.89
655.61	606.2
655.802	602.1
655.994	632.82
656.186	481.27
656.379	546.81
656.571	460.79
656.763	346.11
656.955	479.22
657.148	428.03
657.34	540.66
657.532	466.94
657.724	419.83
657.916	464.89
658.108	481.27
658.3	419.83
658.492	362.49
658.684	292.86
658.876	389.11
659.068	278.52
659.26	305.15
659.452	292.86
659.644	327.67
659.836	430.07
660.028	317.44
660.22	290.81
660.412	309.24
660.604	307.2
660.796	237.56
660.988	364.54
661.18	247.8
661.372	303.1
661.563	303.1
661.755	296.96
661.947	217.08
662.139	256
662.331	243.71
662.522	284.67
662.714	241.66
662.906	231.42
663.097	184.32
663.289	135.17
663.481	75.77
663.673	272.38
663.864	249.85
664.056	249.85
664.247	157.69
664.439	333.82
664.631	235.52
664.822	227.32
665.014	264.19
665.205	169.98
665.397	147.45
665.588	227.32
665.78	235.52
665.971	233.47
666.163	139.26
666.354	299
666.546	159.74
666.737	227.32
666.929	165.89
667.12	120.83
667.311	141.31
667.503	198.65
667.694	155.65
667.885	202.75
668.077	210.94
668.268	98.3
668.459	161.79
668.651	210.94
668.842	204.8
669.033	106.49
669.224	53.25
669.416	311.29
669.607	192.51
669.798	133.12
669.989	260.09
670.18	153.6
670.371	143.36
670.563	-18.43
670.754	206.84
670.945	235.52
671.136	206.84
671.327	124.93
671.518	229.37
671.709	249.85
671.9	176.13
672.091	272.38
672.282	200.7
672.473	159.74
672.664	104.45
672.855	102.4
673.046	161.79
673.237	141.31
673.428	96.25
673.619	221.18
673.809	141.31
674	221.18
674.191	176.13
674.382	155.65
674.573	202.75
674.764	188.41
674.954	239.61
675.145	116.73
675.336	182.27
675.527	133.12
675.717	131.07
675.908	155.65
676.099	114.69
676.289	249.85
676.48	30.72
676.671	208.89
676.861	178.17
677.052	155.65
677.243	174.08
677.433	96.25
677.624	208.89
677.814	124.93
678.005	155.65
678.195	274.43
678.386	83.97
678.576	129.02
678.767	149.5
678.957	194.56
679.148	184.32
679.338	262.14
679.529	188.41
679.719	204.8
679.909	206.84
680.1	292.86
680.29	124.93
680.481	57.34
680.671	221.18
680.861	208.89
681.052	258.04
681.242	122.88
681.432	225.28
681.622	172.03
681.813	151.55
682.003	262.14
682.193	149.5
682.383	249.85
682.573	155.65
682.764	159.74
682.954	233.47
683.144	260.09
683.334	163.84
683.524	223.23
683.714	180.22
683.904	288.76
684.094	225.28
684.284	161.79
684.474	245.76
684.664	210.94
684.854	206.84
685.044	247.8
685.234	231.42
685.424	233.47
685.614	155.65
685.804	317.44
685.994	208.89
686.184	208.89
686.374	210.94
686.564	256
686.753	141.31
686.943	112.64
687.133	157.69
687.323	227.32
687.513	227.32
687.702	235.52
687.892	174.08
688.082	253.95
688.272	231.42
688.461	147.45
688.651	350.2
688.841	280.57
689.03	126.97
689.22	143.36
689.41	174.08
689.599	174.08
689.789	149.5
689.979	307.2
690.168	153.6
690.358	296.96
690.547	157.69
690.737	321.53
690.926	186.37
691.116	212.99
691.305	229.37
691.495	339.96
691.684	143.36
691.874	161.79
692.063	202.75
692.252	208.89
692.442	245.76
692.631	229.37
692.82	272.38
693.01	120.83
693.199	174.08
693.388	194.56
693.578	100.35
693.767	212.99
693.956	233.47
694.146	204.8
694.335	137.21
694.524	223.23
694.713	319.48
694.902	217.08
695.092	61.44
695.281	221.18
695.47	157.69
695.659	108.54
695.848	190.46
696.037	116.73
696.226	231.42
696.415	116.73
696.604	305.15
696.793	235.52
696.982	147.45
697.171	239.61
697.36	145.41
697.549	167.93
697.738	61.44
697.927	165.89
698.116	126.97
698.305	219.13
698.494	204.8
698.683	129.02
698.872	292.86
699.061	147.45
699.25	131.07
699.438	210.94
699.627	137.21
699.816	225.28
700.005	151.55
700.193	129.02
700.382	212.99
700.571	241.66
700.76	251.9
700.948	129.02
701.137	225.28
701.326	274.43
701.514	122.88
701.703	253.95
701.892	239.61
702.08	350.2
702.269	184.32
702.457	102.4
702.646	260.09
702.834	114.69
703.023	210.94
703.212	161.79
703.4	141.31
703.589	143.36
703.777	165.89
703.965	157.69
704.154	102.4
704.342	112.64
704.531	180.22
704.719	217.08
704.907	256
705.096	24.58
705.284	157.69
705.472	215.04
705.661	176.13
705.849	169.98
706.037	188.41
706.226	200.7
706.414	174.08
706.602	157.69
706.79	184.32
706.979	100.35
707.167	202.75
707.355	104.45
707.543	198.65
707.731	208.89
707.919	141.31
708.107	206.84
708.296	102.4
708.484	90.11
708.672	188.41
708.86	264.19
709.048	227.32
709.236	120.83
709.424	188.41
709.612	153.6
709.8	194.56
709.988	198.65
710.176	174.08
710.364	286.72
710.551	100.35
710.739	258.04
710.927	149.5
711.115	159.74
711.303	208.89
711.491	296.96
711.679	157.69
711.866	223.23
712.054	129.02
712.242	169.98
712.43	233.47
712.617	165.89
712.805	219.13
712.993	290.81
713.181	92.16
713.368	143.36
713.556	198.65
713.744	165.89
713.931	401.4
714.119	190.46
714.306	231.42
714.494	133.12
714.682	163.84
714.869	139.26
715.057	176.13
715.244	153.6
715.432	174.08
715.619	106.49
715.807	94.21
715.994	133.12
716.182	305.15
716.369	274.43
716.556	141.31
716.744	116.73
716.931	129.02
717.119	124.93
717.306	264.19
717.493	190.46
717.681	155.65
717.868	155.65
718.055	237.56
718.242	126.97
718.43	206.84
718.617	206.84
718.804	81.92
718.991	262.14
719.179	286.72
719.366	206.84
719.553	237.56
719.74	169.98
719.927	172.03
720.114	284.67
720.301	124.93
720.488	163.84
720.676	223.23
720.863	247.8
721.05	329.72
721.237	223.23
721.424	190.46
721.611	245.76
721.798	223.23
721.985	145.41
722.172	202.75
722.358	157.69
722.545	274.43
722.732	190.46
722.919	305.15
723.106	229.37
723.293	202.75
723.48	231.42
723.667	194.56
723.853	348.15
724.04	212.99
724.227	221.18
724.414	176.13
724.6	280.57
724.787	346.11
724.974	354.3
725.161	186.37
725.347	239.61
725.534	290.81
725.72	270.33
725.907	264.19
726.094	198.65
726.28	176.13
726.467	229.37
726.653	223.23
726.84	346.11
727.027	270.33
727.213	280.57
727.4	313.34
727.586	282.62
727.773	229.37
727.959	245.76
728.145	282.62
728.332	233.47
728.518	212.99
728.705	278.52
728.891	272.38
729.077	227.32
729.264	231.42
729.45	235.52
729.636	296.96
729.823	276.48
730.009	290.81
730.195	296.96
730.382	223.23
730.568	176.13
730.754	303.1
730.94	258.04
731.126	235.52
731.313	235.52
731.499	294.91
731.685	315.39
731.871	405.5
732.057	321.53
732.243	282.62
732.429	272.38
732.615	321.53
732.801	272.38
732.987	243.71
733.173	284.67
733.359	256
733.545	319.48
733.731	245.76
733.917	354.3
734.103	311.29
734.289	198.65
734.475	202.75
734.661	415.74
734.847	284.67
735.033	262.14
735.219	309.24
735.404	272.38
735.59	196.6
735.776	151.55
735.962	231.42
736.148	333.82
736.333	317.44
736.519	219.13
736.705	348.15
736.89	286.72
737.076	272.38
737.262	145.41
737.447	247.8
737.633	210.94
737.819	333.82
738.004	288.76
738.19	245.76
738.375	352.25
738.561	407.55
738.747	303.1
738.932	241.66
739.118	350.2
739.303	276.48
739.489	319.48
739.674	215.04
739.859	196.6
740.045	348.15
740.23	276.48
740.416	167.93
740.601	309.24
740.786	290.81
740.972	174.08
741.157	204.8
741.342	198.65
741.528	163.84
741.713	317.44
741.898	272.38
742.084	262.14
742.269	260.09
742.454	296.96
742.639	403.45
742.824	243.71
743.01	407.55
743.195	350.2
743.38	270.33
743.565	223.23
743.75	204.8
743.935	303.1
744.12	296.96
744.305	174.08
744.49	280.57
744.675	262.14
744.86	223.23
745.045	331.77
745.23	243.71
745.415	210.94
745.6	356.35
745.785	237.56
745.97	280.57
746.155	290.81
746.34	315.39
746.525	296.96
746.71	276.48
746.895	194.56
747.079	290.81
747.264	235.52
747.449	278.52
747.634	339.96
747.819	329.72
748.003	311.29
748.188	190.46
748.373	196.6
748.557	286.72
748.742	282.62
748.927	276.48
749.111	223.23
749.296	290.81
749.481	262.14
749.665	249.85
749.85	278.52
750.034	301.05
750.219	243.71
750.404	278.52
750.588	245.76
750.773	184.32
750.957	206.84
751.141	229.37
751.326	251.9
751.51	198.65
751.695	233.47
751.879	182.27
752.064	307.2
752.248	196.6
752.432	337.91
752.617	307.2
752.801	272.38
752.985	120.83
753.17	317.44
753.354	288.76
753.538	243.71
753.722	104.45
753.907	147.45
754.091	141.31
754.275	235.52
754.459	129.02
754.643	190.46
754.828	215.04
755.012	129.02
755.196	200.7
755.38	229.37
755.564	145.41
755.748	169.98
755.932	264.19
756.116	212.99
756.3	215.04
756.484	143.36
756.668	272.38
756.852	106.49
757.036	174.08
757.22	161.79
757.404	139.26
757.588	116.73
757.772	208.89
757.956	235.52
758.14	247.8
758.323	141.31
758.507	133.12
758.691	145.41
758.875	272.38
759.059	346.11
759.242	169.98
759.426	178.17
759.61	212.99
759.794	86.01
759.977	116.73
760.161	389.11
760.345	182.27
760.528	229.37
760.712	122.88
760.895	184.32
761.079	104.45
761.263	126.97
761.446	102.4
761.63	137.21
761.813	149.5
761.997	61.44
762.18	139.26
762.364	198.65
762.547	47.1
762.731	100.35
762.914	118.78
763.098	151.55
763.281	118.78
763.464	92.16
763.648	135.17
763.831	83.97
764.015	124.93
764.198	239.61
764.381	79.87
764.564	65.53
764.748	169.98
764.931	194.56
765.114	157.69
765.297	169.98
765.481	4.1
765.664	96.25
765.847	124.93
766.03	200.7
766.213	104.45
766.397	96.25
766.58	98.3
766.763	186.37
766.946	98.3
767.129	98.3
767.312	81.92
767.495	92.16
767.678	59.39
767.861	106.49
768.044	88.06
768.227	114.69
768.41	116.73
768.593	184.32
768.776	133.12
768.959	38.91
769.142	204.8
769.324	137.21
769.507	61.44
769.69	32.77
769.873	49.15
770.056	280.57
770.239	120.83
770.421	243.71
770.604	178.17
770.787	108.54
770.97	49.15
771.152	69.63
771.335	149.5
771.518	55.3
771.7	114.69
771.883	221.18
772.066	59.39
772.248	47.1
772.431	178.17
772.613	165.89
772.796	102.4
772.978	69.63
773.161	172.03
773.343	94.21
773.526	61.44
773.708	-38.91
773.891	-53.25
774.073	149.5
774.256	49.15
774.438	204.8
774.621	51.2
774.803	73.73
774.985	51.2
775.168	71.68
775.35	71.68
775.532	161.79
775.715	6.14
775.897	110.59
776.079	49.15
776.261	88.06
776.444	108.54
776.626	161.79
776.808	30.72
776.99	14.34
777.173	36.86
777.355	28.67
777.537	79.87
777.719	83.97
777.901	59.39
778.083	55.3
778.265	18.43
778.447	124.93
778.629	34.82
778.811	112.64
778.993	106.49
779.175	137.21
779.357	83.97
779.539	18.43
779.721	40.96
779.903	63.49
780.085	61.44
780.267	75.77
780.449	73.73
780.631	131.07
780.812	129.02
780.994	30.72
781.176	26.62
781.358	30.72
781.54	43.01
781.721	112.64
781.903	106.49
782.085	38.91
782.267	157.69
782.448	-6.14
782.63	55.3
782.812	77.82
782.993	61.44
783.175	40.96
783.357	18.43
783.538	120.83
783.72	10.24
783.901	10.24
784.083	-2.05
784.264	38.91
784.446	-73.73
784.627	-32.77
784.809	122.88
784.99	24.58
785.172	61.44
785.353	22.53
785.535	34.82
785.716	83.97
785.897	-0
786.079	12.29
786.26	116.73
786.441	92.16
786.623	8.19
786.804	26.62
786.985	94.21
787.167	102.4
787.348	6.14
787.529	75.77
787.71	223.23
787.891	96.25
788.073	-49.15
788.254	-36.86
788.435	71.68
788.616	67.58
788.797	-6.14
788.978	53.25
789.159	43.01
789.34	18.43
789.522	28.67
789.703	-45.06
789.884	71.68
790.065	30.72
790.246	192.51
790.427	26.62
790.607	120.83
790.788	40.96
790.969	18.43
791.15	32.77
791.331	10.24
791.512	77.82
791.693	-51.2
791.874	-6.14
792.054	161.79
792.235	129.02
792.416	-14.34
792.597	-30.72
792.778	104.45
792.958	51.2
793.139	4.1
793.32	16.38
793.5	-18.43
793.681	129.02
793.862	75.77
794.042	53.25
794.223	-6.14
794.404	-16.38
794.584	-79.87
794.765	-14.34
794.945	71.68
795.126	30.72
795.306	114.69
795.487	-18.43
795.667	-6.14
795.848	55.3
796.028	4.1
796.209	53.25
796.389	81.92
796.57	-55.3
796.75	6.14
796.93	-24.58
797.111	-26.62
797.291	71.68
797.471	120.83
797.652	-26.62
797.832	-36.86
798.012	92.16
798.192	-55.3
798.373	-55.3
798.553	-43.01
798.733	8.19
798.913	-34.82
799.093	16.38
799.274	34.82
799.454	18.43
799.634	79.87
799.814	126.97
799.994	83.97
800.174	61.44
800.354	-26.62
800.534	-55.3
800.714	47.1
800.894	-22.53
801.074	-45.06
801.254	-32.77
801.434	124.93
801.614	-30.72
801.794	-79.87
801.974	1527.78
802.154	43.01
802.334	57.34
802.514	-55.3
802.693	14.34
802.873	-34.82
803.053	100.35
803.233	2.05
803.413	-2.05
803.592	-24.58
803.772	-24.58
803.952	-20.48
804.131	-49.15
804.311	26.62
804.491	106.49
804.67	20.48
804.85	-61.44
805.03	47.1
805.209	102.4
805.389	12.29
805.568	-139.26
805.748	73.73
805.928	-22.53
806.107	55.3
806.287	92.16
806.466	92.16
806.646	10.24
806.825	-30.72
807.004	-28.67
807.184	-4.1
807.363	53.25
807.543	79.87
807.722	-8.19
807.901	126.97
808.081	112.64
808.26	-55.3
808.439	6.14
808.619	61.44
808.798	-40.96
808.977	28.67
809.156	92.16
809.336	6.14
809.515	65.53
809.694	-92.16
809.873	-49.15
810.052	32.77
810.231	141.31
810.411	6.14
810.59	98.3
810.769	43.01
810.948	83.97
811.127	-59.39
811.306	59.39
811.485	-18.43
811.664	59.39
811.843	-30.72
812.022	-38.91
812.201	24.58
812.38	12.29
812.559	30.72
812.737	75.77
812.916	-112.64
813.095	-71.68
813.274	49.15
813.453	-14.34
813.632	14.34
813.811	92.16
813.989	-22.53
814.168	38.91
814.347	-88.06
814.526	79.87
814.704	92.16
814.883	92.16
815.062	-65.54
815.24	-10.24
815.419	-73.73
815.598	30.72
815.776	-102.4
815.955	38.91
816.133	-106.49
816.312	14.34
816.49	-47.1
816.669	-30.72
816.847	-30.72
817.026	88.06
817.204	-14.34
817.383	-0
817.561	-47.1
817.74	51.2
817.918	-16.38
818.097	-28.67
818.275	-22.53
818.453	14.34
818.632	102.4
818.81	45.06
818.988	18.43
819.167	-55.3
819.345	-65.54
819.523	-73.73
819.701	16.38
819.879	32.77
820.058	38.91
820.236	71.68
820.414	-86.01
820.592	22.53
820.77	-8.19
820.948	-22.53
821.127	-53.25
821.305	-2.05
821.483	-51.2
821.661	59.39
821.839	2.05
822.017	-28.67
822.195	-63.49
822.373	20.48
822.551	57.34
822.729	-12.29
822.907	-4.1
823.085	14.34
823.262	14.34
823.44	-69.63
823.618	-10.24
823.796	-43.01
823.974	-34.82
824.152	-18.43
824.329	-26.62
824.507	49.15
824.685	18.43
824.863	16.38
825.04	-12.29
825.218	4.1
825.396	73.73
825.574	-22.53
825.751	43.01
825.929	116.73
826.107	-71.68
826.284	-12.29
826.462	53.25
826.639	2.05
826.817	-92.16
826.994	-67.58
827.172	-4.1
827.349	96.25
827.527	8.19
827.704	26.62
827.882	36.86
828.059	-26.62
828.237	-26.62
828.414	22.53
828.591	-122.88
828.769	67.58
828.946	-6.14
829.124	18.43
829.301	67.58
829.478	-57.34
829.655	59.39
829.833	-36.86
830.01	-24.58
830.187	57.34
830.364	-30.72
830.542	8.19
830.719	124.93
830.896	-14.34
831.073	22.53
831.25	45.06
831.427	12.29
831.604	94.21
831.782	14.34
831.959	57.34
832.136	-12.29
832.313	36.86
832.49	-88.06
832.667	-40.96
832.844	-69.63
833.021	98.3
833.198	-40.96
833.374	59.39
833.551	18.43
833.728	-63.49
833.905	43.01
834.082	-147.45
834.259	26.62
834.436	126.97
834.612	-49.15
834.789	100.35
834.966	-26.62
835.143	6.14
835.319	-88.06
835.496	-6.14
835.673	-12.29
835.85	120.83
836.026	47.1
836.203	51.2
836.38	-55.3
836.556	-26.62
836.733	-16.38
836.909	94.21
837.086	-81.92
837.262	-75.77
837.439	-14.34
837.616	-20.48
837.792	57.34
837.968	-47.1
838.145	-43.01
838.321	2.05
838.498	38.91
838.674	71.68
838.851	-12.29
839.027	22.53
839.203	-43.01
839.38	-18.43
839.556	10.24
839.732	88.06
839.909	-34.82
840.085	-20.48
840.261	-30.72
840.437	32.77
840.614	-12.29
840.79	120.83
840.966	100.35
841.142	-22.53
841.318	8.19
841.494	-49.15
841.671	129.02
841.847	-126.97
842.023	2.05
842.199	43.01
842.375	94.21
842.551	-120.83
842.727	-90.11
842.903	47.1
843.079	-55.3
843.255	18.43
843.431	30.72
843.607	-20.48
843.783	-157.69
843.959	61.44
844.134	32.77
844.31	137.21
844.486	-98.3
844.662	61.44
844.838	26.62
845.013	-73.73
845.189	65.53
845.365	8.19
845.541	2.05
845.716	59.39
845.892	49.15
846.068	22.53
846.244	6.14
846.419	-59.39
846.595	-24.58
846.77	-36.86
846.946	59.39
847.122	12.29
847.297	-14.34
847.473	118.78
847.648	-116.73
847.824	16.38
847.999	-149.5
848.175	51.2
848.35	-2.05
848.526	94.21
848.701	-32.77
848.876	38.91
849.052	67.58
849.227	-49.15
849.403	-24.58
849.578	-63.49
849.753	-43.01
849.929	81.92
850.104	-92.16
850.279	-10.24
850.454	59.39
850.63	-18.43
850.805	-63.49
850.98	-88.06
851.155	-8.19
851.33	86.01
851.505	-79.87
851.681	22.53
851.856	-65.54
852.031	81.92
852.206	10.24
852.381	-65.54
852.556	-8.19
852.731	8.19
852.906	24.58
853.081	34.82
853.256	163.84
853.431	-55.3
853.606	-83.97
853.781	-75.77
853.956	-92.16
854.131	57.34
854.305	-45.06
854.48	-12.29
854.655	-55.3
854.83	-2.05
855.005	-14.34
855.18	-75.77
855.354	-0
855.529	73.73
855.704	-20.48
855.879	53.25
856.053	-8.19
856.228	-40.96
856.403	-59.39
856.577	-34.82
856.752	-145.41
856.926	-6.14
857.101	53.25
857.276	-49.15
857.45	67.58
857.625	-2.05
857.799	2.05
857.974	-2.05
858.148	-86.01
858.323	20.48
858.497	-30.72
858.672	-45.06
858.846	-22.53
859.02	88.06
859.195	-65.54
859.369	-51.2
859.543	-63.49
859.718	-6.14
859.892	2.05
860.066	-0
860.241	-16.38
860.415	-16.38
860.589	24.58
860.763	-18.43
860.938	-38.91
861.112	40.96
861.286	12.29
861.46	-26.62
861.634	-57.34
861.808	18.43
861.982	-59.39
862.157	-75.77
862.331	-81.92
862.505	-47.1
862.679	-55.3
862.853	-71.68
863.027	-53.25
863.201	157.69
863.375	-43.01
863.549	10.24
863.722	18.43
863.896	186.37
864.07	-79.87
864.244	-47.1
864.418	90.11
864.592	6.14
864.766	55.3
864.939	18.43
865.113	-75.77
865.287	20.48
865.461	-96.25
865.634	-34.82
865.808	18.43
865.982	-94.21
866.156	-57.34
866.329	-81.92
866.503	75.77
866.676	4.1
866.85	8.19
867.024	-40.96
867.197	16.38
867.371	-30.72
867.544	38.91
867.718	-14.34
867.891	75.77
868.065	-114.69
868.238	14.34
868.412	92.16
868.585	-30.72
868.759	-47.1
868.932	-30.72
869.105	-65.54
869.279	20.48
869.452	-122.88
869.625	18.43
869.799	-38.91
869.972	-55.3
870.145	-63.49
870.319	16.38
870.492	-79.87
870.665	6.14
870.838	-86.01
871.011	-186.37
871.185	-53.25
871.358	-53.25
871.531	18.43
871.704	18.43
871.877	26.62
872.05	-34.82
872.223	-43.01
872.396	75.77
872.569	63.49
872.742	-10.24
872.915	-12.29
873.088	-63.49
873.261	53.25
873.434	61.44
873.607	-55.3
873.78	79.87
873.953	-159.74
874.126	2.05
874.299	-30.72
874.471	-53.25
874.644	-38.91
874.817	65.53
874.99	57.34
875.163	-59.39
875.335	-45.06
875.508	2.05
875.681	40.96
875.853	-57.34
876.026	-18.43
876.199	49.15
876.371	6.14
876.544	-24.58
876.717	-47.1
876.889	-10.24
877.062	65.53
877.234	-88.06
877.407	30.72
877.579	34.82
877.752	96.25
877.924	-2.05
878.097	-14.34
878.269	-12.29
878.442	65.53
878.614	34.82
878.786	53.25
878.959	-45.06
879.131	-12.29
879.303	-151.55
879.476	-40.96
879.648	77.82
879.82	12.29
879.993	2.05
880.165	-51.2
880.337	-96.25
880.509	-32.77
880.681	-40.96
880.854	-43.01
881.026	-26.62
881.198	114.69
881.37	-63.49
881.542	-8.19
881.714	-73.73
881.886	-28.67
882.058	-65.54
882.23	24.58
882.402	-24.58
882.574	-32.77
882.746	20.48
882.918	88.06
883.09	22.53
883.262	-22.53
883.434	16.38
883.606	-102.4
883.778	63.49
883.95	100.35
884.122	-55.3
884.293	63.49
884.465	-16.38
884.637	20.48
884.809	-59.39
884.98	43.01
885.152	-10.24
885.324	32.77
885.496	10.24
885.667	-57.34
885.839	-137.21
886.011	83.97
886.182	67.58
886.354	59.39
886.525	-32.77
886.697	-40.96
886.869	-92.16
887.04	-30.72
887.212	30.72
887.383	112.64
887.555	6.14
887.726	12.29
887.897	-55.3
888.069	-14.34
888.24	34.82
888.412	-32.77
888.583	34.82
888.754	-135.17
888.926	-96.25
889.097	-90.11
889.268	-22.53
889.44	12.29
889.611	-106.49
889.782	-20.48
889.953	-104.45
890.125	110.59
890.296	-86.01
890.467	-47.1
890.638	30.72
890.809	-49.15
890.98	-47.1
891.151	-12.29
891.323	71.68
891.494	-32.77
891.665	38.91
891.836	-63.49
892.007	-30.72
892.178	38.91
892.349	-38.91
892.52	-77.82
892.691	2.05
892.862	32.77
893.032	-112.64
893.203	8.19
893.374	-22.53
893.545	71.68
893.716	-30.72
893.887	30.72
894.057	-55.3
894.228	-49.15
894.399	-92.16
894.57	106.49
894.74	-18.43
894.911	-22.53
895.082	-6.14
895.253	-24.58
895.423	-6.14
895.594	8.19
895.764	-47.1
895.935	-141.31
896.106	14.34
896.276	-26.62
896.447	-32.77
896.617	-63.49
896.788	-22.53
896.958	-77.82
897.129	-38.91
897.299	2.05
897.47	88.06
897.64	32.77
897.81	-16.38
897.981	-30.72
898.151	-6.14
898.322	-0
898.492	4.1
898.662	-75.77
898.832	-32.77
899.003	-10.24
899.173	45.06
899.343	-81.92
899.513	-65.54
