Data from USB4F104151__67__11-30-57-664.txt Node

Date: Wed Feb 26 11:30:57 EST 2025
User: louis
Spectrometer: USB4F10415
Trigger mode: 4
Integration Time (sec): 1.000000E-1
Scans to average: 1
Electric dark correction enabled: true
Nonlinearity correction enabled: false
Boxcar width: 0
XAxis mode: Wavelengths
Number of Pixels in Spectrum: 3648
>>>>>Begin Spectral Data<<<<<
178.204	-454.82
178.424	-454.82
178.644	-454.82
178.864	-438.44
179.084	-409.76
179.304	22.36
179.524	-8.36
179.744	-90.28
179.964	44.88
180.184	-4.27
180.404	57.17
180.624	-51.37
180.844	8.02
181.064	-73.9
181.283	81.75
181.503	-30.89
181.723	44.88
181.943	-157.86
182.163	161.62
182.383	-30.89
182.602	63.32
182.822	161.62
183.042	53.08
183.262	-86.19
183.482	-24.75
183.701	8.02
183.921	14.17
184.141	-63.66
184.361	28.5
184.58	81.75
184.8	57.17
185.02	-14.51
185.239	120.66
185.459	59.22
185.679	112.47
185.898	-18.6
186.118	44.88
186.338	77.65
186.557	89.94
186.777	-114.86
186.997	10.07
187.216	94.04
187.436	157.52
187.655	10.07
187.875	114.52
188.095	38.74
188.314	81.75
188.534	42.84
188.753	-69.8
188.973	200.53
189.192	87.89
189.412	5.97
189.631	32.6
189.851	24.4
190.07	104.28
190.29	-14.51
190.509	-4.27
190.729	32.6
190.948	83.8
191.168	247.63
191.387	75.6
191.607	-12.46
191.826	8.02
192.045	-8.36
192.265	-32.94
192.484	51.03
192.704	77.65
192.923	-24.75
193.142	184.15
193.362	71.51
193.581	94.04
193.8	126.8
194.02	163.67
194.239	67.41
194.458	63.32
194.678	69.46
194.897	-14.51
195.116	94.04
195.335	106.32
195.555	51.03
195.774	-90.28
195.993	87.89
196.212	-14.51
196.432	-53.42
196.651	1.88
196.87	-16.55
197.089	235.35
197.308	59.22
197.528	65.36
197.747	-59.56
197.966	12.12
198.185	163.67
198.404	-14.51
198.623	132.95
198.842	89.94
199.062	130.9
199.281	96.08
199.5	71.51
199.719	69.46
199.938	65.36
200.157	36.69
200.376	159.57
200.595	135
200.814	59.22
201.033	-4.27
201.252	110.42
201.471	59.22
201.69	57.17
201.909	104.28
202.128	104.28
202.347	167.76
202.566	71.51
202.785	-71.85
203.004	1.88
203.223	206.67
203.442	-16.55
203.661	-69.8
203.879	128.85
204.098	145.24
204.317	46.93
204.536	18.26
204.755	22.36
204.974	91.99
205.193	40.79
205.411	186.19
205.63	59.22
205.849	73.56
206.068	42.84
206.287	63.32
206.505	108.37
206.724	36.69
206.943	34.64
207.162	5.97
207.381	-14.51
207.599	-16.55
207.818	85.84
208.037	-75.95
208.255	59.22
208.474	32.6
208.693	36.69
208.911	40.79
209.13	83.8
209.349	51.03
209.567	12.12
209.786	3.93
210.005	137.04
210.223	5.97
210.442	-100.52
210.661	32.6
210.879	42.84
211.098	-80.04
211.316	-20.65
211.535	16.21
211.753	5.97
211.972	46.93
212.191	-104.62
212.409	8.02
212.628	59.22
212.846	20.31
213.065	57.17
213.283	57.17
213.502	67.41
213.72	63.32
213.938	46.93
214.157	5.97
214.375	94.04
214.594	-37.03
214.812	69.46
215.031	-0.17
215.249	75.6
215.467	48.98
215.686	75.6
215.904	65.36
216.122	22.36
216.341	116.56
216.559	34.64
216.778	147.28
216.996	18.26
217.214	26.45
217.432	-10.41
217.651	-98.47
217.869	63.32
218.087	79.7
218.306	-75.95
218.524	89.94
218.742	69.46
218.96	40.79
219.179	20.31
219.397	-16.55
219.615	175.95
219.833	20.31
220.051	-12.46
220.27	112.47
220.488	145.24
220.706	165.71
220.924	-22.7
221.142	-12.46
221.36	48.98
221.578	34.64
221.796	24.4
222.015	63.32
222.233	57.17
222.451	89.94
222.669	-37.03
222.887	40.79
223.105	-47.27
223.323	22.36
223.541	38.74
223.759	42.84
223.977	18.26
224.195	108.37
224.413	77.65
224.631	18.26
224.849	157.52
225.067	198.48
225.285	16.21
225.503	16.21
225.721	-71.85
225.939	57.17
226.157	55.12
226.375	227.15
226.592	-75.95
226.81	-59.56
227.028	38.74
227.246	161.62
227.464	71.51
227.682	57.17
227.9	48.98
228.117	12.12
228.335	14.17
228.553	32.6
228.771	-12.46
228.989	100.18
229.206	28.5
229.424	-4.27
229.642	53.08
229.86	-26.79
230.077	12.12
230.295	94.04
230.513	122.71
230.731	120.66
230.948	229.2
231.166	94.04
231.384	55.12
231.601	-32.94
231.819	184.15
232.037	14.17
232.254	-24.75
232.472	-30.89
232.689	-16.55
232.907	124.76
233.125	46.93
233.342	16.21
233.56	-2.22
233.777	-14.51
233.995	53.08
234.213	91.99
234.43	98.13
234.648	46.93
234.865	-32.94
235.083	57.17
235.3	53.08
235.518	120.66
235.735	118.61
235.953	98.13
236.17	44.88
236.388	-34.99
236.605	118.61
236.822	53.08
237.04	108.37
237.257	73.56
237.475	-4.27
237.692	5.97
237.909	89.94
238.127	-20.65
238.344	-0.17
238.562	102.23
238.779	-49.32
238.996	-118.95
239.214	20.31
239.431	91.99
239.648	1.88
239.865	180.05
240.083	75.6
240.3	5.97
240.517	-30.89
240.735	71.51
240.952	96.08
241.169	14.17
241.386	118.61
241.603	26.45
241.821	-34.99
242.038	14.17
242.255	61.27
242.472	-65.71
242.689	110.42
242.907	91.99
243.124	124.76
243.341	46.93
243.558	28.5
243.775	-32.94
243.992	-12.46
244.209	112.47
244.426	135
244.643	104.28
244.86	96.08
245.078	77.65
245.295	85.84
245.512	51.03
245.729	24.4
245.946	73.56
246.163	61.27
246.38	-82.09
246.597	55.12
246.814	-4.27
247.031	63.32
247.248	-30.89
247.464	112.47
247.681	-24.75
247.898	83.8
248.115	135
248.332	-10.41
248.549	192.34
248.766	175.95
248.983	106.32
249.2	110.42
249.417	104.28
249.633	-2.22
249.85	87.89
250.067	5.97
250.284	75.6
250.501	46.93
250.717	48.98
250.934	-32.94
251.151	63.32
251.368	20.31
251.585	20.31
251.801	8.02
252.018	-18.6
252.235	65.36
252.451	-65.71
252.668	48.98
252.885	110.42
253.102	34.64
253.318	5.97
253.535	100.18
253.752	32.6
253.968	-71.85
254.185	-75.95
254.401	30.55
254.618	87.89
254.835	8.02
255.051	120.66
255.268	81.75
255.484	63.32
255.701	36.69
255.917	16.21
256.134	22.36
256.351	-0.17
256.567	-77.99
256.784	16.21
257	-114.86
257.217	46.93
257.433	69.46
257.65	22.36
257.866	122.71
258.082	-24.75
258.299	-24.75
258.515	91.99
258.732	-26.79
258.948	8.02
259.165	40.79
259.381	-41.13
259.597	87.89
259.814	20.31
260.03	89.94
260.246	12.12
260.463	122.71
260.679	163.67
260.895	83.8
261.112	116.56
261.328	-20.65
261.544	-10.41
261.761	139.09
261.977	-10.41
262.193	-12.46
262.409	161.62
262.626	-28.84
262.842	-94.38
263.058	-12.46
263.274	65.36
263.49	59.22
263.707	112.47
263.923	69.46
264.139	-49.32
264.355	5.97
264.571	132.95
264.787	65.36
265.004	79.7
265.22	18.26
265.436	36.69
265.652	-0.17
265.868	51.03
266.084	-73.9
266.3	79.7
266.516	-67.75
266.732	53.08
266.948	61.27
267.164	-8.36
267.38	75.6
267.596	81.75
267.812	184.15
268.028	59.22
268.244	38.74
268.46	16.21
268.676	1.88
268.892	69.46
269.108	18.26
269.324	-28.84
269.54	18.26
269.756	71.51
269.972	3.93
270.188	-37.03
270.403	-82.09
270.619	61.27
270.835	53.08
271.051	8.02
271.267	-63.66
271.483	34.64
271.698	104.28
271.914	77.65
272.13	55.12
272.346	73.56
272.562	69.46
272.777	139.09
272.993	28.5
273.209	-10.41
273.425	81.75
273.64	-51.37
273.856	44.88
274.072	-8.36
274.287	20.31
274.503	155.47
274.719	71.51
274.934	-49.32
275.15	-131.24
275.366	-18.6
275.581	-49.32
275.797	16.21
276.012	65.36
276.228	-20.65
276.444	51.03
276.659	77.65
276.875	-18.6
277.09	14.17
277.306	-28.84
277.521	16.21
277.737	20.31
277.952	67.41
278.168	34.64
278.383	-0.17
278.599	-6.31
278.814	116.56
279.03	75.6
279.245	151.38
279.461	65.36
279.676	71.51
279.892	-98.47
280.107	-8.36
280.322	10.07
280.538	5.97
280.753	26.45
280.969	51.03
281.184	30.55
281.399	94.04
281.615	32.6
281.83	14.17
282.045	-65.71
282.26	-0.17
282.476	24.4
282.691	51.03
282.906	57.17
283.122	36.69
283.337	-61.61
283.552	38.74
283.767	-22.7
283.983	38.74
284.198	5.97
284.413	79.7
284.628	-96.43
284.843	-53.42
285.058	147.28
285.274	-12.46
285.489	1.88
285.704	91.99
285.919	-8.36
286.134	-32.94
286.349	40.79
286.564	38.74
286.779	120.66
286.995	32.6
287.21	-41.13
287.425	96.08
287.64	16.21
287.855	46.93
288.07	-61.61
288.285	141.14
288.5	159.57
288.715	130.9
288.93	-0.17
289.145	-22.7
289.36	73.56
289.575	8.02
289.79	151.38
290.004	38.74
290.219	28.5
290.434	-41.13
290.649	-67.75
290.864	-10.41
291.079	-39.08
291.294	96.08
291.509	-43.18
291.724	30.55
291.938	38.74
292.153	53.08
292.368	-24.75
292.583	104.28
292.798	14.17
293.012	57.17
293.227	40.79
293.442	-32.94
293.657	120.66
293.871	91.99
294.086	63.32
294.301	147.28
294.516	118.61
294.73	-49.32
294.945	-65.71
295.16	-14.51
295.374	61.27
295.589	118.61
295.804	46.93
296.018	-2.22
296.233	73.56
296.447	14.17
296.662	-32.94
296.877	104.28
297.091	102.23
297.306	22.36
297.52	61.27
297.735	42.84
297.949	20.31
298.164	79.7
298.378	24.4
298.593	3.93
298.807	-26.79
299.022	94.04
299.236	151.38
299.451	-2.22
299.665	14.17
299.88	16.21
300.094	-20.65
300.309	-26.79
300.523	-12.46
300.737	-4.27
300.952	5.97
301.166	-10.41
301.381	83.8
301.595	-0.17
301.809	85.84
302.024	-8.36
302.238	-24.75
302.452	143.19
302.667	55.12
302.881	112.47
303.095	20.31
303.309	106.32
303.524	-80.04
303.738	22.36
303.952	-49.32
304.166	73.56
304.381	-65.71
304.595	165.71
304.809	22.36
305.023	81.75
305.237	-2.22
305.452	-0.17
305.666	46.93
305.88	55.12
306.094	104.28
306.308	67.41
306.522	75.6
306.736	67.41
306.95	118.61
307.164	51.03
307.379	36.69
307.593	163.67
307.807	151.38
308.021	81.75
308.235	132.95
308.449	-59.56
308.663	42.84
308.877	229.2
309.091	-28.84
309.305	149.33
309.519	-82.09
309.733	102.23
309.947	-104.62
310.161	42.84
310.374	118.61
310.588	130.9
310.802	-6.31
311.016	75.6
311.23	44.88
311.444	12.12
311.658	-4.27
311.872	171.86
312.085	98.13
312.299	77.65
312.513	161.62
312.727	124.76
312.941	51.03
313.154	22.36
313.368	38.74
313.582	26.45
313.796	71.51
314.009	30.55
314.223	130.9
314.437	96.08
314.651	100.18
314.864	8.02
315.078	53.08
315.292	-8.36
315.505	36.69
315.719	71.51
315.933	65.36
316.146	1.88
316.36	-98.47
316.573	96.08
316.787	42.84
317.001	77.65
317.214	-80.04
317.428	-6.31
317.641	-51.37
317.855	-41.13
318.068	-2.22
318.282	1.88
318.495	151.38
318.709	46.93
318.922	12.12
319.136	124.76
319.349	89.94
319.563	34.64
319.776	83.8
319.99	-75.95
320.203	110.42
320.417	77.65
320.63	122.71
320.843	167.76
321.057	48.98
321.27	26.45
321.483	65.36
321.697	116.56
321.91	24.4
322.124	65.36
322.337	22.36
322.55	-32.94
322.763	65.36
322.977	22.36
323.19	59.22
323.403	89.94
323.617	79.7
323.83	106.32
324.043	26.45
324.256	120.66
324.469	-41.13
324.683	69.46
324.896	61.27
325.109	151.38
325.322	-84.14
325.535	100.18
325.748	122.71
325.962	-0.17
326.175	65.36
326.388	8.02
326.601	77.65
326.814	-57.51
327.027	28.5
327.24	161.62
327.453	-88.23
327.666	69.46
327.879	116.56
328.092	71.51
328.305	-10.41
328.518	-69.8
328.731	-20.65
328.944	-30.89
329.157	108.37
329.37	-10.41
329.583	116.56
329.796	151.38
330.009	-108.71
330.222	28.5
330.435	100.18
330.648	106.32
330.861	71.51
331.073	53.08
331.286	79.7
331.499	57.17
331.712	12.12
331.925	-20.65
332.138	122.71
332.35	143.19
332.563	40.79
332.776	96.08
332.989	-55.47
333.202	-34.99
333.414	44.88
333.627	-6.31
333.84	51.03
334.053	73.56
334.265	14.17
334.478	-22.7
334.691	-24.75
334.903	10.07
335.116	-16.55
335.329	24.4
335.541	108.37
335.754	151.38
335.966	-43.18
336.179	91.99
336.392	26.45
336.604	-67.75
336.817	83.8
337.029	48.98
337.242	-41.13
337.454	36.69
337.667	3.93
337.88	98.13
338.092	18.26
338.305	98.13
338.517	12.12
338.729	75.6
338.942	114.52
339.154	-51.37
339.367	5.97
339.579	98.13
339.792	-24.75
340.004	51.03
340.217	46.93
340.429	-32.94
340.641	-30.89
340.854	-57.51
341.066	-4.27
341.278	91.99
341.491	173.91
341.703	40.79
341.915	-61.61
342.128	71.51
342.34	46.93
342.552	-18.6
342.764	20.31
342.977	-28.84
343.189	10.07
343.401	16.21
343.613	-10.41
343.826	-16.55
344.038	-24.75
344.25	34.64
344.462	-22.7
344.674	44.88
344.886	94.04
345.099	-12.46
345.311	73.56
345.523	-0.17
345.735	-59.56
345.947	112.47
346.159	53.08
346.371	104.28
346.583	-30.89
346.795	112.47
347.007	46.93
347.219	42.84
347.431	36.69
347.643	104.28
347.855	22.36
348.067	169.81
348.279	-80.04
348.491	16.21
348.703	51.03
348.915	-65.71
349.127	-92.33
349.339	114.52
349.551	-0.17
349.763	51.03
349.975	30.55
350.187	83.8
350.399	106.32
350.61	79.7
350.822	22.36
351.034	48.98
351.246	24.4
351.458	18.26
351.669	122.71
351.881	85.84
352.093	51.03
352.305	75.6
352.517	12.12
352.728	81.75
352.94	-43.18
353.152	128.85
353.363	5.97
353.575	40.79
353.787	145.24
353.999	79.7
354.21	147.28
354.422	-2.22
354.633	12.12
354.845	48.98
355.057	-10.41
355.268	79.7
355.48	71.51
355.692	3.93
355.903	63.32
356.115	12.12
356.326	-100.52
356.538	108.37
356.749	91.99
356.961	143.19
357.172	-2.22
357.384	-65.71
357.595	126.8
357.807	-10.41
358.018	-24.75
358.23	-34.99
358.441	157.52
358.653	5.97
358.864	8.02
359.075	-82.09
359.287	24.4
359.498	96.08
359.709	87.89
359.921	40.79
360.132	44.88
360.344	-39.08
360.555	-0.17
360.766	18.26
360.977	-32.94
361.189	75.6
361.4	171.86
361.611	114.52
361.823	110.42
362.034	-6.31
362.245	-118.95
362.456	10.07
362.667	87.89
362.879	-125.1
363.09	75.6
363.301	73.56
363.512	65.36
363.723	-26.79
363.935	-69.8
364.146	55.12
364.357	28.5
364.568	112.47
364.779	16.21
364.99	169.81
365.201	-28.84
365.412	40.79
365.623	-47.27
365.834	53.08
366.045	14.17
366.256	42.84
366.467	34.64
366.678	-49.32
366.889	61.27
367.1	28.5
367.311	112.47
367.522	57.17
367.733	100.18
367.944	26.45
368.155	38.74
368.366	36.69
368.577	118.61
368.788	98.13
368.999	20.31
369.209	-30.89
369.42	214.87
369.631	190.29
369.842	128.85
370.053	-51.37
370.264	108.37
370.474	-57.51
370.685	83.8
370.896	-6.31
371.107	57.17
371.317	94.04
371.528	71.51
371.739	110.42
371.95	-28.84
372.16	116.56
372.371	-110.76
372.582	-34.99
372.792	44.88
373.003	-20.65
373.214	59.22
373.424	104.28
373.635	-39.08
373.846	137.04
374.056	69.46
374.267	-14.51
374.477	67.41
374.688	-59.56
374.898	120.66
375.109	16.21
375.319	102.23
375.53	91.99
375.74	44.88
375.951	-10.41
376.161	81.75
376.372	163.67
376.582	-30.89
376.793	110.42
377.003	32.6
377.214	108.37
377.424	98.13
377.635	-26.79
377.845	-43.18
378.055	186.19
378.266	-24.75
378.476	28.5
378.686	59.22
378.897	-67.75
379.107	96.08
379.317	81.75
379.528	-4.27
379.738	55.12
379.948	34.64
380.158	51.03
380.369	1.88
380.579	-2.22
380.789	48.98
380.999	79.7
381.21	110.42
381.42	139.09
381.63	55.12
381.84	30.55
382.05	36.69
382.261	114.52
382.471	153.43
382.681	-57.51
382.891	190.29
383.101	98.13
383.311	-24.75
383.521	-28.84
383.731	61.27
383.941	16.21
384.151	-2.22
384.361	30.55
384.571	34.64
384.781	16.21
384.991	153.43
385.201	143.19
385.411	122.71
385.621	81.75
385.831	-6.31
386.041	44.88
386.251	3.93
386.461	85.84
386.671	32.6
386.881	-18.6
387.091	-0.17
387.301	94.04
387.511	75.6
387.72	141.14
387.93	55.12
388.14	-135.34
388.35	32.6
388.56	65.36
388.769	145.24
388.979	63.32
389.189	-16.55
389.399	16.21
389.609	51.03
389.818	71.51
390.028	46.93
390.238	94.04
390.447	8.02
390.657	96.08
390.867	-10.41
391.076	-8.36
391.286	28.5
391.496	61.27
391.705	108.37
391.915	81.75
392.125	120.66
392.334	10.07
392.544	126.8
392.753	3.93
392.963	16.21
393.172	-10.41
393.382	14.17
393.591	198.48
393.801	5.97
394.01	114.52
394.22	91.99
394.429	53.08
394.639	53.08
394.848	112.47
395.058	83.8
395.267	-57.51
395.477	53.08
395.686	65.36
395.895	227.15
396.105	221.01
396.314	-16.55
396.524	-20.65
396.733	67.41
396.942	96.08
397.152	161.62
397.361	102.23
397.57	48.98
397.78	42.84
397.989	147.28
398.198	169.81
398.407	130.9
398.617	48.98
398.826	53.08
399.035	-2.22
399.244	145.24
399.453	65.36
399.663	-30.89
399.872	71.51
400.081	-55.47
400.29	141.14
400.499	-32.94
400.708	65.36
400.917	24.4
401.127	-2.22
401.336	-16.55
401.545	163.67
401.754	71.51
401.963	85.84
402.172	61.27
402.381	14.17
402.59	44.88
402.799	79.7
403.008	59.22
403.217	36.69
403.426	-45.23
403.635	-98.47
403.844	-34.99
404.053	71.51
404.262	-55.47
404.471	196.43
404.68	91.99
404.888	44.88
405.097	-39.08
405.306	102.23
405.515	108.37
405.724	61.27
405.933	71.51
406.142	89.94
406.35	137.04
406.559	85.84
406.768	89.94
406.977	89.94
407.185	73.56
407.394	147.28
407.603	-104.62
407.812	75.6
408.02	200.53
408.229	65.36
408.438	81.75
408.646	-71.85
408.855	12.12
409.064	44.88
409.272	55.12
409.481	114.52
409.69	-61.61
409.898	-28.84
410.107	77.65
410.315	85.84
410.524	5.97
410.733	69.46
410.941	104.28
411.15	77.65
411.358	132.95
411.567	77.65
411.775	83.8
411.984	71.51
412.192	126.8
412.401	26.45
412.609	161.62
412.818	130.9
413.026	40.79
413.234	12.12
413.443	22.36
413.651	46.93
413.86	-18.6
414.068	124.76
414.276	130.9
414.485	-8.36
414.693	149.33
414.901	114.52
415.11	106.32
415.318	42.84
415.526	75.6
415.734	73.56
415.943	81.75
416.151	83.8
416.359	44.88
416.567	98.13
416.776	94.04
416.984	159.57
417.192	147.28
417.4	8.02
417.608	42.84
417.817	-32.94
418.025	81.75
418.233	198.48
418.441	-32.94
418.649	-88.23
418.857	65.36
419.065	155.47
419.273	20.31
419.481	61.27
419.689	53.08
419.897	5.97
420.105	16.21
420.313	110.42
420.521	128.85
420.729	151.38
420.937	14.17
421.145	-0.17
421.353	94.04
421.561	206.67
421.769	63.32
421.977	16.21
422.185	137.04
422.393	3.93
422.601	102.23
422.809	96.08
423.017	75.6
423.224	73.56
423.432	124.76
423.64	112.47
423.848	77.65
424.056	5.97
424.263	106.32
424.471	26.45
424.679	130.9
424.887	-45.23
425.094	94.04
425.302	32.6
425.51	48.98
425.718	137.04
425.925	59.22
426.133	65.36
426.341	163.67
426.548	46.93
426.756	-16.55
426.964	61.27
427.171	-2.22
427.379	143.19
427.586	102.23
427.794	120.66
428.001	167.76
428.209	77.65
428.417	184.15
428.624	128.85
428.832	108.37
429.039	94.04
429.247	55.12
429.454	128.85
429.662	212.82
429.869	89.94
430.076	190.29
430.284	194.39
430.491	202.58
430.699	163.67
430.906	175.95
431.114	163.67
431.321	157.52
431.528	118.61
431.736	180.05
431.943	171.86
432.15	81.75
432.358	128.85
432.565	337.74
432.772	63.32
432.979	245.59
433.187	102.23
433.394	243.54
433.601	155.47
433.808	253.78
434.016	278.35
434.223	315.22
434.43	163.67
434.637	276.31
434.844	329.55
435.052	208.72
435.259	282.45
435.466	239.44
435.673	245.59
435.88	296.78
436.087	372.56
436.294	364.37
436.501	333.65
436.708	266.07
436.915	261.97
437.122	368.46
437.329	302.93
437.537	274.26
437.743	380.75
437.95	474.96
438.157	380.75
438.364	317.26
438.571	415.57
438.778	440.14
438.985	528.21
439.192	499.53
439.399	436.05
439.606	462.67
439.813	587.6
440.02	630.6
440.227	749.39
440.433	565.07
440.64	515.92
440.847	569.16
441.054	628.56
441.261	792.39
441.467	745.29
441.674	714.57
441.881	800.59
442.088	710.47
442.294	866.12
442.501	843.59
442.708	864.07
442.914	819.02
443.121	931.66
443.328	862.02
443.534	991.05
443.741	923.46
443.948	876.36
444.154	956.23
444.361	1181.51
444.568	1181.51
444.774	1206.08
444.981	1042.25
445.187	1269.57
445.394	1232.71
445.6	1187.65
445.807	1367.87
446.013	1337.15
446.22	1283.91
446.426	1511.23
446.633	1670.97
446.839	1834.81
447.046	1439.55
447.252	1812.28
447.459	1814.33
447.665	1797.95
447.871	1881.91
448.078	2109.24
448.284	2019.13
448.491	2275.12
448.697	2199.35
448.903	2277.17
449.11	2395.95
449.316	2381.62
449.522	2621.23
449.728	2651.95
449.935	2680.62
450.141	2895.66
450.347	2928.42
450.553	2873.13
450.76	3067.69
450.966	3069.73
451.172	3190.56
451.378	3415.84
451.584	3473.18
451.791	3768.09
451.997	3876.63
452.203	3794.72
452.409	4054.81
452.615	4259.6
452.821	4077.34
453.027	4222.74
453.233	4886.28
453.44	4546.32
453.646	4869.9
453.852	5140.23
454.058	5132.04
454.264	5254.92
454.47	5785.34
454.676	5566.21
454.882	6311.67
455.088	6012.67
455.294	6313.72
455.5	6809.33
455.705	7022.31
455.911	7171.82
456.117	7411.43
456.323	7583.46
456.529	7583.46
456.735	8226.52
456.941	8666.83
457.147	8812.24
457.352	9113.29
457.558	9334.47
457.764	9987.77
457.97	10473.14
458.176	10702.51
458.381	11058.86
458.587	11296.42
458.793	11773.6
458.999	11990.69
459.204	13356.68
459.41	13969.02
459.616	13670.02
459.821	14388.86
460.027	15093.36
460.233	16115.3
460.438	16031.33
460.644	16739.93
460.85	17010.26
461.055	17415.76
461.261	18495.04
461.466	18060.87
461.672	18468.41
461.878	21007.89
462.083	20260.38
462.289	20971.03
462.494	21415.44
462.7	22124.04
462.905	22373.89
463.111	23905.77
463.316	24946.14
463.522	25523.66
463.727	26492.35
463.932	27573.68
464.138	28200.36
464.343	29447.57
464.549	29758.86
464.754	31442.29
464.959	32251.24
465.165	33258.84
465.37	32910.69
465.575	32886.11
465.781	34858.31
465.986	35919.15
466.191	35489.08
466.397	35929.39
466.602	35091.77
466.807	36846.88
467.012	37365.02
467.218	38210.83
467.423	37987.6
467.628	39998.71
467.833	41379.04
468.038	40668.39
468.244	39826.68
468.449	41757.91
468.654	41030.88
468.859	41014.5
469.064	41424.09
469.269	40039.67
469.474	40527.08
469.679	41811.16
469.885	40496.36
470.09	41053.41
470.295	41209.06
470.5	40070.39
470.705	40377.58
470.91	39390.46
471.115	39175.42
471.32	39537.91
471.525	39468.28
471.73	38350.09
471.935	38315.28
472.139	36771.11
472.344	36676.9
472.549	36484.39
472.754	35949.87
472.959	35016
473.164	33795.41
473.369	33314.14
473.574	34350.41
473.778	33342.81
473.983	32888.16
474.188	32537.96
474.393	30791.04
474.598	30821.76
474.802	30096.78
475.007	29629.84
475.212	29269.4
475.417	28143.02
475.621	27844.01
475.826	27880.88
476.031	26926.52
476.235	26475.97
476.44	26500.54
476.645	25908.68
476.849	25675.21
477.054	24960.47
477.259	24602.08
477.463	24620.51
477.668	23713.26
477.872	23840.23
478.077	23391.73
478.282	22699.51
478.486	22375.94
478.691	22156.8
478.895	21929.48
479.1	21829.13
479.304	21683.72
479.509	21077.52
479.713	21360.14
479.918	20737.56
480.122	20352.54
480.326	20223.52
480.531	20438.56
480.735	20086.31
480.94	19828.26
481.144	20487.71
481.348	19598.89
481.553	19621.42
481.757	18972.21
481.961	19090.99
482.166	19324.46
482.37	19074.61
482.574	18431.55
482.778	18433.6
482.983	18697.78
483.187	18103.87
483.391	18601.53
483.595	18044.48
483.8	17882.69
484.004	18021.95
484.208	17878.6
484.412	17700.42
484.616	17378.89
484.821	17305.17
485.025	16621.14
485.229	16924.24
485.433	16688.73
485.637	16709.21
485.841	16201.31
486.045	15875.68
486.249	15734.37
486.453	15578.73
486.657	15199.85
486.861	15226.48
487.065	14659.19
487.269	14505.59
487.473	14272.12
487.677	14227.07
487.881	14179.96
488.085	13792.9
488.289	13637.25
488.493	13127.31
488.697	13108.88
488.901	12883.6
489.105	12818.07
489.309	12529.3
489.512	12320.41
489.716	11892.38
489.92	11796.13
490.124	11507.37
490.328	11642.53
490.531	11093.68
490.735	10870.45
490.939	10657.46
491.143	10481.33
491.346	10272.44
491.55	10393.27
491.754	10120.89
491.958	9965.25
492.161	9754.3
492.365	9623.23
492.569	9483.97
492.772	9240.26
492.976	9107.15
493.18	9000.65
493.383	9008.84
493.587	9125.58
493.79	8861.39
493.994	8503
494.197	8541.91
494.401	8371.93
494.605	8339.16
494.808	8380.12
495.012	8175.32
495.215	8191.7
495.419	8218.33
495.622	7958.24
495.825	7726.82
496.029	8007.39
496.232	8003.29
496.436	7804.64
496.639	8152.79
496.843	7745.25
497.046	7790.3
497.249	7974.62
497.453	7718.62
497.656	7618.27
497.859	7943.9
498.063	7702.24
498.266	7935.71
498.469	7796.45
498.673	7790.3
498.876	7814.88
499.079	7921.37
499.282	7792.35
499.485	8330.97
499.689	8015.58
499.892	8371.93
500.095	7911.13
500.298	8160.98
500.501	8017.63
500.705	8328.92
500.908	8169.18
501.111	8406.74
501.314	8525.52
501.517	8943.31
501.72	8574.67
501.923	8648.4
502.126	8861.39
502.329	9014.99
502.532	9060.04
502.735	9076.43
502.938	9256.65
503.141	9400.01
503.344	9471.68
503.547	9438.92
503.75	9459.4
503.953	9682.63
504.156	9889.47
504.359	9879.23
504.562	10006.2
504.765	10297.02
504.968	10626.74
505.17	10669.75
505.373	10809.01
505.576	10856.11
505.779	10829.49
505.982	11126.44
506.185	11560.61
506.387	11423.4
506.59	11706.02
506.793	11994.78
506.996	12154.52
507.198	12553.88
507.401	12576.41
507.604	12869.26
507.807	13139.6
508.009	13379.21
508.212	13737.6
508.415	13936.26
508.617	14116.48
508.82	14306.94
509.022	14524.02
509.225	14990.96
509.428	15181.42
509.63	15685.22
509.833	15906.4
510.035	16524.89
510.238	16551.51
510.44	16957.01
510.643	17364.56
510.845	17700.42
511.048	17948.23
511.25	18677.3
511.453	18953.78
511.655	19799.59
511.858	19684.9
512.06	20352.54
512.262	20567.58
512.465	20995.6
512.667	21693.96
512.87	22081.03
513.072	22310.4
513.274	23346.67
513.477	23420.4
513.679	24344.03
513.881	24640.99
514.084	25193.94
514.286	25527.76
514.488	26471.87
514.69	27112.89
514.893	27487.67
515.095	27825.58
515.297	28525.99
515.499	29095.32
515.701	29722
515.904	30432.64
516.106	31063.42
516.308	31978.86
516.51	32501.09
516.712	32740.71
516.914	33496.41
517.116	34346.31
517.318	35136.83
517.52	35644.73
517.722	35710.26
517.925	36803.88
518.127	37287.2
518.329	38149.39
518.531	38548.75
518.733	39347.45
518.935	40125.68
519.136	40455.4
519.338	41313.5
519.54	41929.94
519.742	42282.19
519.944	43119.81
520.146	44403.89
520.348	44340.4
520.55	45053.09
520.752	45147.3
520.954	46273.68
521.155	46367.89
521.357	46937.23
521.559	47359.11
521.761	48424.05
521.963	48823.4
522.164	49165.42
522.366	49056.87
522.568	50230.36
522.77	50523.22
522.971	51113.03
523.173	50660.43
523.375	51582.02
523.576	51758.14
523.778	51756.1
523.98	52188.22
524.181	52724.78
524.383	52411.45
524.584	52825.14
524.786	52823.09
524.988	52812.85
525.189	52782.13
525.391	52882.48
525.592	53158.95
525.794	53500.96
525.995	52724.78
526.197	52954.16
526.398	53171.24
526.6	52995.12
526.801	52812.85
527.003	53156.91
527.204	52620.34
527.406	53001.26
527.607	52401.21
527.808	52565.04
528.01	51151.94
528.211	51754.05
528.412	52112.44
528.614	51446.85
528.815	50922.57
529.016	51053.64
529.218	49925.21
529.419	50130.01
529.62	49251.43
529.822	49222.76
530.023	48678
530.224	48125.05
530.425	47744.12
530.626	46931.08
530.828	46433.42
531.029	47260.8
531.23	45624.48
531.431	45038.76
531.632	45339.81
531.833	44606.64
532.035	43965.62
532.236	43422.91
532.437	43099.33
532.638	42247.38
532.839	41790.68
533.04	41559.26
533.241	40602.86
533.442	40948.96
533.643	40244.46
533.844	39443.71
534.045	39085.31
534.246	38378.76
534.447	38208.78
534.648	37547.29
534.849	37262.62
535.05	36646.18
535.251	35783.99
535.451	35444.02
535.652	35112.25
535.853	34297.16
536.054	34461
536.255	33731.92
536.456	32984.41
536.657	33359.19
536.857	32298.34
537.058	31925.61
537.259	31839.6
537.46	31444.34
537.66	30465.41
537.861	30739.84
538.062	30092.68
538.263	29658.51
538.463	29312.41
538.664	28890.52
538.865	28677.54
539.065	28435.88
539.266	27690.41
539.466	27743.66
539.667	27069.88
539.868	27243.96
540.068	26424.77
540.269	26332.61
540.469	25996.74
540.67	25716.17
540.87	25419.22
541.071	25015.77
541.271	24833.5
541.472	24577.5
541.672	24579.55
541.873	23907.82
542.073	23424.5
542.274	23617
542.474	23295.47
542.675	22978.04
542.875	22670.84
543.075	22334.98
543.276	21982.73
543.476	22220.29
543.676	21786.12
543.877	21411.34
544.077	21290.51
544.277	20784.66
544.478	20719.13
544.678	20704.79
544.878	20479.52
545.078	20067.88
545.279	19852.84
545.479	19680.81
545.679	19480.11
545.879	19418.67
546.079	19027.51
546.28	18370.11
546.48	18447.93
546.68	18564.67
546.88	17839.69
547.08	18177.6
547.28	17550.92
547.48	17251.92
547.68	17268.3
547.88	17034.83
548.081	17061.46
548.281	16684.63
548.481	16471.64
548.681	16356.96
548.881	16238.17
549.081	15820.39
549.28	15474.28
549.48	15619.69
549.68	15371.88
549.88	15384.17
550.08	14792.31
550.28	14495.35
550.48	14628.47
550.68	14487.16
550.88	13960.83
551.08	13686.4
551.279	13887.11
551.479	13481.61
551.679	13256.33
551.879	12979.86
552.079	13219.47
552.278	12404.38
552.478	12682.9
552.678	12369.56
552.878	12316.31
553.077	12050.08
553.277	11519.65
553.477	11777.7
553.676	11583.14
553.876	11028.14
554.076	10995.37
554.275	10942.13
554.475	10677.94
554.674	10708.66
554.874	10385.08
555.074	10137.27
555.273	10069.69
555.473	10010.3
555.672	9782.98
555.872	9856.7
556.071	9604.8
556.271	9488.07
556.47	8922.83
556.67	9152.2
556.869	8922.83
557.068	8808.14
557.268	8488.66
557.467	8314.58
557.667	8363.73
557.866	8185.56
558.065	7845.6
558.265	8009.44
558.464	7735.01
558.663	7773.92
558.863	7573.22
559.062	7632.61
559.261	7268.07
559.461	7284.45
559.66	7112.42
559.859	6932.2
560.058	6924.01
560.258	6696.69
560.457	6739.69
560.656	6760.17
560.855	6342.39
561.054	6491.89
561.253	6387.44
561.453	6188.79
561.652	5943.03
561.851	6113.02
562.05	5619.46
562.249	5793.53
562.448	5687.04
562.647	5560.06
562.846	5445.38
563.045	5590.78
563.244	5453.57
563.443	5271.3
563.642	5109.51
563.841	5064.46
564.04	5099.27
564.239	5035.78
564.438	4824.84
564.637	4767.5
564.836	4857.61
565.035	4671.25
565.234	4581.14
565.432	4620.05
565.631	4552.46
565.83	4550.42
566.029	4335.38
566.228	4235.03
566.427	4265.75
566.625	3960.6
566.824	4196.12
567.023	4017.94
567.222	3886.87
567.42	3936.03
567.619	3911.45
567.818	3772.19
568.016	4005.66
568.215	3993.37
568.414	3725.08
568.612	3485.47
568.811	3538.72
569.01	3581.73
569.208	3376.93
569.407	3546.91
569.605	3348.26
569.804	3209
570.002	3348.26
570.201	3082.02
570.4	3131.17
570.598	3057.45
570.797	3024.68
570.995	3006.25
571.193	2944.81
571.392	3051.3
571.59	2686.76
571.789	2895.66
571.987	2875.18
572.186	2846.51
572.384	2684.72
572.582	2660.14
572.781	2776.87
572.979	2522.93
573.177	2535.21
573.376	2621.23
573.574	2459.44
573.772	2412.34
573.971	2377.52
574.169	2197.3
574.367	2369.33
574.565	2250.55
574.763	2377.52
574.962	2107.19
575.16	2137.91
575.358	2058.04
575.556	2142
575.754	2080.57
575.952	1955.64
576.151	2029.37
576.349	2068.28
576.547	1832.76
576.745	1877.82
576.943	1972.02
577.141	1828.67
577.339	1871.67
577.537	1908.54
577.735	1828.67
577.933	1734.46
578.131	1658.68
578.329	1896.25
578.527	1658.68
578.725	1711.93
578.923	1597.24
579.121	1662.78
579.319	1404.74
579.516	1431.36
579.714	1761.08
579.912	1535.81
580.11	1402.69
580.308	1505.09
580.506	1302.34
580.704	1288
580.901	1308.48
581.099	1480.51
581.297	1417.02
581.495	1236.8
581.692	1269.57
581.89	1394.5
582.088	1146.69
582.285	1195.84
582.483	1189.7
582.681	1187.65
582.878	1187.65
583.076	1177.41
583.274	1242.95
583.471	1292.1
583.669	1156.93
583.866	1097.54
584.064	1075.01
584.262	1122.12
584.459	1087.3
584.657	1195.84
584.854	1134.4
585.052	1032.01
585.249	1109.83
585.447	1077.06
585.644	960.33
585.841	1052.49
586.039	1001.29
586.236	1072.96
586.434	933.7
586.631	995.14
586.828	909.13
587.026	909.13
587.223	786.25
587.42	790.35
587.618	905.03
587.815	884.55
588.012	780.11
588.21	839.5
588.407	868.17
588.604	800.59
588.801	827.21
588.999	741.19
589.196	894.79
589.393	741.19
589.59	720.71
589.787	862.02
589.984	730.95
590.182	769.87
590.379	776.01
590.576	802.63
590.773	733
590.97	710.47
591.167	798.54
591.364	708.43
591.561	640.84
591.758	843.59
591.955	841.54
592.152	753.48
592.349	698.19
592.546	749.39
592.743	657.23
592.94	689.99
593.137	827.21
593.334	755.53
593.531	825.16
593.727	757.58
593.924	767.82
594.121	804.68
594.318	747.34
594.515	733
594.712	911.18
594.908	857.93
595.105	696.14
595.302	792.39
595.499	771.91
595.696	974.66
595.892	778.06
596.089	864.07
596.286	800.59
596.482	1011.53
596.679	1023.81
596.876	907.08
597.072	970.57
597.269	995.14
597.466	1011.53
597.662	1056.58
597.859	1003.33
598.055	1056.58
598.252	1189.7
598.448	1208.13
598.645	1271.62
598.841	1281.86
599.038	1429.31
599.234	1392.45
599.431	1404.74
599.627	1386.3
599.824	1517.37
600.02	1681.21
600.217	1627.96
600.413	1754.94
600.609	1711.93
600.806	1949.5
601.002	1953.59
601.198	2002.74
601.395	2031.41
601.591	2090.81
601.787	2309.94
601.984	2238.26
602.18	2408.24
602.376	2469.68
602.572	2490.16
602.769	2729.77
602.965	2688.81
603.161	2940.71
603.357	2950.95
603.553	3168.04
603.75	3059.49
603.946	3338.02
604.142	3378.98
604.338	3510.05
604.534	3634.97
604.73	3673.89
604.926	3755.8
605.122	4163.35
605.318	4130.58
605.514	4331.28
605.71	4247.32
605.906	4511.5
606.102	4654.86
606.298	4796.17
606.494	4812.56
606.69	4953.87
606.886	5140.23
607.082	5306.12
607.278	5431.04
607.474	5562.11
607.67	5809.92
607.866	5801.72
608.062	5967.61
608.257	6283
608.453	6381.3
608.649	6700.78
608.845	6649.58
609.041	7075.56
609.236	7184.1
609.432	7411.43
609.628	7581.41
609.824	7952.09
610.019	7859.93
610.215	8079.07
610.411	8431.32
610.606	8611.54
610.802	8773.33
610.998	9215.69
611.193	9320.14
611.389	9395.91
611.584	9891.52
611.78	9907.9
611.976	10266.3
612.171	10811.06
612.367	10944.17
612.562	11030.19
612.758	11394.73
612.953	11472.55
613.149	12054.17
613.344	12170.91
613.539	12730
613.735	12899.98
613.93	13393.54
614.126	13514.38
614.321	14161.53
614.517	14440.06
614.712	14675.57
614.907	15154.8
615.103	15699.56
615.298	15670.89
615.493	16545.37
615.688	16356.96
615.884	17262.16
616.079	17366.6
616.274	18316.86
616.47	18394.68
616.665	18859.57
616.86	19265.07
617.055	19715.62
617.25	20311.58
617.445	20831.77
617.641	21210.64
617.836	21931.53
618.031	22248.96
618.226	23029.24
618.421	23688.68
618.616	24192.48
618.811	24511.97
619.006	25306.58
619.201	25593.29
619.396	26301.89
619.591	26525.12
619.786	27833.77
619.981	27563.44
620.176	28738.97
620.371	28890.52
620.566	29560.21
620.761	30430.6
620.956	30999.93
621.151	31274.36
621.346	32324.97
621.541	32316.78
621.735	33609.04
621.93	33953.1
622.125	34747.72
622.32	34929.98
622.515	35716.4
622.709	36066.61
622.904	37070.11
623.099	37670.17
623.294	38212.88
623.488	38288.65
623.683	39863.54
623.878	39789.81
624.072	40785.13
624.267	41407.71
624.462	42009.81
624.656	42292.43
624.851	43435.2
625.046	43936.95
625.24	44494
625.435	44768.43
625.629	45462.69
625.824	46029.97
626.018	46607.5
626.213	46273.68
626.407	48096.38
626.602	47416.45
626.796	48675.95
626.991	49140.84
627.185	49505.38
627.38	49505.38
627.574	49671.26
627.768	49783.9
627.963	50398.29
628.157	50162.78
628.352	50975.82
628.546	49837.15
628.74	50756.69
628.935	50078.81
629.129	50623.57
629.323	50080.86
629.517	49996.89
629.712	49230.95
629.906	48985.19
630.1	48284.79
630.294	48145.53
630.489	47158.41
630.683	46941.32
630.877	45362.34
631.071	45145.25
631.265	44524.72
631.459	43492.54
631.653	42208.47
631.848	41366.75
632.042	40516.84
632.236	39920.88
632.43	38505.74
632.624	37596.44
632.818	36185.39
633.012	35235.13
633.206	34510.15
633.4	33195.35
633.594	31294.84
633.788	30528.9
633.982	30317.96
634.176	28728.73
634.369	27358.64
634.563	26486.21
634.757	25603.53
634.951	24792.54
635.145	23457.26
635.339	22611.45
635.533	21636.62
635.726	21077.52
635.92	19799.59
636.114	19201.58
636.308	18095.68
636.501	17684.04
636.695	17067.6
636.889	16076.38
637.083	15607.4
637.276	14947.95
637.47	14337.66
637.664	13590.15
637.857	13366.92
638.051	12791.44
638.244	12177.05
638.438	11687.59
638.632	11488.93
638.825	10669.75
639.019	10364.6
639.212	9909.95
639.406	9615.04
639.599	9027.28
639.793	8957.64
639.986	8539.86
640.18	8113.88
640.373	7749.34
640.567	7491.3
640.76	7229.16
640.954	6979.31
641.147	6776.56
641.34	6332.15
641.534	6149.88
641.727	6235.89
641.92	5734.14
642.114	5678.85
642.307	5365.51
642.5	5113.61
642.694	4888.33
642.887	4904.71
643.08	4607.76
643.273	4462.35
643.467	4206.36
643.66	3985.18
643.853	3958.55
644.046	3815.2
644.239	3714.84
644.432	3505.95
644.626	3149.61
644.819	3247.91
645.012	3071.78
645.205	3022.63
645.398	2965.29
645.591	2746.16
645.784	2649.9
645.977	2434.86
646.17	2428.72
646.363	2332.47
646.556	2174.77
646.749	2101.05
646.942	2090.81
647.135	2094.9
647.328	2037.56
647.521	1910.58
647.714	1718.08
647.907	1746.75
648.099	1558.33
648.292	1773.37
648.485	1685.31
648.678	1484.61
648.871	1384.26
649.064	1429.31
649.256	1228.61
649.449	1265.47
649.642	1150.79
649.835	1163.08
650.027	1097.54
650.22	1173.32
650.413	1054.53
650.605	1093.44
650.798	1032.01
650.991	1005.38
651.183	870.22
651.376	890.7
651.568	919.37
651.761	880.46
651.954	956.23
652.146	790.35
652.339	831.3
652.531	751.43
652.724	589.64
652.916	767.82
653.109	548.68
653.301	718.67
653.494	687.95
653.686	612.17
653.879	704.33
654.071	595.79
654.263	540.49
654.456	581.45
654.648	528.21
654.84	579.4
655.033	540.49
655.225	642.89
655.417	436.05
655.61	515.92
655.802	571.21
655.994	620.36
656.186	311.12
656.379	540.49
656.571	380.75
656.763	477.01
656.955	380.75
657.148	382.8
657.34	415.57
657.532	397.14
657.724	331.6
657.916	376.66
658.108	442.19
658.3	374.61
658.492	364.37
658.684	272.21
658.876	384.85
659.068	175.95
659.26	196.43
659.452	245.59
659.644	284.5
659.836	390.99
660.028	266.07
660.22	255.83
660.412	284.5
660.604	200.53
660.796	233.3
660.988	366.42
661.18	229.2
661.372	302.93
661.563	313.17
661.755	210.77
661.947	141.14
662.139	196.43
662.331	206.67
662.522	227.15
662.714	159.57
662.906	104.28
663.097	163.67
663.289	65.36
663.481	24.4
663.673	225.11
663.864	202.58
664.056	216.91
664.247	130.9
664.439	145.24
664.631	272.21
664.822	212.82
665.014	178
665.205	180.05
665.397	128.85
665.588	231.25
665.78	81.75
665.971	118.61
666.163	151.38
666.354	196.43
666.546	151.38
666.737	87.89
666.929	118.61
667.12	135
667.311	202.58
667.503	169.81
667.694	126.8
667.885	192.34
668.077	120.66
668.268	24.4
668.459	120.66
668.651	194.39
668.842	71.51
669.033	77.65
669.224	63.32
669.416	255.83
669.607	161.62
669.798	102.23
669.989	225.11
670.18	96.08
670.371	171.86
670.563	-2.22
670.754	204.63
670.945	200.53
671.136	120.66
671.327	81.75
671.518	184.15
671.709	288.59
671.9	120.66
672.091	259.92
672.282	122.71
672.473	165.71
672.664	104.28
672.855	96.08
673.046	169.81
673.237	171.86
673.428	149.33
673.619	196.43
673.809	87.89
674	206.67
674.191	155.47
674.382	114.52
674.573	155.47
674.764	116.56
674.954	233.3
675.145	36.69
675.336	198.48
675.527	141.14
675.717	85.84
675.908	135
676.099	102.23
676.289	171.86
676.48	67.41
676.671	184.15
676.861	110.42
677.052	137.04
677.243	143.19
677.433	71.51
677.624	198.48
677.814	65.36
678.005	77.65
678.195	264.02
678.386	118.61
678.576	178
678.767	28.5
678.957	206.67
679.148	175.95
679.338	300.88
679.529	210.77
679.719	34.64
679.909	235.35
680.1	282.45
680.29	204.63
680.481	153.43
680.671	231.25
680.861	227.15
681.052	196.43
681.242	63.32
681.432	227.15
681.622	274.26
681.813	69.46
682.003	143.19
682.193	89.94
682.383	257.87
682.573	182.1
682.764	-16.55
682.954	184.15
683.144	210.77
683.334	163.67
683.524	194.39
683.714	229.2
683.904	221.01
684.094	143.19
684.284	159.57
684.474	268.11
684.664	243.54
684.854	245.59
685.044	255.83
685.234	274.26
685.424	264.02
685.614	155.47
685.804	233.3
685.994	294.74
686.184	196.43
686.374	282.45
686.564	218.96
686.753	130.9
686.943	135
687.133	180.05
687.323	132.95
687.513	270.16
687.702	157.52
687.892	206.67
688.082	278.35
688.272	223.06
688.461	231.25
688.651	354.13
688.841	192.34
689.03	175.95
689.22	208.72
689.41	292.69
689.599	266.07
689.789	214.87
689.979	356.18
690.168	188.24
690.358	247.63
690.547	210.77
690.737	245.59
690.926	231.25
691.116	251.73
691.305	266.07
691.495	304.98
691.684	182.1
691.874	186.19
692.063	186.19
692.252	255.83
692.442	331.6
692.631	218.96
692.82	208.72
693.01	245.59
693.199	210.77
693.388	229.2
693.578	126.8
693.767	257.87
693.956	210.77
694.146	251.73
694.335	225.11
694.524	223.06
694.713	311.12
694.902	202.58
695.092	229.2
695.281	261.97
695.47	184.15
695.659	167.76
695.848	204.63
696.037	110.42
696.226	188.24
696.415	206.67
696.604	298.83
696.793	282.45
696.982	194.39
697.171	331.6
697.36	251.73
697.549	212.82
697.738	85.84
697.927	229.2
698.116	98.13
698.305	190.29
698.494	147.28
698.683	171.86
698.872	300.88
699.061	272.21
699.25	198.48
699.438	227.15
699.627	200.53
699.816	319.31
700.005	188.24
700.193	237.39
700.382	288.59
700.571	218.96
700.76	192.34
700.948	311.12
701.137	280.4
701.326	296.78
701.514	221.01
701.703	245.59
701.892	251.73
702.08	403.28
702.269	104.28
702.457	114.52
702.646	292.69
702.834	159.57
703.023	266.07
703.212	317.26
703.4	161.62
703.589	202.58
703.777	196.43
703.965	196.43
704.154	161.62
704.342	167.76
704.531	239.44
704.719	210.77
704.907	298.83
705.096	173.91
705.284	143.19
705.472	210.77
705.661	294.74
705.849	202.58
706.037	282.45
706.226	225.11
706.414	247.63
706.602	169.81
706.79	251.73
706.979	192.34
707.167	243.54
707.355	122.71
707.543	274.26
707.731	239.44
707.919	159.57
708.107	202.58
708.296	180.05
708.484	145.24
708.672	196.43
708.86	221.01
709.048	163.67
709.236	159.57
709.424	212.82
709.612	288.59
709.8	110.42
709.988	241.49
710.176	261.97
710.364	218.96
710.551	268.11
710.739	227.15
710.927	141.14
711.115	239.44
711.303	247.63
711.491	290.64
711.679	196.43
711.866	327.5
712.054	163.67
712.242	298.83
712.43	274.26
712.617	235.35
712.805	345.94
712.993	130.9
713.181	26.45
713.368	233.3
713.556	192.34
713.744	233.3
713.931	403.28
714.119	218.96
714.306	208.72
714.494	178
714.682	163.67
714.869	169.81
715.057	200.53
715.244	128.85
715.432	276.31
715.619	130.9
715.807	200.53
715.994	190.29
716.182	241.49
716.369	270.16
716.556	307.02
716.744	112.47
716.931	178
717.119	302.93
717.306	184.15
717.493	210.77
717.681	200.53
717.868	167.76
718.055	319.31
718.242	245.59
718.43	270.16
718.617	302.93
718.804	266.07
718.991	347.98
719.179	257.87
719.366	253.78
719.553	286.54
719.74	257.87
719.927	221.01
720.114	280.4
720.301	135
720.488	225.11
720.676	178
720.863	325.46
721.05	341.84
721.237	319.31
721.424	257.87
721.611	325.46
721.798	190.29
721.985	178
722.172	192.34
722.358	153.43
722.545	325.46
722.732	229.2
722.919	397.14
723.106	294.74
723.293	243.54
723.48	368.46
723.667	218.96
723.853	241.49
724.04	358.22
724.227	329.55
724.414	274.26
724.6	298.83
724.787	333.65
724.974	354.13
725.161	280.4
725.347	151.38
725.534	274.26
725.72	237.39
725.907	313.17
726.094	362.32
726.28	229.2
726.467	280.4
726.653	100.18
726.84	354.13
727.027	356.18
727.213	294.74
727.4	356.18
727.586	276.31
727.773	319.31
727.959	253.78
728.145	329.55
728.332	261.97
728.518	249.68
728.705	284.5
728.891	243.54
729.077	333.65
729.264	214.87
729.45	190.29
729.636	261.97
729.823	345.94
730.009	350.03
730.195	311.12
730.382	436.05
730.568	200.53
730.754	309.07
730.94	259.92
731.126	358.22
731.313	350.03
731.499	243.54
731.685	327.5
731.871	350.03
732.057	317.26
732.243	370.51
732.429	307.02
732.615	503.63
732.801	415.57
732.987	266.07
733.173	278.35
733.359	264.02
733.545	368.46
733.731	313.17
733.917	366.42
734.103	315.22
734.289	401.23
734.475	212.82
734.661	390.99
734.847	362.32
735.033	382.8
735.219	292.69
735.404	290.64
735.59	231.25
735.776	206.67
735.962	300.88
736.148	341.84
736.333	395.09
736.519	309.07
736.705	370.51
736.89	354.13
737.076	329.55
737.262	257.87
737.447	356.18
737.633	315.22
737.819	343.89
738.004	311.12
738.19	317.26
738.375	319.31
738.561	360.27
738.747	311.12
738.932	229.2
739.118	454.48
739.303	368.46
739.489	384.85
739.674	339.79
739.859	331.6
740.045	362.32
740.23	337.74
740.416	231.25
740.601	307.02
740.786	243.54
740.972	288.59
741.157	221.01
741.342	198.48
741.528	227.15
741.713	360.27
741.898	274.26
742.084	339.79
742.269	323.41
742.454	358.22
742.639	280.4
742.824	317.26
743.01	411.47
743.195	493.39
743.38	327.5
743.565	272.21
743.75	286.54
743.935	350.03
744.12	405.33
744.305	180.05
744.49	347.98
744.675	364.37
744.86	249.68
745.045	364.37
745.23	325.46
745.415	270.16
745.6	366.42
745.785	304.98
745.97	356.18
746.155	249.68
746.34	405.33
746.525	210.77
746.71	380.75
746.895	253.78
747.079	270.16
747.264	257.87
747.449	360.27
747.634	319.31
747.819	323.41
748.003	307.02
748.188	135
748.373	345.94
748.557	290.64
748.742	264.02
748.927	264.02
749.111	257.87
749.296	237.39
749.481	300.88
749.665	296.78
749.85	225.11
750.034	255.83
750.219	339.79
750.404	253.78
750.588	204.63
750.773	208.72
750.957	249.68
751.141	198.48
751.326	384.85
751.51	137.04
751.695	272.21
751.879	241.49
752.064	266.07
752.248	251.73
752.432	298.83
752.617	327.5
752.801	311.12
752.985	208.72
753.17	218.96
753.354	243.54
753.538	343.89
753.722	126.8
753.907	239.44
754.091	87.89
754.275	239.44
754.459	173.91
754.643	173.91
754.828	235.35
755.012	212.82
755.196	96.08
755.38	255.83
755.564	200.53
755.748	225.11
755.932	280.4
756.116	163.67
756.3	282.45
756.484	94.04
756.668	221.01
756.852	77.65
757.036	132.95
757.22	171.86
757.404	225.11
757.588	171.86
757.772	151.38
757.956	102.23
758.14	315.22
758.323	79.7
758.507	167.76
758.691	114.52
758.875	329.55
759.059	132.95
759.242	223.06
759.426	178
759.61	180.05
759.794	159.57
759.977	161.62
760.161	403.28
760.345	231.25
760.528	157.52
760.712	135
760.895	180.05
761.079	155.47
761.263	102.23
761.446	59.22
761.63	145.24
761.813	243.54
761.997	77.65
762.18	171.86
762.364	251.73
762.547	40.79
762.731	108.37
762.914	218.96
763.098	155.47
763.281	188.24
763.464	89.94
763.648	270.16
763.831	135
764.015	55.12
764.198	196.43
764.381	126.8
764.564	180.05
764.748	173.91
764.931	210.77
765.114	102.23
765.297	194.39
765.481	91.99
765.664	69.46
765.847	221.01
766.03	218.96
766.213	3.93
766.397	85.84
766.58	104.28
766.763	218.96
766.946	32.6
767.129	53.08
767.312	73.56
767.495	122.71
767.678	110.42
767.861	169.81
768.044	118.61
768.227	83.8
768.41	91.99
768.593	89.94
768.776	139.09
768.959	65.36
769.142	286.54
769.324	65.36
769.507	71.51
769.69	112.47
769.873	173.91
770.056	194.39
770.239	102.23
770.421	227.15
770.604	145.24
770.787	159.57
770.97	61.27
771.152	85.84
771.335	130.9
771.518	114.52
771.7	206.67
771.883	190.29
772.066	28.5
772.248	155.47
772.431	192.34
772.613	108.37
772.796	85.84
772.978	161.62
773.161	196.43
773.343	69.46
773.526	165.71
773.708	-65.71
773.891	-6.31
774.073	112.47
774.256	141.14
774.438	208.72
774.621	28.5
774.803	98.13
774.985	46.93
775.168	26.45
775.35	118.61
775.532	89.94
775.715	118.61
775.897	91.99
776.079	3.93
776.261	110.42
776.444	108.37
776.626	57.17
776.808	38.74
776.99	-4.27
777.173	120.66
777.355	24.4
777.537	36.69
777.719	137.04
777.901	26.45
778.083	102.23
778.265	22.36
778.447	159.57
778.629	65.36
778.811	120.66
778.993	87.89
779.175	128.85
779.357	120.66
779.539	-8.36
779.721	24.4
779.903	81.75
780.085	-0.17
780.267	81.75
780.449	102.23
780.631	182.1
780.812	145.24
780.994	71.51
781.176	12.12
781.358	26.45
781.54	18.26
781.721	114.52
781.903	132.95
782.085	14.17
782.267	94.04
782.448	-102.57
782.63	-0.17
782.812	130.9
782.993	120.66
783.175	108.37
783.357	-37.03
783.538	63.32
783.72	14.17
783.901	16.21
784.083	153.43
784.264	89.94
784.446	-30.89
784.627	-0.17
784.809	137.04
784.99	12.12
785.172	110.42
785.353	14.17
785.535	53.08
785.716	-39.08
785.897	-16.55
786.079	46.93
786.26	5.97
786.441	102.23
786.623	-75.95
786.804	-2.22
786.985	5.97
787.167	16.21
787.348	-2.22
787.529	48.98
787.71	239.44
787.891	81.75
788.073	-8.36
788.254	-75.95
788.435	141.14
788.616	-0.17
788.797	16.21
788.978	10.07
789.159	71.51
789.34	69.46
789.522	63.32
789.703	24.4
789.884	73.56
790.065	63.32
790.246	169.81
790.427	-10.41
790.607	180.05
790.788	135
790.969	-47.27
791.15	71.51
791.331	46.93
791.512	20.31
791.693	-6.31
791.874	-14.51
792.054	245.59
792.235	161.62
792.416	-51.37
792.597	-80.04
792.778	100.18
792.958	38.74
793.139	32.6
793.32	130.9
793.5	-65.71
793.681	63.32
793.862	42.84
794.042	5.97
794.223	-0.17
794.404	18.26
794.584	-43.18
794.765	-57.51
794.945	20.31
795.126	118.61
795.306	165.71
795.487	51.03
795.667	-34.99
795.848	85.84
796.028	22.36
796.209	-14.51
796.389	110.42
796.57	-18.6
796.75	-12.46
796.93	32.6
797.111	-18.6
797.291	51.03
797.471	91.99
797.652	-47.27
797.832	-69.8
798.012	46.93
798.192	-32.94
798.373	-49.32
798.553	-8.36
798.733	26.45
798.913	-30.89
799.093	-16.55
799.274	3.93
799.454	110.42
799.634	44.88
799.814	130.9
799.994	108.37
800.174	104.28
800.354	22.36
800.534	-153.77
800.714	14.17
800.894	-90.28
801.074	-6.31
801.254	40.79
801.434	55.12
801.614	30.55
801.794	-104.62
801.974	1838.91
802.154	-47.27
802.334	69.46
802.514	-106.67
802.693	-4.27
802.873	-37.03
803.053	83.8
803.233	67.41
803.413	22.36
803.592	8.02
803.772	-2.22
803.952	61.27
804.131	-77.99
804.311	46.93
804.491	83.8
804.67	-0.17
804.85	1.88
805.03	65.36
805.209	36.69
805.389	-39.08
805.568	-37.03
805.748	-24.75
805.928	3.93
806.107	102.23
806.287	57.17
806.466	83.8
806.646	36.69
806.825	75.6
807.004	-0.17
807.184	51.03
807.363	65.36
807.543	-22.7
807.722	5.97
807.901	147.28
808.081	79.7
808.26	-118.95
808.439	118.61
808.619	48.98
808.798	71.51
808.977	-32.94
809.156	40.79
809.336	114.52
809.515	98.13
809.694	-53.42
809.873	-10.41
810.052	-24.75
810.231	5.97
810.411	10.07
810.59	63.32
810.769	3.93
810.948	48.98
811.127	-98.47
811.306	-135.34
811.485	34.64
811.664	126.8
811.843	-10.41
812.022	-104.62
812.201	-28.84
812.38	1.88
812.559	-43.18
812.737	59.22
812.916	-133.29
813.095	-18.6
813.274	12.12
813.453	-30.89
813.632	51.03
813.811	163.67
813.989	-141.48
814.168	28.5
814.347	-24.75
814.526	-12.46
814.704	20.31
814.883	79.7
815.062	-88.23
815.24	65.36
815.419	-22.7
815.598	85.84
815.776	-75.95
815.955	-26.79
816.133	-51.37
816.312	5.97
816.49	-73.9
816.669	94.04
816.847	-16.55
817.026	59.22
817.204	3.93
817.383	38.74
817.561	-47.27
817.74	16.21
817.918	30.55
818.097	-90.28
818.275	-26.79
818.453	12.12
818.632	-6.31
818.81	-4.27
818.988	-12.46
819.167	30.55
819.345	36.69
819.523	-61.61
819.701	91.99
819.879	63.32
820.058	28.5
820.236	63.32
820.414	-59.56
820.592	-92.33
820.77	44.88
820.948	-34.99
821.127	-8.36
821.305	-30.89
821.483	-43.18
821.661	100.18
821.839	18.26
822.017	-75.95
822.195	-108.71
822.373	112.47
822.551	44.88
822.729	42.84
822.907	12.12
823.085	57.17
823.262	16.21
823.44	69.46
823.618	1.88
823.796	-26.79
823.974	-26.79
824.152	32.6
824.329	-2.22
824.507	22.36
824.685	3.93
824.863	-80.04
825.04	-6.31
825.218	1.88
825.396	-47.27
825.574	53.08
825.751	24.4
825.929	67.41
826.107	-106.67
826.284	-12.46
826.462	104.28
826.639	-6.31
826.817	-114.86
826.994	-12.46
827.172	-45.23
827.349	77.65
827.527	46.93
827.704	-6.31
827.882	32.6
828.059	-34.99
828.237	-55.47
828.414	40.79
828.591	-106.67
828.769	-16.55
828.946	-41.13
829.124	57.17
829.301	65.36
829.478	-39.08
829.655	28.5
829.833	8.02
830.01	-145.58
830.187	65.36
830.364	-4.27
830.542	-39.08
830.719	81.75
830.896	53.08
831.073	-49.32
831.25	8.02
831.427	20.31
831.604	5.97
831.782	-43.18
831.959	3.93
832.136	-49.32
832.313	69.46
832.49	-82.09
832.667	-0.17
832.844	-10.41
833.021	114.52
833.198	85.84
833.374	38.74
833.551	55.12
833.728	-26.79
833.905	44.88
834.082	-100.52
834.259	32.6
834.436	122.71
834.612	-32.94
834.789	89.94
834.966	-6.31
835.143	-12.46
835.319	-94.38
835.496	44.88
835.673	55.12
835.85	108.37
836.026	38.74
836.203	71.51
836.38	-96.43
836.556	16.21
836.733	-112.81
836.909	110.42
837.086	14.17
837.262	-155.82
837.439	-28.84
837.616	1.88
837.792	-26.79
837.968	32.6
838.145	-102.57
838.321	-53.42
838.498	-28.84
838.674	40.79
838.851	61.27
839.027	-41.13
839.203	51.03
839.38	22.36
839.556	48.98
839.732	75.6
839.909	-73.9
840.085	55.12
840.261	-75.95
840.437	26.45
840.614	-6.31
840.79	8.02
840.966	-67.75
841.142	44.88
841.318	-37.03
841.494	59.22
841.671	75.6
841.847	-82.09
842.023	-82.09
842.199	36.69
842.375	51.03
842.551	-106.67
842.727	-77.99
842.903	137.04
843.079	-45.23
843.255	55.12
843.431	-59.56
843.607	-18.6
843.783	-100.52
843.959	-0.17
844.134	-37.03
844.31	46.93
844.486	-6.31
844.662	-24.75
844.838	5.97
845.013	55.12
845.189	32.6
845.365	-80.04
845.541	-18.6
845.716	-24.75
845.892	130.9
846.068	-37.03
846.244	-112.81
846.419	16.21
846.595	-90.28
846.77	-8.36
846.946	24.4
847.122	-77.99
847.297	-65.71
847.473	126.8
847.648	-53.42
847.824	81.75
847.999	-143.53
848.175	-24.75
848.35	14.17
848.526	8.02
848.701	69.46
848.876	22.36
849.052	147.28
849.227	-71.85
849.403	-57.51
849.578	-10.41
849.753	10.07
849.929	71.51
850.104	-69.8
850.279	26.45
850.454	-14.51
850.63	18.26
850.805	12.12
850.98	-12.46
851.155	-65.71
851.33	-24.75
851.505	-94.38
851.681	75.6
851.856	-118.95
852.031	79.7
852.206	-0.17
852.381	-22.7
852.556	-77.99
852.731	18.26
852.906	42.84
853.081	8.02
853.256	85.84
853.431	-39.08
853.606	-131.24
853.781	-69.8
853.956	-127.14
854.131	-32.94
854.305	-43.18
854.48	-69.8
854.655	-69.8
854.83	-121
855.005	-65.71
855.18	14.17
855.354	-137.38
855.529	5.97
855.704	-8.36
855.879	-45.23
856.053	-63.66
856.228	32.6
856.403	-20.65
856.577	12.12
856.752	-143.53
856.926	-32.94
857.101	-28.84
857.276	-80.04
857.45	-8.36
857.625	34.64
857.799	12.12
857.974	26.45
858.148	-149.67
858.323	18.26
858.497	-6.31
858.672	-84.14
858.846	-71.85
859.02	36.69
859.195	-63.66
859.369	22.36
859.543	18.26
859.718	-32.94
859.892	-12.46
860.066	-22.7
860.241	-18.6
860.415	-8.36
860.589	-77.99
860.763	8.02
860.938	18.26
861.112	40.79
861.286	-14.51
861.46	5.97
861.634	-6.31
861.808	71.51
861.982	-16.55
862.157	-123.05
862.331	-41.13
862.505	-71.85
862.679	-121
862.853	-20.65
863.027	-41.13
863.201	132.95
863.375	-47.27
863.549	10.07
863.722	34.64
863.896	79.7
864.07	-61.61
864.244	-18.6
864.418	-30.89
864.592	-47.27
864.766	36.69
864.939	-10.41
865.113	-86.19
865.287	-4.27
865.461	-94.38
865.634	67.41
865.808	22.36
865.982	-26.79
866.156	-75.95
866.329	-88.23
866.503	-32.94
866.676	91.99
866.85	24.4
867.024	-75.95
867.197	20.31
867.371	46.93
867.544	44.88
867.718	-141.48
867.891	102.23
868.065	-57.51
868.238	-26.79
868.412	73.56
868.585	59.22
868.759	-92.33
868.932	-61.61
869.105	-71.85
869.279	3.93
869.452	-164.01
869.625	32.6
869.799	-155.82
869.972	-16.55
870.145	-82.09
870.319	-45.23
870.492	-65.71
870.665	-55.47
870.838	-30.89
871.011	-118.95
871.185	-84.14
871.358	-20.65
871.531	30.55
871.704	-12.46
871.877	112.47
872.05	-16.55
872.223	-168.1
872.396	48.98
872.569	36.69
872.742	-141.48
872.915	-18.6
873.088	-47.27
873.261	-51.37
873.434	53.08
873.607	-49.32
873.78	42.84
873.953	-67.75
874.126	20.31
874.299	1.88
874.471	-20.65
874.644	8.02
874.817	36.69
874.99	108.37
875.163	-22.7
875.335	28.5
875.508	14.17
875.681	75.6
875.853	20.31
876.026	53.08
876.199	73.56
876.371	22.36
876.544	-28.84
876.717	16.21
876.889	-30.89
877.062	26.45
877.234	-47.27
877.407	-6.31
877.579	61.27
877.752	-37.03
877.924	40.79
878.097	16.21
878.269	59.22
878.442	-84.14
878.614	28.5
878.786	-32.94
878.959	12.12
879.131	28.5
879.303	-125.1
879.476	-18.6
879.648	100.18
879.82	-94.38
879.993	-51.37
880.165	-41.13
880.337	-82.09
880.509	-16.55
880.681	-102.57
880.854	-49.32
881.026	12.12
881.198	192.34
881.37	10.07
881.542	-8.36
881.714	-14.51
881.886	-43.18
882.058	42.84
882.23	-45.23
882.402	-12.46
882.574	10.07
882.746	81.75
882.918	-34.99
883.09	-8.36
883.262	-67.75
883.434	44.88
883.606	-100.52
883.778	-94.38
883.95	163.67
884.122	8.02
884.293	-4.27
884.465	-65.71
884.637	-20.65
884.809	-65.71
884.98	3.93
885.152	46.93
885.324	28.5
885.496	-30.89
885.667	-65.71
885.839	-16.55
886.011	8.02
886.182	-0.17
886.354	-16.55
886.525	48.98
886.697	40.79
886.869	-67.75
887.04	-49.32
887.212	130.9
887.383	32.6
887.555	-28.84
887.726	-16.55
887.897	-49.32
888.069	44.88
888.24	38.74
888.412	16.21
888.583	1.88
888.754	-49.32
888.926	-125.1
889.097	-55.47
889.268	-84.14
889.44	-59.56
889.611	-43.18
889.782	-131.24
889.953	-82.09
890.125	94.04
890.296	-127.14
890.467	-55.47
890.638	-49.32
890.809	91.99
890.98	-92.33
891.151	-2.22
891.323	30.55
891.494	65.36
891.665	-14.51
891.836	-8.36
892.007	-43.18
892.178	5.97
892.349	46.93
892.52	-127.14
892.691	-6.31
892.862	-28.84
893.032	-98.47
893.203	-28.84
893.374	8.02
893.545	55.12
893.716	-63.66
893.887	67.41
894.057	-37.03
894.228	-26.79
894.399	-37.03
894.57	16.21
894.74	-106.67
894.911	-24.75
895.082	-45.23
895.253	-65.71
895.423	-20.65
895.594	-0.17
895.764	28.5
895.935	-57.51
896.106	3.93
896.276	-110.76
896.447	42.84
896.617	-26.79
896.788	-65.71
896.958	-137.38
897.129	16.21
897.299	-133.29
897.47	14.17
897.64	38.74
897.81	-131.24
897.981	-18.6
898.151	-28.84
898.322	-47.27
898.492	-0.17
898.662	-86.19
898.832	-61.61
899.003	32.6
899.173	-43.18
899.343	-51.37
899.513	-57.51
