Data from USB4F104151__32__09-26-53-012.txt Node

Date: Wed Feb 26 09:26:53 EST 2025
User: louis
Spectrometer: USB4F10415
Trigger mode: 4
Integration Time (sec): 1.000000E-1
Scans to average: 1
Electric dark correction enabled: true
Nonlinearity correction enabled: false
Boxcar width: 0
XAxis mode: Wavelengths
Number of Pixels in Spectrum: 3648
>>>>>Begin Spectral Data<<<<<
178.204	-350.54
178.424	-350.54
178.644	-350.54
178.864	-352.59
179.084	-350.54
179.304	-8.53
179.524	3.75
179.744	-16.73
179.964	106.15
180.184	-10.58
180.404	22.19
180.624	-0.34
180.844	-31.06
181.064	-51.54
181.283	-6.49
181.503	-29.01
181.723	22.19
181.943	-117.08
182.163	196.26
182.383	-0.34
182.602	83.63
182.822	181.93
183.042	63.15
183.262	-0.34
183.482	38.57
183.701	-39.25
183.921	-14.68
184.141	-20.82
184.361	44.71
184.58	-6.49
184.8	22.19
185.02	42.67
185.239	65.19
185.459	30.38
185.679	165.54
185.898	-35.16
186.118	50.86
186.338	89.77
186.557	116.39
186.777	-24.92
186.997	79.53
187.216	59.05
187.436	169.64
187.655	91.82
187.875	46.76
188.095	46.76
188.314	75.43
188.534	140.97
188.753	-55.64
188.973	177.83
189.192	183.98
189.412	50.86
189.631	-22.87
189.851	5.8
190.07	183.98
190.29	-22.87
190.509	-8.53
190.729	46.76
190.948	102.06
191.168	196.26
191.387	54.95
191.607	-14.68
191.826	83.63
192.045	81.58
192.265	-14.68
192.484	65.19
192.704	85.67
192.923	-14.68
193.142	95.91
193.362	7.85
193.581	118.44
193.8	30.38
194.02	7.85
194.239	-4.44
194.458	38.57
194.678	-14.68
194.897	26.28
195.116	40.62
195.335	54.95
195.555	145.06
195.774	91.82
195.993	26.28
196.212	26.28
196.432	24.23
196.651	-65.88
196.87	-39.25
197.089	130.73
197.308	83.63
197.528	50.86
197.747	-14.68
197.966	59.05
198.185	138.92
198.404	-0.34
198.623	104.11
198.842	89.77
199.062	57
199.281	149.16
199.5	-22.87
199.719	67.24
199.938	95.91
200.157	87.72
200.376	65.19
200.595	112.3
200.814	89.77
201.033	7.85
201.252	104.11
201.471	18.09
201.69	128.68
201.909	1.71
202.128	65.19
202.347	44.71
202.566	59.05
202.785	-108.88
203.004	24.23
203.223	212.65
203.442	50.86
203.661	-51.54
203.879	54.95
204.098	38.57
204.317	-10.58
204.536	114.34
204.755	102.06
204.974	108.2
205.193	34.47
205.411	186.02
205.63	149.16
205.849	7.85
206.068	-65.88
206.287	-2.39
206.505	85.67
206.724	-31.06
206.943	-47.44
207.162	50.86
207.381	73.39
207.599	5.8
207.818	-0.34
208.037	-0.34
208.255	-39.25
208.474	48.81
208.693	38.57
208.911	91.82
209.13	124.58
209.349	161.45
209.567	63.15
209.786	59.05
210.005	100.01
210.223	20.14
210.442	-119.12
210.661	61.1
210.879	5.8
211.098	1.71
211.316	69.29
211.535	73.39
211.753	40.62
211.972	18.09
212.191	71.34
212.409	-29.01
212.628	116.39
212.846	-84.31
213.065	-6.49
213.283	87.72
213.502	44.71
213.72	65.19
213.938	63.15
214.157	-35.16
214.375	169.64
214.594	16.04
214.812	79.53
215.031	-8.53
215.249	-39.25
215.467	63.15
215.686	77.48
215.904	42.67
216.122	50.86
216.341	145.06
216.559	97.96
216.778	138.92
216.996	149.16
217.214	20.14
217.432	1.71
217.651	-47.44
217.869	34.47
218.087	-6.49
218.306	-41.3
218.524	32.43
218.742	-8.53
218.96	79.53
219.179	20.14
219.397	28.33
219.615	186.02
219.833	75.43
220.051	-35.16
220.27	77.48
220.488	59.05
220.706	52.91
220.924	5.8
221.142	24.23
221.36	81.58
221.578	54.95
221.796	11.95
222.015	-6.49
222.233	5.8
222.451	130.73
222.669	-8.53
222.887	38.57
223.105	34.47
223.323	-2.39
223.541	5.8
223.759	91.82
223.977	32.43
224.195	163.5
224.413	83.63
224.631	38.57
224.849	91.82
225.067	97.96
225.285	26.28
225.503	-35.16
225.721	13.99
225.939	9.9
226.157	34.47
226.375	196.26
226.592	-14.68
226.81	18.09
227.028	181.93
227.246	167.59
227.464	40.62
227.682	71.34
227.9	106.15
228.117	44.71
228.335	32.43
228.553	-22.87
228.771	18.09
228.989	81.58
229.206	-16.73
229.424	30.38
229.642	-22.87
229.86	-14.68
230.077	69.29
230.295	75.43
230.513	50.86
230.731	52.91
230.948	114.34
231.166	130.73
231.384	5.8
231.601	-33.11
231.819	177.83
232.037	22.19
232.254	-88.4
232.472	44.71
232.689	34.47
232.907	61.1
233.125	-2.39
233.342	-63.83
233.56	-0.34
233.777	26.28
233.995	91.82
234.213	83.63
234.43	93.87
234.648	36.52
234.865	-39.25
235.083	42.67
235.3	54.95
235.518	-16.73
235.735	157.35
235.953	169.64
236.17	38.57
236.388	-4.44
236.605	-10.58
236.822	192.17
237.04	67.24
237.257	71.34
237.475	9.9
237.692	-12.63
237.909	26.28
238.127	-31.06
238.344	32.43
238.562	75.43
238.779	-63.83
238.996	-43.35
239.214	18.09
239.431	69.29
239.648	-41.3
239.865	138.92
240.083	65.19
240.3	22.19
240.517	-4.44
240.735	9.9
240.952	110.25
241.169	48.81
241.386	-12.63
241.603	48.81
241.821	3.75
242.038	71.34
242.255	91.82
242.472	-35.16
242.689	91.82
242.907	136.87
243.124	104.11
243.341	32.43
243.558	26.28
243.775	-35.16
243.992	-6.49
244.209	61.1
244.426	198.31
244.643	-2.39
244.86	71.34
245.078	81.58
245.295	9.9
245.512	24.23
245.729	-0.34
245.946	59.05
246.163	30.38
246.38	-10.58
246.597	9.9
246.814	11.95
247.031	42.67
247.248	48.81
247.464	130.73
247.681	61.1
247.898	67.24
248.115	83.63
248.332	-51.54
248.549	130.73
248.766	89.77
248.983	-14.68
249.2	57
249.417	163.5
249.633	26.28
249.85	57
250.067	-18.77
250.284	-18.77
250.501	69.29
250.717	50.86
250.934	-29.01
251.151	-8.53
251.368	-6.49
251.585	57
251.801	-24.92
252.018	28.33
252.235	57
252.451	-18.77
252.668	-18.77
252.885	91.82
253.102	20.14
253.318	1.71
253.535	-18.77
253.752	-12.63
253.968	-57.68
254.185	-47.44
254.401	-14.68
254.618	24.23
254.835	-6.49
255.051	63.15
255.268	75.43
255.484	28.33
255.701	-2.39
255.917	26.28
256.134	-39.25
256.351	-4.44
256.567	-45.4
256.784	-31.06
257	-57.68
257.217	122.54
257.433	87.72
257.65	36.52
257.866	143.02
258.082	-92.5
258.299	-82.26
258.515	59.05
258.732	-69.97
258.948	-8.53
259.165	9.9
259.381	11.95
259.597	50.86
259.814	42.67
260.03	18.09
260.246	50.86
260.463	153.26
260.679	61.1
260.895	-6.49
261.112	54.95
261.328	130.73
261.544	-20.82
261.761	112.3
261.977	24.23
262.193	-47.44
262.409	38.57
262.626	95.91
262.842	18.09
263.058	-98.64
263.274	79.53
263.49	38.57
263.707	26.28
263.923	116.39
264.139	-35.16
264.355	112.3
264.571	173.74
264.787	46.76
265.004	149.16
265.22	59.05
265.436	-33.11
265.652	-72.02
265.868	-6.49
266.084	-51.54
266.3	34.47
266.516	-84.31
266.732	7.85
266.948	-6.49
267.164	-16.73
267.38	124.58
267.596	40.62
267.812	173.74
268.028	32.43
268.244	-6.49
268.46	9.9
268.676	32.43
268.892	7.85
269.108	-59.73
269.324	-78.16
269.54	-69.97
269.756	138.92
269.972	-72.02
270.188	-26.96
270.403	-57.68
270.619	-2.39
270.835	34.47
271.051	61.1
271.267	-20.82
271.483	-10.58
271.698	-8.53
271.914	40.62
272.13	-0.34
272.346	-47.44
272.562	-41.3
272.777	97.96
272.993	48.81
273.209	-16.73
273.425	46.76
273.64	-47.44
273.856	26.28
274.072	-8.53
274.287	-37.2
274.503	124.58
274.719	57
274.934	-37.2
275.15	-49.49
275.366	24.23
275.581	-26.96
275.797	-69.97
276.012	48.81
276.228	-29.01
276.444	116.39
276.659	116.39
276.875	-0.34
277.09	54.95
277.306	61.1
277.521	100.01
277.737	-16.73
277.952	54.95
278.168	108.2
278.383	-16.73
278.599	5.8
278.814	65.19
279.03	52.91
279.245	67.24
279.461	36.52
279.676	91.82
279.892	7.85
280.107	-49.49
280.322	-29.01
280.538	87.72
280.753	-106.84
280.969	75.43
281.184	48.81
281.399	100.01
281.615	52.91
281.83	20.14
282.045	-14.68
282.26	-82.26
282.476	63.15
282.691	59.05
282.906	79.53
283.122	9.9
283.337	-67.92
283.552	46.76
283.767	-16.73
283.983	9.9
284.198	75.43
284.413	83.63
284.628	-88.4
284.843	30.38
285.058	38.57
285.274	16.04
285.489	9.9
285.704	102.06
285.919	9.9
286.134	13.99
286.349	24.23
286.564	18.09
286.779	149.16
286.995	42.67
287.21	-49.49
287.425	89.77
287.64	-61.78
287.855	42.67
288.07	-98.64
288.285	145.06
288.5	140.97
288.715	36.52
288.93	112.3
289.145	-6.49
289.36	54.95
289.575	50.86
289.79	132.78
290.004	9.9
290.219	71.34
290.434	-43.35
290.649	-35.16
290.864	-0.34
291.079	52.91
291.294	22.19
291.509	108.2
291.724	42.67
291.938	7.85
292.153	28.33
292.368	-8.53
292.583	13.99
292.798	122.54
293.012	118.44
293.227	124.58
293.442	28.33
293.657	120.49
293.871	124.58
294.086	11.95
294.301	181.93
294.516	108.2
294.73	108.2
294.945	-63.83
295.16	9.9
295.374	91.82
295.589	100.01
295.804	16.04
296.018	-2.39
296.233	83.63
296.447	38.57
296.662	7.85
296.877	106.15
297.091	52.91
297.306	34.47
297.52	34.47
297.735	112.3
297.949	24.23
298.164	-26.96
298.378	52.91
298.593	-55.64
298.807	-69.97
299.022	-65.88
299.236	169.64
299.451	104.11
299.665	13.99
299.88	67.24
300.094	18.09
300.309	20.14
300.523	-0.34
300.737	79.53
300.952	63.15
301.166	57
301.381	13.99
301.595	-45.4
301.809	75.43
302.024	5.8
302.238	-2.39
302.452	79.53
302.667	42.67
302.881	32.43
303.095	75.43
303.309	61.1
303.524	16.04
303.738	-6.49
303.952	-121.17
304.166	140.97
304.381	-143.7
304.595	36.52
304.809	50.86
305.023	-10.58
305.237	50.86
305.452	-4.44
305.666	32.43
305.88	95.91
306.094	91.82
306.308	-33.11
306.522	108.2
306.736	48.81
306.95	118.44
307.164	-16.73
307.379	-29.01
307.593	95.91
307.807	108.2
308.021	9.9
308.235	73.39
308.449	-53.59
308.663	26.28
308.877	140.97
309.091	30.38
309.305	65.19
309.519	-88.4
309.733	108.2
309.947	-12.63
310.161	122.54
310.374	112.3
310.588	128.68
310.802	-31.06
311.016	-39.25
311.23	71.34
311.444	11.95
311.658	-8.53
311.872	52.91
312.085	100.01
312.299	83.63
312.513	112.3
312.727	57
312.941	-24.92
313.154	30.38
313.368	54.95
313.582	22.19
313.796	63.15
314.009	-37.2
314.223	147.11
314.437	16.04
314.651	106.15
314.864	-80.21
315.078	-33.11
315.292	-47.44
315.505	-22.87
315.719	-0.34
315.933	57
316.146	54.95
316.36	22.19
316.573	59.05
316.787	54.95
317.001	61.1
317.214	-98.64
317.428	100.01
317.641	-29.01
317.855	57
318.068	26.28
318.282	28.33
318.495	159.4
318.709	-2.39
318.922	16.04
319.136	138.92
319.349	93.87
319.563	1.71
319.776	128.68
319.99	-37.2
320.203	54.95
320.417	22.19
320.63	-6.49
320.843	120.49
321.057	120.49
321.27	65.19
321.483	89.77
321.697	81.58
321.91	18.09
322.124	-10.58
322.337	67.24
322.55	-33.11
322.763	7.85
322.977	50.86
323.19	7.85
323.403	57
323.617	50.86
323.83	140.97
324.043	22.19
324.256	30.38
324.469	-18.77
324.683	83.63
324.896	-2.39
325.109	13.99
325.322	-143.7
325.535	46.76
325.748	73.39
325.962	-22.87
326.175	24.23
326.388	69.29
326.601	108.2
326.814	-33.11
327.027	91.82
327.24	147.11
327.453	-59.73
327.666	48.81
327.879	69.29
328.092	50.86
328.305	85.67
328.518	67.24
328.731	18.09
328.944	-37.2
329.157	13.99
329.37	34.47
329.583	188.07
329.796	116.39
330.009	-63.83
330.222	91.82
330.435	104.11
330.648	13.99
330.861	-0.34
331.073	50.86
331.286	38.57
331.499	18.09
331.712	-24.92
331.925	42.67
332.138	79.53
332.35	83.63
332.563	-55.64
332.776	32.43
332.989	20.14
333.202	-12.63
333.414	9.9
333.627	34.47
333.84	-8.53
334.053	-57.68
334.265	7.85
334.478	-14.68
334.691	-20.82
334.903	34.47
335.116	-33.11
335.329	-14.68
335.541	22.19
335.754	110.25
335.966	-0.34
336.179	26.28
336.392	73.39
336.604	24.23
336.817	59.05
337.029	-14.68
337.242	-14.68
337.454	28.33
337.667	-127.32
337.88	65.19
338.092	-22.87
338.305	116.39
338.517	1.71
338.729	83.63
338.942	116.39
339.154	-29.01
339.367	-39.25
339.579	34.47
339.792	24.23
340.004	59.05
340.217	-92.5
340.429	67.24
340.641	26.28
340.854	48.81
341.066	36.52
341.278	136.87
341.491	95.91
341.703	54.95
341.915	-14.68
342.128	149.16
342.34	93.87
342.552	-6.49
342.764	18.09
342.977	-8.53
343.189	63.15
343.401	63.15
343.613	-117.08
343.826	26.28
344.038	-22.87
344.25	48.81
344.462	-55.64
344.674	97.96
344.886	11.95
345.099	67.24
345.311	28.33
345.523	-24.92
345.735	-61.78
345.947	30.38
346.159	18.09
346.371	-14.68
346.583	67.24
346.795	192.17
347.007	-16.73
347.219	63.15
347.431	-24.92
347.643	89.77
347.855	-74.07
348.067	100.01
348.279	-88.4
348.491	-20.82
348.703	147.11
348.915	102.06
349.127	-51.54
349.339	44.71
349.551	11.95
349.763	100.01
349.975	91.82
350.187	130.73
350.399	100.01
350.61	75.43
350.822	34.47
351.034	69.29
351.246	-61.78
351.458	42.67
351.669	18.09
351.881	128.68
352.093	71.34
352.305	83.63
352.517	54.95
352.728	26.28
352.94	108.2
353.152	54.95
353.363	-137.56
353.575	120.49
353.787	126.63
353.999	9.9
354.21	102.06
354.422	1.71
354.633	34.47
354.845	-53.59
355.057	34.47
355.268	13.99
355.48	93.87
355.692	-39.25
355.903	38.57
356.115	-94.55
356.326	-106.84
356.538	61.1
356.749	75.43
356.961	102.06
357.172	13.99
357.384	-0.34
357.595	153.26
357.807	46.76
358.018	24.23
358.23	26.28
358.441	124.58
358.653	108.2
358.864	-18.77
359.075	-49.49
359.287	28.33
359.498	44.71
359.709	30.38
359.921	-18.77
360.132	85.67
360.344	3.75
360.555	50.86
360.766	13.99
360.977	26.28
361.189	79.53
361.4	46.76
361.611	163.5
361.823	110.25
362.034	-0.34
362.245	-110.93
362.456	-8.53
362.667	61.1
362.879	5.8
363.09	57
363.301	22.19
363.512	7.85
363.723	24.23
363.935	-90.45
364.146	65.19
364.357	-35.16
364.568	63.15
364.779	-82.26
364.99	83.63
365.201	34.47
365.412	89.77
365.623	-92.5
365.834	67.24
366.045	9.9
366.256	30.38
366.467	42.67
366.678	-12.63
366.889	-18.77
367.1	-14.68
367.311	140.97
367.522	-14.68
367.733	132.78
367.944	-18.77
368.155	9.9
368.366	65.19
368.577	32.43
368.788	124.58
368.999	22.19
369.209	26.28
369.42	222.89
369.631	167.59
369.842	54.95
370.053	-0.34
370.264	-8.53
370.474	-26.96
370.685	3.75
370.896	16.04
371.107	85.67
371.317	54.95
371.528	38.57
371.739	104.11
371.95	28.33
372.16	91.82
372.371	-139.6
372.582	-18.77
372.792	91.82
373.003	24.23
373.214	-37.2
373.424	69.29
373.635	-43.35
373.846	79.53
374.056	42.67
374.267	-14.68
374.477	91.82
374.688	-6.49
374.898	-18.77
375.109	48.81
375.319	57
375.53	3.75
375.74	7.85
375.951	-51.54
376.161	38.57
376.372	134.82
376.582	-24.92
376.793	87.72
377.003	7.85
377.214	36.52
377.424	100.01
377.635	61.1
377.845	32.43
378.055	116.39
378.266	-51.54
378.476	59.05
378.686	97.96
378.897	67.24
379.107	112.3
379.317	24.23
379.528	-35.16
379.738	95.91
379.948	-88.4
380.158	81.58
380.369	48.81
380.579	159.4
380.789	69.29
380.999	40.62
381.21	87.72
381.42	173.74
381.63	28.33
381.84	130.73
382.05	59.05
382.261	118.44
382.471	118.44
382.681	18.09
382.891	93.87
383.101	44.71
383.311	-117.08
383.521	-26.96
383.731	26.28
383.941	46.76
384.151	81.58
384.361	71.34
384.571	59.05
384.781	38.57
384.991	218.79
385.201	147.11
385.411	42.67
385.621	63.15
385.831	7.85
386.041	-8.53
386.251	-20.82
386.461	126.63
386.671	-8.53
386.881	38.57
387.091	16.04
387.301	112.3
387.511	34.47
387.72	179.88
387.93	30.38
388.14	-35.16
388.35	71.34
388.56	57
388.769	63.15
388.979	71.34
389.189	32.43
389.399	-37.2
389.609	100.01
389.818	126.63
390.028	32.43
390.238	18.09
390.447	9.9
390.657	46.76
390.867	54.95
391.076	-14.68
391.286	16.04
391.496	-4.44
391.705	52.91
391.915	87.72
392.125	79.53
392.334	1.71
392.544	63.15
392.753	40.62
392.963	-4.44
393.172	46.76
393.382	9.9
393.591	134.82
393.801	-22.87
394.01	104.11
394.22	85.67
394.429	-37.2
394.639	26.28
394.848	-22.87
395.058	40.62
395.267	30.38
395.477	97.96
395.686	20.14
395.895	118.44
396.105	177.83
396.314	126.63
396.524	3.75
396.733	18.09
396.942	79.53
397.152	26.28
397.361	153.26
397.57	97.96
397.78	9.9
397.989	100.01
398.198	181.93
398.407	26.28
398.617	3.75
398.826	-31.06
399.035	-31.06
399.244	110.25
399.453	-16.73
399.663	79.53
399.872	34.47
400.081	-22.87
400.29	73.39
400.499	-6.49
400.708	116.39
400.917	1.71
401.127	11.95
401.336	-41.3
401.545	128.68
401.754	93.87
401.963	87.72
402.172	-49.49
402.381	-16.73
402.59	30.38
402.799	9.9
403.008	87.72
403.217	71.34
403.426	16.04
403.635	-18.77
403.844	34.47
404.053	9.9
404.262	7.85
404.471	128.68
404.68	42.67
404.888	46.76
405.097	-10.58
405.306	-22.87
405.515	9.9
405.724	50.86
405.933	50.86
406.142	24.23
406.35	190.12
406.559	-20.82
406.768	52.91
406.977	140.97
407.185	-16.73
407.394	65.19
407.603	-24.92
407.812	1.71
408.02	97.96
408.229	54.95
408.438	-8.53
408.646	-20.82
408.855	40.62
409.064	16.04
409.272	-8.53
409.481	77.48
409.69	71.34
409.898	63.15
410.107	9.9
410.315	79.53
410.524	16.04
410.733	24.23
410.941	42.67
411.15	42.67
411.358	132.78
411.567	67.24
411.775	-2.39
411.984	48.81
412.192	67.24
412.401	-33.11
412.609	173.74
412.818	112.3
413.026	122.54
413.234	16.04
413.443	-12.63
413.651	54.95
413.86	7.85
414.068	128.68
414.276	155.3
414.485	-0.34
414.693	97.96
414.901	202.41
415.11	54.95
415.318	22.19
415.526	5.8
415.734	100.01
415.943	50.86
416.151	126.63
416.359	106.15
416.567	57
416.776	104.11
416.984	48.81
417.192	89.77
417.4	-35.16
417.608	11.95
417.817	-86.36
418.025	40.62
418.233	147.11
418.441	-53.59
418.649	-51.54
418.857	50.86
419.065	126.63
419.273	20.14
419.481	50.86
419.689	89.77
419.897	73.39
420.105	-16.73
420.313	18.09
420.521	132.78
420.729	69.29
420.937	-35.16
421.145	-22.87
421.353	57
421.561	208.55
421.769	-4.44
421.977	-10.58
422.185	52.91
422.393	-37.2
422.601	110.25
422.809	120.49
423.017	59.05
423.224	75.43
423.432	108.2
423.64	32.43
423.848	106.15
424.056	-43.35
424.263	13.99
424.471	34.47
424.679	57
424.887	32.43
425.094	106.15
425.302	87.72
425.51	-10.58
425.718	75.43
425.925	97.96
426.133	9.9
426.341	196.26
426.548	42.67
426.756	-0.34
426.964	59.05
427.171	-18.77
427.379	71.34
427.586	67.24
427.794	75.43
428.001	186.02
428.209	67.24
428.417	71.34
428.624	75.43
428.832	59.05
429.039	65.19
429.247	102.06
429.454	65.19
429.662	122.54
429.869	132.78
430.076	124.58
430.284	52.91
430.491	116.39
430.699	161.45
430.906	126.63
431.114	83.63
431.321	28.33
431.528	147.11
431.736	128.68
431.943	100.01
432.15	-8.53
432.358	155.3
432.565	190.12
432.772	-41.3
432.979	151.21
433.187	83.63
433.394	71.34
433.601	89.77
433.808	130.73
434.016	183.98
434.223	181.93
434.43	167.59
434.637	200.36
434.844	269.99
435.052	59.05
435.259	171.69
435.466	206.5
435.673	138.92
435.88	188.07
436.087	245.41
436.294	206.5
436.501	159.4
436.708	130.73
436.915	206.5
437.122	247.46
437.329	169.64
437.537	265.89
437.743	233.13
437.95	317.09
438.157	259.75
438.364	278.18
438.571	226.98
438.778	378.53
438.985	333.48
439.192	278.18
439.399	241.32
439.606	319.14
439.813	429.73
440.02	448.16
440.227	489.12
440.433	370.34
440.64	364.2
440.847	360.1
441.054	413.35
441.261	534.18
441.467	448.16
441.674	390.82
441.881	460.45
442.088	476.84
442.294	581.28
442.501	556.71
442.708	599.71
442.914	493.22
443.121	538.27
443.328	685.73
443.534	640.67
443.741	542.37
443.948	560.8
444.154	605.86
444.361	845.47
444.568	804.51
444.774	792.22
444.981	612
445.187	845.47
445.394	765.6
445.6	751.26
445.807	972.44
446.013	806.56
446.22	794.27
446.426	919.2
446.633	1054.36
446.839	1128.09
447.046	911
447.252	1103.51
447.459	1164.95
447.665	1130.14
447.871	1316.5
448.078	1367.7
448.284	1343.13
448.491	1312.41
448.697	1447.57
448.903	1560.21
449.11	1529.49
449.316	1433.24
449.522	1689.23
449.728	1752.72
449.935	1832.59
450.141	1744.53
450.347	2004.62
450.553	1902.22
450.76	1955.47
450.966	2127.5
451.172	2147.98
451.378	2205.32
451.584	2203.27
451.791	2416.26
451.997	2381.45
452.203	2481.8
452.409	2641.54
452.615	2717.31
452.821	2563.72
453.027	2639.49
453.233	3077.76
453.44	2897.53
453.646	3038.84
453.852	3325.56
454.058	3329.66
454.264	3434.1
454.47	3704.43
454.676	3692.15
454.882	4023.92
455.088	3731.06
455.294	3956.33
455.5	4236.91
455.705	4513.38
455.911	4712.03
456.117	4634.21
456.323	4822.63
456.529	4826.72
456.735	5316.19
456.941	5463.64
457.147	5736.02
457.352	5766.74
457.558	5836.37
457.764	6344.27
457.97	6286.92
458.176	6686.28
458.381	7142.97
458.587	7298.62
458.793	7599.67
458.999	7464.5
459.204	8472.11
459.41	8853.03
459.616	8437.29
459.821	9197.09
460.027	9377.31
460.233	10053.14
460.438	9913.88
460.644	10577.42
460.85	10653.19
461.055	11083.27
461.261	11824.63
461.466	11165.18
461.672	11660.79
461.878	12885.48
462.083	12811.75
462.289	13080.04
462.494	13508.06
462.7	13825.5
462.905	13821.4
463.111	15142.34
463.316	16022.97
463.522	16383.41
463.727	16790.95
463.932	17329.57
464.138	17587.61
464.343	18531.73
464.549	18576.78
464.754	19901.82
464.959	20546.93
465.165	20870.51
465.37	20774.25
465.575	20788.59
465.781	22136.15
465.986	22697.3
466.191	22721.87
466.397	22828.37
466.602	22023.51
466.807	23469.38
467.012	23737.66
467.218	24096.06
467.423	24139.07
467.628	24919.34
467.833	26029.34
468.038	25748.77
468.244	25257.26
468.449	26424.6
468.654	26254.62
468.859	26199.32
469.064	26260.76
469.269	25099.56
469.474	25632.04
469.679	26215.71
469.885	25769.25
470.09	26293.53
470.295	26227.99
470.5	25392.42
470.705	26008.86
470.91	24958.25
471.115	24732.98
471.32	24974.64
471.525	25091.37
471.73	24323.38
471.935	24284.47
472.139	23278.92
472.344	23151.95
472.549	23428.42
472.754	22934.86
472.959	22209.88
473.164	21536.1
473.369	21083.5
473.574	22013.27
473.778	21546.34
473.983	21386.6
474.188	20735.34
474.393	19637.63
474.598	19510.66
474.802	19164.55
475.007	18802.06
475.212	18943.37
475.417	17835.42
475.621	18019.74
475.826	17696.16
476.031	17161.64
476.235	16725.42
476.44	17016.23
476.645	16418.22
476.849	16369.07
477.054	15918.52
477.259	15578.56
477.463	15736.25
477.668	14931.4
477.872	15031.75
478.077	14675.4
478.282	14218.71
478.486	14142.93
478.691	14085.59
478.895	13972.95
479.1	13962.71
479.304	13686.23
479.509	13293.02
479.713	13442.53
479.918	13297.12
480.122	12858.85
480.326	12957.16
480.531	13032.93
480.735	12746.22
480.94	12525.04
481.144	12778.98
481.348	12137.97
481.553	12207.6
481.757	11810.29
481.961	11963.89
482.166	12262.9
482.37	11888.12
482.574	11568.63
482.778	11562.49
482.983	11888.12
483.187	11550.2
483.391	11539.96
483.595	11435.52
483.8	11017.73
484.004	11120.13
484.208	11251.2
484.412	11095.55
484.616	11025.92
484.821	10907.14
485.025	10481.16
485.229	10665.48
485.433	10251.79
485.637	10286.61
485.841	9932.31
486.045	9928.21
486.249	9801.24
486.453	9803.29
486.657	9473.56
486.861	9387.55
487.065	9219.61
487.269	9322.01
487.473	8912.42
487.677	8975.91
487.881	9156.13
488.085	8365.61
488.289	8615.46
488.493	8414.76
488.697	8263.21
488.901	8222.25
489.105	7884.34
489.309	7710.26
489.512	7616.05
489.716	7673.4
489.92	7413.31
490.124	7267.9
490.328	7247.42
490.531	6970.94
490.735	6927.94
490.939	6653.51
491.143	6573.64
491.346	6489.67
491.55	6342.22
491.754	6321.74
491.958	6405.7
492.161	6098.51
492.365	6112.85
492.569	5813.84
492.772	5824.08
492.976	5832.27
493.18	5756.5
493.383	5600.85
493.587	5545.56
493.79	5604.95
493.994	5361.24
494.197	5285.47
494.401	5330.52
494.605	5289.56
494.808	5234.27
495.012	4996.7
495.215	5158.49
495.419	5273.18
495.622	5060.19
495.825	4951.65
496.029	4978.27
496.232	5002.85
496.436	4851.3
496.639	5025.37
496.843	4808.29
497.046	4912.74
497.249	5021.28
497.453	4871.78
497.656	4783.71
497.859	4886.11
498.063	4988.51
498.266	5092.96
498.469	4931.17
498.673	4836.96
498.876	4927.07
499.079	4941.41
499.282	5002.85
499.485	5138.01
499.689	5052
499.892	5187.16
500.095	4914.78
500.298	5312.09
500.501	5029.47
500.705	5269.08
500.908	5400.15
501.111	5158.49
501.314	5346.91
501.517	5404.25
501.72	5391.96
501.923	5447.26
502.126	5445.21
502.329	5723.73
502.532	5600.85
502.735	5703.25
502.938	5889.62
503.141	5910.1
503.344	5844.56
503.547	6022.73
503.75	5748.31
503.953	6047.31
504.156	6135.37
504.359	6309.45
504.562	6202.96
504.765	6528.58
504.968	6549.06
505.17	6762.05
505.373	6846.02
505.576	6942.27
505.779	6886.98
505.982	7159.36
506.185	7280.19
506.387	7083.58
506.59	7364.15
506.793	7470.65
506.996	7718.45
507.198	7917.11
507.401	7783.99
507.604	8093.23
507.807	8365.61
508.009	8359.47
508.212	8676.9
508.415	8633.89
508.617	8846.88
508.82	8906.27
509.022	9074.21
509.225	9553.43
509.428	9733.65
509.63	9565.72
509.833	9913.88
510.035	10241.55
510.238	10315.28
510.44	10536.46
510.643	10737.16
510.845	11365.89
511.048	11392.51
511.25	11636.22
511.453	11873.78
511.655	12385.77
511.858	12434.92
512.06	12690.92
512.262	12985.83
512.465	12981.73
512.667	13630.94
512.87	14022.1
513.072	14097.88
513.274	14296.53
513.477	14777.8
513.679	15078.85
513.881	15359.42
514.084	15771.07
514.286	16072.12
514.488	16379.31
514.69	16971.18
514.893	17255.84
515.095	17499.55
515.297	17857.95
515.499	18269.59
515.701	18779.53
515.904	19109.26
516.106	19281.28
516.308	19907.96
516.51	20483.44
516.712	20350.32
516.914	21048.68
517.116	21583.2
517.318	21853.53
517.52	22123.87
517.722	22646.1
517.925	23235.91
518.127	23399.75
518.329	24151.35
518.531	23977.28
518.733	24859.95
518.935	25285.93
519.136	25650.47
519.338	26055.97
519.54	26381.59
519.742	27010.32
519.944	27270.41
520.146	27958.53
520.348	28165.37
520.55	28609.78
520.752	28769.52
520.954	29601
521.155	29658.34
521.357	29979.87
521.559	30581.98
521.761	31300.81
521.963	31266
522.164	31587.53
522.366	31667.4
522.568	31980.74
522.77	32384.19
522.971	32877.75
523.173	32656.57
523.375	33361.07
523.576	32904.37
523.778	33467.56
523.98	34030.76
524.181	33805.48
524.383	33887.4
524.584	34389.15
524.786	34045.09
524.988	34337.95
525.189	34491.55
525.391	34518.17
525.592	34692.25
525.794	34626.71
525.995	34507.93
526.197	34532.51
526.398	34659.48
526.6	34522.27
526.801	34368.67
527.003	34653.34
527.204	34167.97
527.406	34831.51
527.607	34204.83
527.808	34286.75
528.01	33311.92
528.211	33828.01
528.412	33871.01
528.614	33303.73
528.815	33215.66
529.016	33264.82
529.218	32718.01
529.419	32414.91
529.62	32249.02
529.822	31982.79
530.023	31970.5
530.224	31970.5
530.425	31118.54
530.626	30819.54
530.828	30223.58
531.029	31010
531.23	29875.43
531.431	29306.09
531.632	29680.87
531.833	29197.55
532.035	28630.26
532.236	28650.74
532.437	28386.55
532.638	27890.95
532.839	27577.61
533.04	27514.12
533.241	26461.46
533.442	26656.02
533.643	26244.38
533.844	25814.3
534.045	25523.49
534.246	24997.17
534.447	25238.83
534.648	24663.35
534.849	24192.31
535.05	24051
535.251	23604.55
535.451	23643.46
535.652	23082.31
535.853	22537.55
536.054	22566.23
536.255	22496.6
536.456	21407.08
536.657	21460.32
536.857	21384.55
537.058	20927.85
537.259	20721.01
537.46	20368.76
537.66	20008.31
537.861	19877.24
538.062	19449.22
538.263	19414.4
538.463	18961.8
538.664	18781.58
538.865	18818.44
539.065	18834.83
539.266	18003.35
539.466	17956.25
539.667	17393.06
539.868	17761.69
540.068	17325.47
540.269	17296.8
540.469	17071.53
540.67	16797.1
540.87	16606.64
541.071	16358.83
541.271	16178.61
541.472	16137.65
541.672	15766.97
541.873	15543.74
542.073	15283.65
542.274	15408.58
542.474	15209.92
542.675	14994.89
542.875	14822.86
543.075	14351.82
543.276	14261.71
543.476	14351.82
543.676	13962.71
543.877	13843.93
544.077	13669.85
544.277	13710.81
544.478	13624.79
544.678	13485.53
544.878	13346.27
545.078	13110.75
545.279	12756.46
545.479	12678.63
545.679	12533.23
545.879	12533.23
546.079	12312.05
546.28	12246.51
546.48	11984.37
546.68	11980.28
546.88	11841.01
547.08	11613.69
547.28	11638.27
547.48	11228.67
547.68	11365.89
547.88	11005.44
548.081	10843.65
548.281	10782.21
548.481	10511.88
548.681	10763.78
548.881	10190.35
549.081	10112.53
549.28	9995.79
549.48	10151.44
549.68	9987.6
549.88	9872.92
550.08	9641.5
550.28	9285.15
550.48	9387.55
550.68	9199.13
550.88	8949.28
551.08	8996.39
551.279	8832.55
551.479	8572.46
551.679	8631.85
551.879	8289.84
552.079	8404.52
552.278	8345.13
552.478	8132.14
552.678	8003.12
552.878	7972.4
553.077	7747.12
553.277	7599.67
553.477	7800.37
553.676	7419.45
553.876	7267.9
554.076	7110.21
554.275	7032.38
554.475	6993.47
554.674	6946.37
554.874	6817.35
555.074	6479.43
555.273	6379.08
555.473	6463.05
555.672	6274.63
555.872	6262.35
556.071	6039.12
556.271	6084.17
556.47	5701.2
556.67	5652.05
556.869	5676.63
557.068	5551.7
557.268	5457.5
557.467	5441.11
557.667	5412.44
557.866	5191.26
558.065	5115.48
558.265	5109.34
558.464	5037.66
558.663	5035.61
558.863	4798.05
559.062	4783.71
559.261	4734.56
559.461	4687.46
559.66	4302.44
559.859	4466.28
560.058	4245.1
560.258	4202.09
560.457	4277.87
560.656	4277.87
560.855	4032.11
561.054	4154.99
561.253	4060.78
561.453	3997.29
561.652	3939.95
561.851	3835.5
562.05	3694.19
562.249	3563.12
562.448	3669.62
562.647	3466.87
562.846	3466.87
563.045	3487.35
563.244	3389.05
563.443	3397.24
563.642	3268.22
563.841	3245.69
564.04	3163.77
564.239	3190.39
564.438	3079.8
564.637	2963.07
564.836	3051.13
565.035	2932.35
565.234	2961.02
565.432	2889.34
565.631	2801.28
565.83	2762.37
566.029	2827.9
566.228	2762.37
566.427	2680.45
566.625	2547.33
566.824	2707.07
567.023	2590.34
567.222	2459.27
567.42	2586.24
567.619	2487.94
567.818	2487.94
568.016	2530.95
568.215	2264.71
568.414	2395.78
568.612	2307.72
568.811	2180.75
569.01	2152.07
569.208	2139.79
569.407	2057.87
569.605	2068.11
569.804	1967.76
570.002	1975.95
570.201	1986.19
570.4	1961.61
570.598	1973.9
570.797	1957.52
570.995	1943.18
571.193	1795.73
571.392	1887.89
571.59	1726.1
571.789	1914.51
571.987	1765.01
572.186	1801.87
572.384	1619.6
572.582	1736.34
572.781	1681.04
572.979	1578.64
573.177	1625.75
573.376	1660.56
573.574	1590.93
573.772	1461.91
573.971	1451.67
574.169	1455.76
574.367	1517.2
574.565	1427.09
574.763	1377.94
574.962	1291.93
575.16	1312.41
575.358	1248.92
575.556	1279.64
575.754	1316.5
575.952	1273.5
576.151	1191.58
576.349	1336.98
576.547	1148.57
576.745	1173.14
576.943	1259.16
577.141	1146.52
577.339	1031.83
577.537	1023.64
577.735	1097.37
577.933	1091.23
578.131	915.1
578.329	1074.84
578.527	890.53
578.725	1074.84
578.923	896.67
579.121	1009.31
579.319	904.86
579.516	921.24
579.714	1146.52
579.912	906.91
580.11	958.11
580.308	968.35
580.506	843.42
580.704	712.35
580.901	722.59
581.099	878.24
581.297	835.23
581.495	831.13
581.692	757.41
581.89	863.9
582.088	794.27
582.285	745.12
582.483	771.74
582.681	755.36
582.878	712.35
583.076	724.64
583.274	636.58
583.471	747.17
583.669	601.76
583.866	661.15
584.064	599.71
584.262	560.8
584.459	515.75
584.657	657.06
584.854	689.82
585.052	736.93
585.249	618.15
585.447	550.56
585.644	491.17
585.841	679.58
586.039	652.96
586.236	675.49
586.434	587.43
586.631	452.26
586.828	519.84
587.026	476.84
587.223	407.2
587.42	419.49
587.618	474.79
587.815	528.03
588.012	546.47
588.21	454.31
588.407	501.41
588.604	542.37
588.801	435.88
588.999	485.03
589.196	558.75
589.393	437.92
589.59	394.92
589.787	456.36
589.984	534.18
590.182	474.79
590.379	513.7
590.576	362.15
590.773	392.87
590.97	454.31
591.167	499.36
591.364	460.45
591.561	366.25
591.758	525.99
591.955	439.97
592.152	343.72
592.349	366.25
592.546	401.06
592.743	366.25
592.94	423.59
593.137	476.84
593.334	525.99
593.531	489.12
593.727	427.68
593.924	501.41
594.121	485.03
594.318	370.34
594.515	458.4
594.712	444.07
594.908	564.9
595.105	376.48
595.302	525.99
595.499	382.63
595.696	521.89
595.892	403.11
596.089	587.43
596.286	448.16
596.482	609.95
596.679	489.12
596.876	507.55
597.072	601.76
597.269	536.23
597.466	577.19
597.662	575.14
597.859	566.95
598.055	579.23
598.252	661.15
598.448	648.86
598.645	597.67
598.841	642.72
599.038	814.75
599.234	755.36
599.431	773.79
599.627	767.65
599.824	745.12
600.02	845.47
600.217	870.05
600.413	904.86
600.609	894.62
600.806	1191.58
601.002	1035.93
601.198	980.64
601.395	1076.89
601.591	1128.09
601.787	1167
601.984	1291.93
602.18	1349.27
602.376	1330.84
602.572	1257.11
602.769	1439.38
602.965	1427.09
603.161	1568.4
603.357	1627.79
603.553	1762.96
603.75	1607.31
603.946	1672.85
604.142	1801.87
604.338	1930.89
604.534	1851.02
604.73	1832.59
604.926	2008.72
605.122	2102.92
605.318	2088.59
605.514	2270.86
605.71	2233.99
605.906	2418.31
606.102	2262.66
606.298	2504.32
606.494	2576
606.69	2762.37
606.886	2664.07
607.082	2698.88
607.278	2801.28
607.474	2981.5
607.67	2991.74
607.866	3081.85
608.062	3255.93
608.257	3368.57
608.453	3323.51
608.649	3395.19
608.845	3507.83
609.041	3522.16
609.236	3665.52
609.432	3782.26
609.628	3970.67
609.824	3993.2
610.019	4214.38
610.215	4247.15
610.411	4327.02
610.606	4515.43
610.802	4517.48
610.998	4664.93
611.193	4810.34
611.389	4781.67
611.584	4998.75
611.78	5162.59
611.976	5113.44
612.171	5682.77
612.367	5801.55
612.562	5797.46
612.758	5795.41
612.953	5729.88
613.149	6198.86
613.344	6358.6
613.539	6686.28
613.735	6614.6
613.93	6929.98
614.126	6901.31
614.321	7304.76
614.517	7439.93
614.712	7812.66
614.907	7802.42
615.103	8111.66
615.298	8166.96
615.493	8422.95
615.688	8554.02
615.884	8693.29
616.079	8898.08
616.274	9291.29
616.47	9303.58
616.665	9606.68
616.86	10118.67
617.055	10235.41
617.25	10403.34
617.445	10696.2
617.641	10907.14
617.836	11167.23
618.031	11226.62
618.226	11654.65
618.421	11933.17
618.616	12451.31
618.811	12367.34
619.006	12932.58
619.201	13039.08
619.396	13497.82
619.591	13546.97
619.786	13991.38
619.981	14132.69
620.176	14677.45
620.371	14634.44
620.566	15283.65
620.761	15324.61
620.956	15953.34
621.151	15830.46
621.346	16565.68
621.541	16563.63
621.735	17282.47
621.93	17311.14
622.125	17354.15
622.32	17726.88
622.515	18367.89
622.709	18683.28
622.904	18879.88
623.099	19283.33
623.294	20016.51
623.488	19635.58
623.683	20430.19
623.878	20479.35
624.072	21177.7
624.267	21276.01
624.462	21638.5
624.656	21884.25
624.851	22222.17
625.046	22469.97
625.24	22883.66
625.435	23231.82
625.629	23708.99
625.824	23719.23
626.018	24188.22
626.213	24462.65
626.407	24546.61
626.602	24775.98
626.796	25287.98
626.991	25574.69
627.185	25566.5
627.38	25709.86
627.574	25904.42
627.768	25965.85
627.963	26094.88
628.157	26459.41
628.352	26572.05
628.546	26119.45
628.74	26694.93
628.935	26383.64
629.129	26690.84
629.323	26107.16
629.517	26414.36
629.712	26230.04
629.906	25873.7
630.1	25566.5
630.294	25736.48
630.489	25300.26
630.683	25163.05
630.877	24446.26
631.071	24472.89
631.265	23971.13
631.459	23835.97
631.653	22875.47
631.848	22562.13
632.042	22146.39
632.236	21671.26
632.43	20895.08
632.624	20903.28
632.818	20039.03
633.012	19072.39
633.206	18863.5
633.4	18316.69
633.594	17735.07
633.788	17155.49
633.982	16604.59
634.176	15979.96
634.369	15209.92
634.563	14575.05
634.757	14147.03
634.951	13594.08
635.145	13323.74
635.339	12895.72
635.533	12162.55
635.726	11660.79
635.92	10921.48
636.114	10745.35
636.308	10194.45
636.501	9870.87
636.695	9467.42
636.889	9123.36
637.083	8711.72
637.276	8365.61
637.47	7996.98
637.664	7751.22
637.857	7444.03
638.051	7069.25
638.244	6880.83
638.438	6555.21
638.632	6489.67
638.825	5967.44
639.019	5856.85
639.212	5717.59
639.406	5592.66
639.599	5078.62
639.793	5015.13
639.986	4781.67
640.18	4724.32
640.373	4433.51
640.567	4253.29
640.76	4157.04
640.954	4013.68
641.147	3714.67
641.34	3589.75
641.534	3595.89
641.727	3434.1
641.92	3245.69
642.114	3092.09
642.307	3131
642.5	2979.45
642.694	2825.86
642.887	2664.07
643.08	2659.97
643.273	2533
643.467	2473.6
643.66	2303.62
643.853	2154.12
644.046	2143.88
644.239	2102.92
644.432	1928.85
644.626	1787.54
644.819	1744.53
645.012	1697.42
645.205	1724.05
645.398	1785.49
645.591	1635.99
645.784	1423
645.977	1373.85
646.17	1457.81
646.363	1334.93
646.556	1228.44
646.749	1169.05
646.942	1109.66
647.135	1224.34
647.328	1070.75
647.521	1033.88
647.714	988.83
647.907	1001.12
648.099	861.85
648.292	1058.46
648.485	818.85
648.678	800.41
648.871	820.89
649.064	863.9
649.256	833.18
649.449	603.81
649.642	685.73
649.835	720.54
650.027	587.43
650.22	609.95
650.413	681.63
650.605	601.76
650.798	530.08
650.991	525.99
651.183	507.55
651.376	554.66
651.568	587.43
651.761	425.64
651.954	538.27
652.146	401.06
652.339	495.27
652.531	448.16
652.724	407.2
652.916	370.34
653.109	329.38
653.301	435.88
653.494	374.44
653.686	329.38
653.879	466.6
654.071	343.72
654.263	243.37
654.456	263.85
654.648	390.82
654.84	333.48
655.033	202.41
655.225	310.95
655.417	116.39
655.61	409.25
655.802	370.34
655.994	386.72
656.186	253.61
656.379	321.19
656.571	124.58
656.763	192.17
656.955	198.31
657.148	200.36
657.34	317.09
657.532	145.06
657.724	143.02
657.916	247.46
658.108	325.29
658.3	151.21
658.492	243.37
658.684	132.78
658.876	233.13
659.068	102.06
659.26	57
659.452	140.97
659.644	218.79
659.836	263.85
660.028	200.36
660.22	91.82
660.412	136.87
660.604	194.22
660.796	171.69
660.988	190.12
661.18	190.12
661.372	233.13
661.563	91.82
661.755	153.26
661.947	124.58
662.139	112.3
662.331	100.01
662.522	108.2
662.714	59.05
662.906	63.15
663.097	124.58
663.289	128.68
663.481	30.38
663.673	147.11
663.864	132.78
664.056	52.91
664.247	18.09
664.439	235.18
664.631	120.49
664.822	233.13
665.014	79.53
665.205	69.29
665.397	32.43
665.588	38.57
665.78	138.92
665.971	130.73
666.163	106.15
666.354	218.79
666.546	128.68
666.737	22.19
666.929	114.34
667.12	116.39
667.311	110.25
667.503	69.29
667.694	18.09
667.885	100.01
668.077	104.11
668.268	-22.87
668.459	75.43
668.651	61.1
668.842	44.71
669.033	-16.73
669.224	59.05
669.416	272.04
669.607	75.43
669.798	108.2
669.989	171.69
670.18	91.82
670.371	118.44
670.563	67.24
670.754	153.26
670.945	140.97
671.136	87.72
671.327	-26.96
671.518	120.49
671.709	202.41
671.9	140.97
672.091	132.78
672.282	124.58
672.473	42.67
672.664	97.96
672.855	83.63
673.046	124.58
673.237	198.31
673.428	124.58
673.619	147.11
673.809	63.15
674	163.5
674.191	122.54
674.382	151.21
674.573	132.78
674.764	83.63
674.954	149.16
675.145	116.39
675.336	81.58
675.527	34.47
675.717	32.43
675.908	26.28
676.099	57
676.289	40.62
676.48	50.86
676.671	73.39
676.861	73.39
677.052	32.43
677.243	61.1
677.433	-0.34
677.624	181.93
677.814	100.01
678.005	138.92
678.195	247.46
678.386	91.82
678.576	220.84
678.767	-14.68
678.957	108.2
679.148	89.77
679.338	239.27
679.529	188.07
679.719	79.53
679.909	204.46
680.1	220.84
680.29	59.05
680.481	18.09
680.671	97.96
680.861	132.78
681.052	149.16
681.242	67.24
681.432	247.46
681.622	116.39
681.813	61.1
682.003	81.58
682.193	145.06
682.383	71.34
682.573	138.92
682.764	106.15
682.954	120.49
683.144	173.74
683.334	69.29
683.524	140.97
683.714	186.02
683.904	159.4
684.094	126.63
684.284	145.06
684.474	255.65
684.664	157.35
684.854	149.16
685.044	190.12
685.234	116.39
685.424	108.2
685.614	106.15
685.804	259.75
685.994	159.4
686.184	112.3
686.374	126.63
686.564	132.78
686.753	130.73
686.943	116.39
687.133	132.78
687.323	104.11
687.513	132.78
687.702	196.26
687.892	87.72
688.082	151.21
688.272	108.2
688.461	134.82
688.651	245.41
688.841	157.35
689.03	100.01
689.22	124.58
689.41	251.56
689.599	216.74
689.789	124.58
689.979	212.65
690.168	140.97
690.358	134.82
690.547	112.3
690.737	149.16
690.926	198.31
691.116	140.97
691.305	216.74
691.495	237.22
691.684	140.97
691.874	124.58
692.063	116.39
692.252	186.02
692.442	196.26
692.631	71.34
692.82	42.67
693.01	140.97
693.199	128.68
693.388	151.21
693.578	165.54
693.767	149.16
693.956	177.83
694.146	140.97
694.335	165.54
694.524	65.19
694.713	147.11
694.902	157.35
695.092	83.63
695.281	128.68
695.47	149.16
695.659	218.79
695.848	89.77
696.037	81.58
696.226	179.88
696.415	112.3
696.604	226.98
696.793	243.37
696.982	67.24
697.171	179.88
697.36	85.67
697.549	181.93
697.738	57
697.927	110.25
698.116	30.38
698.305	95.91
698.494	161.45
698.683	46.76
698.872	179.88
699.061	59.05
699.25	134.82
699.438	104.11
699.627	100.01
699.816	237.22
700.005	145.06
700.193	132.78
700.382	188.07
700.571	126.63
700.76	124.58
700.948	106.15
701.137	159.4
701.326	186.02
701.514	63.15
701.703	183.98
701.892	173.74
702.08	210.6
702.269	161.45
702.457	26.28
702.646	171.69
702.834	147.11
703.023	186.02
703.212	171.69
703.4	171.69
703.589	77.48
703.777	120.49
703.965	120.49
704.154	128.68
704.342	138.92
704.531	161.45
704.719	57
704.907	276.13
705.096	91.82
705.284	124.58
705.472	151.21
705.661	50.86
705.849	190.12
706.037	218.79
706.226	177.83
706.414	147.11
706.602	83.63
706.79	112.3
706.979	159.4
707.167	149.16
707.355	83.63
707.543	140.97
707.731	210.6
707.919	165.54
708.107	169.64
708.296	83.63
708.484	71.34
708.672	196.26
708.86	114.34
709.048	120.49
709.236	106.15
709.424	140.97
709.612	136.87
709.8	36.52
709.988	239.27
710.176	171.69
710.364	280.23
710.551	79.53
710.739	106.15
710.927	91.82
711.115	120.49
711.303	206.5
711.491	296.61
711.679	69.29
711.866	171.69
712.054	87.72
712.242	126.63
712.43	214.7
712.617	153.26
712.805	198.31
712.993	130.73
713.181	59.05
713.368	237.22
713.556	128.68
713.744	128.68
713.931	306.85
714.119	288.42
714.306	161.45
714.494	91.82
714.682	65.19
714.869	83.63
715.057	44.71
715.244	-18.77
715.432	196.26
715.619	75.43
715.807	216.74
715.994	97.96
716.182	114.34
716.369	175.78
716.556	155.3
716.744	44.71
716.931	24.23
717.119	173.74
717.306	116.39
717.493	165.54
717.681	116.39
717.868	145.06
718.055	239.27
718.242	181.93
718.43	165.54
718.617	214.7
718.804	179.88
718.991	167.59
719.179	165.54
719.366	179.88
719.553	183.98
719.74	181.93
719.927	71.34
720.114	157.35
720.301	173.74
720.488	91.82
720.676	173.74
720.863	259.75
721.05	296.61
721.237	165.54
721.424	149.16
721.611	235.18
721.798	169.64
721.985	169.64
722.172	134.82
722.358	196.26
722.545	280.23
722.732	169.64
722.919	329.38
723.106	181.93
723.293	149.16
723.48	134.82
723.667	145.06
723.853	292.52
724.04	241.32
724.227	249.51
724.414	140.97
724.6	231.08
724.787	235.18
724.974	284.33
725.161	188.07
725.347	69.29
725.534	220.84
725.72	212.65
725.907	261.8
726.094	181.93
726.28	110.25
726.467	198.31
726.653	163.5
726.84	280.23
727.027	300.71
727.213	181.93
727.4	253.61
727.586	237.22
727.773	263.85
727.959	235.18
728.145	198.31
728.332	112.3
728.518	63.15
728.705	290.47
728.891	212.65
729.077	243.37
729.264	120.49
729.45	231.08
729.636	214.7
729.823	143.02
730.009	206.5
730.195	173.74
730.382	265.89
730.568	116.39
730.754	169.64
730.94	243.37
731.126	243.37
731.313	317.09
731.499	177.83
731.685	200.36
731.871	245.41
732.057	218.79
732.243	167.59
732.429	247.46
732.615	280.23
732.801	171.69
732.987	173.74
733.173	222.89
733.359	100.01
733.545	333.48
733.731	165.54
733.917	259.75
734.103	288.42
734.289	308.9
734.475	149.16
734.661	321.19
734.847	220.84
735.033	155.3
735.219	247.46
735.404	198.31
735.59	198.31
735.776	206.5
735.962	145.06
736.148	247.46
736.333	321.19
736.519	255.65
736.705	231.08
736.89	304.81
737.076	210.6
737.262	231.08
737.447	276.13
737.633	194.22
737.819	284.33
738.004	220.84
738.19	280.23
738.375	231.08
738.561	210.6
738.747	284.33
738.932	138.92
739.118	331.43
739.303	269.99
739.489	321.19
739.674	239.27
739.859	155.3
740.045	249.51
740.23	249.51
740.416	130.73
740.601	220.84
740.786	194.22
740.972	181.93
741.157	165.54
741.342	149.16
741.528	165.54
741.713	276.13
741.898	200.36
742.084	208.55
742.269	226.98
742.454	253.61
742.639	235.18
742.824	253.61
743.01	317.09
743.195	282.28
743.38	231.08
743.565	200.36
743.75	239.27
743.935	284.33
744.12	304.81
744.305	181.93
744.49	224.94
744.675	245.41
744.86	194.22
745.045	247.46
745.23	140.97
745.415	216.74
745.6	356.01
745.785	128.68
745.97	313
746.155	290.47
746.34	313
746.525	243.37
746.71	319.14
746.895	188.07
747.079	149.16
747.264	120.49
747.449	265.89
747.634	235.18
747.819	274.09
748.003	183.98
748.188	163.5
748.373	269.99
748.557	161.45
748.742	231.08
748.927	179.88
749.111	196.26
749.296	114.34
749.481	212.65
749.665	247.46
749.85	206.5
750.034	173.74
750.219	173.74
750.404	210.6
750.588	237.22
750.773	134.82
750.957	237.22
751.141	224.94
751.326	212.65
751.51	143.02
751.695	147.11
751.879	198.31
752.064	243.37
752.248	173.74
752.432	290.47
752.617	218.79
752.801	155.3
752.985	149.16
753.17	204.46
753.354	190.12
753.538	177.83
753.722	140.97
753.907	52.91
754.091	116.39
754.275	202.41
754.459	110.25
754.643	140.97
754.828	196.26
755.012	159.4
755.196	116.39
755.38	186.02
755.564	67.24
755.748	194.22
755.932	171.69
756.116	116.39
756.3	186.02
756.484	104.11
756.668	222.89
756.852	65.19
757.036	118.44
757.22	173.74
757.404	97.96
757.588	110.25
757.772	140.97
757.956	100.01
758.14	231.08
758.323	102.06
758.507	163.5
758.691	91.82
758.875	220.84
759.059	175.78
759.242	38.57
759.426	132.78
759.61	97.96
759.794	34.47
759.977	200.36
760.161	323.24
760.345	235.18
760.528	140.97
760.712	149.16
760.895	165.54
761.079	122.54
761.263	77.48
761.446	83.63
761.63	79.53
761.813	190.12
761.997	75.43
762.18	106.15
762.364	226.98
762.547	-35.16
762.731	128.68
762.914	163.5
763.098	30.38
763.281	81.58
763.464	57
763.648	128.68
763.831	75.43
764.015	149.16
764.198	173.74
764.381	116.39
764.564	108.2
764.748	132.78
764.931	173.74
765.114	97.96
765.297	190.12
765.481	38.57
765.664	147.11
765.847	42.67
766.03	153.26
766.213	95.91
766.397	126.63
766.58	67.24
766.763	106.15
766.946	16.04
767.129	42.67
767.312	13.99
767.495	61.1
767.678	106.15
767.861	147.11
768.044	81.58
768.227	28.33
768.41	69.29
768.593	108.2
768.776	118.44
768.959	46.76
769.142	190.12
769.324	54.95
769.507	54.95
769.69	73.39
769.873	52.91
770.056	200.36
770.239	40.62
770.421	165.54
770.604	44.71
770.787	116.39
770.97	151.21
771.152	-72.02
771.335	87.72
771.518	75.43
771.7	161.45
771.883	140.97
772.066	-80.21
772.248	95.91
772.431	231.08
772.613	77.48
772.796	65.19
772.978	73.39
773.161	292.52
773.343	11.95
773.526	57
773.708	-2.39
773.891	-31.06
774.073	59.05
774.256	59.05
774.438	153.26
774.621	48.81
774.803	130.73
774.985	61.1
775.168	116.39
775.35	63.15
775.532	85.67
775.715	-0.34
775.897	18.09
776.079	18.09
776.261	95.91
776.444	57
776.626	48.81
776.808	9.9
776.99	-41.3
777.173	67.24
777.355	54.95
777.537	32.43
777.719	67.24
777.901	79.53
778.083	-18.77
778.265	5.8
778.447	95.91
778.629	50.86
778.811	126.63
778.993	132.78
779.175	145.06
779.357	95.91
779.539	-24.92
779.721	59.05
779.903	169.64
780.085	24.23
780.267	18.09
780.449	130.73
780.631	134.82
780.812	102.06
780.994	9.9
781.176	42.67
781.358	52.91
781.54	34.47
781.721	116.39
781.903	149.16
782.085	65.19
782.267	130.73
782.448	-10.58
782.63	67.24
782.812	57
782.993	50.86
783.175	-8.53
783.357	83.63
783.538	32.43
783.72	-2.39
783.901	32.43
784.083	81.58
784.264	65.19
784.446	-14.68
784.627	-63.83
784.809	100.01
784.99	-24.92
785.172	30.38
785.353	77.48
785.535	38.57
785.716	-33.11
785.897	-31.06
786.079	120.49
786.26	69.29
786.441	63.15
786.623	-74.07
786.804	-22.87
786.985	30.38
787.167	104.11
787.348	32.43
787.529	18.09
787.71	128.68
787.891	75.43
788.073	91.82
788.254	-72.02
788.435	183.98
788.616	54.95
788.797	22.19
788.978	104.11
789.159	-59.73
789.34	73.39
789.522	50.86
789.703	1.71
789.884	59.05
790.065	18.09
790.246	67.24
790.427	-92.5
790.607	46.76
790.788	81.58
790.969	-94.55
791.15	46.76
791.331	-16.73
791.512	5.8
791.693	18.09
791.874	-12.63
792.054	173.74
792.235	124.58
792.416	20.14
792.597	-35.16
792.778	34.47
792.958	16.04
793.139	42.67
793.32	24.23
793.5	1.71
793.681	151.21
793.862	9.9
794.042	-22.87
794.223	-143.7
794.404	9.9
794.584	-63.83
794.765	-26.96
794.945	-10.58
795.126	42.67
795.306	97.96
795.487	-6.49
795.667	-18.77
795.848	-35.16
796.028	-43.35
796.209	-2.39
796.389	48.81
796.57	38.57
796.75	-49.49
796.93	11.95
797.111	-55.64
797.291	7.85
797.471	54.95
797.652	13.99
797.832	5.8
798.012	42.67
798.192	-6.49
798.373	-74.07
798.553	-33.11
798.733	34.47
798.913	-6.49
799.093	-8.53
799.274	59.05
799.454	16.04
799.634	77.48
799.814	151.21
799.994	44.71
800.174	69.29
800.354	20.14
800.534	-22.87
800.714	48.81
800.894	-29.01
801.074	-117.08
801.254	-31.06
801.434	57
801.614	50.86
801.794	-47.44
801.974	1437.33
802.154	-55.64
802.334	95.91
802.514	24.23
802.693	-39.25
802.873	65.19
803.053	50.86
803.233	18.09
803.413	-2.39
803.592	-78.16
803.772	-51.54
803.952	36.52
804.131	-76.12
804.311	54.95
804.491	104.11
804.67	-31.06
804.85	-63.83
805.03	67.24
805.209	73.39
805.389	-39.25
805.568	-6.49
805.748	-31.06
805.928	32.43
806.107	40.62
806.287	38.57
806.466	79.53
806.646	-31.06
806.825	9.9
807.004	-14.68
807.184	18.09
807.363	112.3
807.543	9.9
807.722	-96.6
807.901	36.52
808.081	91.82
808.26	-80.21
808.439	3.75
808.619	-26.96
808.798	-72.02
808.977	-80.21
809.156	46.76
809.336	-16.73
809.515	61.1
809.694	7.85
809.873	16.04
810.052	-31.06
810.231	75.43
810.411	-22.87
810.59	34.47
810.769	-18.77
810.948	46.76
811.127	-147.8
811.306	-43.35
811.485	32.43
811.664	112.3
811.843	5.8
812.022	67.24
812.201	-6.49
812.38	83.63
812.559	-33.11
812.737	46.76
812.916	-76.12
813.095	-4.44
813.274	36.52
813.453	71.34
813.632	75.43
813.811	30.38
813.989	-74.07
814.168	1.71
814.347	9.9
814.526	-31.06
814.704	138.92
814.883	159.4
815.062	-8.53
815.24	81.58
815.419	-31.06
815.598	67.24
815.776	-84.31
815.955	-55.64
816.133	-61.78
816.312	59.05
816.49	13.99
816.669	-2.39
816.847	1.71
817.026	95.91
817.204	-35.16
817.383	44.71
817.561	-55.64
817.74	16.04
817.918	26.28
818.097	-10.58
818.275	-39.25
818.453	91.82
818.632	67.24
818.81	50.86
818.988	-0.34
819.167	-37.2
819.345	36.52
819.523	-35.16
819.701	18.09
819.879	87.72
820.058	26.28
820.236	1.71
820.414	-31.06
820.592	-31.06
820.77	9.9
820.948	-92.5
821.127	-49.49
821.305	79.53
821.483	-92.5
821.661	40.62
821.839	34.47
822.017	-8.53
822.195	1.71
822.373	57
822.551	1.71
822.729	77.48
822.907	-37.2
823.085	57
823.262	-57.68
823.44	-10.58
823.618	-14.68
823.796	40.62
823.974	9.9
824.152	-69.97
824.329	-0.34
824.507	-0.34
824.685	18.09
824.863	5.8
825.04	1.71
825.218	61.1
825.396	85.67
825.574	3.75
825.751	5.8
825.929	-37.2
826.107	-61.78
826.284	-6.49
826.462	9.9
826.639	3.75
826.817	-35.16
826.994	-10.58
827.172	-24.92
827.349	95.91
827.527	1.71
827.704	61.1
827.882	97.96
828.059	-14.68
828.237	-24.92
828.414	46.76
828.591	-72.02
828.769	16.04
828.946	-47.44
829.124	24.23
829.301	69.29
829.478	-82.26
829.655	-31.06
829.833	1.71
830.01	-160.08
830.187	20.14
830.364	-14.68
830.542	-31.06
830.719	73.39
830.896	5.8
831.073	-16.73
831.25	-55.64
831.427	28.33
831.604	83.63
831.782	-10.58
831.959	-31.06
832.136	42.67
832.313	-53.59
832.49	-65.88
832.667	36.52
832.844	-33.11
833.021	85.67
833.198	-18.77
833.374	22.19
833.551	-20.82
833.728	-39.25
833.905	18.09
834.082	-63.83
834.259	9.9
834.436	83.63
834.612	-76.12
834.789	124.58
834.966	7.85
835.143	24.23
835.319	-115.03
835.496	65.19
835.673	-22.87
835.85	77.48
836.026	75.43
836.203	-14.68
836.38	-53.59
836.556	-26.96
836.733	-26.96
836.909	140.97
837.086	-22.87
837.262	-94.55
837.439	13.99
837.616	-88.4
837.792	22.19
837.968	18.09
838.145	-108.88
838.321	-2.39
838.498	26.28
838.674	32.43
838.851	3.75
839.027	-20.82
839.203	32.43
839.38	34.47
839.556	-82.26
839.732	32.43
839.909	-39.25
840.085	7.85
840.261	-51.54
840.437	48.81
840.614	-63.83
840.79	-16.73
840.966	22.19
841.142	11.95
841.318	38.57
841.494	46.76
841.671	1.71
841.847	-110.93
842.023	-41.3
842.199	-24.92
842.375	110.25
842.551	-112.98
842.727	-29.01
842.903	79.53
843.079	-26.96
843.255	83.63
843.431	-39.25
843.607	-33.11
843.783	-164.18
843.959	-35.16
844.134	-63.83
844.31	104.11
844.486	-84.31
844.662	-110.93
844.838	42.67
845.013	-2.39
845.189	7.85
845.365	-18.77
845.541	18.09
845.716	36.52
845.892	59.05
846.068	-24.92
846.244	-55.64
846.419	-31.06
846.595	-4.44
846.77	-26.96
846.946	57
847.122	-22.87
847.297	-26.96
847.473	57
847.648	-86.36
847.824	57
847.999	-59.73
848.175	-6.49
848.35	18.09
848.526	-2.39
848.701	50.86
848.876	-14.68
849.052	-49.49
849.227	-35.16
849.403	-6.49
849.578	-41.3
849.753	-10.58
849.929	73.39
850.104	-47.44
850.279	26.28
850.454	34.47
850.63	-14.68
850.805	24.23
850.98	48.81
851.155	-39.25
851.33	-6.49
851.505	-51.54
851.681	48.81
851.856	-55.64
852.031	9.9
852.206	-16.73
852.381	-8.53
852.556	-31.06
852.731	67.24
852.906	89.77
853.081	-18.77
853.256	116.39
853.431	48.81
853.606	-47.44
853.781	-22.87
853.956	-121.17
854.131	79.53
854.305	26.28
854.48	50.86
854.655	-88.4
854.83	-65.88
855.005	-24.92
855.18	-72.02
855.354	-72.02
855.529	-26.96
855.704	-24.92
855.879	42.67
856.053	-65.88
856.228	-53.59
856.403	-39.25
856.577	108.2
856.752	-129.36
856.926	-80.21
857.101	-72.02
857.276	-82.26
857.45	40.62
857.625	-90.45
857.799	44.71
857.974	-51.54
858.148	-31.06
858.323	73.39
858.497	-14.68
858.672	-55.64
858.846	-72.02
859.02	-26.96
859.195	-29.01
859.369	-8.53
859.543	-16.73
859.718	30.38
859.892	26.28
860.066	26.28
860.241	-80.21
860.415	-59.73
860.589	-22.87
860.763	-10.58
860.938	-39.25
861.112	-26.96
861.286	-6.49
861.46	-37.2
861.634	-55.64
861.808	36.52
861.982	-26.96
862.157	-20.82
862.331	-55.64
862.505	-45.4
862.679	-72.02
862.853	-57.68
863.027	-24.92
863.201	122.54
863.375	-47.44
863.549	-12.63
863.722	1.71
863.896	52.91
864.07	-41.3
864.244	13.99
864.418	-2.39
864.592	-65.88
864.766	-69.97
864.939	16.04
865.113	-69.97
865.287	24.23
865.461	-22.87
865.634	3.75
865.808	-26.96
865.982	-24.92
866.156	-26.96
866.329	-20.82
866.503	-57.68
866.676	52.91
866.85	18.09
867.024	-186.71
867.197	-55.64
867.371	-22.87
867.544	-45.4
867.718	-84.31
867.891	57
868.065	-69.97
868.238	-49.49
868.412	61.1
868.585	-39.25
868.759	-47.44
868.932	9.9
869.105	-78.16
869.279	5.8
869.452	-51.54
869.625	-20.82
869.799	-16.73
869.972	-31.06
870.145	-24.92
870.319	52.91
870.492	-43.35
870.665	-12.63
870.838	-0.34
871.011	-104.79
871.185	42.67
871.358	-100.69
871.531	-35.16
871.704	-51.54
871.877	-37.2
872.05	-82.26
872.223	-39.25
872.396	9.9
872.569	24.23
872.742	-6.49
872.915	40.62
873.088	5.8
873.261	-53.59
873.434	-8.53
873.607	-76.12
873.78	42.67
873.953	-80.21
874.126	-39.25
874.299	40.62
874.471	-51.54
874.644	-49.49
874.817	83.63
874.99	134.82
875.163	-112.98
875.335	1.71
875.508	3.75
875.681	42.67
875.853	-88.4
876.026	-22.87
876.199	26.28
876.371	7.85
876.544	-47.44
876.717	28.33
876.889	-51.54
877.062	26.28
877.234	-76.12
877.407	-94.55
877.579	11.95
877.752	30.38
877.924	38.57
878.097	7.85
878.269	9.9
878.442	34.47
878.614	-39.25
878.786	61.1
878.959	-8.53
879.131	-14.68
879.303	-80.21
879.476	13.99
879.648	81.58
879.82	-2.39
879.993	-10.58
880.165	-47.44
880.337	-61.78
880.509	-39.25
880.681	-78.16
880.854	40.62
881.026	-14.68
881.198	143.02
881.37	-65.88
881.542	18.09
881.714	-55.64
881.886	-92.5
882.058	-31.06
882.23	-31.06
882.402	-69.97
882.574	-8.53
882.746	48.81
882.918	108.2
883.09	-20.82
883.262	-35.16
883.434	-39.25
883.606	-112.98
883.778	-0.34
883.95	73.39
884.122	-53.59
884.293	26.28
884.465	-45.4
884.637	128.68
884.809	-72.02
884.98	-37.2
885.152	-35.16
885.324	59.05
885.496	-76.12
885.667	-41.3
885.839	-78.16
886.011	32.43
886.182	-26.96
886.354	-2.39
886.525	-39.25
886.697	-22.87
886.869	32.43
887.04	-8.53
887.212	26.28
887.383	22.19
887.555	5.8
887.726	-31.06
887.897	-41.3
888.069	42.67
888.24	24.23
888.412	-6.49
888.583	-49.49
888.754	1.71
888.926	-72.02
889.097	34.47
889.268	-6.49
889.44	104.11
889.611	-24.92
889.782	-88.4
889.953	-72.02
890.125	46.76
890.296	-8.53
890.467	-0.34
890.638	-39.25
890.809	24.23
890.98	-26.96
891.151	-22.87
891.323	42.67
891.494	-20.82
891.665	-31.06
891.836	-18.77
892.007	63.15
892.178	13.99
892.349	-26.96
892.52	-57.68
892.691	-57.68
892.862	-24.92
893.032	-121.17
893.203	-43.35
893.374	-20.82
893.545	48.81
893.716	-78.16
893.887	54.95
894.057	-31.06
894.228	-0.34
894.399	-22.87
894.57	57
894.74	-65.88
894.911	59.05
895.082	-51.54
895.253	-106.84
895.423	-57.68
895.594	-6.49
895.764	-65.88
895.935	-29.01
896.106	44.71
896.276	18.09
896.447	48.81
896.617	-20.82
896.788	-35.16
896.958	13.99
897.129	-57.68
897.299	-129.36
897.47	50.86
897.64	48.81
897.81	-41.3
897.981	18.09
898.151	-72.02
898.322	42.67
898.492	16.04
898.662	-2.39
898.832	-31.06
899.003	-74.07
899.173	67.24
899.343	-63.83
899.513	-20.82
