Data from USB4F104151__11__10-23-06-049.txt Node

Date: Wed Feb 26 10:23:06 EST 2025
User: louis
Spectrometer: USB4F10415
Trigger mode: 4
Integration Time (sec): 1.000000E-1
Scans to average: 1
Electric dark correction enabled: true
Nonlinearity correction enabled: false
Boxcar width: 0
XAxis mode: Wavelengths
Number of Pixels in Spectrum: 3648
>>>>>Begin Spectral Data<<<<<
178.204	-394.58
178.424	-394.58
178.644	-394.58
178.864	-431.44
179.084	-429.39
179.304	-34.13
179.524	-109.91
179.744	66.22
179.964	74.41
180.184	-40.28
180.404	35.5
180.624	15.02
180.844	-32.08
181.064	-64.85
181.283	101.03
181.503	-36.18
181.723	25.26
181.943	-105.81
182.163	219.82
182.383	-97.62
182.602	43.69
182.822	154.28
183.042	53.93
183.262	-27.99
183.482	-93.52
183.701	15.02
183.921	139.94
184.141	-46.42
184.361	6.83
184.58	58.03
184.8	2.73
185.02	-7.51
185.239	109.22
185.459	115.37
185.679	21.16
185.898	-126.29
186.118	33.45
186.338	86.7
186.557	60.07
186.777	10.92
186.997	-124.24
187.216	60.07
187.436	101.03
187.655	74.41
187.875	64.17
188.095	58.03
188.314	135.85
188.534	123.56
188.753	-79.19
188.973	139.94
189.192	238.25
189.412	27.31
189.631	70.31
189.851	-9.56
190.07	182.95
190.29	-44.37
190.509	29.35
190.729	27.31
190.948	195.24
191.168	260.77
191.387	10.92
191.607	-17.75
191.826	86.7
192.045	23.21
192.265	37.55
192.484	92.84
192.704	37.55
192.923	-58.71
193.142	156.33
193.362	82.6
193.581	160.42
193.8	84.65
194.02	-34.13
194.239	-27.99
194.458	119.46
194.678	23.21
194.897	55.98
195.116	129.7
195.335	62.12
195.555	29.35
195.774	-27.99
195.993	96.94
196.212	86.7
196.432	72.36
196.651	2.73
196.87	72.36
197.089	238.25
197.308	94.89
197.528	129.7
197.747	-64.85
197.966	27.31
198.185	45.74
198.404	4.78
198.623	148.14
198.842	12.97
199.062	74.41
199.281	109.22
199.5	92.84
199.719	90.79
199.938	115.37
200.157	90.79
200.376	49.83
200.595	92.84
200.814	62.12
201.033	21.16
201.252	68.27
201.471	92.84
201.69	115.37
201.909	41.64
202.128	119.46
202.347	125.61
202.566	-5.46
202.785	-56.66
203.004	8.87
203.223	223.91
203.442	43.69
203.661	-62.8
203.879	86.7
204.098	74.41
204.317	-15.7
204.536	80.55
204.755	98.99
204.974	135.85
205.193	27.31
205.411	201.38
205.63	80.55
205.849	64.17
206.068	21.16
206.287	39.59
206.505	168.62
206.724	72.36
206.943	31.4
207.162	10.92
207.381	96.94
207.599	-38.23
207.818	47.79
208.037	0.68
208.255	8.87
208.474	6.83
208.693	39.59
208.911	43.69
209.13	41.64
209.349	86.7
209.567	62.12
209.786	-11.61
210.005	113.32
210.223	78.51
210.442	-62.8
210.661	-21.85
210.879	21.16
211.098	58.03
211.316	64.17
211.535	74.41
211.753	47.79
211.972	127.66
212.191	-23.89
212.409	35.5
212.628	113.32
212.846	2.73
213.065	96.94
213.283	127.66
213.502	6.83
213.72	23.21
213.938	68.27
214.157	-11.61
214.375	107.18
214.594	-27.99
214.812	133.8
215.031	15.02
215.249	62.12
215.467	84.65
215.686	31.4
215.904	92.84
216.122	45.74
216.341	60.07
216.559	12.97
216.778	129.7
216.996	127.66
217.214	33.45
217.432	-52.56
217.651	-38.23
217.869	33.45
218.087	8.87
218.306	37.55
218.524	133.8
218.742	37.55
218.96	139.94
219.179	15.02
219.397	49.83
219.615	230.06
219.833	121.51
220.051	6.83
220.27	125.61
220.488	148.14
220.706	25.26
220.924	-32.08
221.142	-5.46
221.36	51.88
221.578	84.65
221.796	-5.46
222.015	60.07
222.233	17.07
222.451	125.61
222.669	-13.65
222.887	125.61
223.105	-83.28
223.323	0.68
223.541	-5.46
223.759	62.12
223.977	27.31
224.195	160.42
224.413	88.75
224.631	62.12
224.849	-11.61
225.067	137.9
225.285	43.69
225.503	6.83
225.721	-62.8
225.939	29.35
226.157	74.41
226.375	182.95
226.592	17.07
226.81	47.79
227.028	86.7
227.246	86.7
227.464	-13.65
227.682	64.17
227.9	47.79
228.117	15.02
228.335	58.03
228.553	43.69
228.771	12.97
228.989	47.79
229.206	82.6
229.424	19.11
229.642	27.31
229.86	8.87
230.077	125.61
230.295	58.03
230.513	68.27
230.731	51.88
230.948	230.06
231.166	160.42
231.384	0.68
231.601	-13.65
231.819	162.47
232.037	33.45
232.254	-83.28
232.472	17.07
232.689	-11.61
232.907	127.66
233.125	43.69
233.342	-56.66
233.56	-30.04
233.777	88.75
233.995	82.6
234.213	82.6
234.43	107.18
234.648	82.6
234.865	-32.08
235.083	178.86
235.3	60.07
235.518	70.31
235.735	139.94
235.953	-3.41
236.17	29.35
236.388	-30.04
236.605	27.31
236.822	125.61
237.04	182.95
237.257	80.55
237.475	39.59
237.692	72.36
237.909	62.12
238.127	-34.13
238.344	203.43
238.562	88.75
238.779	-64.85
238.996	10.92
239.214	43.69
239.431	105.13
239.648	-54.61
239.865	86.7
240.083	90.79
240.3	45.74
240.517	4.78
240.735	88.75
240.952	123.56
241.169	101.03
241.386	111.27
241.603	43.69
241.821	-23.89
242.038	135.85
242.255	88.75
242.472	-19.8
242.689	58.03
242.907	133.8
243.124	86.7
243.341	53.93
243.558	-21.85
243.775	-30.04
243.992	8.87
244.209	88.75
244.426	127.66
244.643	35.5
244.86	96.94
245.078	115.37
245.295	31.4
245.512	-66.9
245.729	4.78
245.946	33.45
246.163	15.02
246.38	-25.94
246.597	68.27
246.814	25.26
247.031	64.17
247.248	0.68
247.464	49.83
247.681	37.55
247.898	74.41
248.115	45.74
248.332	-21.85
248.549	82.6
248.766	215.72
248.983	115.37
249.2	66.22
249.417	113.32
249.633	64.17
249.85	111.27
250.067	41.64
250.284	80.55
250.501	105.13
250.717	101.03
250.934	-5.46
251.151	29.35
251.368	-46.42
251.585	70.31
251.801	29.35
252.018	-5.46
252.235	139.94
252.451	-79.19
252.668	12.97
252.885	96.94
253.102	45.74
253.318	-25.94
253.535	29.35
253.752	37.55
253.968	17.07
254.185	-38.23
254.401	47.79
254.618	103.08
254.835	-54.61
255.051	205.48
255.268	39.59
255.484	90.79
255.701	45.74
255.917	21.16
256.134	-38.23
256.351	92.84
256.567	19.11
256.784	66.22
257	-99.67
257.217	51.88
257.433	113.32
257.65	84.65
257.866	117.42
258.082	37.55
258.299	-83.28
258.515	33.45
258.732	51.88
258.948	-87.38
259.165	109.22
259.381	-36.18
259.597	96.94
259.814	0.68
260.03	33.45
260.246	-27.99
260.463	103.08
260.679	178.86
260.895	-3.41
261.112	74.41
261.328	33.45
261.544	-5.46
261.761	154.28
261.977	64.17
262.193	-114
262.409	84.65
262.626	19.11
262.842	21.16
263.058	-21.85
263.274	41.64
263.49	35.5
263.707	47.79
263.923	96.94
264.139	6.83
264.355	62.12
264.571	49.83
264.787	39.59
265.004	76.46
265.22	94.89
265.436	-5.46
265.652	-27.99
265.868	-15.7
266.084	4.78
266.3	123.56
266.516	10.92
266.732	-25.94
266.948	4.78
267.164	62.12
267.38	137.9
267.596	27.31
267.812	164.52
268.028	10.92
268.244	-3.41
268.46	27.31
268.676	-66.9
268.892	58.03
269.108	-42.32
269.324	-56.66
269.54	-56.66
269.756	84.65
269.972	-136.53
270.188	92.84
270.403	-81.24
270.619	68.27
270.835	70.31
271.051	101.03
271.267	6.83
271.483	-11.61
271.698	72.36
271.914	49.83
272.13	58.03
272.346	31.4
272.562	27.31
272.777	115.37
272.993	-11.61
273.209	4.78
273.425	113.32
273.64	-85.33
273.856	31.4
274.072	-3.41
274.287	-9.56
274.503	119.46
274.719	146.09
274.934	27.31
275.15	-132.44
275.366	25.26
275.581	-52.56
275.797	-87.38
276.012	107.18
276.228	-17.75
276.444	49.83
276.659	70.31
276.875	12.97
277.09	-34.13
277.306	47.79
277.521	60.07
277.737	19.11
277.952	78.51
278.168	119.46
278.383	37.55
278.599	74.41
278.814	113.32
279.03	-38.23
279.245	121.51
279.461	84.65
279.676	158.38
279.892	-36.18
280.107	-3.41
280.322	-3.41
280.538	117.42
280.753	-1.37
280.969	80.55
281.184	-38.23
281.399	78.51
281.615	17.07
281.83	64.17
282.045	-5.46
282.26	21.16
282.476	41.64
282.691	15.02
282.906	172.71
283.122	70.31
283.337	66.22
283.552	6.83
283.767	98.99
283.983	74.41
284.198	33.45
284.413	-3.41
284.628	-7.51
284.843	111.27
285.058	107.18
285.274	-30.04
285.489	-1.37
285.704	139.94
285.919	55.98
286.134	-17.75
286.349	25.26
286.564	25.26
286.779	154.28
286.995	49.83
287.21	-21.85
287.425	76.46
287.64	-34.13
287.855	113.32
288.07	-56.66
288.285	154.28
288.5	88.75
288.715	80.55
288.93	-19.8
289.145	-46.42
289.36	109.22
289.575	-21.85
289.79	152.23
290.004	15.02
290.219	49.83
290.434	23.21
290.649	-32.08
290.864	15.02
291.079	-9.56
291.294	117.42
291.509	78.51
291.724	-23.89
291.938	39.59
292.153	78.51
292.368	8.87
292.583	-5.46
292.798	70.31
293.012	23.21
293.227	49.83
293.442	76.46
293.657	156.33
293.871	113.32
294.086	101.03
294.301	228.01
294.516	154.28
294.73	-13.65
294.945	-27.99
295.16	25.26
295.374	94.89
295.589	105.13
295.804	43.69
296.018	-3.41
296.233	86.7
296.447	111.27
296.662	33.45
296.877	78.51
297.091	127.66
297.306	45.74
297.52	51.88
297.735	45.74
297.949	105.13
298.164	37.55
298.378	68.27
298.593	-118.1
298.807	-23.89
299.022	74.41
299.236	113.32
299.451	-3.41
299.665	12.97
299.88	-5.46
300.094	94.89
300.309	39.59
300.523	84.65
300.737	12.97
300.952	154.28
301.166	-11.61
301.381	-58.71
301.595	4.78
301.809	98.99
302.024	45.74
302.238	-3.41
302.452	189.1
302.667	17.07
302.881	148.14
303.095	113.32
303.309	35.5
303.524	-5.46
303.738	51.88
303.952	-62.8
304.166	45.74
304.381	-95.57
304.595	109.22
304.809	15.02
305.023	101.03
305.237	35.5
305.452	10.92
305.666	64.17
305.88	-1.37
306.094	148.14
306.308	45.74
306.522	109.22
306.736	39.59
306.95	80.55
307.164	70.31
307.379	-9.56
307.593	137.9
307.807	80.55
308.021	133.8
308.235	123.56
308.449	-83.28
308.663	-5.46
308.877	197.29
309.091	2.73
309.305	66.22
309.519	-83.28
309.733	160.42
309.947	-130.39
310.161	105.13
310.374	111.27
310.588	76.46
310.802	51.88
311.016	-25.94
311.23	27.31
311.444	29.35
311.658	43.69
311.872	74.41
312.085	131.75
312.299	148.14
312.513	148.14
312.727	98.99
312.941	-40.28
313.154	115.37
313.368	29.35
313.582	76.46
313.796	23.21
314.009	51.88
314.223	68.27
314.437	47.79
314.651	88.75
314.864	21.16
315.078	4.78
315.292	-48.47
315.505	41.64
315.719	55.98
315.933	107.18
316.146	-19.8
316.36	-34.13
316.573	123.56
316.787	64.17
317.001	72.36
317.214	-52.56
317.428	68.27
317.641	-68.95
317.855	-17.75
318.068	51.88
318.282	103.08
318.495	107.18
318.709	2.73
318.922	70.31
319.136	129.7
319.349	125.61
319.563	41.64
319.776	146.09
319.99	-38.23
320.203	72.36
320.417	33.45
320.63	160.42
320.843	117.42
321.057	25.26
321.27	-13.65
321.483	74.41
321.697	164.52
321.91	53.93
322.124	64.17
322.337	29.35
322.55	-109.91
322.763	-38.23
322.977	76.46
323.19	29.35
323.403	53.93
323.617	43.69
323.83	150.18
324.043	15.02
324.256	105.13
324.469	-81.24
324.683	94.89
324.896	-3.41
325.109	41.64
325.322	-32.08
325.535	49.83
325.748	98.99
325.962	2.73
326.175	98.99
326.388	55.98
326.601	60.07
326.814	68.27
327.027	103.08
327.24	137.9
327.453	-95.57
327.666	111.27
327.879	101.03
328.092	51.88
328.305	92.84
328.518	17.07
328.731	-19.8
328.944	2.73
329.157	111.27
329.37	66.22
329.583	146.09
329.796	88.75
330.009	6.83
330.222	92.84
330.435	21.16
330.648	49.83
330.861	78.51
331.073	123.56
331.286	182.95
331.499	92.84
331.712	-25.94
331.925	27.31
332.138	103.08
332.35	115.37
332.563	49.83
332.776	148.14
332.989	0.68
333.202	-34.13
333.414	49.83
333.627	82.6
333.84	12.97
334.053	-21.85
334.265	29.35
334.478	72.36
334.691	-34.13
334.903	68.27
335.116	27.31
335.329	60.07
335.541	141.99
335.754	90.79
335.966	-27.99
336.179	68.27
336.392	78.51
336.604	2.73
336.817	45.74
337.029	62.12
337.242	62.12
337.454	-3.41
337.667	51.88
337.88	111.27
338.092	70.31
338.305	105.13
338.517	-52.56
338.729	80.55
338.942	148.14
339.154	-48.47
339.367	-30.04
339.579	84.65
339.792	-56.66
340.004	37.55
340.217	-5.46
340.429	62.12
340.641	19.11
340.854	-1.37
341.066	27.31
341.278	129.7
341.491	168.62
341.703	2.73
341.915	-38.23
342.128	141.99
342.34	107.18
342.552	15.02
342.764	-54.61
342.977	49.83
343.189	74.41
343.401	45.74
343.613	-77.14
343.826	105.13
344.038	10.92
344.25	0.68
344.462	4.78
344.674	72.36
344.886	43.69
345.099	31.4
345.311	117.42
345.523	31.4
345.735	-17.75
345.947	23.21
346.159	96.94
346.371	82.6
346.583	-9.56
346.795	185
347.007	19.11
347.219	60.07
347.431	29.35
347.643	66.22
347.855	-30.04
348.067	92.84
348.279	8.87
348.491	2.73
348.703	131.75
348.915	76.46
349.127	-54.61
349.339	-27.99
349.551	12.97
349.763	105.13
349.975	-40.28
350.187	117.42
350.399	68.27
350.61	-9.56
350.822	68.27
351.034	129.7
351.246	25.26
351.458	64.17
351.669	119.46
351.881	94.89
352.093	72.36
352.305	131.75
352.517	64.17
352.728	92.84
352.94	-11.61
353.152	92.84
353.363	10.92
353.575	137.9
353.787	221.86
353.999	68.27
354.21	168.62
354.422	-85.33
354.633	-9.56
354.845	43.69
355.057	41.64
355.268	41.64
355.48	148.14
355.692	-42.32
355.903	-32.08
356.115	-52.56
356.326	-15.7
356.538	135.85
356.749	8.87
356.961	205.48
357.172	-1.37
357.384	-5.46
357.595	230.06
357.807	35.5
358.018	-11.61
358.23	49.83
358.441	146.09
358.653	31.4
358.864	19.11
359.075	43.69
359.287	49.83
359.498	74.41
359.709	117.42
359.921	23.21
360.132	41.64
360.344	-9.56
360.555	39.59
360.766	117.42
360.977	49.83
361.189	62.12
361.4	21.16
361.611	148.14
361.823	78.51
362.034	139.94
362.245	-56.66
362.456	-7.51
362.667	47.79
362.879	6.83
363.09	84.65
363.301	121.51
363.512	31.4
363.723	66.22
363.935	45.74
364.146	121.51
364.357	76.46
364.568	-5.46
364.779	-79.19
364.99	119.46
365.201	-19.8
365.412	168.62
365.623	-66.9
365.834	62.12
366.045	84.65
366.256	49.83
366.467	78.51
366.678	15.02
366.889	-5.46
367.1	8.87
367.311	49.83
367.522	-62.8
367.733	64.17
367.944	115.37
368.155	29.35
368.366	51.88
368.577	74.41
368.788	146.09
368.999	72.36
369.209	60.07
369.42	195.24
369.631	215.72
369.842	121.51
370.053	80.55
370.264	121.51
370.474	4.78
370.685	-1.37
370.896	-44.37
371.107	103.08
371.317	113.32
371.528	23.21
371.739	158.38
371.95	131.75
372.16	92.84
372.371	-73.04
372.582	41.64
372.792	101.03
373.003	70.31
373.214	66.22
373.424	94.89
373.635	-11.61
373.846	176.81
374.056	47.79
374.267	21.16
374.477	80.55
374.688	21.16
374.898	158.38
375.109	64.17
375.319	92.84
375.53	160.42
375.74	96.94
375.951	15.02
376.161	92.84
376.372	96.94
376.582	43.69
376.793	-3.41
377.003	-32.08
377.214	-9.56
377.424	6.83
377.635	86.7
377.845	-75.09
378.055	174.76
378.266	47.79
378.476	31.4
378.686	107.18
378.897	-9.56
379.107	131.75
379.317	49.83
379.528	27.31
379.738	98.99
379.948	4.78
380.158	109.22
380.369	58.03
380.579	90.79
380.789	31.4
380.999	103.08
381.21	107.18
381.42	199.34
381.63	-36.18
381.84	66.22
382.05	39.59
382.261	129.7
382.471	135.85
382.681	8.87
382.891	141.99
383.101	94.89
383.311	12.97
383.521	-5.46
383.731	111.27
383.941	135.85
384.151	84.65
384.361	25.26
384.571	119.46
384.781	76.46
384.991	195.24
385.201	139.94
385.411	78.51
385.621	58.03
385.831	109.22
386.041	23.21
386.251	2.73
386.461	80.55
386.671	-62.8
386.881	162.47
387.091	4.78
387.301	103.08
387.511	-3.41
387.72	23.21
387.93	62.12
388.14	-60.76
388.35	27.31
388.56	43.69
388.769	101.03
388.979	78.51
389.189	31.4
389.399	-3.41
389.609	129.7
389.818	103.08
390.028	35.5
390.238	92.84
390.447	-15.7
390.657	117.42
390.867	129.7
391.076	-36.18
391.286	76.46
391.496	86.7
391.705	68.27
391.915	146.09
392.125	31.4
392.334	-46.42
392.544	203.43
392.753	12.97
392.963	103.08
393.172	10.92
393.382	-9.56
393.591	92.84
393.801	-30.04
394.01	172.71
394.22	51.88
394.429	10.92
394.639	25.26
394.848	8.87
395.058	51.88
395.267	19.11
395.477	12.97
395.686	62.12
395.895	230.06
396.105	217.77
396.314	0.68
396.524	88.75
396.733	-3.41
396.942	111.27
397.152	41.64
397.361	19.11
397.57	98.99
397.78	62.12
397.989	78.51
398.198	201.38
398.407	64.17
398.617	27.31
398.826	47.79
399.035	0.68
399.244	96.94
399.453	150.18
399.663	98.99
399.872	60.07
400.081	-68.95
400.29	101.03
400.499	-9.56
400.708	107.18
400.917	23.21
401.127	62.12
401.336	39.59
401.545	213.67
401.754	101.03
401.963	117.42
402.172	45.74
402.381	-52.56
402.59	6.83
402.799	94.89
403.008	119.46
403.217	55.98
403.426	66.22
403.635	-44.37
403.844	19.11
404.053	8.87
404.262	41.64
404.471	135.85
404.68	43.69
404.888	58.03
405.097	58.03
405.306	133.8
405.515	80.55
405.724	17.07
405.933	207.53
406.142	43.69
406.35	62.12
406.559	49.83
406.768	70.31
406.977	117.42
407.185	84.65
407.394	60.07
407.603	-36.18
407.812	103.08
408.02	96.94
408.229	64.17
408.438	27.31
408.646	0.68
408.855	35.5
409.064	64.17
409.272	41.64
409.481	64.17
409.69	8.87
409.898	19.11
410.107	39.59
410.315	86.7
410.524	47.79
410.733	94.89
410.941	15.02
411.15	53.93
411.358	-3.41
411.567	195.24
411.775	98.99
411.984	105.13
412.192	55.98
412.401	15.02
412.609	207.53
412.818	84.65
413.026	135.85
413.234	27.31
413.443	23.21
413.651	4.78
413.86	35.5
414.068	168.62
414.276	131.75
414.485	19.11
414.693	168.62
414.901	213.67
415.11	96.94
415.318	117.42
415.526	15.02
415.734	158.38
415.943	2.73
416.151	129.7
416.359	94.89
416.567	-5.46
416.776	209.58
416.984	96.94
417.192	168.62
417.4	0.68
417.608	80.55
417.817	39.59
418.025	170.66
418.233	105.13
418.441	6.83
418.649	4.78
418.857	109.22
419.065	62.12
419.273	19.11
419.481	17.07
419.689	60.07
419.897	94.89
420.105	6.83
420.313	76.46
420.521	121.51
420.729	127.66
420.937	-27.99
421.145	-11.61
421.353	88.75
421.561	101.03
421.769	29.35
421.977	39.59
422.185	62.12
422.393	2.73
422.601	96.94
422.809	90.79
423.017	43.69
423.224	78.51
423.432	125.61
423.64	47.79
423.848	150.18
424.056	-27.99
424.263	172.71
424.471	0.68
424.679	84.65
424.887	-27.99
425.094	141.99
425.302	82.6
425.51	21.16
425.718	115.37
425.925	31.4
426.133	70.31
426.341	135.85
426.548	37.55
426.756	-3.41
426.964	139.94
427.171	29.35
427.379	74.41
427.586	117.42
427.794	129.7
428.001	76.46
428.209	127.66
428.417	135.85
428.624	105.13
428.832	123.56
429.039	68.27
429.247	64.17
429.454	80.55
429.662	180.9
429.869	211.62
430.076	172.71
430.284	213.67
430.491	197.29
430.699	172.71
430.906	219.82
431.114	133.8
431.321	113.32
431.528	33.45
431.736	137.9
431.943	174.76
432.15	172.71
432.358	133.8
432.565	197.29
432.772	-17.75
432.979	223.91
433.187	141.99
433.394	215.72
433.601	156.33
433.808	158.38
434.016	207.53
434.223	201.38
434.43	238.25
434.637	213.67
434.844	309.93
435.052	228.01
435.259	262.82
435.466	268.97
435.673	166.57
435.88	223.91
436.087	344.74
436.294	217.77
436.501	303.78
436.708	164.52
436.915	316.07
437.122	324.26
437.329	244.39
437.537	236.2
437.743	258.73
437.95	451.24
438.157	283.3
438.364	344.74
438.571	363.17
438.778	340.65
438.985	420.52
439.192	449.19
439.399	320.17
439.606	496.29
439.813	484
440.02	537.25
440.227	592.55
440.433	469.67
440.64	441
440.847	500.39
441.054	512.67
441.261	484
441.467	553.63
441.674	516.77
441.881	592.55
442.088	504.48
442.294	658.08
442.501	631.46
442.708	660.13
442.914	705.18
443.121	725.66
443.328	674.46
443.534	778.91
443.741	705.18
443.948	754.34
444.154	815.77
444.361	991.9
444.568	877.21
444.774	936.6
444.981	778.91
445.187	1067.67
445.394	1063.58
445.6	985.76
445.807	1122.97
446.013	1077.91
446.22	1026.71
446.426	1264.28
446.633	1284.76
446.839	1450.64
447.046	1305.24
447.252	1448.6
447.459	1360.53
447.665	1518.23
447.871	1671.83
448.078	1735.31
448.284	1657.49
448.491	1720.98
448.697	1782.42
448.903	1952.4
449.11	1854.09
449.316	1813.13
449.522	2044.56
449.728	2056.84
449.935	2198.15
450.141	2187.91
450.347	2448.01
450.553	2425.48
450.76	2409.09
450.966	2587.27
451.172	2691.71
451.378	2736.77
451.584	2847.36
451.791	3021.44
451.997	3056.25
452.203	2960
452.409	3345.02
452.615	3537.52
452.821	3244.67
453.027	3426.93
453.233	3940.97
453.44	3666.55
453.646	3965.55
453.852	3945.07
454.058	4127.34
454.264	4205.16
454.47	4721.25
454.676	4596.32
454.882	5020.25
455.088	4717.15
455.294	5147.23
455.5	5409.37
455.705	5683.8
455.911	5720.66
456.117	5778
456.323	6146.64
456.529	6087.25
456.735	6787.65
456.941	6736.45
457.147	7027.26
457.352	7152.19
457.558	7426.62
457.764	7952.95
457.97	8102.45
458.176	8413.74
458.381	8878.63
458.587	9036.32
458.793	9417.24
458.999	9386.52
459.204	10680.84
459.41	10945.03
459.616	10764.81
459.821	11536.89
460.027	11866.61
460.233	12528.11
460.438	12544.49
460.644	13259.23
460.85	13382.11
461.055	13828.57
461.261	14541.26
461.466	14174.67
461.672	14340.56
461.878	16071.09
462.083	16019.89
462.289	16437.68
462.494	17078.69
462.7	17064.36
462.905	17598.88
463.111	19132.81
463.316	19863.93
463.522	20087.16
463.727	20789.61
463.932	21367.14
464.138	22126.94
464.343	23177.55
464.549	23269.7
464.754	25092.4
464.959	25723.17
465.165	26034.46
465.37	25717.03
465.575	25680.16
465.781	27549.96
465.986	28571.89
466.191	28121.34
466.397	28090.62
466.602	27769.09
466.807	29135.09
467.012	29655.27
467.218	30367.96
467.423	30308.57
467.628	31148.24
467.833	32557.24
468.038	32100.54
468.244	31598.79
468.449	33011.89
468.654	32817.33
468.859	32469.18
469.064	32612.54
469.269	31418.57
469.474	31795.4
469.679	33179.82
469.885	31764.68
470.09	32651.45
470.295	32661.69
470.5	31912.13
470.705	31817.93
470.91	31191.25
471.115	30646.49
471.32	31312.08
471.525	31533.26
471.73	30509.27
471.935	30476.51
472.139	28915.95
472.344	28997.87
472.549	28760.31
472.754	28358.91
472.959	27341.07
473.164	26618.13
473.369	26511.64
473.574	27279.63
473.778	26384.66
473.983	26171.68
474.188	25829.66
474.393	24250.68
474.598	24383.8
474.802	23839.04
475.007	23808.32
475.212	23683.39
475.417	22643.03
475.621	22157.66
475.826	21834.08
476.031	21502.31
476.235	20828.52
476.44	21180.78
476.645	20371.83
476.849	20466.03
477.054	20081.02
477.259	19437.95
477.463	19308.93
477.668	18792.84
477.872	18983.31
478.077	18424.21
478.282	17842.59
478.486	17779.1
478.691	17467.81
478.895	17570.21
479.1	17119.65
479.304	17017.26
479.509	16585.13
479.713	16640.43
479.918	16447.92
480.122	16230.83
480.326	16159.16
480.531	16210.36
480.735	15987.13
480.94	15499.71
481.144	16155.06
481.348	15272.39
481.553	15405.5
481.757	15137.22
481.961	15231.43
482.166	15227.33
482.37	14825.93
482.574	14664.14
482.778	14576.08
482.983	14885.32
483.187	14563.79
483.391	14567.88
483.595	14576.08
483.8	14117.33
484.004	14281.17
484.208	14008.79
484.412	13830.62
484.616	13879.77
484.821	13433.31
485.025	13091.3
485.229	13126.11
485.433	13187.55
485.637	12954.08
485.841	12620.27
486.045	12536.3
486.249	12661.23
486.453	12192.24
486.657	12083.7
486.861	11829.75
487.065	11543.03
487.269	11698.68
487.473	11325.95
487.677	11403.77
487.881	11426.3
488.085	10832.39
488.289	10863.11
488.493	10428.94
488.697	10484.23
488.901	10301.97
489.105	10009.11
489.309	9935.38
489.512	9800.21
489.716	9663
489.92	9466.39
490.124	9218.59
490.328	9132.58
490.531	8940.07
490.735	8837.67
490.939	8663.59
491.143	8466.99
491.346	8380.97
491.55	8294.96
491.754	8114.73
491.958	8084.02
492.161	7770.68
492.365	7858.74
492.569	7787.06
492.772	7502.39
492.976	7617.08
493.18	7449.14
493.383	7567.93
493.587	7275.07
493.79	7350.84
493.994	6943.3
494.197	7033.41
494.401	7121.47
494.605	6963.78
494.808	6980.16
495.012	6869.57
495.215	6971.97
495.419	7004.74
495.622	6767.17
495.825	6609.48
496.029	6668.87
496.232	6810.18
496.436	6672.96
496.639	6754.88
496.843	6658.63
497.046	6734.4
497.249	6969.92
497.453	6715.97
497.656	6652.49
497.859	6767.17
498.063	6722.12
498.266	6890.05
498.469	6482.5
498.673	6713.92
498.876	6955.58
499.079	6859.33
499.282	6810.18
499.485	7244.35
499.689	6898.24
499.892	7176.77
500.095	7010.88
500.298	7252.54
500.501	7033.41
500.705	7379.51
500.908	7434.81
501.111	7461.43
501.314	7651.89
501.517	7610.93
501.72	7793.2
501.923	7782.96
502.126	7883.31
502.329	8118.83
502.532	8012.34
502.735	8198.7
502.938	8430.12
503.141	8395.31
503.344	8530.47
503.547	8604.2
503.75	8620.58
503.953	8634.92
504.156	8917.54
504.359	9112.1
504.562	9001.51
504.765	9462.3
504.968	9402.91
505.17	9740.82
505.373	9810.45
505.576	9984.53
505.779	10209.81
505.982	10273.29
506.185	10619.4
506.387	10725.89
506.59	10818.05
506.793	11067.91
506.996	11168.26
507.198	11481.6
507.401	11545.08
507.604	11923.96
507.807	12134.9
508.009	12397.04
508.212	12616.17
508.415	13099.49
508.617	13279.71
508.82	13177.31
509.022	13373.92
509.225	13984.21
509.428	14197.2
509.63	14309.84
509.833	14588.36
510.035	15348.16
510.238	15143.36
510.44	15663.55
510.643	16058.81
510.845	16376.24
511.048	16748.97
511.25	16982.44
511.453	17283.49
511.655	18217.36
511.858	18162.07
512.06	18772.36
512.262	18807.18
512.465	19411.33
512.667	19843.45
512.87	20242.81
513.072	20812.14
513.274	21320.04
513.477	21758.3
513.679	22184.28
513.881	22520.15
514.084	22878.54
514.286	23718.21
514.488	24142.14
514.69	25168.17
514.893	25340.2
515.095	25526.57
515.297	25995.55
515.499	26597.65
515.701	26919.18
515.904	28029.18
516.106	28575.99
516.308	29022.45
516.51	29614.31
516.712	29827.3
516.914	30634.2
517.116	31275.21
517.318	31443.15
517.52	32168.13
517.722	32569.53
517.925	33450.16
518.127	34050.21
518.329	34795.67
518.531	34592.92
518.733	35616.91
518.935	36368.51
519.136	36591.74
519.338	37738.6
519.54	37943.4
519.742	38314.08
519.944	38486.11
520.146	39770.19
520.348	40052.81
520.55	40294.47
520.752	40577.09
520.954	41199.67
521.155	41351.22
521.357	42229.8
521.559	42491.94
521.761	43122.71
521.963	43472.92
522.164	43933.71
522.366	44167.18
522.568	44103.69
522.77	44398.6
522.971	45062.14
523.173	45045.76
523.375	45725.68
523.576	45426.68
523.778	45524.98
523.98	46301.16
524.181	46442.47
524.383	46211.05
524.584	46890.98
524.786	46661.6
524.988	46131.18
525.189	46821.34
525.391	47167.45
525.592	46759.91
525.794	46690.27
525.995	46632.93
526.197	46677.99
526.398	46751.71
526.6	46770.14
526.801	46780.38
527.003	46630.88
527.204	46241.77
527.406	46538.72
527.607	45639.67
527.808	45938.67
528.01	44716.03
528.211	44918.78
528.412	45541.36
528.614	45056
528.815	44306.44
529.016	44236.81
529.218	43460.63
529.419	43571.22
529.62	43288.6
529.822	42397.73
530.023	42149.93
530.224	41793.58
530.425	41220.15
530.626	40458.31
530.828	40290.37
531.029	40781.88
531.23	39686.22
531.431	38815.83
531.632	39217.24
531.833	38615.13
532.035	38129.76
532.236	37521.52
532.437	37253.23
532.638	36432
532.839	36063.36
533.04	35965.06
533.241	34904.21
533.442	34951.32
533.643	34470.04
533.844	33740.97
534.045	33493.16
534.246	32831.67
534.447	32708.79
534.648	31910.08
534.849	31832.26
535.05	31189.2
535.251	30953.68
535.451	30626.01
535.652	30142.69
535.853	29493.48
536.054	29325.55
536.255	28930.29
536.456	28526.84
536.657	28186.88
536.857	27541.77
537.058	26958.1
537.259	26798.35
537.46	26720.53
537.66	26466.58
537.861	25923.87
538.062	25387.3
538.263	25520.42
538.463	24957.23
538.664	24637.75
538.865	24475.96
539.065	24514.87
539.266	23740.74
539.466	23560.52
539.667	23226.7
539.868	22964.56
540.068	22391.12
540.269	22473.04
540.469	22350.17
540.67	21670.24
540.87	21545.31
541.071	21461.35
541.271	21350.76
541.472	20736.37
541.672	20595.06
541.873	20212.09
542.073	19597.7
542.274	19927.42
542.474	19777.92
542.675	19259.78
542.875	19470.72
543.075	18829.71
543.276	18452.88
543.476	18665.87
543.676	18291.09
543.877	18170.26
544.077	17908.12
544.277	17822.11
544.478	17578.4
544.678	17727.9
544.878	17109.41
545.078	17140.13
545.279	16839.08
545.479	16687.53
545.679	16384.43
545.879	15937.98
546.079	16292.27
546.28	15864.25
546.48	15792.57
546.68	15548.86
546.88	15507.9
547.08	15223.23
547.28	14832.07
547.48	14506.45
547.68	14635.47
547.88	14518.73
548.081	14246.35
548.281	13838.81
548.481	13783.51
548.681	13863.38
548.881	13638.11
549.081	13414.88
549.28	13142.5
549.48	13021.67
549.68	12755.43
549.88	12728.81
550.08	12509.68
550.28	12274.16
550.48	12341.74
550.68	12083.7
550.88	11827.7
551.08	11350.53
551.279	11710.97
551.479	11112.96
551.679	11084.29
551.879	11026.95
552.079	10822.15
552.278	10762.76
552.478	10625.54
552.678	10449.42
552.878	10199.57
553.077	10062.35
553.277	9730.58
553.477	9822.74
553.676	9714.2
553.876	9447.96
554.076	9222.69
554.275	9015.84
554.475	8839.72
554.674	9038.37
554.874	8843.81
555.074	8579.62
555.273	8538.66
555.473	8256.04
555.672	8155.69
555.872	8122.93
556.071	8026.67
556.271	8118.83
556.47	7721.52
556.67	7569.98
556.869	7608.89
557.068	7436.86
557.268	7309.88
557.467	7150.14
557.667	7062.08
557.866	6875.71
558.065	6783.56
558.265	6654.53
558.464	6414.92
558.663	6578.76
558.863	6308.43
559.062	6228.56
559.261	5968.46
559.461	6206.03
559.66	6019.66
559.859	5788.24
560.058	5825.11
560.258	5493.33
560.457	5581.4
560.656	5792.34
560.855	5311.07
561.054	5515.86
561.253	5251.67
561.453	5366.36
561.652	5210.72
561.851	5118.56
562.05	5005.92
562.249	4803.17
562.448	4960.86
562.647	4594.28
562.846	4680.29
563.045	4741.73
563.244	4446.82
563.443	4489.83
563.642	4448.87
563.841	4446.82
564.04	4305.51
564.239	4108.91
564.438	4139.63
564.637	4084.33
564.836	3986.03
565.035	3934.83
565.234	3945.07
565.432	3965.55
565.631	3900.02
565.83	3781.23
566.029	3586.68
566.228	3703.41
566.427	3605.11
566.625	3482.23
566.824	3555.96
567.023	3445.37
567.222	3373.69
567.42	3363.45
567.619	3177.08
567.818	3250.81
568.016	3496.57
568.215	3207.8
568.414	3148.41
568.612	3119.74
568.811	3068.54
569.01	3009.15
569.208	2935.42
569.407	2992.76
569.605	2960
569.804	2757.25
570.002	2822.78
570.201	2683.52
570.4	2658.95
570.598	2650.75
570.797	2542.21
570.995	2484.87
571.193	2493.06
571.392	2538.12
571.59	2349.7
571.789	2445.96
571.987	2462.34
572.186	2364.04
572.384	2327.18
572.582	2288.26
572.781	2462.34
572.979	2163.34
573.177	2247.3
573.376	2214.54
573.574	2288.26
573.772	2026.12
573.971	1979.02
574.169	1956.49
574.367	2120.33
574.565	1976.97
574.763	1907.34
574.962	2009.74
575.16	1964.68
575.358	1821.33
575.556	1870.48
575.754	1790.61
575.952	1755.79
576.151	1684.11
576.349	1706.64
576.547	1671.83
576.745	1690.26
576.943	1675.92
577.141	1614.48
577.339	1446.55
577.537	1639.06
577.735	1684.11
577.933	1682.06
578.131	1389.21
578.329	1606.29
578.527	1430.16
578.725	1436.31
578.923	1366.68
579.121	1475.22
579.319	1383.06
579.516	1378.97
579.714	1606.29
579.912	1241.75
580.11	1208.98
580.308	1288.85
580.506	1311.38
580.704	1141.4
580.901	1165.98
581.099	1278.62
581.297	1264.28
581.495	1233.56
581.692	1221.27
581.89	1139.35
582.088	1143.45
582.285	1165.98
582.483	1090.2
582.681	991.9
582.878	998.04
583.076	1067.67
583.274	1069.72
583.471	1094.3
583.669	1014.43
583.866	975.52
584.064	983.71
584.262	789.15
584.459	862.88
584.657	930.46
584.854	961.18
585.052	950.94
585.249	852.64
585.447	930.46
585.644	766.62
585.841	918.17
586.039	973.47
586.236	848.54
586.434	735.9
586.631	776.86
586.828	752.29
587.026	756.38
587.223	715.42
587.42	674.46
587.618	756.38
587.815	803.49
588.012	772.77
588.21	774.81
588.407	819.87
588.604	809.63
588.801	762.53
588.999	684.7
589.196	795.29
589.393	705.18
589.59	711.33
589.787	744.1
589.984	694.94
590.182	742.05
590.379	627.36
590.576	594.59
590.773	627.36
590.97	631.46
591.167	717.47
591.364	699.04
591.561	600.74
591.758	760.48
591.955	664.22
592.152	641.7
592.349	596.64
592.546	567.97
592.743	604.83
592.94	549.54
593.137	676.51
593.334	729.76
593.531	606.88
593.727	602.79
593.924	651.94
594.121	565.92
594.318	625.31
594.515	551.59
594.712	758.43
594.908	740
595.105	570.02
595.302	666.27
595.499	631.46
595.696	762.53
595.892	617.12
596.089	828.06
596.286	623.27
596.482	840.35
596.679	688.8
596.876	658.08
597.072	740
597.269	721.57
597.466	752.29
597.662	754.34
597.859	770.72
598.055	830.11
598.252	942.75
598.448	934.56
598.645	979.61
598.841	975.52
599.038	1067.67
599.234	1114.78
599.431	1084.06
599.627	1026.71
599.824	1094.3
600.02	1077.91
600.217	1215.13
600.413	1372.82
600.609	1295
600.806	1512.08
601.002	1467.03
601.198	1407.64
601.395	1501.84
601.591	1581.71
601.787	1618.58
601.984	1671.83
602.18	1686.16
602.376	1850
602.572	1893.01
602.769	1983.12
602.965	1905.29
603.161	2079.37
603.357	2069.13
603.553	2282.12
603.75	2232.97
603.946	2290.31
604.142	2478.72
604.338	2628.23
604.534	2456.2
604.73	2642.56
604.926	2667.14
605.122	2886.27
605.318	2826.88
605.514	2921.09
605.71	2904.7
605.906	3381.88
606.102	3195.51
606.298	3367.54
606.494	3500.66
606.69	3555.96
606.886	3803.76
607.082	3709.55
607.278	3781.23
607.474	3920.49
607.67	4121.2
607.866	3940.97
608.062	4338.28
608.257	4500.07
608.453	4407.91
608.649	4692.58
608.845	4731.49
609.041	4948.58
609.236	4979.29
609.432	5102.17
609.628	5405.27
609.824	5300.83
610.019	5612.12
610.215	5718.61
610.411	5964.37
610.606	6128.21
610.802	6158.92
610.998	6175.31
611.193	6738.5
611.389	6539.85
611.584	6820.42
611.78	7033.41
611.976	7250.49
612.171	7508.54
612.367	7600.69
612.562	7805.49
612.758	7987.76
612.953	8008.24
613.149	8565.29
613.344	8725.03
613.539	8870.44
613.735	9054.75
613.93	9257.5
614.126	9366.04
614.321	9986.58
614.517	10242.57
614.712	10555.91
614.907	10594.82
615.103	10641.93
615.298	10930.69
615.493	11422.2
615.688	11633.15
615.884	12046.83
616.079	12161.52
616.274	12710.38
616.47	12847.59
616.665	13130.21
616.86	13437.41
617.055	13769.18
617.25	14240.21
617.445	14719.43
617.641	14727.63
617.836	15210.95
618.031	15311.3
618.226	15956.41
618.421	16318.9
618.616	16748.97
618.811	17054.12
619.006	17754.52
619.201	17987.99
619.396	18112.92
619.591	18420.11
619.786	19095.94
619.981	19452.29
620.176	20103.54
620.371	20312.44
620.566	20754.8
620.761	21004.65
620.956	21612.9
621.151	21635.42
621.346	22438.23
621.541	22495.57
621.735	23558.47
621.93	23400.77
622.125	23916.86
622.32	24324.41
622.515	25264.43
622.709	25530.66
622.904	25991.45
623.099	26521.88
623.294	26902.8
623.488	27087.12
623.683	28070.14
623.878	27992.32
624.072	28649.72
624.267	29014.26
624.462	29462.76
624.656	29444.33
624.851	30388.44
625.046	30810.32
625.24	31287.5
625.435	31340.75
625.629	32121.02
625.824	32688.31
626.018	33052.85
626.213	32725.18
626.407	33867.94
626.602	33708.2
626.796	34478.24
626.991	34676.89
627.185	34908.31
627.38	35285.14
627.574	35453.07
627.768	35506.32
627.963	35680.39
628.157	35590.28
628.352	36180.1
628.546	36036.74
628.74	36241.54
628.935	35502.22
629.129	35756.17
629.323	35698.83
629.517	35623.05
629.712	35442.83
629.906	35434.64
630.1	35031.19
630.294	34926.74
630.489	34259.1
630.683	34168.99
630.877	33185.97
631.071	33024.18
631.265	32207.04
631.459	31592.65
631.653	30656.73
631.848	30484.7
632.042	29604.07
632.236	29399.27
632.43	28369.15
632.624	27414.79
632.818	27113.74
633.012	25704.74
633.206	25671.97
633.4	24664.37
633.594	23789.89
633.788	23036.24
633.982	22155.61
634.176	21465.44
634.369	20654.45
634.563	19773.82
634.757	18723.21
634.951	18590.1
635.145	17781.15
635.339	16964.01
635.533	16273.84
635.726	15980.98
635.92	14967.24
636.114	14526.92
636.308	13765.08
636.501	13541.85
636.695	12790.25
636.889	12147.19
637.083	11766.26
637.276	11409.92
637.47	10643.98
637.664	10336.78
637.857	10082.83
638.051	9589.27
638.244	9108
638.438	8825.38
638.632	8819.24
638.825	8045.1
639.019	7840.31
639.212	7506.49
639.406	7307.84
639.599	6906.43
639.793	6699.59
639.986	6400.58
640.18	6253.13
640.373	6019.66
640.567	5677.65
640.76	5546.58
640.954	5425.75
641.147	5100.12
641.34	4794.98
641.534	4684.39
641.727	4715.11
641.92	4366.95
642.114	4207.21
642.307	4010.61
642.5	4090.48
642.694	3789.42
642.887	3615.35
643.08	3605.11
643.273	3412.6
643.467	3375.74
643.66	3076.73
643.853	2916.99
644.046	3035.77
644.239	2781.82
644.432	2665.09
644.626	2517.64
644.819	2472.58
645.012	2417.29
645.205	2460.29
645.398	2290.31
645.591	2124.43
645.784	2040.46
645.977	1835.66
646.17	1866.38
646.363	1819.28
646.556	1768.08
646.749	1634.96
646.942	1700.5
647.135	1647.25
647.328	1532.56
647.521	1456.79
647.714	1393.3
647.907	1264.28
648.099	1229.46
648.292	1354.39
648.485	1157.79
648.678	1102.49
648.871	1026.71
649.064	1116.83
649.256	967.32
649.449	973.47
649.642	924.32
649.835	856.73
650.027	836.25
650.22	893.6
650.413	873.12
650.605	901.79
650.798	703.14
650.991	699.04
651.183	676.51
651.376	711.33
651.568	737.95
651.761	690.85
651.954	629.41
652.146	578.21
652.339	670.37
652.531	772.77
652.724	518.82
652.916	555.68
653.109	418.47
653.301	578.21
653.494	594.59
653.686	535.2
653.879	613.03
654.071	471.72
654.263	426.66
654.456	443.04
654.648	553.63
654.84	496.29
655.033	422.56
655.225	490.15
655.417	203.43
655.61	430.76
655.802	412.32
655.994	406.18
656.186	258.73
656.379	352.93
656.571	346.79
656.763	326.31
656.955	303.78
657.148	311.97
657.34	287.4
657.532	336.55
657.724	303.78
657.916	279.21
658.108	400.04
658.3	307.88
658.492	381.6
658.684	174.76
658.876	271.01
659.068	178.86
659.26	191.14
659.452	185
659.644	182.95
659.836	397.99
660.028	275.11
660.22	215.72
660.412	205.48
660.604	283.3
660.796	189.1
660.988	283.3
661.18	205.48
661.372	228.01
661.563	166.57
661.755	148.14
661.947	199.34
662.139	164.52
662.331	201.38
662.522	189.1
662.714	129.7
662.906	117.42
663.097	137.9
663.289	84.65
663.481	105.13
663.673	187.05
663.864	156.33
664.056	283.3
664.247	160.42
664.439	328.36
664.631	230.06
664.822	170.66
665.014	141.99
665.205	86.7
665.397	152.23
665.588	187.05
665.78	164.52
665.971	256.68
666.163	141.99
666.354	215.72
666.546	115.37
666.737	125.61
666.929	60.07
667.12	25.26
667.311	160.42
667.503	187.05
667.694	113.32
667.885	123.56
668.077	146.09
668.268	90.79
668.459	176.81
668.651	129.7
668.842	240.29
669.033	115.37
669.224	39.59
669.416	215.72
669.607	166.57
669.798	17.07
669.989	207.53
670.18	90.79
670.371	121.51
670.563	-15.7
670.754	160.42
670.945	209.58
671.136	131.75
671.327	88.75
671.518	176.81
671.709	156.33
671.9	144.04
672.091	238.25
672.282	213.67
672.473	205.48
672.664	105.13
672.855	197.29
673.046	135.85
673.237	150.18
673.428	62.12
673.619	123.56
673.809	209.58
674	258.73
674.191	129.7
674.382	121.51
674.573	103.08
674.764	141.99
674.954	264.87
675.145	88.75
675.336	129.7
675.527	137.9
675.717	8.87
675.908	152.23
676.099	129.7
676.289	185
676.48	43.69
676.671	109.22
676.861	12.97
677.052	174.76
677.243	123.56
677.433	117.42
677.624	217.77
677.814	156.33
678.005	156.33
678.195	223.91
678.386	78.51
678.576	139.94
678.767	31.4
678.957	51.88
679.148	156.33
679.338	314.02
679.529	150.18
679.719	115.37
679.909	215.72
680.1	242.34
680.29	209.58
680.481	86.7
680.671	131.75
680.861	178.86
681.052	164.52
681.242	84.65
681.432	189.1
681.622	133.8
681.813	21.16
682.003	133.8
682.193	74.41
682.383	178.86
682.573	166.57
682.764	76.46
682.954	164.52
683.144	271.01
683.334	217.77
683.524	189.1
683.714	252.58
683.904	197.29
684.094	96.94
684.284	103.08
684.474	168.62
684.664	146.09
684.854	160.42
685.044	131.75
685.234	187.05
685.424	236.2
685.614	123.56
685.804	295.59
685.994	260.77
686.184	107.18
686.374	246.44
686.564	207.53
686.753	105.13
686.943	146.09
687.133	160.42
687.323	172.71
687.513	176.81
687.702	78.51
687.892	68.27
688.082	260.77
688.272	244.39
688.461	170.66
688.651	191.14
688.841	248.49
689.03	203.43
689.22	158.38
689.41	244.39
689.599	242.34
689.789	105.13
689.979	266.92
690.168	125.61
690.358	162.47
690.547	215.72
690.737	205.48
690.926	189.1
691.116	209.58
691.305	283.3
691.495	187.05
691.684	168.62
691.874	94.89
692.063	180.9
692.252	160.42
692.442	277.16
692.631	113.32
692.82	35.5
693.01	164.52
693.199	117.42
693.388	211.62
693.578	191.14
693.767	207.53
693.956	264.87
694.146	180.9
694.335	299.69
694.524	131.75
694.713	223.91
694.902	191.14
695.092	139.94
695.281	260.77
695.47	88.75
695.659	160.42
695.848	88.75
696.037	135.85
696.226	277.16
696.415	125.61
696.604	219.82
696.793	203.43
696.982	154.28
697.171	215.72
697.36	105.13
697.549	221.86
697.738	80.55
697.927	141.99
698.116	141.99
698.305	205.48
698.494	178.86
698.683	94.89
698.872	318.12
699.061	195.24
699.25	182.95
699.438	92.84
699.627	8.87
699.816	322.21
700.005	92.84
700.193	98.99
700.382	254.63
700.571	144.04
700.76	141.99
700.948	107.18
701.137	203.43
701.326	211.62
701.514	78.51
701.703	193.19
701.892	246.44
702.08	285.35
702.269	139.94
702.457	125.61
702.646	119.46
702.834	35.5
703.023	182.95
703.212	320.17
703.4	211.62
703.589	90.79
703.777	201.38
703.965	201.38
704.154	160.42
704.342	55.98
704.531	115.37
704.719	215.72
704.907	203.43
705.096	185
705.284	66.22
705.472	205.48
705.661	152.23
705.849	209.58
706.037	209.58
706.226	223.91
706.414	215.72
706.602	154.28
706.79	166.57
706.979	133.8
707.167	146.09
707.355	70.31
707.543	195.24
707.731	213.67
707.919	170.66
708.107	117.42
708.296	125.61
708.484	98.99
708.672	199.34
708.86	115.37
709.048	127.66
709.236	41.64
709.424	191.14
709.612	211.62
709.8	115.37
709.988	180.9
710.176	199.34
710.364	221.86
710.551	146.09
710.739	191.14
710.927	105.13
711.115	271.01
711.303	264.87
711.491	271.01
711.679	127.66
711.866	209.58
712.054	113.32
712.242	240.29
712.43	211.62
712.617	111.27
712.805	221.86
712.993	166.57
713.181	101.03
713.368	195.24
713.556	168.62
713.744	129.7
713.931	322.21
714.119	127.66
714.306	141.99
714.494	127.66
714.682	230.06
714.869	37.55
715.057	223.91
715.244	47.79
715.432	201.38
715.619	203.43
715.807	258.73
715.994	144.04
716.182	123.56
716.369	146.09
716.556	232.1
716.744	113.32
716.931	78.51
717.119	203.43
717.306	195.24
717.493	213.67
717.681	139.94
717.868	146.09
718.055	244.39
718.242	207.53
718.43	148.14
718.617	244.39
718.804	170.66
718.991	238.25
719.179	322.21
719.366	254.63
719.553	234.15
719.74	158.38
719.927	131.75
720.114	346.79
720.301	148.14
720.488	154.28
720.676	144.04
720.863	295.59
721.05	228.01
721.237	215.72
721.424	254.63
721.611	197.29
721.798	170.66
721.985	139.94
722.172	103.08
722.358	174.76
722.545	256.68
722.732	223.91
722.919	256.68
723.106	238.25
723.293	103.08
723.48	238.25
723.667	221.86
723.853	322.21
724.04	332.45
724.227	295.59
724.414	223.91
724.6	324.26
724.787	299.69
724.974	305.83
725.161	228.01
725.347	152.23
725.534	168.62
725.72	211.62
725.907	238.25
726.094	234.15
726.28	176.81
726.467	223.91
726.653	148.14
726.84	291.49
727.027	326.31
727.213	213.67
727.4	236.2
727.586	236.2
727.773	260.77
727.959	244.39
728.145	215.72
728.332	295.59
728.518	219.82
728.705	299.69
728.891	217.77
729.077	195.24
729.264	185
729.45	260.77
729.636	320.17
729.823	287.4
730.009	268.97
730.195	365.22
730.382	273.06
730.568	168.62
730.754	254.63
730.94	285.35
731.126	314.02
731.313	254.63
731.499	244.39
731.685	371.37
731.871	293.54
732.057	281.25
732.243	330.41
732.429	277.16
732.615	441
732.801	242.34
732.987	326.31
733.173	314.02
733.359	246.44
733.545	350.89
733.731	248.49
733.917	381.6
734.103	334.5
734.289	256.68
734.475	234.15
734.661	418.47
734.847	324.26
735.033	266.92
735.219	373.41
735.404	254.63
735.59	260.77
735.776	316.07
735.962	307.88
736.148	326.31
736.333	338.6
736.519	324.26
736.705	266.92
736.89	279.21
737.076	348.84
737.262	187.05
737.447	201.38
737.633	238.25
737.819	397.99
738.004	256.68
738.19	350.89
738.375	279.21
738.561	332.45
738.747	381.6
738.932	178.86
739.118	469.67
739.303	371.37
739.489	297.64
739.674	357.03
739.859	258.73
740.045	387.75
740.23	283.3
740.416	168.62
740.601	291.49
740.786	264.87
740.972	279.21
741.157	299.69
741.342	250.53
741.528	176.81
741.713	404.13
741.898	287.4
742.084	260.77
742.269	352.93
742.454	375.46
742.639	307.88
742.824	316.07
743.01	436.9
743.195	535.2
743.38	336.55
743.565	326.31
743.75	311.97
743.935	397.99
744.12	428.71
744.305	279.21
744.49	223.91
744.675	268.97
744.86	207.53
745.045	328.36
745.23	281.25
745.415	344.74
745.6	379.56
745.785	289.45
745.97	350.89
746.155	338.6
746.34	373.41
746.525	340.65
746.71	400.04
746.895	256.68
747.079	164.52
747.264	248.49
747.449	338.6
747.634	369.32
747.819	361.13
748.003	303.78
748.188	209.58
748.373	352.93
748.557	273.06
748.742	185
748.927	311.97
749.111	215.72
749.296	332.45
749.481	340.65
749.665	285.35
749.85	232.1
750.034	359.08
750.219	248.49
750.404	242.34
750.588	242.34
750.773	180.9
750.957	299.69
751.141	172.71
751.326	307.88
751.51	174.76
751.695	211.62
751.879	217.77
752.064	408.23
752.248	209.58
752.432	303.78
752.617	248.49
752.801	320.17
752.985	287.4
753.17	246.44
753.354	283.3
753.538	197.29
753.722	225.96
753.907	246.44
754.091	236.2
754.275	258.73
754.459	66.22
754.643	279.21
754.828	203.43
755.012	221.86
755.196	125.61
755.38	307.88
755.564	203.43
755.748	178.86
755.932	287.4
756.116	189.1
756.3	275.11
756.484	158.38
756.668	205.48
756.852	127.66
757.036	131.75
757.22	264.87
757.404	180.9
757.588	174.76
757.772	248.49
757.956	150.18
758.14	230.06
758.323	88.75
758.507	279.21
758.691	191.14
758.875	314.02
759.059	268.97
759.242	156.33
759.426	109.22
759.61	207.53
759.794	94.89
759.977	234.15
760.161	381.6
760.345	201.38
760.528	219.82
760.712	172.71
760.895	234.15
761.079	127.66
761.263	94.89
761.446	158.38
761.63	193.19
761.813	285.35
761.997	92.84
762.18	115.37
762.364	254.63
762.547	19.11
762.731	51.88
762.914	144.04
763.098	168.62
763.281	98.99
763.464	49.83
763.648	209.58
763.831	201.38
764.015	199.34
764.198	191.14
764.381	115.37
764.564	53.93
764.748	189.1
764.931	193.19
765.114	125.61
765.297	152.23
765.481	-23.89
765.664	121.51
765.847	131.75
766.03	250.53
766.213	135.85
766.397	62.12
766.58	25.26
766.763	174.76
766.946	103.08
767.129	88.75
767.312	109.22
767.495	133.8
767.678	66.22
767.861	129.7
768.044	123.56
768.227	94.89
768.41	72.36
768.593	158.38
768.776	144.04
768.959	53.93
769.142	244.39
769.324	64.17
769.507	162.47
769.69	88.75
769.873	70.31
770.056	262.82
770.239	92.84
770.421	219.82
770.604	162.47
770.787	131.75
770.97	185
771.152	-5.46
771.335	119.46
771.518	51.88
771.7	285.35
771.883	199.34
772.066	58.03
772.248	144.04
772.431	101.03
772.613	150.18
772.796	70.31
772.978	-5.46
773.161	258.73
773.343	35.5
773.526	-13.65
773.708	43.69
773.891	-62.8
774.073	25.26
774.256	64.17
774.438	193.19
774.621	37.55
774.803	90.79
774.985	49.83
775.168	8.87
775.35	51.88
775.532	205.48
775.715	17.07
775.897	131.75
776.079	80.55
776.261	103.08
776.444	70.31
776.626	127.66
776.808	109.22
776.99	-21.85
777.173	101.03
777.355	64.17
777.537	82.6
777.719	70.31
777.901	101.03
778.083	49.83
778.265	-9.56
778.447	174.76
778.629	15.02
778.811	94.89
778.993	148.14
779.175	109.22
779.357	62.12
779.539	-17.75
779.721	86.7
779.903	123.56
780.085	41.64
780.267	70.31
780.449	72.36
780.631	172.71
780.812	150.18
780.994	82.6
781.176	170.66
781.358	-3.41
781.54	37.55
781.721	62.12
781.903	94.89
782.085	35.5
782.267	162.47
782.448	-25.94
782.63	90.79
782.812	43.69
782.993	60.07
783.175	137.9
783.357	33.45
783.538	133.8
783.72	-23.89
783.901	62.12
784.083	78.51
784.264	68.27
784.446	23.21
784.627	-11.61
784.809	86.7
784.99	70.31
785.172	68.27
785.353	72.36
785.535	41.64
785.716	66.22
785.897	4.78
786.079	12.97
786.26	88.75
786.441	90.79
786.623	-99.67
786.804	21.16
786.985	103.08
787.167	78.51
787.348	-54.61
787.529	68.27
787.71	125.61
787.891	74.41
788.073	25.26
788.254	-21.85
788.435	223.91
788.616	31.4
788.797	-103.76
788.978	80.55
789.159	-64.85
789.34	41.64
789.522	98.99
789.703	51.88
789.884	98.99
790.065	12.97
790.246	232.1
790.427	-66.9
790.607	105.13
790.788	94.89
790.969	17.07
791.15	66.22
791.331	-23.89
791.512	29.35
791.693	-25.94
791.874	94.89
792.054	185
792.235	70.31
792.416	25.26
792.597	-30.04
792.778	105.13
792.958	72.36
793.139	29.35
793.32	45.74
793.5	-56.66
793.681	203.43
793.862	55.98
794.042	43.69
794.223	-23.89
794.404	70.31
794.584	-93.52
794.765	33.45
794.945	47.79
795.126	33.45
795.306	117.42
795.487	58.03
795.667	74.41
795.848	94.89
796.028	-32.08
796.209	17.07
796.389	66.22
796.57	45.74
796.75	4.78
796.93	107.18
797.111	15.02
797.291	109.22
797.471	60.07
797.652	39.59
797.832	-105.81
798.012	131.75
798.192	-62.8
798.373	-60.76
798.553	8.87
798.733	84.65
798.913	-17.75
799.093	-23.89
799.274	80.55
799.454	80.55
799.634	21.16
799.814	101.03
799.994	12.97
800.174	113.32
800.354	12.97
800.534	-83.28
800.714	78.51
800.894	-52.56
801.074	-118.1
801.254	12.97
801.434	107.18
801.614	39.59
801.794	-38.23
801.974	1917.58
802.154	-77.14
802.334	168.62
802.514	-46.42
802.693	53.93
802.873	-27.99
803.053	129.7
803.233	76.46
803.413	-7.51
803.592	27.31
803.772	-5.46
803.952	78.51
804.131	-89.43
804.311	148.14
804.491	107.18
804.67	-34.13
804.85	-66.9
805.03	25.26
805.209	141.99
805.389	72.36
805.568	-15.7
805.748	-5.46
805.928	51.88
806.107	45.74
806.287	6.83
806.466	98.99
806.646	-52.56
806.825	88.75
807.004	-40.28
807.184	29.35
807.363	98.99
807.543	119.46
807.722	-36.18
807.901	119.46
808.081	78.51
808.26	-21.85
808.439	29.35
808.619	49.83
808.798	-83.28
808.977	2.73
809.156	123.56
809.336	-5.46
809.515	74.41
809.694	-40.28
809.873	-32.08
810.052	64.17
810.231	119.46
810.411	27.31
810.59	86.7
810.769	62.12
810.948	70.31
811.127	-25.94
811.306	12.97
811.485	23.21
811.664	148.14
811.843	-21.85
812.022	2.73
812.201	17.07
812.38	27.31
812.559	-64.85
812.737	15.02
812.916	-95.57
813.095	35.5
813.274	12.97
813.453	-48.47
813.632	84.65
813.811	84.65
813.989	-44.37
814.168	-77.14
814.347	-130.39
814.526	-17.75
814.704	113.32
814.883	98.99
815.062	6.83
815.24	41.64
815.419	0.68
815.598	60.07
815.776	-116.05
815.955	-3.41
816.133	-91.48
816.312	74.41
816.49	-36.18
816.669	-9.56
816.847	-3.41
817.026	70.31
817.204	0.68
817.383	-1.37
817.561	-21.85
817.74	62.12
817.918	-19.8
818.097	-44.37
818.275	35.5
818.453	33.45
818.632	27.31
818.81	-34.13
818.988	-30.04
819.167	-1.37
819.345	2.73
819.523	-83.28
819.701	25.26
819.879	15.02
820.058	70.31
820.236	58.03
820.414	-25.94
820.592	-38.23
820.77	19.11
820.948	-46.42
821.127	-83.28
821.305	-25.94
821.483	-23.89
821.661	72.36
821.839	27.31
822.017	-56.66
822.195	12.97
822.373	29.35
822.551	21.16
822.729	-11.61
822.907	-21.85
823.085	86.7
823.262	2.73
823.44	-116.05
823.618	29.35
823.796	-1.37
823.974	-11.61
824.152	-36.18
824.329	-7.51
824.507	-3.41
824.685	39.59
824.863	41.64
825.04	6.83
825.218	88.75
825.396	12.97
825.574	27.31
825.751	19.11
825.929	2.73
826.107	-15.7
826.284	33.45
826.462	-7.51
826.639	23.21
826.817	-89.43
826.994	33.45
827.172	25.26
827.349	66.22
827.527	25.26
827.704	74.41
827.882	80.55
828.059	27.31
828.237	-5.46
828.414	66.22
828.591	-38.23
828.769	-11.61
828.946	-114
829.124	33.45
829.301	53.93
829.478	-15.7
829.655	-58.71
829.833	35.5
830.01	-187.73
830.187	31.4
830.364	21.16
830.542	-3.41
830.719	84.65
830.896	4.78
831.073	17.07
831.25	21.16
831.427	27.31
831.604	10.92
831.782	-83.28
831.959	43.69
832.136	-9.56
832.313	25.26
832.49	23.21
832.667	-46.42
832.844	-62.8
833.021	21.16
833.198	-17.75
833.374	15.02
833.551	62.12
833.728	-7.51
833.905	47.79
834.082	-73.04
834.259	-40.28
834.436	139.94
834.612	-44.37
834.789	86.7
834.966	-34.13
835.143	-58.71
835.319	-1.37
835.496	-40.28
835.673	37.55
835.85	123.56
836.026	49.83
836.203	-17.75
836.38	-52.56
836.556	-83.28
836.733	-97.62
836.909	133.8
837.086	-13.65
837.262	-73.04
837.439	-83.28
837.616	-1.37
837.792	27.31
837.968	-1.37
838.145	-126.29
838.321	15.02
838.498	84.65
838.674	146.09
838.851	37.55
839.027	-128.34
839.203	-15.7
839.38	53.93
839.556	-5.46
839.732	113.32
839.909	27.31
840.085	58.03
840.261	-120.15
840.437	0.68
840.614	21.16
840.79	25.26
840.966	135.85
841.142	-1.37
841.318	-73.04
841.494	12.97
841.671	8.87
841.847	19.11
842.023	-58.71
842.199	82.6
842.375	82.6
842.551	-101.72
842.727	-73.04
842.903	103.08
843.079	-25.94
843.255	119.46
843.431	-7.51
843.607	6.83
843.783	-165.2
843.959	39.59
844.134	-46.42
844.31	152.23
844.486	-7.51
844.662	-71
844.838	45.74
845.013	2.73
845.189	29.35
845.365	41.64
845.541	-23.89
845.716	-27.99
845.892	51.88
846.068	66.22
846.244	6.83
846.419	86.7
846.595	-97.62
846.77	-50.52
846.946	41.64
847.122	-68.95
847.297	39.59
847.473	58.03
847.648	-54.61
847.824	45.74
847.999	-105.81
848.175	-42.32
848.35	-11.61
848.526	37.55
848.701	-9.56
848.876	64.17
849.052	94.89
849.227	-25.94
849.403	-54.61
849.578	68.27
849.753	29.35
849.929	12.97
850.104	2.73
850.279	-15.7
850.454	29.35
850.63	-40.28
850.805	29.35
850.98	86.7
851.155	-23.89
851.33	2.73
851.505	-19.8
851.681	76.46
851.856	-34.13
852.031	-17.75
852.206	-21.85
852.381	-58.71
852.556	-58.71
852.731	-13.65
852.906	37.55
853.081	49.83
853.256	86.7
853.431	-7.51
853.606	-58.71
853.781	-48.47
853.956	-118.1
854.131	23.21
854.305	-91.48
854.48	-25.94
854.655	-134.48
854.83	-58.71
855.005	37.55
855.18	-52.56
855.354	-50.52
855.529	76.46
855.704	15.02
855.879	27.31
856.053	-25.94
856.228	113.32
856.403	-93.52
856.577	2.73
856.752	-64.85
856.926	-36.18
857.101	-64.85
857.276	-150.87
857.45	8.87
857.625	47.79
857.799	35.5
857.974	-38.23
858.148	-116.05
858.323	0.68
858.497	-27.99
858.672	-40.28
858.846	-19.8
859.02	109.22
859.195	-48.47
859.369	-21.85
859.543	72.36
859.718	-3.41
859.892	35.5
860.066	17.07
860.241	-62.8
860.415	-116.05
860.589	-89.43
860.763	-64.85
860.938	-19.8
861.112	119.46
861.286	-44.37
861.46	29.35
861.634	-13.65
861.808	29.35
861.982	-109.91
862.157	-111.96
862.331	-91.48
862.505	-81.24
862.679	-154.96
862.853	-60.76
863.027	-9.56
863.201	68.27
863.375	-66.9
863.549	31.4
863.722	-60.76
863.896	133.8
864.07	-19.8
864.244	-58.71
864.418	39.59
864.592	41.64
864.766	-13.65
864.939	-27.99
865.113	-50.52
865.287	101.03
865.461	-13.65
865.634	70.31
865.808	27.31
865.982	-23.89
866.156	-27.99
866.329	-89.43
866.503	15.02
866.676	58.03
866.85	55.98
867.024	-25.94
867.197	31.4
867.371	121.51
867.544	-40.28
867.718	-140.63
867.891	-1.37
868.065	-68.95
868.238	66.22
868.412	107.18
868.585	92.84
868.759	-32.08
868.932	-11.61
869.105	-103.76
869.279	25.26
869.452	-9.56
869.625	53.93
869.799	-25.94
869.972	-11.61
870.145	-46.42
870.319	107.18
870.492	-73.04
870.665	76.46
870.838	-60.76
871.011	-148.82
871.185	-101.72
871.358	-19.8
871.531	-23.89
871.704	-30.04
871.877	-23.89
872.05	-58.71
872.223	-52.56
872.396	60.07
872.569	43.69
872.742	-66.9
872.915	47.79
873.088	19.11
873.261	-1.37
873.434	68.27
873.607	-109.91
873.78	103.08
873.953	-77.14
874.126	49.83
874.299	4.78
874.471	-64.85
874.644	-40.28
874.817	74.41
874.99	156.33
875.163	-71
875.335	12.97
875.508	-17.75
875.681	90.79
875.853	-1.37
876.026	-21.85
876.199	23.21
876.371	15.02
876.544	-60.76
876.717	-17.75
876.889	-25.94
877.062	90.79
877.234	-15.7
877.407	-46.42
877.579	29.35
877.752	-21.85
877.924	27.31
878.097	41.64
878.269	-27.99
878.442	-64.85
878.614	-36.18
878.786	31.4
878.959	-19.8
879.131	6.83
879.303	-77.14
879.476	27.31
879.648	55.98
879.82	-38.23
879.993	0.68
880.165	-60.76
880.337	-95.57
880.509	-68.95
880.681	-154.96
880.854	8.87
881.026	21.16
881.198	144.04
881.37	27.31
881.542	66.22
881.714	2.73
881.886	-19.8
882.058	66.22
882.23	-5.46
882.402	-40.28
882.574	2.73
882.746	-15.7
882.918	144.04
883.09	74.41
883.262	4.78
883.434	-7.51
883.606	-136.53
883.778	-40.28
883.95	90.79
884.122	-44.37
884.293	43.69
884.465	39.59
884.637	-13.65
884.809	-23.89
884.98	-17.75
885.152	-23.89
885.324	21.16
885.496	-93.52
885.667	-54.61
885.839	19.11
886.011	47.79
886.182	70.31
886.354	64.17
886.525	-40.28
886.697	-71
886.869	-138.58
887.04	10.92
887.212	103.08
887.383	182.95
887.555	-34.13
887.726	-42.32
887.897	-40.28
888.069	-17.75
888.24	39.59
888.412	15.02
888.583	33.45
888.754	-42.32
888.926	-128.34
889.097	-44.37
889.268	-95.57
889.44	74.41
889.611	-27.99
889.782	-21.85
889.953	-38.23
890.125	62.12
890.296	-46.42
890.467	-107.86
890.638	-64.85
890.809	-25.94
890.98	-101.72
891.151	12.97
891.323	53.93
891.494	68.27
891.665	-23.89
891.836	-5.46
892.007	-23.89
892.178	-7.51
892.349	-15.7
892.52	-36.18
892.691	84.65
892.862	29.35
893.032	-130.39
893.203	-85.33
893.374	12.97
893.545	25.26
893.716	-46.42
893.887	-30.04
894.057	-7.51
894.228	-58.71
894.399	-73.04
894.57	4.78
894.74	-34.13
894.911	-73.04
895.082	4.78
895.253	-52.56
895.423	-36.18
895.594	41.64
895.764	-15.7
895.935	-111.96
896.106	25.26
896.276	-64.85
896.447	33.45
896.617	-32.08
896.788	-60.76
896.958	-30.04
897.129	-122.2
897.299	-46.42
897.47	119.46
897.64	-11.61
897.81	-56.66
897.981	-68.95
898.151	-101.72
898.322	23.21
898.492	53.93
898.662	-111.96
898.832	-23.89
899.003	-25.94
899.173	78.51
899.343	-103.76
899.513	-99.67
