Data from USB4F104151__117__10-36-33-821.txt Node

Date: Wed Feb 26 10:36:33 EST 2025
User: louis
Spectrometer: USB4F10415
Trigger mode: 4
Integration Time (sec): 1.000000E-1
Scans to average: 1
Electric dark correction enabled: true
Nonlinearity correction enabled: false
Boxcar width: 0
XAxis mode: Wavelengths
Number of Pixels in Spectrum: 3648
>>>>>Begin Spectral Data<<<<<
178.204	-443.04
178.424	-443.04
178.644	-443.04
178.864	-410.28
179.084	-400.04
179.304	1.37
179.524	-33.45
179.744	36.18
179.964	-31.4
180.184	30.04
180.404	38.23
180.624	-12.97
180.844	-80.55
181.064	-119.46
181.283	54.61
181.503	21.85
181.723	95.57
181.943	-12.97
182.163	175.44
182.383	-17.07
182.602	66.9
182.822	214.35
183.042	85.33
183.262	21.85
183.482	-0.68
183.701	140.63
183.921	75.09
184.141	-35.5
184.361	187.73
184.58	52.56
184.8	85.33
185.02	46.42
185.239	120.15
185.459	99.67
185.679	93.52
185.898	-33.45
186.118	50.52
186.338	60.76
186.557	81.24
186.777	-55.98
186.997	56.66
187.216	128.34
187.436	206.16
187.655	54.61
187.875	142.68
188.095	34.13
188.314	122.2
188.534	161.11
188.753	38.23
188.973	93.52
189.192	232.79
189.412	62.8
189.631	85.33
189.851	136.53
190.07	99.67
190.29	-37.55
190.509	-2.73
190.729	68.95
190.948	124.24
191.168	232.79
191.387	40.28
191.607	7.51
191.826	144.72
192.045	58.71
192.265	62.8
192.484	109.91
192.704	111.96
192.923	-2.73
193.142	173.39
193.362	48.47
193.581	236.88
193.8	101.72
194.02	77.14
194.239	68.95
194.458	126.29
194.678	-58.03
194.897	46.42
195.116	40.28
195.335	73.04
195.555	103.76
195.774	23.89
195.993	97.62
196.212	99.67
196.432	5.46
196.651	46.42
196.87	136.53
197.089	296.27
197.308	62.8
197.528	116.05
197.747	-58.03
197.966	27.99
198.185	179.54
198.404	-23.21
198.623	77.14
198.842	169.3
199.062	103.76
199.281	161.11
199.5	25.94
199.719	60.76
199.938	136.53
200.157	81.24
200.376	148.82
200.595	93.52
200.814	73.04
201.033	-27.31
201.252	200.02
201.471	62.8
201.69	136.53
201.909	120.15
202.128	93.52
202.347	107.86
202.566	71
202.785	-33.45
203.004	5.46
203.223	206.16
203.442	-25.26
203.661	44.37
203.879	116.05
204.098	109.91
204.317	64.85
204.536	46.42
204.755	77.14
204.974	66.9
205.193	66.9
205.411	140.63
205.63	93.52
205.849	52.56
206.068	54.61
206.287	-0.68
206.505	66.9
206.724	-33.45
206.943	114
207.162	17.75
207.381	130.39
207.599	48.47
207.818	50.52
208.037	-23.21
208.255	30.04
208.474	71
208.693	40.28
208.911	-47.79
209.13	71
209.349	173.39
209.567	97.62
209.786	83.28
210.005	126.29
210.223	13.65
210.442	-25.26
210.661	109.91
210.879	73.04
211.098	32.08
211.316	42.32
211.535	101.72
211.753	99.67
211.972	58.71
212.191	-15.02
212.409	68.95
212.628	107.86
212.846	-21.16
213.065	66.9
213.283	85.33
213.502	21.85
213.72	44.37
213.938	66.9
214.157	-2.73
214.375	159.06
214.594	56.66
214.812	130.39
215.031	17.75
215.249	50.52
215.467	15.7
215.686	27.99
215.904	68.95
216.122	46.42
216.341	165.2
216.559	97.62
216.778	103.76
216.996	152.91
217.214	-94.89
217.432	-12.97
217.651	30.04
217.869	60.76
218.087	30.04
218.306	17.75
218.524	130.39
218.742	62.8
218.96	56.66
219.179	93.52
219.397	48.47
219.615	290.13
219.833	118.1
220.051	-27.31
220.27	83.28
220.488	130.39
220.706	79.19
220.924	79.19
221.142	42.32
221.36	79.19
221.578	58.71
221.796	68.95
222.015	75.09
222.233	48.47
222.451	159.06
222.669	-39.59
222.887	81.24
223.105	-90.79
223.323	13.65
223.541	62.8
223.759	105.81
223.977	60.76
224.195	187.73
224.413	1.37
224.631	109.91
224.849	118.1
225.067	218.45
225.285	19.8
225.503	-8.87
225.721	-109.23
225.939	34.13
226.157	38.23
226.375	193.87
226.592	50.52
226.81	109.91
227.028	97.62
227.246	157.01
227.464	73.04
227.682	177.49
227.9	103.76
228.117	71
228.335	68.95
228.553	109.91
228.771	44.37
228.989	44.37
229.206	140.63
229.424	-41.64
229.642	9.56
229.86	3.41
230.077	179.54
230.295	17.75
230.513	99.67
230.731	44.37
230.948	165.2
231.166	177.49
231.384	25.94
231.601	19.8
231.819	140.63
232.037	-17.07
232.254	3.41
232.472	48.47
232.689	-10.92
232.907	136.53
233.125	21.85
233.342	-23.21
233.56	66.9
233.777	97.62
233.995	25.94
234.213	101.72
234.43	97.62
234.648	-8.87
234.865	44.37
235.083	60.76
235.3	-4.78
235.518	167.25
235.735	195.92
235.953	103.76
236.17	21.85
236.388	52.56
236.605	107.86
236.822	81.24
237.04	120.15
237.257	73.04
237.475	-68.27
237.692	103.76
237.909	97.62
238.127	13.65
238.344	97.62
238.562	7.51
238.779	-19.11
238.996	13.65
239.214	114
239.431	23.89
239.648	87.38
239.865	128.34
240.083	116.05
240.3	64.85
240.517	95.57
240.735	79.19
240.952	148.82
241.169	124.24
241.386	48.47
241.603	23.89
241.821	-23.21
242.038	-10.92
242.255	120.15
242.472	-37.55
242.689	54.61
242.907	144.72
243.124	150.87
243.341	44.37
243.558	5.46
243.775	-80.55
243.992	-33.45
244.209	62.8
244.426	116.05
244.643	95.57
244.86	71
245.078	68.95
245.295	85.33
245.512	42.32
245.729	36.18
245.946	142.68
246.163	42.32
246.38	3.41
246.597	87.38
246.814	48.47
247.031	19.8
247.248	58.71
247.464	60.76
247.681	3.41
247.898	48.47
248.115	126.29
248.332	-37.55
248.549	144.72
248.766	136.53
248.983	34.13
249.2	13.65
249.417	107.86
249.633	-6.83
249.85	103.76
250.067	60.76
250.284	79.19
250.501	66.9
250.717	126.29
250.934	-39.59
251.151	54.61
251.368	9.56
251.585	66.9
251.801	95.57
252.018	3.41
252.235	109.91
252.451	-6.83
252.668	62.8
252.885	138.58
253.102	46.42
253.318	120.15
253.535	3.41
253.752	36.18
253.968	66.9
254.185	30.04
254.401	95.57
254.618	34.13
254.835	-12.97
255.051	189.78
255.268	40.28
255.484	50.52
255.701	50.52
255.917	144.72
256.134	5.46
256.351	85.33
256.567	-12.97
256.784	101.72
257	-53.93
257.217	52.56
257.433	124.24
257.65	91.48
257.866	103.76
258.082	7.51
258.299	5.46
258.515	-2.73
258.732	5.46
258.948	36.18
259.165	140.63
259.381	-6.83
259.597	75.09
259.814	97.62
260.03	38.23
260.246	40.28
260.463	89.43
260.679	161.11
260.895	17.75
261.112	25.94
261.328	85.33
261.544	66.9
261.761	140.63
261.977	-2.73
262.193	-4.78
262.409	126.29
262.626	11.61
262.842	48.47
263.058	1.37
263.274	159.06
263.49	93.52
263.707	124.24
263.923	23.89
264.139	-35.5
264.355	52.56
264.571	181.59
264.787	136.53
265.004	169.3
265.22	79.19
265.436	-21.16
265.652	101.72
265.868	40.28
266.084	-37.55
266.3	50.52
266.516	1.37
266.732	120.15
266.948	105.81
267.164	36.18
267.38	95.57
267.596	93.52
267.812	144.72
268.028	46.42
268.244	101.72
268.46	99.67
268.676	-15.02
268.892	81.24
269.108	-45.74
269.324	3.41
269.54	17.75
269.756	58.71
269.972	34.13
270.188	75.09
270.403	54.61
270.619	-2.73
270.835	60.76
271.051	52.56
271.267	54.61
271.483	7.51
271.698	130.39
271.914	85.33
272.13	62.8
272.346	-10.92
272.562	40.28
272.777	202.07
272.993	5.46
273.209	-25.26
273.425	109.91
273.64	-84.65
273.856	177.49
274.072	42.32
274.287	48.47
274.503	152.91
274.719	68.95
274.934	-4.78
275.15	-8.87
275.366	52.56
275.581	-43.69
275.797	-23.21
276.012	140.63
276.228	13.65
276.444	68.95
276.659	179.54
276.875	44.37
277.09	73.04
277.306	-8.87
277.521	36.18
277.737	54.61
277.952	95.57
278.168	142.68
278.383	89.43
278.599	56.66
278.814	114
279.03	111.96
279.245	101.72
279.461	48.47
279.676	68.95
279.892	-4.78
280.107	9.56
280.322	58.71
280.538	34.13
280.753	-94.89
280.969	62.8
281.184	91.48
281.399	193.87
281.615	56.66
281.83	75.09
282.045	-123.56
282.26	-6.83
282.476	44.37
282.691	146.77
282.906	81.24
283.122	89.43
283.337	68.95
283.552	89.43
283.767	99.67
283.983	107.86
284.198	87.38
284.413	142.68
284.628	-4.78
284.843	68.95
285.058	107.86
285.274	25.94
285.489	-45.74
285.704	62.8
285.919	15.7
286.134	101.72
286.349	111.96
286.564	91.48
286.779	159.06
286.995	71
287.21	-37.55
287.425	40.28
287.64	99.67
287.855	85.33
288.07	-105.13
288.285	161.11
288.5	130.39
288.715	116.05
288.93	34.13
289.145	25.94
289.36	87.38
289.575	1.37
289.79	122.2
290.004	58.71
290.219	73.04
290.434	5.46
290.649	48.47
290.864	58.71
291.079	34.13
291.294	34.13
291.509	79.19
291.724	71
291.938	52.56
292.153	62.8
292.368	9.56
292.583	91.48
292.798	25.94
293.012	107.86
293.227	109.91
293.442	-27.31
293.657	50.52
293.871	175.44
294.086	73.04
294.301	183.63
294.516	15.7
294.73	46.42
294.945	-37.55
295.16	13.65
295.374	73.04
295.589	169.3
295.804	42.32
296.018	101.72
296.233	191.83
296.447	75.09
296.662	-64.17
296.877	191.83
297.091	114
297.306	40.28
297.52	27.99
297.735	99.67
297.949	60.76
298.164	62.8
298.378	167.25
298.593	-23.21
298.807	-15.02
299.022	-0.68
299.236	183.63
299.451	75.09
299.665	128.34
299.88	114
300.094	32.08
300.309	9.56
300.523	87.38
300.737	-2.73
300.952	25.94
301.166	25.94
301.381	44.37
301.595	42.32
301.809	75.09
302.024	-10.92
302.238	-15.02
302.452	212.31
302.667	64.85
302.881	136.53
303.095	165.2
303.309	30.04
303.524	85.33
303.738	-21.16
303.952	34.13
304.166	62.8
304.381	-98.99
304.595	91.48
304.809	1.37
305.023	179.54
305.237	30.04
305.452	1.37
305.666	122.2
305.88	146.77
306.094	238.93
306.308	120.15
306.522	183.63
306.736	19.8
306.95	146.77
307.164	68.95
307.379	50.52
307.593	204.11
307.807	159.06
308.021	46.42
308.235	120.15
308.449	52.56
308.663	68.95
308.877	224.59
309.091	54.61
309.305	154.96
309.519	-4.78
309.733	120.15
309.947	-62.12
310.161	79.19
310.374	146.77
310.588	118.1
310.802	11.61
311.016	46.42
311.23	103.76
311.444	-25.26
311.658	107.86
311.872	103.76
312.085	144.72
312.299	148.82
312.513	142.68
312.727	3.41
312.941	68.95
313.154	87.38
313.368	36.18
313.582	93.52
313.796	64.85
314.009	83.28
314.223	138.58
314.437	111.96
314.651	136.53
314.864	-10.92
315.078	58.71
315.292	-17.07
315.505	30.04
315.719	68.95
315.933	87.38
316.146	13.65
316.36	11.61
316.573	89.43
316.787	173.39
317.001	34.13
317.214	7.51
317.428	97.62
317.641	-80.55
317.855	52.56
318.068	130.39
318.282	132.44
318.495	224.59
318.709	97.62
318.922	32.08
319.136	134.48
319.349	66.9
319.563	5.46
319.776	66.9
319.99	-74.41
320.203	40.28
320.417	71
320.63	142.68
320.843	150.87
321.057	91.48
321.27	25.94
321.483	23.89
321.697	140.63
321.91	66.9
322.124	46.42
322.337	157.01
322.55	11.61
322.763	48.47
322.977	-8.87
323.19	1.37
323.403	107.86
323.617	19.8
323.83	91.48
324.043	62.8
324.256	58.71
324.469	-78.51
324.683	130.39
324.896	66.9
325.109	109.91
325.322	-21.16
325.535	122.2
325.748	136.53
325.962	44.37
326.175	134.48
326.388	36.18
326.601	75.09
326.814	81.24
327.027	46.42
327.24	134.48
327.453	-80.55
327.666	97.62
327.879	132.44
328.092	56.66
328.305	87.38
328.518	-33.45
328.731	19.8
328.944	120.15
329.157	126.29
329.37	-29.35
329.583	212.31
329.796	169.3
330.009	75.09
330.222	132.44
330.435	132.44
330.648	144.72
330.861	56.66
331.073	146.77
331.286	107.86
331.499	64.85
331.712	34.13
331.925	99.67
332.138	62.8
332.35	191.83
332.563	71
332.776	83.28
332.989	25.94
333.202	17.75
333.414	48.47
333.627	7.51
333.84	-6.83
334.053	-27.31
334.265	23.89
334.478	120.15
334.691	21.85
334.903	85.33
335.116	5.46
335.329	40.28
335.541	81.24
335.754	169.3
335.966	19.8
336.179	-33.45
336.392	7.51
336.604	46.42
336.817	136.53
337.029	-27.31
337.242	13.65
337.454	-6.83
337.667	126.29
337.88	128.34
338.092	62.8
338.305	58.71
338.517	19.8
338.729	62.8
338.942	157.01
339.154	-82.6
339.367	79.19
339.579	140.63
339.792	30.04
340.004	152.91
340.217	-10.92
340.429	36.18
340.641	-10.92
340.854	23.89
341.066	30.04
341.278	95.57
341.491	181.59
341.703	11.61
341.915	19.8
342.128	111.96
342.34	42.32
342.552	-17.07
342.764	-17.07
342.977	3.41
343.189	71
343.401	38.23
343.613	-21.16
343.826	50.52
344.038	-6.83
344.25	97.62
344.462	56.66
344.674	71
344.886	77.14
345.099	95.57
345.311	50.52
345.523	30.04
345.735	-55.98
345.947	54.61
346.159	77.14
346.371	36.18
346.583	-15.02
346.795	240.98
347.007	71
347.219	62.8
347.431	58.71
347.643	206.16
347.855	64.85
348.067	177.49
348.279	1.37
348.491	75.09
348.703	87.38
348.915	66.9
349.127	89.43
349.339	114
349.551	30.04
349.763	154.96
349.975	52.56
350.187	83.28
350.399	163.15
350.61	52.56
350.822	-37.55
351.034	54.61
351.246	5.46
351.458	157.01
351.669	111.96
351.881	118.1
352.093	146.77
352.305	97.62
352.517	27.99
352.728	148.82
352.94	40.28
353.152	89.43
353.363	38.23
353.575	87.38
353.787	187.73
353.999	87.38
354.21	185.68
354.422	30.04
354.633	13.65
354.845	52.56
355.057	56.66
355.268	87.38
355.48	103.76
355.692	-2.73
355.903	54.61
356.115	-12.97
356.326	-68.27
356.538	136.53
356.749	79.19
356.961	138.58
357.172	81.24
357.384	-19.11
357.595	202.07
357.807	46.42
358.018	-19.11
358.23	62.8
358.441	148.82
358.653	73.04
358.864	79.19
359.075	50.52
359.287	50.52
359.498	75.09
359.709	136.53
359.921	40.28
360.132	132.44
360.344	54.61
360.555	-33.45
360.766	79.19
360.977	91.48
361.189	118.1
361.4	50.52
361.611	68.95
361.823	118.1
362.034	136.53
362.245	19.8
362.456	62.8
362.667	99.67
362.879	-101.03
363.09	68.95
363.301	71
363.512	7.51
363.723	21.85
363.935	38.23
364.146	159.06
364.357	79.19
364.568	75.09
364.779	-15.02
364.99	234.83
365.201	-8.87
365.412	189.78
365.623	-6.83
365.834	169.3
366.045	71
366.256	118.1
366.467	87.38
366.678	-27.31
366.889	138.58
367.1	58.71
367.311	111.96
367.522	-23.21
367.733	132.44
367.944	73.04
368.155	-25.26
368.366	79.19
368.577	103.76
368.788	138.58
368.999	-10.92
369.209	60.76
369.42	200.02
369.631	212.31
369.842	71
370.053	5.46
370.264	138.58
370.474	-31.4
370.685	75.09
370.896	71
371.107	161.11
371.317	107.86
371.528	118.1
371.739	40.28
371.95	97.62
372.16	79.19
372.371	-107.18
372.582	-31.4
372.792	38.23
373.003	27.99
373.214	81.24
373.424	95.57
373.635	-15.02
373.846	130.39
374.056	103.76
374.267	83.28
374.477	58.71
374.688	48.47
374.898	105.81
375.109	81.24
375.319	25.94
375.53	159.06
375.74	87.38
375.951	11.61
376.161	66.9
376.372	103.76
376.582	48.47
376.793	124.24
377.003	1.37
377.214	99.67
377.424	138.58
377.635	-2.73
377.845	36.18
378.055	118.1
378.266	-43.69
378.476	-0.68
378.686	91.48
378.897	-21.16
379.107	138.58
379.317	44.37
379.528	95.57
379.738	175.44
379.948	-33.45
380.158	130.39
380.369	146.77
380.579	120.15
380.789	40.28
380.999	136.53
381.21	134.48
381.42	173.39
381.63	58.71
381.84	148.82
382.05	54.61
382.261	58.71
382.471	159.06
382.681	46.42
382.891	175.44
383.101	118.1
383.311	-82.6
383.521	36.18
383.731	97.62
383.941	150.87
384.151	62.8
384.361	3.41
384.571	71
384.781	36.18
384.991	247.12
385.201	238.93
385.411	202.07
385.621	95.57
385.831	103.76
386.041	11.61
386.251	95.57
386.461	167.25
386.671	77.14
386.881	103.76
387.091	118.1
387.301	111.96
387.511	83.28
387.72	120.15
387.93	99.67
388.14	-109.23
388.35	21.85
388.56	152.91
388.769	118.1
388.979	87.38
389.189	27.99
389.399	11.61
389.609	91.48
389.818	132.44
390.028	95.57
390.238	150.87
390.447	-6.83
390.657	97.62
390.867	50.52
391.076	-21.16
391.286	40.28
391.496	60.76
391.705	38.23
391.915	134.48
392.125	109.91
392.334	44.37
392.544	208.21
392.753	81.24
392.963	21.85
393.172	3.41
393.382	40.28
393.591	222.55
393.801	15.7
394.01	189.78
394.22	66.9
394.429	11.61
394.639	60.76
394.848	134.48
395.058	32.08
395.267	48.47
395.477	154.96
395.686	62.8
395.895	187.73
396.105	173.39
396.314	128.34
396.524	25.94
396.733	40.28
396.942	81.24
397.152	85.33
397.361	79.19
397.57	85.33
397.78	62.8
397.989	91.48
398.198	154.96
398.407	95.57
398.617	97.62
398.826	107.86
399.035	109.91
399.244	177.49
399.453	64.85
399.663	66.9
399.872	124.24
400.081	9.56
400.29	144.72
400.499	-15.02
400.708	136.53
400.917	116.05
401.127	13.65
401.336	48.47
401.545	175.44
401.754	44.37
401.963	99.67
402.172	-17.07
402.381	-55.98
402.59	124.24
402.799	48.47
403.008	95.57
403.217	-45.74
403.426	62.8
403.635	-10.92
403.844	3.41
404.053	75.09
404.262	3.41
404.471	152.91
404.68	77.14
404.888	-33.45
405.097	17.75
405.306	32.08
405.515	183.63
405.724	9.56
405.933	120.15
406.142	97.62
406.35	128.34
406.559	48.47
406.768	136.53
406.977	224.59
407.185	50.52
407.394	89.43
407.603	60.76
407.812	120.15
408.02	195.92
408.229	81.24
408.438	66.9
408.646	-21.16
408.855	48.47
409.064	62.8
409.272	15.7
409.481	216.4
409.69	19.8
409.898	-29.35
410.107	93.52
410.315	83.28
410.524	30.04
410.733	79.19
410.941	42.32
411.15	132.44
411.358	148.82
411.567	144.72
411.775	91.48
411.984	85.33
412.192	134.48
412.401	44.37
412.609	132.44
412.818	140.63
413.026	132.44
413.234	54.61
413.443	3.41
413.651	-15.02
413.86	73.04
414.068	148.82
414.276	214.35
414.485	44.37
414.693	179.54
414.901	179.54
415.11	54.61
415.318	103.76
415.526	40.28
415.734	99.67
415.943	9.56
416.151	167.25
416.359	83.28
416.567	107.86
416.776	220.5
416.984	128.34
417.192	116.05
417.4	50.52
417.608	7.51
417.817	-10.92
418.025	85.33
418.233	185.68
418.441	-17.07
418.649	-35.5
418.857	120.15
419.065	175.44
419.273	62.8
419.481	87.38
419.689	56.66
419.897	40.28
420.105	1.37
420.313	114
420.521	183.63
420.729	116.05
420.937	34.13
421.145	-21.16
421.353	181.59
421.561	183.63
421.769	128.34
421.977	9.56
422.185	60.76
422.393	79.19
422.601	107.86
422.809	81.24
423.017	50.52
423.224	13.65
423.432	85.33
423.64	48.47
423.848	116.05
424.056	9.56
424.263	128.34
424.471	54.61
424.679	140.63
424.887	-25.26
425.094	189.78
425.302	165.2
425.51	52.56
425.718	124.24
425.925	161.11
426.133	-4.78
426.341	210.26
426.548	116.05
426.756	-0.68
426.964	73.04
427.171	3.41
427.379	132.44
427.586	64.85
427.794	111.96
428.001	152.91
428.209	81.24
428.417	101.72
428.624	152.91
428.832	152.91
429.039	46.42
429.247	212.31
429.454	95.57
429.662	200.02
429.869	105.81
430.076	146.77
430.284	161.11
430.491	173.39
430.699	89.43
430.906	163.15
431.114	150.87
431.321	128.34
431.528	191.83
431.736	136.53
431.943	140.63
432.15	189.78
432.358	142.68
432.565	251.22
432.772	-31.4
432.979	206.16
433.187	148.82
433.394	181.59
433.601	91.48
433.808	120.15
434.016	230.74
434.223	175.44
434.43	118.1
434.637	202.07
434.844	271.7
435.052	167.25
435.259	236.88
435.466	283.98
435.673	183.63
435.88	216.4
436.087	263.51
436.294	212.31
436.501	314.7
436.708	214.35
436.915	322.9
437.122	222.55
437.329	191.83
437.537	277.84
437.743	269.65
437.95	431.44
438.157	236.88
438.364	267.6
438.571	322.9
438.778	269.65
438.985	234.83
439.192	402.77
439.399	333.14
439.606	355.66
439.813	370
440.02	417.1
440.227	527.69
440.433	492.88
440.64	394.58
440.847	351.57
441.054	476.49
441.261	546.12
441.467	501.07
441.674	380.24
441.881	564.56
442.088	367.95
442.294	499.02
442.501	574.8
442.708	576.84
442.914	529.74
443.121	599.37
443.328	640.33
443.534	791.88
443.741	679.24
443.948	550.22
444.154	632.14
444.361	767.31
444.568	585.04
444.774	679.24
444.981	638.28
445.187	968.01
445.394	804.17
445.6	755.02
445.807	990.53
446.013	894.28
446.22	830.79
446.426	857.42
446.633	968.01
446.839	1164.61
447.046	902.47
447.252	1068.36
447.459	1035.59
447.665	1187.14
447.871	1307.97
448.078	1299.78
448.284	1310.02
448.491	1426.75
448.697	1568.06
448.903	1414.46
449.11	1502.53
449.316	1424.7
449.522	1660.22
449.728	1695.04
449.935	1764.67
450.141	1641.79
450.347	1877.3
450.553	1731.9
450.76	1873.21
450.966	1924.41
451.172	2168.12
451.378	2137.4
451.584	2155.83
451.791	2428.21
451.997	2311.47
452.203	2391.34
452.409	2514.22
452.615	2612.53
452.821	2608.43
453.027	2567.47
453.233	2956.58
453.44	2856.23
453.646	3005.74
453.852	3233.06
454.058	3257.64
454.264	3310.88
454.47	3558.69
454.676	3558.69
454.882	3939.61
455.088	3908.89
455.294	4029.72
455.5	4291.86
455.705	4414.74
455.911	4556.05
456.117	4537.62
456.323	4670.73
456.529	4730.13
456.735	5281.03
456.941	5252.36
457.147	5453.06
457.352	5653.76
457.558	5707.01
457.764	6159.61
457.97	6415.6
458.176	6624.5
458.381	6917.36
458.587	6972.65
458.793	7331.05
458.999	7335.14
459.204	8217.82
459.41	8424.66
459.616	8457.43
459.821	8707.28
460.027	9256.14
460.233	9798.85
460.438	9761.98
460.644	10353.85
460.85	10122.43
461.055	10693.81
461.261	11336.87
461.466	11291.82
461.672	11322.54
461.878	12608.66
462.083	12481.69
462.289	12721.3
462.494	13212.81
462.7	13347.98
462.905	13634.69
463.111	14619.77
463.316	15459.43
463.522	15541.35
463.727	15983.71
463.932	16780.37
464.138	17144.91
464.343	17878.08
464.549	18017.35
464.754	19373.1
464.959	19708.97
465.165	20124.71
465.37	20024.36
465.575	19895.33
465.781	21455.89
465.986	22285.31
466.191	21795.85
466.397	22019.08
466.602	21769.23
466.807	22678.52
467.012	23137.27
467.218	23677.93
467.423	23194.61
467.628	24312.8
467.833	25058.26
468.038	25078.74
468.244	24624.09
468.449	25795.53
468.654	25131.99
468.859	25078.74
469.064	25439.19
469.269	24671.2
469.474	25023.45
469.679	25897.93
469.885	24728.54
470.09	25199.57
470.295	25713.61
470.5	24470.5
470.705	24919
470.91	24316.9
471.115	24120.29
471.32	24617.95
471.525	24642.53
471.73	23708.65
471.935	23454.7
472.139	22608.89
472.344	22428.67
472.549	22455.29
472.754	21810.18
472.959	21740.55
473.164	20747.29
473.369	20888.6
473.574	21290
473.778	20347.93
473.983	20331.55
474.188	19993.64
474.393	18951.22
474.598	18822.2
474.802	18455.61
475.007	18474.04
475.212	18293.82
475.417	17714.25
475.621	17402.96
475.826	17099.86
476.031	16686.17
476.235	16364.64
476.44	16295
476.645	15885.41
476.849	15879.27
477.054	15504.49
477.259	15359.08
477.463	15092.85
477.668	14939.25
477.872	14728.31
478.077	14365.82
478.282	14009.47
478.486	14019.71
478.691	13487.24
478.895	13337.74
479.1	13333.64
479.304	13436.04
479.509	12563.61
479.713	13212.81
479.918	12872.85
480.122	12698.77
480.326	12645.52
480.531	12450.97
480.735	12227.74
480.94	12354.71
481.144	12856.47
481.348	11973.79
481.553	12059.81
481.757	11521.19
481.961	11783.33
482.166	11873.44
482.37	11662.5
482.574	11588.77
482.778	11455.65
482.983	11809.95
483.187	11539.62
483.391	11187.37
483.595	11250.86
483.8	11021.49
484.004	11054.25
484.208	10853.55
484.412	10943.66
484.616	10726.58
484.821	10669.23
485.025	10325.18
485.229	10460.34
485.433	10192.06
485.637	10228.92
485.841	9858.24
486.045	9848
486.249	9622.72
486.453	9510.08
486.657	9528.52
486.861	9360.58
487.065	8895.69
487.269	9127.11
487.473	8735.95
487.677	8725.71
487.881	8762.58
488.085	8580.31
488.289	8230.1
488.493	8211.67
488.697	8312.02
488.901	8189.14
489.105	7754.97
489.309	7875.81
489.512	7714.02
489.716	7498.98
489.92	7238.89
490.124	7453.92
490.328	7134.44
490.531	6839.53
490.735	7058.67
490.939	6755.57
491.143	6499.57
491.346	6657.26
491.55	6577.39
491.754	6421.75
491.958	6364.4
492.161	6040.83
492.365	6065.4
492.569	5989.63
492.772	5803.26
492.976	5895.42
493.18	5766.4
493.383	5831.93
493.587	5743.87
493.79	5692.67
493.994	5487.87
494.197	5453.06
494.401	5416.19
494.605	5467.39
494.808	5389.57
495.012	5285.12
495.215	5291.27
495.419	5422.34
495.622	5086.47
495.825	5190.92
496.029	5219.59
496.232	5231.88
496.436	5121.29
496.639	5399.81
496.843	5137.67
497.046	5119.24
497.249	5211.4
497.453	5338.37
497.656	5057.8
497.859	5098.76
498.063	5205.25
498.266	5260.55
498.469	5131.53
498.673	5119.24
498.876	5238.02
499.079	5168.39
499.282	5299.46
499.485	5534.98
499.689	5532.93
499.892	5438.72
500.095	5334.28
500.298	5459.2
500.501	5315.84
500.705	5627.14
500.908	5539.07
501.111	5850.36
501.314	5985.53
501.517	6132.98
501.72	5866.75
501.923	5905.66
502.126	5940.47
502.329	6214.9
502.532	6012.15
502.735	6243.57
502.938	6491.38
503.141	6468.85
503.344	6315.25
503.547	6640.88
503.75	6577.39
503.953	6550.77
504.156	6761.71
504.359	6845.68
504.562	7140.58
504.765	6978.79
504.968	7263.46
505.17	7410.92
505.373	7410.92
505.576	7754.97
505.779	7644.38
505.982	7836.89
506.185	7877.85
506.387	7980.25
506.59	8193.24
506.793	8486.1
506.996	8559.83
507.198	8910.03
507.401	8869.07
507.604	9170.12
507.807	9223.37
508.009	9462.98
508.212	9510.08
508.415	9792.7
508.617	10026.17
508.82	10134.71
509.022	10429.62
509.225	10710.19
509.428	10755.25
509.63	11109.55
509.833	11140.27
510.035	11515.05
510.238	11758.75
510.44	12027.04
510.643	12131.48
510.845	12651.67
511.048	12852.37
511.25	13079.69
511.453	13278.35
511.655	14005.38
511.858	14058.62
512.06	14484.6
512.262	14611.57
512.465	14711.92
512.667	15211.63
512.87	15598.7
513.072	16000.1
513.274	16252
513.477	16725.08
513.679	17077.33
513.881	17517.64
514.084	17757.25
514.286	18179.14
514.488	18891.83
514.69	19311.66
514.893	19579.95
515.095	19627.05
515.297	20128.8
515.499	20724.76
515.701	21040.15
515.904	21527.56
516.106	21885.96
516.308	22666.24
516.51	22604.8
516.712	22995.96
516.914	23823.34
517.116	24550.37
517.318	24546.27
517.52	24880.09
517.722	25250.77
517.925	26186.69
518.127	26590.14
518.329	27044.79
518.531	27026.36
518.733	27941.8
518.935	28337.06
519.136	28812.19
519.338	29057.95
519.54	29784.97
519.742	30024.59
519.944	30602.11
520.146	31370.1
520.348	31402.87
520.55	31726.45
520.752	32394.09
520.954	32654.18
521.155	32750.43
521.357	33360.73
521.559	33911.63
521.761	34360.14
521.963	34405.19
522.164	34982.72
522.366	35085.12
522.568	35515.19
522.77	35588.92
522.971	36223.79
523.173	35853.11
523.375	36420.39
523.576	36424.49
523.778	36483.88
523.98	37174.05
524.181	37301.02
524.383	37444.38
524.584	37774.1
524.786	37368.6
524.988	37432.09
525.189	38126.35
525.391	38026
525.592	37874.45
525.794	37827.35
525.995	37702.42
526.197	38001.43
526.398	37677.85
526.6	37704.47
526.801	37600.02
527.003	37432.09
527.204	37215.01
527.406	37423.9
527.607	37102.37
527.808	37333.79
528.01	36231.98
528.211	36551.46
528.412	36799.27
528.614	36369.19
528.815	36133.68
529.016	36301.61
529.218	35236.67
529.419	35197.76
529.62	35072.83
529.822	34544.45
530.023	34194.25
530.224	34030.41
530.425	33909.58
530.626	33209.18
530.828	32799.58
531.029	32820.06
531.23	32557.92
531.431	31966.06
531.632	31992.69
531.833	31361.91
532.035	30991.23
532.236	30894.97
532.437	30802.82
532.638	29938.57
532.839	29692.82
533.04	29266.84
533.241	28433.32
533.442	28879.77
533.643	28367.78
533.844	27599.79
534.045	27243.45
534.246	27018.17
534.447	26966.97
534.648	26545.09
534.849	26039.24
535.05	25529.3
535.251	25492.43
535.451	24456.16
535.652	24404.96
535.853	24302.56
536.054	24116.2
536.255	23686.12
536.456	23251.95
536.657	23155.7
536.857	22645.76
537.058	22305.79
537.259	22465.53
537.46	21947.4
537.66	21732.36
537.861	21349.39
538.062	21380.11
538.263	21081.11
538.463	20698.14
538.664	20276.26
538.865	20147.23
539.065	19749.93
539.266	19432.49
539.466	19330.09
539.667	18951.22
539.868	18846.77
540.068	18535.48
540.269	18541.63
540.469	18144.32
540.67	17896.52
540.87	17718.34
541.071	17450.06
541.271	17398.86
541.472	17204.3
541.672	16956.5
541.873	16639.06
542.073	16528.47
542.274	16548.95
542.474	16464.99
542.675	16063.58
542.875	16079.97
543.075	15711.33
543.276	15527.02
543.476	15598.7
543.676	15264.88
543.877	15154.29
544.077	14945.39
544.277	14705.78
544.478	14580.85
544.678	14535.8
544.878	14240.89
545.078	13917.31
545.279	13692.04
545.479	13546.63
545.679	13677.7
545.879	13442.18
546.079	13241.48
546.28	12940.43
546.48	13065.36
546.68	12952.72
546.88	12739.73
547.08	12444.82
547.28	12450.97
547.48	12149.92
547.68	12065.95
547.88	11838.62
548.081	11891.87
548.281	11607.2
548.481	11449.51
548.681	11334.82
548.881	11263.15
549.081	11127.98
549.28	10656.95
549.48	10845.36
549.68	10681.52
549.88	10779.82
550.08	10333.37
550.28	10382.52
550.48	10265.78
550.68	9876.67
550.88	9692.35
551.08	9718.98
551.279	9497.8
551.479	9358.53
551.679	9520.32
551.879	9016.52
552.079	9172.17
552.278	8907.98
552.478	8973.52
552.678	8725.71
552.878	8686.8
553.077	8344.79
553.277	8199.38
553.477	7976.16
553.676	8142.04
553.876	7793.89
554.076	7847.13
554.275	7544.03
554.475	7427.3
554.674	7345.38
554.874	7255.27
555.074	7195.88
555.273	7107.82
555.473	6843.63
555.672	6839.53
555.872	6788.33
556.071	6687.98
556.271	6669.55
556.47	6362.36
556.67	6262.01
556.869	6280.44
557.068	6042.87
557.268	6083.83
557.467	5999.87
557.667	6063.35
557.866	5790.97
558.065	5672.19
558.265	5522.69
558.464	5403.91
558.663	5342.47
558.863	5190.92
559.062	5199.11
559.261	5135.62
559.461	5168.39
559.66	5059.85
559.859	4777.23
560.058	4797.71
560.258	4642.06
560.457	4623.63
560.656	4730.13
560.855	4416.79
561.054	4484.37
561.253	4381.97
561.453	4349.2
561.652	4291.86
561.851	4373.78
562.05	4093.21
562.249	3974.42
562.448	4259.09
562.647	3857.69
562.846	3755.29
563.045	3947.8
563.244	3716.38
563.443	3804.44
563.642	3556.64
563.841	3693.85
564.04	3550.5
564.239	3501.34
564.438	3521.82
564.637	3345.7
564.836	3380.51
565.035	3245.35
565.234	3282.21
565.432	3149.09
565.631	3104.04
565.83	3097.89
566.029	2977.06
566.228	3005.74
566.427	3126.57
566.625	2821.42
566.824	2977.06
567.023	2784.55
567.222	2743.6
567.42	2868.52
567.619	2762.03
567.818	2526.51
568.016	2798.89
568.215	2639.15
568.414	2725.16
568.612	2594.09
568.811	2571.57
569.01	2569.52
569.208	2549.04
569.407	2536.75
569.605	2456.88
569.804	2358.58
570.002	2397.49
570.201	2264.37
570.4	2239.8
570.598	2209.08
570.797	2129.2
570.995	2112.82
571.193	2155.83
571.392	2071.86
571.59	1953.08
571.789	2139.44
571.987	2028.85
572.186	2016.57
572.384	1948.98
572.582	1840.44
572.781	1981.75
572.979	1742.14
573.177	1858.87
573.376	1809.72
573.574	1764.67
573.772	1717.56
573.971	1717.56
574.169	1500.48
574.367	1668.41
574.565	1721.66
574.763	1658.17
574.962	1617.21
575.16	1588.54
575.358	1508.67
575.556	1570.11
575.754	1592.64
575.952	1420.61
576.151	1426.75
576.349	1393.98
576.547	1310.02
576.745	1402.18
576.943	1348.93
577.141	1312.07
577.339	1264.96
577.537	1254.72
577.735	1398.08
577.933	1176.9
578.131	1131.84
578.329	1348.93
578.527	1135.94
578.725	1252.67
578.923	1051.97
579.121	1197.38
579.319	1039.69
579.516	1127.75
579.714	1254.72
579.912	1137.99
580.11	1039.69
580.308	988.49
580.506	1054.02
580.704	810.31
580.901	996.68
581.099	1099.08
581.297	1008.97
581.495	968.01
581.692	900.42
581.89	1049.93
582.088	972.1
582.285	947.53
582.483	824.65
582.681	869.7
582.878	834.89
583.076	810.31
583.274	879.94
583.471	914.76
583.669	824.65
583.866	736.59
584.064	808.27
584.262	693.58
584.459	714.06
584.657	818.5
584.854	732.49
585.052	755.02
585.249	800.07
585.447	750.92
585.644	613.71
585.841	736.59
586.039	736.59
586.236	851.27
586.434	591.18
586.631	703.82
586.828	597.32
587.026	740.68
587.223	576.84
587.42	589.13
587.618	630.09
587.815	757.07
588.012	638.28
588.21	562.51
588.407	623.95
588.604	693.58
588.801	537.93
588.999	599.37
589.196	636.24
589.393	513.36
589.59	521.55
589.787	560.46
589.984	609.61
590.182	636.24
590.379	456.01
590.576	556.36
590.773	578.89
590.97	466.25
591.167	607.56
591.364	566.6
591.561	492.88
591.758	615.76
591.955	623.95
592.152	562.51
592.349	472.4
592.546	603.47
592.743	496.97
592.94	476.49
593.137	574.8
593.334	648.52
593.531	515.41
593.727	605.52
593.924	505.17
594.121	511.31
594.318	517.45
594.515	527.69
594.712	597.32
594.908	654.67
595.105	398.67
595.302	552.27
595.499	568.65
595.696	742.73
595.892	531.79
596.089	697.67
596.286	642.38
596.482	640.33
596.679	712.01
596.876	539.98
597.072	634.19
597.269	623.95
597.466	724.3
597.662	589.13
597.859	654.67
598.055	730.44
598.252	783.69
598.448	802.12
598.645	820.55
598.841	853.32
599.038	939.33
599.234	910.66
599.431	974.15
599.627	935.24
599.824	976.2
600.02	937.29
600.217	927.05
600.413	1068.36
600.609	982.34
600.806	1410.37
601.002	1144.13
601.198	1123.65
601.395	1207.62
601.591	1353.02
601.787	1326.4
601.984	1414.46
602.18	1350.98
602.376	1471.81
602.572	1631.55
602.769	1692.99
602.965	1764.67
603.161	1635.64
603.357	1774.91
603.553	1905.98
603.75	1787.19
603.946	1953.08
604.142	2065.72
604.338	2080.05
604.534	2131.25
604.73	2102.58
604.926	2207.03
605.122	2422.06
605.318	2415.92
605.514	2581.81
605.71	2506.03
605.906	2759.98
606.102	2532.65
606.298	2854.19
606.494	3009.83
606.69	3226.92
606.886	3077.41
607.082	3085.61
607.278	3181.86
607.474	3349.79
607.67	3458.34
607.866	3419.43
608.062	3720.48
608.257	3796.25
608.453	3786.01
608.649	3999
608.845	3888.41
609.041	4111.64
609.236	4265.24
609.432	4363.54
609.628	4558.1
609.824	4592.91
610.019	4566.29
610.215	4705.55
610.411	4986.12
610.606	5240.07
610.802	5065.99
610.998	5254.41
611.193	5596.42
611.389	5371.14
611.584	5745.92
611.78	5754.11
611.976	6042.87
612.171	6360.31
612.367	6321.4
612.562	6571.25
612.758	6571.25
612.953	6884.59
613.149	7142.63
613.344	7199.98
613.539	7427.3
613.735	7730.4
613.93	7779.55
614.126	7906.52
614.321	8242.39
614.517	8537.3
614.712	8543.44
614.907	8942.8
615.103	9157.83
615.298	9221.32
615.493	9557.19
615.688	9477.32
615.884	10220.73
616.079	10280.12
616.274	10509.49
616.47	10925.23
616.665	10906.8
616.86	11281.58
617.055	11543.72
617.25	11871.39
617.445	12344.47
617.641	12225.69
617.836	12764.31
618.031	12913.81
618.226	13472.9
618.421	13843.59
618.616	14019.71
618.811	13978.75
619.006	14699.64
619.201	14967.92
619.396	15260.78
619.591	15357.03
619.786	16004.19
619.981	16157.79
620.176	16669.78
620.371	16819.28
620.566	17294.41
620.761	17988.67
620.956	18097.22
621.151	18211.9
621.346	18748.47
621.541	18742.33
621.735	19293.23
621.93	19592.23
622.125	20227.1
622.32	20182.05
622.515	20898.84
622.709	21148.69
622.904	21654.54
623.099	21976.07
623.294	22402.05
623.488	22885.37
623.683	23034.87
623.878	23419.89
624.072	24194.02
624.267	24269.8
624.462	24609.76
624.656	24744.92
624.851	25455.57
625.046	25881.55
625.24	26207.17
625.435	26174.41
625.629	26727.36
625.824	27110.33
626.018	27607.98
626.213	27526.07
626.407	28232.61
626.602	28193.7
626.796	28576.67
626.991	28672.93
627.185	29209.5
627.38	29162.39
627.574	29336.47
627.768	29555.6
627.963	29918.09
628.157	29832.08
628.352	30145.42
628.546	29639.57
628.74	30145.42
628.935	29746.06
629.129	29805.45
629.323	29852.56
629.517	29682.58
629.712	29680.53
629.906	28988.31
630.1	28992.41
630.294	28810.14
630.489	28117.93
630.683	28582.82
630.877	27399.09
631.071	27335.6
631.265	27024.31
631.459	26262.47
631.653	25703.37
631.848	25299.92
632.042	24488.93
632.236	24376.29
632.43	23393.26
632.624	23127.03
632.818	22518.78
633.012	21689.35
633.206	20927.51
633.4	20208.67
633.594	19467.31
633.788	19004.47
633.982	18439.23
634.176	17806.41
634.369	17304.65
634.563	16399.45
634.757	15924.32
634.951	15389.8
635.145	14904.43
635.339	13966.46
635.533	13720.71
635.726	13147.28
635.92	12248.22
636.114	11959.45
636.308	11281.58
636.501	11211.95
636.695	10493.11
636.889	10149.05
637.083	9940.16
637.276	9366.73
637.47	8856.78
637.664	8658.13
637.857	8500.44
638.051	7943.39
638.244	7748.83
638.438	7326.95
638.632	7040.23
638.825	6630.64
639.019	6546.67
639.212	6354.16
639.406	6180.09
639.599	5817.6
639.793	5623.04
639.986	5317.89
640.18	5250.31
640.373	4951.31
640.567	4840.72
640.76	4734.22
640.954	4451.6
641.147	4222.23
641.34	4101.4
641.534	3986.71
641.727	3886.36
641.92	3648.8
642.114	3562.78
642.307	3364.13
642.5	3310.88
642.694	3218.72
642.887	3089.7
643.08	3050.79
643.273	2837.8
643.467	2757.93
643.66	2452.78
643.853	2424.11
644.046	2536.75
644.239	2317.62
644.432	2182.45
644.626	2014.52
644.819	2053.43
645.012	1875.26
645.205	2086.2
645.398	1918.26
645.591	1774.91
645.784	1621.31
645.977	1537.34
646.17	1551.68
646.363	1545.53
646.556	1381.7
646.749	1322.31
646.942	1359.17
647.135	1342.78
647.328	1185.09
647.521	1262.91
647.714	1101.12
647.907	1244.48
648.099	1019.21
648.292	1137.99
648.485	1019.21
648.678	1000.77
648.871	894.28
649.064	976.2
649.256	730.44
649.449	677.19
649.642	777.55
649.835	752.97
650.027	757.07
650.22	830.79
650.413	779.59
650.605	767.31
650.798	660.81
650.991	611.66
651.183	652.62
651.376	623.95
651.568	607.56
651.761	480.59
651.954	523.6
652.146	546.12
652.339	632.14
652.531	601.42
652.724	433.49
652.916	384.34
653.109	361.81
653.301	476.49
653.494	533.84
653.686	443.73
653.879	478.54
654.071	468.3
654.263	345.42
654.456	316.75
654.648	408.91
654.84	351.57
655.033	372.05
655.225	372.05
655.417	197.97
655.61	464.21
655.802	433.49
655.994	392.53
656.186	232.79
656.379	365.9
656.571	269.65
656.763	232.79
656.955	232.79
657.148	281.94
657.34	322.9
657.532	255.31
657.724	204.11
657.916	322.9
658.108	257.36
658.3	288.08
658.492	304.46
658.684	238.93
658.876	349.52
659.068	157.01
659.26	91.48
659.452	193.87
659.644	234.83
659.836	277.84
660.028	255.31
660.22	167.25
660.412	189.78
660.604	214.35
660.796	216.4
660.988	296.27
661.18	238.93
661.372	279.89
661.563	195.92
661.755	193.87
661.947	161.11
662.139	146.77
662.331	185.68
662.522	144.72
662.714	91.48
662.906	181.59
663.097	161.11
663.289	79.19
663.481	64.85
663.673	204.11
663.864	163.15
664.056	226.64
664.247	128.34
664.439	222.55
664.631	200.02
664.822	200.02
665.014	232.79
665.205	136.53
665.397	97.62
665.588	234.83
665.78	154.96
665.971	226.64
666.163	136.53
666.354	150.87
666.546	46.42
666.737	140.63
666.929	93.52
667.12	159.06
667.311	163.15
667.503	103.76
667.694	185.68
667.885	228.69
668.077	200.02
668.268	32.08
668.459	97.62
668.651	185.68
668.842	236.88
669.033	150.87
669.224	111.96
669.416	335.18
669.607	97.62
669.798	116.05
669.989	292.18
670.18	73.04
670.371	230.74
670.563	42.32
670.754	163.15
670.945	179.54
671.136	157.01
671.327	122.2
671.518	240.98
671.709	261.46
671.9	220.5
672.091	261.46
672.282	179.54
672.473	93.52
672.664	154.96
672.855	101.72
673.046	154.96
673.237	294.22
673.428	210.26
673.619	173.39
673.809	175.44
674	290.13
674.191	261.46
674.382	103.76
674.573	124.24
674.764	146.77
674.954	195.92
675.145	62.8
675.336	206.16
675.527	130.39
675.717	150.87
675.908	216.4
676.099	81.24
676.289	220.5
676.48	60.76
676.671	245.07
676.861	210.26
677.052	144.72
677.243	177.49
677.433	89.43
677.624	187.73
677.814	138.58
678.005	132.44
678.195	251.22
678.386	130.39
678.576	171.35
678.767	138.58
678.957	171.35
679.148	279.89
679.338	232.79
679.529	298.32
679.719	169.3
679.909	326.99
680.1	185.68
680.29	218.45
680.481	169.3
680.671	281.94
680.861	220.5
681.052	277.84
681.242	238.93
681.432	279.89
681.622	316.75
681.813	222.55
682.003	310.61
682.193	185.68
682.383	175.44
682.573	240.98
682.764	230.74
682.954	177.49
683.144	281.94
683.334	144.72
683.524	204.11
683.714	304.46
683.904	218.45
684.094	243.03
684.284	224.59
684.474	429.39
684.664	240.98
684.854	220.5
685.044	253.27
685.234	281.94
685.424	286.03
685.614	200.02
685.804	386.38
685.994	279.89
686.184	255.31
686.374	324.94
686.564	255.31
686.753	304.46
686.943	169.3
687.133	226.64
687.323	222.55
687.513	322.9
687.702	316.75
687.892	222.55
688.082	298.32
688.272	263.51
688.461	296.27
688.651	417.1
688.841	324.94
689.03	202.07
689.22	318.8
689.41	376.14
689.599	302.42
689.789	193.87
689.979	402.77
690.168	243.03
690.358	320.85
690.547	259.41
690.737	312.66
690.926	267.6
691.116	195.92
691.305	279.89
691.495	384.34
691.684	138.58
691.874	261.46
692.063	220.5
692.252	312.66
692.442	271.7
692.631	269.65
692.82	185.68
693.01	249.17
693.199	161.11
693.388	230.74
693.578	238.93
693.767	331.09
693.956	251.22
694.146	240.98
694.335	185.68
694.524	226.64
694.713	253.27
694.902	277.84
695.092	202.07
695.281	214.35
695.47	214.35
695.659	236.88
695.848	226.64
696.037	183.63
696.226	302.42
696.415	288.08
696.604	367.95
696.793	335.18
696.982	261.46
697.171	294.22
697.36	224.59
697.549	220.5
697.738	136.53
697.927	224.59
698.116	177.49
698.305	259.41
698.494	146.77
698.683	195.92
698.872	370
699.061	218.45
699.25	220.5
699.438	261.46
699.627	150.87
699.816	394.58
700.005	157.01
700.193	193.87
700.382	251.22
700.571	232.79
700.76	279.89
700.948	374.1
701.137	310.61
701.326	294.22
701.514	214.35
701.703	316.75
701.892	134.48
702.08	482.64
702.269	144.72
702.457	130.39
702.646	197.97
702.834	120.15
703.023	263.51
703.212	322.9
703.4	181.59
703.589	183.63
703.777	220.5
703.965	128.34
704.154	179.54
704.342	122.2
704.531	185.68
704.719	169.3
704.907	308.56
705.096	154.96
705.284	238.93
705.472	222.55
705.661	265.55
705.849	202.07
706.037	376.14
706.226	306.51
706.414	200.02
706.602	185.68
706.79	261.46
706.979	230.74
707.167	279.89
707.355	146.77
707.543	232.79
707.731	216.4
707.919	259.41
708.107	269.65
708.296	195.92
708.484	181.59
708.672	220.5
708.86	273.75
709.048	271.7
709.236	101.72
709.424	283.98
709.612	306.51
709.8	107.86
709.988	267.6
710.176	294.22
710.364	234.83
710.551	234.83
710.739	154.96
710.927	269.65
711.115	298.32
711.303	286.03
711.491	212.31
711.679	238.93
711.866	267.6
712.054	261.46
712.242	255.31
712.43	322.9
712.617	210.26
712.805	265.55
712.993	189.78
713.181	183.63
713.368	310.61
713.556	195.92
713.744	240.98
713.931	402.77
714.119	337.23
714.306	267.6
714.494	212.31
714.682	236.88
714.869	85.33
715.057	195.92
715.244	142.68
715.432	324.94
715.619	181.59
715.807	179.54
715.994	316.75
716.182	267.6
716.369	322.9
716.556	335.18
716.744	202.07
716.931	177.49
717.119	337.23
717.306	257.36
717.493	374.1
717.681	234.83
717.868	226.64
718.055	249.17
718.242	261.46
718.43	343.38
718.617	365.9
718.804	263.51
718.991	419.15
719.179	316.75
719.366	329.04
719.553	298.32
719.74	249.17
719.927	279.89
720.114	324.94
720.301	193.87
720.488	187.73
720.676	171.35
720.863	396.62
721.05	474.45
721.237	228.69
721.424	361.81
721.611	261.46
721.798	204.11
721.985	175.44
722.172	245.07
722.358	271.7
722.545	351.57
722.732	273.75
722.919	357.71
723.106	398.67
723.293	247.12
723.48	343.38
723.667	288.08
723.853	359.76
724.04	292.18
724.227	378.19
724.414	277.84
724.6	394.58
724.787	451.92
724.974	441.68
725.161	370
725.347	247.12
725.534	365.9
725.72	333.14
725.907	370
726.094	421.2
726.28	255.31
726.467	271.7
726.653	177.49
726.84	408.91
727.027	370
727.213	372.05
727.4	402.77
727.586	343.38
727.773	281.94
727.959	349.52
728.145	417.1
728.332	286.03
728.518	294.22
728.705	365.9
728.891	443.73
729.077	331.09
729.264	279.89
729.45	326.99
729.636	386.38
729.823	329.04
730.009	406.86
730.195	329.04
730.382	386.38
730.568	226.64
730.754	451.92
730.94	345.42
731.126	376.14
731.313	365.9
731.499	335.18
731.685	363.86
731.871	396.62
732.057	427.34
732.243	390.48
732.429	370
732.615	408.91
732.801	470.35
732.987	429.39
733.173	374.1
733.359	341.33
733.545	386.38
733.731	404.82
733.917	408.91
734.103	392.53
734.289	480.59
734.475	314.7
734.661	484.69
734.847	499.02
735.033	402.77
735.219	376.14
735.404	398.67
735.59	320.85
735.776	357.71
735.962	376.14
736.148	406.86
736.333	490.83
736.519	324.94
736.705	374.1
736.89	419.15
737.076	302.42
737.262	339.28
737.447	306.51
737.633	335.18
737.819	402.77
738.004	386.38
738.19	437.58
738.375	378.19
738.561	529.74
738.747	439.63
738.932	306.51
739.118	576.84
739.303	363.86
739.489	437.58
739.674	413.01
739.859	372.05
740.045	468.3
740.23	380.24
740.416	292.18
740.601	365.9
740.786	355.66
740.972	314.7
741.157	417.1
741.342	365.9
741.528	267.6
741.713	453.97
741.898	353.62
742.084	406.86
742.269	441.68
742.454	425.29
742.639	474.45
742.824	394.58
743.01	515.41
743.195	556.36
743.38	443.73
743.565	370
743.75	378.19
743.935	509.26
744.12	537.93
744.305	314.7
744.49	357.71
744.675	384.34
744.86	456.01
745.045	511.31
745.23	322.9
745.415	380.24
745.6	582.99
745.785	347.47
745.97	503.12
746.155	357.71
746.34	453.97
746.525	458.06
746.71	441.68
746.895	314.7
747.079	286.03
747.264	351.57
747.449	427.34
747.634	417.1
747.819	370
748.003	384.34
748.188	251.22
748.373	435.53
748.557	421.2
748.742	427.34
748.927	425.29
749.111	320.85
749.296	394.58
749.481	464.21
749.665	390.48
749.85	322.9
750.034	324.94
750.219	380.24
750.404	386.38
750.588	339.28
750.773	216.4
750.957	398.67
751.141	300.37
751.326	445.77
751.51	312.66
751.695	290.13
751.879	288.08
752.064	372.05
752.248	355.66
752.432	419.15
752.617	415.06
752.801	339.28
752.985	306.51
753.17	331.09
753.354	279.89
753.538	396.62
753.722	292.18
753.907	275.79
754.091	230.74
754.275	335.18
754.459	234.83
754.643	263.51
754.828	365.9
755.012	322.9
755.196	230.74
755.38	259.41
755.564	290.13
755.748	230.74
755.932	386.38
756.116	341.33
756.3	298.32
756.484	208.21
756.668	314.7
756.852	204.11
757.036	236.88
757.22	281.94
757.404	197.97
757.588	220.5
757.772	296.27
757.956	185.68
758.14	363.86
758.323	236.88
758.507	296.27
758.691	263.51
758.875	298.32
759.059	279.89
759.242	202.07
759.426	314.7
759.61	269.65
759.794	107.86
759.977	300.37
760.161	421.2
760.345	365.9
760.528	374.1
760.712	347.47
760.895	300.37
761.079	308.56
761.263	64.85
761.446	183.63
761.63	238.93
761.813	322.9
761.997	214.35
762.18	181.59
762.364	253.27
762.547	161.11
762.731	195.92
762.914	161.11
763.098	204.11
763.281	173.39
763.464	157.01
763.648	247.12
763.831	208.21
764.015	150.87
764.198	240.98
764.381	159.06
764.564	243.03
764.748	197.97
764.931	245.07
765.114	140.63
765.297	269.65
765.481	169.3
765.664	185.68
765.847	259.41
766.03	345.42
766.213	87.38
766.397	210.26
766.58	62.8
766.763	212.31
766.946	204.11
767.129	167.25
767.312	114
767.495	216.4
767.678	66.9
767.861	255.31
768.044	136.53
768.227	157.01
768.41	148.82
768.593	181.59
768.776	185.68
768.959	159.06
769.142	249.17
769.324	114
769.507	179.54
769.69	152.91
769.873	171.35
770.056	300.37
770.239	173.39
770.421	154.96
770.604	214.35
770.787	177.49
770.97	116.05
771.152	81.24
771.335	183.63
771.518	68.95
771.7	234.83
771.883	245.07
772.066	36.18
772.248	169.3
772.431	189.78
772.613	195.92
772.796	154.96
772.978	185.68
773.161	275.79
773.343	118.1
773.526	95.57
773.708	64.85
773.891	56.66
774.073	109.91
774.256	107.86
774.438	259.41
774.621	146.77
774.803	134.48
774.985	109.91
775.168	206.16
775.35	122.2
775.532	253.27
775.715	60.76
775.897	204.11
776.079	148.82
776.261	144.72
776.444	99.67
776.626	120.15
776.808	109.91
776.99	118.1
777.173	130.39
777.355	193.87
777.537	148.82
777.719	64.85
777.901	185.68
778.083	32.08
778.265	-19.11
778.447	142.68
778.629	27.99
778.811	140.63
778.993	208.21
779.175	195.92
779.357	134.48
779.539	36.18
779.721	105.81
779.903	173.39
780.085	56.66
780.267	118.1
780.449	48.47
780.631	103.76
780.812	228.69
780.994	66.9
781.176	148.82
781.358	42.32
781.54	138.58
781.721	95.57
781.903	218.45
782.085	95.57
782.267	238.93
782.448	-45.74
782.63	83.28
782.812	130.39
782.993	191.83
783.175	167.25
783.357	50.52
783.538	126.29
783.72	73.04
783.901	19.8
784.083	93.52
784.264	93.52
784.446	-37.55
784.627	71
784.809	83.28
784.99	-4.78
785.172	173.39
785.353	109.91
785.535	134.48
785.716	36.18
785.897	-51.88
786.079	99.67
786.26	140.63
786.441	21.85
786.623	5.46
786.804	-21.16
786.985	144.72
787.167	142.68
787.348	21.85
787.529	56.66
787.71	204.11
787.891	89.43
788.073	62.8
788.254	-74.41
788.435	214.35
788.616	142.68
788.797	7.51
788.978	-0.68
789.159	75.09
789.34	185.68
789.522	79.19
789.703	-15.02
789.884	79.19
790.065	103.76
790.246	277.84
790.427	77.14
790.607	95.57
790.788	99.67
790.969	-19.11
791.15	77.14
791.331	38.23
791.512	126.29
791.693	-23.21
791.874	-4.78
792.054	257.36
792.235	142.68
792.416	-10.92
792.597	7.51
792.778	157.01
792.958	185.68
793.139	25.94
793.32	146.77
793.5	-17.07
793.681	236.88
793.862	103.76
794.042	79.19
794.223	-41.64
794.404	66.9
794.584	23.89
794.765	64.85
794.945	81.24
795.126	68.95
795.306	140.63
795.487	-45.74
795.667	15.7
795.848	50.52
796.028	91.48
796.209	50.52
796.389	40.28
796.57	38.23
796.75	-49.83
796.93	62.8
797.111	-33.45
797.291	54.61
797.471	140.63
797.652	-27.31
797.832	-25.26
798.012	103.76
798.192	-2.73
798.373	9.56
798.553	60.76
798.733	71
798.913	9.56
799.093	44.37
799.274	58.71
799.454	62.8
799.634	38.23
799.814	50.52
799.994	38.23
800.174	191.83
800.354	77.14
800.534	-19.11
800.714	34.13
800.894	-47.79
801.074	9.56
801.254	-51.88
801.434	144.72
801.614	-43.69
801.794	-10.92
801.974	1852.73
802.154	9.56
802.334	120.15
802.514	1.37
802.693	30.04
802.873	21.85
803.053	118.1
803.233	97.62
803.413	25.94
803.592	-47.79
803.772	50.52
803.952	9.56
804.131	-47.79
804.311	79.19
804.491	50.52
804.67	-47.79
804.85	-17.07
805.03	58.71
805.209	101.72
805.389	-10.92
805.568	-2.73
805.748	21.85
805.928	130.39
806.107	114
806.287	77.14
806.466	81.24
806.646	34.13
806.825	101.72
807.004	38.23
807.184	34.13
807.363	77.14
807.543	48.47
807.722	1.37
807.901	136.53
808.081	150.87
808.26	-76.46
808.439	36.18
808.619	52.56
808.798	-15.02
808.977	54.61
809.156	114
809.336	36.18
809.515	91.48
809.694	42.32
809.873	-35.5
810.052	97.62
810.231	93.52
810.411	34.13
810.59	183.63
810.769	15.7
810.948	71
811.127	-51.88
811.306	-17.07
811.485	46.42
811.664	165.2
811.843	-10.92
812.022	83.28
812.201	21.85
812.38	50.52
812.559	3.41
812.737	75.09
812.916	-88.75
813.095	-31.4
813.274	64.85
813.453	-6.83
813.632	13.65
813.811	87.38
813.989	-64.17
814.168	13.65
814.347	-94.89
814.526	-21.16
814.704	107.86
814.883	208.21
815.062	-15.02
815.24	42.32
815.419	-19.11
815.598	48.47
815.776	-60.07
815.955	7.51
816.133	5.46
816.312	-10.92
816.49	-119.46
816.669	75.09
816.847	-105.13
817.026	109.91
817.204	21.85
817.383	50.52
817.561	-68.27
817.74	97.62
817.918	144.72
818.097	27.99
818.275	62.8
818.453	87.38
818.632	36.18
818.81	56.66
818.988	-60.07
819.167	-31.4
819.345	48.47
819.523	34.13
819.701	42.32
819.879	83.28
820.058	66.9
820.236	-0.68
820.414	-0.68
820.592	64.85
820.77	-45.74
820.948	-39.59
821.127	9.56
821.305	40.28
821.483	-70.31
821.661	144.72
821.839	13.65
822.017	-58.03
822.195	11.61
822.373	93.52
822.551	75.09
822.729	91.48
822.907	34.13
823.085	83.28
823.262	42.32
823.44	-25.26
823.618	-25.26
823.796	87.38
823.974	7.51
824.152	-31.4
824.329	-39.59
824.507	48.47
824.685	136.53
824.863	17.75
825.04	91.48
825.218	101.72
825.396	58.71
825.574	25.94
825.751	21.85
825.929	81.24
826.107	-31.4
826.284	60.76
826.462	77.14
826.639	-12.97
826.817	-62.12
826.994	27.99
827.172	-51.88
827.349	189.78
827.527	97.62
827.704	11.61
827.882	107.86
828.059	40.28
828.237	11.61
828.414	44.37
828.591	-78.51
828.769	36.18
828.946	-96.94
829.124	97.62
829.301	71
829.478	5.46
829.655	36.18
829.833	36.18
830.01	-137.9
830.187	97.62
830.364	21.85
830.542	21.85
830.719	103.76
830.896	75.09
831.073	120.15
831.25	48.47
831.427	58.71
831.604	95.57
831.782	-31.4
831.959	44.37
832.136	-58.03
832.313	77.14
832.49	-76.46
832.667	103.76
832.844	-0.68
833.021	118.1
833.198	118.1
833.374	30.04
833.551	62.8
833.728	-21.16
833.905	62.8
834.082	-98.99
834.259	64.85
834.436	87.38
834.612	17.75
834.789	58.71
834.966	-19.11
835.143	30.04
835.319	-27.31
835.496	101.72
835.673	124.24
835.85	81.24
836.026	79.19
836.203	56.66
836.38	-33.45
836.556	7.51
836.733	40.28
836.909	60.76
837.086	50.52
837.262	42.32
837.439	-6.83
837.616	-88.75
837.792	5.46
837.968	-4.78
838.145	15.7
838.321	111.96
838.498	79.19
838.674	109.91
838.851	30.04
839.027	11.61
839.203	11.61
839.38	87.38
839.556	-19.11
839.732	101.72
839.909	-2.73
840.085	103.76
840.261	-35.5
840.437	7.51
840.614	50.52
840.79	40.28
840.966	97.62
841.142	13.65
841.318	54.61
841.494	75.09
841.671	114
841.847	-6.83
842.023	-62.12
842.199	-8.87
842.375	58.71
842.551	-90.79
842.727	-70.31
842.903	122.2
843.079	-37.55
843.255	75.09
843.431	-0.68
843.607	71
843.783	-68.27
843.959	54.61
844.134	-43.69
844.31	27.99
844.486	-31.4
844.662	-127.66
844.838	42.32
845.013	52.56
845.189	-25.26
845.365	-10.92
845.541	62.8
845.716	81.24
845.892	136.53
846.068	-51.88
846.244	-58.03
846.419	11.61
846.595	-60.07
846.77	-35.5
846.946	120.15
847.122	3.41
847.297	-39.59
847.473	85.33
847.648	-119.46
847.824	-17.07
847.999	-76.46
848.175	19.8
848.35	-10.92
848.526	85.33
848.701	89.43
848.876	140.63
849.052	134.48
849.227	-8.87
849.403	64.85
849.578	56.66
849.753	68.95
849.929	21.85
850.104	-10.92
850.279	-12.97
850.454	21.85
850.63	-0.68
850.805	89.43
850.98	60.76
851.155	-92.84
851.33	30.04
851.505	-84.65
851.681	183.63
851.856	-45.74
852.031	-4.78
852.206	58.71
852.381	-35.5
852.556	-58.03
852.731	64.85
852.906	73.04
853.081	111.96
853.256	118.1
853.431	11.61
853.606	19.8
853.781	-51.88
853.956	-66.22
854.131	32.08
854.305	-64.17
854.48	7.51
854.655	-105.13
854.83	42.32
855.005	-49.83
855.18	19.8
855.354	9.56
855.529	60.76
855.704	-62.12
855.879	150.87
856.053	-17.07
856.228	66.9
856.403	-12.97
856.577	75.09
856.752	-12.97
856.926	44.37
857.101	91.48
857.276	-19.11
857.45	-6.83
857.625	83.28
857.799	19.8
857.974	42.32
858.148	7.51
858.323	21.85
858.497	-8.87
858.672	17.75
858.846	25.94
859.02	34.13
859.195	-31.4
859.369	-10.92
859.543	-0.68
859.718	19.8
859.892	48.47
860.066	58.71
860.241	-29.35
860.415	-19.11
860.589	11.61
860.763	52.56
860.938	-55.98
861.112	21.85
861.286	40.28
861.46	-27.31
861.634	-19.11
861.808	107.86
861.982	-80.55
862.157	-35.5
862.331	5.46
862.505	5.46
862.679	-74.41
862.853	-55.98
863.027	25.94
863.201	66.9
863.375	5.46
863.549	30.04
863.722	3.41
863.896	58.71
864.07	-29.35
864.244	13.65
864.418	50.52
864.592	25.94
864.766	71
864.939	-35.5
865.113	40.28
865.287	91.48
865.461	-60.07
865.634	32.08
865.808	-55.98
865.982	25.94
866.156	-119.46
866.329	-39.59
866.503	42.32
866.676	73.04
866.85	85.33
867.024	-58.03
867.197	-8.87
867.371	75.09
867.544	58.71
867.718	-109.23
867.891	120.15
868.065	-6.83
868.238	15.7
868.412	44.37
868.585	17.75
868.759	23.89
868.932	-33.45
869.105	-80.55
869.279	-29.35
869.452	-123.56
869.625	27.99
869.799	-10.92
869.972	-78.51
870.145	40.28
870.319	71
870.492	-2.73
870.665	7.51
870.838	-51.88
871.011	-129.7
871.185	-27.31
871.358	9.56
871.531	77.14
871.704	-72.36
871.877	-2.73
872.05	13.65
872.223	-19.11
872.396	140.63
872.569	105.81
872.742	-41.64
872.915	60.76
873.088	-25.26
873.261	-53.93
873.434	52.56
873.607	-23.21
873.78	71
873.953	-60.07
874.126	52.56
874.299	-37.55
874.471	-35.5
874.644	-21.16
874.817	87.38
874.99	103.76
875.163	13.65
875.335	99.67
875.508	-86.7
875.681	154.96
875.853	-10.92
876.026	30.04
876.199	30.04
876.371	25.94
876.544	30.04
876.717	64.85
876.889	40.28
877.062	9.56
877.234	-58.03
877.407	-25.26
877.579	25.94
877.752	5.46
877.924	81.24
878.097	32.08
878.269	66.9
878.442	27.99
878.614	44.37
878.786	30.04
878.959	-23.21
879.131	13.65
879.303	-125.61
879.476	-2.73
879.648	163.15
879.82	46.42
879.993	-80.55
880.165	40.28
880.337	-8.87
880.509	44.37
880.681	-92.84
880.854	-70.31
881.026	42.32
881.198	144.72
881.37	-49.83
881.542	13.65
881.714	-8.87
881.886	-51.88
882.058	27.99
882.23	68.95
882.402	-41.64
882.574	19.8
882.746	99.67
882.918	144.72
883.09	48.47
883.262	27.99
883.434	17.75
883.606	-55.98
883.778	99.67
883.95	116.05
884.122	44.37
884.293	132.44
884.465	1.37
884.637	150.87
884.809	15.7
884.98	101.72
885.152	32.08
885.324	144.72
885.496	42.32
885.667	-45.74
885.839	-12.97
886.011	157.01
886.182	89.43
886.354	-23.21
886.525	7.51
886.697	-39.59
886.869	-86.7
887.04	-35.5
887.212	152.91
887.383	167.25
887.555	-0.68
887.726	-33.45
887.897	-29.35
888.069	1.37
888.24	73.04
888.412	3.41
888.583	1.37
888.754	11.61
888.926	-12.97
889.097	1.37
889.268	-88.75
889.44	-0.68
889.611	-8.87
889.782	-117.42
889.953	3.41
890.125	38.23
890.296	-92.84
890.467	32.08
890.638	-31.4
890.809	48.47
890.98	-4.78
891.151	-0.68
891.323	136.53
891.494	11.61
891.665	-21.16
891.836	62.8
892.007	77.14
892.178	46.42
892.349	11.61
892.52	-96.94
892.691	-45.74
892.862	-49.83
893.032	-125.61
893.203	-49.83
893.374	3.41
893.545	68.95
893.716	-72.36
893.887	-21.16
894.057	-8.87
894.228	-10.92
894.399	-4.78
894.57	103.76
894.74	-6.83
894.911	-4.78
895.082	50.52
895.253	-33.45
895.423	-27.31
895.594	93.52
895.764	42.32
895.935	-51.88
896.106	68.95
896.276	-4.78
896.447	9.56
896.617	-45.74
896.788	-39.59
896.958	-12.97
897.129	27.99
897.299	-31.4
897.47	81.24
897.64	118.1
897.81	54.61
897.981	60.76
898.151	9.56
898.322	21.85
898.492	66.9
898.662	-12.97
898.832	40.28
899.003	34.13
899.173	9.56
899.343	-45.74
899.513	-27.31
