Data from USB4F104151__14__09-25-11-723.txt Node

Date: Wed Feb 26 09:25:11 EST 2025
User: louis
Spectrometer: USB4F10415
Trigger mode: 4
Integration Time (sec): 1.000000E-1
Scans to average: 1
Electric dark correction enabled: true
Nonlinearity correction enabled: false
Boxcar width: 0
XAxis mode: Wavelengths
Number of Pixels in Spectrum: 3648
>>>>>Begin Spectral Data<<<<<
178.204	-307.54
178.424	-307.54
178.644	-307.54
178.864	-325.97
179.084	-311.63
179.304	-22.87
179.524	5.8
179.744	9.9
179.964	30.38
180.184	-12.63
180.404	-26.96
180.624	110.25
180.844	3.75
181.064	-76.12
181.283	-31.06
181.503	-22.87
181.723	32.43
181.943	-37.2
182.163	181.93
182.383	73.39
182.602	93.87
182.822	159.4
183.042	97.96
183.262	22.19
183.482	13.99
183.701	36.52
183.921	28.33
184.141	87.72
184.361	118.44
184.58	93.87
184.8	85.67
185.02	22.19
185.239	85.67
185.459	40.62
185.679	151.21
185.898	-45.4
186.118	112.3
186.338	34.47
186.557	79.53
186.777	-86.36
186.997	65.19
187.216	102.06
187.436	114.34
187.655	30.38
187.875	163.5
188.095	69.29
188.314	179.88
188.534	149.16
188.753	-16.73
188.973	140.97
189.192	143.02
189.412	11.95
189.631	67.24
189.851	116.39
190.07	171.69
190.29	-8.53
190.509	69.29
190.729	85.67
190.948	100.01
191.168	294.57
191.387	114.34
191.607	85.67
191.826	52.91
192.045	40.62
192.265	116.39
192.484	95.91
192.704	100.01
192.923	3.75
193.142	190.12
193.362	134.82
193.581	149.16
193.8	114.34
194.02	122.54
194.239	114.34
194.458	102.06
194.678	69.29
194.897	118.44
195.116	52.91
195.335	67.24
195.555	104.11
195.774	42.67
195.993	167.59
196.212	65.19
196.432	-29.01
196.651	-6.49
196.87	36.52
197.089	218.79
197.308	91.82
197.528	130.73
197.747	48.81
197.966	110.25
198.185	95.91
198.404	30.38
198.623	71.34
198.842	110.25
199.062	116.39
199.281	145.06
199.5	-6.49
199.719	34.47
199.938	118.44
200.157	59.05
200.376	161.45
200.595	93.87
200.814	67.24
201.033	11.95
201.252	108.2
201.471	112.3
201.69	77.48
201.909	114.34
202.128	116.39
202.347	100.01
202.566	34.47
202.785	-37.2
203.004	1.71
203.223	171.69
203.442	50.86
203.661	11.95
203.879	102.06
204.098	114.34
204.317	-12.63
204.536	163.5
204.755	126.63
204.974	71.34
205.193	52.91
205.411	118.44
205.63	40.62
205.849	124.58
206.068	85.67
206.287	28.33
206.505	214.7
206.724	-10.58
206.943	24.23
207.162	44.71
207.381	179.88
207.599	52.91
207.818	69.29
208.037	-37.2
208.255	102.06
208.474	165.54
208.693	85.67
208.911	-20.82
209.13	143.02
209.349	134.82
209.567	81.58
209.786	130.73
210.005	157.35
210.223	114.34
210.442	-14.68
210.661	42.67
210.879	42.67
211.098	71.34
211.316	106.15
211.535	48.81
211.753	-20.82
211.972	95.91
212.191	3.75
212.409	20.14
212.628	155.3
212.846	11.95
213.065	140.97
213.283	122.54
213.502	89.77
213.72	93.87
213.938	44.71
214.157	143.02
214.375	175.78
214.594	52.91
214.812	79.53
215.031	42.67
215.249	75.43
215.467	136.87
215.686	83.63
215.904	149.16
216.122	97.96
216.341	186.02
216.559	-22.87
216.778	118.44
216.996	161.45
217.214	71.34
217.432	28.33
217.651	13.99
217.869	44.71
218.087	34.47
218.306	57
218.524	97.96
218.742	75.43
218.96	177.83
219.179	91.82
219.397	57
219.615	304.81
219.833	136.87
220.051	-4.44
220.27	163.5
220.488	67.24
220.706	57
220.924	11.95
221.142	-4.44
221.36	155.3
221.578	93.87
221.796	42.67
222.015	73.39
222.233	81.58
222.451	169.64
222.669	75.43
222.887	102.06
223.105	40.62
223.323	30.38
223.541	1.71
223.759	42.67
223.977	-16.73
224.195	132.78
224.413	93.87
224.631	120.49
224.849	116.39
225.067	253.61
225.285	71.34
225.503	28.33
225.721	-41.3
225.939	42.67
226.157	165.54
226.375	282.28
226.592	50.86
226.81	118.44
227.028	75.43
227.246	204.46
227.464	130.73
227.682	132.78
227.9	132.78
228.117	132.78
228.335	73.39
228.553	63.15
228.771	38.57
228.989	5.8
229.206	108.2
229.424	75.43
229.642	50.86
229.86	-14.68
230.077	167.59
230.295	108.2
230.513	87.72
230.731	16.04
230.948	206.5
231.166	181.93
231.384	3.75
231.601	-53.59
231.819	169.64
232.037	-4.44
232.254	-16.73
232.472	30.38
232.689	40.62
232.907	59.05
233.125	42.67
233.342	54.95
233.56	-14.68
233.777	44.71
233.995	-18.77
234.213	112.3
234.43	188.07
234.648	63.15
234.865	13.99
235.083	77.48
235.3	73.39
235.518	159.4
235.735	173.74
235.953	155.3
236.17	83.63
236.388	97.96
236.605	79.53
236.822	61.1
237.04	118.44
237.257	100.01
237.475	69.29
237.692	128.68
237.909	124.58
238.127	44.71
238.344	18.09
238.562	122.54
238.779	32.43
238.996	13.99
239.214	91.82
239.431	120.49
239.648	24.23
239.865	57
240.083	67.24
240.3	-49.49
240.517	-12.63
240.735	65.19
240.952	116.39
241.169	163.5
241.386	143.02
241.603	44.71
241.821	89.77
242.038	63.15
242.255	134.82
242.472	97.96
242.689	106.15
242.907	126.63
243.124	36.52
243.341	36.52
243.558	122.54
243.775	-22.87
243.992	-18.77
244.209	161.45
244.426	196.26
244.643	48.81
244.86	85.67
245.078	44.71
245.295	87.72
245.512	83.63
245.729	-20.82
245.946	165.54
246.163	18.09
246.38	34.47
246.597	108.2
246.814	132.78
247.031	61.1
247.248	171.69
247.464	61.1
247.681	59.05
247.898	81.58
248.115	28.33
248.332	-4.44
248.549	161.45
248.766	269.99
248.983	44.71
249.2	110.25
249.417	110.25
249.633	-4.44
249.85	143.02
250.067	110.25
250.284	93.87
250.501	157.35
250.717	71.34
250.934	-12.63
251.151	-26.96
251.368	116.39
251.585	93.87
251.801	83.63
252.018	-33.11
252.235	149.16
252.451	-45.4
252.668	-0.34
252.885	136.87
253.102	116.39
253.318	-12.63
253.535	34.47
253.752	40.62
253.968	-26.96
254.185	-4.44
254.401	40.62
254.618	124.58
254.835	20.14
255.051	151.21
255.268	54.95
255.484	20.14
255.701	85.67
255.917	122.54
256.134	-8.53
256.351	34.47
256.567	-22.87
256.784	67.24
257	1.71
257.217	194.22
257.433	159.4
257.65	110.25
257.866	110.25
258.082	42.67
258.299	24.23
258.515	52.91
258.732	48.81
258.948	20.14
259.165	118.44
259.381	-24.92
259.597	114.34
259.814	147.11
260.03	30.38
260.246	65.19
260.463	100.01
260.679	167.59
260.895	73.39
261.112	106.15
261.328	69.29
261.544	65.19
261.761	126.63
261.977	52.91
262.193	-37.2
262.409	132.78
262.626	3.75
262.842	85.67
263.058	38.57
263.274	143.02
263.49	20.14
263.707	114.34
263.923	61.1
264.139	-33.11
264.355	22.19
264.571	149.16
264.787	91.82
265.004	155.3
265.22	52.91
265.436	44.71
265.652	147.11
265.868	75.43
266.084	9.9
266.3	52.91
266.516	-29.01
266.732	3.75
266.948	48.81
267.164	-22.87
267.38	65.19
267.596	73.39
267.812	241.32
268.028	71.34
268.244	18.09
268.46	18.09
268.676	61.1
268.892	69.29
269.108	52.91
269.324	61.1
269.54	11.95
269.756	118.44
269.972	36.52
270.188	97.96
270.403	-14.68
270.619	57
270.835	108.2
271.051	75.43
271.267	61.1
271.483	-29.01
271.698	126.63
271.914	130.73
272.13	36.52
272.346	44.71
272.562	143.02
272.777	97.96
272.993	7.85
273.209	97.96
273.425	136.87
273.64	-29.01
273.856	42.67
274.072	57
274.287	77.48
274.503	91.82
274.719	93.87
274.934	83.63
275.15	-72.02
275.366	52.91
275.581	-12.63
275.797	32.43
276.012	69.29
276.228	-6.49
276.444	100.01
276.659	177.83
276.875	24.23
277.09	120.49
277.306	22.19
277.521	173.74
277.737	52.91
277.952	79.53
278.168	40.62
278.383	1.71
278.599	143.02
278.814	126.63
279.03	28.33
279.245	190.12
279.461	36.52
279.676	89.77
279.892	32.43
280.107	65.19
280.322	-8.53
280.538	77.48
280.753	-4.44
280.969	7.85
281.184	5.8
281.399	216.74
281.615	106.15
281.83	85.67
282.045	18.09
282.26	20.14
282.476	54.95
282.691	153.26
282.906	65.19
283.122	110.25
283.337	1.71
283.552	73.39
283.767	20.14
283.983	136.87
284.198	67.24
284.413	136.87
284.628	-14.68
284.843	104.11
285.058	69.29
285.274	57
285.489	-37.2
285.704	114.34
285.919	75.43
286.134	34.47
286.349	22.19
286.564	67.24
286.779	143.02
286.995	30.38
287.21	-20.82
287.425	91.82
287.64	7.85
287.855	52.91
288.07	16.04
288.285	106.15
288.5	186.02
288.715	34.47
288.93	18.09
289.145	61.1
289.36	89.77
289.575	71.34
289.79	173.74
290.004	11.95
290.219	132.78
290.434	11.95
290.649	40.62
290.864	18.09
291.079	97.96
291.294	54.95
291.509	91.82
291.724	52.91
291.938	36.52
292.153	108.2
292.368	-14.68
292.583	97.96
292.798	102.06
293.012	91.82
293.227	34.47
293.442	75.43
293.657	163.5
293.871	130.73
294.086	81.58
294.301	147.11
294.516	97.96
294.73	-4.44
294.945	16.04
295.16	69.29
295.374	186.02
295.589	151.21
295.804	18.09
296.018	13.99
296.233	143.02
296.447	46.76
296.662	28.33
296.877	143.02
297.091	149.16
297.306	-0.34
297.52	28.33
297.735	157.35
297.949	59.05
298.164	108.2
298.378	63.15
298.593	-6.49
298.807	18.09
299.022	24.23
299.236	226.98
299.451	63.15
299.665	20.14
299.88	30.38
300.094	73.39
300.309	59.05
300.523	104.11
300.737	48.81
300.952	42.67
301.166	106.15
301.381	77.48
301.595	46.76
301.809	63.15
302.024	77.48
302.238	26.28
302.452	147.11
302.667	9.9
302.881	140.97
303.095	106.15
303.309	83.63
303.524	24.23
303.738	69.29
303.952	46.76
304.166	57
304.381	-8.53
304.595	233.13
304.809	-35.16
305.023	93.87
305.237	36.52
305.452	46.76
305.666	116.39
305.88	114.34
306.094	130.73
306.308	77.48
306.522	186.02
306.736	102.06
306.95	32.43
307.164	20.14
307.379	11.95
307.593	143.02
307.807	130.73
308.021	110.25
308.235	73.39
308.449	32.43
308.663	61.1
308.877	253.61
309.091	67.24
309.305	181.93
309.519	-22.87
309.733	128.68
309.947	-41.3
310.161	67.24
310.374	171.69
310.588	112.3
310.802	69.29
311.016	48.81
311.23	26.28
311.444	63.15
311.658	52.91
311.872	149.16
312.085	130.73
312.299	134.82
312.513	149.16
312.727	89.77
312.941	67.24
313.154	81.58
313.368	87.72
313.582	69.29
313.796	102.06
314.009	89.77
314.223	140.97
314.437	159.4
314.651	106.15
314.864	28.33
315.078	57
315.292	-4.44
315.505	116.39
315.719	93.87
315.933	149.16
316.146	77.48
316.36	-8.53
316.573	102.06
316.787	52.91
317.001	114.34
317.214	11.95
317.428	91.82
317.641	11.95
317.855	126.63
318.068	93.87
318.282	24.23
318.495	200.36
318.709	77.48
318.922	16.04
319.136	175.78
319.349	93.87
319.563	-18.77
319.776	75.43
319.99	11.95
320.203	124.58
320.417	126.63
320.63	102.06
320.843	149.16
321.057	157.35
321.27	28.33
321.483	206.5
321.697	124.58
321.91	69.29
322.124	73.39
322.337	120.49
322.55	24.23
322.763	75.43
322.977	87.72
323.19	11.95
323.403	36.52
323.617	85.67
323.83	208.55
324.043	32.43
324.256	102.06
324.469	22.19
324.683	179.88
324.896	9.9
325.109	-12.63
325.322	40.62
325.535	118.44
325.748	75.43
325.962	1.71
326.175	155.3
326.388	57
326.601	171.69
326.814	22.19
327.027	54.95
327.24	143.02
327.453	11.95
327.666	130.73
327.879	83.63
328.092	132.78
328.305	110.25
328.518	42.67
328.731	5.8
328.944	73.39
329.157	75.43
329.37	26.28
329.583	126.63
329.796	143.02
330.009	-16.73
330.222	46.76
330.435	151.21
330.648	100.01
330.861	97.96
331.073	22.19
331.286	183.98
331.499	22.19
331.712	24.23
331.925	44.71
332.138	85.67
332.35	192.17
332.563	44.71
332.776	122.54
332.989	40.62
333.202	-8.53
333.414	89.77
333.627	118.44
333.84	40.62
334.053	124.58
334.265	42.67
334.478	36.52
334.691	106.15
334.903	38.57
335.116	24.23
335.329	67.24
335.541	140.97
335.754	138.92
335.966	81.58
336.179	61.1
336.392	100.01
336.604	44.71
336.817	75.43
337.029	28.33
337.242	89.77
337.454	104.11
337.667	89.77
337.88	181.93
338.092	124.58
338.305	112.3
338.517	67.24
338.729	81.58
338.942	167.59
339.154	-16.73
339.367	-37.2
339.579	93.87
339.792	-20.82
340.004	132.78
340.217	36.52
340.429	85.67
340.641	9.9
340.854	-0.34
341.066	1.71
341.278	183.98
341.491	175.78
341.703	-29.01
341.915	34.47
342.128	110.25
342.34	75.43
342.552	34.47
342.764	-16.73
342.977	20.14
343.189	93.87
343.401	159.4
343.613	13.99
343.826	48.81
344.038	32.43
344.25	91.82
344.462	153.26
344.674	65.19
344.886	87.72
345.099	151.21
345.311	50.86
345.523	143.02
345.735	59.05
345.947	143.02
346.159	24.23
346.371	89.77
346.583	106.15
346.795	104.11
347.007	102.06
347.219	124.58
347.431	26.28
347.643	126.63
347.855	124.58
348.067	97.96
348.279	77.48
348.491	59.05
348.703	114.34
348.915	7.85
349.127	24.23
349.339	52.91
349.551	50.86
349.763	124.58
349.975	9.9
350.187	73.39
350.399	126.63
350.61	106.15
350.822	32.43
351.034	100.01
351.246	108.2
351.458	165.54
351.669	93.87
351.881	91.82
352.093	54.95
352.305	110.25
352.517	3.75
352.728	159.4
352.94	126.63
353.152	77.48
353.363	28.33
353.575	106.15
353.787	126.63
353.999	161.45
354.21	208.55
354.422	34.47
354.633	3.75
354.845	52.91
355.057	134.82
355.268	136.87
355.48	143.02
355.692	7.85
355.903	16.04
356.115	59.05
356.326	-0.34
356.538	91.82
356.749	122.54
356.961	245.41
357.172	-22.87
357.384	-18.77
357.595	222.89
357.807	71.34
358.018	65.19
358.23	46.76
358.441	208.55
358.653	75.43
358.864	132.78
359.075	-0.34
359.287	106.15
359.498	122.54
359.709	59.05
359.921	9.9
360.132	89.77
360.344	138.92
360.555	36.52
360.766	104.11
360.977	50.86
361.189	196.26
361.4	77.48
361.611	122.54
361.823	155.3
362.034	126.63
362.245	-57.68
362.456	52.91
362.667	89.77
362.879	69.29
363.09	69.29
363.301	124.58
363.512	124.58
363.723	28.33
363.935	91.82
364.146	147.11
364.357	77.48
364.568	97.96
364.779	22.19
364.99	175.78
365.201	155.3
365.412	179.88
365.623	-6.49
365.834	93.87
366.045	50.86
366.256	110.25
366.467	59.05
366.678	75.43
366.889	87.72
367.1	36.52
367.311	108.2
367.522	46.76
367.733	108.2
367.944	130.73
368.155	22.19
368.366	108.2
368.577	59.05
368.788	126.63
368.999	46.76
369.209	85.67
369.42	294.57
369.631	231.08
369.842	151.21
370.053	-14.68
370.264	159.4
370.474	63.15
370.685	91.82
370.896	69.29
371.107	212.65
371.317	149.16
371.528	75.43
371.739	75.43
371.95	83.63
372.16	46.76
372.371	-45.4
372.582	77.48
372.792	145.06
373.003	122.54
373.214	87.72
373.424	118.44
373.635	26.28
373.846	173.74
374.056	52.91
374.267	181.93
374.477	110.25
374.688	16.04
374.898	42.67
375.109	7.85
375.319	87.72
375.53	110.25
375.74	100.01
375.951	59.05
376.161	67.24
376.372	79.53
376.582	11.95
376.793	73.39
377.003	20.14
377.214	81.58
377.424	54.95
377.635	65.19
377.845	100.01
378.055	181.93
378.266	3.75
378.476	81.58
378.686	122.54
378.897	114.34
379.107	63.15
379.317	138.92
379.528	61.1
379.738	75.43
379.948	11.95
380.158	118.44
380.369	97.96
380.579	126.63
380.789	32.43
380.999	100.01
381.21	132.78
381.42	136.87
381.63	-10.58
381.84	112.3
382.05	173.74
382.261	165.54
382.471	169.64
382.681	36.52
382.891	136.87
383.101	73.39
383.311	42.67
383.521	24.23
383.731	140.97
383.941	110.25
384.151	106.15
384.361	75.43
384.571	73.39
384.781	163.5
384.991	204.46
385.201	202.41
385.411	130.73
385.621	118.44
385.831	134.82
386.041	130.73
386.251	40.62
386.461	81.58
386.671	38.57
386.881	65.19
387.091	104.11
387.301	97.96
387.511	93.87
387.72	140.97
387.93	151.21
388.14	-82.26
388.35	81.58
388.56	143.02
388.769	153.26
388.979	89.77
389.189	9.9
389.399	61.1
389.609	155.3
389.818	110.25
390.028	44.71
390.238	134.82
390.447	9.9
390.657	104.11
390.867	77.48
391.076	-53.59
391.286	52.91
391.496	73.39
391.705	38.57
391.915	102.06
392.125	65.19
392.334	42.67
392.544	59.05
392.753	124.58
392.963	50.86
393.172	77.48
393.382	-18.77
393.591	269.99
393.801	61.1
394.01	226.98
394.22	57
394.429	157.35
394.639	85.67
394.848	93.87
395.058	140.97
395.267	97.96
395.477	134.82
395.686	102.06
395.895	196.26
396.105	202.41
396.314	130.73
396.524	143.02
396.733	89.77
396.942	130.73
397.152	102.06
397.361	138.92
397.57	102.06
397.78	132.78
397.989	120.49
398.198	233.13
398.407	63.15
398.617	65.19
398.826	65.19
399.035	85.67
399.244	126.63
399.453	102.06
399.663	188.07
399.872	106.15
400.081	-12.63
400.29	120.49
400.499	63.15
400.708	241.32
400.917	61.1
401.127	93.87
401.336	69.29
401.545	124.58
401.754	183.98
401.963	77.48
402.172	106.15
402.381	32.43
402.59	16.04
402.799	77.48
403.008	110.25
403.217	77.48
403.426	85.67
403.635	13.99
403.844	30.38
404.053	32.43
404.262	126.63
404.471	220.84
404.68	171.69
404.888	89.77
405.097	59.05
405.306	159.4
405.515	126.63
405.724	52.91
405.933	122.54
406.142	93.87
406.35	147.11
406.559	108.2
406.768	108.2
406.977	294.57
407.185	126.63
407.394	147.11
407.603	-12.63
407.812	177.83
408.02	136.87
408.229	9.9
408.438	124.58
408.646	77.48
408.855	54.95
409.064	73.39
409.272	89.77
409.481	83.63
409.69	44.71
409.898	26.28
410.107	77.48
410.315	171.69
410.524	7.85
410.733	79.53
410.941	13.99
411.15	128.68
411.358	61.1
411.567	145.06
411.775	118.44
411.984	95.91
412.192	85.67
412.401	95.91
412.609	97.96
412.818	163.5
413.026	118.44
413.234	69.29
413.443	81.58
413.651	130.73
413.86	77.48
414.068	163.5
414.276	171.69
414.485	61.1
414.693	143.02
414.901	298.66
415.11	112.3
415.318	38.57
415.526	73.39
415.734	112.3
415.943	77.48
416.151	157.35
416.359	140.97
416.567	126.63
416.776	181.93
416.984	181.93
417.192	255.65
417.4	30.38
417.608	57
417.817	-12.63
418.025	108.2
418.233	198.31
418.441	-8.53
418.649	69.29
418.857	112.3
419.065	97.96
419.273	3.75
419.481	106.15
419.689	118.44
419.897	28.33
420.105	73.39
420.313	136.87
420.521	171.69
420.729	167.59
420.937	83.63
421.145	-35.16
421.353	130.73
421.561	181.93
421.769	85.67
421.977	138.92
422.185	151.21
422.393	61.1
422.601	140.97
422.809	112.3
423.017	143.02
423.224	153.26
423.432	134.82
423.64	-2.39
423.848	274.09
424.056	69.29
424.263	204.46
424.471	77.48
424.679	140.97
424.887	-16.73
425.094	169.64
425.302	132.78
425.51	83.63
425.718	229.03
425.925	83.63
426.133	122.54
426.341	231.08
426.548	116.39
426.756	48.81
426.964	186.02
427.171	30.38
427.379	126.63
427.586	65.19
427.794	140.97
428.001	231.08
428.209	149.16
428.417	136.87
428.624	163.5
428.832	136.87
429.039	212.65
429.247	91.82
429.454	183.98
429.662	241.32
429.869	208.55
430.076	140.97
430.284	163.5
430.491	261.8
430.699	274.09
430.906	229.03
431.114	196.26
431.321	249.51
431.528	220.84
431.736	173.74
431.943	145.06
432.15	239.27
432.358	183.98
432.565	267.94
432.772	75.43
432.979	306.85
433.187	200.36
433.394	290.47
433.601	231.08
433.808	241.32
434.016	341.67
434.223	237.22
434.43	278.18
434.637	233.13
434.844	325.29
435.052	353.96
435.259	300.71
435.466	382.63
435.673	384.68
435.88	343.72
436.087	360.1
436.294	493.22
436.501	310.95
436.708	417.44
436.915	345.77
437.122	446.12
437.329	366.25
437.537	356.01
437.743	523.94
437.95	478.88
438.157	487.08
438.364	612
438.571	532.13
438.778	544.42
438.985	575.14
439.192	644.77
439.399	589.47
439.606	691.87
439.813	702.11
440.02	716.45
440.227	790.17
440.433	689.82
440.64	667.3
440.847	636.58
441.054	798.37
441.261	923.29
441.467	812.7
441.674	777.89
441.881	911
442.088	827.04
442.294	945.82
442.501	962.2
442.708	1126.04
442.914	1003.16
443.121	1107.61
443.328	1083.03
443.534	1148.57
443.741	1175.19
443.948	1054.36
444.154	1379.99
444.361	1468.05
444.568	1322.65
444.774	1427.09
444.981	1310.36
445.187	1609.36
445.394	1629.84
445.6	1527.44
445.807	1705.62
446.013	1666.71
446.22	1658.51
446.426	1760.91
446.633	1978
446.839	2170.51
447.046	1904.27
447.252	2264.71
447.459	2246.28
447.665	2272.9
447.871	2303.62
448.078	2553.48
448.284	2543.24
448.491	2477.7
448.697	2772.61
448.903	2940.54
449.11	2928.25
449.316	2993.79
449.522	3214.97
449.728	3321.46
449.935	3303.03
450.141	3430.01
450.347	3794.54
450.553	3499.64
450.76	3622.52
450.966	3950.19
451.172	3864.18
451.378	4320.87
451.584	4302.44
451.791	4515.43
451.997	4720.23
452.203	4703.84
452.409	4929.12
452.615	5088.86
452.821	5021.28
453.027	5111.39
453.233	5963.34
453.44	5686.87
453.646	5924.43
453.852	6188.62
454.058	6456.9
454.264	6678.08
454.47	7142.97
454.676	7087.68
454.882	7577.14
455.088	7335.48
455.294	7650.87
455.5	8039.98
455.705	8699.43
455.911	8748.58
456.117	8914.47
456.323	9379.36
456.529	9262.62
456.735	10102.29
456.941	10223.12
457.147	10847.75
457.352	11079.17
457.558	11382.27
457.764	12152.31
457.97	12408.3
458.176	12873.19
458.381	13675.99
458.587	13809.11
458.793	14546.38
458.999	14544.33
459.204	16197.04
459.41	16895.4
459.616	16932.26
459.821	17604
460.027	18609.55
460.233	18857.35
460.438	19230.09
460.644	20403.57
460.85	20372.85
461.055	21615.97
461.261	22281.56
461.466	22256.98
461.672	22392.15
461.878	25183.53
462.083	24675.63
462.289	25105.71
462.494	26424.6
462.7	26404.12
462.905	26828.05
463.111	28574.97
463.316	30444.76
463.522	30780.63
463.727	31673.54
463.932	33117.36
464.138	34061.47
464.343	35521.68
464.549	35853.45
464.754	37934.18
464.959	39007.32
465.165	40420.42
465.37	39392.34
465.575	39844.94
465.781	42593.31
465.986	43410.45
466.191	43131.93
466.397	43088.92
466.602	42365.99
466.807	44737.54
467.012	45429.75
467.218	45931.5
467.423	46013.42
467.628	47508.44
467.833	49935.28
468.038	48669.64
468.244	48108.49
468.449	50222
468.654	49484.73
468.859	49433.53
469.064	49603.51
469.269	48141.26
469.474	48632.77
469.679	50115.5
469.885	48454.6
470.09	49593.27
470.295	49497.02
470.5	48382.92
470.705	48575.43
470.91	47571.92
471.115	46988.25
471.32	47780.82
471.525	47047.64
471.73	46230.51
471.935	45546.48
472.139	44229.64
472.344	44270.6
472.549	44100.62
472.754	42771.49
472.959	42013.74
473.164	40991.8
473.369	40264.77
473.574	41333.81
473.778	40563.78
473.983	39920.71
474.188	38866.01
474.393	36998.26
474.598	37176.44
474.802	36340.86
475.007	35826.82
475.212	35476.62
475.417	34118.82
475.621	33893.54
475.826	34063.52
476.031	32502.97
476.235	32148.67
476.44	32042.18
476.645	30778.58
476.849	31204.56
477.054	30584.02
477.259	29422.83
477.463	29758.69
477.668	28808.44
477.872	28945.65
478.077	28165.37
478.282	27303.18
478.486	27288.84
478.691	27036.94
478.895	26459.41
479.1	26352.92
479.304	26342.68
479.509	25355.56
479.713	25935.13
479.918	24984.88
480.122	24634.67
480.326	24997.17
480.531	24737.07
480.735	24681.78
480.94	24180.03
481.144	24966.45
481.348	23373.13
481.553	23747.9
481.757	23045.45
481.961	23272.78
482.166	23356.74
482.37	23102.79
482.574	22680.91
482.778	22519.12
482.983	22619.47
483.187	22291.8
483.391	22273.37
483.595	21804.38
483.8	21689.7
484.004	21769.57
484.208	21521.76
484.412	21364.07
484.616	21144.94
484.821	20837.74
485.025	20206.97
485.229	20516.21
485.433	20061.56
485.637	19817.85
485.841	19473.79
486.045	19565.95
486.249	19332.48
486.453	18615.69
486.657	18607.5
486.861	18281.88
487.065	18091.41
487.269	17903
487.473	17235.36
487.677	17315.23
487.881	17212.84
488.085	16680.36
488.289	16350.64
488.493	15850.94
488.697	15928.76
488.901	15584.7
489.105	15160.77
489.309	15068.61
489.512	14749.13
489.716	14509.52
489.92	13975
490.124	13870.55
490.328	13698.52
490.531	13430.24
490.735	13067.75
490.939	13006.31
491.143	12674.54
491.346	12522.99
491.55	12379.63
491.754	12056.05
491.958	12115.44
492.161	11890.17
492.365	11466.24
492.569	11361.79
492.772	11169.28
492.976	11093.51
493.18	10870.28
493.383	10788.36
493.587	10626.57
493.79	10477.07
493.994	10202.64
494.197	10274.32
494.401	10200.59
494.605	10049.04
494.808	10247.69
495.012	9907.73
495.215	9911.83
495.419	9649.69
495.622	9625.11
495.825	9610.78
496.029	9410.08
496.232	9541.15
496.436	9403.93
496.639	9498.14
496.843	9266.72
497.046	9291.29
497.249	9594.39
497.453	9403.93
497.656	9436.7
497.859	9307.68
498.063	9354.78
498.266	9549.34
498.469	9379.36
498.673	9383.45
498.876	9457.18
499.079	9522.71
499.282	9444.89
499.485	9883.16
499.689	9584.15
499.892	9547.29
500.095	9735.7
500.298	9676.31
500.501	9766.42
500.705	9928.21
500.908	9960.98
501.111	9987.6
501.314	10065.43
501.517	10102.29
501.72	10284.56
501.923	10124.82
502.126	10173.97
502.329	10638.86
502.532	10511.88
502.735	10683.91
502.938	10874.37
503.141	10827.27
503.344	11025.92
503.547	11253.25
503.75	11204.1
503.953	11437.56
504.156	11601.4
504.359	11849.21
504.562	11806.2
504.765	11947.51
504.968	12146.16
505.17	12348.91
505.373	12357.1
505.576	12776.94
505.779	12938.73
505.982	12924.39
506.185	13385.18
506.387	13506.01
506.59	13665.75
506.793	13927.89
506.996	14075.35
507.198	14656.97
507.401	14663.11
507.604	15160.77
507.807	15465.92
508.009	15506.88
508.212	15746.49
508.415	16043.45
508.617	16321.97
508.82	16700.84
509.022	16901.54
509.225	17106.34
509.428	17661.34
509.63	18122.13
509.833	18288.02
510.035	19189.13
510.238	19178.89
510.44	19436.93
510.643	20112.76
510.845	20350.32
511.048	21015.91
511.25	21212.52
511.453	21847.39
511.655	22834.51
511.858	22861.13
512.06	23201.1
512.262	23477.57
512.465	23960.89
512.667	24659.25
512.87	25429.29
513.072	25941.28
513.274	26658.07
513.477	27196.68
513.679	27639.04
513.881	28374.27
514.084	28871.92
514.286	29551.85
514.488	29750.5
514.69	30876.88
514.893	31546.57
515.095	32048.32
515.297	32625.85
515.499	33168.56
515.701	34045.09
515.904	34581.66
516.106	35390.61
516.308	36402.3
516.51	36942.97
516.712	37176.44
516.914	38403.17
517.116	39302.23
517.318	39763.02
517.52	40780.86
517.722	41014.33
517.925	41669.68
518.127	42720.29
518.329	43613.2
518.531	43531.28
518.733	44782.59
518.935	45210.62
519.136	45929.45
519.338	46799.84
519.54	47313.88
519.742	48079.82
519.944	48884.67
520.146	49908.66
520.348	50252.72
520.55	50725.8
520.752	51288.99
520.954	52296.59
521.155	52558.73
521.357	53336.96
521.559	54260.59
521.761	54621.03
521.963	54786.92
522.164	55223.14
522.366	55225.18
522.568	56179.54
522.77	56197.97
522.971	57336.64
523.173	56863.56
523.375	57883.45
523.576	57676.6
523.778	58057.52
523.98	58217.27
524.181	58938.15
524.383	58987.3
524.584	59548.45
524.786	59233.06
524.988	59489.05
525.189	59700
525.391	59937.56
525.592	59781.91
525.794	59513.63
525.995	59472.67
526.197	59482.91
526.398	59603.74
526.6	59587.36
526.801	59667.23
527.003	59489.05
527.204	59077.41
527.406	59433.76
527.607	58979.11
527.808	59216.68
528.01	57844.54
528.211	57871.16
528.412	58043.19
528.614	57488.19
528.815	57357.12
529.016	57318.21
529.218	56476.49
529.419	56140.63
529.62	55845.72
529.822	54668.14
530.023	54776.68
530.224	54014.83
530.425	53609.34
530.626	52953.99
530.828	52249.49
531.029	53195.65
531.23	51411.87
531.431	50975.65
531.632	50592.68
531.833	50379.69
532.035	49476.54
532.236	48954.3
532.437	48550.85
532.638	47864.78
532.839	47365.08
533.04	47303.64
533.241	45435.89
533.442	46271.46
533.643	45052.92
533.844	44684.29
534.045	44119.05
534.246	42980.38
534.447	43211.8
534.648	42150.95
534.849	41763.89
535.05	41296.95
535.251	40922.17
535.451	40035.4
535.652	39533.65
535.853	38689.88
536.054	38679.64
536.255	37872.74
536.456	37815.4
536.657	37454.96
536.857	36437.12
537.058	35681.42
537.259	35724.43
537.46	35218.58
537.66	34522.27
537.861	34671.77
538.062	33682.6
538.263	33625.26
538.463	32834.74
538.664	32224.45
538.865	32220.35
539.065	31839.43
539.266	31433.93
539.466	31362.25
539.667	30653.65
539.868	30479.58
540.068	29852.9
540.269	29953.25
540.469	29373.67
540.67	28935.41
540.87	28634.36
541.071	28392.7
541.271	28235
541.472	27843.84
541.672	27168.01
541.873	27084.05
542.073	26316.06
542.274	26746.13
542.474	26203.42
542.675	25484.58
542.875	25879.84
543.075	24884.53
543.276	24350.01
543.476	25011.5
543.676	24315.19
543.877	24216.89
544.077	24210.75
544.277	23754.05
544.478	23457.09
544.678	23420.23
544.878	22840.65
545.078	22699.34
545.279	22388.05
545.479	21966.17
545.679	21927.26
545.879	21611.87
546.079	21714.27
546.28	20905.32
546.48	20553.07
546.68	20874.6
546.88	20782.45
547.08	20634.99
547.28	19864.96
547.48	19592.58
547.68	19494.27
547.88	19078.54
548.081	18980.23
548.281	18763.15
548.481	18470.29
548.681	18359.7
548.881	18302.36
549.081	17833.37
549.28	17620.38
549.48	17423.78
549.68	17034.66
549.88	17243.56
550.08	16547.25
550.28	16614.83
550.48	16240.05
550.68	16393.65
550.88	15992.25
551.08	15510.97
551.279	15392.19
551.479	15216.07
551.679	14980.55
551.879	14706.12
552.079	14450.13
552.278	14288.34
552.478	14112.21
552.678	13913.56
552.878	13884.89
553.077	13555.16
553.277	13200.87
553.477	13321.7
553.676	13125.09
553.876	12643.82
554.076	12471.79
554.275	12549.61
554.475	11810.29
554.674	11972.08
554.874	11836.92
555.074	11425.28
555.273	11408.89
555.473	11216.38
555.672	10980.87
555.872	10778.12
556.071	10724.87
556.271	10550.79
556.47	10411.53
556.67	10010.13
556.869	9950.74
557.068	9881.11
557.268	9692.69
557.467	9616.92
557.667	9528.86
557.866	9137.7
558.065	9049.63
558.265	9053.73
558.464	8635.94
558.663	8863.27
558.863	8394.28
559.062	8488.49
559.261	8177.2
559.461	8298.03
559.66	7855.67
559.859	7753.27
560.058	7802.42
560.258	7685.69
560.457	7513.66
560.656	7554.62
560.855	7224.89
561.054	7241.28
561.253	7128.64
561.453	6815.3
561.652	6864.45
561.851	6938.18
562.05	6704.71
562.249	6590.02
562.448	6471.24
562.647	6159.95
562.846	6299.21
563.045	6022.73
563.244	6041.17
563.443	6309.45
563.642	5922.38
563.841	5877.33
564.04	5611.09
564.239	5549.65
564.438	5461.59
564.637	5357.14
564.836	5355.1
565.035	5193.31
565.234	5330.52
565.432	5088.86
565.631	5310.04
565.83	5064.29
566.029	4935.26
566.228	4777.57
566.427	4796
566.625	4402.79
566.824	4796
567.023	4599.4
567.222	4425.32
567.42	4505.19
567.619	4482.66
567.818	4298.35
568.016	4404.84
568.215	4279.91
568.414	4173.42
568.612	4075.12
568.811	4134.51
569.01	4116.08
569.208	3835.5
569.407	3855.98
569.605	3931.76
569.804	3792.5
570.002	3796.59
570.201	3612.28
570.4	3540.6
570.598	3587.7
570.797	3378.81
570.995	3378.81
571.193	3333.75
571.392	3395.19
571.59	3290.74
571.789	3296.89
571.987	3362.42
572.186	3266.17
572.384	3108.48
572.582	2928.25
572.781	3133.05
572.979	2961.02
573.177	2907.77
573.376	2926.21
573.574	2887.29
573.772	2737.79
573.971	2696.83
574.169	2629.25
574.367	2664.07
574.565	2674.31
574.763	2616.96
574.962	2580.1
575.16	2399.88
575.358	2571.91
575.556	2320.01
575.754	2524.8
575.952	2348.68
576.151	2342.53
576.349	2367.11
576.547	2311.82
576.745	2254.47
576.943	2334.34
577.141	2135.69
577.339	1928.85
577.537	2143.88
577.735	2238.09
577.933	2082.44
578.131	2078.35
578.329	2111.11
578.527	1853.07
578.725	1957.52
578.923	1791.63
579.121	1832.59
579.319	1715.86
579.516	1805.97
579.714	1918.61
579.912	1693.33
580.11	1650.32
580.308	1607.31
580.506	1654.42
580.704	1484.44
580.901	1615.51
581.099	1791.63
581.297	1574.55
581.495	1601.17
581.692	1427.09
581.89	1654.42
582.088	1486.48
582.285	1490.58
582.483	1402.52
582.681	1455.76
582.878	1386.13
583.076	1453.72
583.274	1363.61
583.471	1500.82
583.669	1466
583.866	1212.06
584.064	1257.11
584.262	1183.38
584.459	1240.73
584.657	1293.97
584.854	1353.37
585.052	1134.23
585.249	1216.15
585.447	1191.58
585.644	1052.31
585.841	1222.3
586.039	1150.62
586.236	1101.47
586.434	1162.9
586.631	1013.4
586.828	1021.6
587.026	1011.36
587.223	902.81
587.42	1003.16
587.618	1058.46
587.815	1130.14
588.012	982.68
588.21	978.59
588.407	960.16
588.604	958.11
588.801	831.13
588.999	896.67
589.196	1115.8
589.393	951.96
589.59	880.29
589.787	904.86
589.984	970.4
590.182	992.92
590.379	824.99
590.576	900.76
590.773	814.75
590.97	847.52
591.167	896.67
591.364	931.48
591.561	829.09
591.758	970.4
591.955	878.24
592.152	741.02
592.349	892.57
592.546	888.48
592.743	847.52
592.94	820.89
593.137	798.37
593.334	1019.55
593.531	970.4
593.727	902.81
593.924	904.86
594.121	806.56
594.318	829.09
594.515	933.53
594.712	913.05
594.908	972.44
595.105	849.57
595.302	978.59
595.499	925.34
595.696	997.02
595.892	847.52
596.089	1134.23
596.286	917.15
596.482	1148.57
596.679	1087.13
596.876	1033.88
597.072	1195.67
597.269	1183.38
597.466	1089.18
597.662	1183.38
597.859	1281.69
598.055	1289.88
598.252	1293.97
598.448	1474.2
598.645	1597.07
598.841	1535.64
599.038	1590.93
599.234	1658.51
599.431	1683.09
599.627	1787.54
599.824	1846.93
600.02	1773.2
600.217	1920.65
600.413	1830.54
600.609	1986.19
600.806	2365.06
601.002	2285.19
601.198	2201.23
601.395	2457.22
601.591	2465.41
601.787	2524.8
601.984	2764.42
602.18	2815.62
602.376	2788.99
602.572	2938.49
602.769	3069.56
602.965	3284.6
603.161	3233.4
603.357	3354.23
603.553	3567.22
603.75	3714.67
603.946	3714.67
604.142	3745.39
604.338	4103.79
604.534	4157.04
604.73	4163.18
604.926	4349.54
605.122	4619.88
605.318	4630.12
605.514	4808.29
605.71	4892.26
605.906	5346.91
606.102	5178.97
606.298	5666.39
606.494	5662.29
606.69	5891.66
606.886	5881.42
607.082	6102.61
607.278	6297.16
607.474	6401.61
607.67	6827.59
607.866	6712.9
608.062	6932.03
608.257	7159.36
608.453	7362.11
608.649	7605.81
608.845	7761.46
609.041	7929.39
609.236	8187.44
609.432	8449.58
609.628	8787.49
609.824	8908.32
610.019	9213.47
610.215	9192.99
610.411	9641.5
610.606	10290.7
610.802	10184.21
610.998	10470.92
611.193	10694.15
611.389	10796.55
611.584	11365.89
611.78	11458.04
611.976	11734.52
612.171	12332.53
612.367	12504.56
612.562	12748.26
612.758	13018.6
612.953	13315.55
613.149	13788.63
613.344	14052.82
613.539	14476.75
613.735	15130.05
613.93	15504.83
614.126	15730.11
614.321	16156.08
614.517	16625.07
614.712	16934.31
614.907	17304.99
615.103	17808.79
615.298	18310.55
615.493	18961.8
615.688	19109.26
615.884	20157.82
616.079	19965.31
616.274	20993.39
616.47	21527.91
616.665	22007.13
616.86	22613.33
617.055	22738.26
617.25	23143.75
617.445	24053.05
617.641	24329.53
617.836	25414.95
618.031	25865.5
618.226	26500.37
618.421	27065.61
618.616	27952.38
618.811	28427.51
619.006	29555.94
619.201	29441.26
619.396	30446.81
619.591	30665.94
619.786	31597.77
619.981	31970.5
620.176	33107.12
620.371	33449.13
620.566	34469.02
620.761	34598.04
620.956	35660.94
621.151	36000.9
621.346	37158
621.541	37024.89
621.735	38517.85
621.93	39085.14
622.125	40049.74
622.32	39896.14
622.515	41325.62
622.709	41847.85
622.904	43029.53
623.099	43172.89
623.294	43754.51
623.488	44473.35
623.683	45587.44
623.878	45822.96
624.072	46801.89
624.267	47809.49
624.462	48176.08
624.656	48843.71
624.851	49515.45
625.046	50379.69
625.24	51385.24
625.435	51368.86
625.629	52433.8
625.824	53058.43
626.018	53400.44
626.213	53246.85
626.407	54858.6
626.602	54905.7
626.796	55911.25
626.991	56021.84
627.185	56433.49
627.38	56845.13
627.574	57105.22
627.768	56834.89
627.963	57226.05
628.157	57504.57
628.352	58114.87
628.546	57635.64
628.74	58637.1
628.935	57996.09
629.129	58217.27
629.323	57275.2
629.517	57832.25
629.712	56935.24
629.906	57015.11
630.1	56062.8
630.294	55444.32
630.489	55014.24
630.683	54911.84
630.877	53322.62
631.071	52417.42
631.265	52093.84
631.459	51159.97
631.653	50002.86
631.848	48886.72
632.042	47702.99
632.236	47256.54
632.43	45175.8
632.624	44729.34
632.818	43289.62
633.012	41606.19
633.206	40711.23
633.4	39842.89
633.594	37788.78
633.788	37084.28
633.982	35415.18
634.176	34428.06
634.369	33197.23
634.563	32068.8
634.757	30565.59
634.951	29773.03
635.145	28398.84
635.339	27323.66
635.533	25867.55
635.726	25476.39
635.92	23940.41
636.114	23172.43
636.308	22123.87
636.501	21497.19
636.695	20569.46
636.889	19398.02
637.083	18904.46
637.276	18273.68
637.47	17397.15
637.664	16471.47
637.857	15924.66
638.051	15371.71
638.244	14560.72
638.438	13964.76
638.632	13479.39
638.825	12774.89
639.019	12656.11
639.212	12144.11
639.406	11720.18
639.599	11175.42
639.793	10819.08
639.986	10155.54
640.18	9844.24
640.373	9459.23
640.567	9016.87
640.76	8721.96
640.954	8547.88
641.147	8107.57
641.34	7767.6
641.534	7566.9
641.727	7448.12
641.92	7085.63
642.114	6594.12
642.307	6417.99
642.5	6350.41
642.694	5987.92
642.887	5836.37
643.08	5750.35
643.273	5494.36
643.467	5058.14
643.66	4804.19
643.853	4722.27
644.046	4523.62
644.239	4345.45
644.432	4208.23
644.626	4023.92
644.819	3819.12
645.012	3763.83
645.205	3743.35
645.398	3473.01
645.591	3272.31
645.784	3264.12
645.977	3100.28
646.17	3038.84
646.363	2821.76
646.556	2735.74
646.749	2670.21
646.942	2645.63
647.135	2508.42
647.328	2279.05
647.521	2289.29
647.714	2307.72
647.907	2188.94
648.099	1980.04
648.292	2035.34
648.485	1969.8
648.678	1758.86
648.871	1787.54
649.064	1732.24
649.256	1529.49
649.449	1609.36
649.642	1466
649.835	1412.76
650.027	1361.56
650.22	1402.52
650.413	1416.85
650.605	1285.78
650.798	1240.73
650.991	1277.59
651.183	1150.62
651.376	1074.84
651.568	1093.27
651.761	1060.51
651.954	1040.03
652.146	980.64
652.339	1066.65
652.531	960.16
652.724	851.61
652.916	847.52
653.109	708.26
653.301	851.61
653.494	939.68
653.686	761.5
653.879	812.7
654.071	841.37
654.263	675.49
654.456	812.7
654.648	804.51
654.84	691.87
655.033	630.43
655.225	790.17
655.417	523.94
655.61	698.02
655.802	652.96
655.994	601.76
656.186	468.64
656.379	571.04
656.571	515.75
656.763	433.83
656.955	388.77
657.148	452.26
657.34	525.99
657.532	478.88
657.724	347.81
657.916	519.84
658.108	417.44
658.3	450.21
658.492	415.4
658.684	409.25
658.876	505.51
659.068	327.33
659.26	331.43
659.452	353.96
659.644	392.87
659.836	560.8
660.028	425.64
660.22	372.39
660.412	353.96
660.604	341.67
660.796	356.01
660.988	405.16
661.18	296.61
661.372	325.29
661.563	321.19
661.755	351.91
661.947	257.7
662.139	272.04
662.331	284.33
662.522	329.38
662.714	290.47
662.906	216.74
663.097	327.33
663.289	218.79
663.481	257.7
663.673	278.18
663.864	302.76
664.056	333.48
664.247	237.22
664.439	263.85
664.631	296.61
664.822	306.85
665.014	282.28
665.205	183.98
665.397	239.27
665.588	198.31
665.78	237.22
665.971	331.43
666.163	257.7
666.354	253.61
666.546	224.94
666.737	241.32
666.929	151.21
667.12	224.94
667.311	343.72
667.503	188.07
667.694	261.8
667.885	315.05
668.077	210.6
668.268	52.91
668.459	245.41
668.651	274.09
668.842	249.51
669.033	190.12
669.224	173.74
669.416	372.39
669.607	233.13
669.798	224.94
669.989	253.61
670.18	181.93
670.371	265.89
670.563	128.68
670.754	265.89
670.945	298.66
671.136	315.05
671.327	249.51
671.518	265.89
671.709	374.44
671.9	253.61
672.091	286.37
672.282	245.41
672.473	251.56
672.664	198.31
672.855	233.13
673.046	224.94
673.237	263.85
673.428	280.23
673.619	372.39
673.809	155.3
674	329.38
674.191	298.66
674.382	247.46
674.573	163.5
674.764	335.53
674.954	323.24
675.145	188.07
675.336	247.46
675.527	194.22
675.717	126.63
675.908	167.59
676.099	216.74
676.289	239.27
676.48	114.34
676.671	288.42
676.861	226.98
677.052	356.01
677.243	196.26
677.433	257.7
677.624	331.43
677.814	284.33
678.005	140.97
678.195	298.66
678.386	282.28
678.576	247.46
678.767	222.89
678.957	325.29
679.148	249.51
679.338	347.81
679.529	259.75
679.719	267.94
679.909	409.25
680.1	327.33
680.29	280.23
680.481	335.53
680.671	310.95
680.861	310.95
681.052	356.01
681.242	282.28
681.432	446.12
681.622	360.1
681.813	224.94
682.003	319.14
682.193	294.57
682.383	319.14
682.573	300.71
682.764	257.7
682.954	319.14
683.144	356.01
683.334	257.7
683.524	335.53
683.714	306.85
683.904	423.59
684.094	280.23
684.284	317.09
684.474	452.26
684.664	390.82
684.854	376.48
685.044	292.52
685.234	356.01
685.424	382.63
685.614	286.37
685.804	462.5
685.994	444.07
686.184	378.53
686.374	409.25
686.564	380.58
686.753	392.87
686.943	360.1
687.133	356.01
687.323	368.29
687.513	386.72
687.702	337.57
687.892	374.44
688.082	358.05
688.272	386.72
688.461	296.61
688.651	450.21
688.841	411.3
689.03	335.53
689.22	347.81
689.41	401.06
689.599	345.77
689.789	298.66
689.979	378.53
690.168	290.47
690.358	417.44
690.547	327.33
690.737	302.76
690.926	329.38
691.116	384.68
691.305	396.96
691.495	319.14
691.684	382.63
691.874	337.57
692.063	349.86
692.252	370.34
692.442	364.2
692.631	288.42
692.82	374.44
693.01	382.63
693.199	298.66
693.388	444.07
693.578	360.1
693.767	462.5
693.956	419.49
694.146	323.24
694.335	356.01
694.524	274.09
694.713	339.62
694.902	327.33
695.092	356.01
695.281	421.54
695.47	304.81
695.659	351.91
695.848	372.39
696.037	259.75
696.226	386.72
696.415	364.2
696.604	413.35
696.793	388.77
696.982	364.2
697.171	417.44
697.36	259.75
697.549	333.48
697.738	265.89
697.927	315.05
698.116	235.18
698.305	411.3
698.494	304.81
698.683	333.48
698.872	425.64
699.061	343.72
699.25	294.57
699.438	304.81
699.627	278.18
699.816	470.69
700.005	245.41
700.193	315.05
700.382	417.44
700.571	335.53
700.76	327.33
700.948	341.67
701.137	294.57
701.326	335.53
701.514	265.89
701.703	378.53
701.892	300.71
702.08	446.12
702.269	315.05
702.457	265.89
702.646	401.06
702.834	255.65
703.023	446.12
703.212	358.05
703.4	388.77
703.589	323.24
703.777	253.61
703.965	378.53
704.154	302.76
704.342	337.57
704.531	233.13
704.719	306.85
704.907	405.16
705.096	276.13
705.284	206.5
705.472	331.43
705.661	323.24
705.849	282.28
706.037	394.92
706.226	345.77
706.414	405.16
706.602	347.81
706.79	364.2
706.979	253.61
707.167	392.87
707.355	226.98
707.543	364.2
707.731	337.57
707.919	298.66
708.107	263.85
708.296	333.48
708.484	214.7
708.672	284.33
708.86	378.53
709.048	282.28
709.236	313
709.424	331.43
709.612	345.77
709.8	310.95
709.988	327.33
710.176	384.68
710.364	491.17
710.551	327.33
710.739	341.67
710.927	296.61
711.115	366.25
711.303	358.05
711.491	454.31
711.679	265.89
711.866	335.53
712.054	261.8
712.242	360.1
712.43	384.68
712.617	323.24
712.805	433.83
712.993	370.34
713.181	198.31
713.368	280.23
713.556	351.91
713.744	290.47
713.931	439.97
714.119	380.58
714.306	282.28
714.494	347.81
714.682	319.14
714.869	239.27
715.057	349.86
715.244	259.75
715.432	536.23
715.619	300.71
715.807	327.33
715.994	370.34
716.182	376.48
716.369	474.79
716.556	339.62
716.744	317.09
716.931	368.29
717.119	380.58
717.306	382.63
717.493	437.92
717.681	335.53
717.868	253.61
718.055	437.92
718.242	306.85
718.43	358.05
718.617	403.11
718.804	378.53
718.991	386.72
719.179	325.29
719.366	450.21
719.553	356.01
719.74	280.23
719.927	337.57
720.114	315.05
720.301	329.38
720.488	374.44
720.676	302.76
720.863	468.64
721.05	485.03
721.237	405.16
721.424	462.5
721.611	384.68
721.798	339.62
721.985	302.76
722.172	374.44
722.358	362.15
722.545	345.77
722.732	380.58
722.919	392.87
723.106	403.11
723.293	372.39
723.48	401.06
723.667	351.91
723.853	437.92
724.04	458.4
724.227	347.81
724.414	331.43
724.6	444.07
724.787	454.31
724.974	493.22
725.161	337.57
725.347	341.67
725.534	372.39
725.72	433.83
725.907	466.6
726.094	360.1
726.28	384.68
726.467	288.42
726.653	319.14
726.84	515.75
727.027	442.02
727.213	372.39
727.4	356.01
727.586	474.79
727.773	384.68
727.959	411.3
728.145	384.68
728.332	454.31
728.518	437.92
728.705	460.45
728.891	343.72
729.077	485.03
729.264	401.06
729.45	368.29
729.636	435.88
729.823	437.92
730.009	413.35
730.195	372.39
730.382	491.17
730.568	407.2
730.754	413.35
730.94	433.83
731.126	470.69
731.313	462.5
731.499	335.53
731.685	446.12
731.871	462.5
732.057	343.72
732.243	423.59
732.429	462.5
732.615	470.69
732.801	466.6
732.987	435.88
733.173	327.33
733.359	413.35
733.545	536.23
733.731	503.46
733.917	558.75
734.103	452.26
734.289	425.64
734.475	411.3
734.661	523.94
734.847	442.02
735.033	540.32
735.219	462.5
735.404	487.08
735.59	411.3
735.776	491.17
735.962	407.2
736.148	505.51
736.333	538.27
736.519	452.26
736.705	396.96
736.89	470.69
737.076	433.83
737.262	368.29
737.447	413.35
737.633	427.68
737.819	519.84
738.004	450.21
738.19	495.27
738.375	396.96
738.561	444.07
738.747	466.6
738.932	388.77
739.118	556.71
739.303	499.36
739.489	495.27
739.674	388.77
739.859	429.73
740.045	536.23
740.23	421.54
740.416	374.44
740.601	401.06
740.786	519.84
740.972	378.53
741.157	411.3
741.342	382.63
741.528	437.92
741.713	521.89
741.898	431.78
742.084	485.03
742.269	376.48
742.454	538.27
742.639	472.74
742.824	480.93
743.01	495.27
743.195	530.08
743.38	442.02
743.565	419.49
743.75	503.46
743.935	472.74
744.12	546.47
744.305	347.81
744.49	427.68
744.675	450.21
744.86	460.45
745.045	466.6
745.23	482.98
745.415	509.6
745.6	519.84
745.785	396.96
745.97	548.51
746.155	421.54
746.34	501.41
746.525	392.87
746.71	474.79
746.895	329.38
747.079	366.25
747.264	437.92
747.449	519.84
747.634	519.84
747.819	427.68
748.003	374.44
748.188	315.05
748.373	388.77
748.557	374.44
748.742	419.49
748.927	351.91
749.111	417.44
749.296	372.39
749.481	423.59
749.665	384.68
749.85	339.62
750.034	452.26
750.219	427.68
750.404	298.66
750.588	380.58
750.773	364.2
750.957	331.43
751.141	384.68
751.326	399.01
751.51	304.81
751.695	298.66
751.879	388.77
752.064	480.93
752.248	370.34
752.432	372.39
752.617	372.39
752.801	419.49
752.985	274.09
753.17	362.15
753.354	411.3
753.538	362.15
753.722	288.42
753.907	222.89
754.091	290.47
754.275	396.96
754.459	282.28
754.643	233.13
754.828	302.76
755.012	356.01
755.196	206.5
755.38	323.24
755.564	263.85
755.748	308.9
755.932	294.57
756.116	343.72
756.3	247.46
756.484	255.65
756.668	335.53
756.852	306.85
757.036	284.33
757.22	272.04
757.404	235.18
757.588	200.36
757.772	259.75
757.956	231.08
758.14	345.77
758.323	243.37
758.507	325.29
758.691	241.32
758.875	358.05
759.059	302.76
759.242	190.12
759.426	296.61
759.61	272.04
759.794	265.89
759.977	226.98
760.161	499.36
760.345	396.96
760.528	288.42
760.712	167.59
760.895	296.61
761.079	269.99
761.263	241.32
761.446	200.36
761.63	237.22
761.813	310.95
761.997	200.36
762.18	194.22
762.364	214.7
762.547	163.5
762.731	231.08
762.914	276.13
763.098	204.46
763.281	159.4
763.464	159.4
763.648	214.7
763.831	214.7
764.015	202.41
764.198	257.7
764.381	192.17
764.564	159.4
764.748	233.13
764.931	239.27
765.114	216.74
765.297	257.7
765.481	118.44
765.664	138.92
765.847	145.06
766.03	243.37
766.213	163.5
766.397	177.83
766.58	114.34
766.763	257.7
766.946	218.79
767.129	175.78
767.312	130.73
767.495	233.13
767.678	140.97
767.861	245.41
768.044	198.31
768.227	200.36
768.41	198.31
768.593	179.88
768.776	196.26
768.959	188.07
769.142	290.47
769.324	171.69
769.507	224.94
769.69	186.02
769.873	167.59
770.056	351.91
770.239	155.3
770.421	224.94
770.604	222.89
770.787	134.82
770.97	214.7
771.152	95.91
771.335	259.75
771.518	124.58
771.7	249.51
771.883	308.9
772.066	106.15
772.248	120.49
772.431	175.78
772.613	229.03
772.796	186.02
772.978	134.82
773.161	249.51
773.343	181.93
773.526	151.21
773.708	50.86
773.891	97.96
774.073	157.35
774.256	200.36
774.438	220.84
774.621	183.98
774.803	106.15
774.985	114.34
775.168	220.84
775.35	169.64
775.532	192.17
775.715	106.15
775.897	159.4
776.079	116.39
776.261	161.45
776.444	126.63
776.626	75.43
776.808	114.34
776.99	112.3
777.173	67.24
777.355	118.44
777.537	165.54
777.719	102.06
777.901	69.29
778.083	83.63
778.265	20.14
778.447	136.87
778.629	48.81
778.811	177.83
778.993	118.44
779.175	231.08
779.357	104.11
779.539	91.82
779.721	161.45
779.903	110.25
780.085	143.02
780.267	143.02
780.449	124.58
780.631	235.18
780.812	186.02
780.994	167.59
781.176	100.01
781.358	122.54
781.54	116.39
781.721	253.61
781.903	198.31
782.085	126.63
782.267	143.02
782.448	83.63
782.63	44.71
782.812	194.22
782.993	122.54
783.175	134.82
783.357	134.82
783.538	120.49
783.72	61.1
783.901	188.07
784.083	140.97
784.264	116.39
784.446	20.14
784.627	100.01
784.809	143.02
784.99	26.28
785.172	65.19
785.353	110.25
785.535	181.93
785.716	85.67
785.897	36.52
786.079	57
786.26	118.44
786.441	28.33
786.623	-26.96
786.804	91.82
786.985	126.63
787.167	89.77
787.348	134.82
787.529	57
787.71	204.46
787.891	114.34
788.073	147.11
788.254	1.71
788.435	147.11
788.616	77.48
788.797	-26.96
788.978	95.91
789.159	87.72
789.34	138.92
789.522	122.54
789.703	67.24
789.884	18.09
790.065	136.87
790.246	171.69
790.427	46.76
790.607	198.31
790.788	108.2
790.969	13.99
791.15	61.1
791.331	-14.68
791.512	77.48
791.693	3.75
791.874	-2.39
792.054	272.04
792.235	116.39
792.416	40.62
792.597	36.52
792.778	183.98
792.958	93.87
793.139	114.34
793.32	91.82
793.5	44.71
793.681	151.21
793.862	100.01
794.042	126.63
794.223	-8.53
794.404	-8.53
794.584	26.28
794.765	52.91
794.945	85.67
795.126	114.34
795.306	243.37
795.487	91.82
795.667	52.91
795.848	79.53
796.028	36.52
796.209	118.44
796.389	85.67
796.57	110.25
796.75	118.44
796.93	65.19
797.111	44.71
797.291	52.91
797.471	110.25
797.652	34.47
797.832	52.91
798.012	140.97
798.192	57
798.373	-22.87
798.553	18.09
798.733	110.25
798.913	-24.92
799.093	57
799.274	59.05
799.454	118.44
799.634	124.58
799.814	87.72
799.994	42.67
800.174	108.2
800.354	7.85
800.534	-80.21
800.714	143.02
800.894	1.71
801.074	-37.2
801.254	40.62
801.434	100.01
801.614	65.19
801.794	34.47
801.974	1484.44
802.154	32.43
802.334	138.92
802.514	46.76
802.693	24.23
802.873	-12.63
803.053	143.02
803.233	73.39
803.413	20.14
803.592	28.33
803.772	59.05
803.952	114.34
804.131	-59.73
804.311	122.54
804.491	87.72
804.67	30.38
804.85	-37.2
805.03	79.53
805.209	149.16
805.389	-20.82
805.568	-61.78
805.748	34.47
805.928	75.43
806.107	85.67
806.287	44.71
806.466	69.29
806.646	44.71
806.825	28.33
807.004	44.71
807.184	91.82
807.363	71.34
807.543	93.87
807.722	-4.44
807.901	149.16
808.081	151.21
808.26	-98.64
808.439	132.78
808.619	59.05
808.798	97.96
808.977	42.67
809.156	110.25
809.336	24.23
809.515	110.25
809.694	18.09
809.873	48.81
810.052	-35.16
810.231	153.26
810.411	93.87
810.59	22.19
810.769	59.05
810.948	89.77
811.127	-100.69
811.306	1.71
811.485	54.95
811.664	212.65
811.843	28.33
812.022	126.63
812.201	30.38
812.38	59.05
812.559	9.9
812.737	108.2
812.916	81.58
813.095	75.43
813.274	77.48
813.453	32.43
813.632	106.15
813.811	71.34
813.989	-41.3
814.168	67.24
814.347	1.71
814.526	20.14
814.704	89.77
814.883	26.28
815.062	85.67
815.24	91.82
815.419	-8.53
815.598	57
815.776	20.14
815.955	48.81
816.133	-39.25
816.312	83.63
816.49	69.29
816.669	61.1
816.847	1.71
817.026	71.34
817.204	48.81
817.383	95.91
817.561	-39.25
817.74	124.58
817.918	97.96
818.097	40.62
818.275	69.29
818.453	87.72
818.632	61.1
818.81	40.62
818.988	7.85
819.167	-6.49
819.345	24.23
819.523	24.23
819.701	9.9
819.879	89.77
820.058	42.67
820.236	106.15
820.414	-18.77
820.592	65.19
820.77	48.81
820.948	1.71
821.127	-18.77
821.305	100.01
821.483	-18.77
821.661	48.81
821.839	-6.49
822.017	32.43
822.195	54.95
822.373	63.15
822.551	65.19
822.729	118.44
822.907	54.95
823.085	79.53
823.262	145.06
823.44	108.2
823.618	52.91
823.796	77.48
823.974	-22.87
824.152	69.29
824.329	52.91
824.507	85.67
824.685	91.82
824.863	100.01
825.04	-10.58
825.218	140.97
825.396	116.39
825.574	63.15
825.751	83.63
825.929	48.81
826.107	-63.83
826.284	75.43
826.462	83.63
826.639	-63.83
826.817	-6.49
826.994	42.67
827.172	-12.63
827.349	112.3
827.527	100.01
827.704	44.71
827.882	69.29
828.059	7.85
828.237	69.29
828.414	75.43
828.591	-51.54
828.769	40.62
828.946	-67.92
829.124	140.97
829.301	61.1
829.478	-29.01
829.655	97.96
829.833	50.86
830.01	-41.3
830.187	40.62
830.364	-4.44
830.542	91.82
830.719	97.96
830.896	71.34
831.073	100.01
831.25	106.15
831.427	81.58
831.604	69.29
831.782	7.85
831.959	73.39
832.136	42.67
832.313	44.71
832.49	-78.16
832.667	85.67
832.844	85.67
833.021	140.97
833.198	30.38
833.374	46.76
833.551	85.67
833.728	-65.88
833.905	83.63
834.082	-57.68
834.259	9.9
834.436	183.98
834.612	48.81
834.789	138.92
834.966	54.95
835.143	48.81
835.319	-6.49
835.496	91.82
835.673	65.19
835.85	65.19
836.026	40.62
836.203	108.2
836.38	-16.73
836.556	3.75
836.733	-37.2
836.909	108.2
837.086	-0.34
837.262	-26.96
837.439	34.47
837.616	-2.39
837.792	-12.63
837.968	7.85
838.145	-2.39
838.321	1.71
838.498	85.67
838.674	28.33
838.851	65.19
839.027	48.81
839.203	36.52
839.38	18.09
839.556	11.95
839.732	44.71
839.909	9.9
840.085	128.68
840.261	50.86
840.437	28.33
840.614	36.52
840.79	63.15
840.966	73.39
841.142	75.43
841.318	44.71
841.494	85.67
841.671	77.48
841.847	-8.53
842.023	28.33
842.199	-6.49
842.375	155.3
842.551	-55.64
842.727	20.14
842.903	114.34
843.079	95.91
843.255	122.54
843.431	46.76
843.607	-10.58
843.783	-160.08
843.959	77.48
844.134	-65.88
844.31	147.11
844.486	30.38
844.662	-51.54
844.838	20.14
845.013	120.49
845.189	87.72
845.365	52.91
845.541	69.29
845.716	89.77
845.892	124.58
846.068	-20.82
846.244	-47.44
846.419	1.71
846.595	-69.97
846.77	-6.49
846.946	61.1
847.122	7.85
847.297	20.14
847.473	89.77
847.648	-86.36
847.824	69.29
847.999	-67.92
848.175	3.75
848.35	85.67
848.526	81.58
848.701	7.85
848.876	102.06
849.052	104.11
849.227	28.33
849.403	-61.78
849.578	24.23
849.753	42.67
849.929	-24.92
850.104	-12.63
850.279	89.77
850.454	79.53
850.63	26.28
850.805	65.19
850.98	18.09
851.155	18.09
851.33	52.91
851.505	11.95
851.681	93.87
851.856	-31.06
852.031	59.05
852.206	18.09
852.381	-39.25
852.556	30.38
852.731	52.91
852.906	52.91
853.081	-33.11
853.256	126.63
853.431	67.24
853.606	-0.34
853.781	13.99
853.956	-80.21
854.131	67.24
854.305	16.04
854.48	-24.92
854.655	-43.35
854.83	69.29
855.005	28.33
855.18	28.33
855.354	59.05
855.529	89.77
855.704	38.57
855.879	118.44
856.053	5.8
856.228	18.09
856.403	20.14
856.577	57
856.752	-104.79
856.926	110.25
857.101	-8.53
857.276	-47.44
857.45	22.19
857.625	116.39
857.799	-0.34
857.974	38.57
858.148	-39.25
858.323	-14.68
858.497	11.95
858.672	20.14
858.846	-8.53
859.02	-78.16
859.195	3.75
859.369	-65.88
859.543	69.29
859.718	28.33
859.892	52.91
860.066	52.91
860.241	71.34
860.415	44.71
860.589	-80.21
860.763	42.67
860.938	-59.73
861.112	44.71
861.286	79.53
861.46	73.39
861.634	-12.63
861.808	75.43
861.982	-102.74
862.157	-26.96
862.331	-4.44
862.505	32.43
862.679	-0.34
862.853	-8.53
863.027	28.33
863.201	138.92
863.375	-12.63
863.549	75.43
863.722	20.14
863.896	132.78
864.07	-31.06
864.244	7.85
864.418	16.04
864.592	-2.39
864.766	75.43
864.939	30.38
865.113	11.95
865.287	83.63
865.461	36.52
865.634	93.87
865.808	11.95
865.982	-57.68
866.156	102.06
866.329	-51.54
866.503	3.75
866.676	81.58
866.85	50.86
867.024	-61.78
867.197	50.86
867.371	106.15
867.544	59.05
867.718	-65.88
867.891	108.2
868.065	46.76
868.238	-12.63
868.412	112.3
868.585	-72.02
868.759	5.8
868.932	-12.63
869.105	-49.49
869.279	3.75
869.452	32.43
869.625	34.47
869.799	-2.39
869.972	-12.63
870.145	28.33
870.319	61.1
870.492	-41.3
870.665	67.24
870.838	-90.45
871.011	-8.53
871.185	-72.02
871.358	20.14
871.531	116.39
871.704	-12.63
871.877	3.75
872.05	57
872.223	-69.97
872.396	69.29
872.569	44.71
872.742	-41.3
872.915	93.87
873.088	44.71
873.261	-65.88
873.434	-4.44
873.607	-69.97
873.78	65.19
873.953	-31.06
874.126	57
874.299	102.06
874.471	-24.92
874.644	-16.73
874.817	44.71
874.99	122.54
875.163	-31.06
875.335	85.67
875.508	-4.44
875.681	44.71
875.853	-22.87
876.026	65.19
876.199	-10.58
876.371	18.09
876.544	-63.83
876.717	1.71
876.889	-29.01
877.062	-18.77
877.234	-18.77
877.407	-47.44
877.579	11.95
877.752	20.14
877.924	16.04
878.097	91.82
878.269	30.38
878.442	93.87
878.614	-0.34
878.786	42.67
878.959	1.71
879.131	28.33
879.303	-59.73
879.476	11.95
879.648	110.25
879.82	-6.49
879.993	-33.11
880.165	38.57
880.337	-82.26
880.509	32.43
880.681	-69.97
880.854	7.85
881.026	89.77
881.198	143.02
881.37	24.23
881.542	-6.49
881.714	57
881.886	11.95
882.058	9.9
882.23	52.91
882.402	79.53
882.574	24.23
882.746	48.81
882.918	42.67
883.09	34.47
883.262	-22.87
883.434	-22.87
883.606	-49.49
883.778	83.63
883.95	124.58
884.122	11.95
884.293	61.1
884.465	3.75
884.637	65.19
884.809	-26.96
884.98	-41.3
885.152	67.24
885.324	173.74
885.496	-6.49
885.667	-69.97
885.839	-0.34
886.011	85.67
886.182	77.48
886.354	7.85
886.525	59.05
886.697	71.34
886.869	-69.97
887.04	30.38
887.212	32.43
887.383	104.11
887.555	36.52
887.726	-33.11
887.897	3.75
888.069	-2.39
888.24	3.75
888.412	-10.58
888.583	-4.44
888.754	40.62
888.926	-35.16
889.097	-4.44
889.268	-82.26
889.44	46.76
889.611	-20.82
889.782	-24.92
889.953	-61.78
890.125	102.06
890.296	-24.92
890.467	44.71
890.638	1.71
890.809	11.95
890.98	3.75
891.151	42.67
891.323	143.02
891.494	24.23
891.665	-45.4
891.836	5.8
892.007	-10.58
892.178	40.62
892.349	-0.34
892.52	-35.16
892.691	52.91
892.862	1.71
893.032	-69.97
893.203	3.75
893.374	26.28
893.545	89.77
893.716	-45.4
893.887	59.05
894.057	3.75
894.228	-41.3
894.399	-24.92
894.57	61.1
894.74	52.91
894.911	48.81
895.082	28.33
895.253	-24.92
895.423	-55.64
895.594	93.87
895.764	186.02
895.935	-76.12
896.106	110.25
896.276	-84.31
896.447	-8.53
896.617	-78.16
896.788	-59.73
896.958	-65.88
897.129	11.95
897.299	3.75
897.47	87.72
897.64	1.71
897.81	34.47
897.981	-4.44
898.151	-59.73
898.322	7.85
898.492	16.04
898.662	36.52
898.832	65.19
899.003	-4.44
899.173	75.43
899.343	-63.83
899.513	9.9
