Data from USB4F104151__20__09-25-37-520.txt Node

Date: Wed Feb 26 09:25:37 EST 2025
User: louis
Spectrometer: USB4F10415
Trigger mode: 4
Integration Time (sec): 1.000000E-1
Scans to average: 1
Electric dark correction enabled: true
Nonlinearity correction enabled: false
Boxcar width: 0
XAxis mode: Wavelengths
Number of Pixels in Spectrum: 3648
>>>>>Begin Spectral Data<<<<<
178.204	-345.42
178.424	-345.42
178.644	-345.42
178.864	-312.66
179.084	-314.7
179.304	-17.75
179.524	15.02
179.744	-60.76
179.964	25.26
180.184	55.98
180.404	111.27
180.624	-83.28
180.844	-13.65
181.064	-75.09
181.283	15.02
181.503	4.78
181.723	23.21
181.943	-75.09
182.163	166.57
182.383	21.16
182.602	88.75
182.822	121.51
183.042	88.75
183.262	-17.75
183.482	119.46
183.701	72.36
183.921	84.65
184.141	-56.66
184.361	53.93
184.58	62.12
184.8	41.64
185.02	19.11
185.239	103.08
185.459	31.4
185.679	166.57
185.898	-93.52
186.118	82.6
186.338	-5.46
186.557	80.55
186.777	-19.8
186.997	55.98
187.216	55.98
187.436	98.99
187.655	39.59
187.875	49.83
188.095	-9.56
188.314	107.18
188.534	80.55
188.753	-38.23
188.973	78.51
189.192	174.76
189.412	12.97
189.631	51.88
189.851	74.41
190.07	131.75
190.29	-19.8
190.509	-9.56
190.729	80.55
190.948	84.65
191.168	230.06
191.387	72.36
191.607	-5.46
191.826	-40.28
192.045	2.73
192.265	-36.18
192.484	80.55
192.704	-17.75
192.923	47.79
193.142	170.66
193.362	64.17
193.581	47.79
193.8	31.4
194.02	88.75
194.239	41.64
194.458	90.79
194.678	12.97
194.897	-30.04
195.116	21.16
195.335	27.31
195.555	39.59
195.774	41.64
195.993	113.32
196.212	23.21
196.432	-42.32
196.651	-32.08
196.87	37.55
197.089	242.34
197.308	53.93
197.528	74.41
197.747	33.45
197.966	96.94
198.185	123.56
198.404	4.78
198.623	45.74
198.842	64.17
199.062	121.51
199.281	103.08
199.5	-17.75
199.719	121.51
199.938	-23.89
200.157	80.55
200.376	55.98
200.595	111.27
200.814	76.46
201.033	27.31
201.252	84.65
201.471	-25.94
201.69	31.4
201.909	146.09
202.128	12.97
202.347	101.03
202.566	-17.75
202.785	-25.94
203.004	-27.99
203.223	232.1
203.442	86.7
203.661	23.21
203.879	10.92
204.098	129.7
204.317	-50.52
204.536	103.08
204.755	107.18
204.974	180.9
205.193	66.22
205.411	96.94
205.63	105.13
205.849	94.89
206.068	78.51
206.287	21.16
206.505	101.03
206.724	68.27
206.943	21.16
207.162	-9.56
207.381	103.08
207.599	47.79
207.818	-1.37
208.037	-17.75
208.255	55.98
208.474	-15.7
208.693	35.5
208.911	37.55
209.13	133.8
209.349	141.99
209.567	60.07
209.786	8.87
210.005	92.84
210.223	62.12
210.442	-40.28
210.661	0.68
210.879	72.36
211.098	55.98
211.316	88.75
211.535	94.89
211.753	-40.28
211.972	113.32
212.191	23.21
212.409	39.59
212.628	27.31
212.846	23.21
213.065	35.5
213.283	103.08
213.502	78.51
213.72	60.07
213.938	0.68
214.157	-25.94
214.375	107.18
214.594	58.03
214.812	80.55
215.031	80.55
215.249	-15.7
215.467	70.31
215.686	86.7
215.904	96.94
216.122	4.78
216.341	154.28
216.559	80.55
216.778	129.7
216.996	117.42
217.214	-40.28
217.432	78.51
217.651	51.88
217.869	47.79
218.087	6.83
218.306	88.75
218.524	43.69
218.742	6.83
218.96	64.17
219.179	-13.65
219.397	29.35
219.615	176.81
219.833	76.46
220.051	39.59
220.27	162.47
220.488	82.6
220.706	47.79
220.924	-85.33
221.142	6.83
221.36	86.7
221.578	88.75
221.796	60.07
222.015	70.31
222.233	92.84
222.451	94.89
222.669	-15.7
222.887	33.45
223.105	6.83
223.323	60.07
223.541	-17.75
223.759	84.65
223.977	15.02
224.195	119.46
224.413	90.79
224.631	23.21
224.849	68.27
225.067	162.47
225.285	4.78
225.503	37.55
225.721	-154.96
225.939	19.11
226.157	98.99
226.375	223.91
226.592	29.35
226.81	35.5
227.028	119.46
227.246	178.86
227.464	33.45
227.682	47.79
227.9	113.32
228.117	53.93
228.335	15.02
228.553	-27.99
228.771	39.59
228.989	94.89
229.206	51.88
229.424	-5.46
229.642	37.55
229.86	-17.75
230.077	74.41
230.295	23.21
230.513	119.46
230.731	92.84
230.948	88.75
231.166	82.6
231.384	84.65
231.601	-34.13
231.819	119.46
232.037	2.73
232.254	-62.8
232.472	-3.41
232.689	27.31
232.907	133.8
233.125	10.92
233.342	10.92
233.56	33.45
233.777	66.22
233.995	0.68
234.213	154.28
234.43	86.7
234.648	60.07
234.865	-50.52
235.083	154.28
235.3	6.83
235.518	47.79
235.735	156.33
235.953	15.02
236.17	43.69
236.388	58.03
236.605	60.07
236.822	72.36
237.04	117.42
237.257	72.36
237.475	-99.67
237.692	-17.75
237.909	107.18
238.127	37.55
238.344	68.27
238.562	27.31
238.779	-34.13
238.996	23.21
239.214	35.5
239.431	70.31
239.648	23.21
239.865	103.08
240.083	37.55
240.3	-9.56
240.517	8.87
240.735	27.31
240.952	113.32
241.169	105.13
241.386	105.13
241.603	51.88
241.821	-9.56
242.038	88.75
242.255	72.36
242.472	-23.89
242.689	101.03
242.907	139.94
243.124	-3.41
243.341	0.68
243.558	-3.41
243.775	6.83
243.992	15.02
244.209	49.83
244.426	203.43
244.643	45.74
244.86	-9.56
245.078	117.42
245.295	-9.56
245.512	60.07
245.729	-32.08
245.946	55.98
246.163	105.13
246.38	-5.46
246.597	62.12
246.814	55.98
247.031	58.03
247.248	-30.04
247.464	0.68
247.681	64.17
247.898	72.36
248.115	92.84
248.332	2.73
248.549	117.42
248.766	189.1
248.983	35.5
249.2	137.9
249.417	150.18
249.633	2.73
249.85	39.59
250.067	72.36
250.284	62.12
250.501	64.17
250.717	115.37
250.934	-54.61
251.151	31.4
251.368	33.45
251.585	-7.51
251.801	29.35
252.018	39.59
252.235	80.55
252.451	-83.28
252.668	47.79
252.885	131.75
253.102	82.6
253.318	66.22
253.535	-50.52
253.752	31.4
253.968	23.21
254.185	51.88
254.401	-36.18
254.618	82.6
254.835	27.31
255.051	156.33
255.268	53.93
255.484	12.97
255.701	-19.8
255.917	129.7
256.134	-7.51
256.351	45.74
256.567	10.92
256.784	76.46
257	-27.99
257.217	103.08
257.433	139.94
257.65	88.75
257.866	121.51
258.082	17.07
258.299	-75.09
258.515	90.79
258.732	-17.75
258.948	-36.18
259.165	-62.8
259.381	6.83
259.597	121.51
259.814	60.07
260.03	-17.75
260.246	-7.51
260.463	84.65
260.679	53.93
260.895	68.27
261.112	78.51
261.328	37.55
261.544	15.02
261.761	148.14
261.977	80.55
262.193	35.5
262.409	76.46
262.626	55.98
262.842	47.79
263.058	-60.76
263.274	103.08
263.49	103.08
263.707	74.41
263.923	70.31
264.139	-58.71
264.355	80.55
264.571	101.03
264.787	-15.7
265.004	111.27
265.22	8.87
265.436	53.93
265.652	0.68
265.868	37.55
266.084	-50.52
266.3	-23.89
266.516	21.16
266.732	0.68
266.948	19.11
267.164	23.21
267.38	53.93
267.596	117.42
267.812	191.14
268.028	29.35
268.244	6.83
268.46	90.79
268.676	-19.8
268.892	58.03
269.108	-13.65
269.324	2.73
269.54	27.31
269.756	35.5
269.972	-11.61
270.188	8.87
270.403	-5.46
270.619	92.84
270.835	76.46
271.051	29.35
271.267	58.03
271.483	0.68
271.698	92.84
271.914	47.79
272.13	47.79
272.346	-30.04
272.562	55.98
272.777	129.7
272.993	19.11
273.209	-11.61
273.425	178.86
273.64	-91.48
273.856	125.61
274.072	-13.65
274.287	-101.72
274.503	51.88
274.719	43.69
274.934	37.55
275.15	-17.75
275.366	60.07
275.581	-32.08
275.797	-7.51
276.012	47.79
276.228	12.97
276.444	72.36
276.659	131.75
276.875	31.4
277.09	62.12
277.306	105.13
277.521	66.22
277.737	51.88
277.952	111.27
278.168	6.83
278.383	29.35
278.599	12.97
278.814	19.11
279.03	53.93
279.245	133.8
279.461	90.79
279.676	41.64
279.892	-7.51
280.107	21.16
280.322	-36.18
280.538	31.4
280.753	-42.32
280.969	64.17
281.184	96.94
281.399	111.27
281.615	121.51
281.83	111.27
282.045	-38.23
282.26	19.11
282.476	23.21
282.691	117.42
282.906	12.97
283.122	55.98
283.337	10.92
283.552	119.46
283.767	25.26
283.983	72.36
284.198	4.78
284.413	107.18
284.628	-89.43
284.843	39.59
285.058	113.32
285.274	90.79
285.489	-25.94
285.704	111.27
285.919	15.02
286.134	41.64
286.349	64.17
286.564	-9.56
286.779	187.05
286.995	25.26
287.21	-68.95
287.425	39.59
287.64	-17.75
287.855	-56.66
288.07	-105.81
288.285	141.99
288.5	92.84
288.715	111.27
288.93	96.94
289.145	-89.43
289.36	111.27
289.575	29.35
289.79	115.37
290.004	23.21
290.219	121.51
290.434	-52.56
290.649	-25.94
290.864	-62.8
291.079	6.83
291.294	43.69
291.509	39.59
291.724	-17.75
291.938	15.02
292.153	53.93
292.368	-60.76
292.583	4.78
292.798	121.51
293.012	80.55
293.227	55.98
293.442	-42.32
293.657	43.69
293.871	123.56
294.086	72.36
294.301	199.34
294.516	162.47
294.73	55.98
294.945	-3.41
295.16	70.31
295.374	152.23
295.589	88.75
295.804	-36.18
296.018	49.83
296.233	90.79
296.447	19.11
296.662	-19.8
296.877	88.75
297.091	133.8
297.306	8.87
297.52	-38.23
297.735	-25.94
297.949	76.46
298.164	-3.41
298.378	84.65
298.593	-36.18
298.807	-34.13
299.022	0.68
299.236	119.46
299.451	55.98
299.665	37.55
299.88	-1.37
300.094	-7.51
300.309	60.07
300.523	-11.61
300.737	-13.65
300.952	47.79
301.166	55.98
301.381	92.84
301.595	6.83
301.809	47.79
302.024	-3.41
302.238	-1.37
302.452	166.57
302.667	88.75
302.881	103.08
303.095	185
303.309	80.55
303.524	-50.52
303.738	10.92
303.952	15.02
304.166	43.69
304.381	-118.1
304.595	162.47
304.809	-17.75
305.023	68.27
305.237	12.97
305.452	-40.28
305.666	37.55
305.88	45.74
306.094	94.89
306.308	70.31
306.522	21.16
306.736	80.55
306.95	121.51
307.164	88.75
307.379	10.92
307.593	96.94
307.807	47.79
308.021	127.66
308.235	88.75
308.449	-136.53
308.663	152.23
308.877	211.62
309.091	94.89
309.305	127.66
309.519	-46.42
309.733	31.4
309.947	-87.38
310.161	-3.41
310.374	74.41
310.588	53.93
310.802	-17.75
311.016	33.45
311.23	62.12
311.444	-50.52
311.658	25.26
311.872	166.57
312.085	25.26
312.299	174.76
312.513	168.62
312.727	76.46
312.941	10.92
313.154	12.97
313.368	39.59
313.582	39.59
313.796	23.21
314.009	47.79
314.223	94.89
314.437	82.6
314.651	21.16
314.864	39.59
315.078	6.83
315.292	2.73
315.505	72.36
315.719	68.27
315.933	101.03
316.146	60.07
316.36	-19.8
316.573	133.8
316.787	117.42
317.001	68.27
317.214	-34.13
317.428	84.65
317.641	-40.28
317.855	76.46
318.068	21.16
318.282	131.75
318.495	185
318.709	76.46
318.922	-32.08
319.136	195.24
319.349	119.46
319.563	90.79
319.776	-5.46
319.99	-34.13
320.203	68.27
320.417	84.65
320.63	78.51
320.843	178.86
321.057	49.83
321.27	47.79
321.483	37.55
321.697	76.46
321.91	64.17
322.124	47.79
322.337	84.65
322.55	-11.61
322.763	141.99
322.977	15.02
323.19	-19.8
323.403	10.92
323.617	35.5
323.83	94.89
324.043	51.88
324.256	121.51
324.469	-27.99
324.683	148.14
324.896	39.59
325.109	60.07
325.322	-3.41
325.535	39.59
325.748	88.75
325.962	105.13
326.175	37.55
326.388	58.03
326.601	82.6
326.814	19.11
327.027	64.17
327.24	185
327.453	-30.04
327.666	96.94
327.879	96.94
328.092	37.55
328.305	94.89
328.518	53.93
328.731	94.89
328.944	-15.7
329.157	68.27
329.37	-19.8
329.583	127.66
329.796	117.42
330.009	-34.13
330.222	35.5
330.435	92.84
330.648	129.7
330.861	51.88
331.073	55.98
331.286	121.51
331.499	53.93
331.712	39.59
331.925	96.94
332.138	21.16
332.35	103.08
332.563	64.17
332.776	168.62
332.989	33.45
333.202	-58.71
333.414	80.55
333.627	55.98
333.84	-56.66
334.053	55.98
334.265	80.55
334.478	55.98
334.691	60.07
334.903	78.51
335.116	17.07
335.329	-3.41
335.541	107.18
335.754	172.71
335.966	45.74
336.179	84.65
336.392	2.73
336.604	43.69
336.817	113.32
337.029	98.99
337.242	64.17
337.454	76.46
337.667	-1.37
337.88	101.03
338.092	80.55
338.305	41.64
338.517	12.97
338.729	94.89
338.942	166.57
339.154	-15.7
339.367	-3.41
339.579	119.46
339.792	-1.37
340.004	107.18
340.217	72.36
340.429	53.93
340.641	15.02
340.854	8.87
341.066	19.11
341.278	92.84
341.491	152.23
341.703	105.13
341.915	15.02
342.128	84.65
342.34	68.27
342.552	-83.28
342.764	58.03
342.977	62.12
343.189	94.89
343.401	180.9
343.613	-34.13
343.826	96.94
344.038	-38.23
344.25	117.42
344.462	-34.13
344.674	58.03
344.886	33.45
345.099	80.55
345.311	64.17
345.523	37.55
345.735	-52.56
345.947	62.12
346.159	70.31
346.371	21.16
346.583	0.68
346.795	252.58
347.007	47.79
347.219	82.6
347.431	49.83
347.643	109.23
347.855	6.83
348.067	172.71
348.279	35.5
348.491	127.66
348.703	98.99
348.915	35.5
349.127	-81.24
349.339	25.26
349.551	-3.41
349.763	6.83
349.975	49.83
350.187	66.22
350.399	158.38
350.61	31.4
350.822	41.64
351.034	21.16
351.246	55.98
351.458	43.69
351.669	21.16
351.881	187.05
352.093	33.45
352.305	88.75
352.517	17.07
352.728	203.43
352.94	123.56
353.152	139.94
353.363	-42.32
353.575	101.03
353.787	86.7
353.999	80.55
354.21	111.27
354.422	-71
354.633	-19.8
354.845	84.65
355.057	23.21
355.268	80.55
355.48	101.03
355.692	-9.56
355.903	37.55
356.115	39.59
356.326	-1.37
356.538	185
356.749	43.69
356.961	178.86
357.172	84.65
357.384	-34.13
357.595	164.52
357.807	-23.89
358.018	-1.37
358.23	21.16
358.441	125.61
358.653	137.9
358.864	31.4
359.075	-23.89
359.287	12.97
359.498	113.32
359.709	55.98
359.921	31.4
360.132	51.88
360.344	-1.37
360.555	0.68
360.766	88.75
360.977	21.16
361.189	64.17
361.4	47.79
361.611	62.12
361.823	92.84
362.034	72.36
362.245	15.02
362.456	12.97
362.667	96.94
362.879	-40.28
363.09	37.55
363.301	53.93
363.512	31.4
363.723	25.26
363.935	-19.8
364.146	135.85
364.357	31.4
364.568	10.92
364.779	10.92
364.99	121.51
365.201	-13.65
365.412	109.23
365.623	-91.48
365.834	88.75
366.045	111.27
366.256	47.79
366.467	133.8
366.678	29.35
366.889	43.69
367.1	23.21
367.311	72.36
367.522	2.73
367.733	6.83
367.944	144.04
368.155	72.36
368.366	47.79
368.577	101.03
368.788	96.94
368.999	64.17
369.209	43.69
369.42	211.62
369.631	168.62
369.842	135.85
370.053	-1.37
370.264	84.65
370.474	-44.37
370.685	76.46
370.896	76.46
371.107	146.09
371.317	92.84
371.528	29.35
371.739	94.89
371.95	152.23
372.16	19.11
372.371	-3.41
372.582	-54.61
372.792	70.31
373.003	10.92
373.214	133.8
373.424	62.12
373.635	-42.32
373.846	109.23
374.056	78.51
374.267	31.4
374.477	84.65
374.688	21.16
374.898	129.7
375.109	55.98
375.319	29.35
375.53	107.18
375.74	23.21
375.951	21.16
376.161	55.98
376.372	113.32
376.582	47.79
376.793	129.7
377.003	27.31
377.214	10.92
377.424	105.13
377.635	45.74
377.845	29.35
378.055	86.7
378.266	31.4
378.476	-11.61
378.686	49.83
378.897	10.92
379.107	101.03
379.317	78.51
379.528	-109.91
379.738	98.99
379.948	-60.76
380.158	115.37
380.369	-17.75
380.579	105.13
380.789	47.79
380.999	88.75
381.21	41.64
381.42	121.51
381.63	47.79
381.84	84.65
382.05	92.84
382.261	131.75
382.471	117.42
382.681	-13.65
382.891	125.61
383.101	58.03
383.311	-99.67
383.521	-17.75
383.731	105.13
383.941	55.98
384.151	66.22
384.361	10.92
384.571	64.17
384.781	35.5
384.991	96.94
385.201	131.75
385.411	94.89
385.621	115.37
385.831	60.07
386.041	58.03
386.251	-21.84
386.461	121.51
386.671	53.93
386.881	55.98
387.091	-9.56
387.301	60.07
387.511	45.74
387.72	39.59
387.93	86.7
388.14	-52.56
388.35	80.55
388.56	15.02
388.769	113.32
388.979	4.78
389.189	101.03
389.399	58.03
389.609	72.36
389.818	139.94
390.028	-21.84
390.238	60.07
390.447	-42.32
390.657	60.07
390.867	53.93
391.076	-27.99
391.286	96.94
391.496	25.26
391.705	8.87
391.915	129.7
392.125	111.27
392.334	45.74
392.544	187.05
392.753	21.16
392.963	-1.37
393.172	72.36
393.382	84.65
393.591	76.46
393.801	55.98
394.01	168.62
394.22	107.18
394.429	6.83
394.639	70.31
394.848	25.26
395.058	94.89
395.267	78.51
395.477	55.98
395.686	86.7
395.895	174.76
396.105	121.51
396.314	49.83
396.524	35.5
396.733	-42.32
396.942	119.46
397.152	123.56
397.361	68.27
397.57	58.03
397.78	-48.47
397.989	55.98
398.198	225.96
398.407	62.12
398.617	51.88
398.826	84.65
399.035	84.65
399.244	185
399.453	72.36
399.663	25.26
399.872	19.11
400.081	2.73
400.29	141.99
400.499	-34.13
400.708	92.84
400.917	-7.51
401.127	62.12
401.336	-21.84
401.545	139.94
401.754	133.8
401.963	47.79
402.172	88.75
402.381	-15.7
402.59	49.83
402.799	82.6
403.008	76.46
403.217	4.78
403.426	101.03
403.635	-44.37
403.844	-13.65
404.053	19.11
404.262	-1.37
404.471	160.42
404.68	-13.65
404.888	27.31
405.097	70.31
405.306	15.02
405.515	47.79
405.724	76.46
405.933	64.17
406.142	-3.41
406.35	96.94
406.559	45.74
406.768	51.88
406.977	88.75
407.185	94.89
407.394	119.46
407.603	-3.41
407.812	78.51
408.02	168.62
408.229	29.35
408.438	80.55
408.646	4.78
408.855	-1.37
409.064	51.88
409.272	64.17
409.481	135.85
409.69	-21.84
409.898	84.65
410.107	113.32
410.315	131.75
410.524	31.4
410.733	105.13
410.941	62.12
411.15	178.86
411.358	88.75
411.567	105.13
411.775	64.17
411.984	41.64
412.192	43.69
412.401	41.64
412.609	88.75
412.818	72.36
413.026	154.28
413.234	53.93
413.443	27.31
413.651	21.16
413.86	58.03
414.068	113.32
414.276	154.28
414.485	-1.37
414.693	139.94
414.901	94.89
415.11	78.51
415.318	90.79
415.526	76.46
415.734	123.56
415.943	64.17
416.151	41.64
416.359	62.12
416.567	141.99
416.776	55.98
416.984	123.56
417.192	185
417.4	55.98
417.608	47.79
417.817	-27.99
418.025	39.59
418.233	133.8
418.441	43.69
418.649	-34.13
418.857	125.61
419.065	191.14
419.273	10.92
419.481	96.94
419.689	25.26
419.897	2.73
420.105	-7.51
420.313	127.66
420.521	195.24
420.729	170.66
420.937	29.35
421.145	-17.75
421.353	211.62
421.561	174.76
421.769	84.65
421.977	47.79
422.185	64.17
422.393	39.59
422.601	21.16
422.809	94.89
423.017	111.27
423.224	62.12
423.432	80.55
423.64	8.87
423.848	156.33
424.056	47.79
424.263	121.51
424.471	39.59
424.679	90.79
424.887	23.21
425.094	137.9
425.302	119.46
425.51	105.13
425.718	123.56
425.925	45.74
426.133	31.4
426.341	246.44
426.548	49.83
426.756	76.46
426.964	199.34
427.171	70.31
427.379	133.8
427.586	-19.8
427.794	101.03
428.001	135.85
428.209	68.27
428.417	211.62
428.624	168.62
428.832	96.94
429.039	94.89
429.247	92.84
429.454	141.99
429.662	162.47
429.869	121.51
430.076	125.61
430.284	187.05
430.491	201.38
430.699	137.9
430.906	170.66
431.114	162.47
431.321	174.76
431.528	150.18
431.736	150.18
431.943	158.38
432.15	195.24
432.358	139.94
432.565	324.26
432.772	45.74
432.979	242.34
433.187	96.94
433.394	238.25
433.601	135.85
433.808	256.68
434.016	176.81
434.223	207.53
434.43	236.2
434.637	219.82
434.844	393.89
435.052	232.1
435.259	336.55
435.466	283.3
435.673	242.34
435.88	326.31
436.087	287.4
436.294	297.64
436.501	344.74
436.708	252.58
436.915	373.41
437.122	406.18
437.329	291.49
437.537	293.54
437.743	381.6
437.95	461.48
438.157	330.41
438.364	375.46
438.571	445.09
438.778	506.53
438.985	551.59
439.192	613.03
439.399	486.05
439.606	441
439.813	610.98
440.02	625.31
440.227	811.68
440.433	617.12
440.64	621.22
440.847	592.55
441.054	637.6
441.261	703.14
441.467	639.65
441.674	578.21
441.881	778.91
442.088	703.14
442.294	834.21
442.501	830.11
442.708	795.29
442.914	797.34
443.121	959.13
443.328	916.12
443.534	1047.19
443.741	1043.1
443.948	891.55
444.154	1065.63
444.361	1217.18
444.568	1086.11
444.774	1077.91
444.981	1094.3
445.187	1299.09
445.394	1303.19
445.6	1172.12
445.807	1489.56
446.013	1313.43
446.22	1348.25
446.426	1563.28
446.633	1548.95
446.839	1663.63
447.046	1596.05
447.252	1868.43
447.459	1661.59
447.665	1825.42
447.871	1987.21
448.078	2024.08
448.284	2040.46
448.491	2181.77
448.697	2306.7
448.903	2327.18
449.11	2421.38
449.316	2345.61
449.522	2497.16
449.728	2706.05
449.935	2734.72
450.141	2812.54
450.347	2869.89
450.553	2888.32
450.76	2976.38
450.966	3179.13
451.172	3234.43
451.378	3334.78
451.584	3476.09
451.791	3746.42
451.997	3680.88
452.203	3912.3
452.409	4074.09
452.615	4307.56
452.821	4053.61
453.027	4108.91
453.233	4659.81
453.44	4504.17
453.646	4878.94
453.852	4811.36
454.058	5286.49
454.264	5481.05
454.47	5634.64
454.676	5712.47
454.882	6300.23
455.088	5921.36
455.294	6324.81
455.5	6818.37
455.705	6992.45
455.911	7080.51
456.117	7338.55
456.323	7543.35
456.529	7543.35
456.735	8122.93
456.941	8471.08
457.147	8917.54
457.352	9151.01
457.558	9288.22
457.764	9845.27
457.97	10181.14
458.176	10570.25
458.381	10957.32
458.587	11307.52
458.793	11827.7
458.999	11749.88
459.204	13027.81
459.41	13793.75
459.616	13437.41
459.821	13928.92
460.027	15051.21
460.233	15550.91
460.438	15716.79
460.644	16642.48
460.85	16767.4
461.055	17496.48
461.261	18336.15
461.466	17635.74
461.672	18348.43
461.878	20547.95
462.083	20310.39
462.289	20754.8
462.494	21178.73
462.7	21641.57
462.905	21942.62
463.111	23513.41
463.316	24592.69
463.522	24979.76
463.727	26132.76
463.932	26851.6
464.138	27738.37
464.343	28784.88
464.549	28971.25
464.754	30664.92
464.959	32030.91
465.165	32508.09
465.37	32106.69
465.575	32174.27
465.781	34351.26
465.986	35170.45
466.191	34801.82
466.397	35156.11
466.602	34144.42
466.807	36374.66
467.012	36808.82
467.218	37277.81
467.423	37621.87
467.628	38664.28
467.833	40628.29
468.038	39637.07
468.244	38975.58
468.449	40890.43
468.654	39903.31
468.859	39997.51
469.064	40228.93
469.269	39540.82
469.474	39575.63
469.679	40548.42
469.885	39213.14
470.09	40183.88
470.295	40071.24
470.5	39426.13
470.705	39538.77
470.91	38346.85
471.115	38105.19
471.32	38606.94
471.525	38090.85
471.73	37193.84
471.935	36993.14
472.139	35684.49
472.344	35553.42
472.549	35340.43
472.754	35057.81
472.959	34212
473.164	33009.84
473.369	32573.63
473.574	33204.4
473.778	32479.42
473.983	32200.9
474.188	31940.8
474.393	30335.2
474.598	30357.72
474.802	29464.81
475.007	29118.7
475.212	28905.71
475.417	27177.23
475.621	27431.18
475.826	27332.87
476.031	26489.11
476.235	25663.78
476.44	25850.14
476.645	25166.12
476.849	25112.88
477.054	24690.99
477.259	24043.84
477.463	23679.3
477.668	23271.75
477.872	23210.31
478.077	22784.33
478.282	21922.14
478.486	21885.28
478.691	21487.97
478.895	21449.06
479.1	21383.52
479.304	21133.67
479.509	20470.13
479.713	20679.02
479.918	20105.59
480.122	19988.86
480.326	19976.57
480.531	20031.87
480.735	19517.82
480.94	19388.8
481.144	19741.05
481.348	18944.39
481.553	19032.46
481.757	18196.88
481.961	18725.26
482.166	18866.57
482.37	18432.4
482.574	18256.28
482.778	18076.05
482.983	18272.66
483.187	17863.07
483.391	18256.28
483.595	17592.73
483.8	17273.25
484.004	17443.23
484.208	17377.7
484.412	16982.44
484.616	17009.06
484.821	16894.38
485.025	16028.09
485.229	16585.13
485.433	15890.87
485.637	16030.13
485.841	15858.1
486.045	15342.02
486.249	15563.2
486.453	15024.58
486.657	14848.46
486.861	14782.92
487.065	14232.02
487.269	14150.1
487.473	13816.28
487.677	13910.49
487.881	13679.07
488.085	13451.74
488.289	13081.06
488.493	12915.17
488.697	12911.08
488.901	12646.89
489.105	12315.12
489.309	12155.38
489.512	12022.26
489.716	11774.45
489.92	11438.59
490.124	11364.86
490.328	11340.29
490.531	10842.63
490.735	10680.84
490.939	10508.81
491.143	10326.54
491.346	10228.24
491.55	10168.85
491.754	9749.01
491.958	9916.95
492.161	9576.98
492.365	9286.17
492.569	9366.04
492.772	9347.61
492.976	9187.87
493.18	9013.79
493.383	8960.55
493.587	8864.29
493.79	8858.15
493.994	8403.5
494.197	8501.8
494.401	8329.77
494.605	8137.26
494.808	8350.25
495.012	8149.55
495.215	8030.77
495.419	8391.21
495.622	7899.7
495.825	8071.73
496.029	7942.71
496.232	8124.97
496.436	7744.05
496.639	7916.08
496.843	7658.04
497.046	7791.16
497.249	7985.71
497.453	7871.03
497.656	7926.32
497.859	7844.4
498.063	8047.15
498.266	8210.99
498.469	7856.69
498.673	7866.93
498.876	7924.27
499.079	7989.81
499.282	7954.99
499.485	8256.04
499.689	8034.86
499.892	8286.76
500.095	8290.86
500.298	8481.32
500.501	8237.61
500.705	8380.97
500.908	8643.11
501.111	8622.63
501.314	8491.56
501.517	8884.77
501.72	8647.21
501.923	8747.56
502.126	8966.69
502.329	9222.69
502.532	9126.43
502.735	9548.31
502.938	9431.58
503.141	9697.81
503.344	9775.64
503.547	9753.11
503.75	9873.94
503.953	10007.06
504.156	10351.12
504.359	10328.59
504.562	10283.53
504.765	10676.74
504.968	10899.97
505.17	11061.76
505.373	11123.2
505.576	11450.88
505.779	11639.29
505.982	11606.52
506.185	12022.26
506.387	11993.59
506.59	12524.01
506.793	12327.41
506.996	12610.03
507.198	13261.28
507.401	13248.99
507.604	13806.04
507.807	13984.21
508.009	14004.69
508.212	14029.27
508.415	14557.64
508.617	14926.28
508.82	15094.21
509.022	15356.35
509.225	16003.51
509.428	16122.29
509.63	16523.69
509.833	16585.13
510.035	17207.72
510.238	17492.38
510.44	17944.98
510.643	18459.03
510.845	18618.77
511.048	19327.36
511.25	19560.83
511.453	19767.68
511.655	20830.57
511.858	20918.64
512.06	21373.28
512.262	22014.3
512.465	22249.82
512.667	22851.92
512.87	23200.07
513.072	23785.79
513.274	24709.43
513.477	24914.22
513.679	25661.73
513.881	26247.45
514.084	26870.03
514.286	27255.05
514.488	27779.33
514.69	28893.43
514.893	29051.12
515.095	29630.69
515.297	30736.6
515.499	30810.32
515.701	31584.46
515.904	32553.15
516.106	33165.49
516.308	33642.67
516.51	34656.41
516.712	35244.18
516.914	35811.46
517.116	36638.84
517.318	36884.6
517.52	37849.19
517.722	38307.94
517.925	39694.41
518.127	40374.34
518.329	40429.63
518.531	40669.25
518.733	41803.82
518.935	42663.97
519.136	43466.77
519.338	43902.99
519.54	44933.12
519.742	45692.91
519.944	45897.71
520.146	47130.59
520.348	47439.83
520.55	47902.67
520.752	48543.69
520.954	49295.29
521.155	49328.06
521.357	50493.35
521.559	50653.09
521.761	51928.98
521.963	51705.75
522.164	52496.27
522.366	52641.67
522.568	53714.81
522.77	53747.57
522.971	54826.85
523.173	54151.02
523.375	54959.97
523.576	55265.12
523.778	55250.78
523.98	56188.75
524.181	56151.89
524.383	55971.67
524.584	56825.67
524.786	56639.31
524.988	56545.1
525.189	56862.53
525.391	57184.07
525.592	57622.33
525.794	57679.67
525.995	57294.66
526.197	57290.56
526.398	57425.73
526.6	57319.23
526.801	57122.63
527.003	57016.13
527.204	56586.06
527.406	56657.74
527.607	56688.46
527.808	56629.07
528.01	55336.8
528.211	55828.31
528.412	55951.19
528.614	55519.07
528.815	55099.23
529.016	55469.92
529.218	53716.85
529.419	54198.13
529.62	53514.11
529.822	53026.69
530.023	52502.41
530.224	52504.46
530.425	51771.28
530.626	50880.42
530.828	50722.72
531.029	51449.75
531.23	49569.72
531.431	49567.67
531.632	49344.44
531.833	48961.47
532.035	47845.33
532.236	47738.83
532.437	47185.88
532.638	46583.78
532.839	45776.88
533.04	45723.63
533.241	44218.38
533.442	45240.31
533.643	44169.22
533.844	43403.28
534.045	42461.22
534.246	41793.58
534.447	41721.9
534.648	40886.33
534.849	40771.64
535.05	39784.52
535.251	39247.96
535.451	39149.65
535.652	38488.16
535.853	37836.91
536.054	37458.03
536.255	37224.56
536.456	36333.7
536.657	36382.85
536.857	35276.94
537.058	35043.48
537.259	35207.31
537.46	34447.52
537.66	33849.51
537.861	33607.85
538.062	33259.7
538.263	32567.48
538.463	32325.82
538.664	31713.48
538.865	31424.72
539.065	31340.75
539.266	30441.69
539.466	30290.14
539.667	29448.43
539.868	29984.99
540.068	29020.4
540.269	29073.65
540.469	28471.54
540.67	28315.9
540.87	27990.27
541.071	27500.81
541.271	27416.84
541.472	27275.53
541.672	26687.76
541.873	26341.66
542.073	25663.78
542.274	25993.5
542.474	25514.28
542.675	25321.77
542.875	25069.87
543.075	24738.1
543.276	24416.57
543.476	24117.56
543.676	23597.38
543.877	23761.22
544.077	23101.77
544.277	23325
544.478	22743.38
544.678	23126.35
544.878	22276.44
545.078	22309.21
545.279	21883.23
545.479	21795.17
545.679	21483.87
545.879	21231.97
546.079	21170.54
546.28	20461.94
546.48	20324.72
546.68	20400.5
546.88	20193.65
547.08	19720.57
547.28	19552.64
547.48	19016.07
547.68	19198.34
547.88	18717.07
548.081	18786.7
548.281	18266.52
548.481	17891.74
548.681	18252.18
548.881	17707.42
549.081	17545.63
549.28	17074.6
549.48	17410.47
549.68	16693.68
549.88	16748.97
550.08	16325.04
550.28	16476.59
550.48	16046.52
550.68	15983.03
550.88	15589.82
551.08	15268.29
551.279	15147.46
551.479	14758.35
551.679	14678.47
551.879	14369.23
552.079	14346.7
552.278	14168.53
552.478	13703.64
552.678	13744.6
552.878	13554.14
553.077	13238.75
553.277	13062.63
553.477	12941.8
553.676	12634.6
553.876	12466.67
554.076	12089.84
554.275	12055.03
554.475	11909.62
554.674	11727.35
554.874	11618.81
555.074	11244.03
555.273	11313.66
555.473	11082.24
555.672	10711.56
555.872	10617.35
556.071	10338.83
556.271	10455.56
556.47	10269.2
556.67	9853.46
556.869	9998.87
557.068	9751.06
557.268	9261.6
557.467	9515.55
557.667	9290.27
557.866	8964.64
558.065	8804.9
558.265	8886.82
558.464	8450.6
558.663	8708.65
558.863	8290.86
559.062	8311.34
559.261	8014.38
559.461	8006.19
559.66	7889.46
559.859	7721.52
560.058	7623.22
560.258	7397.95
560.457	7322.17
560.656	7281.21
560.855	7180.86
561.054	7172.67
561.253	6781.51
561.453	6795.84
561.652	6814.27
561.851	6646.34
562.05	6449.74
562.249	6214.22
562.448	6386.25
562.647	6066.77
562.846	6091.34
563.045	6103.63
563.244	5888.59
563.443	5933.65
563.642	5700.18
563.841	5616.21
564.04	5509.72
564.239	5462.62
564.438	5349.98
564.637	5358.17
564.836	5317.21
565.035	5083.74
565.234	5089.89
565.432	4993.63
565.631	4831.84
565.83	5036.64
566.029	4772.45
566.228	4756.07
566.427	4774.5
566.625	4524.65
566.824	4510.31
567.023	4551.27
567.222	4248.17
567.42	4319.85
567.619	4336.23
567.818	4162.16
568.016	4201.07
568.215	4209.26
568.414	4125.29
568.612	4078.19
568.811	3943.02
569.01	4020.85
569.208	3797.62
569.407	3824.24
569.605	3668.59
569.804	3627.64
570.002	3545.72
570.201	3545.72
570.4	3656.31
570.598	3439.22
570.797	3428.98
570.995	3336.82
571.193	3168.89
571.392	3293.82
571.59	3093.12
571.789	3150.46
571.987	3021.44
572.186	3052.16
572.384	2906.75
572.582	2935.42
572.781	2972.29
572.979	2787.97
573.177	2898.56
573.376	2751.1
573.574	2806.4
573.772	2558.6
573.971	2601.6
574.169	2515.59
574.367	2675.33
574.565	2552.45
574.763	2486.92
574.962	2493.06
575.16	2333.32
575.358	2321.03
575.556	2386.57
575.754	2302.6
575.952	2273.93
576.151	2286.22
576.349	2259.59
576.547	2175.63
576.745	2181.77
576.943	2022.03
577.141	2079.37
577.339	1899.15
577.537	2028.17
577.735	2083.47
577.933	2024.08
578.131	1825.42
578.329	1999.5
578.527	1813.14
578.725	1981.07
578.923	1645.2
579.121	1839.76
579.319	1669.78
579.516	1649.3
579.714	1985.16
579.912	1671.83
580.11	1528.47
580.308	1538.71
580.506	1501.84
580.704	1469.08
580.901	1567.38
581.099	1641.11
581.297	1524.37
581.495	1542.8
581.692	1270.42
581.89	1602.19
582.088	1397.4
582.285	1356.44
582.483	1440.4
582.681	1338.01
582.878	1264.28
583.076	1358.49
583.274	1278.62
583.471	1317.53
583.669	1258.14
583.866	1198.74
584.064	1122.97
584.262	1022.62
584.459	1174.17
584.657	1219.22
584.854	1122.97
585.052	1143.45
585.249	1157.79
585.447	1245.85
585.644	961.18
585.841	1186.46
586.039	1053.34
586.236	1110.68
586.434	1039
586.631	1018.52
586.828	991.9
587.026	948.89
587.223	969.37
587.42	922.27
587.618	834.21
587.815	963.23
588.012	979.61
588.21	887.45
588.407	928.41
588.604	1004.19
588.801	821.92
588.999	938.65
589.196	961.18
589.393	928.41
589.59	807.58
589.787	826.01
589.984	785.05
590.182	801.44
590.379	735.9
590.576	766.62
590.773	901.79
590.97	821.92
591.167	823.97
591.364	803.49
591.561	776.86
591.758	856.73
591.955	866.97
592.152	731.81
592.349	727.71
592.546	686.75
592.743	774.81
592.94	721.57
593.137	807.58
593.334	879.26
593.531	877.21
593.727	793.25
593.924	805.53
594.121	803.49
594.318	821.92
594.515	817.82
594.712	875.17
594.908	907.93
595.105	803.49
595.302	801.44
595.499	793.25
595.696	883.36
595.892	846.49
596.089	903.84
596.286	973.47
596.482	996
596.679	877.21
596.876	920.22
597.072	1077.91
597.269	1043.1
597.466	989.85
597.662	1063.58
597.859	1071.77
598.055	1125.02
598.252	1127.07
598.448	1243.8
598.645	1151.64
598.841	1276.57
599.038	1395.35
599.234	1553.04
599.431	1391.25
599.627	1477.27
599.824	1481.36
600.02	1489.56
600.217	1602.19
600.413	1766.03
600.609	1651.35
600.806	2067.08
601.002	1968.78
601.198	1874.57
601.395	2087.56
601.591	2132.62
601.787	2183.82
601.984	2275.98
602.18	2478.72
602.376	2378.37
602.572	2462.34
602.769	2673.28
602.965	2585.22
603.161	2722.43
603.357	2867.84
603.553	2994.81
603.75	3107.45
603.946	3056.25
604.142	3273.34
604.338	3445.37
604.534	3439.22
604.73	3547.76
604.926	3727.99
605.122	4026.99
605.318	3914.35
605.514	4057.71
605.71	4205.16
605.906	4340.33
606.102	4369
606.298	4594.28
606.494	4655.72
606.69	4872.8
606.886	5053.02
607.082	5132.89
607.278	5218.91
607.474	5405.27
607.67	5495.38
607.866	5556.82
608.062	5919.31
608.257	6001.23
608.453	6296.14
608.649	6289.99
608.845	6394.44
609.041	6589
609.236	6978.11
609.432	6836.8
609.628	7371.32
609.824	7344.7
610.019	7412.28
610.215	7719.48
610.411	8165.93
610.606	8268.33
610.802	8505.9
610.998	8835.62
611.193	9034.27
611.389	8972.83
611.584	9247.26
611.78	9388.57
611.976	9808.4
612.171	10136.08
612.367	10310.16
612.562	10484.23
612.758	10842.63
612.953	11078.15
613.149	11610.62
613.344	11866.61
613.539	12085.75
613.735	12233.2
613.93	12816.87
614.126	12894.69
614.321	13242.85
614.517	13881.81
614.712	13748.7
614.907	14438.86
615.103	14625.23
615.298	14805.45
615.493	15432.13
615.688	15679.93
615.884	16675.24
616.079	16255.41
616.274	16810.41
616.47	17678.75
616.665	17826.2
616.86	18213.27
617.055	18758.03
617.25	18995.59
617.445	19679.61
617.641	19861.88
617.836	20660.59
618.031	20877.68
618.226	21481.83
618.421	21842.27
618.616	22692.18
618.811	23093.58
619.006	23789.89
619.201	23796.03
619.396	24764.72
619.591	25053.48
619.786	25624.87
619.981	25852.19
620.176	26855.7
620.371	26939.66
620.566	27894.02
620.761	28403.96
620.956	29245.68
621.151	29026.54
621.346	29958.37
621.541	30308.57
621.735	30873.81
621.93	31289.55
622.125	32075.97
622.32	32565.43
622.515	33527.98
622.709	33620.14
622.904	34480.28
623.099	34797.72
623.294	36171.91
623.488	36044.93
623.683	36913.27
623.878	36972.66
624.072	37943.4
624.267	38391.9
624.462	39151.7
624.656	39596.11
624.851	40661.05
625.046	40665.15
625.24	41644.08
625.435	41553.97
625.629	42592.29
625.824	43094.04
626.018	43728.91
626.213	43352.09
626.407	44462.08
626.602	44482.56
626.796	45154.3
626.991	45668.34
627.185	46090.22
627.38	46434.28
627.574	46051.31
627.768	46772.19
627.963	47251.42
628.157	47333.34
628.352	47497.17
628.546	46710.75
628.74	47630.29
628.935	47046.62
629.129	47757.27
629.323	46972.89
629.517	47292.38
629.712	46673.89
629.906	46387.17
630.1	45686.77
630.294	45776.88
630.489	45142.01
630.683	44697.6
630.877	43425.81
631.071	43477.01
631.265	42993.69
631.459	41441.33
631.653	40921.15
631.848	39866.44
632.042	38914.14
632.236	38486.11
632.43	37083.25
632.624	36401.28
632.818	35098.77
633.012	34089.12
633.206	33056.95
633.4	32204.99
633.594	30685.4
633.788	29868.26
633.982	29155.57
634.176	27695.36
634.369	26706.2
634.563	25770.27
634.757	24598.84
634.951	24164.67
635.145	22944.08
635.339	22174.04
635.533	21129.58
635.726	20576.62
635.92	19351.94
636.114	18778.51
636.308	18237.84
636.501	17332.64
636.695	16775.59
636.889	15894.97
637.083	15247.81
637.276	14569.93
637.47	13955.54
637.664	13441.5
637.857	12921.32
638.051	12521.96
638.244	11981.3
638.438	11459.07
638.632	11057.67
638.825	10562.06
639.019	10107.41
639.212	9667.1
639.406	9378.33
639.599	8956.45
639.793	8735.27
639.986	8223.28
640.18	8047.15
640.373	7686.71
640.567	7449.14
640.76	7047.74
640.954	6935.1
641.147	6378.06
641.34	6242.89
641.534	6173.26
641.727	5945.94
641.92	5812.82
642.114	5429.85
642.307	5134.94
642.5	5024.35
642.694	4674.15
642.887	4479.59
643.08	4442.73
643.273	4475.49
643.467	4070
643.66	3883.63
643.853	3770.99
644.046	3736.18
644.239	3547.76
644.432	3295.86
644.626	3179.13
644.819	3021.44
645.012	2933.37
645.205	2865.79
645.398	2822.78
645.591	2613.89
645.784	2628.23
645.977	2407.05
646.17	2411.14
646.363	2333.32
646.556	2218.63
646.749	1954.44
646.942	1958.54
647.135	2132.62
647.328	1845.9
647.521	1983.12
647.714	1667.73
647.907	1651.35
648.099	1571.47
648.292	1622.67
648.485	1469.08
648.678	1419.93
648.871	1366.68
649.064	1335.96
649.256	1198.74
649.449	1258.14
649.642	1110.68
649.835	1110.68
650.027	1079.96
650.22	1161.88
650.413	1112.73
650.605	1047.19
650.798	924.32
650.991	922.27
651.183	930.46
651.376	936.6
651.568	963.23
651.761	828.06
651.954	893.6
652.146	758.43
652.339	895.64
652.531	819.87
652.724	809.63
652.916	666.27
653.109	600.74
653.301	662.18
653.494	606.88
653.686	688.8
653.879	696.99
654.071	625.31
654.263	555.68
654.456	555.68
654.648	629.41
654.84	531.11
655.033	527.01
655.225	653.98
655.417	430.76
655.61	608.93
655.802	467.62
655.994	565.92
656.186	375.46
656.379	420.52
656.571	402.08
656.763	410.28
656.955	397.99
657.148	424.61
657.34	463.52
657.532	414.37
657.724	350.89
657.916	375.46
658.108	408.23
658.3	346.79
658.492	311.97
658.684	318.12
658.876	326.31
659.068	283.3
659.26	223.91
659.452	195.24
659.644	283.3
659.836	359.08
660.028	367.27
660.22	354.98
660.412	305.83
660.604	250.53
660.796	219.82
660.988	365.22
661.18	189.1
661.372	316.07
661.563	199.34
661.755	232.1
661.947	162.47
662.139	228.01
662.331	275.11
662.522	277.16
662.714	187.05
662.906	205.48
663.097	207.53
663.289	174.76
663.481	90.79
663.673	285.35
663.864	268.97
664.056	285.35
664.247	187.05
664.439	221.86
664.631	287.4
664.822	238.25
665.014	271.01
665.205	207.53
665.397	178.86
665.588	219.82
665.78	176.81
665.971	199.34
666.163	185
666.354	264.87
666.546	191.14
666.737	137.9
666.929	258.73
667.12	199.34
667.311	250.53
667.503	193.19
667.694	228.01
667.885	199.34
668.077	289.45
668.268	62.12
668.459	185
668.651	185
668.842	172.71
669.033	158.38
669.224	146.09
669.416	297.64
669.607	182.95
669.798	203.43
669.989	268.97
670.18	182.95
670.371	209.58
670.563	113.32
670.754	258.73
670.945	211.62
671.136	273.06
671.327	217.77
671.518	281.25
671.709	301.73
671.9	277.16
672.091	281.25
672.282	273.06
672.473	158.38
672.664	146.09
672.855	240.3
673.046	258.73
673.237	268.97
673.428	164.52
673.619	314.02
673.809	264.87
674	301.73
674.191	279.21
674.382	285.35
674.573	244.39
674.764	252.58
674.954	354.98
675.145	207.53
675.336	170.66
675.527	215.72
675.717	201.38
675.908	230.06
676.099	246.44
676.289	342.69
676.48	168.62
676.671	281.25
676.861	213.67
677.052	291.49
677.243	268.97
677.433	256.68
677.624	316.07
677.814	309.93
678.005	240.3
678.195	369.32
678.386	178.86
678.576	342.69
678.767	201.38
678.957	352.93
679.148	402.08
679.338	363.17
679.529	291.49
679.719	307.88
679.909	363.17
680.1	369.32
680.29	322.21
680.481	223.91
680.671	484
680.861	412.32
681.052	383.65
681.242	322.21
681.432	414.37
681.622	322.21
681.813	307.88
682.003	363.17
682.193	256.68
682.383	420.52
682.573	369.32
682.764	402.08
682.954	424.61
683.144	457.38
683.334	393.89
683.524	397.99
683.714	381.6
683.904	369.32
684.094	348.84
684.284	441
684.474	496.29
684.664	484
684.854	441
685.044	420.52
685.234	375.46
685.424	387.75
685.614	430.76
685.804	524.96
685.994	492.2
686.184	418.47
686.374	408.23
686.564	424.61
686.753	488.1
686.943	365.22
687.133	359.08
687.323	430.76
687.513	387.75
687.702	410.28
687.892	375.46
688.082	506.53
688.272	514.72
688.461	465.57
688.651	510.63
688.841	492.2
689.03	359.08
689.22	416.42
689.41	471.72
689.599	430.76
689.789	383.65
689.979	502.43
690.168	432.8
690.358	514.72
690.547	383.65
690.737	447.14
690.926	506.53
691.116	436.9
691.305	486.05
691.495	473.76
691.684	324.26
691.874	393.89
692.063	455.33
692.252	418.47
692.442	492.2
692.631	416.42
692.82	379.56
693.01	436.9
693.199	283.3
693.388	340.65
693.578	340.65
693.767	434.85
693.956	340.65
694.146	496.29
694.335	441
694.524	369.32
694.713	498.34
694.902	287.4
695.092	379.56
695.281	432.8
695.47	373.41
695.659	430.76
695.848	367.27
696.037	359.08
696.226	447.14
696.415	365.22
696.604	449.19
696.793	424.61
696.982	375.46
697.171	578.21
697.36	420.52
697.549	359.08
697.738	359.08
697.927	397.99
698.116	330.41
698.305	361.13
698.494	422.56
698.683	334.5
698.872	477.86
699.061	346.79
699.25	430.76
699.438	350.89
699.627	367.27
699.816	465.57
700.005	375.46
700.193	357.03
700.382	377.51
700.571	375.46
700.76	381.6
700.948	365.22
701.137	424.61
701.326	436.9
701.514	301.73
701.703	408.23
701.892	371.37
702.08	498.34
702.269	332.45
702.457	418.47
702.646	365.22
702.834	410.28
703.023	412.32
703.212	350.89
703.4	379.56
703.589	324.26
703.777	383.65
703.965	293.54
704.154	416.42
704.342	311.97
704.531	393.89
704.719	357.03
704.907	441
705.096	316.07
705.284	322.21
705.472	320.17
705.661	449.19
705.849	438.95
706.037	408.23
706.226	348.84
706.414	338.6
706.602	252.58
706.79	406.18
706.979	354.98
707.167	352.93
707.355	334.5
707.543	424.61
707.731	424.61
707.919	397.99
708.107	359.08
708.296	266.92
708.484	301.73
708.672	436.9
708.86	391.84
709.048	326.31
709.236	244.39
709.424	471.72
709.612	502.43
709.8	236.2
709.988	381.6
710.176	471.72
710.364	484
710.551	395.94
710.739	309.93
710.927	367.27
711.115	389.8
711.303	365.22
711.491	490.15
711.679	301.73
711.866	354.98
712.054	316.07
712.242	281.25
712.43	391.84
712.617	432.8
712.805	404.13
712.993	383.65
713.181	285.35
713.368	371.37
713.556	350.89
713.744	387.75
713.931	481.96
714.119	467.62
714.306	359.08
714.494	445.09
714.682	414.37
714.869	246.44
715.057	350.89
715.244	195.24
715.432	289.45
715.619	309.93
715.807	424.61
715.994	264.87
716.182	328.36
716.369	520.87
716.556	453.28
716.744	275.11
716.931	336.55
717.119	395.94
717.306	416.42
717.493	322.21
717.681	357.03
717.868	375.46
718.055	416.42
718.242	428.71
718.43	506.53
718.617	481.96
718.804	326.31
718.991	490.15
719.179	357.03
719.366	463.52
719.553	430.76
719.74	334.5
719.927	363.17
720.114	391.84
720.301	369.32
720.488	350.89
720.676	293.54
720.863	408.23
721.05	484
721.237	375.46
721.424	424.61
721.611	531.11
721.798	354.98
721.985	455.33
722.172	391.84
722.358	365.22
722.545	422.56
722.732	451.24
722.919	514.72
723.106	473.76
723.293	326.31
723.48	395.94
723.667	412.32
723.853	424.61
724.04	412.32
724.227	488.1
724.414	371.37
724.6	400.04
724.787	576.16
724.974	531.11
725.161	477.86
725.347	346.79
725.534	420.52
725.72	383.65
725.907	498.34
726.094	422.56
726.28	406.18
726.467	365.22
726.653	332.45
726.84	529.06
727.027	510.63
727.213	365.22
727.4	434.85
727.586	416.42
727.773	367.27
727.959	402.08
728.145	428.71
728.332	539.3
728.518	432.8
728.705	453.28
728.891	498.34
729.077	438.95
729.264	367.27
729.45	408.23
729.636	428.71
729.823	469.67
730.009	484
730.195	492.2
730.382	543.39
730.568	322.21
730.754	438.95
730.94	400.04
731.126	434.85
731.313	430.76
731.499	408.23
731.685	576.16
731.871	504.48
732.057	514.72
732.243	572.07
732.429	441
732.615	512.67
732.801	455.33
732.987	463.52
733.173	404.13
733.359	350.89
733.545	416.42
733.731	469.67
733.917	522.91
734.103	447.14
734.289	469.67
734.475	406.18
734.661	547.49
734.847	461.48
735.033	357.03
735.219	494.24
735.404	496.29
735.59	408.23
735.776	424.61
735.962	473.76
736.148	506.53
736.333	580.26
736.519	424.61
736.705	457.38
736.89	393.89
737.076	428.71
737.262	367.27
737.447	465.57
737.633	412.32
737.819	529.06
738.004	520.87
738.19	473.76
738.375	541.35
738.561	490.15
738.747	504.48
738.932	393.89
739.118	549.54
739.303	576.16
739.489	471.72
739.674	463.52
739.859	459.43
740.045	488.1
740.23	512.67
740.416	287.4
740.601	541.35
740.786	488.1
740.972	395.94
741.157	436.9
741.342	377.51
741.528	383.65
741.713	512.67
741.898	518.82
742.084	477.86
742.269	559.78
742.454	553.63
742.639	529.06
742.824	428.71
743.01	479.91
743.195	594.59
743.38	455.33
743.565	514.72
743.75	488.1
743.935	453.28
744.12	596.64
744.305	420.52
744.49	455.33
744.675	389.8
744.86	379.56
745.045	369.32
745.23	463.52
745.415	430.76
745.6	512.67
745.785	432.8
745.97	457.38
746.155	506.53
746.34	563.87
746.525	436.9
746.71	463.52
746.895	326.31
747.079	342.69
747.264	342.69
747.449	508.58
747.634	430.76
747.819	424.61
748.003	383.65
748.188	361.13
748.373	441
748.557	371.37
748.742	465.57
748.927	432.8
749.111	395.94
749.296	344.74
749.481	453.28
749.665	309.93
749.85	234.15
750.034	359.08
750.219	361.13
750.404	428.71
750.588	441
750.773	359.08
750.957	387.75
751.141	244.39
751.326	359.08
751.51	363.17
751.695	262.82
751.879	334.5
752.064	426.66
752.248	340.65
752.432	471.72
752.617	477.86
752.801	361.13
752.985	330.41
753.17	422.56
753.354	309.93
753.538	334.5
753.722	221.86
753.907	281.25
754.091	295.59
754.275	342.69
754.459	275.11
754.643	275.11
754.828	297.64
755.012	268.97
755.196	225.96
755.38	332.45
755.564	238.25
755.748	238.25
755.932	383.65
756.116	320.17
756.3	354.98
756.484	293.54
756.668	316.07
756.852	170.66
757.036	225.96
757.22	297.64
757.404	281.25
757.588	193.19
757.772	383.65
757.956	318.12
758.14	342.69
758.323	305.83
758.507	301.73
758.691	199.34
758.875	320.17
759.059	332.45
759.242	309.93
759.426	291.49
759.61	283.3
759.794	129.7
759.977	350.89
760.161	387.75
760.345	244.39
760.528	324.26
760.712	268.97
760.895	287.4
761.079	232.1
761.263	178.86
761.446	154.28
761.63	248.49
761.813	260.77
761.997	244.39
762.18	225.96
762.364	246.44
762.547	119.46
762.731	158.38
762.914	225.96
763.098	207.53
763.281	166.57
763.464	178.86
763.648	201.38
763.831	228.01
764.015	168.62
764.198	283.3
764.381	180.9
764.564	152.23
764.748	162.47
764.931	232.1
765.114	215.72
765.297	266.92
765.481	68.27
765.664	158.38
765.847	178.86
766.03	268.97
766.213	162.47
766.397	189.1
766.58	146.09
766.763	225.96
766.946	96.94
767.129	189.1
767.312	113.32
767.495	121.51
767.678	158.38
767.861	172.71
768.044	195.24
768.227	195.24
768.41	105.13
768.593	166.57
768.776	146.09
768.959	135.85
769.142	271.01
769.324	119.46
769.507	203.43
769.69	160.42
769.873	238.25
770.056	293.54
770.239	84.65
770.421	207.53
770.604	209.58
770.787	113.32
770.97	189.1
771.152	146.09
771.335	191.14
771.518	70.31
771.7	254.63
771.883	258.73
772.066	94.89
772.248	187.05
772.431	150.18
772.613	201.38
772.796	129.7
772.978	76.46
773.161	205.48
773.343	141.99
773.526	88.75
773.708	96.94
773.891	60.07
774.073	115.37
774.256	111.27
774.438	207.53
774.621	111.27
774.803	209.58
774.985	84.65
775.168	236.2
775.35	80.55
775.532	148.14
775.715	135.85
775.897	205.48
776.079	94.89
776.261	139.94
776.444	170.66
776.626	125.61
776.808	92.84
776.99	19.11
777.173	150.18
777.355	51.88
777.537	174.76
777.719	133.8
777.901	62.12
778.083	39.59
778.265	39.59
778.447	219.82
778.629	62.12
778.811	125.61
778.993	129.7
779.175	203.43
779.357	98.99
779.539	115.37
779.721	-3.41
779.903	144.04
780.085	80.55
780.267	131.75
780.449	115.37
780.631	119.46
780.812	146.09
780.994	101.03
781.176	78.51
781.358	62.12
781.54	90.79
781.721	103.08
781.903	125.61
782.085	84.65
782.267	195.24
782.448	-34.13
782.63	6.83
782.812	88.75
782.993	109.23
783.175	199.34
783.357	121.51
783.538	96.94
783.72	21.16
783.901	72.36
784.083	172.71
784.264	113.32
784.446	23.21
784.627	64.17
784.809	144.04
784.99	41.64
785.172	135.85
785.353	96.94
785.535	70.31
785.716	10.92
785.897	35.5
786.079	74.41
786.26	35.5
786.441	154.28
786.623	-75.09
786.804	23.21
786.985	135.85
787.167	96.94
787.348	88.75
787.529	31.4
787.71	187.05
787.891	51.88
788.073	-42.32
788.254	33.45
788.435	115.37
788.616	146.09
788.797	-15.7
788.978	55.98
789.159	37.55
789.34	39.59
789.522	-66.9
789.703	21.16
789.884	47.79
790.065	-11.61
790.246	137.9
790.427	-7.51
790.607	64.17
790.788	103.08
790.969	-11.61
791.15	78.51
791.331	51.88
791.512	12.97
791.693	-62.8
791.874	92.84
792.054	195.24
792.235	80.55
792.416	45.74
792.597	70.31
792.778	80.55
792.958	39.59
793.139	82.6
793.32	-50.52
793.5	-85.33
793.681	131.75
793.862	119.46
794.042	-17.75
794.223	-32.08
794.404	12.97
794.584	-58.71
794.765	39.59
794.945	29.35
795.126	76.46
795.306	133.8
795.487	12.97
795.667	80.55
795.848	129.7
796.028	45.74
796.209	84.65
796.389	162.47
796.57	47.79
796.75	2.73
796.93	51.88
797.111	-3.41
797.291	64.17
797.471	107.18
797.652	-11.61
797.832	23.21
798.012	45.74
798.192	58.03
798.373	4.78
798.553	-9.56
798.733	39.59
798.913	-50.52
799.093	-38.23
799.274	70.31
799.454	141.99
799.634	27.31
799.814	84.65
799.994	78.51
800.174	31.4
800.354	19.11
800.534	-17.75
800.714	94.89
800.894	-40.28
801.074	12.97
801.254	12.97
801.434	141.99
801.614	31.4
801.794	-15.7
801.974	1481.36
802.154	2.73
802.334	74.41
802.514	27.31
802.693	94.89
802.873	21.16
803.053	101.03
803.233	62.12
803.413	101.03
803.592	-3.41
803.772	-1.37
803.952	37.55
804.131	-1.37
804.311	74.41
804.491	86.7
804.67	-5.46
804.85	-103.76
805.03	10.92
805.209	72.36
805.389	-87.38
805.568	68.27
805.748	43.69
805.928	55.98
806.107	86.7
806.287	103.08
806.466	72.36
806.646	-21.84
806.825	51.88
807.004	-36.18
807.184	19.11
807.363	72.36
807.543	49.83
807.722	-25.94
807.901	72.36
808.081	68.27
808.26	-83.28
808.439	15.02
808.619	49.83
808.798	55.98
808.977	12.97
809.156	96.94
809.336	70.31
809.515	86.7
809.694	15.02
809.873	6.83
810.052	23.21
810.231	109.23
810.411	90.79
810.59	58.03
810.769	27.31
810.948	74.41
811.127	-85.33
811.306	6.83
811.485	-32.08
811.664	103.08
811.843	-34.13
812.022	88.75
812.201	-27.99
812.38	60.07
812.559	-71
812.737	35.5
812.916	-122.2
813.095	-66.9
813.274	62.12
813.453	12.97
813.632	111.27
813.811	123.56
813.989	-50.52
814.168	-3.41
814.347	-71
814.526	23.21
814.704	47.79
814.883	98.99
815.062	45.74
815.24	78.51
815.419	-13.65
815.598	6.83
815.776	-95.57
815.955	0.68
816.133	-99.67
816.312	37.55
816.49	-54.61
816.669	27.31
816.847	60.07
817.026	111.27
817.204	23.21
817.383	-13.65
817.561	-81.24
817.74	15.02
817.918	-5.46
818.097	-19.8
818.275	-1.37
818.453	31.4
818.632	6.83
818.81	-25.94
818.988	-3.41
819.167	25.26
819.345	70.31
819.523	-34.13
819.701	74.41
819.879	17.07
820.058	4.78
820.236	-42.32
820.414	8.87
820.592	-19.8
820.77	15.02
820.948	-19.8
821.127	-36.18
821.305	105.13
821.483	-73.04
821.661	94.89
821.839	6.83
822.017	-85.33
822.195	-66.9
822.373	-13.65
822.551	-5.46
822.729	121.51
822.907	27.31
823.085	82.6
823.262	45.74
823.44	4.78
823.618	21.16
823.796	88.75
823.974	-9.56
824.152	-66.9
824.329	-48.47
824.507	15.02
824.685	137.9
824.863	-3.41
825.04	31.4
825.218	37.55
825.396	-9.56
825.574	4.78
825.751	19.11
825.929	55.98
826.107	-50.52
826.284	62.12
826.462	-13.65
826.639	-34.13
826.817	-79.19
826.994	15.02
827.172	-3.41
827.349	76.46
827.527	80.55
827.704	21.16
827.882	-27.99
828.059	-42.32
828.237	64.17
828.414	55.98
828.591	-91.48
828.769	41.64
828.946	-27.99
829.124	88.75
829.301	29.35
829.478	53.93
829.655	39.59
829.833	107.18
830.01	-56.66
830.187	4.78
830.364	-56.66
830.542	17.07
830.719	164.52
830.896	-1.37
831.073	-1.37
831.25	6.83
831.427	78.51
831.604	15.02
831.782	-42.32
831.959	17.07
832.136	-27.99
832.313	66.22
832.49	-19.8
832.667	-66.9
832.844	-21.84
833.021	33.45
833.198	2.73
833.374	12.97
833.551	-11.61
833.728	-44.37
833.905	129.7
834.082	-71
834.259	37.55
834.436	74.41
834.612	-46.42
834.789	96.94
834.966	33.45
835.143	37.55
835.319	-73.04
835.496	27.31
835.673	41.64
835.85	72.36
836.026	23.21
836.203	8.87
836.38	-9.56
836.556	-3.41
836.733	-27.99
836.909	111.27
837.086	23.21
837.262	-5.46
837.439	82.6
837.616	-30.04
837.792	-34.13
837.968	-58.71
838.145	-52.56
838.321	31.4
838.498	-9.56
838.674	66.22
838.851	72.36
839.027	-1.37
839.203	88.75
839.38	21.16
839.556	-5.46
839.732	80.55
839.909	2.73
840.085	39.59
840.261	-44.37
840.437	-77.14
840.614	-118.1
840.79	31.4
840.966	58.03
841.142	70.31
841.318	-25.94
841.494	-9.56
841.671	84.65
841.847	-13.65
842.023	-50.52
842.199	39.59
842.375	109.23
842.551	-107.86
842.727	-42.32
842.903	119.46
843.079	-19.8
843.255	84.65
843.431	-71
843.607	58.03
843.783	-159.06
843.959	37.55
844.134	-118.1
844.31	21.16
844.486	-17.75
844.662	23.21
844.838	55.98
845.013	-1.37
845.189	98.99
845.365	19.11
845.541	12.97
845.716	27.31
845.892	64.17
846.068	-81.24
846.244	-62.8
846.419	35.5
846.595	-50.52
846.77	-73.04
846.946	66.22
847.122	-54.61
847.297	-99.67
847.473	107.18
847.648	12.97
847.824	64.17
847.999	-91.48
848.175	-34.13
848.35	27.31
848.526	66.22
848.701	78.51
848.876	45.74
849.052	23.21
849.227	2.73
849.403	-42.32
849.578	-58.71
849.753	64.17
849.929	-9.56
850.104	-52.56
850.279	-23.89
850.454	39.59
850.63	12.97
850.805	-42.32
850.98	15.02
851.155	-1.37
851.33	-19.8
851.505	-38.23
851.681	148.14
851.856	-73.04
852.031	47.79
852.206	12.97
852.381	-44.37
852.556	19.11
852.731	43.69
852.906	47.79
853.081	23.21
853.256	146.09
853.431	-27.99
853.606	0.68
853.781	-40.28
853.956	-89.43
854.131	25.26
854.305	-23.89
854.48	-11.61
854.655	-66.9
854.83	21.16
855.005	29.35
855.18	4.78
855.354	15.02
855.529	6.83
855.704	-64.85
855.879	-9.56
856.053	35.5
856.228	33.45
856.403	-25.94
856.577	60.07
856.752	-116.05
856.926	-46.42
857.101	-34.13
857.276	-7.51
857.45	12.97
857.625	111.27
857.799	12.97
857.974	-36.18
858.148	-19.8
858.323	12.97
858.497	6.83
858.672	15.02
858.846	-38.23
859.02	88.75
859.195	-87.38
859.369	-1.37
859.543	55.98
859.718	-79.19
859.892	6.83
860.066	103.08
860.241	0.68
860.415	19.11
860.589	23.21
860.763	-17.75
860.938	-42.32
861.112	64.17
861.286	-1.37
861.46	-36.18
861.634	92.84
861.808	53.93
861.982	-124.24
862.157	-34.13
862.331	-60.76
862.505	-68.95
862.679	-58.71
862.853	-83.28
863.027	-19.8
863.201	178.86
863.375	-44.37
863.549	55.98
863.722	49.83
863.896	84.65
864.07	-54.61
864.244	8.87
864.418	6.83
864.592	31.4
864.766	68.27
864.939	27.31
865.113	-50.52
865.287	84.65
865.461	-42.32
865.634	-77.14
865.808	-17.75
865.982	10.92
866.156	-75.09
866.329	-54.61
866.503	23.21
866.676	-58.71
866.85	21.16
867.024	-58.71
867.197	55.98
867.371	19.11
867.544	15.02
867.718	-81.24
867.891	-25.94
868.065	23.21
868.238	23.21
868.412	60.07
868.585	-21.84
868.759	-9.56
868.932	-34.13
869.105	-62.8
869.279	8.87
869.452	-38.23
869.625	-56.66
869.799	29.35
869.972	-30.04
870.145	-25.94
870.319	55.98
870.492	-54.61
870.665	-19.8
870.838	-97.62
871.011	-132.44
871.185	-58.71
871.358	-66.9
871.531	2.73
871.704	-21.84
871.877	33.45
872.05	-17.75
872.223	15.02
872.396	25.26
872.569	2.73
872.742	-77.14
872.915	35.5
873.088	-1.37
873.261	-36.18
873.434	55.98
873.607	-23.89
873.78	23.21
873.953	-42.32
874.126	113.32
874.299	-3.41
874.471	39.59
874.644	-50.52
874.817	-1.37
874.99	135.85
875.163	-30.04
875.335	55.98
875.508	-27.99
875.681	58.03
875.853	-38.23
876.026	51.88
876.199	113.32
876.371	-5.46
876.544	23.21
876.717	-46.42
876.889	12.97
877.062	109.23
877.234	-87.38
877.407	-19.8
877.579	-9.56
877.752	19.11
877.924	-9.56
878.097	47.79
878.269	-21.84
878.442	-17.75
878.614	-25.94
878.786	-46.42
878.959	-58.71
879.131	-13.65
879.303	-109.91
879.476	51.88
879.648	68.27
879.82	-25.94
879.993	-25.94
880.165	-46.42
880.337	-105.81
880.509	74.41
880.681	-75.09
880.854	-13.65
881.026	35.5
881.198	164.52
881.37	-50.52
881.542	-95.57
881.714	-48.47
881.886	-130.39
882.058	33.45
882.23	0.68
882.402	-75.09
882.574	72.36
882.746	121.51
882.918	113.32
883.09	23.21
883.262	10.92
883.434	-11.61
883.606	-114
883.778	-44.37
883.95	144.04
884.122	-64.85
884.293	66.22
884.465	-11.61
884.637	80.55
884.809	-21.84
884.98	31.4
885.152	-1.37
885.324	17.07
885.496	-64.85
885.667	-52.56
885.839	-91.48
886.011	39.59
886.182	45.74
886.354	47.79
886.525	51.88
886.697	33.45
886.869	-25.94
887.04	-83.28
887.212	33.45
887.383	125.61
887.555	-34.13
887.726	-21.84
887.897	-36.18
888.069	-9.56
888.24	-11.61
888.412	10.92
888.583	35.5
888.754	-46.42
888.926	-66.9
889.097	-42.32
889.268	-38.23
889.44	49.83
889.611	-50.52
889.782	-58.71
889.953	-105.81
890.125	103.08
890.296	29.35
890.467	-68.95
890.638	-46.42
890.809	6.83
890.98	-38.23
891.151	0.68
891.323	113.32
891.494	6.83
891.665	35.5
891.836	-36.18
892.007	-68.95
892.178	60.07
892.349	37.55
892.52	-71
892.691	39.59
892.862	-19.8
893.032	-89.43
893.203	-3.41
893.374	-89.43
893.545	23.21
893.716	-17.75
893.887	94.89
894.057	21.16
894.228	-44.37
894.399	-46.42
894.57	68.27
894.74	70.31
894.911	53.93
895.082	10.92
895.253	-21.84
895.423	-9.56
895.594	31.4
895.764	-15.7
895.935	-9.56
896.106	-40.28
896.276	-58.71
896.447	0.68
896.617	-60.76
896.788	-87.38
896.958	-114
897.129	-11.61
897.299	-85.33
897.47	70.31
897.64	-1.37
897.81	-32.08
897.981	27.31
898.151	-95.57
898.322	74.41
898.492	45.74
898.662	-66.9
898.832	-50.52
899.003	64.17
899.173	17.07
899.343	82.6
899.513	-62.8
