Data from USB4F104151__47__11-26-44-892.txt Node

Date: Wed Feb 26 11:26:44 EST 2025
User: louis
Spectrometer: USB4F10415
Trigger mode: 4
Integration Time (sec): 1.000000E-1
Scans to average: 1
Electric dark correction enabled: true
Nonlinearity correction enabled: false
Boxcar width: 0
XAxis mode: Wavelengths
Number of Pixels in Spectrum: 3648
>>>>>Begin Spectral Data<<<<<
178.204	-470.52
178.424	-470.52
178.644	-470.52
178.864	-445.95
179.084	-376.31
179.304	-15.87
179.524	6.66
179.744	-87.55
179.964	33.28
180.184	109.05
180.404	16.9
180.624	25.09
180.844	12.8
181.064	-26.11
181.283	-19.97
181.503	-79.36
181.723	25.09
181.943	-105.98
182.163	150.01
182.383	-65.02
182.602	12.8
182.822	113.15
183.042	88.57
183.262	-42.5
183.482	6.66
183.701	-40.45
183.921	18.94
184.141	20.99
184.361	35.33
184.58	20.99
184.8	45.57
185.02	113.15
185.239	117.25
185.459	68.09
185.679	127.49
185.898	-24.06
186.118	104.96
186.338	78.33
186.557	57.86
186.777	-28.16
186.997	8.7
187.216	-9.73
187.436	141.82
187.655	20.99
187.875	78.33
188.095	39.42
188.314	72.19
188.534	117.25
188.753	-46.59
188.973	133.63
189.192	197.12
189.412	-26.11
189.631	92.67
189.851	82.43
190.07	127.49
190.29	-71.17
190.509	76.29
190.729	61.95
190.948	92.67
191.168	250.36
191.387	80.38
191.607	35.33
191.826	39.42
192.045	2.56
192.265	10.75
192.484	27.14
192.704	-60.93
192.923	-50.69
193.142	201.21
193.362	84.48
193.581	133.63
193.8	131.58
194.02	43.52
194.239	23.04
194.458	55.81
194.678	57.86
194.897	-9.73
195.116	86.53
195.335	20.99
195.555	76.29
195.774	-89.6
195.993	37.38
196.212	-11.78
196.432	8.7
196.651	-9.73
196.87	-9.73
197.089	184.83
197.308	29.18
197.528	107.01
197.747	-28.16
197.966	80.38
198.185	119.29
198.404	-58.88
198.623	129.53
198.842	137.73
199.062	80.38
199.281	78.33
199.5	80.38
199.719	78.33
199.938	90.62
200.157	102.91
200.376	121.34
200.595	174.59
200.814	80.38
201.033	-40.45
201.252	72.19
201.471	-7.68
201.69	55.81
201.909	2.56
202.128	61.95
202.347	123.39
202.566	51.71
202.785	-77.31
203.004	-9.73
203.223	285.18
203.442	53.76
203.661	23.04
203.879	109.05
204.098	84.48
204.317	0.51
204.536	109.05
204.755	64
204.974	-1.54
205.193	45.57
205.411	133.63
205.63	2.56
205.849	47.62
206.068	45.57
206.287	51.71
206.505	182.78
206.724	-22.02
206.943	-15.87
207.162	-38.4
207.381	51.71
207.599	35.33
207.818	76.29
208.037	-54.78
208.255	20.99
208.474	-17.92
208.693	104.96
208.911	-22.02
209.13	168.45
209.349	74.24
209.567	55.81
209.786	-9.73
210.005	57.86
210.223	-26.11
210.442	-69.12
210.661	-44.54
210.879	16.9
211.098	25.09
211.316	64
211.535	88.57
211.753	74.24
211.972	29.18
212.191	16.9
212.409	72.19
212.628	145.92
212.846	-15.87
213.065	-9.73
213.283	197.12
213.502	57.86
213.72	35.33
213.938	98.81
214.157	41.47
214.375	109.05
214.594	-38.4
214.812	84.48
215.031	-13.82
215.249	-17.92
215.467	100.86
215.686	84.48
215.904	74.24
216.122	23.04
216.341	121.34
216.559	37.38
216.778	68.09
216.996	59.9
217.214	-44.54
217.432	29.18
217.651	-60.93
217.869	55.81
218.087	104.96
218.306	78.33
218.524	31.23
218.742	-38.4
218.96	92.67
219.179	35.33
219.397	72.19
219.615	178.69
219.833	125.44
220.051	-7.68
220.27	66.05
220.488	86.53
220.706	109.05
220.924	-56.83
221.142	-36.35
221.36	55.81
221.578	82.43
221.796	43.52
222.015	55.81
222.233	107.01
222.451	244.22
222.669	-48.64
222.887	49.66
223.105	-19.97
223.323	-5.63
223.541	12.8
223.759	104.96
223.977	-1.54
224.195	143.87
224.413	78.33
224.631	-13.82
224.849	31.23
225.067	293.37
225.285	-5.63
225.503	8.7
225.721	-126.46
225.939	57.86
226.157	14.85
226.375	268.8
226.592	12.8
226.81	-30.21
227.028	64
227.246	102.91
227.464	14.85
227.682	84.48
227.9	51.71
228.117	53.76
228.335	61.95
228.553	27.14
228.771	33.28
228.989	104.96
229.206	61.95
229.424	-54.78
229.642	-17.92
229.86	-48.64
230.077	121.34
230.295	29.18
230.513	68.09
230.731	64
230.948	113.15
231.166	289.28
231.384	4.61
231.601	-11.78
231.819	162.3
232.037	20.99
232.254	27.14
232.472	-9.73
232.689	-46.59
232.907	147.97
233.125	-7.68
233.342	4.61
233.56	51.71
233.777	14.85
233.995	61.95
234.213	84.48
234.43	109.05
234.648	57.86
234.865	-7.68
235.083	100.86
235.3	-65.02
235.518	68.09
235.735	164.35
235.953	45.57
236.17	39.42
236.388	59.9
236.605	20.99
236.822	59.9
237.04	107.01
237.257	82.43
237.475	-32.26
237.692	23.04
237.909	119.29
238.127	10.75
238.344	-15.87
238.562	23.04
238.779	-30.21
238.996	-75.26
239.214	66.05
239.431	86.53
239.648	4.61
239.865	121.34
240.083	20.99
240.3	-56.83
240.517	119.29
240.735	64
240.952	115.2
241.169	80.38
241.386	49.66
241.603	27.14
241.821	-65.02
242.038	125.44
242.255	27.14
242.472	10.75
242.689	70.14
242.907	29.18
243.124	80.38
243.341	-3.58
243.558	-3.58
243.775	-11.78
243.992	-56.83
244.209	18.94
244.426	180.73
244.643	-3.58
244.86	49.66
245.078	92.67
245.295	78.33
245.512	4.61
245.729	-19.97
245.946	84.48
246.163	33.28
246.38	-9.73
246.597	45.57
246.814	29.18
247.031	23.04
247.248	12.8
247.464	70.14
247.681	102.91
247.898	68.09
248.115	64
248.332	-44.54
248.549	129.53
248.766	156.16
248.983	139.77
249.2	141.82
249.417	94.72
249.633	33.28
249.85	70.14
250.067	107.01
250.284	68.09
250.501	94.72
250.717	-40.45
250.934	-36.35
251.151	59.9
251.368	6.66
251.585	64
251.801	82.43
252.018	-48.64
252.235	14.85
252.451	-89.6
252.668	-9.73
252.885	129.53
253.102	51.71
253.318	33.28
253.535	39.42
253.752	35.33
253.968	-69.12
254.185	-34.3
254.401	86.53
254.618	86.53
254.835	53.76
255.051	162.3
255.268	57.86
255.484	70.14
255.701	12.8
255.917	86.53
256.134	-54.78
256.351	72.19
256.567	-50.69
256.784	31.23
257	43.52
257.217	82.43
257.433	94.72
257.65	-7.68
257.866	141.82
258.082	-50.69
258.299	-1.54
258.515	92.67
258.732	102.91
258.948	-58.88
259.165	39.42
259.381	-58.88
259.597	86.53
259.814	100.86
260.03	70.14
260.246	-30.21
260.463	182.78
260.679	154.11
260.895	-26.11
261.112	37.38
261.328	-7.68
261.544	29.18
261.761	160.25
261.977	4.61
262.193	-32.26
262.409	182.78
262.626	98.81
262.842	18.94
263.058	25.09
263.274	119.29
263.49	29.18
263.707	121.34
263.923	25.09
264.139	8.7
264.355	59.9
264.571	78.33
264.787	92.67
265.004	135.68
265.22	4.61
265.436	20.99
265.652	55.81
265.868	70.14
266.084	-38.4
266.3	51.71
266.516	31.23
266.732	-3.58
266.948	88.57
267.164	-9.73
267.38	109.05
267.596	115.2
267.812	113.15
268.028	86.53
268.244	43.52
268.46	16.9
268.676	-26.11
268.892	78.33
269.108	-58.88
269.324	-60.93
269.54	-3.58
269.756	90.62
269.972	-60.93
270.188	23.04
270.403	78.33
270.619	41.47
270.835	96.77
271.051	47.62
271.267	-17.92
271.483	10.75
271.698	117.25
271.914	16.9
272.13	45.57
272.346	-32.26
272.562	10.75
272.777	92.67
272.993	8.7
273.209	-3.58
273.425	37.38
273.64	-40.45
273.856	76.29
274.072	4.61
274.287	-30.21
274.503	131.58
274.719	70.14
274.934	-9.73
275.15	-17.92
275.366	-118.27
275.581	-67.07
275.797	16.9
276.012	-7.68
276.228	10.75
276.444	98.81
276.659	137.73
276.875	4.61
277.09	-3.58
277.306	6.66
277.521	10.75
277.737	113.15
277.952	80.38
278.168	47.62
278.383	64
278.599	70.14
278.814	55.81
279.03	25.09
279.245	135.68
279.461	-11.78
279.676	139.77
279.892	-13.82
280.107	6.66
280.322	12.8
280.538	131.58
280.753	-34.3
280.969	88.57
281.184	-30.21
281.399	131.58
281.615	68.09
281.83	20.99
282.045	-89.6
282.26	-15.87
282.476	23.04
282.691	111.1
282.906	39.42
283.122	33.28
283.337	-32.26
283.552	90.62
283.767	-5.63
283.983	74.24
284.198	12.8
284.413	98.81
284.628	-71.17
284.843	70.14
285.058	88.57
285.274	29.18
285.489	2.56
285.704	6.66
285.919	-40.45
286.134	20.99
286.349	82.43
286.564	31.23
286.779	129.53
286.995	-11.78
287.21	-54.78
287.425	131.58
287.64	-9.73
287.855	47.62
288.07	-7.68
288.285	109.05
288.5	135.68
288.715	23.04
288.93	64
289.145	35.33
289.36	98.81
289.575	-71.17
289.79	51.71
290.004	57.86
290.219	145.92
290.434	53.76
290.649	-42.5
290.864	-9.73
291.079	8.7
291.294	25.09
291.509	-44.54
291.724	-1.54
291.938	90.62
292.153	16.9
292.368	4.61
292.583	57.86
292.798	74.24
293.012	49.66
293.227	43.52
293.442	33.28
293.657	72.19
293.871	86.53
294.086	-3.58
294.301	162.3
294.516	94.72
294.73	37.38
294.945	-15.87
295.16	80.38
295.374	182.78
295.589	117.25
295.804	29.18
296.018	-46.59
296.233	158.21
296.447	12.8
296.662	41.47
296.877	147.97
297.091	68.09
297.306	47.62
297.52	18.94
297.735	125.44
297.949	-22.02
298.164	-1.54
298.378	55.81
298.593	-24.06
298.807	-7.68
299.022	84.48
299.236	150.01
299.451	-58.88
299.665	68.09
299.88	6.66
300.094	-15.87
300.309	-19.97
300.523	39.42
300.737	-11.78
300.952	117.25
301.166	70.14
301.381	76.29
301.595	51.71
301.809	115.2
302.024	8.7
302.238	8.7
302.452	131.58
302.667	55.81
302.881	104.96
303.095	119.29
303.309	80.38
303.524	-22.02
303.738	29.18
303.952	6.66
304.166	80.38
304.381	-44.54
304.595	154.11
304.809	2.56
305.023	14.85
305.237	-13.82
305.452	-7.68
305.666	16.9
305.88	45.57
306.094	74.24
306.308	45.57
306.522	129.53
306.736	35.33
306.95	64
307.164	29.18
307.379	43.52
307.593	117.25
307.807	182.78
308.021	154.11
308.235	45.57
308.449	-79.36
308.663	39.42
308.877	246.27
309.091	66.05
309.305	74.24
309.519	-48.64
309.733	156.16
309.947	-89.6
310.161	111.1
310.374	98.81
310.588	45.57
310.802	25.09
311.016	-26.11
311.23	59.9
311.444	0.51
311.658	25.09
311.872	162.3
312.085	158.21
312.299	139.77
312.513	72.19
312.727	61.95
312.941	-15.87
313.154	64
313.368	39.42
313.582	39.42
313.796	29.18
314.009	8.7
314.223	78.33
314.437	94.72
314.651	37.38
314.864	78.33
315.078	29.18
315.292	-62.98
315.505	16.9
315.719	57.86
315.933	31.23
316.146	-54.78
316.36	16.9
316.573	66.05
316.787	16.9
317.001	86.53
317.214	39.42
317.428	-13.82
317.641	-5.63
317.855	25.09
318.068	16.9
318.282	82.43
318.495	170.49
318.709	12.8
318.922	94.72
319.136	111.1
319.349	55.81
319.563	-36.35
319.776	147.97
319.99	-22.02
320.203	66.05
320.417	2.56
320.63	86.53
320.843	143.87
321.057	14.85
321.27	-9.73
321.483	35.33
321.697	88.57
321.91	0.51
322.124	55.81
322.337	53.76
322.55	2.56
322.763	68.09
322.977	-7.68
323.19	37.38
323.403	20.99
323.617	20.99
323.83	104.96
324.043	0.51
324.256	64
324.469	-40.45
324.683	27.14
324.896	78.33
325.109	94.72
325.322	-30.21
325.535	31.23
325.748	154.11
325.962	113.15
326.175	41.47
326.388	150.01
326.601	176.64
326.814	2.56
327.027	147.97
327.24	197.12
327.453	-56.83
327.666	47.62
327.879	125.44
328.092	53.76
328.305	57.86
328.518	14.85
328.731	127.49
328.944	-19.97
329.157	68.09
329.37	29.18
329.583	174.59
329.796	162.3
330.009	10.75
330.222	76.29
330.435	82.43
330.648	152.06
330.861	49.66
331.073	33.28
331.286	137.73
331.499	61.95
331.712	-54.78
331.925	88.57
332.138	45.57
332.35	135.68
332.563	-101.89
332.776	72.19
332.989	-28.16
333.202	39.42
333.414	12.8
333.627	59.9
333.84	-3.58
334.053	102.91
334.265	-48.64
334.478	-54.78
334.691	-9.73
334.903	31.23
335.116	35.33
335.329	94.72
335.541	92.67
335.754	233.98
335.966	-15.87
336.179	14.85
336.392	-24.06
336.604	59.9
336.817	113.15
337.029	137.73
337.242	74.24
337.454	213.5
337.667	23.04
337.88	131.58
338.092	100.86
338.305	53.76
338.517	80.38
338.729	109.05
338.942	258.56
339.154	-44.54
339.367	12.8
339.579	107.01
339.792	-9.73
340.004	188.93
340.217	-19.97
340.429	76.29
340.641	0.51
340.854	14.85
341.066	-13.82
341.278	154.11
341.491	199.16
341.703	27.14
341.915	-60.93
342.128	88.57
342.34	-1.54
342.552	-26.11
342.764	23.04
342.977	59.9
343.189	49.66
343.401	84.48
343.613	-71.17
343.826	72.19
344.038	10.75
344.25	37.38
344.462	6.66
344.674	66.05
344.886	-13.82
345.099	117.25
345.311	104.96
345.523	-17.92
345.735	-83.45
345.947	47.62
346.159	98.81
346.371	55.81
346.583	43.52
346.795	137.73
347.007	43.52
347.219	55.81
347.431	49.66
347.643	135.68
347.855	35.33
348.067	88.57
348.279	-28.16
348.491	55.81
348.703	154.11
348.915	45.57
349.127	-105.98
349.339	98.81
349.551	18.94
349.763	111.1
349.975	88.57
350.187	72.19
350.399	154.11
350.61	25.09
350.822	43.52
351.034	64
351.246	12.8
351.458	41.47
351.669	127.49
351.881	55.81
352.093	64
352.305	252.41
352.517	68.09
352.728	158.21
352.94	123.39
353.152	113.15
353.363	4.61
353.575	76.29
353.787	199.16
353.999	57.86
354.21	145.92
354.422	-69.12
354.633	111.1
354.845	49.66
355.057	39.42
355.268	8.7
355.48	31.23
355.692	-58.88
355.903	59.9
356.115	6.66
356.326	-108.03
356.538	182.78
356.749	94.72
356.961	154.11
357.172	55.81
357.384	-52.74
357.595	213.5
357.807	72.19
358.018	-1.54
358.23	64
358.441	133.63
358.653	102.91
358.864	88.57
359.075	-30.21
359.287	51.71
359.498	113.15
359.709	59.9
359.921	29.18
360.132	25.09
360.344	2.56
360.555	59.9
360.766	-5.63
360.977	-5.63
361.189	135.68
361.4	18.94
361.611	88.57
361.823	113.15
362.034	18.94
362.245	-32.26
362.456	31.23
362.667	18.94
362.879	6.66
363.09	96.77
363.301	76.29
363.512	59.9
363.723	-26.11
363.935	-30.21
364.146	92.67
364.357	49.66
364.568	31.23
364.779	2.56
364.99	139.77
365.201	2.56
365.412	84.48
365.623	-60.93
365.834	61.95
366.045	43.52
366.256	121.34
366.467	100.86
366.678	-22.02
366.889	121.34
367.1	-36.35
367.311	137.73
367.522	61.95
367.733	78.33
367.944	141.82
368.155	18.94
368.366	168.45
368.577	94.72
368.788	145.92
368.999	6.66
369.209	41.47
369.42	313.85
369.631	160.25
369.842	125.44
370.053	-19.97
370.264	117.25
370.474	-26.11
370.685	4.61
370.896	18.94
371.107	111.1
371.317	100.86
371.528	43.52
371.739	156.16
371.95	92.67
372.16	154.11
372.371	-48.64
372.582	55.81
372.792	74.24
373.003	111.1
373.214	37.38
373.424	94.72
373.635	-48.64
373.846	74.24
374.056	41.47
374.267	102.91
374.477	2.56
374.688	-52.74
374.898	53.76
375.109	72.19
375.319	57.86
375.53	100.86
375.74	113.15
375.951	47.62
376.161	0.51
376.372	152.06
376.582	82.43
376.793	64
377.003	86.53
377.214	-15.87
377.424	78.33
377.635	53.76
377.845	39.42
378.055	147.97
378.266	-9.73
378.476	53.76
378.686	88.57
378.897	-7.68
379.107	94.72
379.317	68.09
379.528	14.85
379.738	96.77
379.948	-9.73
380.158	111.1
380.369	86.53
380.579	35.33
380.789	-22.02
380.999	102.91
381.21	102.91
381.42	164.35
381.63	76.29
381.84	90.62
382.05	139.77
382.261	90.62
382.471	131.58
382.681	57.86
382.891	154.11
383.101	53.76
383.311	23.04
383.521	-44.54
383.731	86.53
383.941	147.97
384.151	135.68
384.361	88.57
384.571	43.52
384.781	129.53
384.991	166.4
385.201	178.69
385.411	86.53
385.621	72.19
385.831	25.09
386.041	0.51
386.251	-19.97
386.461	127.49
386.671	-3.58
386.881	45.57
387.091	-1.54
387.301	66.05
387.511	57.86
387.72	70.14
387.93	84.48
388.14	-19.97
388.35	145.92
388.56	113.15
388.769	154.11
388.979	64
389.189	37.38
389.399	10.75
389.609	172.54
389.818	94.72
390.028	-32.26
390.238	139.77
390.447	-22.02
390.657	160.25
390.867	-15.87
391.076	-69.12
391.286	104.96
391.496	33.28
391.705	49.66
391.915	102.91
392.125	107.01
392.334	37.38
392.544	137.73
392.753	27.14
392.963	-69.12
393.172	18.94
393.382	-19.97
393.591	184.83
393.801	23.04
394.01	215.55
394.22	43.52
394.429	37.38
394.639	25.09
394.848	123.39
395.058	131.58
395.267	-26.11
395.477	66.05
395.686	53.76
395.895	74.24
396.105	133.63
396.314	119.29
396.524	10.75
396.733	68.09
396.942	111.1
397.152	27.14
397.361	158.21
397.57	4.61
397.78	47.62
397.989	76.29
398.198	188.93
398.407	61.95
398.617	-17.92
398.826	80.38
399.035	35.33
399.244	80.38
399.453	154.11
399.663	109.05
399.872	59.9
400.081	53.76
400.29	172.54
400.499	-69.12
400.708	160.25
400.917	41.47
401.127	12.8
401.336	59.9
401.545	238.08
401.754	133.63
401.963	143.87
402.172	23.04
402.381	-26.11
402.59	49.66
402.799	39.42
403.008	117.25
403.217	51.71
403.426	90.62
403.635	-105.98
403.844	23.04
404.053	-50.69
404.262	-36.35
404.471	195.07
404.68	53.76
404.888	41.47
405.097	-17.92
405.306	-19.97
405.515	80.38
405.724	31.23
405.933	51.71
406.142	47.62
406.35	74.24
406.559	18.94
406.768	45.57
406.977	123.39
407.185	86.53
407.394	37.38
407.603	-15.87
407.812	74.24
408.02	158.21
408.229	4.61
408.438	55.81
408.646	-114.17
408.855	64
409.064	104.96
409.272	47.62
409.481	107.01
409.69	53.76
409.898	-93.69
410.107	80.38
410.315	133.63
410.524	14.85
410.733	94.72
410.941	70.14
411.15	119.29
411.358	129.53
411.567	152.06
411.775	8.7
411.984	25.09
412.192	92.67
412.401	-19.97
412.609	182.78
412.818	127.49
413.026	-7.68
413.234	64
413.443	74.24
413.651	-54.78
413.86	133.63
414.068	158.21
414.276	109.05
414.485	-15.87
414.693	143.87
414.901	160.25
415.11	78.33
415.318	27.14
415.526	51.71
415.734	178.69
415.943	66.05
416.151	66.05
416.359	84.48
416.567	119.29
416.776	115.2
416.984	145.92
417.192	170.49
417.4	-5.63
417.608	-38.4
417.817	53.76
418.025	180.73
418.233	182.78
418.441	2.56
418.649	-28.16
418.857	23.04
419.065	121.34
419.273	37.38
419.481	82.43
419.689	49.66
419.897	14.85
420.105	-40.45
420.313	147.97
420.521	72.19
420.729	90.62
420.937	0.51
421.145	-22.02
421.353	70.14
421.561	170.49
421.769	37.38
421.977	-15.87
422.185	55.81
422.393	109.05
422.601	92.67
422.809	127.49
423.017	51.71
423.224	115.2
423.432	102.91
423.64	53.76
423.848	137.73
424.056	59.9
424.263	92.67
424.471	16.9
424.679	164.35
424.887	12.8
425.094	154.11
425.302	80.38
425.51	180.73
425.718	182.78
425.925	82.43
426.133	49.66
426.341	193.02
426.548	68.09
426.756	74.24
426.964	127.49
427.171	74.24
427.379	135.68
427.586	96.77
427.794	59.9
428.001	96.77
428.209	47.62
428.417	184.83
428.624	92.67
428.832	104.96
429.039	174.59
429.247	74.24
429.454	168.45
429.662	127.49
429.869	193.02
430.076	57.86
430.284	113.15
430.491	215.55
430.699	154.11
430.906	209.4
431.114	129.53
431.321	96.77
431.528	141.82
431.736	74.24
431.943	152.06
432.15	193.02
432.358	252.41
432.565	190.97
432.772	12.8
432.979	201.21
433.187	119.29
433.394	217.6
433.601	82.43
433.808	233.98
434.016	256.51
434.223	279.04
434.43	225.79
434.637	268.8
434.844	274.94
435.052	260.6
435.259	246.27
435.466	293.37
435.673	334.33
435.88	289.28
436.087	336.38
436.294	287.23
436.501	268.8
436.708	344.57
436.915	377.34
437.122	391.67
437.329	276.99
437.537	346.62
437.743	328.19
437.95	434.68
438.157	391.67
438.364	381.43
438.571	412.15
438.778	399.87
438.985	471.54
439.192	430.59
439.399	489.98
439.606	444.92
439.813	530.94
440.02	573.94
440.227	682.49
440.433	539.13
440.64	594.42
440.847	522.74
441.054	602.61
441.261	645.62
441.467	674.29
441.674	604.66
441.881	745.97
442.088	621.05
442.294	756.21
442.501	793.08
442.708	821.75
442.914	711.16
443.121	846.32
443.328	911.86
443.534	971.25
443.741	823.8
443.948	807.41
444.154	928.24
444.361	1112.56
444.568	1036.78
444.774	1116.65
444.981	938.48
445.187	1194.48
445.394	1223.15
445.6	1227.25
445.807	1348.08
446.013	1329.64
446.22	1241.58
446.426	1362.41
446.633	1475.05
446.839	1649.13
447.046	1511.91
447.252	1606.12
447.459	1591.78
447.665	1673.7
447.871	1812.96
448.078	1853.92
448.284	1784.29
448.491	2038.24
448.697	2144.74
448.903	2214.37
449.11	2255.33
449.316	2230.75
449.522	2345.44
449.728	2488.79
449.935	2583
450.141	2548.19
450.347	2873.81
450.553	2752.98
450.76	2855.38
450.966	2963.92
451.172	2982.35
451.378	3170.77
451.584	3260.88
451.791	3389.9
451.997	3496.39
452.203	3619.27
452.409	3760.58
452.615	3983.81
452.821	3865.03
453.027	3903.94
453.233	4403.64
453.44	4184.51
453.646	4723.13
453.852	4780.47
454.058	4901.3
454.264	4841.91
454.47	5403.05
454.676	5368.24
454.882	5710.25
455.088	5409.2
455.294	5771.69
455.5	6220.19
455.705	6570.4
455.911	6592.92
456.117	6551.96
456.323	7072.15
456.529	7014.8
456.735	7545.23
456.941	7797.13
457.147	8180.1
457.352	8370.56
457.558	8663.42
457.764	9085.3
457.97	9400.69
458.176	9650.54
458.381	10332.51
458.587	10377.57
458.793	10635.61
458.999	10893.66
459.204	12155.21
459.41	12675.39
459.616	12208.45
459.821	13214.01
460.027	13635.89
460.233	14496.03
460.438	14582.05
460.644	15446.29
460.85	15337.75
461.055	16087.31
461.261	16623.87
461.466	16337.16
461.672	16732.42
461.878	18692.32
462.083	18323.69
462.289	18962.65
462.494	19589.33
462.7	19869.9
462.905	20103.37
463.111	21606.58
463.316	22573.22
463.522	23171.23
463.727	23840.92
463.932	24936.58
464.138	25589.88
464.343	26673.26
464.549	26452.08
464.754	28848.2
464.959	29726.78
465.165	30003.25
465.37	30036.02
465.575	29726.78
465.781	31768.6
465.986	32940.04
466.191	32245.78
466.397	32722.96
466.602	31907.87
466.807	33822.72
467.012	34240.5
467.218	34842.6
467.423	34826.22
467.628	36145.11
467.833	37883.84
468.038	36972.49
468.244	36732.88
468.449	38748.08
468.654	37689.28
468.859	37515.2
469.064	37830.59
469.269	36882.38
469.474	36939.72
469.679	38053.82
469.885	36970.44
470.09	37629.89
470.295	37875.65
470.5	36642.77
470.705	37224.39
470.91	36061.15
471.115	35727.33
471.32	36769.74
471.525	36032.47
471.73	34783.21
471.935	34764.78
472.139	33527.81
472.344	34033.66
472.549	33751.04
472.754	32851.98
472.959	32303.12
473.164	31180.84
473.369	30519.34
473.574	31555.61
473.778	31010.85
473.983	30322.74
474.188	29831.22
474.393	28573.77
474.598	28512.33
474.802	27920.47
475.007	27512.92
475.212	27082.85
475.417	26003.57
475.621	25833.59
475.826	25573.5
476.031	24795.27
476.235	24227.98
476.44	24703.11
476.645	23738.52
476.849	23914.64
477.054	23103.65
477.259	22524.07
477.463	22522.02
477.668	21915.83
477.872	21956.78
478.077	21262.52
478.282	20754.63
478.486	20525.25
478.691	20551.88
478.895	20191.44
479.1	20277.45
479.304	19876.05
479.509	19007.71
479.713	19265.75
479.918	19116.25
480.122	18575.59
480.326	18800.87
480.531	18804.96
480.735	18280.68
480.94	17864.94
481.144	18745.57
481.348	17778.93
481.553	18143.47
481.757	17441.01
481.961	17510.64
482.166	17596.66
482.37	17496.31
482.574	17121.53
482.778	17017.08
482.983	17285.37
483.187	16713.98
483.391	16679.17
483.595	16718.08
483.8	16283.91
484.004	16441.61
484.208	16496.9
484.412	16118.03
484.616	15921.42
484.821	15745.3
485.025	15130.91
485.229	15270.17
485.433	15036.7
485.637	15182.1
485.841	14491.94
486.045	14616.86
486.249	14571.81
486.453	14260.52
486.657	14025
486.861	14143.78
487.065	13359.41
487.269	13633.84
487.473	12927.29
487.677	13205.81
487.881	12974.39
488.085	12566.85
488.289	12771.65
488.493	12165.45
488.697	12278.08
488.901	11964.75
489.105	11653.45
489.309	11630.93
489.512	11213.14
489.716	11112.79
489.92	10889.56
490.124	10819.93
490.328	10901.85
490.531	10414.43
490.735	10420.58
490.939	10164.58
491.143	9707.88
491.346	9863.53
491.55	9513.33
491.754	9455.98
491.958	9429.36
492.161	9132.4
492.365	9011.57
492.569	8743.29
492.772	8849.78
492.976	8714.62
493.18	8604.03
493.383	8665.47
493.587	8573.31
493.79	8573.31
493.994	8180.1
494.197	8120.71
494.401	8173.96
494.605	8028.55
494.808	8032.65
495.012	8079.75
495.215	7844.23
495.419	7840.14
495.622	7664.01
495.825	7788.94
496.029	7549.32
496.232	7713.16
496.436	7571.85
496.639	7860.62
496.843	7661.96
497.046	7844.23
497.249	7817.61
497.453	7735.69
497.656	7494.03
497.859	7799.18
498.063	7836.04
498.266	7846.28
498.469	7621
498.673	7743.88
498.876	7870.86
499.079	7670.15
499.282	7856.52
499.485	8436.1
499.689	7981.45
499.892	8155.52
500.095	8042.89
500.298	8288.64
500.501	8292.74
500.705	8307.07
500.908	8202.63
501.111	8534.4
501.314	8653.18
501.517	8757.63
501.72	8708.48
501.923	8728.95
502.126	8935.8
502.329	9050.49
502.532	9419.12
502.735	9167.22
502.938	9382.26
503.141	9556.33
503.344	9703.79
503.547	9834.86
503.75	9812.33
503.953	10056.04
504.156	10135.91
504.359	10213.73
504.562	10404.19
504.765	10473.82
504.968	10893.66
505.17	10994.01
505.373	11116.89
505.576	11528.53
505.779	11422.03
505.982	11491.66
506.185	11950.41
506.387	12085.58
506.59	12413.25
506.793	12908.86
506.996	12661.05
507.198	13058.36
507.401	13357.36
507.604	13670.7
507.807	13889.84
508.009	14135.59
508.212	14496.03
508.415	14539.04
508.617	14971.16
508.82	15218.97
509.022	15296.79
509.225	16023.82
509.428	16263.43
509.63	16484.61
509.833	16748.8
510.035	17641.71
510.238	17465.59
510.44	17899.76
510.643	18346.22
510.845	19185.88
511.048	18952.41
511.25	19423.45
511.453	19863.76
511.655	20988.1
511.858	21070.01
512.06	21354.68
512.262	22143.15
512.465	22669.48
512.667	22829.22
512.87	23666.84
513.072	23939.22
513.274	24651.91
513.477	25297.02
513.679	25985.14
513.881	26429.55
514.084	26902.63
514.286	27373.66
514.488	27723.86
514.69	28946.5
514.893	29286.47
515.095	30126.13
515.297	30335.03
515.499	30965.8
515.701	32083.99
515.904	32841.74
516.106	33531.9
516.308	34152.44
516.51	34738.16
516.712	35106.79
516.914	35866.59
517.116	36984.78
517.318	37183.43
517.52	38131.64
517.722	38477.75
517.925	39378.86
518.127	40312.73
518.329	41314.19
518.531	41572.23
518.733	42385.27
518.935	42934.13
519.136	43200.36
519.338	44156.77
519.54	44676.95
519.742	45549.38
519.944	46354.24
520.146	47284.01
520.348	48068.39
520.55	48262.94
520.752	48731.93
520.954	49628.94
521.155	49807.11
521.357	50413.31
521.559	51269.36
521.761	51910.38
521.963	52158.18
522.164	52907.74
522.366	53245.65
522.568	53638.86
522.77	54136.52
522.971	55172.79
523.173	54673.09
523.375	55537.33
523.576	55490.23
523.778	55688.88
523.98	56366.76
524.181	56342.18
524.383	56549.03
524.584	56975
524.786	56698.53
524.988	56925.85
525.189	57460.37
525.391	57595.54
525.592	57618.06
525.794	57755.28
525.995	57652.88
526.197	57718.42
526.398	57884.3
526.6	57482.9
526.801	57333.4
527.003	57372.31
527.204	57337.49
527.406	57548.43
527.607	56696.48
527.808	57169.56
528.01	55717.55
528.211	55576.24
528.412	56409.76
528.614	55553.71
528.815	55389.87
529.016	55191.22
529.218	54005.45
529.419	54109.89
529.62	53827.27
529.822	53411.54
530.023	52522.72
530.224	52334.31
530.425	52139.75
530.626	51058.42
530.828	50417.41
531.029	51418.86
531.23	49985.29
531.431	49114.9
531.632	48846.61
531.833	48920.34
532.035	48191.26
532.236	47626.03
532.437	47023.92
532.638	46532.41
532.839	45913.92
533.04	45547.34
533.241	44373.85
533.442	44865.36
533.643	43980.64
533.844	43116.4
534.045	42635.13
534.246	41777.03
534.447	41267.08
534.648	41033.61
534.849	40542.1
535.05	39540.64
535.251	39202.73
535.451	38899.63
535.652	38348.73
535.853	37990.33
536.054	37572.55
536.255	37160.9
536.456	35856.35
536.657	36218.84
536.857	35233.77
537.058	34715.63
537.259	34756.59
537.46	33708.03
537.66	33396.74
537.861	33550.34
538.062	32436.24
538.263	32163.86
538.463	31811.61
538.664	31459.36
538.865	30939.18
539.065	31043.62
539.266	30316.59
539.466	30249.01
539.667	29294.66
539.868	29497.41
540.068	28997.7
540.269	28414.03
540.469	28153.94
540.67	27650.14
540.87	27840.6
541.071	27461.72
541.271	27203.68
541.472	26605.67
541.672	26230.9
541.873	25716.86
542.073	25403.52
542.274	25696.38
542.474	25211.01
542.675	24940.68
542.875	24600.71
543.075	24025.23
543.276	23816.34
543.476	23969.94
543.676	23351.45
543.877	23306.4
544.077	22929.57
544.277	22841.51
544.478	22356.14
544.678	22042.8
544.878	21799.09
545.078	21844.15
545.279	21268.67
545.479	21070.01
545.679	21035.2
545.879	20865.22
546.079	20641.99
546.28	20279.5
546.48	19929.3
546.68	19849.43
546.88	19601.62
547.08	19521.75
547.28	19214.55
547.48	18901.22
547.68	18733.28
547.88	18403.56
548.081	18272.49
548.281	17774.83
548.481	17395.96
548.681	17596.66
548.881	17355
549.081	17056
549.28	16783.62
549.48	16869.63
549.68	16310.54
549.88	16398.6
550.08	15984.91
550.28	15763.73
550.48	15819.02
550.68	15403.28
550.88	15311.13
551.08	14958.88
551.279	15202.58
551.479	14450.98
551.679	14383.4
551.879	14092.58
552.079	13959.47
552.278	13664.56
552.478	13670.7
552.678	13189.43
552.878	13269.3
553.077	12800.32
553.277	12564.8
553.477	12366.15
553.676	12542.27
553.876	12212.55
554.076	11739.47
554.275	11729.23
554.475	11303.25
554.674	11344.21
554.874	11075.93
555.074	10787.16
555.273	10858.84
555.473	10615.13
555.672	10531.17
555.872	10064.23
556.071	10350.95
556.271	10185.06
556.47	9888.11
556.67	9664.88
556.869	9331.06
557.068	9345.39
557.268	9013.62
557.467	9251.19
557.667	9009.53
557.866	8847.74
558.065	8661.37
558.265	8583.55
558.464	8448.38
558.663	8278.4
558.863	8003.97
559.062	8092.04
559.261	7657.87
559.461	7893.38
559.66	7584.14
559.859	7389.58
560.058	7313.81
560.258	7176.59
560.457	7113.11
560.656	7057.81
560.855	6625.69
561.054	7000.47
561.253	6721.95
561.453	6556.06
561.652	6441.37
561.851	6531.48
562.05	6230.43
562.249	6011.3
562.448	6279.58
562.647	5896.61
562.846	5958.05
563.045	5763.5
563.244	5601.71
563.443	5767.59
563.642	5493.16
563.841	5425.58
564.04	5237.17
564.239	5323.18
564.438	5235.12
564.637	5206.45
564.836	5114.29
565.035	4997.56
565.234	5013.94
565.432	4811.19
565.631	4913.59
565.83	4796.85
566.029	4526.52
566.228	4508.09
566.427	4579.77
566.625	4458.94
566.824	4364.73
567.023	4342.21
567.222	4174.27
567.42	4274.62
567.619	4086.21
567.818	4100.55
568.016	4180.42
568.215	3881.41
568.414	4084.16
568.612	3817.93
568.811	3750.34
569.01	3658.18
569.208	3623.37
569.407	3621.32
569.605	3514.83
569.804	3555.79
570.002	3523.02
570.201	3258.83
570.4	3357.13
570.598	3324.37
570.797	3269.07
570.995	3275.21
571.193	3105.23
571.392	3187.15
571.59	2908.63
571.789	2992.59
571.987	2955.73
572.186	3008.98
572.384	2836.95
572.582	2839
572.781	2879.96
572.979	2697.69
573.177	2666.97
573.376	2728.41
573.574	2757.08
573.772	2609.62
573.971	2521.56
574.169	2433.5
574.367	2341.34
574.565	2451.93
574.763	2308.57
574.962	2243.04
575.16	2365.92
575.358	2257.37
575.556	2243.04
575.754	2370.01
575.952	2152.93
576.151	2236.89
576.349	2257.37
576.547	1919.46
576.745	2081.25
576.943	1982.95
577.141	1923.55
577.339	1878.5
577.537	1946.08
577.735	1903.07
577.933	1890.79
578.131	1751.53
578.329	1890.79
578.527	1704.42
578.725	1812.96
578.923	1673.7
579.121	1774.05
579.319	1550.82
579.516	1647.08
579.714	1755.62
579.912	1524.2
580.11	1462.76
580.308	1436.14
580.506	1495.53
580.704	1356.27
580.901	1456.62
581.099	1518.06
581.297	1544.68
581.495	1364.46
581.692	1370.6
581.89	1503.72
582.088	1448.43
582.285	1288.68
582.483	1186.29
582.681	1346.03
582.878	1210.86
583.076	1153.52
583.274	1288.68
583.471	1264.11
583.669	1262.06
583.866	1128.94
584.064	1106.42
584.262	1124.85
584.459	1018.35
584.657	1184.24
584.854	1071.6
585.052	1110.51
585.249	1024.5
585.447	1096.18
585.644	1001.97
585.841	1092.08
586.039	1020.4
586.236	1006.06
586.434	1010.16
586.631	899.57
586.828	930.29
587.026	946.67
587.223	825.84
587.42	883.19
587.618	1010.16
587.815	922.1
588.012	866.8
588.21	834.04
588.407	909.81
588.604	770.55
588.801	768.5
588.999	797.17
589.196	862.71
589.393	776.69
589.59	872.95
589.787	877.04
589.984	809.46
590.182	768.5
590.379	684.53
590.576	915.95
590.773	739.83
590.97	768.5
591.167	815.6
591.364	819.7
591.561	727.54
591.758	852.47
591.955	737.78
592.152	719.35
592.349	621.05
592.546	684.53
592.743	731.64
592.94	662.01
593.137	690.68
593.334	840.18
593.531	776.69
593.727	752.12
593.924	762.36
594.121	805.36
594.318	752.12
594.515	727.54
594.712	889.33
594.908	805.36
595.105	784.88
595.302	881.14
595.499	762.36
595.696	918
595.892	735.73
596.089	995.82
596.286	805.36
596.482	858.61
596.679	903.67
596.876	823.8
597.072	1022.45
597.269	889.33
597.466	1034.74
597.662	940.53
597.859	991.73
598.055	1036.78
598.252	1055.22
598.448	1128.94
598.645	1161.71
598.841	1174
599.038	1288.68
599.234	1169.9
599.431	1372.65
599.627	1358.32
599.824	1298.92
600.02	1444.33
600.217	1493.48
600.413	1651.17
600.609	1501.67
600.806	1829.35
601.002	1812.96
601.198	1665.51
601.395	1837.54
601.591	1958.37
601.787	1874.4
601.984	2128.35
602.18	2140.64
602.376	2122.21
602.572	2367.96
602.769	2458.07
602.965	2456.03
603.161	2523.61
603.357	2574.81
603.553	2744.79
603.75	2689.49
603.946	2933.2
604.142	2982.35
604.338	3123.66
604.534	3248.59
604.73	3252.69
604.926	3404.24
605.122	3484.11
605.318	3654.09
605.514	3764.68
605.71	3797.45
605.906	4061.63
606.102	3996.1
606.298	4307.39
606.494	4346.3
606.69	4682.17
606.886	4561.34
607.082	4753.85
607.278	4737.46
607.474	4919.73
607.67	5069.23
607.866	5290.42
608.062	5468.59
608.257	5534.12
608.453	5632.43
608.649	5781.93
608.845	5968.29
609.041	6132.13
609.236	6531.48
609.432	6435.23
609.628	6683.03
609.824	6687.13
610.019	6932.89
610.215	7174.55
610.411	7467.41
610.606	7502.22
610.802	7571.85
610.998	8096.13
611.193	8173.96
611.389	8194.43
611.584	8503.68
611.78	8866.17
611.976	9095.54
612.171	9378.16
612.367	9716.08
612.562	10045.8
612.758	10021.22
612.953	9976.17
613.149	10594.65
613.344	10723.68
613.539	11041.11
613.735	11391.31
613.93	11796.81
614.126	11882.83
614.321	12501.31
614.517	12599.62
614.712	12843.32
614.907	13351.22
615.103	13658.42
615.298	13846.83
615.493	14367.01
615.688	14281
615.884	15214.87
616.079	15210.78
616.274	15905.04
616.47	16167.18
616.665	16754.94
616.86	16728.32
617.055	17164.54
617.25	17717.49
617.445	18510.05
617.641	18272.49
617.836	19372.25
618.031	19232.99
618.226	20248.78
618.421	20711.62
618.616	21422.27
618.811	21184.7
619.006	21997.74
619.201	22071.47
619.396	22763.68
619.591	22823.08
619.786	24189.07
619.981	24320.14
620.176	25120.9
620.371	25041.03
620.566	25716.86
620.761	26306.67
620.956	26966.12
621.151	27340.89
621.346	28248.14
621.541	28194.9
621.735	29175.87
621.93	29722.68
622.125	30064.69
622.32	30609.45
622.515	31268.9
622.709	31791.13
622.904	32200.72
623.099	32849.93
623.294	33748.99
623.488	33636.35
623.683	34504.69
623.878	34723.82
624.072	35409.89
624.267	36241.37
624.462	36591.57
624.656	36970.44
624.851	38019
625.046	38141.88
625.24	38834.1
625.435	39161.77
625.629	40021.92
625.824	40544.15
626.018	40566.68
626.213	40630.16
626.407	42055.55
626.602	41746.31
626.796	42680.18
626.991	43028.34
627.185	43499.37
627.38	43505.51
627.574	44029.79
627.768	43917.15
627.963	44543.83
628.157	44253.02
628.352	44842.84
628.546	44400.47
628.74	45059.92
628.935	44330.84
629.129	45043.54
629.323	44142.43
629.517	44052.32
629.712	44164.96
629.906	44054.37
630.1	43376.49
630.294	43290.48
630.489	42315.64
630.683	42645.37
630.877	41500.55
631.071	40775.57
631.265	40939.41
631.459	39632.8
631.653	38739.89
631.848	38750.13
632.042	36999.12
632.236	36757.46
632.43	35454.95
632.624	34584.56
632.818	33271.81
633.012	32534.54
633.206	31674.4
633.4	30918.7
633.594	29462.59
633.788	28835.91
633.982	28100.69
634.176	26828.9
634.369	25741.43
634.563	24633.48
634.757	23873.68
634.951	23546.01
635.145	22528.17
635.339	21387.45
635.533	20611.27
635.726	19957.97
635.92	18772.19
636.114	18274.54
636.308	17389.81
636.501	16812.29
636.695	16058.63
636.889	15524.12
637.083	14653.73
637.276	14108.97
637.47	13492.53
637.664	12925.24
637.857	12644.67
638.051	11923.79
638.244	11512.14
638.438	11364.69
638.632	10733.92
638.825	9965.93
639.019	9791.85
639.212	9232.76
639.406	9052.53
639.599	8520.06
639.793	8460.67
639.986	7907.72
640.18	7813.51
640.373	7416.21
640.567	7147.92
640.76	6920.6
640.954	6672.79
641.147	6275.49
641.34	6017.44
641.534	5822.89
641.727	5650.86
641.92	5474.73
642.114	5257.65
642.307	5044.66
642.5	4848.05
642.694	4612.54
642.887	4293.05
643.08	4426.17
643.273	4125.12
643.467	3992
643.66	3781.06
643.853	3631.56
644.046	3594.7
644.239	3428.81
644.432	3199.44
644.626	3021.27
644.819	3140.05
645.012	2996.69
645.205	2918.87
645.398	2750.93
645.591	2603.48
645.784	2472.41
645.977	2200.03
646.17	2306.52
646.363	2175.45
646.556	2218.46
646.749	2095.58
646.942	1987.04
647.135	1978.85
647.328	1825.25
647.521	1755.62
647.714	1706.47
647.907	1681.89
648.099	1501.67
648.292	1698.28
648.485	1518.06
648.678	1296.88
648.871	1335.79
649.064	1327.6
649.256	1270.25
649.449	1217.01
649.642	1057.26
649.835	1126.89
650.027	983.54
650.22	1079.79
650.413	915.95
650.605	1135.09
650.798	924.15
650.991	883.19
651.183	924.15
651.376	821.75
651.568	874.99
651.761	815.6
651.954	838.13
652.146	750.07
652.339	815.6
652.531	815.6
652.724	610.81
652.916	639.48
653.109	500.22
653.301	688.63
653.494	635.38
653.686	557.56
653.879	678.39
654.071	571.9
654.263	459.26
654.456	504.31
654.648	608.76
654.84	592.37
655.033	453.11
655.225	578.04
655.417	369.15
655.61	569.85
655.802	537.08
655.994	504.31
656.186	328.19
656.379	520.7
656.571	348.67
656.763	320
656.955	301.56
657.148	401.91
657.34	432.63
657.532	365.05
657.724	330.23
657.916	291.32
658.108	399.87
658.3	305.66
658.492	350.71
658.684	322.04
658.876	432.63
659.068	258.56
659.26	199.16
659.452	201.21
659.644	326.14
659.836	356.86
660.028	301.56
660.22	256.51
660.412	303.61
660.604	266.75
660.796	334.33
660.988	365.05
661.18	229.88
661.372	215.55
661.563	170.49
661.755	258.56
661.947	295.42
662.139	121.34
662.331	313.85
662.522	215.55
662.714	78.33
662.906	150.01
663.097	139.77
663.289	201.21
663.481	201.21
663.673	184.83
663.864	236.03
664.056	205.31
664.247	137.73
664.439	233.98
664.631	145.92
664.822	266.75
665.014	199.16
665.205	115.2
665.397	176.64
665.588	160.25
665.78	94.72
665.971	219.64
666.163	221.69
666.354	266.75
666.546	55.81
666.737	123.39
666.929	109.05
667.12	131.58
667.311	188.93
667.503	102.91
667.694	248.32
667.885	178.69
668.077	221.69
668.268	82.43
668.459	180.73
668.651	164.35
668.842	174.59
669.033	176.64
669.224	92.67
669.416	281.08
669.607	102.91
669.798	205.31
669.989	219.64
670.18	94.72
670.371	186.88
670.563	152.06
670.754	240.12
670.945	156.16
671.136	233.98
671.327	86.53
671.518	260.6
671.709	320
671.9	131.58
672.091	268.8
672.282	125.44
672.473	193.02
672.664	68.09
672.855	156.16
673.046	154.11
673.237	299.52
673.428	221.69
673.619	168.45
673.809	115.2
674	219.64
674.191	107.01
674.382	152.06
674.573	166.4
674.764	178.69
674.954	203.26
675.145	150.01
675.336	145.92
675.527	207.36
675.717	184.83
675.908	141.82
676.099	195.07
676.289	215.55
676.48	45.57
676.671	215.55
676.861	107.01
677.052	252.41
677.243	215.55
677.433	125.44
677.624	236.03
677.814	211.45
678.005	193.02
678.195	246.27
678.386	102.91
678.576	221.69
678.767	145.92
678.957	223.74
679.148	289.28
679.338	305.66
679.529	268.8
679.719	168.45
679.909	334.33
680.1	246.27
680.29	242.17
680.481	152.06
680.671	274.94
680.861	229.88
681.052	248.32
681.242	143.87
681.432	272.89
681.622	252.41
681.813	143.87
682.003	221.69
682.193	158.21
682.383	291.32
682.573	242.17
682.764	195.07
682.954	268.8
683.144	309.76
683.334	217.6
683.524	285.18
683.714	352.76
683.904	250.36
684.094	313.85
684.284	260.6
684.474	330.23
684.664	348.67
684.854	330.23
685.044	287.23
685.234	201.21
685.424	221.69
685.614	242.17
685.804	340.47
685.994	344.57
686.184	250.36
686.374	297.47
686.564	264.7
686.753	289.28
686.943	188.93
687.133	276.99
687.323	311.8
687.513	299.52
687.702	301.56
687.892	223.74
688.082	414.2
688.272	203.26
688.461	311.8
688.651	422.39
688.841	317.95
689.03	205.31
689.22	320
689.41	311.8
689.599	283.13
689.789	340.47
689.979	371.19
690.168	289.28
690.358	363
690.547	283.13
690.737	219.64
690.926	270.84
691.116	401.91
691.305	287.23
691.495	301.56
691.684	262.65
691.874	244.22
692.063	250.36
692.252	426.49
692.442	295.42
692.631	147.97
692.82	250.36
693.01	264.7
693.199	305.66
693.388	246.27
693.578	274.94
693.767	328.19
693.956	238.08
694.146	283.13
694.335	317.95
694.524	190.97
694.713	248.32
694.902	274.94
695.092	291.32
695.281	332.28
695.47	223.74
695.659	207.36
695.848	293.37
696.037	252.41
696.226	338.43
696.415	221.69
696.604	328.19
696.793	309.76
696.982	283.13
697.171	369.15
697.36	317.95
697.549	256.51
697.738	178.69
697.927	205.31
698.116	154.11
698.305	293.37
698.494	262.65
698.683	213.5
698.872	363
699.061	215.55
699.25	182.78
699.438	285.18
699.627	213.5
699.816	393.72
700.005	176.64
700.193	213.5
700.382	244.22
700.571	250.36
700.76	250.36
700.948	342.52
701.137	301.56
701.326	363
701.514	174.59
701.703	285.18
701.892	340.47
702.08	379.39
702.269	201.21
702.457	160.25
702.646	236.03
702.834	178.69
703.023	227.84
703.212	283.13
703.4	250.36
703.589	203.26
703.777	215.55
703.965	170.49
704.154	303.61
704.342	186.88
704.531	133.63
704.719	197.12
704.907	383.48
705.096	223.74
705.284	174.59
705.472	309.76
705.661	238.08
705.849	260.6
706.037	342.52
706.226	236.03
706.414	254.46
706.602	141.82
706.79	334.33
706.979	188.93
707.167	326.14
707.355	201.21
707.543	291.32
707.731	266.75
707.919	223.74
708.107	154.11
708.296	197.12
708.484	98.81
708.672	268.8
708.86	313.85
709.048	215.55
709.236	207.36
709.424	266.75
709.612	262.65
709.8	172.54
709.988	168.45
710.176	322.04
710.364	354.81
710.551	246.27
710.739	258.56
710.927	209.4
711.115	195.07
711.303	334.33
711.491	379.39
711.679	264.7
711.866	193.02
712.054	190.97
712.242	299.52
712.43	238.08
712.617	281.08
712.805	342.52
712.993	201.21
713.181	145.92
713.368	338.43
713.556	276.99
713.744	219.64
713.931	395.77
714.119	414.2
714.306	281.08
714.494	270.84
714.682	254.46
714.869	119.29
715.057	203.26
715.244	127.49
715.432	262.65
715.619	190.97
715.807	270.84
715.994	236.03
716.182	229.88
716.369	250.36
716.556	410.11
716.744	172.54
716.931	199.16
717.119	236.03
717.306	322.04
717.493	266.75
717.681	262.65
717.868	229.88
718.055	256.51
718.242	236.03
718.43	258.56
718.617	381.43
718.804	258.56
718.991	416.25
719.179	342.52
719.366	340.47
719.553	238.08
719.74	283.13
719.927	227.84
720.114	326.14
720.301	240.12
720.488	260.6
720.676	158.21
720.863	268.8
721.05	487.93
721.237	354.81
721.424	270.84
721.611	297.47
721.798	238.08
721.985	207.36
722.172	158.21
722.358	274.94
722.545	420.35
722.732	258.56
722.919	344.57
723.106	381.43
723.293	281.08
723.48	270.84
723.667	135.68
723.853	406.01
724.04	299.52
724.227	377.34
724.414	264.7
724.6	317.95
724.787	403.96
724.974	479.74
725.161	358.91
725.347	274.94
725.534	285.18
725.72	342.52
725.907	367.1
726.094	289.28
726.28	260.6
726.467	373.24
726.653	188.93
726.84	403.96
727.027	543.22
727.213	252.41
727.4	395.77
727.586	272.89
727.773	313.85
727.959	270.84
728.145	338.43
728.332	340.47
728.518	258.56
728.705	338.43
728.891	311.8
729.077	303.61
729.264	268.8
729.45	295.42
729.636	375.29
729.823	373.24
730.009	383.48
730.195	274.94
730.382	399.87
730.568	266.75
730.754	293.37
730.94	285.18
731.126	428.54
731.313	328.19
731.499	363
731.685	360.95
731.871	440.83
732.057	350.71
732.243	483.83
732.429	399.87
732.615	473.59
732.801	352.76
732.987	262.65
733.173	334.33
733.359	254.46
733.545	391.67
733.731	342.52
733.917	465.4
734.103	371.19
734.289	322.04
734.475	236.03
734.661	467.45
734.847	350.71
735.033	408.06
735.219	459.26
735.404	352.76
735.59	365.05
735.776	279.04
735.962	295.42
736.148	406.01
736.333	397.82
736.519	416.25
736.705	352.76
736.89	305.66
737.076	274.94
737.262	350.71
737.447	293.37
737.633	332.28
737.819	449.02
738.004	334.33
738.19	342.52
738.375	371.19
738.561	504.31
738.747	317.95
738.932	238.08
739.118	496.12
739.303	463.35
739.489	416.25
739.674	332.28
739.859	238.08
740.045	428.54
740.23	336.38
740.416	258.56
740.601	408.06
740.786	295.42
740.972	291.32
741.157	356.86
741.342	252.41
741.528	350.71
741.713	395.77
741.898	287.23
742.084	391.67
742.269	414.2
742.454	375.29
742.639	397.82
742.824	334.33
743.01	434.68
743.195	512.5
743.38	297.47
743.565	426.49
743.75	406.01
743.935	465.4
744.12	391.67
744.305	305.66
744.49	293.37
744.675	350.71
744.86	264.7
745.045	377.34
745.23	348.67
745.415	399.87
745.6	414.2
745.785	285.18
745.97	363
746.155	344.57
746.34	395.77
746.525	315.9
746.71	432.63
746.895	287.23
747.079	270.84
747.264	303.61
747.449	342.52
747.634	377.34
747.819	412.15
748.003	338.43
748.188	326.14
748.373	410.11
748.557	266.75
748.742	309.76
748.927	291.32
749.111	340.47
749.296	295.42
749.481	420.35
749.665	303.61
749.85	231.93
750.034	313.85
750.219	340.47
750.404	305.66
750.588	352.76
750.773	336.38
750.957	309.76
751.141	338.43
751.326	375.29
751.51	238.08
751.695	250.36
751.879	209.4
752.064	352.76
752.248	342.52
752.432	330.23
752.617	393.72
752.801	360.95
752.985	281.08
753.17	399.87
753.354	297.47
753.538	336.38
753.722	211.45
753.907	281.08
754.091	225.79
754.275	295.42
754.459	125.44
754.643	170.49
754.828	293.37
755.012	309.76
755.196	211.45
755.38	287.23
755.564	129.53
755.748	195.07
755.932	336.38
756.116	276.99
756.3	240.12
756.484	184.83
756.668	279.04
756.852	102.91
757.036	154.11
757.22	262.65
757.404	145.92
757.588	301.56
757.772	242.17
757.956	156.16
758.14	367.1
758.323	209.4
758.507	190.97
758.691	172.54
758.875	326.14
759.059	301.56
759.242	178.69
759.426	176.64
759.61	186.88
759.794	195.07
759.977	324.09
760.161	444.92
760.345	344.57
760.528	262.65
760.712	307.71
760.895	248.32
761.079	231.93
761.263	164.35
761.446	133.63
761.63	297.47
761.813	315.9
761.997	31.23
762.18	201.21
762.364	244.22
762.547	43.52
762.731	133.63
762.914	100.86
763.098	215.55
763.281	131.58
763.464	111.1
763.648	272.89
763.831	143.87
764.015	141.82
764.198	256.51
764.381	127.49
764.564	180.73
764.748	154.11
764.931	176.64
765.114	139.77
765.297	223.74
765.481	72.19
765.664	219.64
765.847	72.19
766.03	199.16
766.213	154.11
766.397	152.06
766.58	84.48
766.763	152.06
766.946	135.68
767.129	135.68
767.312	74.24
767.495	166.4
767.678	115.2
767.861	162.3
768.044	156.16
768.227	150.01
768.41	180.73
768.593	158.21
768.776	158.21
768.959	59.9
769.142	184.83
769.324	66.05
769.507	90.62
769.69	51.71
769.873	72.19
770.056	317.95
770.239	115.2
770.421	211.45
770.604	221.69
770.787	127.49
770.97	133.63
771.152	4.61
771.335	186.88
771.518	98.81
771.7	238.08
771.883	223.74
772.066	131.58
772.248	139.77
772.431	305.66
772.613	88.57
772.796	115.2
772.978	141.82
773.161	176.64
773.343	96.77
773.526	125.44
773.708	-52.74
773.891	-34.3
774.073	96.77
774.256	39.42
774.438	209.4
774.621	145.92
774.803	139.77
774.985	66.05
775.168	113.15
775.35	88.57
775.532	203.26
775.715	98.81
775.897	176.64
776.079	61.95
776.261	80.38
776.444	111.1
776.626	143.87
776.808	74.24
776.99	64
777.173	86.53
777.355	55.81
777.537	127.49
777.719	102.91
777.901	45.57
778.083	27.14
778.265	18.94
778.447	168.45
778.629	88.57
778.811	64
778.993	133.63
779.175	125.44
779.357	113.15
779.539	47.62
779.721	-28.16
779.903	76.29
780.085	115.2
780.267	31.23
780.449	150.01
780.631	45.57
780.812	147.97
780.994	88.57
781.176	47.62
781.358	51.71
781.54	80.38
781.721	133.63
781.903	98.81
782.085	96.77
782.267	160.25
782.448	-5.63
782.63	-46.59
782.812	68.09
782.993	92.67
783.175	182.78
783.357	25.09
783.538	55.81
783.72	-42.5
783.901	35.33
784.083	111.1
784.264	107.01
784.446	-48.64
784.627	47.62
784.809	35.33
784.99	29.18
785.172	104.96
785.353	49.66
785.535	23.04
785.716	70.14
785.897	-7.68
786.079	0.51
786.26	145.92
786.441	51.71
786.623	-28.16
786.804	-36.35
786.985	41.47
787.167	172.54
787.348	51.71
787.529	80.38
787.71	168.45
787.891	64
788.073	4.61
788.254	-52.74
788.435	231.93
788.616	88.57
788.797	49.66
788.978	-17.92
789.159	-58.88
789.34	-1.54
789.522	47.62
789.703	72.19
789.884	119.29
790.065	156.16
790.246	127.49
790.427	29.18
790.607	188.93
790.788	131.58
790.969	-48.64
791.15	70.14
791.331	14.85
791.512	29.18
791.693	-1.54
791.874	-7.68
792.054	195.07
792.235	207.36
792.416	-3.58
792.597	-48.64
792.778	100.86
792.958	66.05
793.139	47.62
793.32	6.66
793.5	-108.03
793.681	102.91
793.862	104.96
794.042	66.05
794.223	-136.7
794.404	-58.88
794.584	-17.92
794.765	109.05
794.945	31.23
795.126	70.14
795.306	115.2
795.487	16.9
795.667	-13.82
795.848	145.92
796.028	-44.54
796.209	86.53
796.389	125.44
796.57	33.28
796.75	2.56
796.93	47.62
797.111	35.33
797.291	-60.93
797.471	55.81
797.652	-38.4
797.832	-22.02
798.012	150.01
798.192	33.28
798.373	-52.74
798.553	16.9
798.733	25.09
798.913	4.61
799.093	-30.21
799.274	16.9
799.454	117.25
799.634	131.58
799.814	107.01
799.994	14.85
800.174	-1.54
800.354	49.66
800.534	-103.93
800.714	51.71
800.894	16.9
801.074	-62.98
801.254	-26.11
801.434	84.48
801.614	-22.02
801.794	-120.32
801.974	1499.63
802.154	8.7
802.334	98.81
802.514	12.8
802.693	-11.78
802.873	51.71
803.053	64
803.233	6.66
803.413	33.28
803.592	18.94
803.772	-85.5
803.952	96.77
804.131	-19.97
804.311	-89.6
804.491	96.77
804.67	-44.54
804.85	-28.16
805.03	51.71
805.209	66.05
805.389	-19.97
805.568	31.23
805.748	39.42
805.928	0.51
806.107	47.62
806.287	-11.78
806.466	64
806.646	74.24
806.825	43.52
807.004	41.47
807.184	59.9
807.363	29.18
807.543	4.61
807.722	-138.75
807.901	160.25
808.081	43.52
808.26	-93.69
808.439	-3.58
808.619	-75.26
808.798	29.18
808.977	-26.11
809.156	39.42
809.336	27.14
809.515	57.86
809.694	-62.98
809.873	0.51
810.052	39.42
810.231	162.3
810.411	-42.5
810.59	137.73
810.769	-58.88
810.948	27.14
811.127	6.66
811.306	-13.82
811.485	-46.59
811.664	125.44
811.843	59.9
812.022	8.7
812.201	-73.21
812.38	64
812.559	92.67
812.737	-13.82
812.916	-42.5
813.095	-108.03
813.274	6.66
813.453	0.51
813.632	-1.54
813.811	59.9
813.989	-11.78
814.168	20.99
814.347	-83.45
814.526	-11.78
814.704	174.59
814.883	107.01
815.062	-77.31
815.24	88.57
815.419	-58.88
815.598	49.66
815.776	-79.36
815.955	37.38
816.133	-52.74
816.312	70.14
816.49	-56.83
816.669	-52.74
816.847	-32.26
817.026	27.14
817.204	-69.12
817.383	-75.26
817.561	-34.3
817.74	82.43
817.918	25.09
818.097	-60.93
818.275	4.61
818.453	-11.78
818.632	115.2
818.81	-83.45
818.988	-71.17
819.167	-30.21
819.345	-3.58
819.523	-58.88
819.701	23.04
819.879	43.52
820.058	47.62
820.236	47.62
820.414	88.57
820.592	-30.21
820.77	-54.78
820.948	-22.02
821.127	47.62
821.305	8.7
821.483	-93.69
821.661	76.29
821.839	66.05
822.017	-38.4
822.195	39.42
822.373	117.25
822.551	25.09
822.729	33.28
822.907	2.56
823.085	96.77
823.262	49.66
823.44	-44.54
823.618	-34.3
823.796	29.18
823.974	-22.02
824.152	-38.4
824.329	37.38
824.507	45.57
824.685	18.94
824.863	-3.58
825.04	-34.3
825.218	88.57
825.396	94.72
825.574	10.75
825.751	-48.64
825.929	47.62
826.107	-132.61
826.284	64
826.462	10.75
826.639	-58.88
826.817	-58.88
826.994	84.48
827.172	-108.03
827.349	57.86
827.527	41.47
827.704	51.71
827.882	49.66
828.059	12.8
828.237	-58.88
828.414	53.76
828.591	-105.98
828.769	51.71
828.946	-48.64
829.124	119.29
829.301	31.23
829.478	-75.26
829.655	27.14
829.833	-26.11
830.01	-97.79
830.187	43.52
830.364	25.09
830.542	61.95
830.719	98.81
830.896	64
831.073	-13.82
831.25	41.47
831.427	14.85
831.604	18.94
831.782	2.56
831.959	0.51
832.136	-34.3
832.313	39.42
832.49	4.61
832.667	-77.31
832.844	-48.64
833.021	51.71
833.198	-7.68
833.374	-3.58
833.551	-3.58
833.728	-62.98
833.905	61.95
834.082	-50.69
834.259	-28.16
834.436	111.1
834.612	-58.88
834.789	47.62
834.966	16.9
835.143	-24.06
835.319	-36.35
835.496	80.38
835.673	-22.02
835.85	-17.92
836.026	113.15
836.203	104.96
836.38	-3.58
836.556	31.23
836.733	-60.93
836.909	139.77
837.086	55.81
837.262	-99.84
837.439	61.95
837.616	0.51
837.792	-5.63
837.968	80.38
838.145	-22.02
838.321	-3.58
838.498	61.95
838.674	6.66
838.851	-34.3
839.027	-15.87
839.203	-75.26
839.38	-44.54
839.556	-36.35
839.732	55.81
839.909	-44.54
840.085	23.04
840.261	-112.13
840.437	-1.54
840.614	-11.78
840.79	92.67
840.966	33.28
841.142	25.09
841.318	25.09
841.494	10.75
841.671	49.66
841.847	-77.31
842.023	-67.07
842.199	37.38
842.375	129.53
842.551	-79.36
842.727	-136.7
842.903	133.63
843.079	-126.46
843.255	49.66
843.431	29.18
843.607	43.52
843.783	-140.8
843.959	66.05
844.134	31.23
844.31	39.42
844.486	-114.17
844.662	-24.06
844.838	-32.26
845.013	10.75
845.189	80.38
845.365	-5.63
845.541	14.85
845.716	-17.92
845.892	86.53
846.068	-75.26
846.244	37.38
846.419	-69.12
846.595	-34.3
846.77	-13.82
846.946	45.57
847.122	-62.98
847.297	-67.07
847.473	72.19
847.648	-56.83
847.824	10.75
847.999	-89.6
848.175	-26.11
848.35	29.18
848.526	86.53
848.701	31.23
848.876	66.05
849.052	74.24
849.227	-11.78
849.403	-5.63
849.578	6.66
849.753	41.47
849.929	102.91
850.104	-46.59
850.279	-3.58
850.454	-19.97
850.63	90.62
850.805	-24.06
850.98	-19.97
851.155	66.05
851.33	-34.3
851.505	-132.61
851.681	180.73
851.856	-58.88
852.031	14.85
852.206	39.42
852.381	-9.73
852.556	-73.21
852.731	2.56
852.906	78.33
853.081	51.71
853.256	27.14
853.431	-3.58
853.606	-9.73
853.781	-58.88
853.956	-120.32
854.131	-13.82
854.305	-44.54
854.48	2.56
854.655	-40.45
854.83	-65.02
855.005	66.05
855.18	0.51
855.354	72.19
855.529	-22.02
855.704	-11.78
855.879	35.33
856.053	-101.89
856.228	-44.54
856.403	-30.21
856.577	-5.63
856.752	-32.26
856.926	6.66
857.101	59.9
857.276	-67.07
857.45	-32.26
857.625	74.24
857.799	45.57
857.974	20.99
858.148	-87.55
858.323	57.86
858.497	-26.11
858.672	-89.6
858.846	14.85
859.02	96.77
859.195	-1.54
859.369	-42.5
859.543	-44.54
859.718	33.28
859.892	-30.21
860.066	-11.78
860.241	31.23
860.415	-60.93
860.589	-17.92
860.763	-83.45
860.938	-48.64
861.112	31.23
861.286	33.28
861.46	64
861.634	-28.16
861.808	96.77
861.982	-73.21
862.157	-120.32
862.331	-17.92
862.505	-97.79
862.679	-89.6
862.853	-15.87
863.027	-79.36
863.201	158.21
863.375	-13.82
863.549	-38.4
863.722	-15.87
863.896	8.7
864.07	-58.88
864.244	8.7
864.418	18.94
864.592	-42.5
864.766	37.38
864.939	33.28
865.113	-3.58
865.287	76.29
865.461	-60.93
865.634	29.18
865.808	45.57
865.982	-71.17
866.156	-103.93
866.329	-79.36
866.503	51.71
866.676	64
866.85	127.49
867.024	-124.41
867.197	39.42
867.371	66.05
867.544	43.52
867.718	-99.84
867.891	164.35
868.065	-73.21
868.238	27.14
868.412	51.71
868.585	-46.59
868.759	-13.82
868.932	-56.83
869.105	-54.78
869.279	-34.3
869.452	-50.69
869.625	-1.54
869.799	16.9
869.972	-52.74
870.145	-75.26
870.319	37.38
870.492	-17.92
870.665	16.9
870.838	-95.74
871.011	-73.21
871.185	-28.16
871.358	-19.97
871.531	33.28
871.704	-132.61
871.877	-26.11
872.05	-65.02
872.223	-89.6
872.396	-3.58
872.569	88.57
872.742	-75.26
872.915	-69.12
873.088	-46.59
873.261	-32.26
873.434	47.62
873.607	-11.78
873.78	102.91
873.953	-77.31
874.126	37.38
874.299	-62.98
874.471	84.48
874.644	-17.92
874.817	10.75
874.99	125.44
875.163	-28.16
875.335	12.8
875.508	-48.64
875.681	29.18
875.853	-108.03
876.026	51.71
876.199	84.48
876.371	-9.73
876.544	-36.35
876.717	4.61
876.889	-13.82
877.062	61.95
877.234	-46.59
877.407	-73.21
877.579	-95.74
877.752	-75.26
877.924	18.94
878.097	90.62
878.269	37.38
878.442	115.2
878.614	10.75
878.786	20.99
878.959	29.18
879.131	-13.82
879.303	-120.32
879.476	-1.54
879.648	104.96
879.82	2.56
879.993	18.94
880.165	-26.11
880.337	-126.46
880.509	61.95
880.681	-67.07
880.854	-73.21
881.026	37.38
881.198	127.49
881.37	-22.02
881.542	-54.78
881.714	-110.08
881.886	-97.79
882.058	0.51
882.23	-89.6
882.402	-32.26
882.574	-26.11
882.746	-9.73
882.918	119.29
883.09	66.05
883.262	-28.16
883.434	-11.78
883.606	-108.03
883.778	45.57
883.95	94.72
884.122	-38.4
884.293	98.81
884.465	25.09
884.637	104.96
884.809	-103.93
884.98	39.42
885.152	16.9
885.324	68.09
885.496	-34.3
885.667	-22.02
885.839	-58.88
886.011	2.56
886.182	6.66
886.354	-1.54
886.525	-62.98
886.697	-44.54
886.869	-134.65
887.04	-9.73
887.212	47.62
887.383	94.72
887.555	-26.11
887.726	-52.74
887.897	-32.26
888.069	10.75
888.24	29.18
888.412	-67.07
888.583	-17.92
888.754	-54.78
888.926	-163.33
889.097	-77.31
889.268	-93.69
889.44	-36.35
889.611	-126.46
889.782	-114.17
889.953	-101.89
890.125	8.7
890.296	-93.69
890.467	-89.6
890.638	-40.45
890.809	-11.78
890.98	-46.59
891.151	20.99
891.323	76.29
891.494	-9.73
891.665	-17.92
891.836	16.9
892.007	-24.06
892.178	39.42
892.349	-58.88
892.52	-120.32
892.691	-50.69
892.862	78.33
893.032	-99.84
893.203	-118.27
893.374	-24.06
893.545	33.28
893.716	-114.17
893.887	20.99
894.057	-110.08
894.228	-22.02
894.399	0.51
894.57	53.76
894.74	86.53
894.911	10.75
895.082	-40.45
895.253	-75.26
895.423	-83.45
895.594	39.42
895.764	-34.3
895.935	-75.26
896.106	8.7
896.276	-101.89
896.447	-32.26
896.617	-155.13
896.788	-83.45
896.958	31.23
897.129	-34.3
897.299	-52.74
897.47	88.57
897.64	43.52
897.81	-83.45
897.981	41.47
898.151	-67.07
898.322	-3.58
898.492	-22.02
898.662	-54.78
898.832	23.04
899.003	-17.92
899.173	94.72
899.343	-58.88
899.513	-122.37
