Data from USB4F104151__6__11-24-16-830.txt Node

Date: Wed Feb 26 11:24:16 EST 2025
User: louis
Spectrometer: USB4F10415
Trigger mode: 4
Integration Time (sec): 1.000000E-1
Scans to average: 1
Electric dark correction enabled: true
Nonlinearity correction enabled: false
Boxcar width: 0
XAxis mode: Wavelengths
Number of Pixels in Spectrum: 3648
>>>>>Begin Spectral Data<<<<<
178.204	-436.05
178.424	-436.05
178.644	-436.05
178.864	-341.84
179.084	-362.32
179.304	-18.26
179.524	-3.93
179.744	-81.75
179.964	96.43
180.184	6.31
180.404	-63.32
180.624	-24.4
180.844	0.17
181.064	-5.97
181.283	92.33
181.503	-69.46
181.723	71.85
181.943	-89.94
182.163	121
182.383	47.27
182.602	49.32
182.822	174.25
183.042	94.38
183.262	20.65
183.482	-24.4
183.701	30.89
183.921	65.71
184.141	-40.79
184.361	32.94
184.58	20.65
184.8	34.99
185.02	18.6
185.239	80.04
185.459	135.34
185.679	114.86
185.898	-3.93
186.118	63.66
186.338	80.04
186.557	123.05
186.777	-73.56
186.997	8.36
187.216	96.43
187.436	192.68
187.655	49.32
187.875	82.09
188.095	65.71
188.314	145.58
188.534	149.67
188.753	-22.36
188.973	69.8
189.192	172.2
189.412	135.34
189.631	57.51
189.851	61.61
190.07	139.43
190.29	-22.36
190.509	-1.88
190.729	16.55
190.948	106.67
191.168	245.93
191.387	41.13
191.607	-8.02
191.826	65.71
192.045	84.14
192.265	69.8
192.484	125.1
192.704	26.79
192.923	-24.4
193.142	182.44
193.362	184.49
193.581	133.29
193.8	69.8
194.02	112.81
194.239	82.09
194.458	125.1
194.678	-12.12
194.897	14.51
195.116	37.03
195.335	108.71
195.555	82.09
195.774	4.27
195.993	118.95
196.212	100.52
196.432	108.71
196.651	12.46
196.87	65.71
197.089	266.41
197.308	65.71
197.528	108.71
197.747	73.9
197.966	63.66
198.185	149.67
198.404	22.7
198.623	49.32
198.842	100.52
199.062	96.43
199.281	14.51
199.5	63.66
199.719	14.51
199.938	80.04
200.157	73.9
200.376	110.76
200.595	157.86
200.814	88.23
201.033	-12.12
201.252	137.38
201.471	80.04
201.69	161.96
201.909	30.89
202.128	194.73
202.347	41.13
202.566	28.84
202.785	-51.03
203.004	2.22
203.223	336.04
203.442	176.3
203.661	88.23
203.879	112.81
204.098	164.01
204.317	-32.6
204.536	98.47
204.755	61.61
204.974	98.47
205.193	125.1
205.411	149.67
205.63	114.86
205.849	90.28
206.068	41.13
206.287	0.17
206.505	229.54
206.724	-32.6
206.943	69.8
207.162	-5.97
207.381	47.27
207.599	-3.93
207.818	96.43
208.037	-48.98
208.255	39.08
208.474	94.38
208.693	116.9
208.911	65.71
209.13	57.51
209.349	112.81
209.567	90.28
209.786	67.75
210.005	110.76
210.223	131.24
210.442	-18.26
210.661	63.66
210.879	75.95
211.098	94.38
211.316	69.8
211.535	55.47
211.753	-20.31
211.972	2.22
212.191	51.37
212.409	8.36
212.628	151.72
212.846	59.56
213.065	39.08
213.283	121
213.502	39.08
213.72	55.47
213.938	137.38
214.157	32.94
214.375	170.15
214.594	39.08
214.812	168.1
215.031	-18.26
215.249	4.27
215.467	104.62
215.686	82.09
215.904	88.23
216.122	59.56
216.341	190.63
216.559	16.55
216.778	143.53
216.996	180.39
217.214	88.23
217.432	-20.31
217.651	-71.51
217.869	108.71
218.087	84.14
218.306	39.08
218.524	106.67
218.742	-5.97
218.96	131.24
219.179	-16.21
219.397	39.08
219.615	284.84
219.833	106.67
220.051	-102.23
220.27	114.86
220.488	96.43
220.706	80.04
220.924	34.99
221.142	-40.79
221.36	80.04
221.578	39.08
221.796	20.65
222.015	67.75
222.233	65.71
222.451	149.67
222.669	61.61
222.887	125.1
223.105	37.03
223.323	80.04
223.541	20.65
223.759	16.55
223.977	53.42
224.195	241.83
224.413	137.38
224.631	102.57
224.849	14.51
225.067	211.11
225.285	34.99
225.503	37.03
225.721	-55.12
225.939	-5.97
226.157	92.33
226.375	280.74
226.592	73.9
226.81	65.71
227.028	73.9
227.246	102.57
227.464	71.85
227.682	151.72
227.9	114.86
228.117	73.9
228.335	84.14
228.553	55.47
228.771	73.9
228.989	41.13
229.206	49.32
229.424	51.37
229.642	108.71
229.86	-16.21
230.077	168.1
230.295	94.38
230.513	123.05
230.731	57.51
230.948	196.78
231.166	213.16
231.384	6.31
231.601	45.23
231.819	168.1
232.037	-18.26
232.254	8.36
232.472	-3.93
232.689	45.23
232.907	143.53
233.125	12.46
233.342	-57.17
233.56	10.41
233.777	32.94
233.995	67.75
234.213	166.06
234.43	24.75
234.648	30.89
234.865	41.13
235.083	71.85
235.3	75.95
235.518	116.9
235.735	184.49
235.953	125.1
236.17	4.27
236.388	106.67
236.605	14.51
236.822	217.26
237.04	114.86
237.257	47.27
237.475	22.7
237.692	131.24
237.909	69.8
238.127	53.42
238.344	18.6
238.562	45.23
238.779	24.75
238.996	-34.64
239.214	114.86
239.431	135.34
239.648	41.13
239.865	92.33
240.083	100.52
240.3	22.7
240.517	-36.69
240.735	-1.88
240.952	104.62
241.169	71.85
241.386	121
241.603	61.61
241.821	-34.64
242.038	170.15
242.255	102.57
242.472	47.27
242.689	82.09
242.907	75.95
243.124	118.95
243.341	34.99
243.558	37.03
243.775	34.99
243.992	20.65
244.209	112.81
244.426	90.28
244.643	106.67
244.86	-3.93
245.078	151.72
245.295	61.61
245.512	28.84
245.729	67.75
245.946	88.23
246.163	41.13
246.38	18.6
246.597	80.04
246.814	80.04
247.031	8.36
247.248	39.08
247.464	114.86
247.681	75.95
247.898	61.61
248.115	45.23
248.332	73.9
248.549	161.96
248.766	166.06
248.983	153.77
249.2	80.04
249.417	118.95
249.633	-8.02
249.85	51.37
250.067	114.86
250.284	90.28
250.501	102.57
250.717	90.28
250.934	-5.97
251.151	4.27
251.368	82.09
251.585	102.57
251.801	96.43
252.018	26.79
252.235	104.62
252.451	-48.98
252.668	45.23
252.885	180.39
253.102	135.34
253.318	22.7
253.535	-18.26
253.752	0.17
253.968	-28.5
254.185	4.27
254.401	4.27
254.618	98.47
254.835	2.22
255.051	139.43
255.268	84.14
255.484	94.38
255.701	-22.36
255.917	69.8
256.134	12.46
256.351	28.84
256.567	-18.26
256.784	24.75
257	6.31
257.217	139.43
257.433	145.58
257.65	71.85
257.866	135.34
258.082	34.99
258.299	-28.5
258.515	77.99
258.732	71.85
258.948	2.22
259.165	55.47
259.381	-24.4
259.597	102.57
259.814	47.27
260.03	12.46
260.246	14.51
260.463	145.58
260.679	147.62
260.895	77.99
261.112	112.81
261.328	55.47
261.544	63.66
261.761	207.02
261.977	4.27
262.193	8.36
262.409	92.33
262.626	77.99
262.842	22.7
263.058	-1.88
263.274	100.52
263.49	112.81
263.707	67.75
263.923	133.29
264.139	12.46
264.355	71.85
264.571	65.71
264.787	118.95
265.004	139.43
265.22	32.94
265.436	0.17
265.652	73.9
265.868	-3.93
266.084	18.6
266.3	67.75
266.516	-87.89
266.732	86.19
266.948	49.32
267.164	49.32
267.38	104.62
267.596	63.66
267.812	145.58
268.028	22.7
268.244	22.7
268.46	69.8
268.676	6.31
268.892	123.05
269.108	30.89
269.324	26.79
269.54	53.42
269.756	98.47
269.972	-44.88
270.188	77.99
270.403	14.51
270.619	57.51
270.835	198.82
271.051	32.94
271.267	-14.17
271.483	37.03
271.698	125.1
271.914	73.9
272.13	28.84
272.346	20.65
272.562	71.85
272.777	129.19
272.993	88.23
273.209	73.9
273.425	129.19
273.64	-42.84
273.856	88.23
274.072	14.51
274.287	-3.93
274.503	108.71
274.719	88.23
274.934	22.7
275.15	32.94
275.366	57.51
275.581	18.6
275.797	172.2
276.012	37.03
276.228	-24.4
276.444	63.66
276.659	155.82
276.875	4.27
277.09	34.99
277.306	51.37
277.521	88.23
277.737	61.61
277.952	137.38
278.168	77.99
278.383	80.04
278.599	108.71
278.814	114.86
279.03	92.33
279.245	176.3
279.461	57.51
279.676	153.77
279.892	-34.64
280.107	-8.02
280.322	-38.74
280.538	88.23
280.753	-8.02
280.969	4.27
281.184	2.22
281.399	184.49
281.615	55.47
281.83	53.42
282.045	-34.64
282.26	55.47
282.476	82.09
282.691	104.62
282.906	30.89
283.122	57.51
283.337	59.56
283.552	123.05
283.767	32.94
283.983	65.71
284.198	61.61
284.413	96.43
284.628	-30.55
284.843	43.18
285.058	65.71
285.274	-8.02
285.489	12.46
285.704	104.62
285.919	39.08
286.134	63.66
286.349	43.18
286.564	59.56
286.779	125.1
286.995	55.47
287.21	-14.17
287.425	147.62
287.64	-3.93
287.855	32.94
288.07	-83.8
288.285	114.86
288.5	100.52
288.715	82.09
288.93	100.52
289.145	0.17
289.36	82.09
289.575	20.65
289.79	151.72
290.004	-24.4
290.219	125.1
290.434	0.17
290.649	71.85
290.864	16.55
291.079	26.79
291.294	47.27
291.509	172.2
291.724	94.38
291.938	45.23
292.153	69.8
292.368	-24.4
292.583	100.52
292.798	100.52
293.012	59.56
293.227	147.62
293.442	73.9
293.657	194.73
293.871	123.05
294.086	102.57
294.301	211.11
294.516	135.34
294.73	61.61
294.945	8.36
295.16	0.17
295.374	135.34
295.589	112.81
295.804	88.23
296.018	-3.93
296.233	153.77
296.447	26.79
296.662	-3.93
296.877	137.38
297.091	98.47
297.306	75.95
297.52	32.94
297.735	65.71
297.949	80.04
298.164	69.8
298.378	123.05
298.593	-16.21
298.807	-3.93
299.022	84.14
299.236	155.82
299.451	6.31
299.665	8.36
299.88	65.71
300.094	137.38
300.309	26.79
300.523	90.28
300.737	22.7
300.952	118.95
301.166	96.43
301.381	41.13
301.595	-94.04
301.809	84.14
302.024	71.85
302.238	34.99
302.452	182.44
302.667	43.18
302.881	129.19
303.095	55.47
303.309	112.81
303.524	-61.27
303.738	41.13
303.952	-14.17
304.166	61.61
304.381	-79.7
304.595	133.29
304.809	20.65
305.023	73.9
305.237	61.61
305.452	20.65
305.666	82.09
305.88	139.43
306.094	45.23
306.308	116.9
306.522	41.13
306.736	61.61
306.95	137.38
307.164	39.08
307.379	41.13
307.593	207.02
307.807	151.72
308.021	104.62
308.235	149.67
308.449	-96.08
308.663	32.94
308.877	229.54
309.091	104.62
309.305	84.14
309.519	-130.9
309.733	188.58
309.947	-40.79
310.161	80.04
310.374	137.38
310.588	102.57
310.802	-30.55
311.016	34.99
311.23	174.25
311.444	12.46
311.658	98.47
311.872	215.21
312.085	104.62
312.299	96.43
312.513	184.49
312.727	24.75
312.941	-61.27
313.154	100.52
313.368	84.14
313.582	18.6
313.796	28.84
314.009	22.7
314.223	141.48
314.437	94.38
314.651	159.91
314.864	39.08
315.078	32.94
315.292	-53.08
315.505	84.14
315.719	-8.02
315.933	30.89
316.146	16.55
316.36	55.47
316.573	129.19
316.787	98.47
317.001	84.14
317.214	0.17
317.428	96.43
317.641	0.17
317.855	30.89
318.068	53.42
318.282	125.1
318.495	260.26
318.709	110.76
318.922	37.03
319.136	178.34
319.349	161.96
319.563	47.27
319.776	92.33
319.99	-85.84
320.203	143.53
320.417	63.66
320.63	24.75
320.843	186.54
321.057	75.95
321.27	88.23
321.483	73.9
321.697	166.06
321.91	69.8
322.124	98.47
322.337	84.14
322.55	10.41
322.763	69.8
322.977	-18.26
323.19	63.66
323.403	39.08
323.617	86.19
323.83	102.57
324.043	-55.12
324.256	96.43
324.469	14.51
324.683	57.51
324.896	51.37
325.109	77.99
325.322	-3.93
325.535	88.23
325.748	59.56
325.962	73.9
326.175	57.51
326.388	90.28
326.601	135.34
326.814	-34.64
327.027	37.03
327.24	164.01
327.453	-16.21
327.666	71.85
327.879	127.14
328.092	59.56
328.305	100.52
328.518	10.41
328.731	59.56
328.944	43.18
329.157	67.75
329.37	-12.12
329.583	182.44
329.796	118.95
330.009	22.7
330.222	55.47
330.435	168.1
330.648	32.94
330.861	106.67
331.073	77.99
331.286	129.19
331.499	4.27
331.712	-65.36
331.925	65.71
332.138	100.52
332.35	141.48
332.563	2.22
332.776	151.72
332.989	16.55
333.202	77.99
333.414	139.43
333.627	47.27
333.84	-3.93
334.053	47.27
334.265	2.22
334.478	57.51
334.691	26.79
334.903	61.61
335.116	4.27
335.329	39.08
335.541	114.86
335.754	139.43
335.966	-10.07
336.179	43.18
336.392	34.99
336.604	39.08
336.817	159.91
337.029	114.86
337.242	98.47
337.454	67.75
337.667	147.62
337.88	233.64
338.092	49.32
338.305	88.23
338.517	10.41
338.729	157.86
338.942	131.24
339.154	2.22
339.367	-91.99
339.579	188.58
339.792	37.03
340.004	73.9
340.217	37.03
340.429	65.71
340.641	-12.12
340.854	-8.02
341.066	51.37
341.278	157.86
341.491	211.11
341.703	45.23
341.915	6.31
342.128	75.95
342.34	32.94
342.552	-8.02
342.764	-22.36
342.977	-12.12
343.189	73.9
343.401	63.66
343.613	22.7
343.826	32.94
344.038	-100.18
344.25	94.38
344.462	-8.02
344.674	164.01
344.886	34.99
345.099	55.47
345.311	121
345.523	10.41
345.735	-75.6
345.947	88.23
346.159	51.37
346.371	55.47
346.583	28.84
346.795	274.6
347.007	12.46
347.219	41.13
347.431	57.51
347.643	63.66
347.855	-34.64
348.067	141.48
348.279	34.99
348.491	100.52
348.703	164.01
348.915	104.62
349.127	43.18
349.339	45.23
349.551	0.17
349.763	82.09
349.975	110.76
350.187	188.58
350.399	84.14
350.61	143.53
350.822	0.17
351.034	94.38
351.246	73.9
351.458	104.62
351.669	129.19
351.881	137.38
352.093	157.86
352.305	123.05
352.517	133.29
352.728	168.1
352.94	59.56
353.152	63.66
353.363	-75.6
353.575	26.79
353.787	170.15
353.999	80.04
354.21	229.54
354.422	-24.4
354.633	26.79
354.845	63.66
355.057	102.57
355.268	67.75
355.48	100.52
355.692	-42.84
355.903	75.95
356.115	-77.65
356.326	-28.5
356.538	170.15
356.749	2.22
356.961	207.02
357.172	90.28
357.384	-48.98
357.595	190.63
357.807	-3.93
358.018	2.22
358.23	118.95
358.441	182.44
358.653	112.81
358.864	86.19
359.075	41.13
359.287	57.51
359.498	143.53
359.709	92.33
359.921	88.23
360.132	26.79
360.344	63.66
360.555	18.6
360.766	86.19
360.977	-18.26
361.189	129.19
361.4	39.08
361.611	202.92
361.823	77.99
362.034	45.23
362.245	-42.84
362.456	-14.17
362.667	121
362.879	59.56
363.09	164.01
363.301	127.14
363.512	112.81
363.723	-24.4
363.935	16.55
364.146	110.76
364.357	-16.21
364.568	118.95
364.779	-12.12
364.99	168.1
365.201	30.89
365.412	49.32
365.623	-12.12
365.834	133.29
366.045	82.09
366.256	180.39
366.467	127.14
366.678	41.13
366.889	80.04
367.1	-24.4
367.311	186.54
367.522	-1.88
367.733	159.91
367.944	98.47
368.155	16.55
368.366	98.47
368.577	116.9
368.788	131.24
368.999	51.37
369.209	65.71
369.42	188.58
369.631	213.16
369.842	104.62
370.053	59.56
370.264	34.99
370.474	63.66
370.685	88.23
370.896	4.27
371.107	151.72
371.317	121
371.528	32.94
371.739	118.95
371.95	96.43
372.16	28.84
372.371	-139.09
372.582	28.84
372.792	84.14
373.003	121
373.214	104.62
373.424	143.53
373.635	43.18
373.846	139.43
374.056	37.03
374.267	92.33
374.477	80.04
374.688	-1.88
374.898	20.65
375.109	4.27
375.319	28.84
375.53	204.97
375.74	92.33
375.951	12.46
376.161	69.8
376.372	49.32
376.582	-16.21
376.793	75.95
377.003	4.27
377.214	34.99
377.424	59.56
377.635	129.19
377.845	86.19
378.055	147.62
378.266	20.65
378.476	102.57
378.686	41.13
378.897	45.23
379.107	174.25
379.317	112.81
379.528	0.17
379.738	51.37
379.948	8.36
380.158	102.57
380.369	67.75
380.579	73.9
380.789	51.37
380.999	159.91
381.21	143.53
381.42	170.15
381.63	53.42
381.84	125.1
382.05	121
382.261	141.48
382.471	108.71
382.681	8.36
382.891	164.01
383.101	114.86
383.311	-18.26
383.521	-34.64
383.731	73.9
383.941	153.77
384.151	123.05
384.361	39.08
384.571	151.72
384.781	102.57
384.991	288.93
385.201	204.97
385.411	104.62
385.621	116.9
385.831	67.75
386.041	12.46
386.251	24.75
386.461	168.1
386.671	22.7
386.881	96.43
387.091	55.47
387.301	94.38
387.511	57.51
387.72	69.8
387.93	67.75
388.14	-22.36
388.35	94.38
388.56	135.34
388.769	174.25
388.979	47.27
389.189	-10.07
389.399	49.32
389.609	77.99
389.818	114.86
390.028	104.62
390.238	61.61
390.447	32.94
390.657	92.33
390.867	-14.17
391.076	-38.74
391.286	94.38
391.496	51.37
391.705	12.46
391.915	106.67
392.125	184.49
392.334	14.51
392.544	151.72
392.753	47.27
392.963	32.94
393.172	22.7
393.382	-34.64
393.591	223.4
393.801	18.6
394.01	141.48
394.22	98.47
394.429	53.42
394.639	22.7
394.848	102.57
395.058	-1.88
395.267	22.7
395.477	98.47
395.686	69.8
395.895	278.69
396.105	204.97
396.314	106.67
396.524	6.31
396.733	-32.6
396.942	186.54
397.152	59.56
397.361	184.49
397.57	26.79
397.78	73.9
397.989	65.71
398.198	168.1
398.407	14.51
398.617	-51.03
398.826	98.47
399.035	20.65
399.244	166.06
399.453	47.27
399.663	123.05
399.872	82.09
400.081	-46.93
400.29	168.1
400.499	22.7
400.708	121
400.917	108.71
401.127	49.32
401.336	75.95
401.545	202.92
401.754	135.34
401.963	125.1
402.172	75.95
402.381	-40.79
402.59	-1.88
402.799	131.24
403.008	71.85
403.217	24.75
403.426	106.67
403.635	20.65
403.844	45.23
404.053	-16.21
404.262	51.37
404.471	219.3
404.68	90.28
404.888	-8.02
405.097	49.32
405.306	12.46
405.515	114.86
405.724	69.8
405.933	227.5
406.142	39.08
406.35	157.86
406.559	114.86
406.768	108.71
406.977	157.86
407.185	51.37
407.394	114.86
407.603	-14.17
407.812	80.04
408.02	102.57
408.229	57.51
408.438	2.22
408.646	-79.7
408.855	12.46
409.064	57.51
409.272	127.14
409.481	90.28
409.69	14.51
409.898	-10.07
410.107	114.86
410.315	161.96
410.524	32.94
410.733	24.75
410.941	108.71
411.15	217.26
411.358	73.9
411.567	182.44
411.775	84.14
411.984	118.95
412.192	108.71
412.401	47.27
412.609	211.11
412.818	143.53
413.026	88.23
413.234	-46.93
413.443	86.19
413.651	92.33
413.86	49.32
414.068	155.82
414.276	188.58
414.485	-30.55
414.693	153.77
414.901	233.64
415.11	100.52
415.318	-18.26
415.526	41.13
415.734	88.23
415.943	129.19
416.151	121
416.359	127.14
416.567	92.33
416.776	131.24
416.984	112.81
417.192	272.55
417.4	41.13
417.608	41.13
417.817	2.22
418.025	135.34
418.233	164.01
418.441	41.13
418.649	65.71
418.857	94.38
419.065	123.05
419.273	-10.07
419.481	77.99
419.689	116.9
419.897	88.23
420.105	-8.02
420.313	100.52
420.521	168.1
420.729	131.24
420.937	39.08
421.145	-16.21
421.353	80.04
421.561	202.92
421.769	88.23
421.977	14.51
422.185	110.76
422.393	67.75
422.601	182.44
422.809	86.19
423.017	-14.17
423.224	45.23
423.432	80.04
423.64	80.04
423.848	123.05
424.056	14.51
424.263	121
424.471	20.65
424.679	141.48
424.887	59.56
425.094	247.97
425.302	110.76
425.51	123.05
425.718	88.23
425.925	108.71
426.133	-20.31
426.341	194.73
426.548	84.14
426.756	77.99
426.964	116.9
427.171	22.7
427.379	123.05
427.586	47.27
427.794	176.3
428.001	174.25
428.209	71.85
428.417	182.44
428.624	141.48
428.832	155.82
429.039	96.43
429.247	39.08
429.454	125.1
429.662	168.1
429.869	161.96
430.076	131.24
430.284	223.4
430.491	254.12
430.699	69.8
430.906	174.25
431.114	86.19
431.321	231.59
431.528	143.53
431.736	139.43
431.943	100.52
432.15	157.86
432.358	176.3
432.565	250.02
432.772	26.79
432.979	180.39
433.187	176.3
433.394	245.93
433.601	116.9
433.808	170.15
434.016	229.54
434.223	290.98
434.43	166.06
434.637	252.07
434.844	196.78
435.052	168.1
435.259	309.41
435.466	368.81
435.673	207.02
435.88	340.13
436.087	274.6
436.294	327.85
436.501	278.69
436.708	309.41
436.915	299.17
437.122	340.13
437.329	247.97
437.537	223.4
437.743	284.84
437.95	413.86
438.157	325.8
438.364	364.71
438.571	350.37
438.778	377
438.985	368.81
439.192	450.72
439.399	438.44
439.606	477.35
439.813	385.19
440.02	458.92
440.227	598.18
440.433	510.11
440.64	444.58
440.847	491.68
441.054	501.92
441.261	616.61
441.467	579.75
441.674	424.1
441.881	594.08
442.088	678.05
442.294	542.88
442.501	739.49
442.708	667.81
442.914	694.43
443.121	721.06
443.328	755.87
443.534	759.97
443.741	809.12
443.948	719.01
444.154	848.03
444.361	954.52
444.568	868.51
444.774	825.5
444.981	856.22
445.187	1007.77
445.394	938.14
445.6	884.89
445.807	1153.18
446.013	989.34
446.22	1056.92
446.426	1198.23
446.633	1370.26
446.839	1415.32
447.046	1245.34
447.252	1349.78
447.459	1405.08
447.665	1267.86
447.871	1454.23
448.078	1593.49
448.284	1646.74
448.491	1628.31
448.697	1671.31
448.903	1716.37
449.11	1736.85
449.316	1763.47
449.522	1970.32
449.728	2181.26
449.935	2056.33
450.141	2177.16
450.347	2336.9
450.553	2338.95
450.76	2242.7
450.966	2386.05
451.172	2467.97
451.378	2629.76
451.584	2584.71
451.791	2971.77
451.997	2840.7
452.203	2795.65
452.409	3055.74
452.615	3117.18
452.821	3027.07
453.027	3211.39
453.233	3629.17
453.44	3334.26
453.646	3672.18
453.852	3928.17
454.058	4044.91
454.264	4104.3
454.47	4198.51
454.676	4429.93
454.882	4728.93
455.088	4653.16
455.294	4751.46
455.5	5140.57
455.705	5392.47
455.911	5228.63
456.117	5603.41
456.323	5623.89
456.529	5714
456.735	6226
456.941	6375.5
457.147	6858.82
457.352	7026.75
457.558	6907.97
457.764	7587.89
457.97	7770.16
458.176	7950.39
458.381	8472.62
458.587	8511.53
458.793	9029.66
458.999	9011.23
459.204	10055.7
459.41	10291.21
459.616	10201.1
459.821	10747.91
460.027	11192.32
460.233	11728.89
460.438	11780.09
460.644	12328.94
460.85	12855.27
461.055	13051.88
461.261	13848.54
461.466	13225.95
461.672	13760.47
461.878	15212.48
462.083	14962.63
462.289	15478.72
462.494	16220.08
462.7	16402.35
462.905	16467.89
463.111	17616.8
463.316	18626.45
463.522	18818.96
463.727	19578.75
463.932	20010.87
464.138	20954.99
464.343	21604.19
464.549	21911.39
464.754	23490.37
464.959	24155.96
465.165	24497.97
465.37	24299.32
465.575	24418.1
465.781	26146.59
465.986	26756.88
466.191	26537.75
466.397	26507.03
466.602	26169.12
466.807	27453.19
467.012	27981.57
467.218	28495.61
467.423	28583.67
467.628	29456.11
467.833	30818
468.038	30422.75
468.244	29939.43
468.449	31547.08
468.654	30686.93
468.859	30678.74
469.064	30428.89
469.269	29886.18
469.474	30084.83
469.679	30926.55
469.885	29884.13
470.09	30512.86
470.295	30809.81
470.5	29853.41
470.705	30303.96
470.91	29505.26
471.115	29363.95
471.32	29732.58
471.525	29382.38
471.73	28632.82
471.935	28319.48
472.139	27356.94
472.344	27461.38
472.549	27217.68
472.754	26527.51
472.959	26341.14
473.164	24899.37
473.369	24983.34
473.574	25786.15
473.778	24997.68
473.983	24481.59
474.188	24074.04
474.393	22978.38
474.598	23222.09
474.802	22132.57
475.007	22202.2
475.212	21884.76
475.417	21251.94
475.621	20899.69
475.826	20911.98
476.031	19967.87
476.235	19545.98
476.44	19511.17
476.645	19269.51
476.849	19124.1
477.054	18843.53
477.259	18311.06
477.463	18288.53
477.668	17905.56
477.872	17598.37
478.077	17280.93
478.282	16932.78
478.486	16730.03
478.691	16431.02
478.895	16035.77
479.1	16152.5
479.304	16142.26
479.509	15570.88
479.713	15769.53
479.918	15448
480.122	15040.45
480.326	15431.62
480.531	15142.85
480.735	15040.45
480.94	14714.83
481.144	15366.08
481.348	14229.46
481.553	14436.3
481.757	14030.8
481.961	14487.5
482.166	14362.58
482.37	13977.56
482.574	13604.83
482.778	13770.71
482.983	13934.55
483.187	13658.07
483.391	13588.44
483.595	13373.41
483.8	13303.78
484.004	13463.52
484.208	13228
484.412	12890.09
484.616	12959.72
484.821	12543.98
485.025	12374
485.229	12496.88
485.433	12126.19
485.637	12361.71
485.841	11913.2
486.045	11884.53
486.249	11771.9
486.453	11538.43
486.657	11372.54
486.861	11167.74
487.065	10807.3
487.269	10911.75
487.473	10504.2
487.677	10573.83
487.881	10770.44
488.085	10061.84
488.289	10096.66
488.493	9619.48
488.697	9943.06
488.901	9711.64
489.105	9220.13
489.309	9379.87
489.512	9222.17
489.716	9054.24
489.92	8669.22
490.124	8701.99
490.328	8736.81
490.531	8566.82
490.735	8433.71
490.939	8136.75
491.143	7893.04
491.346	7774.26
491.55	7882.8
491.754	7739.44
491.958	7542.84
492.161	7571.51
492.365	7301.18
492.569	7166.01
492.772	7055.42
492.976	6987.84
493.18	6897.73
493.383	6842.43
493.587	6918.21
493.79	6801.47
493.994	6682.69
494.197	6422.6
494.401	6529.1
494.605	6506.57
494.808	6498.38
495.012	6295.63
495.215	6484.04
495.419	6269
495.622	6289.48
495.825	6256.72
496.029	6166.6
496.232	6285.39
496.436	6053.97
496.639	6195.28
496.843	6160.46
497.046	6219.85
497.249	6219.85
497.453	6170.7
497.656	6193.23
497.859	6199.37
498.063	6262.86
498.266	6301.77
498.469	6271.05
498.673	6230.09
498.876	6260.81
499.079	6414.41
499.282	6250.57
499.485	6686.79
499.689	6373.45
499.892	6389.83
500.095	6481.99
500.298	6637.64
500.501	6463.56
500.705	6842.43
500.908	6867.01
501.111	6879.3
501.314	7014.46
501.517	6905.92
501.72	6987.84
501.923	7073.85
502.126	7174.21
502.329	7508.02
502.532	7440.44
502.735	7516.22
502.938	7825.46
503.141	7665.72
503.344	7688.25
503.547	7878.71
503.75	7960.63
503.953	8046.64
504.156	8331.31
504.359	8396.84
504.562	8357.93
504.765	8491.05
504.968	8949.79
505.17	8980.51
505.373	8867.88
505.576	9195.55
505.779	9353.24
505.982	9087.01
506.185	9515.03
506.387	9721.88
506.59	9957.39
506.793	10088.46
506.996	10231.82
507.198	10792.97
507.401	10668.04
507.604	11051.01
507.807	11296.77
508.009	11307.01
508.212	11587.58
508.415	11878.39
508.617	11982.84
508.82	12390.38
509.022	12552.17
509.225	13125.6
509.428	13207.52
509.63	13504.48
509.833	13506.52
510.035	14286.8
510.238	14082
510.44	14356.43
510.643	15112.13
510.845	15259.59
511.048	15488.96
511.25	15980.47
511.453	15986.61
511.655	16816.04
511.858	17102.76
512.06	17536.93
512.262	17590.17
512.465	18022.3
512.667	18534.29
512.87	19046.28
513.072	19097.48
513.274	20098.94
513.477	20307.83
513.679	20991.85
513.881	21249.89
514.084	21981.02
514.286	22214.49
514.488	22525.78
514.69	23588.67
514.893	23914.3
515.095	24076.09
515.297	24610.61
515.499	25102.12
515.701	25673.51
515.904	26330.9
516.106	26840.85
516.308	27117.32
516.51	27735.81
516.712	28561.14
516.914	28767.99
517.116	29417.19
517.318	30191.33
517.52	30830.29
517.722	31008.47
517.925	31770.31
518.127	32173.76
518.329	33064.63
518.531	33214.13
518.733	33953.44
518.935	34424.48
519.136	35061.4
519.338	35724.94
519.54	36157.06
519.742	37181.04
519.944	37445.23
520.146	37815.91
520.348	38286.95
520.55	38714.97
520.752	39198.29
520.954	40328.77
521.155	40154.69
521.357	40746.56
521.559	41363
521.761	42296.87
521.963	42516
522.164	42649.12
522.366	42710.56
522.568	43267.61
522.77	43480.6
522.971	44049.93
523.173	44193.29
523.375	44547.59
523.576	44588.55
523.778	44842.49
523.98	45530.61
524.181	45606.39
524.383	45635.06
524.584	45837.81
524.786	45987.31
524.988	45954.54
525.189	46478.82
525.391	46704.1
525.592	46700
525.794	46738.91
525.995	46329.32
526.197	46523.88
526.398	46546.4
526.6	46745.06
526.801	46216.68
527.003	46231.02
527.204	46120.43
527.406	45948.4
527.607	45790.7
527.808	45864.43
528.01	44805.63
528.211	44809.73
528.412	45336.05
528.614	45260.28
528.815	45147.64
529.016	44797.44
529.218	43521.55
529.419	43539.99
529.62	43189.78
529.822	42892.83
530.023	42257.96
530.224	41995.82
530.425	41745.97
530.626	41090.62
530.828	40670.78
531.029	41063.99
531.23	39769.68
531.431	39249.49
531.632	39331.41
531.833	38911.58
532.035	38766.17
532.236	38071.91
532.437	38159.97
532.638	37002.87
532.839	36869.75
533.04	36845.18
533.241	35298.96
533.442	35595.92
533.643	34690.71
533.844	34270.88
534.045	33904.29
534.246	33539.75
534.447	33337.01
534.648	32536.25
534.849	32155.33
535.05	31686.34
535.251	31358.67
535.451	30645.98
535.652	30664.41
535.853	30281.44
536.054	29873.89
536.255	29621.99
536.456	28901.11
536.657	28739.32
536.857	28385.02
537.058	27789.06
537.259	27838.21
537.46	27363.08
537.66	26846.99
537.861	26511.13
538.062	25925.41
538.263	25708.32
538.463	25155.37
538.664	25012.01
538.865	25020.2
539.065	24543.03
539.266	24364.85
539.466	23965.5
539.667	23566.15
539.868	23594.82
540.068	22957.9
540.269	22712.14
540.469	22533.97
540.67	22232.92
540.87	22198.1
541.071	21643.1
541.271	21561.19
541.472	21264.23
541.672	21227.37
541.873	20594.54
542.073	20344.69
542.274	20084.6
542.474	19900.28
542.675	19627.9
542.875	19554.18
543.075	19195.78
543.276	18900.87
543.476	19046.28
543.676	18681.74
543.877	18427.79
544.077	18522
544.277	18274.2
544.478	17999.77
544.678	17788.83
544.878	17612.7
545.078	17452.96
545.279	17143.72
545.479	17031.08
545.679	16482.22
545.879	16541.61
546.079	16408.5
546.28	16084.92
546.48	15667.13
546.68	15894.46
546.88	15800.25
547.08	15445.95
547.28	15480.77
547.48	15169.48
547.68	14886.86
547.88	14630.86
548.081	14557.13
548.281	14192.59
548.481	14094.29
548.681	14102.48
548.881	13651.93
549.081	13412.32
549.28	13529.05
549.48	13393.89
549.68	13025.25
549.88	12967.91
550.08	12644.33
550.28	12593.13
550.48	12388.33
550.68	12369.9
550.88	12034.04
551.08	11982.84
551.279	11859.96
551.479	11640.83
551.679	11460.6
551.879	11108.35
552.079	11155.46
552.278	10938.37
552.478	10876.93
552.678	10604.55
552.878	10569.74
553.077	10156.05
553.277	9992.21
553.477	10170.38
553.676	9844.76
553.876	9814.04
554.076	9549.85
554.275	9400.35
554.475	9187.36
554.674	9289.76
554.874	8962.08
555.074	8822.82
555.273	8747.05
555.473	8626.22
555.672	8329.26
555.872	8300.59
556.071	8222.77
556.271	8124.46
556.47	7819.32
556.67	7696.44
556.869	7688.25
557.068	7501.88
557.268	7344.19
557.467	7403.58
557.667	7309.37
557.866	7006.27
558.065	6867.01
558.265	6805.57
558.464	6473.8
558.663	6770.76
558.863	6541.38
559.062	6277.19
559.261	6471.75
559.461	6346.83
559.66	6072.4
559.859	5988.43
560.058	5779.54
560.258	5711.96
560.457	5699.67
560.656	5613.65
560.855	5326.94
561.054	5621.84
561.253	5341.27
561.453	5169.24
561.652	5230.68
561.851	5023.84
562.05	4956.26
562.249	4894.82
562.448	4925.54
562.647	4712.55
562.846	4669.54
563.045	4849.76
563.244	4526.18
563.443	4567.14
563.642	4374.63
563.841	4434.02
564.04	4356.2
564.239	4186.22
564.438	4391.02
564.637	4055.15
564.836	3960.94
565.035	4014.19
565.234	3919.98
565.432	3919.98
565.631	3870.83
565.83	3954.8
566.029	3592.31
566.228	3682.42
566.427	3620.98
566.625	3438.71
566.824	3543.16
567.023	3412.09
567.222	3305.59
567.42	3502.2
567.619	3299.45
567.818	3229.82
568.016	3381.37
568.215	3197.05
568.414	3133.56
568.612	3182.71
568.811	3119.23
569.01	3043.45
569.208	2967.68
569.407	2916.48
569.605	2754.69
569.804	2848.9
570.002	2838.66
570.201	2758.78
570.4	2842.75
570.598	2697.35
570.797	2607.23
570.995	2539.65
571.193	2498.69
571.392	2588.8
571.59	2498.69
571.789	2502.79
571.987	2510.98
572.186	2545.8
572.384	2351.24
572.582	2353.29
572.781	2453.64
572.979	2095.24
573.177	2236.55
573.376	2115.72
573.574	2234.5
573.772	2033.8
573.971	2042
574.169	1970.32
574.367	2068.62
574.565	1984.65
574.763	1892.49
574.962	1915.02
575.16	1775.76
575.358	1874.06
575.556	1824.91
575.754	1751.18
575.952	1699.98
576.151	1753.23
576.349	1796.24
576.547	1601.68
576.745	1648.79
576.943	1667.22
577.141	1521.81
577.339	1519.76
577.537	1505.43
577.735	1568.91
577.933	1556.63
578.131	1357.97
578.329	1556.63
578.527	1376.41
578.725	1441.94
578.923	1263.77
579.121	1405.08
579.319	1251.48
579.516	1241.24
579.714	1517.72
579.912	1380.5
580.11	1226.9
580.308	1310.87
580.506	1206.42
580.704	1015.96
580.901	1132.7
581.099	1290.39
581.297	1114.27
581.495	1204.38
581.692	997.53
581.89	1220.76
582.088	1159.32
582.285	1073.31
582.483	1081.5
582.681	1050.78
582.878	997.53
583.076	1153.18
583.274	1011.87
583.471	1122.46
583.669	927.9
583.866	979.1
584.064	897.18
584.262	938.14
584.459	802.97
584.657	956.57
584.854	1015.96
585.052	903.32
585.249	934.04
585.447	841.89
585.644	737.44
585.841	934.04
586.039	929.95
586.236	811.17
586.434	786.59
586.631	686.24
586.828	671.9
587.026	784.54
587.223	618.66
587.42	784.54
587.618	792.73
587.815	825.5
588.012	772.25
588.21	696.48
588.407	714.91
588.604	792.73
588.801	686.24
588.999	647.33
589.196	766.11
589.393	704.67
589.59	673.95
589.787	743.58
589.984	606.37
590.182	682.14
590.379	606.37
590.576	589.99
590.773	639.14
590.97	604.32
591.167	655.52
591.364	702.62
591.561	534.69
591.758	714.91
591.955	721.06
592.152	546.98
592.349	549.03
592.546	598.18
592.743	585.89
592.94	551.07
593.137	614.56
593.334	815.26
593.531	604.32
593.727	686.24
593.924	655.52
594.121	596.13
594.318	555.17
594.515	706.72
594.712	762.02
594.908	696.48
595.105	526.5
595.302	676
595.499	620.71
595.696	747.68
595.892	610.47
596.089	766.11
596.286	618.66
596.482	766.11
596.679	805.02
596.876	661.66
597.072	774.3
597.269	743.58
597.466	866.46
597.662	819.36
597.859	780.45
598.055	909.47
598.252	843.93
598.448	964.76
598.645	1030.3
598.841	970.91
599.038	989.34
599.234	1087.64
599.431	1130.65
599.627	1192.09
599.824	1120.41
600.02	1079.45
600.217	1112.22
600.413	1237.14
600.609	1235.1
600.806	1546.39
601.002	1423.51
601.198	1364.12
601.395	1593.49
601.591	1505.43
601.787	1716.37
601.984	1736.85
602.18	1745.04
602.376	1706.13
602.572	1880.21
602.769	1937.55
602.965	1960.08
603.161	2001.04
603.357	2136.2
603.553	2244.74
603.75	2125.96
603.946	2345.09
604.142	2476.16
604.338	2461.83
604.534	2547.84
604.73	2566.28
604.926	2666.63
605.122	2797.7
605.318	2744.45
605.514	3037.31
605.71	2961.53
605.906	3203.19
606.102	3319.93
606.298	3422.33
606.494	3403.89
606.69	3692.66
606.886	3534.96
607.082	3668.08
607.278	3780.72
607.474	3983.47
607.67	4057.2
607.866	4094.06
608.062	4268.14
608.257	4175.98
608.453	4337.77
608.649	4771.94
608.845	4595.81
609.041	4782.18
609.236	5027.93
609.432	5091.42
609.628	5193.82
609.824	5406.81
610.019	5494.87
610.215	5769.3
610.411	5920.85
610.606	6058.06
610.802	6058.06
610.998	6215.76
611.193	6471.75
611.389	6398.03
611.584	6848.58
611.78	6905.92
611.976	7096.38
612.171	7575.61
612.367	7467.06
612.562	7561.27
612.758	8032.3
612.953	7800.88
613.149	8208.43
613.344	8179.76
613.539	8908.83
613.735	8978.47
613.93	9287.71
614.126	9445.4
614.321	9740.31
614.517	9955.35
614.712	10227.73
614.907	10315.79
615.103	10831.88
615.298	10645.51
615.493	11114.5
615.688	11266.05
615.884	11896.82
616.079	11909.11
616.274	12421.1
616.47	12599.27
616.665	12978.15
616.86	13277.15
617.055	13492.19
617.25	13631.45
617.445	14268.37
617.641	14419.92
617.836	14880.71
618.031	15282.11
618.226	16082.87
618.421	16168.88
618.616	16357.3
618.811	16592.81
619.006	17620.89
619.201	17239.97
619.396	17876.89
619.591	18032.54
619.786	18884.49
619.981	18823.05
620.176	19427.2
620.371	19738.49
620.566	20332.4
620.761	20703.09
620.956	21239.65
621.151	21534.56
621.346	21868.38
621.541	22226.78
621.735	23131.98
621.93	23060.3
622.125	23541.57
622.32	23885.63
622.515	24250.17
622.709	24880.94
622.904	25341.74
623.099	25646.88
623.294	25931.55
623.488	26515.22
623.683	27193.1
623.878	27117.32
624.072	27961.09
624.267	28247.8
624.462	28669.69
624.656	29322.99
624.851	29816.55
625.046	29867.75
625.24	30666.45
625.435	30519
625.629	31149.78
625.824	31581.9
626.018	32190.14
626.213	32251.58
626.407	32724.66
626.602	32616.12
626.796	33312.43
626.991	33951.4
627.185	33928.87
627.38	34180.77
627.574	34442.91
627.768	34559.64
627.963	34563.74
628.157	34825.88
628.352	35147.41
628.546	34391.71
628.74	35466.89
628.935	34772.63
629.129	34768.54
629.323	34680.47
629.517	34449.05
629.712	34727.58
629.906	34346.65
630.1	33404.59
630.294	33549.99
630.489	33472.17
630.683	33271.47
630.877	32126.66
631.071	31733.45
631.265	31377.1
631.459	31012.56
631.653	29984.48
631.848	29509.35
632.042	28942.07
632.236	28239.61
632.43	27574.02
632.624	26760.98
632.818	25818.91
633.012	25149.23
633.206	24317.75
633.4	23977.79
633.594	22497.11
633.788	22175.58
633.982	21501.79
634.176	20442.99
634.369	19971.96
634.563	19015.56
634.757	18282.39
634.951	17786.78
635.145	17018.79
635.339	16318.39
635.533	15687.61
635.726	15167.43
635.92	14344.14
636.114	14084.05
636.308	13086.69
636.501	12859.37
636.695	12298.22
636.889	11530.23
637.083	11235.33
637.276	10741.77
637.47	10504.2
637.664	10117.14
637.857	9711.64
638.051	9287.71
638.244	9087.01
638.438	8640.55
638.632	8454.19
638.825	7696.44
639.019	7710.77
639.212	7344.19
639.406	7008.32
639.599	6656.07
639.793	6481.99
639.986	6017.1
640.18	6035.53
640.373	5754.96
640.567	5394.52
640.76	5374.04
640.954	5095.52
641.147	4837.47
641.34	4522.09
641.534	4583.52
641.727	4556.9
641.92	4214.89
642.114	4141.16
642.307	3870.83
642.5	3768.43
642.694	3455.09
642.887	3524.72
643.08	3293.3
643.273	3311.74
643.467	3129.47
643.66	2859.14
643.853	2812.03
644.046	2887.81
644.239	2623.62
644.432	2472.07
644.626	2365.57
644.819	2314.38
645.012	2236.55
645.205	2222.22
645.398	2254.98
645.591	2058.38
645.784	1908.88
645.977	1820.81
646.17	1910.93
646.363	1712.27
646.556	1650.83
646.749	1476.76
646.942	1597.59
647.135	1573.01
647.328	1446.04
647.521	1484.95
647.714	1417.37
647.907	1261.72
648.099	1124.51
648.292	1257.62
648.485	1220.76
648.678	1022.11
648.871	1101.98
649.064	1104.03
649.256	911.52
649.449	878.75
649.642	809.12
649.835	831.65
650.027	786.59
650.22	938.14
650.413	700.58
650.605	850.08
650.798	737.44
650.991	608.42
651.183	759.97
651.376	676
651.568	774.3
651.761	573.6
651.954	622.75
652.146	573.6
652.339	751.78
652.531	624.8
652.724	479.4
652.916	575.65
653.109	440.48
653.301	620.71
653.494	516.26
653.686	452.77
653.879	544.93
654.071	426.15
654.263	307.37
654.456	364.71
654.648	487.59
654.84	477.35
655.033	327.85
655.225	585.89
655.417	342.18
655.61	483.49
655.802	438.44
655.994	379.04
656.186	278.69
656.379	424.1
656.571	239.78
656.763	338.09
656.955	321.7
657.148	327.85
657.34	368.81
657.532	338.09
657.724	239.78
657.916	315.56
658.108	336.04
658.3	315.56
658.492	358.57
658.684	227.5
658.876	309.41
659.068	245.93
659.26	135.34
659.452	239.78
659.644	247.97
659.836	403.62
660.028	219.3
660.22	153.77
660.412	223.4
660.604	258.21
660.796	200.87
660.988	299.17
661.18	247.97
661.372	266.41
661.563	196.78
661.755	229.54
661.947	178.34
662.139	211.11
662.331	338.09
662.522	239.78
662.714	147.62
662.906	110.76
663.097	147.62
663.289	102.57
663.481	32.94
663.673	207.02
663.864	186.54
664.056	256.17
664.247	96.43
664.439	276.65
664.631	198.82
664.822	200.87
665.014	194.73
665.205	139.43
665.397	98.47
665.588	204.97
665.78	194.73
665.971	207.02
666.163	151.72
666.354	180.39
666.546	92.33
666.737	123.05
666.929	108.71
667.12	176.3
667.311	164.01
667.503	135.34
667.694	133.29
667.885	182.44
668.077	237.74
668.268	-34.64
668.459	131.24
668.651	112.81
668.842	209.06
669.033	161.96
669.224	94.38
669.416	311.46
669.607	90.28
669.798	114.86
669.989	198.82
670.18	155.82
670.371	231.59
670.563	114.86
670.754	284.84
670.945	110.76
671.136	198.82
671.327	112.81
671.518	213.16
671.709	233.64
671.9	172.2
672.091	250.02
672.282	161.96
672.473	178.34
672.664	45.23
672.855	178.34
673.046	223.4
673.237	284.84
673.428	129.19
673.619	243.88
673.809	213.16
674	243.88
674.191	194.73
674.382	190.63
674.573	127.14
674.764	180.39
674.954	237.74
675.145	202.92
675.336	112.81
675.527	147.62
675.717	116.9
675.908	129.19
676.099	47.27
676.289	217.26
676.48	106.67
676.671	192.68
676.861	94.38
677.052	184.49
677.243	166.06
677.433	123.05
677.624	161.96
677.814	157.86
678.005	71.85
678.195	317.61
678.386	30.89
678.576	110.76
678.767	92.33
678.957	186.54
679.148	247.97
679.338	280.74
679.529	192.68
679.719	141.48
679.909	260.26
680.1	196.78
680.29	256.17
680.481	92.33
680.671	227.5
680.861	213.16
681.052	131.24
681.242	121
681.432	200.87
681.622	207.02
681.813	129.19
682.003	151.72
682.193	77.99
682.383	264.36
682.573	188.58
682.764	188.58
682.954	258.21
683.144	309.41
683.334	217.26
683.524	164.01
683.714	237.74
683.904	170.15
684.094	202.92
684.284	256.17
684.474	278.69
684.664	207.02
684.854	168.1
685.044	174.25
685.234	274.6
685.424	176.3
685.614	145.58
685.804	319.65
685.994	237.74
686.184	139.43
686.374	288.93
686.564	256.17
686.753	237.74
686.943	170.15
687.133	188.58
687.323	227.5
687.513	325.8
687.702	213.16
687.892	213.16
688.082	270.5
688.272	266.41
688.461	282.79
688.651	288.93
688.841	250.02
689.03	176.3
689.22	235.69
689.41	290.98
689.599	280.74
689.789	147.62
689.979	293.03
690.168	268.45
690.358	286.89
690.547	217.26
690.737	239.78
690.926	231.59
691.116	309.41
691.305	258.21
691.495	311.46
691.684	112.81
691.874	237.74
692.063	239.78
692.252	282.79
692.442	241.83
692.631	231.59
692.82	223.4
693.01	233.64
693.199	207.02
693.388	274.6
693.578	202.92
693.767	299.17
693.956	239.78
694.146	237.74
694.335	204.97
694.524	196.78
694.713	270.5
694.902	229.54
695.092	157.86
695.281	309.41
695.47	196.78
695.659	149.67
695.848	241.83
696.037	182.44
696.226	250.02
696.415	139.43
696.604	354.47
696.793	250.02
696.982	241.83
697.171	350.37
697.36	168.1
697.549	153.77
697.738	82.09
697.927	225.45
698.116	129.19
698.305	262.31
698.494	157.86
698.683	178.34
698.872	284.84
699.061	207.02
699.25	106.67
699.438	258.21
699.627	180.39
699.816	274.6
700.005	129.19
700.193	176.3
700.382	221.35
700.571	209.06
700.76	229.54
700.948	196.78
701.137	227.5
701.326	174.25
701.514	153.77
701.703	192.68
701.892	272.55
702.08	352.42
702.269	260.26
702.457	82.09
702.646	258.21
702.834	194.73
703.023	309.41
703.212	284.84
703.4	213.16
703.589	161.96
703.777	204.97
703.965	215.21
704.154	125.1
704.342	98.47
704.531	207.02
704.719	209.06
704.907	274.6
705.096	141.48
705.284	151.72
705.472	207.02
705.661	280.74
705.849	288.93
706.037	293.03
706.226	204.97
706.414	198.82
706.602	123.05
706.79	303.27
706.979	209.06
707.167	186.54
707.355	174.25
707.543	264.36
707.731	219.3
707.919	241.83
708.107	137.38
708.296	227.5
708.484	114.86
708.672	184.49
708.86	221.35
709.048	245.93
709.236	164.01
709.424	276.65
709.612	297.13
709.8	49.32
709.988	207.02
710.176	336.04
710.364	325.8
710.551	225.45
710.739	217.26
710.927	151.72
711.115	225.45
711.303	295.08
711.491	309.41
711.679	88.23
711.866	176.3
712.054	217.26
712.242	161.96
712.43	250.02
712.617	145.58
712.805	276.65
712.993	227.5
713.181	114.86
713.368	223.4
713.556	102.57
713.744	192.68
713.931	366.76
714.119	293.03
714.306	121
714.494	211.11
714.682	260.26
714.869	77.99
715.057	215.21
715.244	139.43
715.432	245.93
715.619	121
715.807	166.06
715.994	176.3
716.182	276.65
716.369	227.5
716.556	229.54
716.744	98.47
716.931	215.21
717.119	219.3
717.306	192.68
717.493	286.89
717.681	164.01
717.868	180.39
718.055	270.5
718.242	260.26
718.43	264.36
718.617	331.94
718.804	243.88
718.991	331.94
719.179	258.21
719.366	274.6
719.553	241.83
719.74	276.65
719.927	223.4
720.114	305.32
720.301	137.38
720.488	168.1
720.676	127.14
720.863	241.83
721.05	377
721.237	319.65
721.424	307.37
721.611	313.51
721.798	131.24
721.985	194.73
722.172	219.3
722.358	293.03
722.545	333.99
722.732	262.31
722.919	225.45
723.106	268.45
723.293	313.51
723.48	258.21
723.667	190.63
723.853	288.93
724.04	297.13
724.227	288.93
724.414	225.45
724.6	221.35
724.787	420
724.974	420
725.161	282.79
725.347	198.82
725.534	293.03
725.72	342.18
725.907	387.24
726.094	309.41
726.28	200.87
726.467	344.23
726.653	196.78
726.84	342.18
727.027	372.9
727.213	272.55
727.4	278.69
727.586	293.03
727.773	174.25
727.959	243.88
728.145	239.78
728.332	272.55
728.518	282.79
728.705	346.28
728.891	159.91
729.077	303.27
729.264	231.59
729.45	327.85
729.636	327.85
729.823	303.27
730.009	346.28
730.195	284.84
730.382	266.41
730.568	180.39
730.754	274.6
730.94	329.89
731.126	286.89
731.313	358.57
731.499	225.45
731.685	346.28
731.871	313.51
732.057	254.12
732.243	366.76
732.429	268.45
732.615	313.51
732.801	338.09
732.987	299.17
733.173	215.21
733.359	237.74
733.545	397.48
733.731	215.21
733.917	479.4
734.103	307.37
734.289	321.7
734.475	196.78
734.661	479.4
734.847	280.74
735.033	258.21
735.219	342.18
735.404	307.37
735.59	264.36
735.776	311.46
735.962	401.57
736.148	370.85
736.333	428.2
736.519	344.23
736.705	282.79
736.89	299.17
737.076	301.22
737.262	229.54
737.447	321.7
737.633	336.04
737.819	426.15
738.004	223.4
738.19	362.66
738.375	319.65
738.561	366.76
738.747	290.98
738.932	272.55
739.118	532.64
739.303	297.13
739.489	350.37
739.674	327.85
739.859	284.84
740.045	295.08
740.23	372.9
740.416	172.2
740.601	295.08
740.786	370.85
740.972	278.69
741.157	409.76
741.342	288.93
741.528	209.06
741.713	323.75
741.898	338.09
742.084	266.41
742.269	327.85
742.454	288.93
742.639	442.53
742.824	391.33
743.01	438.44
743.195	458.92
743.38	293.03
743.565	297.13
743.75	403.62
743.935	262.31
744.12	403.62
744.305	180.39
744.49	258.21
744.675	237.74
744.86	229.54
745.045	387.24
745.23	301.22
745.415	344.23
745.6	432.29
745.785	307.37
745.97	411.81
746.155	256.17
746.34	323.75
746.525	403.62
746.71	321.7
746.895	268.45
747.079	190.63
747.264	336.04
747.449	245.93
747.634	352.42
747.819	389.28
748.003	333.99
748.188	196.78
748.373	364.71
748.557	254.12
748.742	229.54
748.927	276.65
749.111	295.08
749.296	317.61
749.481	364.71
749.665	266.41
749.85	293.03
750.034	290.98
750.219	241.83
750.404	227.5
750.588	311.46
750.773	278.69
750.957	317.61
751.141	145.58
751.326	233.64
751.51	180.39
751.695	211.11
751.879	223.4
752.064	354.47
752.248	241.83
752.432	301.22
752.617	288.93
752.801	280.74
752.985	211.11
753.17	315.56
753.354	280.74
753.538	317.61
753.722	194.73
753.907	239.78
754.091	131.24
754.275	348.33
754.459	135.34
754.643	149.67
754.828	284.84
755.012	256.17
755.196	141.48
755.38	288.93
755.564	143.53
755.748	243.88
755.932	284.84
756.116	188.58
756.3	266.41
756.484	192.68
756.668	198.82
756.852	47.27
757.036	182.44
757.22	161.96
757.404	196.78
757.588	219.3
757.772	235.69
757.956	141.48
758.14	354.47
758.323	157.86
758.507	202.92
758.691	170.15
758.875	280.74
759.059	276.65
759.242	194.73
759.426	231.59
759.61	225.45
759.794	202.92
759.977	258.21
760.161	364.71
760.345	309.41
760.528	207.02
760.712	250.02
760.895	202.92
761.079	186.54
761.263	172.2
761.446	135.34
761.63	127.14
761.813	303.27
761.997	116.9
762.18	164.01
762.364	274.6
762.547	59.56
762.731	166.06
762.914	217.26
763.098	213.16
763.281	196.78
763.464	39.08
763.648	180.39
763.831	188.58
764.015	100.52
764.198	159.91
764.381	32.94
764.564	98.47
764.748	192.68
764.931	188.58
765.114	106.67
765.297	161.96
765.481	61.61
765.664	135.34
765.847	149.67
766.03	211.11
766.213	65.71
766.397	157.86
766.58	73.9
766.763	221.35
766.946	69.8
767.129	147.62
767.312	73.9
767.495	170.15
767.678	84.14
767.861	116.9
768.044	123.05
768.227	153.77
768.41	243.88
768.593	102.57
768.776	211.11
768.959	172.2
769.142	215.21
769.324	137.38
769.507	157.86
769.69	159.91
769.873	153.77
770.056	372.9
770.239	114.86
770.421	243.88
770.604	164.01
770.787	129.19
770.97	147.62
771.152	125.1
771.335	147.62
771.518	34.99
771.7	186.54
771.883	286.89
772.066	67.75
772.248	166.06
772.431	266.41
772.613	118.95
772.796	69.8
772.978	166.06
773.161	260.26
773.343	108.71
773.526	71.85
773.708	49.32
773.891	73.9
774.073	118.95
774.256	118.95
774.438	143.53
774.621	55.47
774.803	114.86
774.985	28.84
775.168	164.01
775.35	49.32
775.532	131.24
775.715	71.85
775.897	133.29
776.079	96.43
776.261	127.14
776.444	192.68
776.626	41.13
776.808	86.19
776.99	12.46
777.173	123.05
777.355	49.32
777.537	59.56
777.719	63.66
777.901	65.71
778.083	59.56
778.265	18.6
778.447	196.78
778.629	-26.45
778.811	96.43
778.993	149.67
779.175	192.68
779.357	139.43
779.539	6.31
779.721	69.8
779.903	225.45
780.085	61.61
780.267	53.42
780.449	139.43
780.631	127.14
780.812	200.87
780.994	34.99
781.176	88.23
781.358	65.71
781.54	69.8
781.721	86.19
781.903	141.48
782.085	55.47
782.267	133.29
782.448	18.6
782.63	61.61
782.812	151.72
782.993	84.14
783.175	88.23
783.357	88.23
783.538	90.28
783.72	61.61
783.901	28.84
784.083	125.1
784.264	137.38
784.446	-44.88
784.627	-69.46
784.809	129.19
784.99	-57.17
785.172	82.09
785.353	86.19
785.535	108.71
785.716	77.99
785.897	8.36
786.079	135.34
786.26	73.9
786.441	147.62
786.623	-38.74
786.804	39.08
786.985	77.99
787.167	65.71
787.348	41.13
787.529	32.94
787.71	133.29
787.891	82.09
788.073	80.04
788.254	43.18
788.435	225.45
788.616	41.13
788.797	57.51
788.978	96.43
789.159	-40.79
789.34	141.48
789.522	2.22
789.703	-22.36
789.884	0.17
790.065	75.95
790.246	166.06
790.427	34.99
790.607	174.25
790.788	147.62
790.969	28.84
791.15	61.61
791.331	-30.55
791.512	22.7
791.693	47.27
791.874	-8.02
792.054	274.6
792.235	84.14
792.416	0.17
792.597	-24.4
792.778	65.71
792.958	159.91
793.139	90.28
793.32	82.09
793.5	-1.88
793.681	118.95
793.862	161.96
794.042	55.47
794.223	-94.04
794.404	8.36
794.584	-42.84
794.765	12.46
794.945	104.62
795.126	51.37
795.306	59.56
795.487	67.75
795.667	-40.79
795.848	51.37
796.028	55.47
796.209	61.61
796.389	88.23
796.57	14.51
796.75	-8.02
796.93	53.42
797.111	24.75
797.291	145.58
797.471	57.51
797.652	-10.07
797.832	-20.31
798.012	131.24
798.192	26.79
798.373	-42.84
798.553	30.89
798.733	43.18
798.913	-51.03
799.093	-3.93
799.274	82.09
799.454	75.95
799.634	114.86
799.814	112.81
799.994	94.38
800.174	30.89
800.354	6.31
800.534	-59.22
800.714	100.52
800.894	10.41
801.074	10.41
801.254	-3.93
801.434	65.71
801.614	-36.69
801.794	-32.6
801.974	1808.53
802.154	-42.84
802.334	67.75
802.514	-51.03
802.693	24.75
802.873	34.99
803.053	94.38
803.233	24.75
803.413	10.41
803.592	-46.93
803.772	-55.12
803.952	37.03
804.131	-14.17
804.311	94.38
804.491	155.82
804.67	41.13
804.85	4.27
805.03	12.46
805.209	145.58
805.389	-1.88
805.568	53.42
805.748	53.42
805.928	20.65
806.107	57.51
806.287	65.71
806.466	12.46
806.646	-1.88
806.825	114.86
807.004	43.18
807.184	6.31
807.363	110.76
807.543	14.51
807.722	-32.6
807.901	114.86
808.081	37.03
808.26	-132.95
808.439	8.36
808.619	12.46
808.798	47.27
808.977	10.41
809.156	116.9
809.336	8.36
809.515	16.55
809.694	-87.89
809.873	-12.12
810.052	73.9
810.231	69.8
810.411	63.66
810.59	65.71
810.769	-16.21
810.948	131.24
811.127	-14.17
811.306	80.04
811.485	10.41
811.664	127.14
811.843	14.51
812.022	73.9
812.201	57.51
812.38	12.46
812.559	8.36
812.737	43.18
812.916	-42.84
813.095	-79.7
813.274	41.13
813.453	82.09
813.632	26.79
813.811	55.47
813.989	-65.36
814.168	106.67
814.347	-71.51
814.526	-69.46
814.704	157.86
814.883	114.86
815.062	-81.75
815.24	39.08
815.419	-46.93
815.598	92.33
815.776	-63.32
815.955	10.41
816.133	-98.13
816.312	-12.12
816.49	-3.93
816.669	10.41
816.847	-1.88
817.026	8.36
817.204	67.75
817.383	41.13
817.561	8.36
817.74	6.31
817.918	77.99
818.097	-36.69
818.275	-36.69
818.453	102.57
818.632	8.36
818.81	2.22
818.988	61.61
819.167	-67.41
819.345	18.6
819.523	-85.84
819.701	28.84
819.879	102.57
820.058	123.05
820.236	-34.64
820.414	34.99
820.592	41.13
820.77	14.51
820.948	-32.6
821.127	-57.17
821.305	116.9
821.483	-85.84
821.661	131.24
821.839	43.18
822.017	0.17
822.195	-55.12
822.373	133.29
822.551	55.47
822.729	116.9
822.907	12.46
823.085	118.95
823.262	47.27
823.44	12.46
823.618	10.41
823.796	8.36
823.974	-8.02
824.152	-8.02
824.329	-8.02
824.507	-12.12
824.685	18.6
824.863	-65.36
825.04	32.94
825.218	24.75
825.396	77.99
825.574	96.43
825.751	34.99
825.929	161.96
826.107	20.65
826.284	-32.6
826.462	51.37
826.639	-36.69
826.817	-10.07
826.994	90.28
827.172	-24.4
827.349	10.41
827.527	94.38
827.704	24.75
827.882	110.76
828.059	86.19
828.237	-36.69
828.414	159.91
828.591	-137.04
828.769	12.46
828.946	-102.23
829.124	82.09
829.301	155.82
829.478	37.03
829.655	77.99
829.833	34.99
830.01	-87.89
830.187	-8.02
830.364	0.17
830.542	47.27
830.719	168.1
830.896	98.47
831.073	69.8
831.25	32.94
831.427	12.46
831.604	32.94
831.782	-5.97
831.959	47.27
832.136	32.94
832.313	30.89
832.49	-3.93
832.667	45.23
832.844	-22.36
833.021	80.04
833.198	75.95
833.374	-8.02
833.551	-14.17
833.728	-32.6
833.905	84.14
834.082	-114.52
834.259	24.75
834.436	143.53
834.612	10.41
834.789	153.77
834.966	-44.88
835.143	63.66
835.319	-63.32
835.496	39.08
835.673	71.85
835.85	51.37
836.026	82.09
836.203	121
836.38	51.37
836.556	-42.84
836.733	-22.36
836.909	96.43
837.086	22.7
837.262	-51.03
837.439	0.17
837.616	-83.8
837.792	-65.36
837.968	37.03
838.145	-118.61
838.321	18.6
838.498	86.19
838.674	65.71
838.851	73.9
839.027	-53.08
839.203	32.94
839.38	65.71
839.556	-32.6
839.732	73.9
839.909	69.8
840.085	-18.26
840.261	-81.75
840.437	80.04
840.614	-1.88
840.79	45.23
840.966	90.28
841.142	123.05
841.318	-40.79
841.494	77.99
841.671	51.37
841.847	-10.07
842.023	39.08
842.199	20.65
842.375	108.71
842.551	-91.99
842.727	0.17
842.903	67.75
843.079	10.41
843.255	47.27
843.431	80.04
843.607	112.81
843.783	-139.09
843.959	32.94
844.134	-100.18
844.31	131.24
844.486	-63.32
844.662	-1.88
844.838	-10.07
845.013	53.42
845.189	86.19
845.365	6.31
845.541	45.23
845.716	-10.07
845.892	63.66
846.068	-18.26
846.244	32.94
846.419	71.85
846.595	22.7
846.77	-81.75
846.946	80.04
847.122	-30.55
847.297	32.94
847.473	30.89
847.648	-102.23
847.824	65.71
847.999	-94.04
848.175	-12.12
848.35	-69.46
848.526	65.71
848.701	84.14
848.876	75.95
849.052	108.71
849.227	-85.84
849.403	20.65
849.578	-38.74
849.753	-48.98
849.929	147.62
850.104	-81.75
850.279	6.31
850.454	-16.21
850.63	82.09
850.805	32.94
850.98	6.31
851.155	4.27
851.33	39.08
851.505	-116.56
851.681	155.82
851.856	45.23
852.031	37.03
852.206	-20.31
852.381	-28.5
852.556	141.48
852.731	-30.55
852.906	170.15
853.081	100.52
853.256	55.47
853.431	24.75
853.606	18.6
853.781	-28.5
853.956	-104.28
854.131	24.75
854.305	-30.55
854.48	16.55
854.655	-67.41
854.83	-79.7
855.005	-3.93
855.18	8.36
855.354	22.7
855.529	57.51
855.704	-36.69
855.879	51.37
856.053	-20.31
856.228	94.38
856.403	-98.13
856.577	135.34
856.752	-55.12
856.926	51.37
857.101	71.85
857.276	-73.56
857.45	2.22
857.625	22.7
857.799	84.14
857.974	41.13
858.148	-42.84
858.323	49.32
858.497	-32.6
858.672	-57.17
858.846	-16.21
859.02	59.56
859.195	-5.97
859.369	16.55
859.543	43.18
859.718	-30.55
859.892	39.08
860.066	47.27
860.241	14.51
860.415	-16.21
860.589	-61.27
860.763	49.32
860.938	-12.12
861.112	59.56
861.286	-46.93
861.46	-1.88
861.634	-3.93
861.808	141.48
861.982	-28.5
862.157	-57.17
862.331	0.17
862.505	-135
862.679	-67.41
862.853	-38.74
863.027	-22.36
863.201	190.63
863.375	-10.07
863.549	37.03
863.722	59.56
863.896	135.34
864.07	-10.07
864.244	6.31
864.418	75.95
864.592	6.31
864.766	43.18
864.939	4.27
865.113	8.36
865.287	114.86
865.461	-16.21
865.634	63.66
865.808	26.79
865.982	20.65
866.156	8.36
866.329	32.94
866.503	32.94
866.676	86.19
866.85	41.13
867.024	4.27
867.197	96.43
867.371	37.03
867.544	43.18
867.718	-87.89
867.891	118.95
868.065	-34.64
868.238	0.17
868.412	82.09
868.585	45.23
868.759	-5.97
868.932	-46.93
869.105	-104.28
869.279	4.27
869.452	-36.69
869.625	-24.4
869.799	-8.02
869.972	-48.98
870.145	-24.4
870.319	137.38
870.492	-63.32
870.665	4.27
870.838	-42.84
871.011	-83.8
871.185	-102.23
871.358	39.08
871.531	102.57
871.704	8.36
871.877	2.22
872.05	-10.07
872.223	-65.36
872.396	82.09
872.569	26.79
872.742	-57.17
872.915	28.84
873.088	-94.04
873.261	-124.76
873.434	61.61
873.607	-8.02
873.78	133.29
873.953	-71.51
874.126	55.47
874.299	32.94
874.471	-57.17
874.644	26.79
874.817	20.65
874.99	125.1
875.163	37.03
875.335	26.79
875.508	-8.02
875.681	100.52
875.853	30.89
876.026	-8.02
876.199	82.09
876.371	88.23
876.544	26.79
876.717	55.47
876.889	-57.17
877.062	51.37
877.234	-12.12
877.407	-67.41
877.579	-94.04
877.752	6.31
877.924	30.89
878.097	-18.26
878.269	30.89
878.442	-16.21
878.614	84.14
878.786	-3.93
878.959	32.94
879.131	-38.74
879.303	-102.23
879.476	-14.17
879.648	92.33
879.82	8.36
879.993	-42.84
880.165	-40.79
880.337	-89.94
880.509	26.79
880.681	-67.41
880.854	34.99
881.026	43.18
881.198	149.67
881.37	57.51
881.542	-65.36
881.714	32.94
881.886	-114.52
882.058	-24.4
882.23	6.31
882.402	-22.36
882.574	-14.17
882.746	112.81
882.918	45.23
883.09	67.75
883.262	4.27
883.434	63.66
883.606	-108.37
883.778	-61.27
883.95	80.04
884.122	-67.41
884.293	55.47
884.465	6.31
884.637	114.86
884.809	-30.55
884.98	-22.36
885.152	-24.4
885.324	82.09
885.496	32.94
885.667	-57.17
885.839	-10.07
886.011	143.53
886.182	-18.26
886.354	14.51
886.525	61.61
886.697	59.56
886.869	-59.22
887.04	37.03
887.212	106.67
887.383	114.86
887.555	45.23
887.726	-30.55
887.897	49.32
888.069	77.99
888.24	98.47
888.412	-44.88
888.583	-44.88
888.754	69.8
888.926	-5.97
889.097	20.65
889.268	-30.55
889.44	34.99
889.611	-91.99
889.782	-106.32
889.953	22.7
890.125	45.23
890.296	-69.46
890.467	-67.41
890.638	-14.17
890.809	34.99
890.98	2.22
891.151	94.38
891.323	69.8
891.494	12.46
891.665	55.47
891.836	-20.31
892.007	2.22
892.178	4.27
892.349	34.99
892.52	-63.32
892.691	41.13
892.862	0.17
893.032	-89.94
893.203	-34.64
893.374	34.99
893.545	75.95
893.716	16.55
893.887	155.82
894.057	-63.32
894.228	75.95
894.399	-30.55
894.57	149.67
894.74	18.6
894.911	75.95
895.082	-22.36
895.253	-32.6
895.423	-20.31
895.594	137.38
895.764	-20.31
895.935	-67.41
896.106	51.37
896.276	-53.08
896.447	57.51
896.617	-20.31
896.788	-36.69
896.958	10.41
897.129	-32.6
897.299	-5.97
897.47	123.05
897.64	106.67
897.81	-5.97
897.981	-5.97
898.151	-77.65
898.322	12.46
898.492	43.18
898.662	-75.6
898.832	-20.31
899.003	37.03
899.173	127.14
899.343	-85.84
899.513	-57.17
