Data from USB4F104151__39__11-26-32-493.txt Node

Date: Wed Feb 26 11:26:32 EST 2025
User: louis
Spectrometer: USB4F10415
Trigger mode: 4
Integration Time (sec): 1.000000E-1
Scans to average: 1
Electric dark correction enabled: true
Nonlinearity correction enabled: false
Boxcar width: 0
XAxis mode: Wavelengths
Number of Pixels in Spectrum: 3648
>>>>>Begin Spectral Data<<<<<
178.204	-401.57
178.424	-401.57
178.644	-401.57
178.864	-399.52
179.084	-354.47
179.304	-34.99
179.524	8.02
179.744	-10.41
179.964	-16.55
180.184	12.12
180.404	63.32
180.624	-30.89
180.844	8.02
181.064	-20.65
181.283	18.26
181.503	-6.31
181.723	10.07
181.943	-20.65
182.163	124.76
182.383	-8.36
182.602	85.84
182.822	243.54
183.042	73.56
183.262	-55.47
183.482	28.5
183.701	34.64
183.921	-12.46
184.141	-65.71
184.361	87.89
184.58	20.31
184.8	14.17
185.02	-2.22
185.239	-18.6
185.459	110.42
185.679	96.08
185.898	-75.95
186.118	42.84
186.338	79.7
186.557	53.08
186.777	-53.42
186.997	-32.94
187.216	-6.31
187.436	116.56
187.655	63.32
187.875	79.7
188.095	8.02
188.314	151.38
188.534	130.9
188.753	-8.36
188.973	100.18
189.192	247.63
189.412	-24.75
189.631	8.02
189.851	79.7
190.07	141.14
190.29	-10.41
190.509	-8.36
190.729	12.12
190.948	159.57
191.168	253.78
191.387	53.08
191.607	-10.41
191.826	57.17
192.045	14.17
192.265	20.31
192.484	3.93
192.704	36.69
192.923	38.74
193.142	180.05
193.362	57.17
193.581	192.34
193.8	108.37
194.02	57.17
194.239	28.5
194.458	73.56
194.678	30.55
194.897	-22.7
195.116	1.88
195.335	100.18
195.555	30.55
195.774	-24.75
195.993	53.08
196.212	44.88
196.432	106.32
196.651	-14.51
196.87	20.31
197.089	196.43
197.308	139.09
197.528	98.13
197.747	-116.9
197.966	20.31
198.185	122.71
198.404	-94.38
198.623	128.85
198.842	112.47
199.062	73.56
199.281	81.75
199.5	77.65
199.719	16.21
199.938	-26.79
200.157	59.22
200.376	48.98
200.595	102.23
200.814	36.69
201.033	73.56
201.252	165.71
201.471	32.6
201.69	102.23
201.909	12.12
202.128	141.14
202.347	110.42
202.566	22.36
202.785	-51.37
203.004	-32.94
203.223	255.83
203.442	61.27
203.661	-98.47
203.879	83.8
204.098	151.38
204.317	18.26
204.536	44.88
204.755	3.93
204.974	98.13
205.193	-12.46
205.411	77.65
205.63	102.23
205.849	57.17
206.068	-8.36
206.287	-88.23
206.505	130.9
206.724	63.32
206.943	-8.36
207.162	-73.9
207.381	65.36
207.599	-4.27
207.818	42.84
208.037	-45.23
208.255	75.6
208.474	87.89
208.693	96.08
208.911	-16.55
209.13	89.94
209.349	30.55
209.567	102.23
209.786	114.52
210.005	85.84
210.223	28.5
210.442	-47.27
210.661	81.75
210.879	10.07
211.098	89.94
211.316	53.08
211.535	85.84
211.753	36.69
211.972	26.45
212.191	-37.03
212.409	69.46
212.628	83.8
212.846	36.69
213.065	51.03
213.283	135
213.502	30.55
213.72	5.97
213.938	-59.56
214.157	38.74
214.375	81.75
214.594	24.4
214.812	89.94
215.031	-34.99
215.249	55.12
215.467	12.12
215.686	-4.27
215.904	69.46
216.122	112.47
216.341	96.08
216.559	96.08
216.778	173.91
216.996	122.71
217.214	-24.75
217.432	8.02
217.651	12.12
217.869	100.18
218.087	-32.94
218.306	22.36
218.524	20.31
218.742	8.02
218.96	20.31
219.179	18.26
219.397	44.88
219.615	221.01
219.833	126.8
220.051	-22.7
220.27	143.19
220.488	42.84
220.706	89.94
220.924	40.79
221.142	-2.22
221.36	81.75
221.578	98.13
221.796	-41.13
222.015	-22.7
222.233	85.84
222.451	212.82
222.669	-12.46
222.887	108.37
223.105	3.93
223.323	1.88
223.541	-32.94
223.759	91.99
223.977	48.98
224.195	132.95
224.413	120.66
224.631	106.32
224.849	59.22
225.067	259.92
225.285	-32.94
225.503	32.6
225.721	-49.32
225.939	77.65
226.157	18.26
226.375	163.67
226.592	-34.99
226.81	-22.7
227.028	100.18
227.246	114.52
227.464	116.56
227.682	98.13
227.9	51.03
228.117	51.03
228.335	81.75
228.553	3.93
228.771	-4.27
228.989	8.02
229.206	57.17
229.424	65.36
229.642	53.08
229.86	-20.65
230.077	180.05
230.295	83.8
230.513	98.13
230.731	79.7
230.948	116.56
231.166	178
231.384	3.93
231.601	53.08
231.819	157.52
232.037	-22.7
232.254	-6.31
232.472	14.17
232.689	59.22
232.907	114.52
233.125	69.46
233.342	-82.09
233.56	22.36
233.777	30.55
233.995	-28.84
234.213	130.9
234.43	128.85
234.648	-6.31
234.865	-51.37
235.083	8.02
235.3	112.47
235.518	120.66
235.735	96.08
235.953	67.41
236.17	26.45
236.388	28.5
236.605	75.6
236.822	108.37
237.04	98.13
237.257	61.27
237.475	-57.51
237.692	32.6
237.909	143.19
238.127	-18.6
238.344	91.99
238.562	34.64
238.779	-96.43
238.996	-37.03
239.214	-8.36
239.431	135
239.648	-34.99
239.865	24.4
240.083	61.27
240.3	-59.56
240.517	-30.89
240.735	-24.75
240.952	87.89
241.169	28.5
241.386	83.8
241.603	30.55
241.821	-47.27
242.038	44.88
242.255	100.18
242.472	-2.22
242.689	57.17
242.907	79.7
243.124	98.13
243.341	10.07
243.558	32.6
243.775	-2.22
243.992	-94.38
244.209	63.32
244.426	124.76
244.643	71.51
244.86	28.5
245.078	1.88
245.295	53.08
245.512	-18.6
245.729	34.64
245.946	32.6
246.163	98.13
246.38	38.74
246.597	85.84
246.814	22.36
247.031	30.55
247.248	81.75
247.464	102.23
247.681	34.64
247.898	24.4
248.115	73.56
248.332	-18.6
248.549	159.57
248.766	153.43
248.983	63.32
249.2	-6.31
249.417	89.94
249.633	-59.56
249.85	65.36
250.067	40.79
250.284	96.08
250.501	91.99
250.717	106.32
250.934	-65.71
251.151	-32.94
251.368	53.08
251.585	75.6
251.801	42.84
252.018	-30.89
252.235	120.66
252.451	-82.09
252.668	18.26
252.885	167.76
253.102	59.22
253.318	36.69
253.535	28.5
253.752	-75.95
253.968	61.27
254.185	-45.23
254.401	65.36
254.618	67.41
254.835	-121
255.051	53.08
255.268	77.65
255.484	67.41
255.701	30.55
255.917	69.46
256.134	22.36
256.351	98.13
256.567	-30.89
256.784	16.21
257	-77.99
257.217	77.65
257.433	89.94
257.65	77.65
257.866	155.47
258.082	-65.71
258.299	-41.13
258.515	42.84
258.732	-32.94
258.948	-12.46
259.165	69.46
259.381	-59.56
259.597	48.98
259.814	18.26
260.03	55.12
260.246	26.45
260.463	106.32
260.679	143.19
260.895	42.84
261.112	46.93
261.328	12.12
261.544	8.02
261.761	139.09
261.977	-22.7
262.193	-43.18
262.409	79.7
262.626	53.08
262.842	73.56
263.058	-55.47
263.274	102.23
263.49	106.32
263.707	40.79
263.923	118.61
264.139	-106.67
264.355	40.79
264.571	96.08
264.787	12.12
265.004	243.54
265.22	83.8
265.436	42.84
265.652	83.8
265.868	63.32
266.084	-67.75
266.3	85.84
266.516	-0.17
266.732	61.27
266.948	57.17
267.164	-14.51
267.38	38.74
267.596	81.75
267.812	212.82
268.028	122.71
268.244	44.88
268.46	71.51
268.676	28.5
268.892	40.79
269.108	53.08
269.324	-127.14
269.54	-131.24
269.756	114.52
269.972	-41.13
270.188	22.36
270.403	-112.81
270.619	44.88
270.835	118.61
271.051	32.6
271.267	-30.89
271.483	-8.36
271.698	132.95
271.914	26.45
272.13	63.32
272.346	-6.31
272.562	116.56
272.777	55.12
272.993	22.36
273.209	10.07
273.425	42.84
273.64	-28.84
273.856	65.36
274.072	-6.31
274.287	5.97
274.503	73.56
274.719	57.17
274.934	34.64
275.15	-41.13
275.366	-30.89
275.581	-106.67
275.797	91.99
276.012	102.23
276.228	85.84
276.444	67.41
276.659	79.7
276.875	-55.47
277.09	12.12
277.306	-57.51
277.521	106.32
277.737	-30.89
277.952	128.85
278.168	96.08
278.383	12.12
278.599	89.94
278.814	81.75
279.03	18.26
279.245	51.03
279.461	104.28
279.676	81.75
279.892	-82.09
280.107	-84.14
280.322	16.21
280.538	40.79
280.753	-61.61
280.969	-16.55
281.184	30.55
281.399	178
281.615	10.07
281.83	44.88
282.045	-0.17
282.26	-18.6
282.476	48.98
282.691	104.28
282.906	36.69
283.122	14.17
283.337	-77.99
283.552	98.13
283.767	-26.79
283.983	63.32
284.198	36.69
284.413	24.4
284.628	-28.84
284.843	-4.27
285.058	-2.22
285.274	10.07
285.489	-20.65
285.704	89.94
285.919	-26.79
286.134	-32.94
286.349	65.36
286.564	22.36
286.779	237.39
286.995	20.31
287.21	-43.18
287.425	151.38
287.64	1.88
287.855	71.51
288.07	-53.42
288.285	110.42
288.5	91.99
288.715	44.88
288.93	81.75
289.145	83.8
289.36	110.42
289.575	-16.55
289.79	104.28
290.004	34.64
290.219	36.69
290.434	-16.55
290.649	-65.71
290.864	-30.89
291.079	87.89
291.294	46.93
291.509	36.69
291.724	5.97
291.938	-4.27
292.153	155.47
292.368	28.5
292.583	108.37
292.798	71.51
293.012	53.08
293.227	122.71
293.442	30.55
293.657	100.18
293.871	145.24
294.086	55.12
294.301	178
294.516	118.61
294.73	57.17
294.945	-4.27
295.16	44.88
295.374	114.52
295.589	100.18
295.804	-94.38
296.018	79.7
296.233	175.95
296.447	81.75
296.662	98.13
296.877	116.56
297.091	106.32
297.306	32.6
297.52	5.97
297.735	42.84
297.949	-22.7
298.164	102.23
298.378	3.93
298.593	-69.8
298.807	3.93
299.022	116.56
299.236	163.67
299.451	-14.51
299.665	32.6
299.88	22.36
300.094	100.18
300.309	-18.6
300.523	16.21
300.737	67.41
300.952	32.6
301.166	71.51
301.381	-69.8
301.595	-8.36
301.809	26.45
302.024	10.07
302.238	-20.65
302.452	77.65
302.667	98.13
302.881	147.28
303.095	147.28
303.309	77.65
303.524	104.28
303.738	-47.27
303.952	-2.22
304.166	69.46
304.381	-88.23
304.595	139.09
304.809	-8.36
305.023	53.08
305.237	73.56
305.452	-28.84
305.666	53.08
305.88	126.8
306.094	145.24
306.308	94.04
306.522	167.76
306.736	100.18
306.95	42.84
307.164	30.55
307.379	48.98
307.593	59.22
307.807	98.13
308.021	175.95
308.235	65.36
308.449	-112.81
308.663	36.69
308.877	175.95
309.091	53.08
309.305	83.8
309.519	-102.57
309.733	143.19
309.947	-57.51
310.161	79.7
310.374	81.75
310.588	122.71
310.802	-4.27
311.016	-65.71
311.23	63.32
311.444	-41.13
311.658	48.98
311.872	126.8
312.085	102.23
312.299	100.18
312.513	139.09
312.727	1.88
312.941	-88.23
313.154	69.46
313.368	22.36
313.582	69.46
313.796	65.36
314.009	120.66
314.223	114.52
314.437	38.74
314.651	147.28
314.864	36.69
315.078	-26.79
315.292	-6.31
315.505	18.26
315.719	67.41
315.933	81.75
316.146	67.41
316.36	-43.18
316.573	85.84
316.787	98.13
317.001	34.64
317.214	-57.51
317.428	44.88
317.641	-77.99
317.855	-2.22
318.068	3.93
318.282	22.36
318.495	188.24
318.709	118.61
318.922	-2.22
319.136	171.86
319.349	145.24
319.563	20.31
319.776	34.64
319.99	-55.47
320.203	126.8
320.417	59.22
320.63	67.41
320.843	231.25
321.057	67.41
321.27	30.55
321.483	100.18
321.697	194.39
321.91	32.6
322.124	65.36
322.337	65.36
322.55	-73.9
322.763	65.36
322.977	40.79
323.19	12.12
323.403	44.88
323.617	32.6
323.83	157.52
324.043	-0.17
324.256	18.26
324.469	8.02
324.683	120.66
324.896	36.69
325.109	59.22
325.322	-49.32
325.535	69.46
325.748	71.51
325.962	87.89
326.175	44.88
326.388	67.41
326.601	237.39
326.814	32.6
327.027	69.46
327.24	159.57
327.453	-32.94
327.666	98.13
327.879	67.41
328.092	73.56
328.305	26.45
328.518	-0.17
328.731	24.4
328.944	53.08
329.157	67.41
329.37	-16.55
329.583	212.82
329.796	173.91
330.009	-10.41
330.222	73.56
330.435	104.28
330.648	44.88
330.861	77.65
331.073	65.36
331.286	48.98
331.499	53.08
331.712	-82.09
331.925	1.88
332.138	44.88
332.35	161.62
332.563	-45.23
332.776	137.04
332.989	-20.65
333.202	24.4
333.414	59.22
333.627	-8.36
333.84	-8.36
334.053	55.12
334.265	-20.65
334.478	28.5
334.691	-6.31
334.903	10.07
335.116	-2.22
335.329	61.27
335.541	81.75
335.754	169.81
335.966	26.45
336.179	96.08
336.392	5.97
336.604	-32.94
336.817	91.99
337.029	24.4
337.242	12.12
337.454	61.27
337.667	38.74
337.88	178
338.092	59.22
338.305	42.84
338.517	18.26
338.729	40.79
338.942	126.8
339.154	-6.31
339.367	-6.31
339.579	28.5
339.792	-39.08
340.004	-34.99
340.217	46.93
340.429	48.98
340.641	-41.13
340.854	-22.7
341.066	-16.55
341.278	145.24
341.491	122.71
341.703	-6.31
341.915	-77.99
342.128	89.94
342.34	53.08
342.552	30.55
342.764	61.27
342.977	1.88
343.189	153.43
343.401	-16.55
343.613	-106.67
343.826	32.6
344.038	-32.94
344.25	26.45
344.462	12.12
344.674	69.46
344.886	57.17
345.099	63.32
345.311	-24.75
345.523	10.07
345.735	-100.52
345.947	53.08
346.159	-0.17
346.371	65.36
346.583	22.36
346.795	184.15
347.007	-2.22
347.219	110.42
347.431	61.27
347.643	36.69
347.855	48.98
348.067	147.28
348.279	-6.31
348.491	73.56
348.703	3.93
348.915	-26.79
349.127	34.64
349.339	44.88
349.551	22.36
349.763	116.56
349.975	96.08
350.187	143.19
350.399	169.81
350.61	94.04
350.822	-57.51
351.034	98.13
351.246	24.4
351.458	130.9
351.669	85.84
351.881	100.18
352.093	73.56
352.305	135
352.517	71.51
352.728	100.18
352.94	63.32
353.152	46.93
353.363	-22.7
353.575	20.31
353.787	51.03
353.999	12.12
354.21	34.64
354.422	55.12
354.633	44.88
354.845	67.41
355.057	22.36
355.268	48.98
355.48	143.19
355.692	-53.42
355.903	-20.65
356.115	34.64
356.326	-53.42
356.538	130.9
356.749	59.22
356.961	155.47
357.172	44.88
357.384	-8.36
357.595	153.43
357.807	-41.13
358.018	-14.51
358.23	63.32
358.441	143.19
358.653	71.51
358.864	16.21
359.075	5.97
359.287	46.93
359.498	104.28
359.709	122.71
359.921	10.07
360.132	38.74
360.344	91.99
360.555	34.64
360.766	75.6
360.977	-43.18
361.189	132.95
361.4	-24.75
361.611	-8.36
361.823	3.93
362.034	-12.46
362.245	-34.99
362.456	1.88
362.667	106.32
362.879	-37.03
363.09	16.21
363.301	-39.08
363.512	-2.22
363.723	-10.41
363.935	40.79
364.146	36.69
364.357	26.45
364.568	87.89
364.779	-82.09
364.99	149.33
365.201	-0.17
365.412	130.9
365.623	-49.32
365.834	48.98
366.045	36.69
366.256	87.89
366.467	57.17
366.678	-32.94
366.889	61.27
367.1	-67.75
367.311	81.75
367.522	10.07
367.733	104.28
367.944	16.21
368.155	-12.46
368.366	137.04
368.577	94.04
368.788	151.38
368.999	20.31
369.209	-16.55
369.42	188.24
369.631	212.82
369.842	44.88
370.053	3.93
370.264	130.9
370.474	61.27
370.685	22.36
370.896	-14.51
371.107	28.5
371.317	22.36
371.528	28.5
371.739	83.8
371.95	106.32
372.16	53.08
372.371	-59.56
372.582	28.5
372.792	34.64
373.003	-18.6
373.214	77.65
373.424	120.66
373.635	12.12
373.846	116.56
374.056	22.36
374.267	89.94
374.477	67.41
374.688	-18.6
374.898	53.08
375.109	10.07
375.319	106.32
375.53	69.46
375.74	102.23
375.951	30.55
376.161	85.84
376.372	120.66
376.582	18.26
376.793	28.5
377.003	14.17
377.214	16.21
377.424	59.22
377.635	128.85
377.845	106.32
378.055	81.75
378.266	-22.7
378.476	55.12
378.686	3.93
378.897	-0.17
379.107	139.09
379.317	73.56
379.528	18.26
379.738	14.17
379.948	-65.71
380.158	63.32
380.369	22.36
380.579	51.03
380.789	63.32
380.999	100.18
381.21	128.85
381.42	165.71
381.63	22.36
381.84	63.32
382.05	120.66
382.261	157.52
382.471	104.28
382.681	-22.7
382.891	89.94
383.101	102.23
383.311	10.07
383.521	26.45
383.731	186.19
383.941	182.1
384.151	67.41
384.361	40.79
384.571	67.41
384.781	71.51
384.991	184.15
385.201	288.59
385.411	175.95
385.621	73.56
385.831	-28.84
386.041	42.84
386.251	24.4
386.461	67.41
386.671	-26.79
386.881	135
387.091	116.56
387.301	178
387.511	20.31
387.72	53.08
387.93	104.28
388.14	-32.94
388.35	40.79
388.56	122.71
388.769	89.94
388.979	26.45
389.189	36.69
389.399	34.64
389.609	61.27
389.818	173.91
390.028	22.36
390.238	126.8
390.447	36.69
390.657	98.13
390.867	20.31
391.076	3.93
391.286	71.51
391.496	30.55
391.705	63.32
391.915	173.91
392.125	216.91
392.334	8.02
392.544	137.04
392.753	71.51
392.963	28.5
393.172	-2.22
393.382	-86.19
393.591	200.53
393.801	59.22
394.01	161.62
394.22	163.67
394.429	57.17
394.639	8.02
394.848	-16.55
395.058	85.84
395.267	44.88
395.477	79.7
395.686	73.56
395.895	161.62
396.105	145.24
396.314	26.45
396.524	51.03
396.733	108.37
396.942	106.32
397.152	85.84
397.361	57.17
397.57	65.36
397.78	79.7
397.989	73.56
398.198	270.16
398.407	100.18
398.617	112.47
398.826	44.88
399.035	-24.75
399.244	87.89
399.453	139.09
399.663	20.31
399.872	32.6
400.081	-86.19
400.29	114.52
400.499	40.79
400.708	100.18
400.917	36.69
401.127	73.56
401.336	8.02
401.545	186.19
401.754	184.15
401.963	130.9
402.172	-37.03
402.381	63.32
402.59	-12.46
402.799	61.27
403.008	110.42
403.217	77.65
403.426	102.23
403.635	-16.55
403.844	-2.22
404.053	-16.55
404.262	63.32
404.471	218.96
404.68	32.6
404.888	22.36
405.097	30.55
405.306	1.88
405.515	132.95
405.724	104.28
405.933	163.67
406.142	96.08
406.35	110.42
406.559	48.98
406.768	83.8
406.977	155.47
407.185	79.7
407.394	110.42
407.603	-47.27
407.812	59.22
408.02	173.91
408.229	69.46
408.438	40.79
408.646	1.88
408.855	-22.7
409.064	149.33
409.272	28.5
409.481	55.12
409.69	16.21
409.898	-45.23
410.107	79.7
410.315	104.28
410.524	1.88
410.733	34.64
410.941	18.26
411.15	180.05
411.358	110.42
411.567	79.7
411.775	44.88
411.984	44.88
412.192	106.32
412.401	51.03
412.609	245.59
412.818	194.39
413.026	69.46
413.234	1.88
413.443	51.03
413.651	22.36
413.86	36.69
414.068	87.89
414.276	135
414.485	22.36
414.693	118.61
414.901	81.75
415.11	116.56
415.318	48.98
415.526	116.56
415.734	61.27
415.943	85.84
416.151	163.67
416.359	55.12
416.567	36.69
416.776	223.06
416.984	116.56
417.192	151.38
417.4	20.31
417.608	-47.27
417.817	10.07
418.025	51.03
418.233	249.68
418.441	-53.42
418.649	-34.99
418.857	106.32
419.065	145.24
419.273	12.12
419.481	-0.17
419.689	-2.22
419.897	-6.31
420.105	-28.84
420.313	206.67
420.521	180.05
420.729	122.71
420.937	20.31
421.145	5.97
421.353	108.37
421.561	200.53
421.769	128.85
421.977	22.36
422.185	122.71
422.393	55.12
422.601	87.89
422.809	-26.79
423.017	55.12
423.224	139.09
423.432	171.86
423.64	36.69
423.848	223.06
424.056	-16.55
424.263	182.1
424.471	26.45
424.679	63.32
424.887	-14.51
425.094	30.55
425.302	100.18
425.51	28.5
425.718	94.04
425.925	110.42
426.133	-34.99
426.341	173.91
426.548	1.88
426.756	69.46
426.964	102.23
427.171	71.51
427.379	83.8
427.586	79.7
427.794	85.84
428.001	122.71
428.209	118.61
428.417	141.14
428.624	202.58
428.832	175.95
429.039	145.24
429.247	139.09
429.454	102.23
429.662	225.11
429.869	61.27
430.076	137.04
430.284	218.96
430.491	218.96
430.699	139.09
430.906	241.49
431.114	188.24
431.321	223.06
431.528	116.56
431.736	114.52
431.943	210.77
432.15	196.43
432.358	233.3
432.565	302.93
432.772	108.37
432.979	214.87
433.187	161.62
433.394	221.01
433.601	200.53
433.808	302.93
434.016	212.82
434.223	249.68
434.43	278.35
434.637	253.78
434.844	311.12
435.052	235.35
435.259	268.11
435.466	274.26
435.673	235.35
435.88	329.55
436.087	358.22
436.294	413.52
436.501	419.66
436.708	186.19
436.915	282.45
437.122	423.76
437.329	261.97
437.537	388.94
437.743	364.37
437.95	481.1
438.157	339.79
438.364	388.94
438.571	460.62
438.778	444.24
438.985	515.92
439.192	491.34
439.399	468.81
439.606	454.48
439.813	558.92
440.02	571.21
440.227	651.08
440.433	626.51
440.64	563.02
440.847	509.77
441.054	599.88
441.261	687.95
441.467	665.42
441.674	737.1
441.881	767.82
442.088	745.29
442.294	720.71
442.501	878.41
442.708	991.05
442.914	978.76
443.121	956.23
443.328	923.46
443.534	1036.1
443.741	905.03
443.948	859.98
444.154	1034.05
444.361	1290.05
444.568	1201.99
444.774	1199.94
444.981	1099.59
445.187	1271.62
445.394	1300.29
445.6	1376.06
445.807	1474.37
446.013	1318.72
446.22	1283.91
446.426	1486.65
446.633	1593.15
446.839	1814.33
447.046	1584.96
447.252	1826.62
447.459	1775.42
447.665	1789.75
447.871	1959.74
448.078	2031.41
448.284	2105.14
448.491	2203.44
448.697	2443.06
448.903	2406.19
449.11	2432.82
449.316	2434.86
449.522	2531.12
449.728	2719.53
449.935	2770.73
450.141	2787.11
450.347	2950.95
450.553	2928.42
450.76	2975.53
450.966	3223.33
451.172	3217.19
451.378	3319.59
451.584	3514.14
451.791	3698.46
451.997	3802.91
452.203	3940.12
452.409	4255.51
452.615	4194.07
452.821	4175.64
453.027	4290.32
453.233	4697.87
453.44	4720.4
453.646	5115.66
453.852	5068.55
454.058	5107.46
454.264	5431.04
454.47	5922.55
454.676	5670.65
454.882	6371.06
455.088	6043.39
455.294	6385.4
455.5	6926.06
455.705	7184.1
455.911	7345.89
456.117	7548.64
456.323	7737.06
456.529	7581.41
456.735	8310.49
456.941	8494.8
457.147	8957.64
457.352	9203.4
457.558	9393.86
457.764	9973.44
457.97	10258.1
458.176	10591.92
458.381	11038.38
458.587	11447.97
458.793	11796.13
458.999	12033.69
459.204	13217.42
459.41	13889.15
459.616	13850.24
459.821	14407.29
460.027	15365.74
460.233	15697.51
460.438	15840.87
460.644	16852.56
460.85	16797.27
461.055	17407.56
461.261	18544.19
461.466	17808.97
461.672	18617.91
461.878	20827.67
462.083	20149.79
462.289	20788.76
462.494	21472.78
462.7	21642.76
462.905	22134.28
463.111	23913.96
463.316	25146.84
463.522	25456.08
463.727	26099.14
463.932	27334.07
464.138	28114.34
464.343	29033.88
464.549	29472.15
464.754	31552.88
464.959	32218.47
465.165	32830.82
465.37	32761.19
465.575	32699.75
465.781	34897.22
465.986	35673.4
466.191	35337.53
466.397	35415.35
466.602	34868.55
466.807	36656.42
467.012	37600.54
467.218	37952.79
467.423	38165.77
467.628	39501.05
467.833	41116.9
468.038	40629.48
468.244	39832.82
468.449	41856.21
468.654	41317.6
468.859	40772.84
469.064	40824.04
469.269	40211.7
469.474	40457.45
469.679	41637.08
469.885	40514.8
470.09	41272.54
470.295	41424.09
470.5	40183.02
470.705	40586.47
470.91	39597.31
471.115	39243.01
471.32	39443.71
471.525	39617.78
471.73	38157.58
471.935	38337.8
472.139	36719.91
472.344	36693.29
472.549	37004.58
472.754	35691.83
472.959	35099.97
473.164	34051.41
473.369	33471.83
473.574	34444.62
473.778	33719.63
473.983	33191.26
474.188	32562.53
474.393	31063.42
474.598	30930.3
474.802	30455.17
475.007	30297.48
475.212	29810.06
475.417	28179.88
475.621	27934.12
475.826	28085.67
476.031	27301.3
476.235	26695.1
476.44	26719.68
476.645	25789.9
476.849	26105.29
477.054	25294.29
477.259	24659.42
477.463	24442.34
477.668	24112.61
477.872	24010.21
478.077	23332.34
478.282	22492.67
478.486	22404.61
478.691	22384.13
478.895	22107.65
479.1	21650.95
479.304	21784.07
479.509	21151.25
479.713	21403.15
479.918	21005.84
480.122	20194.85
480.326	20549.15
480.531	20403.74
480.735	19981.86
480.94	19963.43
481.144	20162.08
481.348	19410.48
481.553	19344.94
481.757	18679.35
481.961	19045.94
482.166	19226.16
482.37	19050.03
482.574	18595.39
482.778	18775.61
482.983	18986.55
483.187	18222.66
483.391	18191.94
483.595	18028.1
483.8	17725
484.004	17851.97
484.208	17831.49
484.412	17329.74
484.616	17155.66
484.821	17196.62
485.025	16473.69
485.229	17083.98
485.433	16514.65
485.637	16229.98
485.841	15871.59
486.045	15703.65
486.249	15826.53
486.453	15302.25
486.657	15332.97
486.861	15044.21
487.065	14466.68
487.269	14712.44
487.473	13971.07
487.677	14237.31
487.881	14169.73
488.085	13704.84
488.289	13471.37
488.493	13233.8
488.697	13031.05
488.901	12910.22
489.105	12367.51
489.309	12508.82
489.512	12228.25
489.716	12119.71
489.92	11503.27
490.124	11574.95
490.328	11423.4
490.531	10952.37
490.735	11046.57
490.939	10823.34
491.143	10444.47
491.346	10282.68
491.55	10196.67
491.754	10045.12
491.958	9924.29
492.161	9676.48
492.365	9629.38
492.569	9369.29
492.772	9115.34
492.976	9125.58
493.18	9043.66
493.383	9086.67
493.587	8742.61
493.79	8720.08
493.994	8396.5
494.197	8478.42
494.401	8238.81
494.605	8099.55
494.808	8277.72
495.012	8287.96
495.215	8091.35
495.419	7915.23
495.622	7995.1
495.825	7909.08
496.029	7685.86
496.232	7927.52
496.436	7706.34
496.639	8036.06
496.843	7771.87
497.046	7714.53
497.249	7569.12
497.453	7786.21
497.656	7599.84
497.859	7675.62
498.063	7702.24
498.266	7700.19
498.469	7483.11
498.673	7651.04
498.876	7761.63
499.079	7618.27
499.282	7636.7
499.485	7984.86
499.689	7825.12
499.892	7864.03
500.095	7849.69
500.298	7978.72
500.501	7804.64
500.705	8105.69
500.908	8134.36
501.111	8183.51
501.314	8193.75
501.517	8470.23
501.72	8486.61
501.923	8236.76
502.126	8543.95
502.329	8576.72
502.532	8582.87
502.735	8531.67
502.938	8775.38
503.141	8816.33
503.344	8836.81
503.547	9225.93
503.75	9223.88
503.953	9227.98
504.156	9492.16
504.359	9508.55
504.562	9588.42
504.765	9928.38
504.968	10047.16
505.17	10112.7
505.373	10333.88
505.576	10532.53
505.779	10555.06
505.982	10673.84
506.185	10974.89
506.387	11163.31
506.59	11128.49
506.793	11513.51
506.996	11667.11
507.198	11949.73
507.401	11978.4
507.604	12254.87
507.807	12363.42
508.009	12711.57
508.212	13008.53
508.415	13332.11
508.617	13602.44
508.82	13463.18
509.022	13526.66
509.225	14151.29
509.428	14487.16
509.63	14777.97
509.833	14724.72
510.035	15455.85
510.238	15470.19
510.44	15842.92
510.643	16195.17
510.845	16647.77
511.048	17030.74
511.25	17253.97
511.453	17579.59
511.655	18218.56
511.858	18454.08
512.06	18982.45
512.262	19152.43
512.465	19637.8
512.667	20186.66
512.87	20776.47
513.072	21181.97
513.274	21857.8
513.477	21884.42
513.679	22564.35
513.881	22965.75
514.084	23442.93
514.286	24038.89
514.488	24497.63
514.69	25447.89
514.893	25679.31
515.095	26064.33
515.297	26797.5
515.499	27110.84
515.701	27823.53
515.904	28519.84
516.106	28964.25
516.308	29275.54
516.51	30363.01
516.712	30676.35
516.914	31407.48
517.116	32159.08
517.318	32613.73
517.52	32963.93
517.722	33611.09
517.925	34295.11
518.127	35278.14
518.329	36052.27
518.531	35880.24
518.733	36648.23
518.935	37608.73
519.136	37862.68
519.338	38599.94
519.54	39378.17
519.742	39623.93
519.944	40418.54
520.146	41493.72
520.348	41813.21
520.55	42292.43
520.752	42452.17
520.954	43670.71
521.155	43666.62
521.357	44117.17
521.559	44971.18
521.761	45700.25
521.963	45503.65
522.164	45929.62
522.366	46597.26
522.568	47465.6
522.77	47430.79
522.971	48102.52
523.173	47703.17
523.375	48436.34
523.576	48321.65
523.778	48768.11
523.98	49458.27
524.181	49536.1
524.383	49732.7
524.584	50111.58
524.786	49656.93
524.988	50338.9
525.189	50381.91
525.391	50639.95
525.592	51031.11
525.794	50979.92
525.995	50570.32
526.197	50705.49
526.398	50383.96
526.6	50396.24
526.801	50543.7
527.003	50224.21
527.204	50127.96
527.406	50592.85
527.607	49636.45
527.808	50420.82
528.01	48583.79
528.211	49284.2
528.412	49452.13
528.614	49091.69
528.815	48426.1
529.016	48649.33
529.218	47420.55
529.419	47711.36
529.62	47207.56
529.822	46466.19
530.023	45690.01
530.224	45804.7
530.425	45348
530.626	44672.17
530.828	43760.83
531.029	44461.23
531.23	43654.33
531.431	43164.87
531.632	42941.64
531.833	43068.61
532.035	41704.66
532.236	41473.24
532.437	41143.52
532.638	40488.17
532.839	39957.75
533.04	39898.36
533.241	38640.9
533.442	39193.86
533.643	38122.77
533.844	37625.11
534.045	37109.02
534.246	36857.12
534.447	36232.49
534.648	35845.43
534.849	35417.4
535.05	34868.55
535.251	34331.98
535.451	34078.03
535.652	33910.1
535.853	32970.08
536.054	32982.37
536.255	32259.43
536.456	31528.31
536.657	31278.46
536.857	30485.89
537.058	30008.72
537.259	30385.54
537.46	29343.13
537.66	29078.94
537.861	29040.03
538.062	28337.57
538.263	28145.06
538.463	27735.47
538.664	27493.81
538.865	27071.93
539.065	27020.73
539.266	26162.63
539.466	26375.62
539.667	25691.6
539.868	26076.62
540.068	25304.53
540.269	25028.06
540.469	24638.94
540.67	24360.42
540.87	24210.92
541.071	23916.01
541.271	23397.87
541.472	23293.43
541.672	22982.13
541.873	22582.78
542.073	22144.52
542.274	22371.84
542.474	21798.41
542.675	21474.83
542.875	21577.23
543.075	21243.41
543.276	20983.32
543.476	20940.31
543.676	20358.69
543.877	20309.54
544.077	20108.83
544.277	19951.14
544.478	19879.46
544.678	19437.1
544.878	19136.05
545.078	19314.22
545.279	18525.75
545.479	18492.99
545.679	18464.32
545.879	18056.77
546.079	17882.69
546.28	17346.12
546.48	17395.28
546.68	17206.86
546.88	17020.5
547.08	17051.22
547.28	16629.34
547.48	16426.59
547.68	16262.75
547.88	15883.87
548.081	16168.54
548.281	15763.04
548.481	15576.68
548.681	15279.72
548.881	15126.13
549.081	14915.19
549.28	14595.7
549.48	14417.53
549.68	14487.16
549.88	14268.03
550.08	13917.82
550.28	13651.59
550.48	13670.02
550.68	13491.85
550.88	13094.54
551.08	13057.68
551.279	13131.4
551.479	12633.75
551.679	12517.01
551.879	12177.05
552.079	12113.56
552.278	12076.7
552.478	11974.3
552.678	11597.48
552.878	11503.27
553.077	11224.75
553.277	10976.94
553.477	10995.37
553.676	10870.45
553.876	10663.6
554.076	10327.74
554.275	10479.29
554.475	10108.6
554.674	10114.75
554.874	9963.2
555.074	9582.28
555.273	9658.05
555.473	9479.88
555.672	9295.56
555.872	9133.77
556.071	8955.6
556.271	8836.81
556.47	8722.13
556.67	8302.29
556.869	8388.31
557.068	8376.02
557.268	8081.11
557.467	7991
557.667	7868.13
557.866	7743.2
558.065	7552.74
558.265	7413.48
558.464	7073.51
558.663	7251.69
558.863	7048.94
559.062	7081.71
559.261	6733.55
559.461	6967.02
559.66	6635.25
559.859	6485.75
560.058	6364.92
560.258	6393.59
560.457	6215.41
560.656	6096.63
560.855	5824.25
561.054	6196.98
561.253	5871.36
561.453	5787.39
561.652	5613.31
561.851	5699.33
562.05	5502.72
562.249	5353.22
562.448	5310.21
562.647	5117.7
562.846	5123.85
563.045	5230.34
563.244	5062.41
563.443	4894.47
563.642	4638.48
563.841	4685.58
564.04	4687.63
564.239	4587.28
564.438	4513.55
564.637	4407.06
564.836	4405.01
565.035	4405.01
565.234	4263.7
565.432	4374.29
565.631	4275.99
565.83	4073.24
566.029	4056.86
566.228	3962.65
566.427	3882.78
566.625	3729.18
566.824	3997.46
567.023	3970.84
567.222	3682.08
567.42	3690.27
567.619	3655.45
567.818	3467.04
568.016	3680.03
568.215	3456.8
568.414	3428.13
568.612	3301.15
568.811	3444.51
569.01	3219.24
569.208	3112.74
569.407	3239.72
569.605	3151.65
569.804	3082.02
570.002	3129.13
570.201	2993.96
570.4	3028.78
570.598	2961.19
570.797	2891.56
570.995	2748.2
571.193	2672.43
571.392	2731.82
571.59	2703.15
571.789	2778.92
571.987	2705.2
572.186	2697
572.384	2516.78
572.582	2354.99
572.781	2567.98
572.979	2375.47
573.177	2305.84
573.376	2236.21
573.574	2309.94
573.772	2230.07
573.971	2230.07
574.169	2068.28
574.367	2133.81
574.565	2185.01
574.763	2099
574.962	2090.81
575.16	2000.69
575.358	1859.38
575.556	1967.93
575.754	1933.11
575.952	1929.02
576.151	1890.1
576.349	1793.85
576.547	1638.2
576.745	1781.56
576.943	1824.57
577.141	1750.84
577.339	1763.13
577.537	1734.46
577.735	1695.55
577.933	1781.56
578.131	1587.01
578.329	1650.49
578.527	1572.67
578.725	1638.2
578.923	1447.74
579.121	1498.94
579.319	1412.93
579.516	1412.93
579.714	1601.34
579.912	1449.79
580.11	1349.44
580.308	1259.33
580.506	1374.02
580.704	1267.52
580.901	1236.8
581.099	1337.15
581.297	1191.75
581.495	1259.33
581.692	1158.98
581.89	1304.39
582.088	1294.15
582.285	1025.86
582.483	1093.44
582.681	1105.73
582.878	1165.12
583.076	1156.93
583.274	1128.26
583.471	1220.42
583.669	1050.44
583.866	991.05
584.064	997.19
584.262	892.74
584.459	923.46
584.657	1128.26
584.854	921.42
585.052	1009.48
585.249	958.28
585.447	978.76
585.644	784.2
585.841	1070.92
586.039	945.99
586.236	945.99
586.434	802.63
586.631	839.5
586.828	798.54
587.026	898.89
587.223	796.49
587.42	730.95
587.618	843.59
587.815	915.27
588.012	773.96
588.21	759.63
588.407	907.08
588.604	792.39
588.801	642.89
588.999	743.24
589.196	794.44
589.393	618.32
589.59	724.81
589.787	765.77
589.984	733
590.182	722.76
590.379	612.17
590.576	694.09
590.773	698.19
590.97	667.47
591.167	823.11
591.364	776.01
591.561	583.5
591.758	855.88
591.955	747.34
592.152	685.9
592.349	581.45
592.546	595.79
592.743	675.66
592.94	671.56
593.137	753.48
593.334	679.75
593.531	692.04
593.727	657.23
593.924	694.09
594.121	696.14
594.318	747.34
594.515	757.58
594.712	800.59
594.908	739.15
595.105	536.4
595.302	755.53
595.499	724.81
595.696	864.07
595.892	741.19
596.089	802.63
596.286	790.35
596.482	931.66
596.679	833.35
596.876	833.35
597.072	925.51
597.269	825.16
597.466	864.07
597.662	862.02
597.859	890.7
598.055	993.09
598.252	1060.68
598.448	1013.57
598.645	1242.95
598.841	1165.12
599.038	1230.66
599.234	1298.24
599.431	1271.62
599.627	1341.25
599.824	1304.39
600.02	1384.26
600.217	1392.45
600.413	1529.66
600.609	1519.42
600.806	1857.34
601.002	1640.25
601.198	1648.44
601.395	1847.1
601.591	1947.45
601.787	1787.71
601.984	2027.32
602.18	2047.8
602.376	2195.25
602.572	2293.55
602.769	2445.1
602.965	2311.99
603.161	2445.1
603.357	2563.89
603.553	2803.5
603.75	2672.43
603.946	2793.26
604.142	2879.27
604.338	3094.31
604.534	3125.03
604.73	3086.12
604.926	3268.39
605.122	3460.9
605.318	3522.34
605.514	3725.08
605.71	3675.93
605.906	4011.8
606.102	3948.31
606.298	4204.31
606.494	4120.34
606.69	4407.06
606.886	4476.69
607.082	4519.7
607.278	4712.21
607.474	4814.6
607.67	5148.42
607.866	5009.16
608.062	5248.77
608.257	5381.89
608.453	5457.67
608.649	5846.78
608.845	5783.29
609.041	6063.86
609.236	6227.7
609.432	6502.13
609.628	6653.68
609.824	6827.76
610.019	6764.27
610.215	7042.79
610.411	7366.37
610.606	7696.1
610.802	7657.18
610.998	7866.08
611.193	8136.41
611.389	8101.59
611.584	8531.67
611.78	8564.43
611.976	8894.16
612.171	9207.5
612.367	9492.16
612.562	9717.44
612.758	9891.52
612.953	10071.74
613.149	10491.57
613.344	10522.29
613.539	11163.31
613.735	11292.33
613.93	11515.56
614.126	11808.42
614.321	12299.93
614.517	12535.45
614.712	12625.56
614.907	13065.87
615.103	13293.19
615.298	13635.21
615.493	14220.92
615.688	14149.25
615.884	14984.82
616.079	14968.43
616.274	15660.65
616.47	15715.94
616.665	16260.7
616.86	16571.99
617.055	17368.65
617.25	17567.31
617.445	18028.1
617.641	18513.47
617.836	18914.87
618.031	19197.49
618.226	19713.58
618.421	20418.08
618.616	20794.9
618.811	20823.58
619.006	21990.92
619.201	21902.86
619.396	22554.11
619.591	22840.82
619.786	23698.92
619.981	23873
620.176	24755.68
620.371	24767.96
620.566	25368.02
620.761	26219.97
620.956	26734.01
621.151	26918.33
621.346	27739.57
621.541	28042.67
621.735	29238.68
621.93	28980.64
622.125	29656.46
622.32	29906.32
622.515	30926.21
622.709	31350.13
622.904	32195.95
623.099	32550.24
623.294	33000.8
623.488	33396.06
623.683	34354.51
623.878	34473.29
624.072	35177.79
624.267	36099.37
624.462	36336.94
624.656	36715.81
624.851	37508.38
625.046	37774.61
625.24	38339.85
625.435	38622.47
625.629	39329.02
625.824	39720.18
626.018	40502.51
626.213	40355.05
626.407	41555.16
626.602	41364.7
626.796	42351.82
626.991	42540.24
627.185	43005.13
627.38	42976.45
627.574	43467.97
627.768	43906.23
627.963	43744.44
628.157	43705.53
628.352	44614.83
628.546	43979.96
628.74	44528.81
628.935	43990.2
629.129	44467.37
629.323	44094.64
629.517	43904.18
629.712	43484.35
629.906	43785.4
630.1	43052.23
630.294	42867.91
630.489	41864.41
630.683	42101.97
630.877	40781.03
631.071	40215.79
631.265	40041.71
631.459	39093.5
631.653	38411.53
631.848	37745.94
632.042	36683.05
632.236	35902.77
632.43	34653.51
632.624	34358.6
632.818	32898.4
633.012	31923.57
633.206	31036.8
633.4	30311.81
633.594	29048.22
633.788	28423.59
633.982	27375.03
634.176	26445.25
634.369	25208.28
634.563	24647.13
634.757	23447.02
634.951	22803.96
635.145	21913.09
635.339	20885.01
635.533	20026.92
635.726	19635.75
635.92	18456.12
636.114	17704.52
636.308	17167.95
636.501	16584.28
636.695	15795.81
636.889	15189.61
637.083	14499.45
637.276	13905.54
637.47	13414.02
637.664	12828.31
637.857	12439.19
638.051	11904.67
638.244	11273.9
638.438	10796.72
638.632	10618.55
638.825	10043.07
639.019	9627.33
639.212	9160.39
639.406	8885.97
639.599	8527.57
639.793	8150.74
639.986	7880.41
640.18	7630.56
640.373	7331.56
640.567	6930.16
640.76	6842.09
640.954	6469.36
641.147	6143.74
641.34	6018.81
641.534	5762.81
641.727	5695.23
641.92	5267.2
642.114	5213.96
642.307	5015.3
642.5	4884.23
642.694	4611.85
642.887	4349.71
643.08	4337.43
643.273	4136.73
643.467	3903.26
643.66	3698.46
643.853	3637.02
644.046	3456.8
644.239	3381.03
644.432	3239.72
644.626	3036.97
644.819	2969.38
645.012	2963.24
645.205	2864.94
645.398	2690.86
645.591	2529.07
645.784	2365.23
645.977	2361.14
646.17	2301.75
646.363	2244.4
646.556	2053.94
646.749	1949.5
646.942	1996.6
647.135	1824.57
647.328	1816.38
647.521	1767.23
647.714	1609.53
647.907	1705.79
648.099	1474.37
648.292	1611.58
648.485	1466.17
648.678	1365.82
648.871	1273.67
649.064	1253.19
649.256	1165.12
649.449	1163.08
649.642	1083.2
649.835	1095.49
650.027	982.85
650.22	1087.3
650.413	1032.01
650.605	1009.48
650.798	864.07
650.991	804.68
651.183	898.89
651.376	927.56
651.568	853.83
651.761	735.05
651.954	864.07
652.146	765.77
652.339	757.58
652.531	833.35
652.724	642.89
652.916	681.8
653.109	544.59
653.301	665.42
653.494	616.27
653.686	657.23
653.879	712.52
654.071	640.84
654.263	509.77
654.456	417.61
654.648	589.64
654.84	552.78
655.033	397.14
655.225	515.92
655.417	386.9
655.61	565.07
655.802	405.33
655.994	487.25
656.186	384.85
656.379	370.51
656.571	405.33
656.763	327.5
656.955	386.9
657.148	380.75
657.34	423.76
657.532	376.66
657.724	364.37
657.916	384.85
658.108	358.22
658.3	368.46
658.492	378.7
658.684	196.43
658.876	388.94
659.068	229.2
659.26	253.78
659.452	272.21
659.644	229.2
659.836	405.33
660.028	335.7
660.22	323.41
660.412	245.59
660.604	225.11
660.796	323.41
660.988	352.08
661.18	274.26
661.372	292.69
661.563	214.87
661.755	261.97
661.947	225.11
662.139	114.52
662.331	249.68
662.522	132.95
662.714	175.95
662.906	186.19
663.097	255.83
663.289	77.65
663.481	102.23
663.673	210.77
663.864	83.8
664.056	284.5
664.247	85.84
664.439	212.82
664.631	167.76
664.822	311.12
665.014	46.93
665.205	81.75
665.397	116.56
665.588	214.87
665.78	124.76
665.971	196.43
666.163	169.81
666.354	143.19
666.546	44.88
666.737	212.82
666.929	139.09
667.12	128.85
667.311	247.63
667.503	130.9
667.694	186.19
667.885	214.87
668.077	247.63
668.268	8.02
668.459	116.56
668.651	102.23
668.842	204.63
669.033	110.42
669.224	104.28
669.416	341.84
669.607	175.95
669.798	122.71
669.989	264.02
670.18	116.56
670.371	253.78
670.563	94.04
670.754	227.15
670.945	139.09
671.136	225.11
671.327	102.23
671.518	221.01
671.709	212.82
671.9	180.05
672.091	237.39
672.282	180.05
672.473	147.28
672.664	94.04
672.855	139.09
673.046	178
673.237	280.4
673.428	190.29
673.619	253.78
673.809	108.37
674	280.4
674.191	223.06
674.382	198.48
674.573	159.57
674.764	198.48
674.954	266.07
675.145	114.52
675.336	141.14
675.527	104.28
675.717	106.32
675.908	178
676.099	139.09
676.289	171.86
676.48	130.9
676.671	239.44
676.861	102.23
677.052	223.06
677.243	137.04
677.433	110.42
677.624	192.34
677.814	261.97
678.005	118.61
678.195	327.5
678.386	71.51
678.576	233.3
678.767	69.46
678.957	233.3
679.148	282.45
679.338	331.6
679.529	251.73
679.719	276.31
679.909	247.63
680.1	253.78
680.29	249.68
680.481	110.42
680.671	253.78
680.861	337.74
681.052	329.55
681.242	198.48
681.432	253.78
681.622	231.25
681.813	216.91
682.003	276.31
682.193	130.9
682.383	284.5
682.573	194.39
682.764	208.72
682.954	257.87
683.144	294.74
683.334	247.63
683.524	315.22
683.714	296.78
683.904	231.25
684.094	286.54
684.284	286.54
684.474	358.22
684.664	259.92
684.854	298.83
685.044	245.59
685.234	216.91
685.424	233.3
685.614	204.63
685.804	364.37
685.994	292.69
686.184	227.15
686.374	282.45
686.564	278.35
686.753	268.11
686.943	231.25
687.133	266.07
687.323	214.87
687.513	284.5
687.702	302.93
687.892	229.2
688.082	347.98
688.272	331.6
688.461	247.63
688.651	388.94
688.841	286.54
689.03	235.35
689.22	194.39
689.41	331.6
689.599	261.97
689.789	216.91
689.979	374.61
690.168	280.4
690.358	302.93
690.547	180.05
690.737	274.26
690.926	247.63
691.116	358.22
691.305	364.37
691.495	247.63
691.684	221.01
691.874	216.91
692.063	280.4
692.252	278.35
692.442	290.64
692.631	251.73
692.82	175.95
693.01	337.74
693.199	175.95
693.388	311.12
693.578	300.88
693.767	339.79
693.956	280.4
694.146	282.45
694.335	237.39
694.524	196.43
694.713	304.98
694.902	180.05
695.092	198.48
695.281	245.59
695.47	200.53
695.659	231.25
695.848	309.07
696.037	149.33
696.226	333.65
696.415	178
696.604	409.42
696.793	227.15
696.982	237.39
697.171	405.33
697.36	218.96
697.549	229.2
697.738	106.32
697.927	169.81
698.116	173.91
698.305	290.64
698.494	268.11
698.683	268.11
698.872	352.08
699.061	210.77
699.25	251.73
699.438	247.63
699.627	231.25
699.816	368.46
700.005	151.38
700.193	153.43
700.382	364.37
700.571	255.83
700.76	296.78
700.948	382.8
701.137	186.19
701.326	255.83
701.514	292.69
701.703	300.88
701.892	190.29
702.08	393.04
702.269	182.1
702.457	171.86
702.646	251.73
702.834	229.2
703.023	227.15
703.212	345.94
703.4	202.58
703.589	233.3
703.777	184.15
703.965	216.91
704.154	200.53
704.342	175.95
704.531	278.35
704.719	241.49
704.907	335.7
705.096	169.81
705.284	139.09
705.472	165.71
705.661	212.82
705.849	315.22
706.037	298.83
706.226	319.31
706.414	200.53
706.602	239.44
706.79	286.54
706.979	124.76
707.167	239.44
707.355	208.72
707.543	296.78
707.731	296.78
707.919	362.32
708.107	178
708.296	204.63
708.484	198.48
708.672	276.31
708.86	347.98
709.048	214.87
709.236	167.76
709.424	261.97
709.612	245.59
709.8	104.28
709.988	251.73
710.176	284.5
710.364	327.5
710.551	202.58
710.739	247.63
710.927	184.15
711.115	208.72
711.303	319.31
711.491	354.13
711.679	194.39
711.866	259.92
712.054	286.54
712.242	237.39
712.43	294.74
712.617	169.81
712.805	227.15
712.993	272.21
713.181	141.14
713.368	288.59
713.556	225.11
713.744	257.87
713.931	407.38
714.119	270.16
714.306	231.25
714.494	208.72
714.682	253.78
714.869	223.06
715.057	239.44
715.244	173.91
715.432	311.12
715.619	233.3
715.807	108.37
715.994	233.3
716.182	241.49
716.369	304.98
716.556	329.55
716.744	163.67
716.931	137.04
717.119	270.16
717.306	290.64
717.493	257.87
717.681	145.24
717.868	239.44
718.055	298.83
718.242	249.68
718.43	266.07
718.617	292.69
718.804	247.63
718.991	290.64
719.179	339.79
719.366	339.79
719.553	302.93
719.74	231.25
719.927	227.15
720.114	204.63
720.301	245.59
720.488	221.01
720.676	182.1
720.863	354.13
721.05	458.57
721.237	319.31
721.424	352.08
721.611	421.71
721.798	192.34
721.985	302.93
722.172	198.48
722.358	270.16
722.545	335.7
722.732	356.18
722.919	352.08
723.106	366.42
723.293	323.41
723.48	321.36
723.667	163.67
723.853	382.8
724.04	339.79
724.227	399.18
724.414	307.02
724.6	290.64
724.787	456.53
724.974	460.62
725.161	284.5
725.347	212.82
725.534	335.7
725.72	321.36
725.907	362.32
726.094	364.37
726.28	261.97
726.467	255.83
726.653	257.87
726.84	507.73
727.027	536.4
727.213	274.26
727.4	382.8
727.586	358.22
727.773	364.37
727.959	323.41
728.145	237.39
728.332	372.56
728.518	251.73
728.705	255.83
728.891	350.03
729.077	362.32
729.264	237.39
729.45	343.89
729.636	380.75
729.823	382.8
730.009	366.42
730.195	360.27
730.382	358.22
730.568	298.83
730.754	386.9
730.94	417.61
731.126	360.27
731.313	382.8
731.499	311.12
731.685	401.23
731.871	378.7
732.057	278.35
732.243	395.09
732.429	425.81
732.615	462.67
732.801	350.03
732.987	284.5
733.173	438.09
733.359	288.59
733.545	366.42
733.731	393.04
733.917	425.81
734.103	345.94
734.289	438.09
734.475	259.92
734.661	431.95
734.847	384.85
735.033	319.31
735.219	407.38
735.404	331.6
735.59	257.87
735.776	311.12
735.962	325.46
736.148	446.29
736.333	413.52
736.519	311.12
736.705	356.18
736.89	319.31
737.076	434
737.262	270.16
737.447	345.94
737.633	368.46
737.819	452.43
738.004	362.32
738.19	413.52
738.375	364.37
738.561	526.16
738.747	397.14
738.932	251.73
739.118	454.48
739.303	425.81
739.489	470.86
739.674	350.03
739.859	319.31
740.045	397.14
740.23	333.65
740.416	253.78
740.601	368.46
740.786	345.94
740.972	241.49
741.157	235.35
741.342	296.78
741.528	276.31
741.713	452.43
741.898	335.7
742.084	429.9
742.269	438.09
742.454	409.42
742.639	378.7
742.824	376.66
743.01	450.38
743.195	440.14
743.38	421.71
743.565	347.98
743.75	362.32
743.935	384.85
744.12	442.19
744.305	204.63
744.49	356.18
744.675	282.45
744.86	370.51
745.045	407.38
745.23	298.83
745.415	358.22
745.6	505.68
745.785	302.93
745.97	487.25
746.155	378.7
746.34	378.7
746.525	423.76
746.71	431.95
746.895	292.69
747.079	284.5
747.264	286.54
747.449	388.94
747.634	395.09
747.819	456.53
748.003	309.07
748.188	249.68
748.373	341.84
748.557	313.17
748.742	327.5
748.927	386.9
749.111	200.53
749.296	288.59
749.481	327.5
749.665	382.8
749.85	356.18
750.034	364.37
750.219	300.88
750.404	251.73
750.588	329.55
750.773	188.24
750.957	259.92
751.141	276.31
751.326	313.17
751.51	182.1
751.695	229.2
751.879	321.36
752.064	364.37
752.248	315.22
752.432	419.66
752.617	298.83
752.801	427.85
752.985	210.77
753.17	341.84
753.354	223.06
753.538	311.12
753.722	264.02
753.907	169.81
754.091	102.23
754.275	313.17
754.459	175.95
754.643	135
754.828	307.02
755.012	261.97
755.196	194.39
755.38	266.07
755.564	261.97
755.748	272.21
755.932	284.5
756.116	233.3
756.3	204.63
756.484	221.01
756.668	309.07
756.852	192.34
757.036	235.35
757.22	212.82
757.404	229.2
757.588	180.05
757.772	317.26
757.956	159.57
758.14	307.02
758.323	169.81
758.507	251.73
758.691	255.83
758.875	202.58
759.059	286.54
759.242	114.52
759.426	274.26
759.61	223.06
759.794	182.1
759.977	276.31
760.161	452.43
760.345	368.46
760.528	272.21
760.712	196.43
760.895	200.53
761.079	284.5
761.263	36.69
761.446	128.85
761.63	239.44
761.813	311.12
761.997	192.34
762.18	180.05
762.364	272.21
762.547	-2.22
762.731	153.43
762.914	139.09
763.098	112.47
763.281	214.87
763.464	200.53
763.648	229.2
763.831	173.91
764.015	59.22
764.198	231.25
764.381	132.95
764.564	135
764.748	198.48
764.931	192.34
765.114	169.81
765.297	137.04
765.481	69.46
765.664	141.14
765.847	180.05
766.03	194.39
766.213	51.03
766.397	128.85
766.58	67.41
766.763	192.34
766.946	227.15
767.129	157.52
767.312	106.32
767.495	96.08
767.678	79.7
767.861	96.08
768.044	208.72
768.227	165.71
768.41	63.32
768.593	112.47
768.776	186.19
768.959	32.6
769.142	198.48
769.324	77.65
769.507	61.27
769.69	89.94
769.873	135
770.056	333.65
770.239	139.09
770.421	251.73
770.604	132.95
770.787	132.95
770.97	153.43
771.152	124.76
771.335	221.01
771.518	63.32
771.7	200.53
771.883	208.72
772.066	102.23
772.248	102.23
772.431	231.25
772.613	282.45
772.796	120.66
772.978	161.62
773.161	284.5
773.343	63.32
773.526	73.56
773.708	67.41
773.891	57.17
774.073	147.28
774.256	89.94
774.438	214.87
774.621	42.84
774.803	124.76
774.985	79.7
775.168	137.04
775.35	59.22
775.532	143.19
775.715	81.75
775.897	85.84
776.079	116.56
776.261	135
776.444	122.71
776.626	67.41
776.808	57.17
776.99	28.5
777.173	210.77
777.355	87.89
777.537	94.04
777.719	96.08
777.901	40.79
778.083	34.64
778.265	24.4
778.447	108.37
778.629	63.32
778.811	130.9
778.993	98.13
779.175	128.85
779.357	163.67
779.539	30.55
779.721	118.61
779.903	175.95
780.085	-10.41
780.267	112.47
780.449	118.61
780.631	139.09
780.812	157.52
780.994	59.22
781.176	40.79
781.358	40.79
781.54	5.97
781.721	137.04
781.903	188.24
782.085	18.26
782.267	145.24
782.448	20.31
782.63	-8.36
782.812	116.56
782.993	122.71
783.175	137.04
783.357	128.85
783.538	167.76
783.72	16.21
783.901	-6.31
784.083	126.8
784.264	59.22
784.446	-10.41
784.627	-90.28
784.809	110.42
784.99	-6.31
785.172	145.24
785.353	63.32
785.535	124.76
785.716	18.26
785.897	-94.38
786.079	147.28
786.26	87.89
786.441	75.6
786.623	-73.9
786.804	-8.36
786.985	36.69
787.167	61.27
787.348	75.6
787.529	-14.51
787.71	178
787.891	8.02
788.073	-10.41
788.254	-39.08
788.435	221.01
788.616	91.99
788.797	-22.7
788.978	40.79
789.159	34.64
789.34	36.69
789.522	30.55
789.703	55.12
789.884	-8.36
790.065	89.94
790.246	167.76
790.427	69.46
790.607	155.47
790.788	83.8
790.969	20.31
791.15	71.51
791.331	57.17
791.512	114.52
791.693	5.97
791.874	130.9
792.054	233.3
792.235	89.94
792.416	-20.65
792.597	-0.17
792.778	124.76
792.958	96.08
793.139	75.6
793.32	1.88
793.5	-84.14
793.681	173.91
793.862	75.6
794.042	71.51
794.223	-8.36
794.404	83.8
794.584	-86.19
794.765	55.12
794.945	48.98
795.126	53.08
795.306	167.76
795.487	26.45
795.667	-18.6
795.848	55.12
796.028	-22.7
796.209	-16.55
796.389	85.84
796.57	32.6
796.75	-53.42
796.93	46.93
797.111	-43.18
797.291	5.97
797.471	55.12
797.652	-51.37
797.832	59.22
798.012	94.04
798.192	-0.17
798.373	-22.7
798.553	-30.89
798.733	24.4
798.913	-16.55
799.093	-51.37
799.274	30.55
799.454	110.42
799.634	57.17
799.814	98.13
799.994	55.12
800.174	75.6
800.354	22.36
800.534	26.45
800.714	14.17
800.894	-45.23
801.074	-22.7
801.254	-100.52
801.434	102.23
801.614	-8.36
801.794	-4.27
801.974	1783.61
802.154	-45.23
802.334	57.17
802.514	-45.23
802.693	71.51
802.873	16.21
803.053	137.04
803.233	24.4
803.413	55.12
803.592	-49.32
803.772	-86.19
803.952	46.93
804.131	-84.14
804.311	22.36
804.491	81.75
804.67	3.93
804.85	-67.75
805.03	96.08
805.209	94.04
805.389	-28.84
805.568	-28.84
805.748	-0.17
805.928	44.88
806.107	73.56
806.287	1.88
806.466	71.51
806.646	12.12
806.825	-32.94
807.004	-34.99
807.184	73.56
807.363	30.55
807.543	36.69
807.722	-37.03
807.901	104.28
808.081	108.37
808.26	-127.14
808.439	-16.55
808.619	-69.8
808.798	24.4
808.977	48.98
809.156	53.08
809.336	61.27
809.515	65.36
809.694	-61.61
809.873	-77.99
810.052	-8.36
810.231	87.89
810.411	16.21
810.59	61.27
810.769	10.07
810.948	85.84
811.127	-129.19
811.306	40.79
811.485	12.12
811.664	73.56
811.843	12.12
812.022	3.93
812.201	69.46
812.38	-41.13
812.559	14.17
812.737	32.6
812.916	-102.57
813.095	-30.89
813.274	20.31
813.453	10.07
813.632	104.28
813.811	42.84
813.989	-88.23
814.168	44.88
814.347	30.55
814.526	-12.46
814.704	53.08
814.883	163.67
815.062	-133.29
815.24	18.26
815.419	-127.14
815.598	63.32
815.776	-80.04
815.955	32.6
816.133	-94.38
816.312	57.17
816.49	-80.04
816.669	-14.51
816.847	44.88
817.026	59.22
817.204	-53.42
817.383	-28.84
817.561	-110.76
817.74	81.75
817.918	12.12
818.097	-16.55
818.275	-16.55
818.453	69.46
818.632	46.93
818.81	79.7
818.988	-12.46
819.167	-20.65
819.345	-6.31
819.523	22.36
819.701	-16.55
819.879	-8.36
820.058	48.98
820.236	22.36
820.414	-6.31
820.592	20.31
820.77	-28.84
820.948	1.88
821.127	20.31
821.305	-41.13
821.483	-24.75
821.661	61.27
821.839	-34.99
822.017	8.02
822.195	40.79
822.373	96.08
822.551	48.98
822.729	114.52
822.907	38.74
823.085	5.97
823.262	87.89
823.44	-63.66
823.618	14.17
823.796	44.88
823.974	-30.89
824.152	-30.89
824.329	-12.46
824.507	143.19
824.685	59.22
824.863	-32.94
825.04	5.97
825.218	28.5
825.396	79.7
825.574	40.79
825.751	94.04
825.929	12.12
826.107	-73.9
826.284	10.07
826.462	79.7
826.639	5.97
826.817	-145.58
826.994	-37.03
827.172	-139.43
827.349	85.84
827.527	24.4
827.704	71.51
827.882	104.28
828.059	20.31
828.237	46.93
828.414	14.17
828.591	-209.06
828.769	-16.55
828.946	65.36
829.124	28.5
829.301	51.03
829.478	-34.99
829.655	83.8
829.833	51.03
830.01	-180.39
830.187	-18.6
830.364	53.08
830.542	-51.37
830.719	73.56
830.896	77.65
831.073	-12.46
831.25	30.55
831.427	112.47
831.604	-30.89
831.782	-39.08
831.959	75.6
832.136	-90.28
832.313	5.97
832.49	1.88
832.667	61.27
832.844	-59.56
833.021	81.75
833.198	-20.65
833.374	28.5
833.551	53.08
833.728	-26.79
833.905	16.21
834.082	-98.47
834.259	-24.75
834.436	94.04
834.612	57.17
834.789	153.43
834.966	-24.75
835.143	-37.03
835.319	-63.66
835.496	71.51
835.673	110.42
835.85	71.51
836.026	46.93
836.203	104.28
836.38	-18.6
836.556	-26.79
836.733	-28.84
836.909	145.24
837.086	-67.75
837.262	-49.32
837.439	14.17
837.616	3.93
837.792	32.6
837.968	-4.27
838.145	-77.99
838.321	44.88
838.498	-8.36
838.674	22.36
838.851	-45.23
839.027	-51.37
839.203	-71.85
839.38	26.45
839.556	5.97
839.732	5.97
839.909	-94.38
840.085	-24.75
840.261	14.17
840.437	-32.94
840.614	-61.61
840.79	98.13
840.966	44.88
841.142	42.84
841.318	-57.51
841.494	-24.75
841.671	135
841.847	-100.52
842.023	-47.27
842.199	30.55
842.375	96.08
842.551	-135.34
842.727	-98.47
842.903	87.89
843.079	-149.67
843.255	73.56
843.431	-28.84
843.607	26.45
843.783	-65.71
843.959	-10.41
844.134	-24.75
844.31	51.03
844.486	-10.41
844.662	-61.61
844.838	-51.37
845.013	26.45
845.189	116.56
845.365	-12.46
845.541	-20.65
845.716	-22.7
845.892	108.37
846.068	-43.18
846.244	-16.55
846.419	22.36
846.595	-127.14
846.77	-77.99
846.946	46.93
847.122	-26.79
847.297	1.88
847.473	153.43
847.648	-61.61
847.824	87.89
847.999	-96.43
848.175	-41.13
848.35	-10.41
848.526	71.51
848.701	53.08
848.876	75.6
849.052	98.13
849.227	-2.22
849.403	-61.61
849.578	8.02
849.753	89.94
849.929	69.46
850.104	-77.99
850.279	18.26
850.454	81.75
850.63	-28.84
850.805	8.02
850.98	1.88
851.155	-0.17
851.33	-2.22
851.505	-75.95
851.681	85.84
851.856	-112.81
852.031	-49.32
852.206	-22.7
852.381	-73.9
852.556	-47.27
852.731	5.97
852.906	48.98
853.081	85.84
853.256	30.55
853.431	-127.14
853.606	-24.75
853.781	-61.61
853.956	-135.34
854.131	36.69
854.305	-47.27
854.48	36.69
854.655	-8.36
854.83	-53.42
855.005	5.97
855.18	-37.03
855.354	-18.6
855.529	38.74
855.704	-94.38
855.879	67.41
856.053	-4.27
856.228	5.97
856.403	-43.18
856.577	22.36
856.752	-116.9
856.926	-28.84
857.101	-16.55
857.276	-98.47
857.45	38.74
857.625	73.56
857.799	26.45
857.974	-20.65
858.148	-84.14
858.323	34.64
858.497	-32.94
858.672	16.21
858.846	-63.66
859.02	59.22
859.195	-77.99
859.369	-28.84
859.543	18.26
859.718	57.17
859.892	81.75
860.066	-82.09
860.241	-12.46
860.415	-24.75
860.589	-20.65
860.763	-45.23
860.938	3.93
861.112	-10.41
861.286	-8.36
861.46	-0.17
861.634	-37.03
861.808	40.79
861.982	-20.65
862.157	-57.51
862.331	-8.36
862.505	-157.86
862.679	-166.06
862.853	-59.56
863.027	-34.99
863.201	116.56
863.375	-49.32
863.549	48.98
863.722	20.31
863.896	32.6
864.07	-30.89
864.244	-24.75
864.418	53.08
864.592	44.88
864.766	12.12
864.939	69.46
865.113	-18.6
865.287	59.22
865.461	-106.67
865.634	46.93
865.808	-82.09
865.982	-63.66
866.156	-53.42
866.329	-129.19
866.503	51.03
866.676	12.12
866.85	46.93
867.024	-47.27
867.197	44.88
867.371	22.36
867.544	-16.55
867.718	-75.95
867.891	83.8
868.065	-127.14
868.238	-65.71
868.412	-16.55
868.585	14.17
868.759	-90.28
868.932	-20.65
869.105	-180.39
869.279	-53.42
869.452	-63.66
869.625	-34.99
869.799	-8.36
869.972	-110.76
870.145	3.93
870.319	44.88
870.492	-18.6
870.665	8.02
870.838	-34.99
871.011	-92.33
871.185	-61.61
871.358	-45.23
871.531	100.18
871.704	-34.99
871.877	1.88
872.05	5.97
872.223	-84.14
872.396	3.93
872.569	-22.7
872.742	-96.43
872.915	24.4
873.088	-14.51
873.261	-149.67
873.434	-18.6
873.607	-22.7
873.78	12.12
873.953	-32.94
874.126	96.08
874.299	77.65
874.471	-16.55
874.644	-10.41
874.817	-22.7
874.99	75.6
875.163	32.6
875.335	-20.65
875.508	-51.37
875.681	98.13
875.853	-34.99
876.026	-28.84
876.199	63.32
876.371	18.26
876.544	-14.51
876.717	48.98
876.889	-4.27
877.062	53.08
877.234	-106.67
877.407	-43.18
877.579	-0.17
877.752	-45.23
877.924	57.17
878.097	22.36
878.269	-37.03
878.442	32.6
878.614	-8.36
878.786	98.13
878.959	-20.65
879.131	-14.51
879.303	-108.71
879.476	-41.13
879.648	114.52
879.82	-12.46
879.993	-45.23
880.165	-59.56
880.337	-75.95
880.509	-20.65
880.681	-164.01
880.854	-86.19
881.026	46.93
881.198	157.52
881.37	-57.51
881.542	-4.27
881.714	-59.56
881.886	10.07
882.058	10.07
882.23	-2.22
882.402	16.21
882.574	-53.42
882.746	85.84
882.918	81.75
883.09	-20.65
883.262	-10.41
883.434	48.98
883.606	-174.25
883.778	30.55
883.95	87.89
884.122	-6.31
884.293	81.75
884.465	12.12
884.637	1.88
884.809	12.12
884.98	8.02
885.152	16.21
885.324	77.65
885.496	-110.76
885.667	-86.19
885.839	8.02
886.011	159.57
886.182	12.12
886.354	12.12
886.525	-41.13
886.697	53.08
886.869	46.93
887.04	-67.75
887.212	124.76
887.383	114.52
887.555	10.07
887.726	12.12
887.897	-12.46
888.069	-67.75
888.24	71.51
888.412	-63.66
888.583	-49.32
888.754	18.26
888.926	-147.62
889.097	-51.37
889.268	-22.7
889.44	-32.94
889.611	3.93
889.782	-92.33
889.953	-65.71
890.125	184.15
890.296	-110.76
890.467	-37.03
890.638	14.17
890.809	-73.9
890.98	16.21
891.151	10.07
891.323	75.6
891.494	1.88
891.665	42.84
891.836	-55.47
892.007	-12.46
892.178	-0.17
892.349	42.84
892.52	-43.18
892.691	-0.17
892.862	-30.89
893.032	-80.04
893.203	63.32
893.374	-10.41
893.545	143.19
893.716	-53.42
893.887	18.26
894.057	-39.08
894.228	-34.99
894.399	-110.76
894.57	46.93
894.74	26.45
894.911	-18.6
895.082	-32.94
895.253	-59.56
895.423	-71.85
895.594	5.97
895.764	112.47
895.935	-43.18
896.106	3.93
896.276	-24.75
896.447	28.5
896.617	-82.09
896.788	-32.94
896.958	-43.18
897.129	-22.7
897.299	-67.75
897.47	18.26
897.64	57.17
897.81	14.17
897.981	16.21
898.151	-84.14
898.322	18.26
898.492	5.97
898.662	-34.99
898.832	-14.51
899.003	-43.18
899.173	18.26
899.343	-82.09
899.513	-151.72
