Data from USB4F104151__81__11-31-27-361.txt Node

Date: Wed Feb 26 11:31:27 EST 2025
User: louis
Spectrometer: USB4F10415
Trigger mode: 4
Integration Time (sec): 1.000000E-1
Scans to average: 1
Electric dark correction enabled: true
Nonlinearity correction enabled: false
Boxcar width: 0
XAxis mode: Wavelengths
Number of Pixels in Spectrum: 3648
>>>>>Begin Spectral Data<<<<<
178.204	-423.59
178.424	-423.59
178.644	-423.59
178.864	-380.58
179.084	-366.25
179.304	8.53
179.524	-20.14
179.744	4.44
179.964	20.82
180.184	-7.85
180.404	-50.86
180.624	-36.52
180.844	-13.99
181.064	26.96
181.283	33.11
181.503	10.58
181.723	24.92
181.943	-46.76
182.163	250.19
182.383	37.2
182.602	53.59
182.822	186.71
183.042	147.8
183.262	4.44
183.482	41.3
183.701	55.64
183.921	69.97
184.141	-28.33
184.361	80.21
184.58	41.3
184.8	-16.04
185.02	-32.43
185.239	155.99
185.459	82.26
185.679	117.08
185.898	-54.95
186.118	115.03
186.338	94.55
186.557	80.21
186.777	-75.43
186.997	-7.85
187.216	53.59
187.436	217.43
187.655	96.6
187.875	145.75
188.095	55.64
188.314	112.98
188.534	121.17
188.753	33.11
188.973	127.32
189.192	229.71
189.412	10.58
189.631	-20.14
189.851	82.26
190.07	139.6
190.29	-28.33
190.509	98.64
190.729	72.02
190.948	178.51
191.168	186.71
191.387	67.92
191.607	90.45
191.826	41.3
192.045	35.16
192.265	37.2
192.484	67.92
192.704	14.68
192.923	-16.04
193.142	256.34
193.362	74.07
193.581	172.37
193.8	112.98
194.02	133.46
194.239	69.97
194.458	92.5
194.678	33.11
194.897	-13.99
195.116	18.77
195.335	100.69
195.555	74.07
195.774	37.2
195.993	184.66
196.212	18.77
196.432	-5.8
196.651	24.92
196.87	37.2
197.089	203.09
197.308	10.58
197.528	119.12
197.747	31.06
197.966	35.16
198.185	160.08
198.404	-5.8
198.623	119.12
198.842	106.84
199.062	100.69
199.281	137.56
199.5	92.5
199.719	125.27
199.938	76.12
200.157	47.44
200.376	158.03
200.595	178.51
200.814	112.98
201.033	80.21
201.252	217.43
201.471	170.32
201.69	80.21
201.909	20.82
202.128	145.75
202.347	117.08
202.566	-7.85
202.785	14.68
203.004	-48.81
203.223	285.01
203.442	12.63
203.661	37.2
203.879	123.22
204.098	129.36
204.317	55.64
204.536	88.4
204.755	96.6
204.974	67.92
205.193	24.92
205.411	135.51
205.63	121.17
205.849	158.03
206.068	10.58
206.287	-63.15
206.505	149.84
206.724	16.73
206.943	12.63
207.162	6.49
207.381	137.56
207.599	57.68
207.818	86.36
208.037	-32.43
208.255	33.11
208.474	80.21
208.693	170.32
208.911	24.92
209.13	76.12
209.349	141.65
209.567	45.4
209.786	53.59
210.005	61.78
210.223	63.83
210.442	-95.91
210.661	47.44
210.879	90.45
211.098	72.02
211.316	49.49
211.535	67.92
211.753	59.73
211.972	133.46
212.191	12.63
212.409	2.39
212.628	129.36
212.846	43.35
213.065	147.8
213.283	106.84
213.502	63.83
213.72	84.31
213.938	72.02
214.157	-9.9
214.375	147.8
214.594	14.68
214.812	94.55
215.031	61.78
215.249	112.98
215.467	20.82
215.686	37.2
215.904	115.03
216.122	100.69
216.341	190.8
216.559	69.97
216.778	90.45
216.996	117.08
217.214	51.54
217.432	8.53
217.651	-9.9
217.869	72.02
218.087	31.06
218.306	20.82
218.524	69.97
218.742	96.6
218.96	49.49
219.179	0.34
219.397	-28.33
219.615	209.23
219.833	155.99
220.051	-34.47
220.27	82.26
220.488	96.6
220.706	139.6
220.924	-46.76
221.142	84.31
221.36	47.44
221.578	49.49
221.796	55.64
222.015	35.16
222.233	33.11
222.451	186.71
222.669	-57
222.887	72.02
223.105	-11.95
223.323	20.82
223.541	-44.71
223.759	110.93
223.977	18.77
224.195	188.75
224.413	119.12
224.631	53.59
224.849	90.45
225.067	248.15
225.285	41.3
225.503	39.25
225.721	-134.82
225.939	43.35
226.157	29.01
226.375	229.71
226.592	-30.38
226.81	0.34
227.028	74.07
227.246	106.84
227.464	84.31
227.682	104.79
227.9	133.46
228.117	129.36
228.335	61.78
228.553	76.12
228.771	37.2
228.989	26.96
229.206	82.26
229.424	26.96
229.642	51.54
229.86	20.82
230.077	158.03
230.295	88.4
230.513	82.26
230.731	96.6
230.948	182.61
231.166	170.32
231.384	55.64
231.601	-16.04
231.819	168.27
232.037	35.16
232.254	-20.14
232.472	78.16
232.689	41.3
232.907	149.84
233.125	4.44
233.342	-34.47
233.56	-24.23
233.777	100.69
233.995	88.4
234.213	108.88
234.43	78.16
234.648	82.26
234.865	33.11
235.083	82.26
235.3	78.16
235.518	145.75
235.735	155.99
235.953	98.64
236.17	90.45
236.388	49.49
236.605	119.12
236.822	139.6
237.04	117.08
237.257	53.59
237.475	-26.28
237.692	14.68
237.909	223.57
238.127	78.16
238.344	76.12
238.562	31.06
238.779	-18.09
238.996	8.53
239.214	86.36
239.431	100.69
239.648	72.02
239.865	61.78
240.083	4.44
240.3	2.39
240.517	94.55
240.735	31.06
240.952	196.95
241.169	78.16
241.386	133.46
241.603	43.35
241.821	-46.76
242.038	121.17
242.255	106.84
242.472	-9.9
242.689	190.8
242.907	133.46
243.124	69.97
243.341	51.54
243.558	39.25
243.775	-48.81
243.992	-77.48
244.209	149.84
244.426	178.51
244.643	164.18
244.86	10.58
245.078	141.65
245.295	96.6
245.512	121.17
245.729	33.11
245.946	76.12
246.163	-32.43
246.38	20.82
246.597	84.31
246.814	-40.62
247.031	41.3
247.248	-16.04
247.464	78.16
247.681	94.55
247.898	84.31
248.115	74.07
248.332	47.44
248.549	131.41
248.766	231.76
248.983	57.68
249.2	65.88
249.417	196.95
249.633	39.25
249.85	180.56
250.067	53.59
250.284	84.31
250.501	90.45
250.717	49.49
250.934	33.11
251.151	57.68
251.368	14.68
251.585	80.21
251.801	86.36
252.018	-34.47
252.235	98.64
252.451	37.2
252.668	53.59
252.885	201.04
253.102	49.49
253.318	-11.95
253.535	6.49
253.752	20.82
253.968	-9.9
254.185	16.73
254.401	131.41
254.618	65.88
254.835	0.34
255.051	137.56
255.268	137.56
255.484	41.3
255.701	33.11
255.917	31.06
256.134	10.58
256.351	-28.33
256.567	-85.67
256.784	35.16
257	-54.95
257.217	166.23
257.433	90.45
257.65	69.97
257.866	172.37
258.082	0.34
258.299	-32.43
258.515	121.17
258.732	41.3
258.948	84.31
259.165	74.07
259.381	-34.47
259.597	106.84
259.814	78.16
260.03	10.58
260.246	35.16
260.463	151.89
260.679	92.5
260.895	80.21
261.112	86.36
261.328	63.83
261.544	59.73
261.761	217.43
261.977	43.35
262.193	-1.71
262.409	117.08
262.626	0.34
262.842	49.49
263.058	16.73
263.274	72.02
263.49	55.64
263.707	92.5
263.923	145.75
264.139	6.49
264.355	14.68
264.571	117.08
264.787	59.73
265.004	135.51
265.22	106.84
265.436	47.44
265.652	106.84
265.868	155.99
266.084	-24.23
266.3	41.3
266.516	-63.15
266.732	33.11
266.948	127.32
267.164	49.49
267.38	108.88
267.596	76.12
267.812	164.18
268.028	78.16
268.244	57.68
268.46	90.45
268.676	-1.71
268.892	65.88
269.108	-87.72
269.324	-69.29
269.54	4.44
269.756	172.37
269.972	-24.23
270.188	-20.14
270.403	10.58
270.619	-83.63
270.835	168.27
271.051	26.96
271.267	-38.57
271.483	65.88
271.698	125.27
271.914	20.82
272.13	98.64
272.346	29.01
272.562	147.8
272.777	172.37
272.993	61.78
273.209	-7.85
273.425	121.17
273.64	-122.54
273.856	67.92
274.072	82.26
274.287	-13.99
274.503	12.63
274.719	145.75
274.934	49.49
275.15	-28.33
275.366	102.74
275.581	-3.75
275.797	94.55
276.012	67.92
276.228	14.68
276.444	31.06
276.659	227.67
276.875	82.26
277.09	39.25
277.306	22.87
277.521	112.98
277.737	47.44
277.952	115.03
278.168	96.6
278.383	29.01
278.599	6.49
278.814	182.61
279.03	29.01
279.245	98.64
279.461	8.53
279.676	110.93
279.892	-16.04
280.107	-22.19
280.322	-20.14
280.538	47.44
280.753	-81.58
280.969	86.36
281.184	35.16
281.399	172.37
281.615	41.3
281.83	98.64
282.045	110.93
282.26	-61.1
282.476	26.96
282.691	151.89
282.906	29.01
283.122	121.17
283.337	-9.9
283.552	137.56
283.767	41.3
283.983	133.46
284.198	49.49
284.413	43.35
284.628	-93.87
284.843	88.4
285.058	12.63
285.274	76.12
285.489	59.73
285.704	145.75
285.919	41.3
286.134	-11.95
286.349	108.88
286.564	-7.85
286.779	137.56
286.995	117.08
287.21	-67.24
287.425	84.31
287.64	57.68
287.855	119.12
288.07	-40.62
288.285	168.27
288.5	129.36
288.715	104.79
288.93	37.2
289.145	45.4
289.36	106.84
289.575	-7.85
289.79	115.03
290.004	-13.99
290.219	145.75
290.434	33.11
290.649	45.4
290.864	6.49
291.079	63.83
291.294	8.53
291.509	104.79
291.724	16.73
291.938	-38.57
292.153	96.6
292.368	63.83
292.583	4.44
292.798	106.84
293.012	98.64
293.227	57.68
293.442	12.63
293.657	53.59
293.871	170.32
294.086	160.08
294.301	274.77
294.516	131.41
294.73	47.44
294.945	-18.09
295.16	45.4
295.374	168.27
295.589	115.03
295.804	-5.8
296.018	69.97
296.233	147.8
296.447	125.27
296.662	18.77
296.877	151.89
297.091	82.26
297.306	80.21
297.52	-22.19
297.735	106.84
297.949	115.03
298.164	88.4
298.378	49.49
298.593	-69.29
298.807	10.58
299.022	-22.19
299.236	153.94
299.451	133.46
299.665	86.36
299.88	45.4
300.094	57.68
300.309	22.87
300.523	45.4
300.737	53.59
300.952	57.68
301.166	229.71
301.381	-48.81
301.595	-77.48
301.809	108.88
302.024	6.49
302.238	-13.99
302.452	149.84
302.667	41.3
302.881	141.65
303.095	129.36
303.309	63.83
303.524	31.06
303.738	14.68
303.952	-20.14
304.166	131.41
304.381	-63.15
304.595	168.27
304.809	76.12
305.023	41.3
305.237	35.16
305.452	145.75
305.666	67.92
305.88	102.74
306.094	168.27
306.308	164.18
306.522	59.73
306.736	90.45
306.95	203.09
307.164	55.64
307.379	78.16
307.593	55.64
307.807	217.43
308.021	166.23
308.235	135.51
308.449	-155.3
308.663	78.16
308.877	264.53
309.091	188.75
309.305	104.79
309.519	-114.34
309.733	115.03
309.947	-65.19
310.161	53.59
310.374	84.31
310.588	162.13
310.802	0.34
311.016	-20.14
311.23	76.12
311.444	4.44
311.658	41.3
311.872	108.88
312.085	100.69
312.299	170.32
312.513	110.93
312.727	67.92
312.941	-16.04
313.154	59.73
313.368	115.03
313.582	59.73
313.796	72.02
314.009	80.21
314.223	155.99
314.437	20.82
314.651	112.98
314.864	51.54
315.078	57.68
315.292	-91.82
315.505	41.3
315.719	14.68
315.933	61.78
316.146	14.68
316.36	12.63
316.573	147.8
316.787	155.99
317.001	-34.47
317.214	47.44
317.428	47.44
317.641	51.54
317.855	108.88
318.068	74.07
318.282	88.4
318.495	100.69
318.709	51.54
318.922	59.73
319.136	194.9
319.349	135.51
319.563	-5.8
319.776	80.21
319.99	-38.57
320.203	24.92
320.417	14.68
320.63	39.25
320.843	172.37
321.057	33.11
321.27	127.32
321.483	143.7
321.697	231.76
321.91	67.92
322.124	74.07
322.337	12.63
322.55	-57
322.763	102.74
322.977	33.11
323.19	-63.15
323.403	31.06
323.617	16.73
323.83	186.71
324.043	4.44
324.256	84.31
324.469	8.53
324.683	100.69
324.896	78.16
325.109	63.83
325.322	-28.33
325.535	137.56
325.748	119.12
325.962	45.4
326.175	63.83
326.388	106.84
326.601	164.18
326.814	90.45
327.027	61.78
327.24	90.45
327.453	-30.38
327.666	108.88
327.879	84.31
328.092	139.6
328.305	26.96
328.518	-77.48
328.731	-5.8
328.944	53.59
329.157	82.26
329.37	51.54
329.583	198.99
329.796	158.03
330.009	-63.15
330.222	135.51
330.435	174.42
330.648	61.78
330.861	90.45
331.073	41.3
331.286	84.31
331.499	108.88
331.712	51.54
331.925	55.64
332.138	61.78
332.35	180.56
332.563	10.58
332.776	115.03
332.989	72.02
333.202	43.35
333.414	49.49
333.627	80.21
333.84	72.02
334.053	61.78
334.265	47.44
334.478	4.44
334.691	10.58
334.903	26.96
335.116	-48.81
335.329	61.78
335.541	123.22
335.754	147.8
335.966	69.97
336.179	80.21
336.392	2.39
336.604	16.73
336.817	49.49
337.029	125.27
337.242	2.39
337.454	133.46
337.667	37.2
337.88	155.99
338.092	106.84
338.305	49.49
338.517	22.87
338.729	72.02
338.942	170.32
339.154	-48.81
339.367	-16.04
339.579	55.64
339.792	-30.38
340.004	55.64
340.217	29.01
340.429	72.02
340.641	49.49
340.854	0.34
341.066	145.75
341.278	139.6
341.491	160.08
341.703	125.27
341.915	29.01
342.128	145.75
342.34	86.36
342.552	14.68
342.764	80.21
342.977	74.07
343.189	51.54
343.401	61.78
343.613	-38.57
343.826	33.11
344.038	31.06
344.25	39.25
344.462	74.07
344.674	29.01
344.886	55.64
345.099	57.68
345.311	174.42
345.523	0.34
345.735	-46.76
345.947	96.6
346.159	-3.75
346.371	106.84
346.583	33.11
346.795	264.53
347.007	-9.9
347.219	104.79
347.431	31.06
347.643	67.92
347.855	80.21
348.067	186.71
348.279	22.87
348.491	69.97
348.703	108.88
348.915	80.21
349.127	-34.47
349.339	72.02
349.551	67.92
349.763	170.32
349.975	6.49
350.187	69.97
350.399	168.27
350.61	94.55
350.822	67.92
351.034	176.47
351.246	82.26
351.458	137.56
351.669	74.07
351.881	125.27
352.093	59.73
352.305	184.66
352.517	100.69
352.728	196.95
352.94	98.64
353.152	139.6
353.363	-3.75
353.575	80.21
353.787	250.19
353.999	135.51
354.21	108.88
354.422	53.59
354.633	33.11
354.845	14.68
355.057	22.87
355.268	90.45
355.48	151.89
355.692	-11.95
355.903	35.16
356.115	-18.09
356.326	-7.85
356.538	137.56
356.749	61.78
356.961	172.37
357.172	90.45
357.384	-44.71
357.595	266.58
357.807	0.34
358.018	47.44
358.23	-9.9
358.441	153.94
358.653	67.92
358.864	131.41
359.075	51.54
359.287	43.35
359.498	65.88
359.709	155.99
359.921	104.79
360.132	102.74
360.344	16.73
360.555	57.68
360.766	88.4
360.977	74.07
361.189	123.22
361.4	-54.95
361.611	94.55
361.823	162.13
362.034	24.92
362.245	8.53
362.456	69.97
362.667	133.46
362.879	-13.99
363.09	84.31
363.301	131.41
363.512	119.12
363.723	-5.8
363.935	41.3
364.146	147.8
364.357	16.73
364.568	47.44
364.779	-36.52
364.99	176.47
365.201	22.87
365.412	174.42
365.623	33.11
365.834	78.16
366.045	90.45
366.256	143.7
366.467	65.88
366.678	33.11
366.889	51.54
367.1	43.35
367.311	233.81
367.522	72.02
367.733	90.45
367.944	76.12
368.155	47.44
368.366	176.47
368.577	110.93
368.788	115.03
368.999	53.59
369.209	33.11
369.42	201.04
369.631	246.1
369.842	133.46
370.053	16.73
370.264	33.11
370.474	-65.19
370.685	61.78
370.896	49.49
371.107	178.51
371.317	76.12
371.528	61.78
371.739	166.23
371.95	149.84
372.16	94.55
372.371	-30.38
372.582	63.83
372.792	139.6
373.003	74.07
373.214	96.6
373.424	164.18
373.635	-42.67
373.846	131.41
374.056	14.68
374.267	41.3
374.477	18.77
374.688	18.77
374.898	88.4
375.109	29.01
375.319	80.21
375.53	98.64
375.74	80.21
375.951	-7.85
376.161	35.16
376.372	174.42
376.582	-1.71
376.793	127.32
377.003	51.54
377.214	-16.04
377.424	63.83
377.635	-32.43
377.845	-73.39
378.055	242
378.266	-57
378.476	102.74
378.686	55.64
378.897	96.6
379.107	33.11
379.317	69.97
379.528	98.64
379.738	74.07
379.948	-52.91
380.158	92.5
380.369	67.92
380.579	119.12
380.789	-5.8
380.999	65.88
381.21	80.21
381.42	227.67
381.63	22.87
381.84	129.36
382.05	102.74
382.261	90.45
382.471	172.37
382.681	45.4
382.891	174.42
383.101	86.36
383.311	24.92
383.521	33.11
383.731	137.56
383.941	137.56
384.151	76.12
384.361	-13.99
384.571	76.12
384.781	88.4
384.991	235.86
385.201	192.85
385.411	82.26
385.621	182.61
385.831	117.08
386.041	102.74
386.251	67.92
386.461	123.22
386.671	121.17
386.881	69.97
387.091	63.83
387.301	65.88
387.511	92.5
387.72	47.44
387.93	86.36
388.14	-48.81
388.35	129.36
388.56	127.32
388.769	158.03
388.979	14.68
389.189	39.25
389.399	37.2
389.609	37.2
389.818	164.18
390.028	29.01
390.238	133.46
390.447	39.25
390.657	123.22
390.867	67.92
391.076	-61.1
391.286	31.06
391.496	53.59
391.705	117.08
391.915	151.89
392.125	139.6
392.334	6.49
392.544	172.37
392.753	90.45
392.963	20.82
393.172	59.73
393.382	-59.05
393.591	184.66
393.801	16.73
394.01	162.13
394.22	88.4
394.429	41.3
394.639	121.17
394.848	108.88
395.058	-11.95
395.267	63.83
395.477	166.23
395.686	63.83
395.895	250.19
396.105	254.29
396.314	133.46
396.524	31.06
396.733	92.5
396.942	149.84
397.152	121.17
397.361	123.22
397.57	53.59
397.78	67.92
397.989	90.45
398.198	272.72
398.407	147.8
398.617	35.16
398.826	102.74
399.035	65.88
399.244	84.31
399.453	135.51
399.663	14.68
399.872	67.92
400.081	2.39
400.29	112.98
400.499	-34.47
400.708	133.46
400.917	63.83
401.127	88.4
401.336	-16.04
401.545	192.85
401.754	158.03
401.963	131.41
402.172	12.63
402.381	0.34
402.59	10.58
402.799	61.78
403.008	90.45
403.217	104.79
403.426	67.92
403.635	-79.53
403.844	20.82
404.053	-13.99
404.262	43.35
404.471	198.99
404.68	72.02
404.888	16.73
405.097	45.4
405.306	98.64
405.515	125.27
405.724	0.34
405.933	108.88
406.142	74.07
406.35	162.13
406.559	63.83
406.768	98.64
406.977	194.9
407.185	141.65
407.394	84.31
407.603	-3.75
407.812	92.5
408.02	203.09
408.229	37.2
408.438	108.88
408.646	22.87
408.855	6.49
409.064	123.22
409.272	6.49
409.481	96.6
409.69	-24.23
409.898	-3.75
410.107	76.12
410.315	141.65
410.524	16.73
410.733	41.3
410.941	72.02
411.15	106.84
411.358	182.61
411.567	244.05
411.775	31.06
411.984	78.16
412.192	106.84
412.401	4.44
412.609	209.23
412.818	121.17
413.026	16.73
413.234	-18.09
413.443	76.12
413.651	10.58
413.86	53.59
414.068	186.71
414.276	188.75
414.485	45.4
414.693	106.84
414.901	252.24
415.11	164.18
415.318	188.75
415.526	-3.75
415.734	201.04
415.943	78.16
416.151	135.51
416.359	82.26
416.567	82.26
416.776	80.21
416.984	127.32
417.192	143.7
417.4	49.49
417.608	94.55
417.817	-75.43
418.025	221.52
418.233	203.09
418.441	20.82
418.649	-32.43
418.857	145.75
419.065	127.32
419.273	67.92
419.481	102.74
419.689	41.3
419.897	26.96
420.105	-26.28
420.313	137.56
420.521	166.23
420.729	219.47
420.937	47.44
421.145	-11.95
421.353	90.45
421.561	119.12
421.769	115.03
421.977	6.49
422.185	133.46
422.393	90.45
422.601	139.6
422.809	133.46
423.017	67.92
423.224	-1.71
423.432	133.46
423.64	59.73
423.848	153.94
424.056	2.39
424.263	137.56
424.471	115.03
424.679	198.99
424.887	-48.81
425.094	168.27
425.302	252.24
425.51	55.64
425.718	137.56
425.925	127.32
426.133	0.34
426.341	174.42
426.548	65.88
426.756	35.16
426.964	166.23
427.171	-67.24
427.379	196.95
427.586	6.49
427.794	164.18
428.001	131.41
428.209	184.66
428.417	225.62
428.624	86.36
428.832	168.27
429.039	153.94
429.247	145.75
429.454	147.8
429.662	266.58
429.869	121.17
430.076	133.46
430.284	117.08
430.491	285.01
430.699	182.61
430.906	270.67
431.114	110.93
431.321	201.04
431.528	121.17
431.736	125.27
431.943	153.94
432.15	166.23
432.358	293.2
432.565	270.67
432.772	104.79
432.979	274.77
433.187	131.41
433.394	147.8
433.601	84.31
433.808	280.91
434.016	360.78
434.223	211.28
434.43	246.1
434.637	223.57
434.844	291.15
435.052	293.2
435.259	319.82
435.466	325.97
435.673	225.62
435.88	350.54
436.087	293.2
436.294	389.46
436.501	293.2
436.708	325.97
436.915	262.48
437.122	311.63
437.329	268.63
437.537	321.87
437.743	371.02
437.95	452.94
438.157	346.45
438.364	385.36
438.571	362.83
438.778	442.7
438.985	454.99
439.192	438.61
439.399	491.85
439.606	446.8
439.813	518.48
440.02	565.58
440.227	592.2
440.433	655.69
440.64	547.15
440.847	551.24
441.054	547.15
441.261	704.84
441.467	633.16
441.674	651.6
441.881	758.09
442.088	610.64
442.294	776.52
442.501	889.16
442.708	768.33
442.914	770.38
443.121	751.95
443.328	813.38
443.534	952.65
443.741	899.4
443.948	856.39
444.154	1102.15
444.361	1116.48
444.568	1022.28
444.774	1073.48
444.981	1026.37
445.187	1227.07
445.394	1147.2
445.6	1118.53
445.807	1401.15
446.013	1280.32
446.22	1214.79
446.426	1298.75
446.633	1321.28
446.839	1653.05
447.046	1403.2
447.252	1616.19
447.459	1644.86
447.665	1653.05
447.871	1792.31
448.078	2036.02
448.284	1968.44
448.491	1952.06
448.697	2103.61
448.903	2222.39
449.11	2236.72
449.316	2025.78
449.522	2412.85
449.728	2431.28
449.935	2552.11
450.141	2433.33
450.347	2734.38
450.553	2695.47
450.76	2734.38
450.966	2812.2
451.172	3008.81
451.378	3162.41
451.584	3111.21
451.791	3424.55
451.997	3522.85
452.203	3524.9
452.409	3922.2
452.615	3840.28
452.821	3903.77
453.027	3897.63
453.233	4415.76
453.44	4155.67
453.646	4380.95
453.852	4552.98
454.058	4749.58
454.264	4950.28
454.47	5372.16
454.676	5208.33
454.882	5783.81
455.088	5507.33
455.294	5771.52
455.5	6226.17
455.705	6342.9
455.911	6576.37
456.117	6680.82
456.323	6846.7
456.529	6795.5
456.735	7635.17
456.941	7925.98
457.147	8132.83
457.352	8364.25
457.558	8493.27
457.764	8988.88
457.97	9496.77
458.176	9824.45
458.381	9961.66
458.587	10436.79
458.793	10617.01
458.999	10703.03
459.204	12220.57
459.41	12443.8
459.616	12208.28
459.821	13308.04
460.027	13693.06
460.233	14456.95
460.438	14344.31
460.644	15161.45
460.85	15513.7
461.055	16115.81
461.261	16834.64
461.466	16556.12
461.672	16685.14
461.878	18700.34
462.083	18608.19
462.289	18815.03
462.494	19572.78
462.7	19748.9
462.905	20052
463.111	21792.78
463.316	22792.19
463.522	23025.65
463.727	23902.18
463.932	25073.62
464.138	25427.92
464.343	26460.1
464.549	26697.66
464.754	29061.02
464.959	29378.45
465.165	29872.01
465.37	29783.95
465.575	29798.29
465.781	31862.64
465.986	32995.17
466.191	31782.77
466.397	32657.25
466.602	31647.6
466.807	33472.34
467.012	34137.93
467.218	34680.64
467.423	34821.95
467.628	35694.39
467.833	37707.54
468.038	37007.14
468.244	36495.14
468.449	38194.96
468.654	37343
468.859	37109.54
469.064	37310.24
469.269	36562.73
469.474	36810.53
469.679	37709.59
469.885	36546.34
470.09	37349.15
470.295	37902.1
470.5	36124.46
470.705	36726.56
470.91	35888.95
471.115	35460.92
471.32	36022.06
471.525	35563.32
471.73	34320.2
471.935	34303.82
472.139	32993.12
472.344	33318.74
472.549	33570.65
472.754	32350.06
472.959	31430.52
473.164	30453.64
473.369	30152.59
473.574	31235.96
473.778	30680.96
473.983	29904.78
474.188	29456.28
474.393	27770.8
474.598	27672.5
474.802	27189.17
475.007	26775.48
475.212	26582.98
475.417	25528.27
475.621	25536.46
475.826	24997.85
476.031	24459.23
476.235	24119.27
476.44	23959.53
476.645	23402.48
476.849	23427.06
477.054	22863.86
477.259	22087.68
477.463	22181.89
477.668	21391.37
477.872	21839.88
478.077	21092.37
478.282	20318.24
478.486	20314.14
478.691	20236.32
478.895	20152.35
479.1	19785.77
479.304	19685.42
479.509	18954.29
479.713	19134.51
479.918	18659.38
480.122	18501.69
480.326	18579.51
480.531	18524.22
480.735	18393.15
480.94	17883.2
481.144	18608.19
481.348	17780.81
481.553	17772.61
481.757	17127.5
481.961	17475.66
482.166	17594.44
482.37	17287.25
482.574	16875.6
482.778	16664.66
482.983	17244.24
483.187	16582.74
483.391	16498.78
483.595	16216.16
483.8	16056.42
484.004	16242.78
484.208	16226.4
484.412	15878.24
484.616	15556.71
484.821	15607.91
485.025	14907.51
485.229	15251.56
485.433	14733.43
485.637	15018.1
485.841	14499.96
486.045	14264.44
486.249	14278.78
486.453	13875.33
486.657	13764.74
486.861	13717.64
487.065	13205.64
487.269	13004.94
487.473	12648.6
487.677	12927.12
487.881	12765.33
488.085	12583.06
488.289	12177.56
488.493	12109.98
488.697	11948.19
488.901	11511.97
489.105	11378.86
489.309	11210.92
489.512	10885.3
489.716	10782.9
489.92	10700.98
490.124	10188.99
490.328	10561.72
490.531	10062.01
490.735	10012.86
490.939	9504.96
491.143	9429.19
491.346	9216.2
491.55	9357.51
491.754	9068.75
491.958	9027.79
492.161	8857.81
492.365	8845.52
492.569	8423.64
492.772	8394.97
492.976	8335.57
493.18	8356.05
493.383	8155.35
493.587	8194.26
493.79	7940.32
493.994	7669.98
494.197	7751.9
494.401	7676.13
494.605	7721.18
494.808	7336.17
495.012	7403.75
495.215	7325.93
495.419	7411.94
495.622	7209.19
495.825	7069.93
496.029	7157.99
496.232	7092.46
496.436	6963.44
496.639	7188.71
496.843	7106.79
497.046	7065.83
497.249	7276.77
497.453	7231.72
497.656	7192.81
497.859	7086.31
498.063	7092.46
498.266	7151.85
498.469	7084.27
498.673	7045.35
498.876	7108.84
499.079	7176.42
499.282	7031.02
499.485	7475.43
499.689	7366.88
499.892	7448.8
500.095	7235.81
500.298	7629.02
500.501	7309.54
500.705	7375.08
500.908	7751.9
501.111	7606.5
501.314	7747.81
501.517	7803.1
501.72	7805.15
501.923	7758.05
502.126	7895.26
502.329	8161.5
502.532	8335.57
502.735	8247.51
502.938	8339.67
503.141	8538.32
503.344	8636.63
503.547	8544.47
503.75	8601.81
503.953	8741.07
504.156	8943.82
504.359	9101.51
504.562	9109.71
504.765	9363.65
504.968	9455.81
505.17	9527.49
505.373	9812.16
505.576	9945.28
505.779	9900.22
505.982	10260.66
506.185	10422.45
506.387	10350.78
506.59	10623.16
506.793	11012.27
506.996	10827.95
507.198	11434.15
507.401	11442.34
507.604	11690.15
507.807	12044.45
508.009	12171.42
508.212	12460.18
508.415	12482.71
508.617	12742.8
508.82	13156.49
509.022	13224.08
509.225	13641.86
509.428	13764.74
509.63	14203
509.833	14522.49
510.035	15020.14
510.238	15057.01
510.44	15448.17
510.643	15648.87
510.845	16396.38
511.048	16167.01
511.25	16883.8
511.453	17014.87
511.655	17885.25
511.858	18028.61
512.06	18319.42
512.262	18655.29
512.465	19101.75
512.667	19791.91
512.87	20224.03
513.072	20383.77
513.274	21176.34
513.477	21426.19
513.679	22181.89
513.881	22315.01
514.084	22949.88
514.286	23302.13
514.488	23838.7
514.69	24733.66
514.893	25245.65
515.095	25274.32
515.297	26015.69
515.499	26744.77
515.701	27279.29
515.904	27766.7
516.106	28276.65
516.308	28958.62
516.51	29726.61
516.712	29947.79
516.914	30734.21
517.116	31369.08
517.318	31936.37
517.52	32388.97
517.722	32980.83
517.925	33677.14
518.127	34576.2
518.329	34893.63
518.531	35274.56
518.733	36099.89
518.935	36476.71
519.136	36704.04
519.338	37711.64
519.54	38426.38
519.742	39206.66
519.944	39739.13
520.146	40034.03
520.348	40976.1
520.55	41449.18
520.752	41584.35
520.954	42696.39
521.155	42323.66
521.357	43706.04
521.559	43998.9
521.761	44891.82
521.963	44854.95
522.164	45371.04
522.366	45643.42
522.568	46118.55
522.77	46741.13
522.971	47206.02
523.173	47101.57
523.375	47404.67
523.576	47523.46
523.778	47548.03
523.98	48768.62
524.181	48330.36
524.383	48543.34
524.584	49522.27
524.786	49204.84
524.988	48830.06
525.189	49739.36
525.391	49661.54
525.592	49862.24
525.794	50300.5
525.995	49297
526.197	49643.1
526.398	49884.76
526.6	49628.77
526.801	49278.57
527.003	49565.28
527.204	49630.82
527.406	49342.05
527.607	48914.03
527.808	49182.31
528.01	48287.35
528.211	47998.58
528.412	49075.82
528.614	48027.26
528.815	47668.86
529.016	47847.04
529.218	46866.06
529.419	46821
529.62	46249.62
529.822	45768.35
530.023	45256.35
530.224	45266.59
530.425	44822.19
530.626	43851.45
530.828	43589.31
531.029	43833.02
531.23	42964.68
531.431	42338
531.632	42446.54
531.833	41916.12
532.035	41731.8
532.236	40984.29
532.437	40883.94
532.638	40003.31
532.839	39315.2
533.04	39151.36
533.241	38289.17
533.442	38350.6
533.643	37771.03
533.844	37156.64
534.045	36871.97
534.246	35977.01
534.447	36048.69
534.648	35049.28
534.849	35014.46
535.05	34080.59
535.251	33666.9
535.451	33750.87
535.652	33240.92
535.853	32667.49
536.054	32245.61
536.255	31889.26
536.456	31266.68
536.657	31287.16
536.857	30551.94
537.058	30068.62
537.259	30070.67
537.46	29544.34
537.66	29276.05
537.861	28741.53
538.062	28364.71
538.263	27944.87
538.463	27574.19
538.664	27365.3
538.865	27054.01
539.065	26566.59
539.266	26157
539.466	26173.38
539.667	25782.22
539.868	25554.9
540.068	25237.46
540.269	24745.95
540.469	24567.77
540.67	24229.86
540.87	24244.2
541.071	23463.92
541.271	23476.21
541.472	23246.83
541.672	22949.88
541.873	22521.85
542.073	22030.34
542.274	22161.41
542.474	21886.98
542.675	21657.61
542.875	21520.4
543.075	21352.46
543.276	20559.9
543.476	21075.99
543.676	20451.36
543.877	20357.15
544.077	20441.12
544.277	19634.22
544.478	19656.75
544.678	19597.35
544.878	19071.03
545.078	19161.14
545.279	18855.99
545.479	18554.94
545.679	18466.88
545.879	18053.19
546.079	18010.18
546.28	17580.11
546.48	17424.46
546.68	17545.29
546.88	17129.55
547.08	17160.27
547.28	16572.5
547.48	16271.45
547.68	16576.6
547.88	16027.74
548.081	16062.56
548.281	15747.17
548.481	15513.7
548.681	15409.26
548.881	15313
549.081	15073.39
549.28	14700.66
549.48	14637.17
549.68	14426.23
549.88	14399.61
550.08	13942.91
550.28	13912.19
550.48	13922.43
550.68	13633.67
550.88	13174.92
551.08	13203.6
551.279	13074.57
551.479	12632.21
551.679	12742.8
551.879	12468.38
552.079	12394.65
552.278	12107.93
552.478	11952.29
552.678	11735.2
552.878	11770.02
553.077	11296.94
553.277	11206.83
553.477	11116.72
553.676	10705.07
553.876	10684.59
554.076	10723.51
554.275	10377.4
554.475	9973.95
554.674	10096.83
554.874	9853.12
555.074	9609.41
555.273	9543.88
555.473	9455.81
555.672	9306.31
555.872	9074.89
556.071	9040.08
556.271	9064.65
556.47	8747.22
556.67	8687.82
556.869	8665.3
557.068	8440.02
557.268	8200.41
557.467	8073.43
557.667	8030.43
557.866	7819.49
558.065	7772.38
558.265	7614.69
558.464	7473.38
558.663	7284.97
558.863	7448.8
559.062	7188.71
559.261	6842.6
559.461	7076.07
559.66	6600.94
559.859	6500.59
560.058	6361.33
560.258	6220.02
560.457	6306.04
560.656	6500.59
560.855	6027.51
561.054	6103.29
561.253	6033.66
561.453	5718.27
561.652	5769.47
561.851	5662.97
562.05	5419.27
562.249	5392.64
562.448	5368.07
562.647	5165.32
562.846	5337.35
563.045	5263.62
563.244	5095.69
563.443	5105.93
563.642	4628.75
563.841	4858.12
564.04	4845.84
564.239	4659.47
564.438	4692.24
564.637	4477.2
564.836	4475.15
565.035	4606.22
565.234	4440.34
565.432	4432.15
565.631	4372.75
565.83	4143.38
566.029	4061.46
566.228	4047.13
566.427	4110.61
566.625	3830.04
566.824	3873.05
567.023	3846.43
567.222	3858.71
567.42	3756.32
567.619	3676.45
567.818	3694.88
568.016	3647.77
568.215	3606.81
568.414	3531.04
568.612	3293.48
568.811	3651.87
569.01	3434.78
569.208	3303.71
569.407	3330.34
569.605	3139.88
569.804	3199.27
570.002	3143.97
570.201	3045.67
570.4	2941.22
570.598	2898.22
570.797	2853.16
570.995	2824.49
571.193	2830.63
571.392	2851.11
571.59	2681.13
571.789	2804.01
571.987	2840.87
572.186	2761
572.384	2597.17
572.582	2568.49
572.781	2634.03
572.979	2343.22
573.177	2453.81
573.376	2464.05
573.574	2480.43
573.772	2322.74
573.971	2437.42
574.169	2193.72
574.367	2199.86
574.565	2216.24
574.763	2224.44
574.962	2152.76
575.16	2025.78
575.358	2083.13
575.556	2087.22
575.754	2122.04
575.952	1927.48
576.151	1935.67
576.349	2009.4
576.547	1743.16
576.745	1835.32
576.943	1902.9
577.141	1780.03
577.339	1722.68
577.537	1728.83
577.735	1739.07
577.933	1691.96
578.131	1624.38
578.329	1663.29
578.527	1567.04
578.725	1591.61
578.923	1421.63
579.121	1556.8
579.319	1431.87
579.516	1374.53
579.714	1759.55
579.912	1515.84
580.11	1411.39
580.308	1358.14
580.506	1319.23
580.704	1210.69
580.901	1329.47
581.099	1569.09
581.297	1347.9
581.495	1292.61
581.692	1245.51
581.89	1380.67
582.088	1390.91
582.285	1143.11
582.483	1165.64
582.681	1229.12
582.878	1106.24
583.076	1192.26
583.274	1147.2
583.471	1325.38
583.669	1063.24
583.866	1040.71
584.064	1022.28
584.262	1001.8
584.459	928.07
584.657	1030.47
584.854	1073.48
585.052	1073.48
585.249	1096
585.447	985.41
585.644	860.49
585.841	983.37
586.039	946.5
586.236	915.78
586.434	883.02
586.631	872.78
586.828	891.21
587.026	919.88
587.223	883.02
587.42	670.03
587.618	887.11
587.815	952.65
588.012	868.68
588.21	819.53
588.407	856.39
588.604	876.87
588.801	747.85
588.999	739.66
589.196	782.67
589.393	700.75
589.59	729.42
589.787	837.96
589.984	805.19
590.182	776.52
590.379	694.6
590.576	706.89
590.773	700.75
590.97	770.38
591.167	661.84
591.364	721.23
591.561	684.36
591.758	776.52
591.955	803.15
592.152	803.15
592.349	643.4
592.546	713.03
592.743	653.64
592.94	665.93
593.137	676.17
593.334	801.1
593.531	811.34
593.727	710.99
593.924	715.08
594.121	690.51
594.318	719.18
594.515	774.47
594.712	840.01
594.908	862.54
595.105	624.97
595.302	717.13
595.499	813.38
595.696	909.64
595.892	713.03
596.089	823.62
596.286	807.24
596.482	975.17
596.679	946.5
596.876	889.16
597.072	1003.85
597.269	899.4
597.466	987.46
597.662	991.56
597.859	893.26
598.055	936.26
598.252	1057.09
598.448	1145.16
598.645	1227.07
598.841	1163.59
599.038	1331.52
599.234	1466.69
599.431	1399.1
599.627	1440.06
599.824	1415.49
600.02	1403.2
600.217	1546.56
600.413	1540.41
600.609	1591.61
600.806	2013.49
601.002	1773.88
601.198	1751.35
601.395	2033.97
601.591	1943.86
601.787	1952.06
601.984	2253.11
602.18	2351.41
602.376	2318.64
602.572	2365.75
602.769	2578.73
602.965	2478.38
603.161	2611.5
603.357	2728.24
603.553	2812.2
603.75	2777.39
603.946	3047.72
604.142	3072.29
604.338	3225.89
604.534	3279.14
604.73	3367.2
604.926	3457.31
605.122	3936.54
605.318	3649.82
605.514	3957.02
605.71	3846.43
605.906	4022.55
606.102	4200.73
606.298	4405.52
606.494	4452.63
606.69	4581.65
606.886	4598.03
607.082	4808.97
607.278	4825.36
607.474	5110.02
607.67	5204.23
607.866	5284.1
608.062	5662.97
608.257	5579.01
608.453	5806.33
608.649	6050.04
608.845	5974.27
609.041	6316.28
609.236	6551.79
609.432	6572.27
609.628	6805.74
609.824	7004.39
610.019	7207.14
610.215	7340.26
610.411	7571.68
610.606	7778.53
610.802	8042.71
610.998	8165.59
611.193	8382.68
611.389	8452.31
611.584	8923.34
611.78	8888.53
611.976	9208.01
612.171	9605.31
612.367	9695.43
612.562	9922.75
612.758	10107.07
612.953	10358.97
613.149	10838.19
613.344	11212.97
613.539	11407.53
613.735	11757.73
613.93	12009.63
614.126	12101.79
614.321	12853.39
614.517	12841.11
614.712	12865.68
614.907	13633.67
615.103	13871.23
615.298	14203
615.493	14645.37
615.688	14964.85
615.884	15491.18
616.079	15575.14
616.274	16085.09
616.47	16412.76
616.665	16816.21
616.86	17272.91
617.055	17729.61
617.25	17870.92
617.445	18821.17
617.641	18870.33
617.836	19456.04
618.031	19982.37
618.226	20353.05
618.421	20764.7
618.616	21510.16
618.811	21719.05
619.006	22749.18
619.201	22478.85
619.396	23691.24
619.591	23474.16
619.786	24145.89
619.981	24813.53
620.176	25339.86
620.371	25692.11
620.566	26261.44
620.761	26783.68
620.956	27506.61
621.151	27625.39
621.346	28700.58
621.541	28489.63
621.735	29396.88
621.93	30007.18
622.125	30652.29
622.32	30502.79
622.515	31758.19
622.709	31924.08
622.904	32882.53
623.099	33535.83
623.294	34076.49
623.488	34488.14
623.683	35188.54
623.878	35166.01
624.072	36411.18
624.267	37000.99
624.462	37635.86
624.656	37490.46
624.851	38530.83
625.046	38608.65
625.24	39749.37
625.435	39487.23
625.629	40601.32
625.824	40681.19
626.018	41854.68
626.213	41457.37
626.407	42520.27
626.602	42542.8
626.796	43136.71
626.991	43640.51
627.185	44017.33
627.38	44013.24
627.574	44820.14
627.768	44283.57
627.963	44906.15
628.157	44998.31
628.352	45598.37
628.546	44746.41
628.74	45571.74
628.935	44914.34
629.129	44955.3
629.323	44400.3
629.517	44650.16
629.712	44209.84
629.906	43566.78
630.1	43028.16
630.294	42981.06
630.489	41952.98
630.683	42276.56
630.877	41334.49
631.071	40195.82
631.265	39720.7
631.459	39149.31
631.653	37908.24
631.848	37297.95
632.042	36658.98
632.236	35997.49
632.43	34625.35
632.624	33840.98
632.818	32733.03
633.012	31489.91
633.206	30629.76
633.4	30080.91
633.594	28489.63
633.788	27748.27
633.982	26845.12
634.176	25989.06
634.369	24762.33
634.563	23867.37
634.757	22681.6
634.951	22462.46
635.145	21444.62
635.339	20631.58
635.533	19669.03
635.726	18763.83
635.92	18067.52
636.114	17438.8
636.308	16724.05
636.501	15974.5
636.695	15388.78
636.889	14696.57
637.083	14014.59
637.276	13707.4
637.47	13004.94
637.664	12269.72
637.857	11888.8
638.051	11423.91
638.244	11176.11
638.438	10510.52
638.632	10184.89
638.825	9883.84
639.019	9439.43
639.212	8741.07
639.406	8603.86
639.599	8167.64
639.793	7768.29
639.986	7588.07
640.18	7475.43
640.373	7176.42
640.567	6781.17
640.76	6510.83
640.954	6168.82
641.147	5900.54
641.34	5882.11
641.534	5658.88
641.727	5400.83
641.92	5239.05
642.114	4948.23
642.307	4845.84
642.5	4593.94
642.694	4421.91
642.887	4239.64
643.08	4182.29
643.273	4065.56
643.467	3815.71
643.66	3707.16
643.853	3494.18
644.046	3445.02
644.239	3348.77
644.432	3209.51
644.626	2998.57
644.819	2844.97
645.012	2861.35
645.205	2763.05
645.398	2838.83
645.591	2462
645.784	2384.18
645.977	2281.78
646.17	2359.6
646.363	2160.95
646.556	1927.48
646.749	1896.76
646.942	1950.01
647.135	1952.06
647.328	1773.88
647.521	1749.31
647.714	1599.8
647.907	1646.91
648.099	1470.78
648.292	1595.71
648.485	1562.94
648.678	1343.81
648.871	1358.14
649.064	1325.38
649.256	1028.42
649.449	1102.15
649.642	1012.04
649.835	1116.48
650.027	1032.52
650.22	1087.81
650.413	1040.71
650.605	1053
650.798	883.02
650.991	801.1
651.183	975.17
651.376	880.97
651.568	870.73
651.761	815.43
651.954	735.56
652.146	715.08
652.339	743.75
652.531	762.19
652.724	706.89
652.916	649.55
653.109	581.96
653.301	715.08
653.494	706.89
653.686	651.6
653.879	641.36
654.071	594.25
654.263	530.77
654.456	491.85
654.648	655.69
654.84	532.81
655.033	432.46
655.225	549.2
655.417	395.6
655.61	553.29
655.802	545.1
655.994	565.58
656.186	399.7
656.379	479.57
656.571	336.21
656.763	348.5
656.955	426.32
657.148	393.55
657.34	409.94
657.532	385.36
657.724	336.21
657.916	319.82
658.108	463.18
658.3	399.7
658.492	424.27
658.684	272.72
658.876	336.21
659.068	211.28
659.26	229.71
659.452	217.43
659.644	280.91
659.836	426.32
660.028	295.25
660.22	272.72
660.412	336.21
660.604	260.43
660.796	323.92
660.988	371.02
661.18	270.67
661.372	301.39
661.563	215.38
661.755	287.06
661.947	176.47
662.139	242
662.331	260.43
662.522	221.52
662.714	213.33
662.906	133.46
663.097	221.52
663.289	207.19
663.481	96.6
663.673	291.15
663.864	227.67
664.056	209.23
664.247	180.56
664.439	323.92
664.631	280.91
664.822	260.43
665.014	258.39
665.205	147.8
665.397	190.8
665.588	215.38
665.78	153.94
665.971	266.58
666.163	133.46
666.354	254.29
666.546	139.6
666.737	153.94
666.929	158.03
667.12	139.6
667.311	248.15
667.503	198.99
667.694	266.58
667.885	262.48
668.077	248.15
668.268	59.73
668.459	145.75
668.651	264.53
668.842	219.47
669.033	100.69
669.224	117.08
669.416	287.06
669.607	96.6
669.798	67.92
669.989	242
670.18	127.32
670.371	256.34
670.563	110.93
670.754	309.58
670.945	133.46
671.136	237.91
671.327	194.9
671.518	246.1
671.709	301.39
671.9	246.1
672.091	276.82
672.282	205.14
672.473	174.42
672.664	164.18
672.855	231.76
673.046	254.29
673.237	250.19
673.428	250.19
673.619	289.1
673.809	176.47
674	373.07
674.191	209.23
674.382	158.03
674.573	147.8
674.764	227.67
674.954	248.15
675.145	174.42
675.336	170.32
675.527	176.47
675.717	252.24
675.908	217.43
676.099	239.95
676.289	262.48
676.48	110.93
676.671	149.84
676.861	100.69
677.052	264.53
677.243	215.38
677.433	211.28
677.624	250.19
677.814	280.91
678.005	221.52
678.195	385.36
678.386	198.99
678.576	252.24
678.767	155.99
678.957	252.24
679.148	307.54
679.338	311.63
679.529	332.11
679.719	278.87
679.909	262.48
680.1	342.35
680.29	315.73
680.481	182.61
680.671	364.88
680.861	231.76
681.052	336.21
681.242	262.48
681.432	332.11
681.622	328.02
681.813	207.19
682.003	291.15
682.193	176.47
682.383	260.43
682.573	278.87
682.764	285.01
682.954	282.96
683.144	352.59
683.334	252.24
683.524	276.82
683.714	414.03
683.904	426.32
684.094	352.59
684.284	303.44
684.474	414.03
684.664	440.65
684.854	362.83
685.044	325.97
685.234	336.21
685.424	305.49
685.614	307.54
685.804	555.34
685.994	319.82
686.184	346.45
686.374	303.44
686.564	332.11
686.753	375.12
686.943	289.1
687.133	332.11
687.323	356.69
687.513	401.74
687.702	368.98
687.892	299.34
688.082	424.27
688.272	360.78
688.461	366.93
688.651	473.42
688.841	475.47
689.03	305.49
689.22	346.45
689.41	469.33
689.599	319.82
689.789	311.63
689.979	450.89
690.168	307.54
690.358	483.66
690.547	389.46
690.737	319.82
690.926	420.17
691.116	346.45
691.305	399.7
691.495	440.65
691.684	338.26
691.874	362.83
692.063	336.21
692.252	450.89
692.442	399.7
692.631	338.26
692.82	305.49
693.01	362.83
693.199	379.22
693.388	364.88
693.578	332.11
693.767	387.41
693.956	407.89
694.146	256.34
694.335	356.69
694.524	368.98
694.713	465.23
694.902	354.64
695.092	321.87
695.281	414.03
695.47	356.69
695.659	352.59
695.848	336.21
696.037	307.54
696.226	426.32
696.415	323.92
696.604	418.13
696.793	395.6
696.982	303.44
697.171	422.22
697.36	282.96
697.549	323.92
697.738	278.87
697.927	321.87
698.116	328.02
698.305	354.64
698.494	356.69
698.683	391.5
698.872	475.47
699.061	366.93
699.25	332.11
699.438	338.26
699.627	278.87
699.816	428.37
700.005	317.78
700.193	383.31
700.382	381.26
700.571	414.03
700.76	342.35
700.948	428.37
701.137	416.08
701.326	446.8
701.514	334.16
701.703	473.42
701.892	350.54
702.08	518.48
702.269	340.3
702.457	307.54
702.646	383.31
702.834	411.98
703.023	381.26
703.212	385.36
703.4	325.97
703.589	293.2
703.777	297.3
703.965	268.63
704.154	358.74
704.342	301.39
704.531	315.73
704.719	348.5
704.907	424.27
705.096	307.54
705.284	235.86
705.472	311.63
705.661	383.31
705.849	454.99
706.037	338.26
706.226	426.32
706.414	360.78
706.602	285.01
706.79	383.31
706.979	242
707.167	395.6
707.355	260.43
707.543	426.32
707.731	254.29
707.919	342.35
708.107	342.35
708.296	276.82
708.484	334.16
708.672	407.89
708.86	436.56
709.048	434.51
709.236	311.63
709.424	362.83
709.612	254.29
709.8	303.44
709.988	317.78
710.176	383.31
710.364	395.6
710.551	315.73
710.739	221.52
710.927	340.3
711.115	301.39
711.303	393.55
711.491	444.75
711.679	170.32
711.866	356.69
712.054	323.92
712.242	352.59
712.43	448.85
712.617	356.69
712.805	371.02
712.993	334.16
713.181	225.62
713.368	481.61
713.556	356.69
713.744	239.95
713.931	473.42
714.119	422.22
714.306	356.69
714.494	285.01
714.682	375.12
714.869	315.73
715.057	383.31
715.244	223.57
715.432	393.55
715.619	307.54
715.807	356.69
715.994	227.67
716.182	352.59
716.369	393.55
716.556	332.11
716.744	217.43
716.931	321.87
717.119	358.74
717.306	334.16
717.493	444.75
717.681	297.3
717.868	317.78
718.055	409.94
718.242	321.87
718.43	450.89
718.617	489.81
718.804	282.96
718.991	434.51
719.179	379.22
719.366	397.65
719.553	420.17
719.74	375.12
719.927	389.46
720.114	381.26
720.301	270.67
720.488	342.35
720.676	360.78
720.863	555.34
721.05	516.43
721.237	405.84
721.424	420.17
721.611	426.32
721.798	309.58
721.985	381.26
722.172	387.41
722.358	409.94
722.545	336.21
722.732	418.13
722.919	512.33
723.106	424.27
723.293	289.1
723.48	346.45
723.667	330.06
723.853	508.24
724.04	389.46
724.227	414.03
724.414	362.83
724.6	450.89
724.787	475.47
724.974	495.95
725.161	414.03
725.347	295.25
725.534	395.6
725.72	373.07
725.907	498
726.094	465.23
726.28	405.84
726.467	403.79
726.653	297.3
726.84	557.39
727.027	522.57
727.213	405.84
727.4	483.66
727.586	522.57
727.773	467.28
727.959	405.84
728.145	305.49
728.332	416.08
728.518	346.45
728.705	442.7
728.891	403.79
729.077	368.98
729.264	383.31
729.45	471.37
729.636	553.29
729.823	452.94
730.009	551.24
730.195	438.61
730.382	457.04
730.568	373.07
730.754	409.94
730.94	403.79
731.126	407.89
731.313	440.65
731.499	397.65
731.685	426.32
731.871	459.09
732.057	512.33
732.243	541.01
732.429	381.26
732.615	571.72
732.801	541.01
732.987	405.84
733.173	397.65
733.359	405.84
733.545	502.09
733.731	432.46
733.917	608.59
734.103	465.23
734.289	532.81
734.475	409.94
734.661	637.26
734.847	459.09
735.033	434.51
735.219	563.53
735.404	354.64
735.59	450.89
735.776	342.35
735.962	469.33
736.148	498
736.333	553.29
736.519	414.03
736.705	567.63
736.89	483.66
737.076	407.89
737.262	411.98
737.447	475.47
737.633	366.93
737.819	555.34
738.004	459.09
738.19	485.71
738.375	487.76
738.561	465.23
738.747	452.94
738.932	508.24
739.118	684.36
739.303	575.82
739.489	512.33
739.674	405.84
739.859	424.27
740.045	457.04
740.23	389.46
740.416	352.59
740.601	498
740.786	485.71
740.972	414.03
741.157	469.33
741.342	409.94
741.528	360.78
741.713	592.2
741.898	469.33
742.084	409.94
742.269	446.8
742.454	498
742.639	584.01
742.824	432.46
743.01	528.72
743.195	569.68
743.38	506.19
743.565	454.99
743.75	526.67
743.935	528.72
744.12	512.33
744.305	375.12
744.49	452.94
744.675	424.27
744.86	504.14
745.045	573.77
745.23	473.42
745.415	387.41
745.6	469.33
745.785	385.36
745.97	635.21
746.155	491.85
746.34	452.94
746.525	436.56
746.71	543.05
746.895	440.65
747.079	401.74
747.264	276.82
747.449	512.33
747.634	567.63
747.819	442.7
748.003	385.36
748.188	342.35
748.373	379.22
748.557	430.41
748.742	493.9
748.927	399.7
749.111	321.87
749.296	371.02
749.481	473.42
749.665	409.94
749.85	301.39
750.034	332.11
750.219	334.16
750.404	338.26
750.588	360.78
750.773	332.11
750.957	448.85
751.141	457.04
751.326	393.55
751.51	319.82
751.695	313.68
751.879	307.54
752.064	469.33
752.248	352.59
752.432	407.89
752.617	395.6
752.801	450.89
752.985	336.21
753.17	444.75
753.354	375.12
753.538	399.7
753.722	313.68
753.907	319.82
754.091	221.52
754.275	315.73
754.459	278.87
754.643	217.43
754.828	309.58
755.012	391.5
755.196	225.62
755.38	362.83
755.564	309.58
755.748	313.68
755.932	352.59
756.116	373.07
756.3	319.82
756.484	287.06
756.668	340.3
756.852	198.99
757.036	272.72
757.22	307.54
757.404	254.29
757.588	274.77
757.772	325.97
757.956	266.58
758.14	340.3
758.323	219.47
758.507	323.92
758.691	276.82
758.875	352.59
759.059	315.73
759.242	180.56
759.426	315.73
759.61	297.3
759.794	262.48
759.977	305.49
760.161	395.6
760.345	303.44
760.528	248.15
760.712	248.15
760.895	307.54
761.079	213.33
761.263	184.66
761.446	198.99
761.63	242
761.813	344.4
761.997	217.43
762.18	262.48
762.364	235.86
762.547	127.32
762.731	190.8
762.914	242
763.098	162.13
763.281	297.3
763.464	244.05
763.648	203.09
763.831	209.23
764.015	174.42
764.198	295.25
764.381	160.08
764.564	186.71
764.748	196.95
764.931	274.77
765.114	221.52
765.297	307.54
765.481	137.56
765.664	155.99
765.847	248.15
766.03	454.99
766.213	141.65
766.397	262.48
766.58	90.45
766.763	244.05
766.946	141.65
767.129	207.19
767.312	100.69
767.495	221.52
767.678	229.71
767.861	186.71
768.044	233.81
768.227	164.18
768.41	184.66
768.593	192.85
768.776	209.23
768.959	176.47
769.142	299.34
769.324	201.04
769.507	178.51
769.69	119.12
769.873	155.99
770.056	330.06
770.239	170.32
770.421	254.29
770.604	194.9
770.787	205.14
770.97	137.56
771.152	96.6
771.335	244.05
771.518	112.98
771.7	168.27
771.883	244.05
772.066	158.03
772.248	233.81
772.431	315.73
772.613	233.81
772.796	96.6
772.978	221.52
773.161	289.1
773.343	168.27
773.526	51.54
773.708	104.79
773.891	47.44
774.073	201.04
774.256	94.55
774.438	287.06
774.621	106.84
774.803	178.51
774.985	110.93
775.168	219.47
775.35	119.12
775.532	268.63
775.715	74.07
775.897	219.47
776.079	158.03
776.261	112.98
776.444	92.5
776.626	151.89
776.808	100.69
776.99	10.58
777.173	80.21
777.355	102.74
777.537	84.31
777.719	78.16
777.901	123.22
778.083	137.56
778.265	67.92
778.447	102.74
778.629	86.36
778.811	117.08
778.993	164.18
779.175	168.27
779.357	108.88
779.539	35.16
779.721	145.75
779.903	160.08
780.085	137.56
780.267	96.6
780.449	88.4
780.631	237.91
780.812	145.75
780.994	98.64
781.176	176.47
781.358	102.74
781.54	119.12
781.721	129.36
781.903	151.89
782.085	104.79
782.267	244.05
782.448	49.49
782.63	223.57
782.812	86.36
782.993	121.17
783.175	164.18
783.357	67.92
783.538	205.14
783.72	76.12
783.901	31.06
784.083	221.52
784.264	141.65
784.446	-32.43
784.627	24.92
784.809	90.45
784.99	129.36
785.172	135.51
785.353	94.55
785.535	190.8
785.716	102.74
785.897	8.53
786.079	121.17
786.26	203.09
786.441	164.18
786.623	26.96
786.804	-24.23
786.985	80.21
787.167	65.88
787.348	80.21
787.529	51.54
787.71	170.32
787.891	119.12
788.073	74.07
788.254	-36.52
788.435	149.84
788.616	88.4
788.797	41.3
788.978	41.3
789.159	55.64
789.34	102.74
789.522	102.74
789.703	59.73
789.884	49.49
790.065	192.85
790.246	164.18
790.427	53.59
790.607	266.58
790.788	100.69
790.969	16.73
791.15	194.9
791.331	37.2
791.512	2.39
791.693	-36.52
791.874	110.93
792.054	239.95
792.235	104.79
792.416	-7.85
792.597	51.54
792.778	117.08
792.958	82.26
793.139	80.21
793.32	49.49
793.5	-13.99
793.681	149.84
793.862	139.6
794.042	96.6
794.223	-5.8
794.404	72.02
794.584	2.39
794.765	6.49
794.945	74.07
795.126	180.56
795.306	80.21
795.487	-1.71
795.667	57.68
795.848	86.36
796.028	59.73
796.209	14.68
796.389	92.5
796.57	26.96
796.75	41.3
796.93	4.44
797.111	16.73
797.291	6.49
797.471	147.8
797.652	86.36
797.832	-13.99
798.012	121.17
798.192	-32.43
798.373	45.4
798.553	22.87
798.733	137.56
798.913	33.11
799.093	-63.15
799.274	59.73
799.454	127.32
799.634	147.8
799.814	108.88
799.994	57.68
800.174	112.98
800.354	45.4
800.534	-42.67
800.714	37.2
800.894	59.73
801.074	2.39
801.254	12.63
801.434	110.93
801.614	-44.71
801.794	22.87
801.974	1696.06
802.154	-7.85
802.334	137.56
802.514	-48.81
802.693	74.07
802.873	35.16
803.053	207.19
803.233	72.02
803.413	-30.38
803.592	-18.09
803.772	33.11
803.952	14.68
804.131	-34.47
804.311	98.64
804.491	135.51
804.67	-36.52
804.85	-16.04
805.03	35.16
805.209	125.27
805.389	-13.99
805.568	8.53
805.748	88.4
805.928	26.96
806.107	151.89
806.287	6.49
806.466	53.59
806.646	12.63
806.825	47.44
807.004	20.82
807.184	61.78
807.363	65.88
807.543	76.12
807.722	14.68
807.901	166.23
808.081	123.22
808.26	-118.44
808.439	80.21
808.619	53.59
808.798	-30.38
808.977	72.02
809.156	108.88
809.336	57.68
809.515	51.54
809.694	-93.87
809.873	41.3
810.052	102.74
810.231	180.56
810.411	16.73
810.59	196.95
810.769	26.96
810.948	76.12
811.127	-134.82
811.306	-77.48
811.485	-16.04
811.664	139.6
811.843	47.44
812.022	51.54
812.201	29.01
812.38	100.69
812.559	-18.09
812.737	49.49
812.916	-102.06
813.095	-26.28
813.274	12.63
813.453	84.31
813.632	123.22
813.811	117.08
813.989	-83.63
814.168	84.31
814.347	0.34
814.526	-16.04
814.704	133.46
814.883	127.32
815.062	39.25
815.24	6.49
815.419	-13.99
815.598	76.12
815.776	-120.49
815.955	-1.71
816.133	2.39
816.312	45.4
816.49	20.82
816.669	12.63
816.847	-36.52
817.026	82.26
817.204	65.88
817.383	8.53
817.561	-11.95
817.74	45.4
817.918	104.79
818.097	45.4
818.275	-38.57
818.453	98.64
818.632	82.26
818.81	8.53
818.988	6.49
819.167	-40.62
819.345	76.12
819.523	-100.01
819.701	86.36
819.879	69.97
820.058	43.35
820.236	31.06
820.414	39.25
820.592	29.01
820.77	33.11
820.948	84.31
821.127	12.63
821.305	82.26
821.483	29.01
821.661	69.97
821.839	86.36
822.017	-28.33
822.195	6.49
822.373	143.7
822.551	31.06
822.729	72.02
822.907	74.07
823.085	119.12
823.262	43.35
823.44	-28.33
823.618	22.87
823.796	39.25
823.974	43.35
824.152	-34.47
824.329	-30.38
824.507	-3.75
824.685	149.84
824.863	16.73
825.04	45.4
825.218	67.92
825.396	41.3
825.574	41.3
825.751	20.82
825.929	112.98
826.107	-11.95
826.284	67.92
826.462	-16.04
826.639	8.53
826.817	-106.15
826.994	35.16
827.172	-57
827.349	184.66
827.527	41.3
827.704	10.58
827.882	49.49
828.059	29.01
828.237	74.07
828.414	0.34
828.591	-100.01
828.769	-1.71
828.946	-7.85
829.124	153.94
829.301	84.31
829.478	-3.75
829.655	33.11
829.833	29.01
830.01	-136.87
830.187	20.82
830.364	59.73
830.542	-52.91
830.719	170.32
830.896	69.97
831.073	43.35
831.25	-7.85
831.427	82.26
831.604	61.78
831.782	-9.9
831.959	78.16
832.136	39.25
832.313	74.07
832.49	-1.71
832.667	61.78
832.844	-87.72
833.021	102.74
833.198	43.35
833.374	24.92
833.551	135.51
833.728	49.49
833.905	76.12
834.082	-79.53
834.259	41.3
834.436	123.22
834.612	-54.95
834.789	137.56
834.966	0.34
835.143	4.44
835.319	-97.96
835.496	80.21
835.673	86.36
835.85	123.22
836.026	76.12
836.203	94.55
836.38	-11.95
836.556	16.73
836.733	35.16
836.909	158.03
837.086	-16.04
837.262	12.63
837.439	26.96
837.616	-46.76
837.792	6.49
837.968	2.39
838.145	-67.24
838.321	53.59
838.498	-26.28
838.674	45.4
838.851	74.07
839.027	-50.86
839.203	31.06
839.38	49.49
839.556	29.01
839.732	22.87
839.909	14.68
840.085	16.73
840.261	26.96
840.437	39.25
840.614	2.39
840.79	162.13
840.966	65.88
841.142	67.92
841.318	-13.99
841.494	16.73
841.671	53.59
841.847	-59.05
842.023	-28.33
842.199	-40.62
842.375	108.88
842.551	-65.19
842.727	-71.34
842.903	123.22
843.079	-32.43
843.255	80.21
843.431	14.68
843.607	57.68
843.783	-106.15
843.959	74.07
844.134	-24.23
844.31	45.4
844.486	33.11
844.662	-38.57
844.838	129.36
845.013	137.56
845.189	41.3
845.365	24.92
845.541	6.49
845.716	41.3
845.892	80.21
846.068	-26.28
846.244	-52.91
846.419	49.49
846.595	-73.39
846.77	51.54
846.946	115.03
847.122	-28.33
847.297	2.39
847.473	61.78
847.648	-130.73
847.824	-24.23
847.999	-54.95
848.175	2.39
848.35	65.88
848.526	61.78
848.701	-22.19
848.876	127.32
849.052	102.74
849.227	96.6
849.403	20.82
849.578	39.25
849.753	94.55
849.929	82.26
850.104	-85.67
850.279	69.97
850.454	14.68
850.63	8.53
850.805	74.07
850.98	41.3
851.155	-5.8
851.33	-44.71
851.505	-71.34
851.681	96.6
851.856	-46.76
852.031	51.54
852.206	39.25
852.381	-30.38
852.556	61.78
852.731	100.69
852.906	72.02
853.081	8.53
853.256	174.42
853.431	53.59
853.606	-48.81
853.781	41.3
853.956	-79.53
854.131	49.49
854.305	-44.71
854.48	37.2
854.655	-59.05
854.83	-34.47
855.005	26.96
855.18	-3.75
855.354	-63.15
855.529	22.87
855.704	18.77
855.879	108.88
856.053	-149.16
856.228	45.4
856.403	-48.81
856.577	61.78
856.752	-73.39
856.926	29.01
857.101	98.64
857.276	-73.39
857.45	12.63
857.625	98.64
857.799	39.25
857.974	39.25
858.148	-44.71
858.323	59.73
858.497	-59.05
858.672	0.34
858.846	-46.76
859.02	26.96
859.195	-61.1
859.369	-20.14
859.543	-16.04
859.718	-1.71
859.892	-18.09
860.066	35.16
860.241	29.01
860.415	-67.24
860.589	2.39
860.763	37.2
860.938	-44.71
861.112	33.11
861.286	-9.9
861.46	74.07
861.634	35.16
861.808	-50.86
861.982	22.87
862.157	-30.38
862.331	-52.91
862.505	-77.48
862.679	-42.67
862.853	20.82
863.027	10.58
863.201	250.19
863.375	-7.85
863.549	-36.52
863.722	108.88
863.896	129.36
864.07	16.73
864.244	35.16
864.418	76.12
864.592	47.44
864.766	86.36
864.939	-48.81
865.113	49.49
865.287	104.79
865.461	-9.9
865.634	94.55
865.808	-50.86
865.982	4.44
866.156	-81.58
866.329	-57
866.503	-50.86
866.676	10.58
866.85	72.02
867.024	-40.62
867.197	63.83
867.371	31.06
867.544	24.92
867.718	-40.62
867.891	35.16
868.065	-40.62
868.238	-18.09
868.412	98.64
868.585	-28.33
868.759	-38.57
868.932	26.96
869.105	-30.38
869.279	4.44
869.452	-46.76
869.625	92.5
869.799	26.96
869.972	-44.71
870.145	-28.33
870.319	106.84
870.492	-28.33
870.665	-50.86
870.838	-61.1
871.011	-120.49
871.185	-7.85
871.358	-9.9
871.531	37.2
871.704	-46.76
871.877	18.77
872.05	16.73
872.223	-28.33
872.396	35.16
872.569	82.26
872.742	-89.77
872.915	39.25
873.088	-9.9
873.261	-11.95
873.434	16.73
873.607	-85.67
873.78	98.64
873.953	-30.38
874.126	90.45
874.299	86.36
874.471	-102.06
874.644	-22.19
874.817	119.12
874.99	139.6
875.163	-69.29
875.335	69.97
875.508	-3.75
875.681	90.45
875.853	-59.05
876.026	12.63
876.199	86.36
876.371	41.3
876.544	-61.1
876.717	47.44
876.889	4.44
877.062	31.06
877.234	-75.43
877.407	24.92
877.579	12.63
877.752	26.96
877.924	127.32
878.097	-11.95
878.269	147.8
878.442	18.77
878.614	90.45
878.786	24.92
878.959	-32.43
879.131	43.35
879.303	-108.2
879.476	-24.23
879.648	84.31
879.82	69.97
879.993	-3.75
880.165	14.68
880.337	-97.96
880.509	55.64
880.681	-46.76
880.854	-75.43
881.026	63.83
881.198	139.6
881.37	-34.47
881.542	76.12
881.714	-20.14
881.886	-20.14
882.058	-36.52
882.23	-3.75
882.402	-71.34
882.574	35.16
882.746	82.26
882.918	94.55
883.09	47.44
883.262	14.68
883.434	-5.8
883.606	-52.91
883.778	-87.72
883.95	125.27
884.122	45.4
884.293	49.49
884.465	0.34
884.637	31.06
884.809	-50.86
884.98	49.49
885.152	90.45
885.324	47.44
885.496	-71.34
885.667	12.63
885.839	-71.34
886.011	135.51
886.182	84.31
886.354	49.49
886.525	61.78
886.697	-1.71
886.869	-30.38
887.04	-52.91
887.212	143.7
887.383	121.17
887.555	57.68
887.726	8.53
887.897	-11.95
888.069	76.12
888.24	96.6
888.412	-5.8
888.583	-57
888.754	8.53
888.926	-48.81
889.097	-20.14
889.268	-13.99
889.44	22.87
889.611	-61.1
889.782	-48.81
889.953	-54.95
890.125	78.16
890.296	-40.62
890.467	8.53
890.638	-36.52
890.809	-11.95
890.98	-114.34
891.151	29.01
891.323	110.93
891.494	6.49
891.665	16.73
891.836	22.87
892.007	-54.95
892.178	2.39
892.349	18.77
892.52	-5.8
892.691	-30.38
892.862	10.58
893.032	-116.39
893.203	-13.99
893.374	43.35
893.545	53.59
893.716	12.63
893.887	41.3
894.057	-40.62
894.228	45.4
894.399	31.06
894.57	102.74
894.74	14.68
894.911	110.93
895.082	10.58
895.253	12.63
895.423	37.2
895.594	35.16
895.764	57.68
895.935	-28.33
896.106	45.4
896.276	-75.43
896.447	74.07
896.617	-50.86
896.788	-57
896.958	-16.04
897.129	26.96
897.299	-22.19
897.47	151.89
897.64	76.12
897.81	-13.99
897.981	33.11
898.151	-52.91
898.322	51.54
898.492	14.68
898.662	-50.86
898.832	-75.43
899.003	-48.81
899.173	96.6
899.343	37.2
899.513	0.34
