Data from USB4F104151__3__11-24-12-808.txt Node

Date: Wed Feb 26 11:24:12 EST 2025
User: louis
Spectrometer: USB4F10415
Trigger mode: 4
Integration Time (sec): 1.000000E-1
Scans to average: 1
Electric dark correction enabled: true
Nonlinearity correction enabled: false
Boxcar width: 0
XAxis mode: Wavelengths
Number of Pixels in Spectrum: 3648
>>>>>Begin Spectral Data<<<<<
178.204	-444.07
178.424	-444.07
178.644	-444.07
178.864	-409.25
179.084	-401.06
179.304	-22.19
179.524	18.77
179.744	-48.81
179.964	78.16
180.184	59.73
180.404	-24.23
180.624	-59.05
180.844	-50.86
181.064	-59.05
181.283	49.49
181.503	2.39
181.723	55.64
181.943	-75.43
182.163	182.61
182.383	-36.52
182.602	92.5
182.822	174.42
183.042	80.21
183.262	-30.38
183.482	47.44
183.701	-46.76
183.921	49.49
184.141	-9.9
184.361	92.5
184.58	31.06
184.8	92.5
185.02	-32.43
185.239	78.16
185.459	80.21
185.679	119.12
185.898	-136.87
186.118	47.44
186.338	94.55
186.557	135.51
186.777	0.34
186.997	-63.15
187.216	14.68
187.436	172.37
187.655	82.26
187.875	137.56
188.095	29.01
188.314	108.88
188.534	76.12
188.753	4.44
188.973	147.8
189.192	186.71
189.412	4.44
189.631	57.68
189.851	88.4
190.07	178.51
190.29	-85.67
190.509	14.68
190.729	37.2
190.948	82.26
191.168	239.95
191.387	125.27
191.607	37.2
191.826	127.32
192.045	74.07
192.265	14.68
192.484	31.06
192.704	29.01
192.923	-42.67
193.142	123.22
193.362	129.36
193.581	166.23
193.8	55.64
194.02	-5.8
194.239	14.68
194.458	131.41
194.678	-3.75
194.897	-5.8
195.116	29.01
195.335	26.96
195.555	22.87
195.774	22.87
195.993	80.21
196.212	41.3
196.432	-3.75
196.651	84.31
196.87	-44.71
197.089	258.39
197.308	59.73
197.528	82.26
197.747	-63.15
197.966	-71.34
198.185	108.88
198.404	-52.91
198.623	51.54
198.842	96.6
199.062	80.21
199.281	29.01
199.5	69.97
199.719	2.39
199.938	149.84
200.157	125.27
200.376	123.22
200.595	115.03
200.814	8.53
201.033	47.44
201.252	162.13
201.471	-13.99
201.69	76.12
201.909	-32.43
202.128	160.08
202.347	94.55
202.566	-30.38
202.785	-9.9
203.004	45.4
203.223	297.3
203.442	20.82
203.661	-34.47
203.879	57.68
204.098	149.84
204.317	35.16
204.536	110.93
204.755	10.58
204.974	178.51
205.193	-13.99
205.411	112.98
205.63	119.12
205.849	55.64
206.068	-22.19
206.287	-36.52
206.505	231.76
206.724	29.01
206.943	-26.28
207.162	-18.09
207.381	63.83
207.599	65.88
207.818	12.63
208.037	-32.43
208.255	53.59
208.474	53.59
208.693	82.26
208.911	10.58
209.13	110.93
209.349	84.31
209.567	24.92
209.786	65.88
210.005	106.84
210.223	72.02
210.442	-171.69
210.661	-32.43
210.879	84.31
211.098	0.34
211.316	16.73
211.535	141.65
211.753	39.25
211.972	37.2
212.191	-63.15
212.409	88.4
212.628	108.88
212.846	-20.14
213.065	14.68
213.283	80.21
213.502	-16.04
213.72	39.25
213.938	49.49
214.157	6.49
214.375	59.73
214.594	12.63
214.812	96.6
215.031	88.4
215.249	-3.75
215.467	24.92
215.686	22.87
215.904	4.44
216.122	63.83
216.341	92.5
216.559	35.16
216.778	139.6
216.996	98.64
217.214	102.74
217.432	6.49
217.651	8.53
217.869	-59.05
218.087	39.25
218.306	-24.23
218.524	104.79
218.742	43.35
218.96	53.59
219.179	-46.76
219.397	84.31
219.615	227.67
219.833	82.26
220.051	22.87
220.27	121.17
220.488	92.5
220.706	37.2
220.924	-9.9
221.142	-65.19
221.36	18.77
221.578	115.03
221.796	12.63
222.015	6.49
222.233	100.69
222.451	201.04
222.669	-65.19
222.887	86.36
223.105	43.35
223.323	104.79
223.541	12.63
223.759	14.68
223.977	84.31
224.195	153.94
224.413	35.16
224.631	74.07
224.849	90.45
225.067	186.71
225.285	37.2
225.503	12.63
225.721	-102.06
225.939	4.44
226.157	29.01
226.375	192.85
226.592	31.06
226.81	84.31
227.028	141.65
227.246	160.08
227.464	-3.75
227.682	129.36
227.9	115.03
228.117	88.4
228.335	69.97
228.553	153.94
228.771	0.34
228.989	-22.19
229.206	49.49
229.424	29.01
229.642	-5.8
229.86	-28.33
230.077	84.31
230.295	-46.76
230.513	129.36
230.731	96.6
230.948	209.23
231.166	121.17
231.384	18.77
231.601	-20.14
231.819	129.36
232.037	-7.85
232.254	8.53
232.472	-9.9
232.689	12.63
232.907	160.08
233.125	-26.28
233.342	18.77
233.56	22.87
233.777	18.77
233.995	31.06
234.213	121.17
234.43	160.08
234.648	14.68
234.865	-34.47
235.083	65.88
235.3	74.07
235.518	84.31
235.735	180.56
235.953	94.55
236.17	24.92
236.388	119.12
236.605	26.96
236.822	67.92
237.04	31.06
237.257	33.11
237.475	-77.48
237.692	-46.76
237.909	67.92
238.127	-3.75
238.344	76.12
238.562	10.58
238.779	-38.57
238.996	-40.62
239.214	26.96
239.431	-18.09
239.648	37.2
239.865	74.07
240.083	72.02
240.3	41.3
240.517	-40.62
240.735	26.96
240.952	76.12
241.169	96.6
241.386	39.25
241.603	45.4
241.821	0.34
242.038	12.63
242.255	190.8
242.472	-40.62
242.689	8.53
242.907	86.36
243.124	115.03
243.341	-13.99
243.558	-13.99
243.775	-63.15
243.992	-3.75
244.209	115.03
244.426	131.41
244.643	24.92
244.86	88.4
245.078	106.84
245.295	63.83
245.512	45.4
245.729	14.68
245.946	41.3
246.163	16.73
246.38	47.44
246.597	12.63
246.814	-32.43
247.031	90.45
247.248	39.25
247.464	115.03
247.681	108.88
247.898	41.3
248.115	88.4
248.332	24.92
248.549	78.16
248.766	131.41
248.983	84.31
249.2	112.98
249.417	22.87
249.633	6.49
249.85	82.26
250.067	51.54
250.284	139.6
250.501	59.73
250.717	147.8
250.934	2.39
251.151	14.68
251.368	-26.28
251.585	96.6
251.801	82.26
252.018	-7.85
252.235	88.4
252.451	-34.47
252.668	33.11
252.885	92.5
253.102	94.55
253.318	-16.04
253.535	18.77
253.752	-59.05
253.968	-67.24
254.185	-3.75
254.401	55.64
254.618	96.6
254.835	-24.23
255.051	96.6
255.268	10.58
255.484	86.36
255.701	10.58
255.917	80.21
256.134	-73.39
256.351	0.34
256.567	-22.19
256.784	41.3
257	18.77
257.217	115.03
257.433	108.88
257.65	4.44
257.866	155.99
258.082	-30.38
258.299	22.87
258.515	51.54
258.732	108.88
258.948	-30.38
259.165	10.58
259.381	20.82
259.597	92.5
259.814	33.11
260.03	-1.71
260.246	47.44
260.463	170.32
260.679	137.56
260.895	39.25
261.112	80.21
261.328	-20.14
261.544	59.73
261.761	178.51
261.977	-3.75
262.193	-61.1
262.409	72.02
262.626	-67.24
262.842	24.92
263.058	-46.76
263.274	182.61
263.49	55.64
263.707	29.01
263.923	100.69
264.139	-102.06
264.355	24.92
264.571	45.4
264.787	53.59
265.004	84.31
265.22	80.21
265.436	-20.14
265.652	6.49
265.868	39.25
266.084	-1.71
266.3	-13.99
266.516	-102.06
266.732	78.16
266.948	26.96
267.164	2.39
267.38	57.68
267.596	24.92
267.812	84.31
268.028	63.83
268.244	-11.95
268.46	35.16
268.676	20.82
268.892	69.97
269.108	65.88
269.324	-57
269.54	4.44
269.756	74.07
269.972	-34.47
270.188	22.87
270.403	-24.23
270.619	20.82
270.835	92.5
271.051	-20.14
271.267	72.02
271.483	-20.14
271.698	129.36
271.914	98.64
272.13	47.44
272.346	-46.76
272.562	-9.9
272.777	117.08
272.993	49.49
273.209	18.77
273.425	139.6
273.64	4.44
273.856	141.65
274.072	-34.47
274.287	53.59
274.503	2.39
274.719	133.46
274.934	-42.67
275.15	-28.33
275.366	26.96
275.581	14.68
275.797	53.59
276.012	82.26
276.228	53.59
276.444	133.46
276.659	92.5
276.875	-11.95
277.09	12.63
277.306	57.68
277.521	29.01
277.737	2.39
277.952	47.44
278.168	22.87
278.383	53.59
278.599	110.93
278.814	94.55
279.03	35.16
279.245	117.08
279.461	57.68
279.676	153.94
279.892	-93.87
280.107	-65.19
280.322	39.25
280.538	63.83
280.753	-28.33
280.969	41.3
281.184	-20.14
281.399	149.84
281.615	18.77
281.83	24.92
282.045	-91.82
282.26	4.44
282.476	49.49
282.691	110.93
282.906	49.49
283.122	63.83
283.337	-52.91
283.552	78.16
283.767	-1.71
283.983	57.68
284.198	57.68
284.413	92.5
284.628	-46.76
284.843	16.73
285.058	121.17
285.274	84.31
285.489	37.2
285.704	106.84
285.919	-9.9
286.134	6.49
286.349	29.01
286.564	16.73
286.779	139.6
286.995	2.39
287.21	0.34
287.425	100.69
287.64	12.63
287.855	84.31
288.07	-132.78
288.285	125.27
288.5	115.03
288.715	29.01
288.93	35.16
289.145	31.06
289.36	123.22
289.575	-1.71
289.79	125.27
290.004	16.73
290.219	86.36
290.434	31.06
290.649	0.34
290.864	41.3
291.079	-3.75
291.294	33.11
291.509	121.17
291.724	26.96
291.938	82.26
292.153	57.68
292.368	-20.14
292.583	24.92
292.798	39.25
293.012	49.49
293.227	76.12
293.442	33.11
293.657	104.79
293.871	137.56
294.086	125.27
294.301	162.13
294.516	121.17
294.73	74.07
294.945	-22.19
295.16	-13.99
295.374	39.25
295.589	147.8
295.804	-24.23
296.018	57.68
296.233	155.99
296.447	67.92
296.662	47.44
296.877	94.55
297.091	24.92
297.306	43.35
297.52	16.73
297.735	53.59
297.949	43.35
298.164	24.92
298.378	82.26
298.593	-69.29
298.807	-1.71
299.022	53.59
299.236	110.93
299.451	49.49
299.665	12.63
299.88	102.74
300.094	137.56
300.309	51.54
300.523	33.11
300.737	-61.1
300.952	80.21
301.166	61.78
301.381	-26.28
301.595	26.96
301.809	78.16
302.024	41.3
302.238	-7.85
302.452	172.37
302.667	96.6
302.881	168.27
303.095	29.01
303.309	33.11
303.524	-1.71
303.738	49.49
303.952	-22.19
304.166	45.4
304.381	-91.82
304.595	94.55
304.809	43.35
305.023	37.2
305.237	39.25
305.452	31.06
305.666	127.32
305.88	84.31
306.094	47.44
306.308	139.6
306.522	96.6
306.736	53.59
306.95	39.25
307.164	-44.71
307.379	65.88
307.593	160.08
307.807	151.89
308.021	78.16
308.235	69.97
308.449	-57
308.663	8.53
308.877	250.19
309.091	33.11
309.305	78.16
309.519	-93.87
309.733	182.61
309.947	-34.47
310.161	63.83
310.374	112.98
310.588	182.61
310.802	41.3
311.016	24.92
311.23	22.87
311.444	-16.04
311.658	16.73
311.872	106.84
312.085	94.55
312.299	137.56
312.513	94.55
312.727	59.73
312.941	-91.82
313.154	37.2
313.368	6.49
313.582	57.68
313.796	88.4
314.009	14.68
314.223	106.84
314.437	100.69
314.651	106.84
314.864	-42.67
315.078	-32.43
315.292	-42.67
315.505	-97.96
315.719	63.83
315.933	24.92
316.146	61.78
316.36	-24.23
316.573	127.32
316.787	22.87
317.001	86.36
317.214	-9.9
317.428	4.44
317.641	18.77
317.855	12.63
318.068	-3.75
318.282	96.6
318.495	180.56
318.709	72.02
318.922	55.64
319.136	190.8
319.349	112.98
319.563	16.73
319.776	78.16
319.99	-40.62
320.203	155.99
320.417	39.25
320.63	112.98
320.843	137.56
321.057	80.21
321.27	61.78
321.483	106.84
321.697	151.89
321.91	-9.9
322.124	88.4
322.337	59.73
322.55	-30.38
322.763	96.6
322.977	4.44
323.19	12.63
323.403	20.82
323.617	80.21
323.83	125.27
324.043	-32.43
324.256	43.35
324.469	-100.01
324.683	86.36
324.896	33.11
325.109	65.88
325.322	-102.06
325.535	115.03
325.748	110.93
325.962	8.53
326.175	69.97
326.388	145.75
326.601	72.02
326.814	31.06
327.027	72.02
327.24	65.88
327.453	-73.39
327.666	100.69
327.879	31.06
328.092	80.21
328.305	108.88
328.518	-18.09
328.731	63.83
328.944	31.06
329.157	59.73
329.37	12.63
329.583	192.85
329.796	123.22
330.009	65.88
330.222	92.5
330.435	104.79
330.648	14.68
330.861	55.64
331.073	125.27
331.286	92.5
331.499	51.54
331.712	6.49
331.925	35.16
332.138	55.64
332.35	57.68
332.563	-36.52
332.776	125.27
332.989	-34.47
333.202	-40.62
333.414	-75.43
333.627	67.92
333.84	22.87
334.053	106.84
334.265	-54.95
334.478	-22.19
334.691	65.88
334.903	43.35
335.116	16.73
335.329	63.83
335.541	94.55
335.754	186.71
335.966	39.25
336.179	-48.81
336.392	51.54
336.604	76.12
336.817	110.93
337.029	100.69
337.242	10.58
337.454	129.36
337.667	35.16
337.88	219.47
338.092	18.77
338.305	100.69
338.517	16.73
338.729	57.68
338.942	162.13
339.154	-5.8
339.367	22.87
339.579	98.64
339.792	0.34
340.004	43.35
340.217	94.55
340.429	39.25
340.641	-7.85
340.854	-28.33
341.066	90.45
341.278	147.8
341.491	221.52
341.703	33.11
341.915	-1.71
342.128	92.5
342.34	65.88
342.552	-85.67
342.764	-48.81
342.977	12.63
343.189	-18.09
343.401	29.01
343.613	-50.86
343.826	10.58
344.038	39.25
344.25	35.16
344.462	10.58
344.674	76.12
344.886	55.64
345.099	129.36
345.311	112.98
345.523	-5.8
345.735	-52.91
345.947	65.88
346.159	4.44
346.371	106.84
346.583	-40.62
346.795	225.62
347.007	45.4
347.219	69.97
347.431	-18.09
347.643	174.42
347.855	8.53
348.067	74.07
348.279	-1.71
348.491	-11.95
348.703	61.78
348.915	10.58
349.127	43.35
349.339	90.45
349.551	-50.86
349.763	100.69
349.975	33.11
350.187	104.79
350.399	127.32
350.61	147.8
350.822	-28.33
351.034	84.31
351.246	112.98
351.458	51.54
351.669	112.98
351.881	117.08
352.093	102.74
352.305	74.07
352.517	137.56
352.728	123.22
352.94	65.88
353.152	-16.04
353.363	10.58
353.575	57.68
353.787	129.36
353.999	6.49
354.21	94.55
354.422	24.92
354.633	43.35
354.845	80.21
355.057	39.25
355.268	72.02
355.48	78.16
355.692	-63.15
355.903	18.77
356.115	-52.91
356.326	-114.34
356.538	112.98
356.749	67.92
356.961	86.36
357.172	22.87
357.384	2.39
357.595	229.71
357.807	0.34
358.018	0.34
358.23	-34.47
358.441	139.6
358.653	59.73
358.864	129.36
359.075	0.34
359.287	131.41
359.498	137.56
359.709	69.97
359.921	6.49
360.132	43.35
360.344	2.39
360.555	69.97
360.766	94.55
360.977	37.2
361.189	151.89
361.4	-1.71
361.611	84.31
361.823	92.5
362.034	72.02
362.245	-65.19
362.456	37.2
362.667	145.75
362.879	-22.19
363.09	43.35
363.301	74.07
363.512	10.58
363.723	39.25
363.935	43.35
364.146	127.32
364.357	-30.38
364.568	61.78
364.779	-73.39
364.99	129.36
365.201	65.88
365.412	133.46
365.623	6.49
365.834	78.16
366.045	39.25
366.256	39.25
366.467	162.13
366.678	29.01
366.889	110.93
367.1	69.97
367.311	123.22
367.522	90.45
367.733	119.12
367.944	121.17
368.155	20.82
368.366	98.64
368.577	6.49
368.788	104.79
368.999	16.73
369.209	39.25
369.42	221.52
369.631	170.32
369.842	94.55
370.053	-24.23
370.264	166.23
370.474	-18.09
370.685	96.6
370.896	41.3
371.107	166.23
371.317	57.68
371.528	92.5
371.739	209.23
371.95	33.11
372.16	96.6
372.371	-3.75
372.582	-18.09
372.792	51.54
373.003	76.12
373.214	55.64
373.424	53.59
373.635	47.44
373.846	100.69
374.056	74.07
374.267	47.44
374.477	-7.85
374.688	-42.67
374.898	47.44
375.109	147.8
375.319	61.78
375.53	74.07
375.74	57.68
375.951	-46.76
376.161	119.12
376.372	20.82
376.582	-28.33
376.793	51.54
377.003	0.34
377.214	-42.67
377.424	39.25
377.635	0.34
377.845	0.34
378.055	139.6
378.266	-26.28
378.476	92.5
378.686	26.96
378.897	29.01
379.107	115.03
379.317	61.78
379.528	-7.85
379.738	55.64
379.948	-128.68
380.158	178.51
380.369	41.3
380.579	110.93
380.789	10.58
380.999	115.03
381.21	129.36
381.42	225.62
381.63	31.06
381.84	63.83
382.05	115.03
382.261	155.99
382.471	92.5
382.681	-5.8
382.891	166.23
383.101	72.02
383.311	-30.38
383.521	-20.14
383.731	108.88
383.941	184.66
384.151	41.3
384.361	51.54
384.571	78.16
384.781	35.16
384.991	174.42
385.201	203.09
385.411	131.41
385.621	-5.8
385.831	6.49
386.041	10.58
386.251	53.59
386.461	155.99
386.671	78.16
386.881	78.16
387.091	33.11
387.301	127.32
387.511	53.59
387.72	98.64
387.93	76.12
388.14	-48.81
388.35	18.77
388.56	80.21
388.769	96.6
388.979	20.82
389.189	-1.71
389.399	29.01
389.609	115.03
389.818	55.64
390.028	39.25
390.238	67.92
390.447	-7.85
390.657	22.87
390.867	14.68
391.076	-87.72
391.286	74.07
391.496	-1.71
391.705	131.41
391.915	153.94
392.125	155.99
392.334	-3.75
392.544	145.75
392.753	125.27
392.963	-18.09
393.172	51.54
393.382	-16.04
393.591	227.67
393.801	41.3
394.01	176.47
394.22	121.17
394.429	6.49
394.639	16.73
394.848	59.73
395.058	149.84
395.267	51.54
395.477	63.83
395.686	104.79
395.895	217.43
396.105	180.56
396.314	112.98
396.524	22.87
396.733	24.92
396.942	162.13
397.152	106.84
397.361	94.55
397.57	51.54
397.78	-1.71
397.989	129.36
398.198	149.84
398.407	49.49
398.617	14.68
398.826	39.25
399.035	55.64
399.244	127.32
399.453	16.73
399.663	67.92
399.872	53.59
400.081	26.96
400.29	155.99
400.499	-24.23
400.708	129.36
400.917	43.35
401.127	47.44
401.336	35.16
401.545	188.75
401.754	215.38
401.963	115.03
402.172	59.73
402.381	-75.43
402.59	57.68
402.799	59.73
403.008	69.97
403.217	76.12
403.426	80.21
403.635	-40.62
403.844	4.44
404.053	12.63
404.262	49.49
404.471	151.89
404.68	57.68
404.888	-11.95
405.097	59.73
405.306	31.06
405.515	80.21
405.724	59.73
405.933	123.22
406.142	139.6
406.35	129.36
406.559	139.6
406.768	-9.9
406.977	176.47
407.185	147.8
407.394	65.88
407.603	47.44
407.812	96.6
408.02	117.08
408.229	-20.14
408.438	155.99
408.646	-67.24
408.855	35.16
409.064	143.7
409.272	37.2
409.481	80.21
409.69	-32.43
409.898	-40.62
410.107	0.34
410.315	129.36
410.524	-42.67
410.733	12.63
410.941	26.96
411.15	55.64
411.358	125.27
411.567	227.67
411.775	0.34
411.984	112.98
412.192	69.97
412.401	12.63
412.609	88.4
412.818	188.75
413.026	41.3
413.234	-16.04
413.443	35.16
413.651	8.53
413.86	61.78
414.068	176.47
414.276	153.94
414.485	-24.23
414.693	143.7
414.901	242
415.11	119.12
415.318	80.21
415.526	-18.09
415.734	92.5
415.943	57.68
416.151	112.98
416.359	33.11
416.567	18.77
416.776	131.41
416.984	133.46
417.192	172.37
417.4	14.68
417.608	31.06
417.817	-34.47
418.025	133.46
418.233	158.03
418.441	45.4
418.649	-32.43
418.857	72.02
419.065	57.68
419.273	-40.62
419.481	43.35
419.689	80.21
419.897	-9.9
420.105	-3.75
420.313	90.45
420.521	141.65
420.729	172.37
420.937	-42.67
421.145	41.3
421.353	69.97
421.561	190.8
421.769	110.93
421.977	-13.99
422.185	106.84
422.393	18.77
422.601	145.75
422.809	92.5
423.017	18.77
423.224	86.36
423.432	47.44
423.64	14.68
423.848	170.32
424.056	-71.34
424.263	106.84
424.471	43.35
424.679	196.95
424.887	26.96
425.094	117.08
425.302	82.26
425.51	86.36
425.718	170.32
425.925	63.83
426.133	86.36
426.341	149.84
426.548	57.68
426.756	88.4
426.964	98.64
427.171	24.92
427.379	129.36
427.586	94.55
427.794	55.64
428.001	178.51
428.209	86.36
428.417	145.75
428.624	92.5
428.832	92.5
429.039	162.13
429.247	121.17
429.454	217.43
429.662	198.99
429.869	137.56
430.076	108.88
430.284	188.75
430.491	170.32
430.699	174.42
430.906	248.15
431.114	184.66
431.321	203.09
431.528	106.84
431.736	133.46
431.943	215.38
432.15	123.22
432.358	131.41
432.565	211.28
432.772	55.64
432.979	201.04
433.187	133.46
433.394	209.23
433.601	123.22
433.808	244.05
434.016	252.24
434.223	305.49
434.43	182.61
434.637	244.05
434.844	299.34
435.052	229.71
435.259	250.19
435.466	274.77
435.673	221.52
435.88	221.52
436.087	291.15
436.294	338.26
436.501	395.6
436.708	340.3
436.915	246.1
437.122	442.7
437.329	225.62
437.537	336.21
437.743	362.83
437.95	489.81
438.157	346.45
438.364	397.65
438.571	346.45
438.778	444.75
438.985	520.53
439.192	541.01
439.399	426.32
439.606	454.99
439.813	514.38
440.02	661.84
440.227	725.32
440.433	518.48
440.64	581.96
440.847	520.53
441.054	571.72
441.261	659.79
441.467	692.55
441.674	641.36
441.881	768.33
442.088	717.13
442.294	782.67
442.501	776.52
442.708	842.06
442.914	878.92
443.121	842.06
443.328	948.55
443.534	917.83
443.741	909.64
443.948	913.74
444.154	981.32
444.361	1225.03
444.568	1102.15
444.774	1124.68
444.981	938.31
445.187	1200.45
445.394	1206.59
445.6	1132.87
445.807	1448.26
446.013	1374.53
446.22	1188.16
446.426	1511.74
446.633	1597.76
446.839	1597.76
447.046	1464.64
447.252	1669.44
447.459	1671.48
447.665	1730.87
447.871	1800.51
448.078	2056.5
448.284	2005.3
448.491	2130.23
448.697	2085.17
448.903	2257.2
449.11	2289.97
449.316	2316.59
449.522	2560.3
449.728	2613.55
449.935	2552.11
450.141	2629.93
450.347	2894.12
450.553	2830.63
450.76	2961.7
450.966	3072.29
451.172	3215.65
451.378	3223.84
451.584	3229.99
451.791	3522.85
451.997	3602.72
452.203	3641.63
452.409	4038.94
452.615	4051.22
452.821	3877.15
453.027	3834.14
453.233	4471.06
453.44	4325.65
453.646	4618.51
453.852	4806.92
454.058	5032.2
454.264	5095.69
454.47	5544.19
454.676	5585.15
454.882	5851.39
455.088	5720.32
455.294	5982.46
455.5	6543.6
455.705	6842.6
455.911	6762.73
456.117	7031.02
456.323	7215.34
456.529	7086.31
456.735	7860.45
456.941	8089.82
457.147	8356.05
457.352	8558.8
457.558	8892.62
457.764	9390.28
457.97	9609.41
458.176	9846.98
458.381	10459.32
458.587	10770.61
458.793	11047.08
458.999	11206.83
459.204	12456.09
459.41	12875.92
459.616	12726.42
459.821	13623.43
460.027	14157.95
460.233	14831.73
460.438	14839.92
460.644	15503.46
460.85	15761.51
461.055	16582.74
461.261	17274.96
461.466	16955.47
461.672	17393.74
461.878	19329.07
462.083	19277.87
462.289	19619.88
462.494	20125.73
462.7	20424.73
462.905	20756.5
463.111	22321.15
463.316	23375.86
463.522	23795.69
463.727	24942.55
463.932	25845.71
464.138	26726.33
464.343	27492.27
464.549	27445.17
464.754	29427.6
464.959	30562.18
465.165	31010.68
465.37	30691.2
465.575	31033.21
465.781	32835.42
465.986	33830.74
466.191	33333.08
466.397	33787.73
466.602	33023.84
466.807	34877.25
467.012	35112.77
467.218	36077.36
467.423	36122.41
467.628	37300
467.833	39012.1
468.038	38070.03
468.244	37388.06
468.449	39583.48
468.654	38653.7
468.859	38745.86
469.064	38838.02
469.269	37803.8
469.474	38321.93
469.679	39116.54
469.885	38289.17
470.09	38541.07
470.295	38889.22
470.5	37760.79
470.705	38414.09
470.91	37318.43
471.115	37164.83
471.32	37750.55
471.525	37416.73
471.73	36069.17
471.935	35897.14
472.139	34586.44
472.344	34664.26
472.549	34283.34
472.754	33627.99
472.959	33288.03
473.164	31950.7
473.369	31760.24
473.574	32534.37
473.778	31770.48
473.983	31387.51
474.188	30707.58
474.393	28952.48
474.598	29144.98
474.802	28374.95
475.007	28086.18
475.212	28180.39
475.417	26881.98
475.621	26668.99
475.826	26005.45
476.031	25606.09
476.235	25311.19
476.44	25208.79
476.645	24469.47
476.849	24043.49
477.054	23711.72
477.259	23439.34
477.463	23250.93
477.668	22806.52
477.872	22530.05
478.077	21950.47
478.282	21311.5
478.486	20971.54
478.691	20883.48
478.895	20733.98
479.1	20363.29
479.304	20412.45
479.509	19554.35
479.713	19871.78
479.918	19595.31
480.122	19048.5
480.326	19443.76
480.531	19068.98
480.735	19101.75
480.94	18610.23
481.144	19263.54
481.348	18137.15
481.553	18507.83
481.757	17887.3
481.961	17809.48
482.166	18198.59
482.37	17971.27
482.574	17512.52
482.778	17508.43
482.983	17791.05
483.187	17492.04
483.391	17281.1
483.595	17070.16
483.8	16869.46
484.004	16531.55
484.208	16848.98
484.412	16453.72
484.616	16287.84
484.821	16156.77
485.025	15781.99
485.229	15833.19
485.433	15325.29
485.637	15638.63
485.841	15071.34
486.045	15032.43
486.249	14946.42
486.453	14538.87
486.657	14246.01
486.861	14334.07
487.065	13807.75
487.269	13654.15
487.473	13322.38
487.677	13559.94
487.881	13443.21
488.085	12871.82
488.289	12992.66
488.493	12370.07
488.697	12390.55
488.901	12288.15
489.105	11774.11
489.309	11763.87
489.512	11479.21
489.716	11165.87
489.92	11081.9
490.124	10920.11
490.328	10815.66
490.531	10531
490.735	10528.95
490.939	10100.92
491.143	10014.91
491.346	9857.21
491.55	9836.74
491.754	9701.57
491.958	9654.47
492.161	9236.68
492.365	9162.95
492.569	8736.98
492.772	8947.92
492.976	8804.56
493.18	8468.69
493.383	8745.17
493.587	8341.72
493.79	8485.08
493.994	8106.2
494.197	8276.18
494.401	8222.94
494.605	7889.12
494.808	7971.04
495.012	7946.46
495.215	7921.88
495.419	7702.75
495.622	7586.02
495.825	7477.48
496.029	7579.87
496.232	7663.84
496.436	7430.37
496.639	7700.7
496.843	7536.87
497.046	7440.61
497.249	7622.88
497.453	7454.95
497.656	7491.81
497.859	7500
498.063	7508.19
498.266	7678.18
498.469	7393.51
498.673	7510.24
498.876	7469.28
499.079	7477.48
499.282	7479.52
499.485	7856.35
499.689	7694.56
499.892	7919.84
500.095	7708.9
500.298	7842.01
500.501	7678.18
500.705	8012
500.908	8050.91
501.111	8272.09
501.314	8200.41
501.517	8380.63
501.72	8489.17
501.923	8345.81
502.126	8566.99
502.329	8622.29
502.532	8734.93
502.735	8759.5
502.938	9056.46
503.141	8894.67
503.344	8952.01
503.547	9091.27
503.75	9339.08
503.953	9324.74
504.156	9564.36
504.359	9824.45
504.562	9812.16
504.765	9791.68
504.968	10148.03
505.17	10356.92
505.373	10356.92
505.576	10473.65
505.779	10703.03
505.982	10694.83
506.185	11051.18
506.387	11241.64
506.59	11518.12
506.793	11690.15
506.996	12026.01
507.198	12359.83
507.401	12204.19
507.604	12435.61
507.807	12718.23
508.009	12988.56
508.212	13316.23
508.415	13490.31
508.617	13801.6
508.82	14098.56
509.022	14162.05
509.225	14690.42
509.428	14880.88
509.63	15163.5
509.833	15366.25
510.035	16124
510.238	16218.21
510.44	16623.7
510.643	16961.62
510.845	17066.06
511.048	17657.93
511.25	18128.96
511.453	18468.92
511.655	18997.3
511.858	19306.54
512.06	19816.49
512.262	20228.13
512.465	20256.8
512.667	20877.33
512.87	21127.19
513.072	21819.4
513.274	22544.38
513.477	22798.33
513.679	23246.83
513.881	24080.36
514.084	24293.35
514.286	24881.11
514.488	25296.85
514.69	26308.55
514.893	26613.7
515.095	27103.16
515.297	27733.93
515.499	27994.03
515.701	28512.16
515.904	29050.78
516.106	29853.58
516.308	30836.61
516.51	31334.26
516.712	31594.36
516.914	32440.17
517.116	33021.79
517.318	33531.73
517.52	33806.16
517.722	34641.73
517.925	35442.49
518.127	35856.18
518.329	37170.97
518.531	36474.66
518.733	37768.98
518.935	38186.77
519.136	39042.82
519.338	39831.29
519.54	40269.55
519.742	41340.64
519.944	41217.76
520.146	42292.94
520.348	42780.36
520.55	43196.1
520.752	43542.2
520.954	44904.1
521.155	44533.42
521.357	45688.48
521.559	45969.05
521.761	46714.51
521.963	46687.88
522.164	47341.19
522.366	47625.85
522.568	47955.58
522.77	48428.66
522.971	49065.58
523.173	48383.6
523.375	49413.73
523.576	49606.24
523.778	49284.71
523.98	50361.94
524.181	50286.17
524.383	50126.42
524.584	51084.87
524.786	50433.62
524.988	50122.33
525.189	51056.2
525.391	51437.12
525.592	51752.51
525.794	51256.9
525.995	50771.53
526.197	50982.48
526.398	51211.85
526.6	51203.66
526.801	51387.97
527.003	51000.91
527.204	50849.36
527.406	50880.08
527.607	50447.96
527.808	50724.43
528.01	49256.04
528.211	49604.19
528.412	49491.55
528.614	49614.43
528.815	48737.9
529.016	49313.38
529.218	48113.27
529.419	48107.13
529.62	47240.84
529.822	46900.87
530.023	46741.13
530.224	46438.03
530.425	46038.68
530.626	45088.42
530.828	44777.13
531.029	45080.23
531.23	44076.72
531.431	43099.84
531.632	43333.31
531.833	42993.35
532.035	42407.63
532.236	41610.97
532.437	41283.3
532.638	40390.38
532.839	40363.76
533.04	40064.75
533.241	38926.08
533.442	39427.84
533.643	38557.45
533.844	38012.69
534.045	37650.2
534.246	36599.59
534.447	36497.19
534.648	35577.65
534.849	35856.18
535.05	34512.71
535.251	34635.59
535.451	33978.19
535.652	33595.22
535.853	33294.17
536.054	32700.26
536.255	32622.44
536.456	31616.88
536.657	31977.33
536.857	31121.27
537.058	30570.37
537.259	30508.93
537.46	29605.78
537.66	28995.48
537.861	28985.24
538.062	28540.83
538.263	28069.8
538.463	28139.43
538.664	27471.79
538.865	27344.82
539.065	26980.28
539.266	26390.47
539.466	26744.77
539.667	25767.88
539.868	26175.43
540.068	25329.62
540.269	24889.31
540.469	24991.7
540.67	24367.07
540.87	24084.45
541.071	24014.82
541.271	23539.69
541.472	23343.09
541.672	22853.62
541.873	22919.16
542.073	22087.68
542.274	22708.22
542.474	22122.5
542.675	21583.88
542.875	21751.82
543.075	21481.49
543.276	20871.19
543.476	21030.93
543.676	20588.57
543.877	20303.9
544.077	20357.15
544.277	20043.81
544.478	19601.45
544.678	19744.81
544.878	19324.97
545.078	19355.69
545.279	18593.85
545.479	18751.54
545.679	18264.13
545.879	18253.89
546.079	18313.28
546.28	17627.21
546.48	17367.12
546.68	17571.91
546.88	17354.83
547.08	17086.54
547.28	16588.89
547.48	16326.75
547.68	16474.2
547.88	15925.35
548.081	15960.16
548.281	15542.38
548.481	15501.42
548.681	15501.42
548.881	15177.84
549.081	14968.94
549.28	14620.79
549.48	14610.55
549.68	14291.07
549.88	14395.51
550.08	13777.03
550.28	13838.47
550.48	13711.49
550.68	13392.01
550.88	13342.86
551.08	13066.38
551.279	12791.95
551.479	12595.35
551.679	12480.66
551.879	12368.02
552.079	12247.19
552.278	11954.33
552.478	11835.55
552.678	11628.71
552.878	11679.91
553.077	11385
553.277	10983.6
553.477	10995.89
553.676	11032.75
553.876	10602.68
554.076	10512.56
554.275	10412.21
554.475	9959.61
554.674	9996.48
554.874	9869.5
555.074	9429.19
555.273	9564.36
555.473	9423.05
555.672	9238.73
555.872	8984.78
556.071	9017.55
556.271	8988.88
556.47	8583.38
556.67	8319.19
556.869	8333.53
557.068	8329.43
557.268	8065.24
557.467	8001.76
557.667	8089.82
557.866	7612.64
558.065	7645.41
558.265	7293.16
558.464	7354.6
558.663	7301.35
558.863	7076.07
559.062	7176.42
559.261	6936.81
559.461	6865.13
559.66	6746.35
559.859	6572.27
560.058	6267.13
560.258	6220.02
560.457	6211.83
560.656	6418.68
560.855	5906.68
561.054	6009.08
561.253	5785.85
561.453	5765.37
561.652	5693.69
561.851	5554.43
562.05	5513.47
562.249	5327.11
562.448	5476.61
562.647	5249.29
562.846	5157.13
563.045	5253.38
563.244	4974.86
563.443	5036.3
563.642	4811.02
563.841	4858.12
564.04	4725.01
564.239	4813.07
564.438	4690.19
564.637	4462.87
564.836	4395.28
565.035	4464.91
565.234	4323.6
565.432	4323.6
565.631	4094.23
565.83	4200.73
566.029	4106.52
566.228	3993.88
566.427	4047.13
566.625	3932.44
566.824	3852.57
567.023	3793.18
567.222	3809.56
567.42	3600.67
567.619	3717.4
567.818	3811.61
568.016	3719.45
568.215	3410.21
568.414	3504.42
568.612	3399.97
568.811	3303.71
569.01	3424.55
569.208	3279.14
569.407	3318.05
569.605	3143.97
569.804	3139.88
570.002	3064.1
570.201	2937.13
570.4	2961.7
570.598	2906.41
570.797	2875.69
570.995	2728.24
571.193	2892.07
571.392	2801.96
571.59	2718
571.789	2785.58
571.987	2648.36
572.186	2738.48
572.384	2572.59
572.582	2650.41
572.781	2664.75
572.979	2437.42
573.177	2427.18
573.376	2525.49
573.574	2402.61
573.772	2259.25
573.971	2230.58
574.169	2177.33
574.367	2326.83
574.565	2220.34
574.763	2042.17
574.962	2167.09
575.16	1997.11
575.358	2103.61
575.556	2068.79
575.754	1986.87
575.952	1925.43
576.151	2091.32
576.349	1990.97
576.547	1820.99
576.745	1763.64
576.943	1790.27
577.141	1710.4
577.339	1517.89
577.537	1771.83
577.735	1804.6
577.933	1689.92
578.131	1532.22
578.329	1763.64
578.527	1491.26
578.725	1712.44
578.923	1519.93
579.121	1509.69
579.319	1444.16
579.516	1460.54
579.714	1653.05
579.912	1454.4
580.11	1409.34
580.308	1317.19
580.506	1349.95
580.704	1118.53
580.901	1343.81
581.099	1431.87
581.297	1368.38
581.495	1327.43
581.692	1292.61
581.89	1317.19
582.088	1139.01
582.285	1251.65
582.483	1190.21
582.681	1087.81
582.878	1106.24
583.076	1128.77
583.274	1171.78
583.471	1227.07
583.669	1106.24
583.866	1005.89
584.064	971.08
584.262	960.84
584.459	964.93
584.657	975.17
584.854	1046.85
585.052	1036.61
585.249	969.03
585.447	977.22
585.644	803.15
585.841	1018.18
586.039	946.5
586.236	973.13
586.434	846.15
586.631	768.33
586.828	846.15
587.026	833.86
587.223	747.85
587.42	786.76
587.618	928.07
587.815	831.82
588.012	794.95
588.21	721.23
588.407	735.56
588.604	856.39
588.801	743.75
588.999	756.04
589.196	866.63
589.393	680.27
589.59	706.89
589.787	829.77
589.984	686.41
590.182	733.51
590.379	588.11
590.576	729.42
590.773	710.99
590.97	710.99
591.167	790.86
591.364	760.14
591.561	647.5
591.758	706.89
591.955	737.61
592.152	719.18
592.349	577.87
592.546	604.49
592.743	657.74
592.94	590.16
593.137	725.32
593.334	749.9
593.531	764.23
593.727	741.71
593.924	745.8
594.121	684.36
594.318	735.56
594.515	680.27
594.712	878.92
594.908	870.73
595.105	653.64
595.302	776.52
595.499	704.84
595.696	860.49
595.892	733.51
596.089	719.18
596.286	696.65
596.482	866.63
596.679	827.72
596.876	702.79
597.072	950.6
597.269	870.73
597.466	903.5
597.662	823.62
597.859	819.53
598.055	1009.99
598.252	948.55
598.448	1096
598.645	1028.42
598.841	1157.44
599.038	1237.31
599.234	1231.17
599.431	1202.5
599.627	1210.69
599.824	1364.29
600.02	1261.89
600.217	1325.38
600.413	1388.86
600.609	1483.07
600.806	1753.4
601.002	1585.47
601.198	1462.59
601.395	1827.13
601.591	1720.64
601.787	1777.98
601.984	1892.66
602.18	1968.44
602.376	1986.87
602.572	2144.56
602.769	2181.43
602.965	2224.44
603.161	2320.69
603.357	2451.76
603.553	2591.02
603.75	2562.35
603.946	2543.92
604.142	2720.04
604.338	2937.13
604.534	3029.29
604.73	3010.86
604.926	3029.29
605.122	3209.51
605.318	3330.34
605.514	3494.18
605.71	3504.42
605.906	3645.73
606.102	3658.01
606.298	3942.68
606.494	4081.94
606.69	4241.68
606.886	4092.18
607.082	4251.92
607.278	4399.38
607.474	4471.06
607.67	4798.73
607.866	4731.15
608.062	5011.72
608.257	5071.11
608.453	5034.25
608.649	5357.83
608.845	5523.71
609.041	5558.53
609.236	5785.85
609.432	5824.76
609.628	6107.38
609.824	6140.15
610.019	6492.4
610.215	6635.76
610.411	6852.84
610.606	7155.94
610.802	7106.79
610.998	7481.57
611.193	7502.05
611.389	7592.16
611.584	7821.53
611.78	7917.79
611.976	8216.79
612.171	8749.26
612.367	8661.2
612.562	9044.17
612.758	9285.83
612.953	9234.63
613.149	9832.64
613.344	9865.41
613.539	10356.92
613.735	10492.09
613.93	10739.89
614.126	10965.17
614.321	11346.09
614.517	11536.55
614.712	11929.76
614.907	12075.17
615.103	12279.96
615.298	12779.67
615.493	13123.73
615.688	13410.44
615.884	13871.23
616.079	13930.62
616.274	14608.5
616.47	14850.16
616.665	15110.25
616.86	15765.6
617.055	15781.99
617.25	16310.36
617.445	16998.48
617.641	17154.13
617.836	17762.37
618.031	17948.74
618.226	18520.12
618.421	18868.28
618.616	19480.62
618.811	19441.71
619.006	20144.16
619.201	20535.32
619.396	21438.48
619.591	21022.74
619.786	22075.4
619.981	22073.35
620.176	23005.17
620.371	22927.35
620.566	23681
620.761	24670.17
620.956	25026.52
621.151	24905.69
621.346	25933.77
621.541	25702.35
621.735	26777.53
621.93	26806.2
622.125	27598.77
622.32	27883.44
622.515	28589.99
622.709	29140.89
622.904	29683.6
623.099	29927.31
623.294	30920.57
623.488	30867.33
623.683	31829.87
623.878	31942.51
624.072	32730.98
624.267	33445.72
624.462	33744.72
624.656	33996.62
624.851	34961.22
625.046	35047.23
625.24	35624.76
625.435	36009.78
625.629	36560.68
625.824	37250.84
626.018	37996.31
626.213	37715.73
626.407	38635.27
626.602	38856.45
626.796	39472.89
626.991	39843.57
627.185	40261.36
627.38	40414.96
627.574	40589.03
627.768	40869.61
627.963	40881.89
628.157	40963.81
628.352	41567.96
628.546	40783.59
628.74	41682.65
628.935	41121.51
629.129	41400.03
629.323	40789.73
629.517	40896.23
629.712	40580.84
629.906	40324.85
630.1	39249.66
630.294	40005.36
630.489	39304.96
630.683	39143.17
630.877	38041.36
631.071	37785.36
631.265	37256.99
631.459	36435.75
631.653	35497.78
631.848	34910.02
632.042	34119.5
632.236	33185.63
632.43	32501.61
632.624	32018.28
632.818	30959.48
633.012	29663.12
633.206	28907.42
633.4	28262.31
633.594	27029.43
633.788	26480.58
633.982	25526.22
634.176	24694.75
634.369	23721.96
634.563	22878.2
634.757	21626.89
634.951	21415.95
635.145	20109.35
635.339	19644.46
635.533	18774.07
635.726	18149.44
635.92	17418.32
636.114	16640.09
636.308	16199.77
636.501	15384.68
636.695	14725.24
636.889	14145.66
637.083	13664.39
637.276	12810.39
637.47	12370.07
637.664	12017.82
637.857	11436.2
638.051	11106.48
638.244	10627.25
638.438	10158.27
638.632	9976
638.825	9244.87
639.019	9013.45
639.212	8671.44
639.406	8327.38
639.599	7872.73
639.793	7692.51
639.986	7381.22
640.18	7166.18
640.373	6676.72
640.567	6545.65
640.76	6363.38
640.954	6301.94
641.147	5855.48
641.34	5519.62
641.534	5325.06
641.727	5228.81
641.92	4970.76
642.114	4845.84
642.307	4579.6
642.5	4495.63
642.694	4221.2
642.887	4137.24
643.08	4153.62
643.273	3864.86
643.467	3760.41
643.66	3604.77
643.853	3381.54
644.046	3246.37
644.239	3182.88
644.432	2935.08
644.626	2959.66
644.819	2758.96
645.012	2746.67
645.205	2558.25
645.398	2550.06
645.591	2425.14
645.784	2287.92
645.977	2249.01
646.17	2142.52
646.363	1988.92
646.556	1812.79
646.749	1831.23
646.942	1855.8
647.135	1863.99
647.328	1734.97
647.521	1724.73
647.714	1591.61
647.907	1575.23
648.099	1388.86
648.292	1517.89
648.485	1345.86
648.678	1335.62
648.871	1229.12
649.064	1343.81
649.256	1165.64
649.449	1128.77
649.642	1022.28
649.835	995.65
650.027	966.98
650.22	1057.09
650.413	938.31
650.605	950.6
650.798	862.54
650.991	874.82
651.183	833.86
651.376	831.82
651.568	766.28
651.761	831.82
651.954	837.96
652.146	737.61
652.339	739.66
652.531	723.27
652.724	520.53
652.916	624.97
653.109	506.19
653.301	710.99
653.494	661.84
653.686	555.34
653.879	620.88
654.071	633.16
654.263	463.18
654.456	516.43
654.648	674.12
654.84	495.95
655.033	463.18
655.225	536.91
655.417	377.17
655.61	528.72
655.802	420.17
655.994	508.24
656.186	297.3
656.379	485.71
656.571	221.52
656.763	258.39
656.955	336.21
657.148	334.16
657.34	418.13
657.532	317.78
657.724	344.4
657.916	348.5
658.108	354.64
658.3	313.68
658.492	242
658.684	319.82
658.876	389.46
659.068	252.24
659.26	227.67
659.452	166.23
659.644	237.91
659.836	395.6
660.028	280.91
660.22	254.29
660.412	209.23
660.604	225.62
660.796	205.14
660.988	256.34
661.18	211.28
661.372	348.5
661.563	274.77
661.755	293.2
661.947	203.09
662.139	176.47
662.331	211.28
662.522	180.56
662.714	188.75
662.906	186.71
663.097	133.46
663.289	141.65
663.481	104.79
663.673	262.48
663.864	201.04
664.056	174.42
664.247	133.46
664.439	291.15
664.631	307.54
664.822	239.95
665.014	158.03
665.205	205.14
665.397	129.36
665.588	221.52
665.78	112.98
665.971	176.47
666.163	110.93
666.354	196.95
666.546	106.84
666.737	135.51
666.929	155.99
667.12	160.08
667.311	158.03
667.503	209.23
667.694	223.57
667.885	205.14
668.077	160.08
668.268	59.73
668.459	237.91
668.651	250.19
668.842	231.76
669.033	35.16
669.224	76.12
669.416	389.46
669.607	168.27
669.798	53.59
669.989	219.47
670.18	151.89
670.371	178.51
670.563	147.8
670.754	246.1
670.945	229.71
671.136	233.81
671.327	88.4
671.518	211.28
671.709	264.53
671.9	211.28
672.091	242
672.282	174.42
672.473	129.36
672.664	117.08
672.855	90.45
673.046	174.42
673.237	198.99
673.428	147.8
673.619	139.6
673.809	96.6
674	270.67
674.191	239.95
674.382	115.03
674.573	123.22
674.764	67.92
674.954	274.77
675.145	143.7
675.336	166.23
675.527	168.27
675.717	139.6
675.908	86.36
676.099	174.42
676.289	205.14
676.48	14.68
676.671	137.56
676.861	260.43
677.052	231.76
677.243	155.99
677.433	207.19
677.624	178.51
677.814	201.04
678.005	74.07
678.195	291.15
678.386	209.23
678.576	168.27
678.767	96.6
678.957	160.08
679.148	235.86
679.338	282.96
679.529	155.99
679.719	205.14
679.909	264.53
680.1	201.04
680.29	252.24
680.481	201.04
680.671	233.81
680.861	282.96
681.052	188.75
681.242	198.99
681.432	276.82
681.622	215.38
681.813	100.69
682.003	194.9
682.193	176.47
682.383	229.71
682.573	178.51
682.764	254.29
682.954	254.29
683.144	317.78
683.334	172.37
683.524	246.1
683.714	244.05
683.904	287.06
684.094	231.76
684.284	225.62
684.474	323.92
684.664	358.74
684.854	262.48
685.044	303.44
685.234	256.34
685.424	237.91
685.614	272.72
685.804	375.12
685.994	330.06
686.184	198.99
686.374	278.87
686.564	196.95
686.753	231.76
686.943	246.1
687.133	149.84
687.323	209.23
687.513	260.43
687.702	188.75
687.892	223.57
688.082	332.11
688.272	270.67
688.461	258.39
688.651	338.26
688.841	307.54
689.03	262.48
689.22	266.58
689.41	280.91
689.599	305.49
689.789	153.94
689.979	352.59
690.168	198.99
690.358	291.15
690.547	225.62
690.737	274.77
690.926	262.48
691.116	280.91
691.305	352.59
691.495	289.1
691.684	133.46
691.874	205.14
692.063	239.95
692.252	254.29
692.442	235.86
692.631	172.37
692.82	164.18
693.01	248.15
693.199	233.81
693.388	262.48
693.578	258.39
693.767	237.91
693.956	254.29
694.146	205.14
694.335	280.91
694.524	225.62
694.713	276.82
694.902	196.95
695.092	158.03
695.281	186.71
695.47	166.23
695.659	248.15
695.848	262.48
696.037	188.75
696.226	264.53
696.415	244.05
696.604	295.25
696.793	272.72
696.982	242
697.171	375.12
697.36	196.95
697.549	205.14
697.738	110.93
697.927	155.99
698.116	153.94
698.305	252.24
698.494	180.56
698.683	143.7
698.872	362.83
699.061	252.24
699.25	207.19
699.438	237.91
699.627	209.23
699.816	313.68
700.005	104.79
700.193	194.9
700.382	301.39
700.571	305.49
700.76	274.77
700.948	291.15
701.137	178.51
701.326	280.91
701.514	196.95
701.703	264.53
701.892	239.95
702.08	379.22
702.269	219.47
702.457	180.56
702.646	205.14
702.834	239.95
703.023	274.77
703.212	203.09
703.4	285.01
703.589	164.18
703.777	149.84
703.965	188.75
704.154	258.39
704.342	209.23
704.531	110.93
704.719	258.39
704.907	270.67
705.096	153.94
705.284	168.27
705.472	301.39
705.661	231.76
705.849	356.69
706.037	244.05
706.226	272.72
706.414	242
706.602	170.32
706.79	242
706.979	147.8
707.167	231.76
707.355	129.36
707.543	297.3
707.731	252.24
707.919	287.06
708.107	168.27
708.296	147.8
708.484	153.94
708.672	256.34
708.86	147.8
709.048	155.99
709.236	162.13
709.424	219.47
709.612	239.95
709.8	125.27
709.988	182.61
710.176	289.1
710.364	342.35
710.551	229.71
710.739	225.62
710.927	162.13
711.115	203.09
711.303	217.43
711.491	301.39
711.679	143.7
711.866	328.02
712.054	170.32
712.242	166.23
712.43	377.17
712.617	194.9
712.805	311.63
712.993	209.23
713.181	166.23
713.368	301.39
713.556	145.75
713.744	188.75
713.931	342.35
714.119	332.11
714.306	149.84
714.494	205.14
714.682	237.91
714.869	96.6
715.057	180.56
715.244	110.93
715.432	254.29
715.619	106.84
715.807	145.75
715.994	223.57
716.182	225.62
716.369	239.95
716.556	282.96
716.744	135.51
716.931	106.84
717.119	186.71
717.306	176.47
717.493	344.4
717.681	155.99
717.868	213.33
718.055	233.81
718.242	227.67
718.43	264.53
718.617	244.05
718.804	209.23
718.991	313.68
719.179	213.33
719.366	248.15
719.553	239.95
719.74	252.24
719.927	153.94
720.114	217.43
720.301	162.13
720.488	137.56
720.676	151.89
720.863	313.68
721.05	313.68
721.237	223.57
721.424	354.64
721.611	258.39
721.798	207.19
721.985	188.75
722.172	233.81
722.358	217.43
722.545	313.68
722.732	264.53
722.919	420.17
723.106	328.02
723.293	250.19
723.48	258.39
723.667	225.62
723.853	280.91
724.04	330.06
724.227	227.67
724.414	231.76
724.6	360.78
724.787	332.11
724.974	459.09
725.161	268.63
725.347	153.94
725.534	334.16
725.72	301.39
725.907	334.16
726.094	330.06
726.28	198.99
726.467	258.39
726.653	295.25
726.84	430.41
727.027	434.51
727.213	256.34
727.4	332.11
727.586	383.31
727.773	305.49
727.959	317.78
728.145	276.82
728.332	301.39
728.518	219.47
728.705	323.92
728.891	319.82
729.077	301.39
729.264	239.95
729.45	375.12
729.636	387.41
729.823	299.34
730.009	368.98
730.195	301.39
730.382	274.77
730.568	196.95
730.754	305.49
730.94	264.53
731.126	368.98
731.313	352.59
731.499	289.1
731.685	342.35
731.871	352.59
732.057	381.26
732.243	354.64
732.429	342.35
732.615	459.09
732.801	383.31
732.987	274.77
733.173	223.57
733.359	330.06
733.545	336.21
733.731	293.2
733.917	334.16
734.103	313.68
734.289	330.06
734.475	285.01
734.661	393.55
734.847	350.54
735.033	282.96
735.219	389.46
735.404	239.95
735.59	227.67
735.776	303.44
735.962	424.27
736.148	434.51
736.333	403.79
736.519	358.74
736.705	360.78
736.89	346.45
737.076	354.64
737.262	184.66
737.447	237.91
737.633	328.02
737.819	444.75
738.004	368.98
738.19	346.45
738.375	446.8
738.561	401.74
738.747	268.63
738.932	248.15
739.118	471.37
739.303	399.7
739.489	344.4
739.674	301.39
739.859	315.73
740.045	309.58
740.23	319.82
740.416	155.99
740.601	358.74
740.786	301.39
740.972	321.87
741.157	346.45
741.342	209.23
741.528	174.42
741.713	459.09
741.898	321.87
742.084	340.3
742.269	399.7
742.454	424.27
742.639	420.17
742.824	340.3
743.01	452.94
743.195	469.33
743.38	307.54
743.565	301.39
743.75	407.89
743.935	360.78
744.12	387.41
744.305	272.72
744.49	350.54
744.675	328.02
744.86	282.96
745.045	393.55
745.23	307.54
745.415	332.11
745.6	442.7
745.785	321.87
745.97	450.89
746.155	385.36
746.34	430.41
746.525	299.34
746.71	391.5
746.895	242
747.079	258.39
747.264	342.35
747.449	366.93
747.634	405.84
747.819	303.44
748.003	305.49
748.188	229.71
748.373	360.78
748.557	362.83
748.742	305.49
748.927	334.16
749.111	338.26
749.296	266.58
749.481	276.82
749.665	315.73
749.85	244.05
750.034	311.63
750.219	330.06
750.404	303.44
750.588	313.68
750.773	217.43
750.957	225.62
751.141	346.45
751.326	280.91
751.51	121.17
751.695	223.57
751.879	301.39
752.064	409.94
752.248	192.85
752.432	409.94
752.617	373.07
752.801	285.01
752.985	158.03
753.17	282.96
753.354	215.38
753.538	248.15
753.722	203.09
753.907	252.24
754.091	211.28
754.275	342.35
754.459	201.04
754.643	133.46
754.828	323.92
755.012	248.15
755.196	168.27
755.38	203.09
755.564	274.77
755.748	295.25
755.932	225.62
756.116	237.91
756.3	270.67
756.484	164.18
756.668	289.1
756.852	63.83
757.036	147.8
757.22	262.48
757.404	192.85
757.588	229.71
757.772	242
757.956	172.37
758.14	272.72
758.323	239.95
758.507	221.52
758.691	258.39
758.875	276.82
759.059	262.48
759.242	227.67
759.426	186.71
759.61	184.66
759.794	112.98
759.977	207.19
760.161	395.6
760.345	270.67
760.528	313.68
760.712	250.19
760.895	164.18
761.079	133.46
761.263	155.99
761.446	145.75
761.63	121.17
761.813	192.85
761.997	43.35
762.18	192.85
762.364	190.8
762.547	65.88
762.731	143.7
762.914	108.88
763.098	100.69
763.281	112.98
763.464	112.98
763.648	164.18
763.831	162.13
764.015	149.84
764.198	201.04
764.381	194.9
764.564	246.1
764.748	155.99
764.931	149.84
765.114	172.37
765.297	229.71
765.481	131.41
765.664	90.45
765.847	153.94
766.03	223.57
766.213	143.7
766.397	135.51
766.58	98.64
766.763	217.43
766.946	131.41
767.129	145.75
767.312	106.84
767.495	151.89
767.678	102.74
767.861	145.75
768.044	100.69
768.227	192.85
768.41	100.69
768.593	158.03
768.776	172.37
768.959	178.51
769.142	188.75
769.324	53.59
769.507	74.07
769.69	78.16
769.873	115.03
770.056	303.44
770.239	151.89
770.421	153.94
770.604	141.65
770.787	137.56
770.97	164.18
771.152	80.21
771.335	123.22
771.518	67.92
771.7	188.75
771.883	299.34
772.066	39.25
772.248	145.75
772.431	233.81
772.613	174.42
772.796	129.36
772.978	162.13
773.161	186.71
773.343	16.73
773.526	43.35
773.708	37.2
773.891	-67.24
774.073	151.89
774.256	82.26
774.438	151.89
774.621	74.07
774.803	178.51
774.985	151.89
775.168	164.18
775.35	45.4
775.532	149.84
775.715	59.73
775.897	135.51
776.079	141.65
776.261	164.18
776.444	10.58
776.626	106.84
776.808	104.79
776.99	72.02
777.173	39.25
777.355	57.68
777.537	35.16
777.719	110.93
777.901	8.53
778.083	57.68
778.265	20.82
778.447	98.64
778.629	8.53
778.811	168.27
778.993	131.41
779.175	102.74
779.357	72.02
779.539	74.07
779.721	22.87
779.903	147.8
780.085	49.49
780.267	57.68
780.449	90.45
780.631	205.14
780.812	137.56
780.994	59.73
781.176	57.68
781.358	14.68
781.54	24.92
781.721	145.75
781.903	160.08
782.085	78.16
782.267	180.56
782.448	-71.34
782.63	69.97
782.812	192.85
782.993	74.07
783.175	82.26
783.357	80.21
783.538	102.74
783.72	-18.09
783.901	78.16
784.083	125.27
784.264	100.69
784.446	-28.33
784.627	47.44
784.809	137.56
784.99	59.73
785.172	65.88
785.353	84.31
785.535	112.98
785.716	-40.62
785.897	76.12
786.079	47.44
786.26	-52.91
786.441	112.98
786.623	-79.53
786.804	-16.04
786.985	106.84
787.167	51.54
787.348	33.11
787.529	96.6
787.71	164.18
787.891	149.84
788.073	29.01
788.254	-7.85
788.435	162.13
788.616	53.59
788.797	-87.72
788.978	74.07
789.159	-22.19
789.34	92.5
789.522	86.36
789.703	-65.19
789.884	72.02
790.065	10.58
790.246	117.08
790.427	10.58
790.607	155.99
790.788	141.65
790.969	78.16
791.15	104.79
791.331	-57
791.512	-24.23
791.693	-18.09
791.874	65.88
792.054	190.8
792.235	41.3
792.416	-71.34
792.597	-36.52
792.778	123.22
792.958	53.59
793.139	16.73
793.32	78.16
793.5	-40.62
793.681	143.7
793.862	41.3
794.042	143.7
794.223	-48.81
794.404	51.54
794.584	-20.14
794.765	2.39
794.945	8.53
795.126	72.02
795.306	26.96
795.487	0.34
795.667	-28.33
795.848	18.77
796.028	14.68
796.209	49.49
796.389	104.79
796.57	129.36
796.75	-5.8
796.93	53.59
797.111	-1.71
797.291	-18.09
797.471	53.59
797.652	8.53
797.832	-24.23
798.012	98.64
798.192	-5.8
798.373	-9.9
798.553	-11.95
798.733	88.4
798.913	4.44
799.093	47.44
799.274	-42.67
799.454	115.03
799.634	125.27
799.814	74.07
799.994	37.2
800.174	72.02
800.354	49.49
800.534	-48.81
800.714	127.32
800.894	-46.76
801.074	-13.99
801.254	-67.24
801.434	80.21
801.614	-22.19
801.794	-48.81
801.974	1689.92
802.154	8.53
802.334	108.88
802.514	-16.04
802.693	-22.19
802.873	-7.85
803.053	135.51
803.233	72.02
803.413	-24.23
803.592	6.49
803.772	-34.47
803.952	43.35
804.131	-83.63
804.311	35.16
804.491	135.51
804.67	-5.8
804.85	-30.38
805.03	47.44
805.209	78.16
805.389	-32.43
805.568	57.68
805.748	35.16
805.928	-20.14
806.107	119.12
806.287	43.35
806.466	14.68
806.646	-9.9
806.825	-38.57
807.004	-46.76
807.184	29.01
807.363	29.01
807.543	16.73
807.722	-59.05
807.901	110.93
808.081	96.6
808.26	-95.91
808.439	16.73
808.619	24.92
808.798	-73.39
808.977	37.2
809.156	90.45
809.336	-3.75
809.515	92.5
809.694	-83.63
809.873	-65.19
810.052	45.4
810.231	51.54
810.411	31.06
810.59	100.69
810.769	-1.71
810.948	55.64
811.127	-89.77
811.306	-46.76
811.485	-16.04
811.664	143.7
811.843	-28.33
812.022	-3.75
812.201	55.64
812.38	53.59
812.559	-40.62
812.737	59.73
812.916	12.63
813.095	-120.49
813.274	16.73
813.453	31.06
813.632	104.79
813.811	-3.75
813.989	-149.16
814.168	80.21
814.347	18.77
814.526	12.63
814.704	26.96
814.883	135.51
815.062	-20.14
815.24	55.64
815.419	-18.09
815.598	-40.62
815.776	-110.25
815.955	39.25
816.133	-40.62
816.312	14.68
816.49	-7.85
816.669	96.6
816.847	-22.19
817.026	41.3
817.204	72.02
817.383	-36.52
817.561	-3.75
817.74	16.73
817.918	115.03
818.097	6.49
818.275	-38.57
818.453	31.06
818.632	29.01
818.81	-77.48
818.988	37.2
819.167	-50.86
819.345	-16.04
819.523	-32.43
819.701	80.21
819.879	6.49
820.058	86.36
820.236	-42.67
820.414	-26.28
820.592	-13.99
820.77	35.16
820.948	-30.38
821.127	-28.33
821.305	-16.04
821.483	-87.72
821.661	61.78
821.839	-5.8
822.017	-26.28
822.195	-3.75
822.373	24.92
822.551	37.2
822.729	43.35
822.907	20.82
823.085	76.12
823.262	14.68
823.44	-24.23
823.618	35.16
823.796	35.16
823.974	-22.19
824.152	-46.76
824.329	-48.81
824.507	22.87
824.685	125.27
824.863	18.77
825.04	-26.28
825.218	41.3
825.396	24.92
825.574	18.77
825.751	29.01
825.929	102.74
826.107	12.63
826.284	20.82
826.462	20.82
826.639	-61.1
826.817	-26.28
826.994	45.4
827.172	-54.95
827.349	80.21
827.527	16.73
827.704	67.92
827.882	31.06
828.059	-40.62
828.237	12.63
828.414	72.02
828.591	-112.3
828.769	-24.23
828.946	59.73
829.124	117.08
829.301	37.2
829.478	-13.99
829.655	65.88
829.833	8.53
830.01	-128.68
830.187	112.98
830.364	43.35
830.542	-54.95
830.719	127.32
830.896	102.74
831.073	133.46
831.25	24.92
831.427	16.73
831.604	-1.71
831.782	-67.24
831.959	43.35
832.136	22.87
832.313	-28.33
832.49	-100.01
832.667	-32.43
832.844	-22.19
833.021	129.36
833.198	-13.99
833.374	-1.71
833.551	14.68
833.728	10.58
833.905	82.26
834.082	-73.39
834.259	-26.28
834.436	115.03
834.612	-71.34
834.789	55.64
834.966	-38.57
835.143	16.73
835.319	-63.15
835.496	43.35
835.673	88.4
835.85	12.63
836.026	90.45
836.203	65.88
836.38	-16.04
836.556	12.63
836.733	-89.77
836.909	86.36
837.086	-16.04
837.262	-112.3
837.439	12.63
837.616	-46.76
837.792	-24.23
837.968	-13.99
838.145	-89.77
838.321	-38.57
838.498	43.35
838.674	86.36
838.851	59.73
839.027	2.39
839.203	14.68
839.38	-5.8
839.556	12.63
839.732	31.06
839.909	29.01
840.085	18.77
840.261	-42.67
840.437	-3.75
840.614	-20.14
840.79	22.87
840.966	12.63
841.142	35.16
841.318	-67.24
841.494	69.97
841.671	-34.47
841.847	-34.47
842.023	-38.57
842.199	-22.19
842.375	67.92
842.551	-104.11
842.727	-50.86
842.903	182.61
843.079	-77.48
843.255	110.93
843.431	82.26
843.607	53.59
843.783	-128.68
843.959	72.02
844.134	-83.63
844.31	96.6
844.486	-40.62
844.662	26.96
844.838	-97.96
845.013	53.59
845.189	69.97
845.365	12.63
845.541	-3.75
845.716	-13.99
845.892	88.4
846.068	-28.33
846.244	-77.48
846.419	10.58
846.595	-3.75
846.77	-67.24
846.946	12.63
847.122	-71.34
847.297	-22.19
847.473	125.27
847.648	-69.29
847.824	-11.95
847.999	-116.39
848.175	-20.14
848.35	-40.62
848.526	76.12
848.701	29.01
848.876	65.88
849.052	37.2
849.227	6.49
849.403	-3.75
849.578	-26.28
849.753	-1.71
849.929	-22.19
850.104	-87.72
850.279	53.59
850.454	0.34
850.63	39.25
850.805	-69.29
850.98	-36.52
851.155	26.96
851.33	47.44
851.505	-77.48
851.681	172.37
851.856	-42.67
852.031	-54.95
852.206	0.34
852.381	-57
852.556	55.64
852.731	-28.33
852.906	49.49
853.081	37.2
853.256	117.08
853.431	-46.76
853.606	-34.47
853.781	-26.28
853.956	-91.82
854.131	0.34
854.305	-5.8
854.48	24.92
854.655	-85.67
854.83	-40.62
855.005	-11.95
855.18	-5.8
855.354	16.73
855.529	24.92
855.704	-7.85
855.879	16.73
856.053	-79.53
856.228	-20.14
856.403	-79.53
856.577	43.35
856.752	-32.43
856.926	-44.71
857.101	33.11
857.276	-87.72
857.45	-9.9
857.625	18.77
857.799	33.11
857.974	-13.99
858.148	-132.78
858.323	31.06
858.497	-13.99
858.672	-20.14
858.846	14.68
859.02	51.54
859.195	-147.11
859.369	-75.43
859.543	0.34
859.718	-18.09
859.892	-3.75
860.066	-18.09
860.241	-9.9
860.415	-30.38
860.589	39.25
860.763	51.54
860.938	-50.86
861.112	43.35
861.286	18.77
861.46	16.73
861.634	-5.8
861.808	57.68
861.982	-40.62
862.157	-57
862.331	-73.39
862.505	-132.78
862.679	-36.52
862.853	-34.47
863.027	-32.43
863.201	80.21
863.375	16.73
863.549	-24.23
863.722	14.68
863.896	0.34
864.07	-40.62
864.244	20.82
864.418	51.54
864.592	-79.53
864.766	-50.86
864.939	-16.04
865.113	2.39
865.287	22.87
865.461	-87.72
865.634	-50.86
865.808	24.92
865.982	-83.63
866.156	-83.63
866.329	-143.02
866.503	-75.43
866.676	14.68
866.85	-13.99
867.024	-54.95
867.197	110.93
867.371	47.44
867.544	53.59
867.718	-59.05
867.891	76.12
868.065	-136.87
868.238	108.88
868.412	88.4
868.585	12.63
868.759	-73.39
868.932	12.63
869.105	-36.52
869.279	20.82
869.452	-91.82
869.625	-16.04
869.799	-3.75
869.972	-110.25
870.145	8.53
870.319	84.31
870.492	-40.62
870.665	37.2
870.838	-79.53
871.011	-163.5
871.185	45.4
871.358	-65.19
871.531	-7.85
871.704	-11.95
871.877	-54.95
872.05	-75.43
872.223	-71.34
872.396	6.49
872.569	43.35
872.742	-61.1
872.915	-1.71
873.088	-28.33
873.261	-69.29
873.434	104.79
873.607	-22.19
873.78	92.5
873.953	-67.24
874.126	-50.86
874.299	65.88
874.471	-65.19
874.644	-65.19
874.817	47.44
874.99	104.79
875.163	-34.47
875.335	-34.47
875.508	-24.23
875.681	59.73
875.853	22.87
876.026	-13.99
876.199	22.87
876.371	29.01
876.544	8.53
876.717	33.11
876.889	20.82
877.062	86.36
877.234	10.58
877.407	-34.47
877.579	-20.14
877.752	-24.23
877.924	31.06
878.097	2.39
878.269	49.49
878.442	8.53
878.614	-77.48
878.786	31.06
878.959	4.44
879.131	10.58
879.303	-188.07
879.476	16.73
879.648	2.39
879.82	-61.1
879.993	26.96
880.165	16.73
880.337	-48.81
880.509	-28.33
880.681	-108.2
880.854	-100.01
881.026	29.01
881.198	53.59
881.37	16.73
881.542	-24.23
881.714	-81.58
881.886	-30.38
882.058	33.11
882.23	55.64
882.402	-42.67
882.574	-75.43
882.746	92.5
882.918	94.55
883.09	43.35
883.262	-16.04
883.434	-46.76
883.606	-24.23
883.778	-34.47
883.95	145.75
884.122	-106.15
884.293	33.11
884.465	-32.43
884.637	84.31
884.809	-26.28
884.98	41.3
885.152	45.4
885.324	4.44
885.496	-9.9
885.667	-63.15
885.839	41.3
886.011	88.4
886.182	-61.1
886.354	37.2
886.525	-7.85
886.697	-85.67
886.869	-67.24
887.04	-42.67
887.212	90.45
887.383	102.74
887.555	37.2
887.726	-85.67
887.897	43.35
888.069	-11.95
888.24	143.7
888.412	-32.43
888.583	-83.63
888.754	-9.9
888.926	-140.97
889.097	63.83
889.268	-104.11
889.44	-20.14
889.611	-87.72
889.782	-97.96
889.953	-69.29
890.125	94.55
890.296	-73.39
890.467	-28.33
890.638	-65.19
890.809	-13.99
890.98	-73.39
891.151	-36.52
891.323	88.4
891.494	-22.19
891.665	63.83
891.836	-97.96
892.007	-40.62
892.178	-11.95
892.349	-7.85
892.52	0.34
892.691	2.39
892.862	-77.48
893.032	-100.01
893.203	-13.99
893.374	-20.14
893.545	110.93
893.716	-110.25
893.887	0.34
894.057	-54.95
894.228	-71.34
894.399	-87.72
894.57	121.17
894.74	22.87
894.911	26.96
895.082	-57
895.253	-126.63
895.423	29.01
895.594	45.4
895.764	121.17
895.935	-87.72
896.106	-18.09
896.276	-13.99
896.447	2.39
896.617	-108.2
896.788	-85.67
896.958	-71.34
897.129	-91.82
897.299	-44.71
897.47	170.32
897.64	-5.8
897.81	-5.8
897.981	35.16
898.151	-87.72
898.322	115.03
898.492	55.64
898.662	-75.43
898.832	14.68
899.003	-67.24
899.173	29.01
899.343	8.53
899.513	-38.57
