Data from USB4F104151__18__09-25-28-022.txt Node

Date: Wed Feb 26 09:25:28 EST 2025
User: louis
Spectrometer: USB4F10415
Trigger mode: 4
Integration Time (sec): 1.000000E-1
Scans to average: 1
Electric dark correction enabled: true
Nonlinearity correction enabled: false
Boxcar width: 0
XAxis mode: Wavelengths
Number of Pixels in Spectrum: 3648
>>>>>Begin Spectral Data<<<<<
178.204	-302.59
178.424	-302.59
178.644	-302.59
178.864	-273.92
179.084	-310.78
179.304	-19.97
179.524	25.09
179.744	-56.83
179.964	80.38
180.184	33.28
180.404	25.09
180.624	-28.16
180.844	25.09
181.064	-56.83
181.283	41.47
181.503	-101.89
181.723	33.28
181.943	-58.88
182.163	209.4
182.383	57.86
182.602	92.67
182.822	156.16
183.042	31.23
183.262	-5.63
183.482	23.04
183.701	12.8
183.921	57.86
184.141	-9.73
184.361	80.38
184.58	61.95
184.8	25.09
185.02	2.56
185.239	92.67
185.459	129.53
185.679	135.68
185.898	0.51
186.118	78.33
186.338	33.28
186.557	115.2
186.777	-7.68
186.997	25.09
187.216	37.38
187.436	166.4
187.655	115.2
187.875	68.09
188.095	102.91
188.314	107.01
188.534	117.25
188.753	-13.82
188.973	107.01
189.192	180.73
189.412	86.53
189.631	27.14
189.851	123.39
190.07	129.53
190.29	-19.97
190.509	-58.88
190.729	2.56
190.948	109.05
191.168	213.5
191.387	16.9
191.607	88.57
191.826	20.99
192.045	102.91
192.265	-3.58
192.484	100.86
192.704	-56.83
192.923	-97.79
193.142	217.6
193.362	127.49
193.581	197.12
193.8	68.09
194.02	49.66
194.239	-9.73
194.458	94.72
194.678	6.66
194.897	49.66
195.116	23.04
195.335	-3.58
195.555	82.43
195.774	23.04
195.993	92.67
196.212	33.28
196.432	-9.73
196.651	76.29
196.87	107.01
197.089	238.08
197.308	133.63
197.528	86.53
197.747	16.9
197.966	129.53
198.185	145.92
198.404	25.09
198.623	96.77
198.842	98.81
199.062	133.63
199.281	123.39
199.5	23.04
199.719	57.86
199.938	61.95
200.157	90.62
200.376	107.01
200.595	78.33
200.814	-7.68
201.033	6.66
201.252	152.06
201.471	66.05
201.69	90.62
201.909	49.66
202.128	143.87
202.347	107.01
202.566	-7.68
202.785	-81.41
203.004	74.24
203.223	213.5
203.442	72.19
203.661	-42.5
203.879	61.95
204.098	152.06
204.317	72.19
204.536	70.14
204.755	104.96
204.974	68.09
205.193	-24.06
205.411	170.49
205.63	109.05
205.849	70.14
206.068	-11.78
206.287	53.76
206.505	100.86
206.724	2.56
206.943	-79.36
207.162	29.18
207.381	154.11
207.599	74.24
207.818	86.53
208.037	-3.58
208.255	47.62
208.474	115.2
208.693	115.2
208.911	27.14
209.13	86.53
209.349	33.28
209.567	180.73
209.786	43.52
210.005	82.43
210.223	98.81
210.442	-65.02
210.661	57.86
210.879	57.86
211.098	45.57
211.316	57.86
211.535	57.86
211.753	6.66
211.972	70.14
212.191	-9.73
212.409	74.24
212.628	88.57
212.846	0.51
213.065	59.9
213.283	49.66
213.502	35.33
213.72	35.33
213.938	31.23
214.157	33.28
214.375	98.81
214.594	57.86
214.812	70.14
215.031	33.28
215.249	76.29
215.467	74.24
215.686	51.71
215.904	137.73
216.122	129.53
216.341	109.05
216.559	131.58
216.778	88.57
216.996	131.58
217.214	23.04
217.432	51.71
217.651	-24.06
217.869	6.66
218.087	39.42
218.306	41.47
218.524	78.33
218.742	-13.82
218.96	-9.73
219.179	-32.26
219.397	2.56
219.615	205.31
219.833	74.24
220.051	-28.16
220.27	111.1
220.488	154.11
220.706	68.09
220.924	-7.68
221.142	78.33
221.36	25.09
221.578	57.86
221.796	41.47
222.015	78.33
222.233	68.09
222.451	170.49
222.669	14.85
222.887	102.91
223.105	-28.16
223.323	45.57
223.541	-105.98
223.759	45.57
223.977	86.53
224.195	152.06
224.413	86.53
224.631	57.86
224.849	66.05
225.067	172.54
225.285	-15.87
225.503	16.9
225.721	-65.02
225.939	119.29
226.157	18.94
226.375	219.64
226.592	-34.3
226.81	20.99
227.028	49.66
227.246	195.07
227.464	35.33
227.682	43.52
227.9	70.14
228.117	72.19
228.335	31.23
228.553	76.29
228.771	102.91
228.989	113.15
229.206	117.25
229.424	-3.58
229.642	-28.16
229.86	39.42
230.077	104.96
230.295	86.53
230.513	115.2
230.731	107.01
230.948	109.05
231.166	154.11
231.384	27.14
231.601	10.75
231.819	154.11
232.037	-46.59
232.254	-17.92
232.472	-34.3
232.689	25.09
232.907	82.43
233.125	18.94
233.342	-52.74
233.56	-36.35
233.777	41.47
233.995	-22.02
234.213	162.3
234.43	98.81
234.648	82.43
234.865	88.57
235.083	96.77
235.3	6.66
235.518	127.49
235.735	53.76
235.953	129.53
236.17	64
236.388	-7.68
236.605	14.85
236.822	94.72
237.04	137.73
237.257	82.43
237.475	23.04
237.692	80.38
237.909	72.19
238.127	72.19
238.344	64
238.562	66.05
238.779	64
238.996	23.04
239.214	31.23
239.431	125.44
239.648	0.51
239.865	113.15
240.083	66.05
240.3	37.38
240.517	55.81
240.735	25.09
240.952	131.58
241.169	90.62
241.386	117.25
241.603	33.28
241.821	-7.68
242.038	51.71
242.255	115.2
242.472	-3.58
242.689	135.68
242.907	117.25
243.124	90.62
243.341	43.52
243.558	29.18
243.775	-13.82
243.992	-24.06
244.209	123.39
244.426	117.25
244.643	74.24
244.86	107.01
245.078	98.81
245.295	33.28
245.512	2.56
245.729	33.28
245.946	125.44
246.163	74.24
246.38	-15.87
246.597	90.62
246.814	51.71
247.031	115.2
247.248	64
247.464	41.47
247.681	64
247.898	57.86
248.115	57.86
248.332	-7.68
248.549	143.87
248.766	164.35
248.983	78.33
249.2	121.34
249.417	125.44
249.633	16.9
249.85	66.05
250.067	0.51
250.284	88.57
250.501	49.66
250.717	82.43
250.934	-15.87
251.151	41.47
251.368	8.7
251.585	131.58
251.801	186.88
252.018	6.66
252.235	70.14
252.451	-36.35
252.668	33.28
252.885	137.73
253.102	64
253.318	57.86
253.535	37.38
253.752	70.14
253.968	25.09
254.185	-46.59
254.401	47.62
254.618	33.28
254.835	57.86
255.051	152.06
255.268	72.19
255.484	16.9
255.701	39.42
255.917	53.76
256.134	64
256.351	61.95
256.567	-9.73
256.784	68.09
257	2.56
257.217	23.04
257.433	39.42
257.65	8.7
257.866	107.01
258.082	-34.3
258.299	4.61
258.515	135.68
258.732	6.66
258.948	8.7
259.165	55.81
259.381	-9.73
259.597	64
259.814	-3.58
260.03	25.09
260.246	72.19
260.463	147.97
260.679	154.11
260.895	8.7
261.112	29.18
261.328	-5.63
261.544	-15.87
261.761	152.06
261.977	-13.82
262.193	16.9
262.409	23.04
262.626	16.9
262.842	86.53
263.058	61.95
263.274	193.02
263.49	82.43
263.707	102.91
263.923	113.15
264.139	-56.83
264.355	37.38
264.571	82.43
264.787	6.66
265.004	84.48
265.22	74.24
265.436	-3.58
265.652	16.9
265.868	45.57
266.084	14.85
266.3	90.62
266.516	45.57
266.732	29.18
266.948	107.01
267.164	59.9
267.38	76.29
267.596	90.62
267.812	170.49
268.028	35.33
268.244	-7.68
268.46	66.05
268.676	0.51
268.892	109.05
269.108	-3.58
269.324	86.53
269.54	-32.26
269.756	57.86
269.972	-15.87
270.188	27.14
270.403	20.99
270.619	37.38
270.835	119.29
271.051	39.42
271.267	33.28
271.483	-1.54
271.698	16.9
271.914	33.28
272.13	70.14
272.346	45.57
272.562	70.14
272.777	143.87
272.993	72.19
273.209	18.94
273.425	-15.87
273.64	-44.54
273.856	137.73
274.072	74.24
274.287	31.23
274.503	170.49
274.719	74.24
274.934	74.24
275.15	-65.02
275.366	57.86
275.581	-15.87
275.797	45.57
276.012	-26.11
276.228	84.48
276.444	41.47
276.659	64
276.875	14.85
277.09	70.14
277.306	78.33
277.521	98.81
277.737	47.62
277.952	129.53
278.168	35.33
278.383	131.58
278.599	72.19
278.814	111.1
279.03	8.7
279.245	123.39
279.461	57.86
279.676	72.19
279.892	-60.93
280.107	25.09
280.322	-71.17
280.538	51.71
280.753	-19.97
280.969	123.39
281.184	51.71
281.399	178.69
281.615	4.61
281.83	61.95
282.045	-40.45
282.26	35.33
282.476	94.72
282.691	70.14
282.906	123.39
283.122	39.42
283.337	-40.45
283.552	57.86
283.767	-5.63
283.983	102.91
284.198	6.66
284.413	94.72
284.628	-67.07
284.843	10.75
285.058	117.25
285.274	51.71
285.489	20.99
285.704	78.33
285.919	8.7
286.134	-46.59
286.349	102.91
286.564	-48.64
286.779	139.77
286.995	76.29
287.21	-110.08
287.425	90.62
287.64	-17.92
287.855	74.24
288.07	-3.58
288.285	51.71
288.5	98.81
288.715	57.86
288.93	72.19
289.145	43.52
289.36	100.86
289.575	-3.58
289.79	84.48
290.004	-50.69
290.219	-36.35
290.434	55.81
290.649	72.19
290.864	-32.26
291.079	51.71
291.294	55.81
291.509	121.34
291.724	23.04
291.938	45.57
292.153	55.81
292.368	41.47
292.583	102.91
292.798	115.2
293.012	90.62
293.227	-32.26
293.442	16.9
293.657	25.09
293.871	147.97
294.086	59.9
294.301	160.25
294.516	154.11
294.73	-24.06
294.945	16.9
295.16	-19.97
295.374	90.62
295.589	74.24
295.804	107.01
296.018	115.2
296.233	72.19
296.447	72.19
296.662	-15.87
296.877	66.05
297.091	59.9
297.306	90.62
297.52	4.61
297.735	121.34
297.949	96.77
298.164	6.66
298.378	80.38
298.593	39.42
298.807	25.09
299.022	80.38
299.236	86.53
299.451	29.18
299.665	94.72
299.88	35.33
300.094	70.14
300.309	72.19
300.523	61.95
300.737	92.67
300.952	131.58
301.166	131.58
301.381	45.57
301.595	0.51
301.809	41.47
302.024	23.04
302.238	-79.36
302.452	78.33
302.667	-50.69
302.881	123.39
303.095	47.62
303.309	123.39
303.524	61.95
303.738	43.52
303.952	33.28
304.166	94.72
304.381	-58.88
304.595	139.77
304.809	37.38
305.023	-19.97
305.237	-1.54
305.452	-19.97
305.666	135.68
305.88	143.87
306.094	137.73
306.308	111.1
306.522	90.62
306.736	64
306.95	49.66
307.164	2.56
307.379	55.81
307.593	195.07
307.807	215.55
308.021	70.14
308.235	88.57
308.449	-36.35
308.663	64
308.877	221.69
309.091	20.99
309.305	154.11
309.519	-19.97
309.733	109.05
309.947	-81.41
310.161	29.18
310.374	51.71
310.588	109.05
310.802	2.56
311.016	16.9
311.23	127.49
311.444	-73.21
311.658	53.76
311.872	115.2
312.085	0.51
312.299	121.34
312.513	129.53
312.727	119.29
312.941	37.38
313.154	53.76
313.368	88.57
313.582	6.66
313.796	53.76
314.009	-34.3
314.223	129.53
314.437	68.09
314.651	115.2
314.864	27.14
315.078	-32.26
315.292	-11.78
315.505	55.81
315.719	-9.73
315.933	43.52
316.146	-50.69
316.36	4.61
316.573	98.81
316.787	129.53
317.001	154.11
317.214	25.09
317.428	57.86
317.641	33.28
317.855	53.76
318.068	41.47
318.282	-7.68
318.495	201.21
318.709	20.99
318.922	10.75
319.136	180.73
319.349	68.09
319.563	-17.92
319.776	68.09
319.99	-85.5
320.203	76.29
320.417	27.14
320.63	98.81
320.843	147.97
321.057	66.05
321.27	18.94
321.483	107.01
321.697	100.86
321.91	82.43
322.124	82.43
322.337	164.35
322.55	27.14
322.763	29.18
322.977	-65.02
323.19	-40.45
323.403	98.81
323.617	72.19
323.83	107.01
324.043	8.7
324.256	45.57
324.469	33.28
324.683	119.29
324.896	72.19
325.109	33.28
325.322	-52.74
325.535	84.48
325.748	143.87
325.962	10.75
326.175	41.47
326.388	111.1
326.601	111.1
326.814	66.05
327.027	49.66
327.24	170.49
327.453	-65.02
327.666	88.57
327.879	156.16
328.092	49.66
328.305	109.05
328.518	-7.68
328.731	23.04
328.944	16.9
329.157	78.33
329.37	29.18
329.583	219.64
329.796	176.64
330.009	-73.21
330.222	104.96
330.435	111.1
330.648	31.23
330.861	109.05
331.073	115.2
331.286	90.62
331.499	82.43
331.712	23.04
331.925	80.38
332.138	4.61
332.35	119.29
332.563	47.62
332.776	115.2
332.989	4.61
333.202	-5.63
333.414	23.04
333.627	80.38
333.84	23.04
334.053	66.05
334.265	-7.68
334.478	33.28
334.691	27.14
334.903	39.42
335.116	4.61
335.329	29.18
335.541	123.39
335.754	145.92
335.966	-42.5
336.179	29.18
336.392	107.01
336.604	12.8
336.817	160.25
337.029	43.52
337.242	-7.68
337.454	96.77
337.667	29.18
337.88	100.86
338.092	90.62
338.305	35.33
338.517	12.8
338.729	64
338.942	131.58
339.154	0.51
339.367	-65.02
339.579	64
339.792	18.94
340.004	64
340.217	100.86
340.429	8.7
340.641	-13.82
340.854	2.56
341.066	27.14
341.278	127.49
341.491	154.11
341.703	18.94
341.915	-1.54
342.128	170.49
342.34	72.19
342.552	31.23
342.764	33.28
342.977	86.53
343.189	33.28
343.401	90.62
343.613	-85.5
343.826	119.29
344.038	-1.54
344.25	90.62
344.462	10.75
344.674	49.66
344.886	25.09
345.099	100.86
345.311	49.66
345.523	45.57
345.735	-44.54
345.947	10.75
346.159	29.18
346.371	129.53
346.583	72.19
346.795	217.6
347.007	64
347.219	49.66
347.431	55.81
347.643	143.87
347.855	49.66
348.067	104.96
348.279	-7.68
348.491	-7.68
348.703	94.72
348.915	41.47
349.127	6.66
349.339	-11.78
349.551	-44.54
349.763	102.91
349.975	25.09
350.187	94.72
350.399	139.77
350.61	102.91
350.822	31.23
351.034	111.1
351.246	98.81
351.458	98.81
351.669	86.53
351.881	139.77
352.093	123.39
352.305	59.9
352.517	-36.35
352.728	102.91
352.94	72.19
353.152	90.62
353.363	-36.35
353.575	61.95
353.787	64
353.999	127.49
354.21	166.4
354.422	29.18
354.633	-34.3
354.845	29.18
355.057	72.19
355.268	47.62
355.48	135.68
355.692	8.7
355.903	-7.68
356.115	-44.54
356.326	2.56
356.538	147.97
356.749	-3.58
356.961	98.81
357.172	-9.73
357.384	-34.3
357.595	156.16
357.807	-3.58
358.018	8.7
358.23	66.05
358.441	158.21
358.653	121.34
358.864	90.62
359.075	41.47
359.287	123.39
359.498	180.73
359.709	74.24
359.921	66.05
360.132	35.33
360.344	16.9
360.555	14.85
360.766	96.77
360.977	33.28
361.189	90.62
361.4	43.52
361.611	135.68
361.823	164.35
362.034	33.28
362.245	-50.69
362.456	-19.97
362.667	113.15
362.879	-48.64
363.09	152.06
363.301	20.99
363.512	25.09
363.723	-44.54
363.935	31.23
364.146	107.01
364.357	88.57
364.568	31.23
364.779	6.66
364.99	156.16
365.201	-19.97
365.412	115.2
365.623	27.14
365.834	61.95
366.045	61.95
366.256	143.87
366.467	66.05
366.678	2.56
366.889	57.86
367.1	12.8
367.311	70.14
367.522	33.28
367.733	70.14
367.944	88.57
368.155	23.04
368.366	133.63
368.577	74.24
368.788	104.96
368.999	39.42
369.209	88.57
369.42	174.59
369.631	184.83
369.842	59.9
370.053	18.94
370.264	160.25
370.474	59.9
370.685	74.24
370.896	107.01
371.107	123.39
371.317	49.66
371.528	14.85
371.739	193.02
371.95	164.35
372.16	129.53
372.371	-7.68
372.582	64
372.792	57.86
373.003	88.57
373.214	88.57
373.424	164.35
373.635	25.09
373.846	150.01
374.056	66.05
374.267	125.44
374.477	78.33
374.688	33.28
374.898	113.15
375.109	-48.64
375.319	127.49
375.53	102.91
375.74	70.14
375.951	16.9
376.161	72.19
376.372	170.49
376.582	4.61
376.793	64
377.003	-62.98
377.214	-17.92
377.424	35.33
377.635	-1.54
377.845	-15.87
378.055	168.45
378.266	0.51
378.476	45.57
378.686	8.7
378.897	51.71
379.107	104.96
379.317	109.05
379.528	70.14
379.738	104.96
379.948	-17.92
380.158	135.68
380.369	41.47
380.579	115.2
380.789	70.14
380.999	-54.78
381.21	23.04
381.42	264.7
381.63	80.38
381.84	72.19
382.05	74.24
382.261	76.29
382.471	113.15
382.681	127.49
382.891	123.39
383.101	107.01
383.311	-5.63
383.521	-19.97
383.731	16.9
383.941	117.25
384.151	-22.02
384.361	74.24
384.571	41.47
384.781	80.38
384.991	135.68
385.201	90.62
385.411	152.06
385.621	72.19
385.831	94.72
386.041	70.14
386.251	61.95
386.461	164.35
386.671	8.7
386.881	-34.3
387.091	29.18
387.301	121.34
387.511	68.09
387.72	33.28
387.93	49.66
388.14	-26.11
388.35	66.05
388.56	51.71
388.769	139.77
388.979	78.33
389.189	-24.06
389.399	53.76
389.609	74.24
389.818	180.73
390.028	84.48
390.238	49.66
390.447	33.28
390.657	-5.63
390.867	37.38
391.076	27.14
391.286	57.86
391.496	66.05
391.705	37.38
391.915	90.62
392.125	176.64
392.334	-48.64
392.544	219.64
392.753	45.57
392.963	90.62
393.172	59.9
393.382	-77.31
393.591	188.93
393.801	18.94
394.01	221.69
394.22	139.77
394.429	-44.54
394.639	53.76
394.848	121.34
395.058	78.33
395.267	-24.06
395.477	33.28
395.686	49.66
395.895	82.43
396.105	299.52
396.314	64
396.524	82.43
396.733	33.28
396.942	96.77
397.152	96.77
397.361	39.42
397.57	82.43
397.78	16.9
397.989	74.24
398.198	180.73
398.407	-5.63
398.617	-3.58
398.826	49.66
399.035	70.14
399.244	23.04
399.453	160.25
399.663	41.47
399.872	68.09
400.081	-32.26
400.29	107.01
400.499	-15.87
400.708	74.24
400.917	20.99
401.127	78.33
401.336	-26.11
401.545	193.02
401.754	131.58
401.963	72.19
402.172	76.29
402.381	18.94
402.59	14.85
402.799	70.14
403.008	156.16
403.217	119.29
403.426	109.05
403.635	-3.58
403.844	45.57
404.053	16.9
404.262	0.51
404.471	127.49
404.68	121.34
404.888	104.96
405.097	119.29
405.306	39.42
405.515	64
405.724	64
405.933	147.97
406.142	129.53
406.35	160.25
406.559	64
406.768	39.42
406.977	127.49
407.185	78.33
407.394	117.25
407.603	16.9
407.812	61.95
408.02	131.58
408.229	47.62
408.438	55.81
408.646	-48.64
408.855	104.96
409.064	61.95
409.272	23.04
409.481	72.19
409.69	61.95
409.898	-87.55
410.107	168.45
410.315	55.81
410.524	47.62
410.733	51.71
410.941	-24.06
411.15	107.01
411.358	90.62
411.567	113.15
411.775	45.57
411.984	16.9
412.192	14.85
412.401	47.62
412.609	178.69
412.818	94.72
413.026	162.3
413.234	18.94
413.443	12.8
413.651	90.62
413.86	102.91
414.068	170.49
414.276	229.88
414.485	-3.58
414.693	139.77
414.901	197.12
415.11	86.53
415.318	66.05
415.526	74.24
415.734	145.92
415.943	92.67
416.151	188.93
416.359	-54.78
416.567	115.2
416.776	127.49
416.984	111.1
417.192	141.82
417.4	10.75
417.608	125.44
417.817	78.33
418.025	107.01
418.233	236.03
418.441	14.85
418.649	-30.21
418.857	139.77
419.065	205.31
419.273	23.04
419.481	31.23
419.689	10.75
419.897	-5.63
420.105	12.8
420.313	176.64
420.521	129.53
420.729	82.43
420.937	-3.58
421.145	-3.58
421.353	123.39
421.561	197.12
421.769	55.81
421.977	29.18
422.185	107.01
422.393	70.14
422.601	162.3
422.809	47.62
423.017	66.05
423.224	121.34
423.432	80.38
423.64	37.38
423.848	98.81
424.056	6.66
424.263	129.53
424.471	27.14
424.679	147.97
424.887	20.99
425.094	145.92
425.302	156.16
425.51	94.72
425.718	98.81
425.925	131.58
426.133	47.62
426.341	160.25
426.548	57.86
426.756	37.38
426.964	68.09
427.171	80.38
427.379	59.9
427.586	109.05
427.794	94.72
428.001	125.44
428.209	147.97
428.417	184.83
428.624	115.2
428.832	162.3
429.039	133.63
429.247	92.67
429.454	115.2
429.662	170.49
429.869	137.73
430.076	141.82
430.284	119.29
430.491	201.21
430.699	115.2
430.906	158.21
431.114	123.39
431.321	94.72
431.528	121.34
431.736	203.26
431.943	98.81
432.15	174.59
432.358	184.83
432.565	248.32
432.772	82.43
432.979	188.93
433.187	160.25
433.394	203.26
433.601	113.15
433.808	250.36
434.016	287.23
434.223	262.65
434.43	264.7
434.637	242.17
434.844	338.43
435.052	209.4
435.259	225.79
435.466	285.18
435.673	233.98
435.88	209.4
436.087	283.13
436.294	299.52
436.501	365.05
436.708	223.74
436.915	305.66
437.122	356.86
437.329	307.71
437.537	342.52
437.743	365.05
437.95	442.87
438.157	377.34
438.364	311.8
438.571	410.11
438.778	393.72
438.985	453.11
439.192	520.7
439.399	438.78
439.606	395.77
439.813	610.81
440.02	483.83
440.227	598.52
440.433	516.6
440.64	516.6
440.847	465.4
441.054	561.66
441.261	721.4
441.467	553.46
441.674	619
441.881	745.97
442.088	764.4
442.294	754.16
442.501	741.88
442.708	825.84
442.914	766.45
443.121	795.12
443.328	840.18
443.534	924.15
443.741	879.09
443.948	834.04
444.154	958.96
444.361	1053.17
444.568	926.19
444.774	942.58
444.981	956.91
445.187	1286.64
445.394	1231.34
445.6	1184.24
445.807	1317.36
446.013	1241.58
446.22	1264.11
446.426	1524.2
446.633	1544.68
446.839	1618.41
447.046	1450.47
447.252	1655.27
447.459	1511.91
447.665	1534.44
447.871	1782.24
448.078	1905.12
448.284	1921.51
448.491	1898.98
448.697	2028
448.903	2222.56
449.11	2238.94
449.316	2224.61
449.522	2408.92
449.728	2288.09
449.935	2513.37
450.141	2462.17
450.347	2869.72
450.553	2519.51
450.76	2675.16
450.966	2773.46
451.172	3080.66
451.378	2937.3
451.584	3168.72
451.791	3375.56
451.997	3383.76
452.203	3340.75
452.409	3717.58
452.615	3834.31
452.821	3666.38
453.027	3862.98
453.233	4239.81
453.44	4250.05
453.646	4405.69
453.852	4344.25
454.058	4784.57
454.264	4985.27
454.47	5255.6
454.676	5036.47
454.882	5513.64
455.088	5405.1
455.294	5683.63
455.5	6119.84
455.705	6420.89
455.911	6599.07
456.117	6470.05
456.323	6859.16
456.529	6855.06
456.735	7348.62
456.941	7860.62
457.147	7950.73
457.352	8286.59
457.558	8466.81
457.764	9093.49
457.97	9191.8
458.176	9234.8
458.381	10068.33
458.587	10150.25
458.793	10617.18
458.999	10711.39
459.204	11704.65
459.41	12454.21
459.616	12108.1
459.821	12769.6
460.027	13752.62
460.233	14219.56
460.438	14129.45
460.644	15067.42
460.85	14848.29
461.055	15898.89
461.261	16161.03
461.466	16036.11
461.672	16312.58
461.878	18307.3
462.083	18041.07
462.289	18563.3
462.494	19374.3
462.7	19243.23
462.905	19452.12
463.111	21297.34
463.316	22298.8
463.522	22712.49
463.727	23468.19
463.932	24471.69
464.138	24995.97
464.343	25968.76
464.549	25993.33
464.754	28192.85
464.959	28952.65
465.165	29399.1
465.37	29214.79
465.575	28966.98
465.781	31508.51
465.986	31856.67
466.191	31088.68
466.397	31924.25
466.602	31283.23
466.807	33196.04
467.012	33417.22
467.218	33818.62
467.423	34224.12
467.628	35145.7
467.833	36966.35
468.038	36050.91
468.244	35395.56
468.449	37273.54
468.654	36407.25
468.859	36677.58
469.064	36679.63
469.269	35639.26
469.474	36276.18
469.679	37124.04
469.885	36243.41
470.09	36782.03
470.295	36300.76
470.5	35913.69
470.705	36073.43
470.91	35098.6
471.115	34965.48
471.32	35655.65
471.525	35125.22
471.73	34265.08
471.935	33933.31
472.139	32638.99
472.344	33058.82
472.549	32589.84
472.754	32245.78
472.959	31260.71
473.164	30283.83
473.369	29872.18
473.574	30599.21
473.778	30435.38
473.983	29554.75
474.188	28780.62
474.393	27396.19
474.598	27693.15
474.802	26994.79
475.007	26339.44
475.212	26306.67
475.417	25350.27
475.621	24903.81
475.826	24836.23
476.031	24221.84
476.235	23996.56
476.44	23644.31
476.645	23058.59
476.849	22681.77
477.054	22489.26
477.259	22016.18
477.463	22028.46
477.668	21065.92
477.872	21278.91
478.077	20533.45
478.282	20267.21
478.486	20093.13
478.691	19749.07
478.895	19589.33
479.1	19392.73
479.304	19319
479.509	18317.54
479.713	18944.22
479.918	18692.32
480.122	18227.43
480.326	18311.4
480.531	18268.39
480.735	18022.64
480.94	17557.75
481.144	18471.14
481.348	17529.08
481.553	17375.48
481.757	16728.32
481.961	17015.04
482.166	17021.18
482.37	16988.41
482.574	16668.93
482.778	16605.44
482.983	16761.09
483.187	16175.37
483.391	16380.17
483.595	16187.66
483.8	15790.35
484.004	15941.9
484.208	15812.88
484.412	15665.42
484.616	15450.39
484.821	15329.56
485.025	14891.29
485.229	15065.37
485.433	14614.82
485.637	14819.61
485.841	14192.94
486.045	14219.56
486.249	14059.82
486.453	13594.93
486.657	13605.17
486.861	13406.52
487.065	12915
487.269	12835.13
487.473	12628.29
487.677	12745.02
487.881	12650.81
488.085	12187.97
488.289	11993.42
488.493	11807.05
488.697	11583.82
488.901	11419.99
489.105	11129.17
489.309	10903.9
489.512	10746.2
489.716	10621.28
489.92	10604.89
490.124	10113.38
490.328	10084.71
490.531	9781.61
490.735	9781.61
490.939	9527.66
491.143	9423.22
491.346	9240.95
491.55	9216.37
491.754	8849.78
491.958	8853.88
492.161	8712.57
492.365	8558.97
492.569	8395.14
492.772	8264.07
492.976	8167.81
493.18	8069.51
493.383	8012.17
493.587	7774.6
493.79	7897.48
493.994	7578
494.197	7594.38
494.401	7412.11
494.605	7274.9
494.808	7385.49
495.012	7291.28
495.215	7184.79
495.419	7113.11
495.622	6996.37
495.825	6984.09
496.029	6930.84
496.232	6992.28
496.436	6848.92
496.639	6871.45
496.843	6996.37
497.046	6957.46
497.249	6863.26
497.453	6828.44
497.656	6906.26
497.859	6740.38
498.063	6861.21
498.266	6822.3
498.469	6779.29
498.673	6898.07
498.876	6926.74
499.079	6816.15
499.282	6721.95
499.485	7068.05
499.689	7002.52
499.892	7092.63
500.095	6959.51
500.298	7262.61
500.501	6902.17
500.705	7264.66
500.908	7311.76
501.111	7231.89
501.314	7344.53
501.517	7592.33
501.72	7483.79
501.923	7684.49
502.126	7469.45
502.329	7563.66
502.532	7741.83
502.735	7850.38
502.938	8030.6
503.141	8122.76
503.344	8083.84
503.547	8114.56
503.75	8270.21
503.953	8157.57
504.156	8698.24
504.359	8589.69
504.562	8624.51
504.765	8712.57
504.968	8841.59
505.17	9189.75
505.373	9077.11
505.576	9159.03
505.779	9302.39
505.982	9550.19
506.185	9802.09
506.387	9845.1
506.59	10107.24
506.793	10219.88
506.996	10344.8
507.198	10740.06
507.401	10887.51
507.604	11030.87
507.807	11250
508.009	11376.98
508.212	11620.69
508.415	11829.58
508.617	12091.72
508.82	12314.95
509.022	12345.67
509.225	12884.28
509.428	12896.57
509.63	13240.63
509.833	13533.49
510.035	14352.68
510.238	14117.16
510.44	14240.04
510.643	14776.61
510.845	14999.84
511.048	15415.57
511.25	15821.07
511.453	15792.4
511.655	16670.98
511.858	16697.6
512.06	17189.11
512.262	17701.11
512.465	17914.09
512.667	18340.07
512.87	18788.58
513.072	19015.9
513.274	19785.94
513.477	20021.45
513.679	20342.99
513.881	20723.91
514.084	21491.9
514.286	21655.73
514.488	22395.05
514.69	23060.64
514.893	23277.72
515.095	23849.11
515.297	24619.14
515.499	24922.24
515.701	25614.46
515.904	26253.42
516.106	26490.99
516.308	26998.88
516.51	27453.53
516.712	28354.64
516.914	28395.6
517.116	29450.3
517.318	29753.4
517.52	30773.29
517.722	31074.34
517.925	31348.77
518.127	32174.1
518.329	32655.37
518.531	32628.75
518.733	33832.96
518.935	34473.97
519.136	35024.87
519.338	35354.6
519.54	36288.47
519.742	37009.36
519.944	36822.99
520.146	38227.9
520.348	38145.98
520.55	38942.64
520.752	39016.36
520.954	40048.54
521.155	40138.65
521.357	40851.34
521.559	41250.7
521.761	41746.31
521.963	41867.14
522.164	42520.44
522.366	43198.32
522.568	43083.63
522.77	43648.87
522.971	44195.68
523.173	44357.47
523.375	44961.62
523.576	44701.53
523.778	45358.92
523.98	45633.35
524.181	46350.14
524.383	46004.03
524.584	46739.25
524.786	46532.41
524.988	46528.31
525.189	46686.01
525.391	46919.48
525.592	47284.01
525.794	46722.87
525.995	47056.69
526.197	46970.68
526.398	47253.29
526.6	47032.11
526.801	47003.44
527.003	46810.93
527.204	46622.52
527.406	46681.91
527.607	46225.21
527.808	46503.74
528.01	45739.85
528.211	45664.07
528.412	46026.56
528.614	45535.05
528.815	45123.41
529.016	45852.48
529.218	44719.96
529.419	44492.63
529.62	43951.97
529.822	43603.81
530.023	43104.11
530.224	43026.29
530.425	42819.44
530.626	42026.88
530.828	41367.43
531.029	41979.78
531.23	40910.74
531.431	40269.72
531.632	40411.03
531.833	39774.11
532.035	39251.88
532.236	38762.42
532.437	38393.78
532.638	37666.75
532.839	37754.82
533.04	37504.96
533.241	36650.96
533.442	36607.95
533.643	36100.06
533.844	35274.73
534.045	34838.51
534.246	34277.36
534.447	34203.64
534.648	33615.87
534.849	33015.82
535.05	32323.6
535.251	32178.2
535.451	31959.06
535.652	31414.3
535.853	31064.1
536.054	30660.65
536.255	30169.14
536.456	29722.68
536.657	29782.07
536.857	29024.33
537.058	28852.3
537.259	28506.19
537.46	28141.65
537.66	27596.89
537.861	27025.51
538.062	26822.76
538.263	26644.59
538.463	26148.98
538.664	25972.85
538.865	25395.32
539.065	25411.71
539.266	24647.82
539.466	24539.27
539.667	24270.99
539.868	24184.97
540.068	24002.71
540.269	23496.86
540.469	23427.23
540.67	22827.17
540.87	22960.29
541.071	22706.34
541.271	22128.81
541.472	21887.15
541.672	21481.66
541.873	21141.69
542.073	21344.44
542.274	20988.1
542.474	20777.15
542.675	20238.54
542.875	20263.11
543.075	19943.63
543.276	19546.33
543.476	19947.73
543.676	19218.65
543.877	19196.12
544.077	18815.2
544.277	18999.52
544.478	18305.26
544.678	18458.85
544.878	18241.77
545.078	18071.79
545.279	17854.7
545.479	17621.24
545.679	17402.1
545.879	16937.21
546.079	16898.3
546.28	16646.4
546.48	16431.37
546.68	16355.59
546.88	16263.43
547.08	15989
547.28	15773.97
547.48	15388.95
547.68	15630.61
547.88	15030.55
548.081	15171.86
548.281	14831.9
548.481	14639.39
548.681	14633.25
548.881	14278.95
549.081	13981.99
549.28	13785.39
549.48	13769.01
549.68	13871.4
549.88	13601.07
550.08	13173.05
550.28	13343.03
550.48	12826.94
550.68	12671.29
550.88	12486.98
551.08	12101.96
551.279	12417.35
551.479	12005.7
551.679	11917.64
551.879	11675.98
552.079	11557.2
552.278	11166.04
552.478	11120.98
552.678	11157.85
552.878	10795.36
553.077	10543.46
553.277	10490.21
553.477	10477.92
553.676	10125.67
553.876	10035.56
554.076	9781.61
554.275	9687.4
554.475	9562.48
554.674	9484.66
554.874	9083.25
555.074	9077.11
555.273	9075.06
555.473	8931.7
555.672	8655.23
555.872	8769.91
556.071	8417.66
556.271	8454.53
556.47	8089.99
556.67	7913.86
556.869	7913.86
557.068	7825.8
557.268	7557.52
557.467	7375.25
557.667	7379.34
557.866	7303.57
558.065	7106.96
558.265	7174.55
558.464	6816.15
558.663	6875.54
558.863	6812.06
559.062	6631.83
559.261	6439.33
559.461	6525.34
559.66	6125.99
559.859	6119.84
560.058	5988.77
560.258	5988.77
560.457	6082.98
560.656	5902.76
560.855	5675.43
561.054	5831.08
561.253	5460.4
561.453	5542.32
561.652	5519.79
561.851	5376.43
562.05	5040.56
562.249	5022.13
562.448	5153.2
562.647	4966.84
562.846	4866.49
563.045	4913.59
563.244	4751.8
563.443	4704.7
563.642	4590.01
563.841	4596.15
564.04	4360.64
564.239	4489.66
564.438	4225.47
564.637	4088.26
564.836	4075.97
565.035	4217.28
565.234	4030.91
565.432	3959.24
565.631	3985.86
565.83	3963.33
566.029	3815.88
566.228	3824.07
566.427	3879.36
566.625	3537.35
566.824	3668.42
567.023	3572.17
567.222	3561.93
567.42	3461.58
567.619	3463.63
567.818	3342.8
568.016	3449.29
568.215	3287.5
568.414	3293.65
568.612	3140.05
568.811	3078.61
569.01	3076.56
569.208	2996.69
569.407	2990.55
569.605	2992.59
569.804	2806.23
570.002	2892.24
570.201	2836.95
570.4	2681.3
570.598	2626.01
570.797	2730.45
570.995	2550.23
571.193	2505.18
571.392	2585.05
571.59	2445.79
571.789	2648.54
571.987	2560.47
572.186	2431.45
572.384	2347.48
572.582	2400.73
572.781	2453.98
572.979	2179.55
573.177	2384.35
573.376	2212.32
573.574	2245.09
573.772	2118.11
573.971	2009.57
574.169	2056.67
574.367	2048.48
574.565	2085.34
574.763	1913.31
574.962	1790.44
575.16	1948.13
575.358	1819.11
575.556	1798.63
575.754	1810.92
575.952	1753.57
576.151	1843.68
576.349	1765.86
576.547	1595.88
576.745	1694.18
576.943	1610.22
577.141	1714.66
577.339	1493.48
577.537	1659.37
577.735	1677.8
577.933	1573.35
578.131	1415.66
578.329	1696.23
578.527	1450.47
578.725	1540.58
578.923	1432.04
579.121	1477.1
579.319	1227.25
579.516	1339.88
579.714	1473
579.912	1286.64
580.11	1253.87
580.308	1108.46
580.506	1341.93
580.704	1108.46
580.901	1110.51
581.099	1253.87
581.297	1100.27
581.495	1239.53
581.692	1155.57
581.89	1176.05
582.088	1163.76
582.285	1065.46
582.483	1012.21
582.681	967.15
582.878	1104.37
583.076	1036.78
583.274	1085.94
583.471	1055.22
583.669	977.39
583.866	877.04
584.064	932.34
584.262	901.62
584.459	885.23
584.657	942.58
584.854	1069.55
585.052	936.43
585.249	958.96
585.447	840.18
585.644	879.09
585.841	883.19
586.039	987.63
586.236	850.42
586.434	891.38
586.631	678.39
586.828	752.12
587.026	731.64
587.223	692.73
587.42	707.06
587.618	733.68
587.815	856.56
588.012	731.64
588.21	686.58
588.407	807.41
588.604	762.36
588.801	684.53
588.999	711.16
589.196	770.55
589.393	598.52
589.59	713.21
589.787	606.71
589.984	737.78
590.182	745.97
590.379	702.97
590.576	643.57
590.773	643.57
590.97	723.44
591.167	606.71
591.364	653.81
591.561	653.81
591.758	647.67
591.955	788.98
592.152	721.4
592.349	639.48
592.546	606.71
592.743	567.8
592.94	645.62
593.137	760.31
593.334	561.66
593.531	688.63
593.727	631.29
593.924	594.42
594.121	655.86
594.318	647.67
594.515	698.87
594.712	729.59
594.908	801.27
595.105	569.85
595.302	627.19
595.499	727.54
595.696	786.93
595.892	641.53
596.089	702.97
596.286	532.98
596.482	803.32
596.679	795.12
596.876	637.43
597.072	795.12
597.269	762.36
597.466	860.66
597.662	821.75
597.859	901.62
598.055	838.13
598.252	905.71
598.448	1012.21
598.645	1036.78
598.841	1049.07
599.038	1190.38
599.234	1085.94
599.431	1245.68
599.627	1219.05
599.824	1262.06
600.02	1188.33
600.217	1270.25
600.413	1503.72
600.609	1339.88
600.806	1507.82
601.002	1606.12
601.198	1567.21
601.395	1645.03
601.591	1675.75
601.787	1841.64
601.984	1948.13
602.18	1970.66
602.376	2021.86
602.572	2159.07
602.769	2234.85
602.965	2195.93
603.161	2392.54
603.357	2275.81
603.553	2523.61
603.75	2523.61
603.946	2611.67
604.142	2744.79
604.338	2793.94
604.534	2955.73
604.73	2972.11
604.926	2998.74
605.122	3359.18
605.318	3201.49
605.514	3359.18
605.71	3400.14
605.906	3631.56
606.102	3580.36
606.298	3822.02
606.494	4014.53
606.69	4096.45
606.886	4157.89
607.082	4051.39
607.278	4307.39
607.474	4585.91
607.67	4637.11
607.866	4778.42
608.062	4985.27
608.257	5097.91
608.453	5013.94
608.649	5319.09
608.845	5513.64
609.041	5380.53
609.236	5734.82
609.432	6056.36
609.628	6173.09
609.824	6226.34
610.019	6234.53
610.215	6545.82
610.411	6816.15
610.606	7018.9
610.802	7023
610.998	7254.42
611.193	7436.69
611.389	7588.24
611.584	7895.43
611.78	7893.38
611.976	8233.35
612.171	8644.99
612.367	8651.13
612.562	8837.5
612.758	8966.52
612.953	9175.41
613.149	9632.11
613.344	9826.67
613.539	10140.01
613.735	10422.62
613.93	10729.82
614.126	10883.42
614.321	11227.48
614.517	11518.29
614.712	11723.09
614.907	12063.05
615.103	12380.48
615.298	12507.46
615.493	12968.25
615.688	13259.06
615.884	13990.19
616.079	13977.9
616.274	14342.44
616.47	14584.1
616.665	15178.01
616.86	15194.39
617.055	15657.23
617.25	16306.44
617.445	16578.82
617.641	16728.32
617.836	17590.52
618.031	17801.46
618.226	18448.61
618.421	18479.33
618.616	19267.8
618.811	19419.35
619.006	20256.97
619.201	20064.46
619.396	20863.17
619.591	21016.77
619.786	21893.3
619.981	22163.63
620.176	22988.96
620.371	22519.98
620.566	23423.13
620.761	23853.2
620.956	24873.09
621.151	24879.24
621.346	25845.88
621.541	25921.65
621.735	26652.78
621.93	26855.53
622.125	27517.02
622.32	27863.13
622.515	28469.33
622.709	28776.52
622.904	29589.56
623.099	30130.23
623.294	30826.54
623.488	30912.55
623.683	31649.82
623.878	31770.65
624.072	32358.42
624.267	32860.17
624.462	33486.85
624.656	34060.28
624.851	34740.21
625.046	34969.58
625.24	35598.3
625.435	35817.44
625.629	36540.37
625.824	36777.93
626.018	37617.6
626.213	37603.27
626.407	38301.62
626.602	38160.31
626.796	39053.23
626.991	39499.69
627.185	39643.04
627.38	39866.27
627.574	40292.25
627.768	40609.68
627.963	40456.09
628.157	40683.41
628.352	41406.34
628.546	40806.29
628.74	41394.06
628.935	41019.28
629.129	41349
629.323	40691.6
629.517	40890.26
629.712	40867.73
629.906	40425.37
630.1	39913.37
630.294	39925.66
630.489	38926.25
630.683	39155.63
630.877	38168.51
631.071	37676.99
631.265	37244.87
631.459	36351.96
631.653	35622.88
631.848	35231.72
632.042	33935.35
632.236	33826.81
632.43	32528.4
632.624	31684.64
632.818	31168.55
633.012	29771.83
633.206	28786.76
633.4	28149.84
633.594	27162.72
633.788	26417.26
633.982	25616.51
634.176	24787.08
634.369	23722.13
634.563	22788.26
634.757	21809.33
634.951	21510.33
635.145	20525.25
635.339	19708.12
635.533	18761.95
635.726	18458.85
635.92	17180.92
636.114	16548.1
636.308	15921.42
636.501	15454.48
636.695	14797.09
636.889	14207.27
637.083	13599.02
637.276	12855.61
637.47	12351.81
637.664	12116.3
637.857	11641.17
638.051	11143.51
638.244	10668.38
638.438	10320.23
638.632	9683.31
638.825	9216.37
639.019	9073.01
639.212	8642.94
639.406	8462.72
639.599	7926.15
639.793	7575.95
639.986	7459.21
640.18	7014.8
640.373	6973.85
640.567	6592.92
640.76	6420.89
640.954	6062.5
641.147	5636.52
641.34	5605.8
641.534	5329.33
641.727	5093.81
641.92	5020.08
642.114	4944.31
642.307	4651.45
642.5	4616.63
642.694	4348.35
642.887	4149.7
643.08	4125.12
643.273	3838.41
643.467	3774.92
643.66	3498.44
643.853	3277.26
644.046	3258.83
644.239	3090.9
644.432	2941.4
644.626	2904.53
644.819	2662.87
645.012	2619.86
645.205	2646.49
645.398	2597.34
645.591	2376.16
645.784	2318.81
645.977	2122.21
646.17	2136.54
646.363	2105.82
646.556	1960.42
646.749	1792.48
646.942	1812.96
647.135	1827.3
647.328	1638.89
647.521	1710.57
647.714	1565.16
647.907	1567.21
648.099	1397.23
648.292	1534.44
648.485	1339.88
648.678	1335.79
648.871	1268.2
649.064	1190.38
649.256	1073.65
649.449	1077.74
649.642	1034.74
649.835	1040.88
650.027	1042.93
650.22	1036.78
650.413	870.9
650.605	1016.3
650.798	905.71
650.991	811.51
651.183	795.12
651.376	797.17
651.568	827.89
651.761	721.4
651.954	778.74
652.146	715.25
652.339	768.5
652.531	770.55
652.724	604.66
652.916	647.67
653.109	446.97
653.301	637.43
653.494	530.94
653.686	590.33
653.879	592.37
654.071	541.18
654.263	522.74
654.456	403.96
654.648	600.57
654.84	545.27
655.033	512.5
655.225	573.94
655.417	367.1
655.61	483.83
655.802	483.83
655.994	528.89
656.186	367.1
656.379	483.83
656.571	315.9
656.763	336.38
656.955	363
657.148	344.57
657.34	403.96
657.532	342.52
657.724	358.91
657.916	236.03
658.108	389.63
658.3	334.33
658.492	393.72
658.684	254.46
658.876	350.71
659.068	240.12
659.26	322.04
659.452	246.27
659.644	276.99
659.836	426.49
660.028	426.49
660.22	201.21
660.412	229.88
660.604	242.17
660.796	315.9
660.988	285.18
661.18	262.65
661.372	279.04
661.563	225.79
661.755	283.13
661.947	205.31
662.139	190.97
662.331	256.51
662.522	209.4
662.714	176.64
662.906	137.73
663.097	229.88
663.289	248.32
663.481	70.14
663.673	164.35
663.864	117.25
664.056	203.26
664.247	49.66
664.439	164.35
664.631	221.69
664.822	236.03
665.014	158.21
665.205	82.43
665.397	229.88
665.588	172.54
665.78	156.16
665.971	176.64
666.163	139.77
666.354	229.88
666.546	188.93
666.737	172.54
666.929	156.16
667.12	107.01
667.311	141.82
667.503	252.41
667.694	121.34
667.885	184.83
668.077	201.21
668.268	158.21
668.459	186.88
668.651	100.86
668.842	266.75
669.033	96.77
669.224	90.62
669.416	385.53
669.607	160.25
669.798	80.38
669.989	291.32
670.18	193.02
670.371	219.64
670.563	117.25
670.754	156.16
670.945	184.83
671.136	170.49
671.327	150.01
671.518	238.08
671.709	283.13
671.9	137.73
672.091	340.47
672.282	158.21
672.473	197.12
672.664	145.92
672.855	178.69
673.046	205.31
673.237	279.04
673.428	199.16
673.619	190.97
673.809	227.84
674	246.27
674.191	227.84
674.382	262.65
674.573	252.41
674.764	158.21
674.954	279.04
675.145	178.69
675.336	219.64
675.527	158.21
675.717	145.92
675.908	221.69
676.099	168.45
676.289	213.5
676.48	70.14
676.671	242.17
676.861	211.45
677.052	258.56
677.243	186.88
677.433	193.02
677.624	203.26
677.814	238.08
678.005	225.79
678.195	340.47
678.386	190.97
678.576	328.19
678.767	201.21
678.957	127.49
679.148	336.38
679.338	244.22
679.529	246.27
679.719	152.06
679.909	344.57
680.1	291.32
680.29	262.65
680.481	129.53
680.671	336.38
680.861	311.8
681.052	336.38
681.242	203.26
681.432	256.51
681.622	305.66
681.813	211.45
682.003	346.62
682.193	281.08
682.383	315.9
682.573	274.94
682.764	320
682.954	436.73
683.144	236.03
683.334	313.85
683.524	297.47
683.714	295.42
683.904	311.8
684.094	332.28
684.284	301.56
684.474	385.53
684.664	416.25
684.854	406.01
685.044	293.37
685.234	360.95
685.424	406.01
685.614	262.65
685.804	377.34
685.994	360.95
686.184	324.09
686.374	377.34
686.564	451.07
686.753	266.75
686.943	326.14
687.133	221.69
687.323	328.19
687.513	297.47
687.702	354.81
687.892	227.84
688.082	408.06
688.272	342.52
688.461	295.42
688.651	387.58
688.841	340.47
689.03	227.84
689.22	311.8
689.41	262.65
689.599	399.87
689.789	360.95
689.979	459.26
690.168	348.67
690.358	442.87
690.547	293.37
690.737	449.02
690.926	344.57
691.116	236.03
691.305	414.2
691.495	356.86
691.684	236.03
691.874	205.31
692.063	295.42
692.252	324.09
692.442	385.53
692.631	242.17
692.82	205.31
693.01	342.52
693.199	328.19
693.388	309.76
693.578	254.46
693.767	434.68
693.956	311.8
694.146	276.99
694.335	326.14
694.524	381.43
694.713	360.95
694.902	326.14
695.092	307.71
695.281	365.05
695.47	266.75
695.659	270.84
695.848	287.23
696.037	205.31
696.226	317.95
696.415	303.61
696.604	430.59
696.793	410.11
696.982	303.61
697.171	426.49
697.36	285.18
697.549	299.52
697.738	164.35
697.927	293.37
698.116	174.59
698.305	356.86
698.494	295.42
698.683	219.64
698.872	422.39
699.061	336.38
699.25	258.56
699.438	276.99
699.627	205.31
699.816	408.06
700.005	246.27
700.193	227.84
700.382	397.82
700.571	315.9
700.76	293.37
700.948	399.87
701.137	287.23
701.326	276.99
701.514	252.41
701.703	264.7
701.892	373.24
702.08	399.87
702.269	252.41
702.457	195.07
702.646	330.23
702.834	295.42
703.023	381.43
703.212	291.32
703.4	352.76
703.589	320
703.777	188.93
703.965	221.69
704.154	315.9
704.342	242.17
704.531	283.13
704.719	264.7
704.907	334.33
705.096	270.84
705.284	137.73
705.472	258.56
705.661	301.56
705.849	344.57
706.037	299.52
706.226	320
706.414	254.46
706.602	207.36
706.79	262.65
706.979	203.26
707.167	244.22
707.355	162.3
707.543	254.46
707.731	221.69
707.919	289.28
708.107	285.18
708.296	231.93
708.484	307.71
708.672	328.19
708.86	315.9
709.048	209.4
709.236	274.94
709.424	279.04
709.612	274.94
709.8	178.69
709.988	219.64
710.176	238.08
710.364	383.48
710.551	285.18
710.739	309.76
710.927	313.85
711.115	295.42
711.303	356.86
711.491	356.86
711.679	274.94
711.866	340.47
712.054	190.97
712.242	270.84
712.43	401.91
712.617	170.49
712.805	309.76
712.993	201.21
713.181	205.31
713.368	233.98
713.556	231.93
713.744	293.37
713.931	442.87
714.119	328.19
714.306	252.41
714.494	260.6
714.682	268.8
714.869	236.03
715.057	313.85
715.244	180.73
715.432	236.03
715.619	252.41
715.807	285.18
715.994	295.42
716.182	221.69
716.369	369.15
716.556	303.61
716.744	236.03
716.931	344.57
717.119	346.62
717.306	293.37
717.493	315.9
717.681	252.41
717.868	303.61
718.055	377.34
718.242	221.69
718.43	410.11
718.617	371.19
718.804	279.04
718.991	438.78
719.179	377.34
719.366	311.8
719.553	291.32
719.74	320
719.927	276.99
720.114	346.62
720.301	262.65
720.488	279.04
720.676	248.32
720.863	375.29
721.05	512.5
721.237	279.04
721.424	272.89
721.611	285.18
721.798	250.36
721.985	213.5
722.172	391.67
722.358	317.95
722.545	377.34
722.732	354.81
722.919	369.15
723.106	412.15
723.293	352.76
723.48	342.52
723.667	238.08
723.853	399.87
724.04	340.47
724.227	436.73
724.414	293.37
724.6	360.95
724.787	389.63
724.974	389.63
725.161	381.43
725.347	246.27
725.534	332.28
725.72	348.67
725.907	412.15
726.094	453.11
726.28	377.34
726.467	344.57
726.653	279.04
726.84	434.68
727.027	434.68
727.213	322.04
727.4	385.53
727.586	432.63
727.773	506.36
727.959	315.9
728.145	399.87
728.332	317.95
728.518	283.13
728.705	303.61
728.891	381.43
729.077	381.43
729.264	352.76
729.45	326.14
729.636	469.5
729.823	363
730.009	412.15
730.195	348.67
730.382	379.39
730.568	344.57
730.754	397.82
730.94	436.73
731.126	377.34
731.313	459.26
731.499	418.3
731.685	446.97
731.871	389.63
732.057	473.59
732.243	383.48
732.429	369.15
732.615	442.87
732.801	389.63
732.987	336.38
733.173	389.63
733.359	360.95
733.545	399.87
733.731	428.54
733.917	473.59
734.103	453.11
734.289	418.3
734.475	352.76
734.661	500.22
734.847	381.43
735.033	383.48
735.219	438.78
735.404	451.07
735.59	410.11
735.776	422.39
735.962	455.16
736.148	406.01
736.333	506.36
736.519	397.82
736.705	410.11
736.89	397.82
737.076	449.02
737.262	360.95
737.447	410.11
737.633	403.96
737.819	483.83
738.004	342.52
738.19	442.87
738.375	440.83
738.561	451.07
738.747	434.68
738.932	348.67
739.118	483.83
739.303	467.45
739.489	410.11
739.674	317.95
739.859	377.34
740.045	416.25
740.23	436.73
740.416	229.88
740.601	498.17
740.786	436.73
740.972	356.86
741.157	369.15
741.342	324.09
741.528	348.67
741.713	444.92
741.898	430.59
742.084	475.64
742.269	320
742.454	391.67
742.639	498.17
742.824	424.44
743.01	475.64
743.195	516.6
743.38	403.96
743.565	383.48
743.75	295.42
743.935	426.49
744.12	410.11
744.305	340.47
744.49	342.52
744.675	348.67
744.86	393.72
745.045	432.63
745.23	444.92
745.415	391.67
745.6	340.47
745.785	352.76
745.97	420.35
746.155	442.87
746.34	426.49
746.525	424.44
746.71	479.74
746.895	338.43
747.079	317.95
747.264	381.43
747.449	479.74
747.634	410.11
747.819	311.8
748.003	299.52
748.188	293.37
748.373	324.09
748.557	430.59
748.742	377.34
748.927	367.1
749.111	297.47
749.296	293.37
749.481	346.62
749.665	420.35
749.85	320
750.034	344.57
750.219	311.8
750.404	315.9
750.588	389.63
750.773	246.27
750.957	449.02
751.141	229.88
751.326	340.47
751.51	252.41
751.695	283.13
751.879	223.74
752.064	414.2
752.248	303.61
752.432	453.11
752.617	426.49
752.801	371.19
752.985	291.32
753.17	285.18
753.354	356.86
753.538	330.23
753.722	203.26
753.907	332.28
754.091	205.31
754.275	369.15
754.459	217.6
754.643	279.04
754.828	295.42
755.012	408.06
755.196	213.5
755.38	276.99
755.564	287.23
755.748	266.75
755.932	242.17
756.116	281.08
756.3	311.8
756.484	209.4
756.668	266.75
756.852	219.64
757.036	299.52
757.22	324.09
757.404	209.4
757.588	213.5
757.772	285.18
757.956	260.6
758.14	326.14
758.323	227.84
758.507	260.6
758.691	129.53
758.875	336.38
759.059	363
759.242	172.54
759.426	238.08
759.61	201.21
759.794	131.58
759.977	299.52
760.161	446.97
760.345	303.61
760.528	264.7
760.712	227.84
760.895	264.7
761.079	174.59
761.263	186.88
761.446	203.26
761.63	201.21
761.813	309.76
761.997	172.54
762.18	143.87
762.364	258.56
762.547	115.2
762.731	158.21
762.914	188.93
763.098	141.82
763.281	147.97
763.464	135.68
763.648	184.83
763.831	125.44
764.015	190.97
764.198	233.98
764.381	180.73
764.564	170.49
764.748	197.12
764.931	166.4
765.114	201.21
765.297	217.6
765.481	137.73
765.664	195.07
765.847	203.26
766.03	207.36
766.213	113.15
766.397	178.69
766.58	82.43
766.763	236.03
766.946	205.31
767.129	86.53
767.312	147.97
767.495	115.2
767.678	123.39
767.861	195.07
768.044	158.21
768.227	123.39
768.41	195.07
768.593	221.69
768.776	166.4
768.959	170.49
769.142	184.83
769.324	115.2
769.507	188.93
769.69	193.02
769.873	121.34
770.056	274.94
770.239	127.49
770.421	262.65
770.604	223.74
770.787	135.68
770.97	186.88
771.152	152.06
771.335	174.59
771.518	119.29
771.7	219.64
771.883	276.99
772.066	90.62
772.248	115.2
772.431	147.97
772.613	197.12
772.796	164.35
772.978	125.44
773.161	225.79
773.343	113.15
773.526	70.14
773.708	-24.06
773.891	14.85
774.073	172.54
774.256	45.57
774.438	244.22
774.621	115.2
774.803	145.92
774.985	111.1
775.168	152.06
775.35	72.19
775.532	170.49
775.715	66.05
775.897	217.6
776.079	86.53
776.261	172.54
776.444	127.49
776.626	78.33
776.808	74.24
776.99	82.43
777.173	82.43
777.355	94.72
777.537	127.49
777.719	135.68
777.901	115.2
778.083	82.43
778.265	25.09
778.447	199.16
778.629	20.99
778.811	37.38
778.993	113.15
779.175	182.78
779.357	107.01
779.539	18.94
779.721	74.24
779.903	217.6
780.085	84.48
780.267	145.92
780.449	102.91
780.631	166.4
780.812	90.62
780.994	131.58
781.176	53.76
781.358	68.09
781.54	66.05
781.721	127.49
781.903	170.49
782.085	80.38
782.267	41.47
782.448	-19.97
782.63	154.11
782.812	-9.73
782.993	80.38
783.175	209.4
783.357	98.81
783.538	100.86
783.72	57.86
783.901	61.95
784.083	88.57
784.264	158.21
784.446	-44.54
784.627	78.33
784.809	82.43
784.99	78.33
785.172	150.01
785.353	72.19
785.535	104.96
785.716	4.61
785.897	109.05
786.079	107.01
786.26	109.05
786.441	111.1
786.623	33.28
786.804	33.28
786.985	12.8
787.167	86.53
787.348	55.81
787.529	20.99
787.71	172.54
787.891	90.62
788.073	55.81
788.254	-3.58
788.435	131.58
788.616	96.77
788.797	-9.73
788.978	37.38
789.159	66.05
789.34	109.05
789.522	-38.4
789.703	0.51
789.884	49.66
790.065	27.14
790.246	129.53
790.427	-22.02
790.607	152.06
790.788	57.86
790.969	0.51
791.15	160.25
791.331	29.18
791.512	-40.45
791.693	-28.16
791.874	61.95
792.054	197.12
792.235	156.16
792.416	41.47
792.597	53.76
792.778	66.05
792.958	47.62
793.139	102.91
793.32	33.28
793.5	-32.26
793.681	152.06
793.862	125.44
794.042	33.28
794.223	-9.73
794.404	49.66
794.584	-48.64
794.765	47.62
794.945	-15.87
795.126	64
795.306	59.9
795.487	31.23
795.667	45.57
795.848	113.15
796.028	16.9
796.209	18.94
796.389	119.29
796.57	41.47
796.75	-19.97
796.93	39.42
797.111	20.99
797.291	49.66
797.471	135.68
797.652	12.8
797.832	-36.35
798.012	160.25
798.192	47.62
798.373	16.9
798.553	18.94
798.733	59.9
798.913	25.09
799.093	78.33
799.274	41.47
799.454	119.29
799.634	66.05
799.814	-5.63
799.994	152.06
800.174	25.09
800.354	61.95
800.534	-44.54
800.714	82.43
800.894	-40.45
801.074	39.42
801.254	74.24
801.434	219.64
801.614	16.9
801.794	37.38
801.974	1649.13
802.154	29.18
802.334	72.19
802.514	-5.63
802.693	-3.58
802.873	6.66
803.053	70.14
803.233	-15.87
803.413	47.62
803.592	23.04
803.772	-17.92
803.952	121.34
804.131	-56.83
804.311	64
804.491	96.77
804.67	10.75
804.85	39.42
805.03	123.39
805.209	137.73
805.389	51.71
805.568	6.66
805.748	94.72
805.928	82.43
806.107	-7.68
806.287	51.71
806.466	94.72
806.646	31.23
806.825	66.05
807.004	29.18
807.184	70.14
807.363	47.62
807.543	80.38
807.722	74.24
807.901	178.69
808.081	139.77
808.26	-146.94
808.439	-46.59
808.619	70.14
808.798	8.7
808.977	94.72
809.156	109.05
809.336	64
809.515	76.29
809.694	-19.97
809.873	6.66
810.052	74.24
810.231	100.86
810.411	82.43
810.59	156.16
810.769	31.23
810.948	33.28
811.127	-38.4
811.306	70.14
811.485	6.66
811.664	82.43
811.843	96.77
812.022	57.86
812.201	80.38
812.38	-3.58
812.559	-77.31
812.737	53.76
812.916	-116.22
813.095	0.51
813.274	49.66
813.453	18.94
813.632	25.09
813.811	96.77
813.989	-3.58
814.168	72.19
814.347	-58.88
814.526	39.42
814.704	176.64
814.883	170.49
815.062	-48.64
815.24	109.05
815.419	72.19
815.598	-1.54
815.776	-19.97
815.955	55.81
816.133	-50.69
816.312	72.19
816.49	-1.54
816.669	92.67
816.847	2.56
817.026	45.57
817.204	8.7
817.383	8.7
817.561	14.85
817.74	-1.54
817.918	55.81
818.097	-9.73
818.275	25.09
818.453	61.95
818.632	72.19
818.81	49.66
818.988	-9.73
819.167	33.28
819.345	-28.16
819.523	-9.73
819.701	0.51
819.879	33.28
820.058	16.9
820.236	47.62
820.414	115.2
820.592	41.47
820.77	53.76
820.948	-15.87
821.127	37.38
821.305	-3.58
821.483	-42.5
821.661	117.25
821.839	96.77
822.017	-22.02
822.195	-114.17
822.373	82.43
822.551	-40.45
822.729	33.28
822.907	-38.4
823.085	27.14
823.262	14.85
823.44	23.04
823.618	8.7
823.796	23.04
823.974	8.7
824.152	39.42
824.329	39.42
824.507	29.18
824.685	57.86
824.863	-42.5
825.04	55.81
825.218	16.9
825.396	29.18
825.574	70.14
825.751	102.91
825.929	55.81
826.107	64
826.284	4.61
826.462	66.05
826.639	6.66
826.817	4.61
826.994	25.09
827.172	-40.45
827.349	41.47
827.527	12.8
827.704	0.51
827.882	143.87
828.059	-42.5
828.237	-36.35
828.414	74.24
828.591	-122.37
828.769	47.62
828.946	16.9
829.124	76.29
829.301	64
829.478	-99.84
829.655	-7.68
829.833	76.29
830.01	-7.68
830.187	39.42
830.364	49.66
830.542	45.57
830.719	115.2
830.896	20.99
831.073	66.05
831.25	-11.78
831.427	31.23
831.604	25.09
831.782	-34.3
831.959	74.24
832.136	-38.4
832.313	53.76
832.49	-13.82
832.667	14.85
832.844	-40.45
833.021	115.2
833.198	45.57
833.374	23.04
833.551	74.24
833.728	8.7
833.905	57.86
834.082	-67.07
834.259	66.05
834.436	117.25
834.612	-42.5
834.789	123.39
834.966	16.9
835.143	86.53
835.319	-48.64
835.496	88.57
835.673	16.9
835.85	66.05
836.026	64
836.203	39.42
836.38	37.38
836.556	-52.74
836.733	-40.45
836.909	162.3
837.086	6.66
837.262	-60.93
837.439	-24.06
837.616	-42.5
837.792	-15.87
837.968	-7.68
838.145	-108.03
838.321	16.9
838.498	74.24
838.674	29.18
838.851	8.7
839.027	31.23
839.203	-56.83
839.38	43.52
839.556	82.43
839.732	147.97
839.909	41.47
840.085	74.24
840.261	-24.06
840.437	0.51
840.614	-7.68
840.79	115.2
840.966	35.33
841.142	49.66
841.318	41.47
841.494	53.76
841.671	131.58
841.847	4.61
842.023	-7.68
842.199	168.45
842.375	53.76
842.551	-67.07
842.727	-46.59
842.903	129.53
843.079	-48.64
843.255	45.57
843.431	-48.64
843.607	39.42
843.783	-142.85
843.959	57.86
844.134	64
844.31	119.29
844.486	66.05
844.662	-5.63
844.838	-24.06
845.013	78.33
845.189	33.28
845.365	33.28
845.541	-36.35
845.716	27.14
845.892	115.2
846.068	25.09
846.244	-15.87
846.419	-15.87
846.595	-52.74
846.77	-91.65
846.946	72.19
847.122	-9.73
847.297	90.62
847.473	113.15
847.648	-13.82
847.824	45.57
847.999	-97.79
848.175	53.76
848.35	43.52
848.526	61.95
848.701	49.66
848.876	76.29
849.052	64
849.227	-24.06
849.403	-11.78
849.578	18.94
849.753	37.38
849.929	57.86
850.104	-79.36
850.279	33.28
850.454	41.47
850.63	129.53
850.805	-7.68
850.98	82.43
851.155	-65.02
851.33	41.47
851.505	-26.11
851.681	135.68
851.856	8.7
852.031	-17.92
852.206	18.94
852.381	-67.07
852.556	4.61
852.731	27.14
852.906	70.14
853.081	57.86
853.256	117.25
853.431	0.51
853.606	-44.54
853.781	-34.3
853.956	-83.45
854.131	72.19
854.305	-28.16
854.48	12.8
854.655	27.14
854.83	-11.78
855.005	8.7
855.18	-46.59
855.354	12.8
855.529	-62.98
855.704	-32.26
855.879	57.86
856.053	-32.26
856.228	18.94
856.403	-67.07
856.577	-7.68
856.752	-73.21
856.926	35.33
857.101	2.56
857.276	-62.98
857.45	49.66
857.625	45.57
857.799	94.72
857.974	4.61
858.148	-48.64
858.323	-13.82
858.497	-38.4
858.672	-26.11
858.846	-110.08
859.02	53.76
859.195	-56.83
859.369	53.76
859.543	33.28
859.718	-7.68
859.892	80.38
860.066	39.42
860.241	2.56
860.415	70.14
860.589	53.76
860.763	31.23
860.938	-36.35
861.112	70.14
861.286	-7.68
861.46	35.33
861.634	-32.26
861.808	33.28
861.982	-48.64
862.157	-9.73
862.331	-32.26
862.505	-65.02
862.679	-122.37
862.853	-48.64
863.027	-36.35
863.201	117.25
863.375	-9.73
863.549	16.9
863.722	20.99
863.896	82.43
864.07	-34.3
864.244	0.51
864.418	86.53
864.592	59.9
864.766	2.56
864.939	-28.16
865.113	-87.55
865.287	64
865.461	-36.35
865.634	-3.58
865.808	2.56
865.982	64
866.156	-40.45
866.329	8.7
866.503	43.52
866.676	96.77
866.85	70.14
867.024	-46.59
867.197	8.7
867.371	61.95
867.544	49.66
867.718	-146.94
867.891	88.57
868.065	-19.97
868.238	39.42
868.412	111.1
868.585	6.66
868.759	25.09
868.932	-69.12
869.105	-19.97
869.279	59.9
869.452	-17.92
869.625	70.14
869.799	-34.3
869.972	-60.93
870.145	12.8
870.319	8.7
870.492	-60.93
870.665	-34.3
870.838	8.7
871.011	-99.84
871.185	-79.36
871.358	-83.45
871.531	76.29
871.704	-58.88
871.877	4.61
872.05	-32.26
872.223	-42.5
872.396	33.28
872.569	78.33
872.742	-91.65
872.915	-5.63
873.088	-38.4
873.261	-89.6
873.434	66.05
873.607	6.66
873.78	76.29
873.953	-67.07
874.126	37.38
874.299	49.66
874.471	47.62
874.644	-28.16
874.817	82.43
874.99	160.25
875.163	43.52
875.335	102.91
875.508	-56.83
875.681	129.53
875.853	-24.06
876.026	49.66
876.199	88.57
876.371	64
876.544	16.9
876.717	-3.58
876.889	-62.98
877.062	16.9
877.234	-19.97
877.407	-56.83
877.579	47.62
877.752	-15.87
877.924	72.19
878.097	47.62
878.269	-17.92
878.442	98.81
878.614	33.28
878.786	61.95
878.959	-24.06
879.131	0.51
879.303	-48.64
879.476	10.75
879.648	0.51
879.82	-24.06
879.993	-46.59
880.165	-15.87
880.337	-36.35
880.509	104.96
880.681	-67.07
880.854	-3.58
881.026	82.43
881.198	49.66
881.37	66.05
881.542	33.28
881.714	55.81
881.886	51.71
882.058	61.95
882.23	68.09
882.402	45.57
882.574	37.38
882.746	78.33
882.918	94.72
883.09	-3.58
883.262	-17.92
883.434	41.47
883.606	-79.36
883.778	-42.5
883.95	88.57
884.122	12.8
884.293	0.51
884.465	39.42
884.637	90.62
884.809	8.7
884.98	45.57
885.152	10.75
885.324	61.95
885.496	-85.5
885.667	10.75
885.839	-1.54
886.011	12.8
886.182	92.67
886.354	55.81
886.525	-40.45
886.697	25.09
886.869	-48.64
887.04	39.42
887.212	113.15
887.383	78.33
887.555	20.99
887.726	25.09
887.897	23.04
888.069	41.47
888.24	90.62
888.412	0.51
888.583	-5.63
888.754	0.51
888.926	-69.12
889.097	-50.69
889.268	-50.69
889.44	25.09
889.611	-44.54
889.782	-28.16
889.953	-24.06
890.125	172.54
890.296	-22.02
890.467	12.8
890.638	-73.21
890.809	-65.02
890.98	-62.98
891.151	49.66
891.323	31.23
891.494	20.99
891.665	33.28
891.836	-5.63
892.007	-75.26
892.178	90.62
892.349	-34.3
892.52	8.7
892.691	45.57
892.862	14.85
893.032	-28.16
893.203	33.28
893.374	0.51
893.545	76.29
893.716	-32.26
893.887	27.14
894.057	94.72
894.228	-58.88
894.399	14.85
894.57	82.43
894.74	37.38
894.911	43.52
895.082	-24.06
895.253	-5.63
895.423	23.04
895.594	72.19
895.764	14.85
895.935	-22.02
896.106	47.62
896.276	-26.11
896.447	4.61
896.617	-71.17
896.788	-89.6
896.958	-50.69
897.129	-75.26
897.299	10.75
897.47	147.97
897.64	4.61
897.81	-73.21
897.981	6.66
898.151	-46.59
898.322	-15.87
898.492	90.62
898.662	-32.26
898.832	-24.06
899.003	-11.78
899.173	66.05
899.343	-28.16
899.513	-97.79
