Data from USB4F104151__79__11-31-26-062.txt Node

Date: Wed Feb 26 11:31:26 EST 2025
User: louis
Spectrometer: USB4F10415
Trigger mode: 4
Integration Time (sec): 1.000000E-1
Scans to average: 1
Electric dark correction enabled: true
Nonlinearity correction enabled: false
Boxcar width: 0
XAxis mode: Wavelengths
Number of Pixels in Spectrum: 3648
>>>>>Begin Spectral Data<<<<<
178.204	-416.76
178.424	-416.76
178.644	-416.76
178.864	-400.38
179.084	-379.9
179.304	13.31
179.524	-101.37
179.744	84.99
179.964	76.8
180.184	41.98
180.404	74.75
180.624	11.26
180.844	-19.46
181.064	-66.56
181.283	-37.89
181.503	-91.13
181.723	13.31
181.943	-76.8
182.163	183.29
182.383	-39.94
182.602	52.22
182.822	185.34
183.042	111.61
183.262	-19.46
183.482	44.03
183.701	80.89
183.921	-52.22
184.141	27.65
184.361	64.51
184.58	97.28
184.8	48.13
185.02	7.17
185.239	62.46
185.459	37.89
185.679	164.86
185.898	-97.28
186.118	58.37
186.338	46.08
186.557	177.15
186.777	-13.31
186.997	-33.79
187.216	31.74
187.436	203.77
187.655	15.36
187.875	78.85
188.095	-37.89
188.314	136.19
188.534	125.95
188.753	-48.13
188.973	199.68
189.192	115.71
189.412	-13.31
189.631	70.65
189.851	156.67
190.07	199.68
190.29	-76.8
190.509	11.26
190.729	58.37
190.948	105.47
191.168	250.88
191.387	64.51
191.607	5.12
191.826	97.28
192.045	-11.26
192.265	46.08
192.484	76.8
192.704	44.03
192.923	-97.28
193.142	173.05
193.362	117.76
193.581	119.81
193.8	23.55
194.02	52.22
194.239	23.55
194.458	117.76
194.678	11.26
194.897	50.18
195.116	50.18
195.335	58.37
195.555	56.32
195.774	21.5
195.993	181.25
196.212	74.75
196.432	48.13
196.651	25.6
196.87	17.41
197.089	218.11
197.308	72.7
197.528	89.09
197.747	-3.07
197.966	66.56
198.185	117.76
198.404	-35.84
198.623	93.18
198.842	162.81
199.062	117.76
199.281	113.66
199.5	50.18
199.719	37.89
199.938	74.75
200.157	50.18
200.376	146.43
200.595	74.75
200.814	35.84
201.033	-60.42
201.252	119.81
201.471	70.65
201.69	130.05
201.909	41.98
202.128	130.05
202.347	123.9
202.566	44.03
202.785	-19.46
203.004	-68.61
203.223	246.78
203.442	146.43
203.661	-130.05
203.879	68.61
204.098	148.48
204.317	-27.65
204.536	113.66
204.755	48.13
204.974	218.11
205.193	11.26
205.411	138.24
205.63	195.58
205.849	93.18
206.068	68.61
206.287	-13.31
206.505	160.77
206.724	-21.5
206.943	37.89
207.162	39.94
207.381	130.05
207.599	50.18
207.818	56.32
208.037	-29.7
208.255	19.46
208.474	56.32
208.693	74.75
208.911	-111.61
209.13	72.7
209.349	80.89
209.567	64.51
209.786	78.85
210.005	136.19
210.223	80.89
210.442	-82.94
210.661	-31.74
210.879	173.05
211.098	64.51
211.316	17.41
211.535	84.99
211.753	125.95
211.972	107.52
212.191	-27.65
212.409	7.17
212.628	87.04
212.846	-41.98
213.065	-23.55
213.283	117.76
213.502	23.55
213.72	84.99
213.938	48.13
214.157	-50.18
214.375	193.53
214.594	33.79
214.812	82.94
215.031	15.36
215.249	54.27
215.467	39.94
215.686	72.7
215.904	93.18
216.122	5.12
216.341	99.33
216.559	64.51
216.778	136.19
216.996	134.14
217.214	23.55
217.432	115.71
217.651	-66.56
217.869	48.13
218.087	74.75
218.306	25.6
218.524	9.22
218.742	15.36
218.96	109.57
219.179	5.12
219.397	74.75
219.615	248.83
219.833	80.89
220.051	25.6
220.27	160.77
220.488	72.7
220.706	66.56
220.924	-54.27
221.142	44.03
221.36	87.04
221.578	41.98
221.796	31.74
222.015	39.94
222.233	130.05
222.451	240.64
222.669	-9.22
222.887	82.94
223.105	-33.79
223.323	-48.13
223.541	13.31
223.759	35.84
223.977	68.61
224.195	101.37
224.413	95.23
224.631	58.37
224.849	150.53
225.067	230.4
225.285	21.5
225.503	62.46
225.721	-87.04
225.939	44.03
226.157	15.36
226.375	203.77
226.592	111.61
226.81	-7.17
227.028	99.33
227.246	160.77
227.464	52.22
227.682	150.53
227.9	121.85
228.117	80.89
228.335	152.57
228.553	31.74
228.771	37.89
228.989	80.89
229.206	82.94
229.424	-17.41
229.642	-17.41
229.86	-25.6
230.077	89.09
230.295	44.03
230.513	82.94
230.731	50.18
230.948	279.55
231.166	130.05
231.384	13.31
231.601	-13.31
231.819	148.48
232.037	41.98
232.254	-19.46
232.472	33.79
232.689	35.84
232.907	27.65
233.125	7.17
233.342	31.74
233.56	-13.31
233.777	13.31
233.995	97.28
234.213	109.57
234.43	113.66
234.648	13.31
234.865	-5.12
235.083	84.99
235.3	70.65
235.518	117.76
235.735	144.38
235.953	123.9
236.17	31.74
236.388	-17.41
236.605	50.18
236.822	148.48
237.04	207.87
237.257	44.03
237.475	-91.13
237.692	132.09
237.909	95.23
238.127	21.5
238.344	64.51
238.562	78.85
238.779	-9.22
238.996	-70.65
239.214	21.5
239.431	62.46
239.648	21.5
239.865	148.48
240.083	103.42
240.3	-50.18
240.517	15.36
240.735	13.31
240.952	134.14
241.169	39.94
241.386	115.71
241.603	99.33
241.821	-52.22
242.038	97.28
242.255	107.52
242.472	17.41
242.689	39.94
242.907	95.23
243.124	109.57
243.341	-25.6
243.558	-46.08
243.775	-17.41
243.992	-84.99
244.209	39.94
244.426	166.91
244.643	119.81
244.86	68.61
245.078	-25.6
245.295	58.37
245.512	84.99
245.729	-78.85
245.946	171.01
246.163	54.27
246.38	19.46
246.597	113.66
246.814	68.61
247.031	105.47
247.248	54.27
247.464	128
247.681	142.33
247.898	37.89
248.115	111.61
248.332	-84.99
248.549	185.34
248.766	121.85
248.983	103.42
249.2	82.94
249.417	70.65
249.633	-33.79
249.85	37.89
250.067	50.18
250.284	128
250.501	46.08
250.717	125.95
250.934	-33.79
251.151	62.46
251.368	3.07
251.585	89.09
251.801	62.46
252.018	-80.89
252.235	175.1
252.451	-13.31
252.668	29.7
252.885	105.47
253.102	84.99
253.318	39.94
253.535	74.75
253.752	39.94
253.968	17.41
254.185	-60.42
254.401	74.75
254.618	117.76
254.835	-35.84
255.051	113.66
255.268	48.13
255.484	21.5
255.701	3.07
255.917	78.85
256.134	27.65
256.351	60.42
256.567	-82.94
256.784	56.32
257	-119.81
257.217	125.95
257.433	146.43
257.65	68.61
257.866	115.71
258.082	-68.61
258.299	-7.17
258.515	72.7
258.732	7.17
258.948	11.26
259.165	109.57
259.381	-37.89
259.597	128
259.814	-21.5
260.03	33.79
260.246	58.37
260.463	175.1
260.679	156.67
260.895	156.67
261.112	119.81
261.328	29.7
261.544	9.22
261.761	111.61
261.977	-1.02
262.193	23.55
262.409	35.84
262.626	82.94
262.842	11.26
263.058	-5.12
263.274	119.81
263.49	76.8
263.707	154.62
263.923	82.94
264.139	-109.57
264.355	82.94
264.571	105.47
264.787	44.03
265.004	183.29
265.22	-23.55
265.436	-19.46
265.652	68.61
265.868	37.89
266.084	-44.03
266.3	74.75
266.516	-19.46
266.732	89.09
266.948	-1.02
267.164	5.12
267.38	138.24
267.596	95.23
267.812	146.43
268.028	80.89
268.244	91.13
268.46	46.08
268.676	-15.36
268.892	54.27
269.108	-1.02
269.324	7.17
269.54	-87.04
269.756	107.52
269.972	-19.46
270.188	52.22
270.403	-62.46
270.619	-7.17
270.835	35.84
271.051	46.08
271.267	25.6
271.483	-9.22
271.698	125.95
271.914	107.52
272.13	68.61
272.346	-19.46
272.562	68.61
272.777	125.95
272.993	11.26
273.209	13.31
273.425	91.13
273.64	-76.8
273.856	109.57
274.072	39.94
274.287	-3.07
274.503	66.56
274.719	164.86
274.934	99.33
275.15	-39.94
275.366	27.65
275.581	-82.94
275.797	11.26
276.012	62.46
276.228	25.6
276.444	58.37
276.659	121.85
276.875	68.61
277.09	3.07
277.306	19.46
277.521	84.99
277.737	46.08
277.952	156.67
278.168	60.42
278.383	50.18
278.599	33.79
278.814	109.57
279.03	37.89
279.245	93.18
279.461	37.89
279.676	187.39
279.892	21.5
280.107	-35.84
280.322	-76.8
280.538	117.76
280.753	46.08
280.969	64.51
281.184	76.8
281.399	160.77
281.615	21.5
281.83	11.26
282.045	-39.94
282.26	-35.84
282.476	27.65
282.691	125.95
282.906	93.18
283.122	52.22
283.337	13.31
283.552	179.2
283.767	15.36
283.983	56.32
284.198	97.28
284.413	103.42
284.628	-95.23
284.843	105.47
285.058	123.9
285.274	-29.7
285.489	15.36
285.704	5.12
285.919	-15.36
286.134	13.31
286.349	58.37
286.564	-27.65
286.779	78.85
286.995	58.37
287.21	-107.52
287.425	56.32
287.64	72.7
287.855	84.99
288.07	-5.12
288.285	97.28
288.5	101.37
288.715	-1.02
288.93	-5.12
289.145	-52.22
289.36	62.46
289.575	27.65
289.79	66.56
290.004	-41.98
290.219	154.62
290.434	-17.41
290.649	58.37
290.864	-31.74
291.079	-13.31
291.294	56.32
291.509	113.66
291.724	54.27
291.938	46.08
292.153	74.75
292.368	62.46
292.583	50.18
292.798	70.65
293.012	39.94
293.227	97.28
293.442	-7.17
293.657	68.61
293.871	95.23
294.086	52.22
294.301	173.05
294.516	173.05
294.73	54.27
294.945	-52.22
295.16	5.12
295.374	78.85
295.589	152.57
295.804	31.74
296.018	103.42
296.233	119.81
296.447	93.18
296.662	48.13
296.877	109.57
297.091	97.28
297.306	103.42
297.52	66.56
297.735	89.09
297.949	15.36
298.164	17.41
298.378	35.84
298.593	-52.22
298.807	7.17
299.022	60.42
299.236	150.53
299.451	56.32
299.665	-9.22
299.88	17.41
300.094	66.56
300.309	11.26
300.523	33.79
300.737	-21.5
300.952	152.57
301.166	66.56
301.381	-84.99
301.595	13.31
301.809	11.26
302.024	-41.98
302.238	-9.22
302.452	140.29
302.667	91.13
302.881	228.35
303.095	136.19
303.309	74.75
303.524	15.36
303.738	64.51
303.952	-70.65
304.166	95.23
304.381	-7.17
304.595	179.2
304.809	-3.07
305.023	87.04
305.237	-17.41
305.452	-1.02
305.666	37.89
305.88	91.13
306.094	146.43
306.308	166.91
306.522	56.32
306.736	128
306.95	119.81
307.164	37.89
307.379	-13.31
307.593	164.86
307.807	193.53
308.021	125.95
308.235	89.09
308.449	9.22
308.663	3.07
308.877	240.64
309.091	54.27
309.305	140.29
309.519	-101.37
309.733	125.95
309.947	-89.09
310.161	107.52
310.374	123.9
310.588	125.95
310.802	-9.22
311.016	54.27
311.23	52.22
311.444	5.12
311.658	93.18
311.872	123.9
312.085	181.25
312.299	168.96
312.513	91.13
312.727	48.13
312.941	35.84
313.154	89.09
313.368	46.08
313.582	54.27
313.796	60.42
314.009	7.17
314.223	146.43
314.437	15.36
314.651	91.13
314.864	105.47
315.078	33.79
315.292	-76.8
315.505	44.03
315.719	87.04
315.933	15.36
316.146	27.65
316.36	37.89
316.573	193.53
316.787	27.65
317.001	80.89
317.214	-25.6
317.428	84.99
317.641	-39.94
317.855	1.02
318.068	66.56
318.282	62.46
318.495	222.2
318.709	84.99
318.922	5.12
319.136	160.77
319.349	99.33
319.563	76.8
319.776	144.38
319.99	-58.37
320.203	130.05
320.417	105.47
320.63	76.8
320.843	191.49
321.057	31.74
321.27	21.5
321.483	50.18
321.697	99.33
321.91	15.36
322.124	80.89
322.337	105.47
322.55	-9.22
322.763	35.84
322.977	25.6
323.19	-21.5
323.403	41.98
323.617	64.51
323.83	136.19
324.043	-68.61
324.256	160.77
324.469	-74.75
324.683	117.76
324.896	48.13
325.109	29.7
325.322	-66.56
325.535	166.91
325.748	146.43
325.962	48.13
326.175	21.5
326.388	50.18
326.601	121.85
326.814	21.5
327.027	87.04
327.24	105.47
327.453	31.74
327.666	111.61
327.879	91.13
328.092	107.52
328.305	35.84
328.518	5.12
328.731	11.26
328.944	101.37
329.157	97.28
329.37	72.7
329.583	203.77
329.796	164.86
330.009	-23.55
330.222	31.74
330.435	101.37
330.648	23.55
330.861	115.71
331.073	107.52
331.286	101.37
331.499	62.46
331.712	-27.65
331.925	41.98
332.138	95.23
332.35	111.61
332.563	-27.65
332.776	148.48
332.989	11.26
333.202	87.04
333.414	52.22
333.627	87.04
333.84	-9.22
334.053	103.42
334.265	33.79
334.478	13.31
334.691	132.09
334.903	17.41
335.116	-48.13
335.329	15.36
335.541	78.85
335.754	148.48
335.966	35.84
336.179	27.65
336.392	9.22
336.604	29.7
336.817	50.18
337.029	101.37
337.242	80.89
337.454	78.85
337.667	109.57
337.88	80.89
338.092	35.84
338.305	54.27
338.517	70.65
338.729	58.37
338.942	150.53
339.154	-31.74
339.367	-76.8
339.579	13.31
339.792	97.28
340.004	87.04
340.217	-3.07
340.429	54.27
340.641	-99.33
340.854	-70.65
341.066	29.7
341.278	87.04
341.491	199.68
341.703	46.08
341.915	-58.37
342.128	156.67
342.34	-9.22
342.552	11.26
342.764	56.32
342.977	84.99
343.189	97.28
343.401	60.42
343.613	-15.36
343.826	103.42
344.038	5.12
344.25	19.46
344.462	-7.17
344.674	128
344.886	44.03
345.099	48.13
345.311	31.74
345.523	41.98
345.735	-103.42
345.947	-17.41
346.159	93.18
346.371	5.12
346.583	82.94
346.795	187.39
347.007	89.09
347.219	144.38
347.431	-25.6
347.643	158.72
347.855	-29.7
348.067	84.99
348.279	50.18
348.491	7.17
348.703	91.13
348.915	62.46
349.127	-35.84
349.339	41.98
349.551	-3.07
349.763	93.18
349.975	54.27
350.187	121.85
350.399	123.9
350.61	19.46
350.822	23.55
351.034	99.33
351.246	31.74
351.458	41.98
351.669	99.33
351.881	66.56
352.093	48.13
352.305	220.16
352.517	50.18
352.728	138.24
352.94	74.75
353.152	107.52
353.363	-1.02
353.575	97.28
353.787	199.68
353.999	64.51
354.21	226.3
354.422	-60.42
354.633	89.09
354.845	37.89
355.057	3.07
355.268	44.03
355.48	144.38
355.692	-52.22
355.903	31.74
356.115	-7.17
356.326	-27.65
356.538	121.85
356.749	89.09
356.961	156.67
357.172	44.03
357.384	5.12
357.595	214.01
357.807	-70.65
358.018	37.89
358.23	70.65
358.441	166.91
358.653	27.65
358.864	-19.46
359.075	25.6
359.287	115.71
359.498	220.16
359.709	138.24
359.921	78.85
360.132	117.76
360.344	68.61
360.555	7.17
360.766	87.04
360.977	-29.7
361.189	187.39
361.4	31.74
361.611	156.67
361.823	164.86
362.034	101.37
362.245	-54.27
362.456	-17.41
362.667	111.61
362.879	33.79
363.09	82.94
363.301	72.7
363.512	66.56
363.723	21.5
363.935	-15.36
364.146	156.67
364.357	-39.94
364.568	17.41
364.779	-70.65
364.99	64.51
365.201	-25.6
365.412	87.04
365.623	5.12
365.834	101.37
366.045	68.61
366.256	68.61
366.467	80.89
366.678	17.41
366.889	76.8
367.1	66.56
367.311	99.33
367.522	37.89
367.733	121.85
367.944	103.42
368.155	-29.7
368.366	72.7
368.577	70.65
368.788	84.99
368.999	-11.26
369.209	87.04
369.42	148.48
369.631	193.53
369.842	58.37
370.053	-19.46
370.264	166.91
370.474	11.26
370.685	80.89
370.896	9.22
371.107	171.01
371.317	107.52
371.528	-60.42
371.739	107.52
371.95	46.08
372.16	136.19
372.371	-52.22
372.582	37.89
372.792	72.7
373.003	46.08
373.214	44.03
373.424	87.04
373.635	15.36
373.846	125.95
374.056	64.51
374.267	56.32
374.477	87.04
374.688	9.22
374.898	-17.41
375.109	29.7
375.319	31.74
375.53	33.79
375.74	93.18
375.951	-27.65
376.161	113.66
376.372	103.42
376.582	-9.22
376.793	60.42
377.003	-7.17
377.214	-19.46
377.424	76.8
377.635	41.98
377.845	39.94
378.055	140.29
378.266	-68.61
378.476	23.55
378.686	58.37
378.897	13.31
379.107	160.77
379.317	93.18
379.528	3.07
379.738	138.24
379.948	-48.13
380.158	87.04
380.369	64.51
380.579	-13.31
380.789	48.13
380.999	128
381.21	117.76
381.42	269.31
381.63	70.65
381.84	27.65
382.05	21.5
382.261	222.2
382.471	80.89
382.681	-23.55
382.891	164.86
383.101	97.28
383.311	13.31
383.521	23.55
383.731	109.57
383.941	224.25
384.151	66.56
384.361	-21.5
384.571	107.52
384.781	33.79
384.991	234.49
385.201	185.34
385.411	29.7
385.621	9.22
385.831	68.61
386.041	44.03
386.251	91.13
386.461	89.09
386.671	25.6
386.881	-15.36
387.091	9.22
387.301	17.41
387.511	11.26
387.72	117.76
387.93	130.05
388.14	-70.65
388.35	93.18
388.56	136.19
388.769	234.49
388.979	78.85
389.189	-60.42
389.399	35.84
389.609	101.37
389.818	113.66
390.028	23.55
390.238	105.47
390.447	23.55
390.657	60.42
390.867	27.65
391.076	-130.05
391.286	107.52
391.496	-15.36
391.705	-7.17
391.915	158.72
392.125	72.7
392.334	48.13
392.544	177.15
392.753	44.03
392.963	-41.98
393.172	76.8
393.382	-50.18
393.591	218.11
393.801	-60.42
394.01	119.81
394.22	111.61
394.429	23.55
394.639	35.84
394.848	19.46
395.058	39.94
395.267	48.13
395.477	164.86
395.686	123.9
395.895	232.44
396.105	236.54
396.314	144.38
396.524	-11.26
396.733	140.29
396.942	109.57
397.152	181.25
397.361	130.05
397.57	95.23
397.78	82.94
397.989	101.37
398.198	140.29
398.407	99.33
398.617	82.94
398.826	52.22
399.035	-29.7
399.244	216.06
399.453	105.47
399.663	62.46
399.872	50.18
400.081	-41.98
400.29	160.77
400.499	-7.17
400.708	154.62
400.917	31.74
401.127	23.55
401.336	89.09
401.545	156.67
401.754	199.68
401.963	107.52
402.172	13.31
402.381	17.41
402.59	50.18
402.799	-11.26
403.008	121.85
403.217	99.33
403.426	101.37
403.635	-31.74
403.844	39.94
404.053	29.7
404.262	60.42
404.471	168.96
404.68	140.29
404.888	-7.17
405.097	48.13
405.306	56.32
405.515	144.38
405.724	37.89
405.933	119.81
406.142	136.19
406.35	80.89
406.559	52.22
406.768	56.32
406.977	132.09
407.185	33.79
407.394	17.41
407.603	27.65
407.812	136.19
408.02	134.14
408.229	-11.26
408.438	27.65
408.646	-76.8
408.855	7.17
409.064	78.85
409.272	9.22
409.481	-23.55
409.69	33.79
409.898	-3.07
410.107	-78.85
410.315	109.57
410.524	-17.41
410.733	66.56
410.941	82.94
411.15	80.89
411.358	138.24
411.567	130.05
411.775	27.65
411.984	44.03
412.192	164.86
412.401	-25.6
412.609	181.25
412.818	130.05
413.026	125.95
413.234	-13.31
413.443	21.5
413.651	-7.17
413.86	68.61
414.068	132.09
414.276	222.2
414.485	74.75
414.693	179.2
414.901	203.77
415.11	109.57
415.318	76.8
415.526	50.18
415.734	162.81
415.943	48.13
416.151	220.16
416.359	117.76
416.567	140.29
416.776	125.95
416.984	95.23
417.192	279.55
417.4	27.65
417.608	31.74
417.817	-21.5
418.025	46.08
418.233	164.86
418.441	27.65
418.649	1.02
418.857	74.75
419.065	144.38
419.273	15.36
419.481	87.04
419.689	5.12
419.897	-1.02
420.105	21.5
420.313	107.52
420.521	123.9
420.729	181.25
420.937	25.6
421.145	54.27
421.353	130.05
421.561	175.1
421.769	97.28
421.977	74.75
422.185	125.95
422.393	33.79
422.601	140.29
422.809	154.62
423.017	103.42
423.224	119.81
423.432	99.33
423.64	66.56
423.848	152.57
424.056	-58.37
424.263	115.71
424.471	19.46
424.679	218.11
424.887	29.7
425.094	109.57
425.302	119.81
425.51	99.33
425.718	138.24
425.925	31.74
426.133	48.13
426.341	191.49
426.548	50.18
426.756	56.32
426.964	136.19
427.171	-13.31
427.379	72.7
427.586	95.23
427.794	166.91
428.001	123.9
428.209	175.1
428.417	250.88
428.624	150.53
428.832	109.57
429.039	74.75
429.247	105.47
429.454	95.23
429.662	203.77
429.869	123.9
430.076	146.43
430.284	171.01
430.491	201.72
430.699	140.29
430.906	232.44
431.114	187.39
431.321	158.72
431.528	103.42
431.736	136.19
431.943	87.04
432.15	158.72
432.358	240.64
432.565	269.31
432.772	29.7
432.979	257.02
433.187	107.52
433.394	218.11
433.601	56.32
433.808	332.79
434.016	334.84
434.223	240.64
434.43	171.01
434.637	293.88
434.844	181.25
435.052	242.68
435.259	254.97
435.466	300.03
435.673	291.84
435.88	363.51
436.087	269.31
436.294	347.13
436.501	402.43
436.708	277.5
436.915	340.99
437.122	414.71
437.329	318.46
437.537	371.71
437.743	357.37
437.95	482.3
438.157	367.61
438.364	379.9
438.571	357.37
438.778	429.05
438.985	386.04
439.192	519.16
439.399	449.53
439.606	541.69
439.813	457.72
440.02	551.93
440.227	564.22
440.433	533.5
440.64	513.02
440.847	504.82
441.054	621.56
441.261	723.96
441.467	680.95
441.674	551.93
441.881	699.38
442.088	572.41
442.294	762.87
442.501	742.39
442.708	836.6
442.914	840.69
443.121	734.2
443.328	861.17
443.534	902.13
443.741	879.6
443.948	855.03
444.154	914.42
444.361	1086.45
444.568	936.95
444.774	1123.31
444.981	900.08
445.187	1045.49
445.394	1088.5
445.6	1006.58
445.807	1293.29
446.013	1270.76
446.22	1174.51
446.426	1342.44
446.633	1516.52
446.839	1711.08
447.046	1459.18
447.252	1637.35
447.459	1532.9
447.665	1676.26
447.871	1876.96
448.078	1981.41
448.284	1846.24
448.491	1954.79
448.697	2001.89
448.903	2307.04
449.11	2261.98
449.316	2247.65
449.522	2425.82
449.728	2419.68
449.935	2530.27
450.141	2524.12
450.347	2733.01
450.553	2690.01
450.76	2825.17
450.966	2790.36
451.172	2868.18
451.378	3118.03
451.584	3124.18
451.791	3378.12
451.997	3486.67
452.203	3648.46
452.409	3797.96
452.615	3902.4
452.821	3822.53
453.027	3736.52
453.233	4463.55
453.44	4336.57
453.646	4346.81
453.852	4531.13
454.058	4924.34
454.264	4955.06
454.47	5292.98
454.676	5192.62
454.882	5790.63
455.088	5587.88
455.294	5886.89
455.5	6163.36
455.705	6501.28
455.911	6538.14
456.117	6761.37
456.323	6970.26
456.529	6921.11
456.735	7555.98
456.941	7533.45
457.147	8129.41
457.352	8305.54
457.558	8561.53
457.764	9116.53
457.97	9106.29
458.176	9628.53
458.381	10353.51
458.587	10414.95
458.793	10804.06
458.999	10937.18
459.204	12073.8
459.41	12563.26
459.616	12200.77
459.821	13171.51
460.027	13724.46
460.233	14203.69
460.438	14342.95
460.644	15270.68
460.85	15465.24
461.055	15790.86
461.261	16679.68
461.466	16374.53
461.672	16657.15
461.878	18733.79
462.083	18559.72
462.289	19061.47
462.494	19466.97
462.7	20024.01
462.905	20099.79
463.111	21637.81
463.316	22882.98
463.522	23102.11
463.727	23921.3
463.932	24873.6
464.138	25739.9
464.343	26638.95
464.549	26757.74
464.754	28590.67
464.959	29596.22
465.165	30153.27
465.37	29573.69
465.575	29878.84
465.781	31773.21
465.986	32637.45
466.191	32191
466.397	32440.85
466.602	31941.14
466.807	33456.64
467.012	34193.91
467.218	34904.56
467.423	34912.75
467.628	35838.43
467.833	37786.05
468.038	37159.37
468.244	35928.54
468.449	37827.01
468.654	37441.99
468.859	36925.9
469.064	37628.35
469.269	36211.16
469.474	36809.17
469.679	37906.88
469.885	36528.59
470.09	37321.16
470.295	37104.07
470.5	36618.71
470.705	36461.01
470.91	35600.86
471.115	35611.1
471.32	35887.58
471.525	35672.54
471.73	34497.01
471.935	34243.06
472.139	33354.24
472.344	33430.02
472.549	33180.17
472.754	32526.86
472.959	31746.59
473.164	30743.08
473.369	30435.89
473.574	31175.2
473.778	30423.6
473.983	29981.24
474.188	29416
474.393	27869.78
474.598	28041.81
474.802	27374.17
475.007	27038.31
475.212	26669.67
475.417	25436.8
475.621	25352.83
475.826	24918.66
476.031	24310.41
476.235	24302.22
476.44	24081.04
476.645	23153.31
476.849	22981.28
477.054	22788.77
477.259	22153.9
477.463	22041.26
477.668	21400.25
477.872	21473.98
478.077	20966.08
478.282	20239.05
478.486	20017.87
478.691	20257.48
478.895	19747.54
479.1	19610.32
479.304	19800.79
479.509	18684.64
479.713	19186.4
479.918	18932.45
480.122	18297.58
480.326	18672.36
480.531	18457.32
480.735	18283.24
480.94	17877.74
481.144	18651.88
481.348	17588.98
481.553	17742.58
481.757	17441.53
481.961	17552.12
482.166	17443.57
482.37	17302.26
482.574	16839.42
482.778	16829.18
482.983	17027.84
483.187	16829.18
483.391	16677.63
483.595	16448.26
483.8	16169.74
484.004	16487.17
484.208	16208.65
484.412	15842.06
484.616	15647.51
484.821	15307.54
485.025	15307.54
485.229	15127.32
485.433	14996.25
485.637	14701.34
485.841	14408.48
486.045	14465.83
486.249	14275.37
486.453	13939.5
486.657	13691.7
486.861	13746.99
487.065	13577.01
487.269	13085.5
487.473	12680
487.677	12948.28
487.881	12858.17
488.085	12358.47
488.289	12237.64
488.493	11797.32
488.697	12112.71
488.901	11711.31
489.105	11297.62
489.309	11248.47
489.512	11088.73
489.716	10857.31
489.92	10648.41
490.124	10425.18
490.328	10439.52
490.531	10048.36
490.735	10105.7
490.939	9558.89
491.143	9628.53
491.346	9302.9
491.55	9384.82
491.754	9032.57
491.958	8950.65
492.161	8708.99
492.365	8672.12
492.569	8379.26
492.772	8356.74
492.976	8407.94
493.18	8092.55
493.383	8006.53
493.587	8133.51
493.79	7869.32
493.994	7594.89
494.197	7658.38
494.401	7590.8
494.605	7435.15
494.808	7433.1
495.012	7396.24
495.215	7555.98
495.419	7500.69
495.622	7226.26
495.825	7068.56
496.029	7121.81
496.232	7256.98
496.436	7000.98
496.639	7373.71
496.843	7009.17
497.046	7005.08
497.249	7154.58
497.453	7076.76
497.656	6992.79
497.859	7078.8
498.063	7246.74
498.266	7314.32
498.469	6947.73
498.673	7003.03
498.876	7304.08
499.079	7252.88
499.282	7261.07
499.485	7467.92
499.689	7273.36
499.892	7429.01
500.095	7199.63
500.298	7486.35
500.501	7123.86
500.705	7484.3
500.908	7568.27
501.111	7482.25
501.314	7764.87
501.517	7818.12
501.72	7809.93
501.923	7916.42
502.126	7822.22
502.329	8229.76
502.532	8336.26
502.735	8264.58
502.938	8483.71
503.141	8407.94
503.344	8295.3
503.547	8842.11
503.75	8790.91
503.953	8895.35
504.156	8889.21
504.359	9020.28
504.562	8891.26
504.765	9155.44
504.968	9198.45
505.17	9569.13
505.373	9626.48
505.576	10011.5
505.779	10050.41
505.982	10031.97
506.185	10345.31
506.387	10570.59
506.59	10773.34
506.793	10785.63
506.996	10971.99
507.198	11502.42
507.401	11395.92
507.604	11723.6
507.807	12057.42
508.009	12098.38
508.212	12495.68
508.415	12671.81
508.617	13062.97
508.82	13204.28
509.022	13138.74
509.225	13818.67
509.428	14248.74
509.63	14183.21
509.833	14308.13
510.035	15096.6
510.238	15078.17
510.44	15563.54
510.643	15878.93
510.845	16204.55
511.048	16364.29
511.25	16749.31
511.453	17232.63
511.655	17664.75
511.858	18121.45
512.06	18606.82
512.262	18821.86
512.465	19184.35
512.667	19720.92
512.87	20091.6
513.072	20636.36
513.274	21293.76
513.477	21621.43
513.679	22141.61
513.881	22446.76
514.084	23141.02
514.286	23376.54
514.488	23509.66
514.69	24763.01
514.893	24920.71
515.095	25916.02
515.297	26124.91
515.499	26546.79
515.701	27103.84
515.904	27585.12
516.106	28568.14
516.308	28602.96
516.51	29633.08
516.712	29950.52
516.914	30968.36
517.116	31699.48
517.318	31865.37
517.52	32668.17
517.722	33016.33
517.925	33858.04
518.127	34456.05
518.329	35410.4
518.531	35219.94
518.733	36000.22
518.935	36819.41
519.136	37229
519.338	37906.88
519.54	38459.83
519.742	39113.13
519.944	39694.75
520.146	40649.11
520.348	40909.2
520.55	41462.15
520.752	41771.39
520.954	42584.44
521.155	42414.46
521.357	43581.8
521.559	44003.68
521.761	44890.45
521.963	44695.89
522.164	45543.75
522.366	45394.25
522.568	46412.09
522.77	46326.08
522.971	47401.26
523.173	46956.85
523.375	47595.82
523.576	47718.7
523.778	47649.06
523.98	48744.73
524.181	48787.74
524.383	48558.36
524.584	49258.77
524.786	49240.34
524.988	49242.38
525.189	50032.9
525.391	49819.91
525.592	49742.09
525.794	49877.25
525.995	50045.19
526.197	49688.84
526.398	49664.27
526.6	50120.96
526.801	49477.9
527.003	49809.67
527.204	49336.59
527.406	49602.83
527.607	49393.93
527.808	49332.5
528.01	48294.18
528.211	48505.12
528.412	48904.47
528.614	48412.96
528.815	47868.2
529.016	48130.34
529.218	46747.96
529.419	46899.51
529.62	46498.11
529.822	46039.36
530.023	45766.98
530.224	45478.22
530.425	44912.98
530.626	44345.69
530.828	43551.08
531.029	44159.33
531.23	42914.16
531.431	42572.15
531.632	42467.7
531.833	42066.3
532.035	41390.47
532.236	41232.78
532.437	40706.45
532.638	39829.92
532.839	39496.1
533.04	39223.72
533.241	38310.33
533.442	38668.72
533.643	37867.97
533.844	36983.24
534.045	37069.26
534.246	36166.1
534.447	36080.09
534.648	35574.24
534.849	35117.54
535.05	34468.34
535.251	34042.36
535.451	33440.26
535.652	33227.27
535.853	32590.35
536.054	32623.12
536.255	31965.72
536.456	30978.6
536.657	31144.48
536.857	30620.2
537.058	30300.72
537.259	30122.55
537.46	29481.53
537.66	29086.28
537.861	28992.07
538.062	28265.04
538.263	27773.53
538.463	27599.45
538.664	27339.36
538.865	26841.7
539.065	26937.96
539.266	26305.13
539.466	26069.62
539.667	25946.74
539.868	26010.23
540.068	24771.21
540.269	24914.56
540.469	24701.58
540.67	24513.16
540.87	24138.38
541.071	23661.21
541.271	23550.62
541.472	23405.21
541.672	22839.97
541.873	22536.87
542.073	22194.86
542.274	22360.75
542.474	21955.25
542.675	21707.44
542.875	21410.49
543.075	21158.59
543.276	20894.4
543.476	20837.06
543.676	20517.57
543.877	20472.52
544.077	19999.44
544.277	19817.17
544.478	19487.45
544.678	19272.41
544.878	19163.87
545.078	19055.33
545.279	19026.65
545.479	18479.85
545.679	18440.93
545.879	18162.41
546.079	18270.95
546.28	17771.25
546.48	17480.44
546.68	17724.15
546.88	17416.95
547.08	16931.58
547.28	16843.52
547.48	16372.49
547.68	16519.94
547.88	15952.65
548.081	16018.19
548.281	15893.26
548.481	15498
548.681	15725.33
548.881	15323.93
549.081	14940.96
549.28	14777.12
549.48	14758.69
549.68	14676.77
549.88	14703.39
550.08	14074.67
550.28	13865.77
550.48	13761.33
550.68	13787.95
550.88	13271.86
551.08	13105.98
551.279	13036.35
551.479	12876.6
551.679	12821.31
551.879	12528.45
552.079	12294.98
552.278	11983.69
552.478	11938.63
552.678	11803.47
552.878	11739.98
553.077	11520.85
553.277	11158.36
553.477	11193.17
553.676	10793.82
553.876	10873.69
554.076	10494.82
554.275	10357.6
554.475	10212.2
554.674	10124.13
554.874	10165.09
555.074	9800.55
555.273	9595.76
555.473	9462.64
555.672	9436.02
555.872	9161.59
556.071	9053.05
556.271	9051
556.47	8952.7
556.67	8469.37
556.869	8479.61
557.068	8356.74
557.268	8035.21
557.467	8047.49
557.667	7947.14
557.866	7746.44
558.065	7752.59
558.265	7711.63
558.464	7371.66
558.663	7349.14
558.863	7226.26
559.062	7125.91
559.261	6865.82
559.461	6994.84
559.66	6722.46
559.859	6767.51
560.058	6474.65
560.258	6220.71
560.457	6331.3
560.656	6220.71
560.855	6144.93
561.054	6314.91
561.253	5929.89
561.453	5946.28
561.652	5690.28
561.851	5737.38
562.05	5481.39
562.249	5366.7
562.448	5436.33
562.647	5247.92
562.846	5139.38
563.045	5381.04
563.244	5174.19
563.443	5104.56
563.642	5018.55
563.841	4905.91
564.04	4811.7
564.239	4815.8
564.438	4559.8
564.637	4631.48
564.836	4492.22
565.035	4465.6
565.234	4275.13
565.432	4320.19
565.631	4398.01
565.83	4168.64
566.029	4027.33
566.228	4037.57
566.427	4082.63
566.625	3937.22
566.824	3967.94
567.023	3924.93
567.222	3771.33
567.42	3775.43
567.619	3646.41
567.818	3699.66
568.016	3720.14
568.215	3556.3
568.414	3566.54
568.612	3511.24
568.811	3412.94
569.01	3308.49
569.208	3347.4
569.407	3431.37
569.605	3189.71
569.804	3054.55
570.002	3236.81
570.201	2937.81
570.4	3017.68
570.598	3001.3
570.797	2903
570.995	2816.98
571.193	2812.89
571.392	2812.89
571.59	2595.8
571.789	2796.5
571.987	2743.25
572.186	2644.95
572.384	2585.56
572.582	2558.94
572.781	2503.64
572.979	2323.42
573.177	2391
573.376	2290.65
573.574	2462.68
573.772	2268.13
573.971	2157.54
574.169	2190.3
574.367	2182.11
574.565	2147.3
574.763	2182.11
574.962	2251.74
575.16	2120.67
575.358	1952.74
575.556	1999.84
575.754	2018.27
575.952	1879.01
576.151	1876.96
576.349	2038.75
576.547	1784.8
576.745	1788.9
576.943	1825.76
577.141	1756.13
577.339	1651.69
577.537	1692.65
577.735	1768.42
577.933	1715.17
578.131	1637.35
578.329	1754.09
578.527	1580.01
578.725	1799.14
578.923	1412.07
579.121	1584.1
579.319	1444.84
579.516	1405.93
579.714	1588.2
579.912	1448.94
580.11	1330.16
580.308	1332.2
580.506	1387.5
580.704	1215.47
580.901	1319.92
581.099	1446.89
581.297	1352.68
581.495	1256.43
581.692	1221.61
581.89	1291.24
582.088	1203.18
582.285	1170.41
582.483	1166.32
582.681	1129.45
582.878	1117.17
583.076	1121.26
583.274	1145.84
583.471	1246.19
583.669	1074.16
583.866	1068.02
584.064	977.91
584.262	969.71
584.459	998.38
584.657	1041.39
584.854	1125.36
585.052	1020.91
585.249	941.04
585.447	1033.2
585.644	908.27
585.841	941.04
586.039	988.14
586.236	969.71
586.434	887.79
586.631	846.84
586.828	836.6
587.026	883.7
587.223	797.68
587.42	838.64
587.618	943.09
587.815	967.67
588.012	820.21
588.21	775.16
588.407	861.17
588.604	840.69
588.801	748.53
588.999	736.24
589.196	824.31
589.393	687.09
589.59	777.2
589.787	801.78
589.984	734.2
590.182	719.86
590.379	664.57
590.576	687.09
590.773	754.68
590.97	707.57
591.167	730.1
591.364	691.19
591.561	695.29
591.758	777.2
591.955	762.87
592.152	611.32
592.349	605.17
592.546	678.9
592.743	611.32
592.94	642.04
593.137	654.33
593.334	723.96
593.531	812.02
593.727	769.01
593.924	728.05
594.121	650.23
594.318	693.24
594.515	664.57
594.712	875.51
594.908	900.08
595.105	625.65
595.302	754.68
595.499	791.54
595.696	867.31
595.892	828.4
596.089	883.7
596.286	781.3
596.482	914.42
596.679	863.22
596.876	779.25
597.072	986.1
597.269	922.61
597.466	1006.58
597.662	900.08
597.859	922.61
598.055	1055.73
598.252	1039.34
598.448	1160.17
598.645	1162.22
598.841	1250.28
599.038	1338.35
599.234	1348.59
599.431	1424.36
599.627	1391.59
599.824	1399.79
600.02	1504.23
600.217	1416.17
600.413	1600.49
600.609	1651.69
600.806	1969.12
601.002	1725.41
601.198	1774.56
601.395	1987.55
601.591	1946.59
601.787	2051.04
601.984	2096.1
602.18	2280.41
602.376	2261.98
602.572	2302.94
602.769	2511.83
602.965	2427.87
603.161	2708.44
603.357	2685.91
603.553	2823.12
603.75	2671.58
603.946	2872.28
604.142	3099.6
604.338	3152.85
604.534	3247.05
604.73	3365.84
604.926	3556.3
605.122	3675.08
605.318	3601.35
605.514	3922.88
605.71	3861.45
605.906	4090.82
606.102	4060.1
606.298	4381.63
606.494	4436.92
606.69	4785.08
606.886	4619.19
607.082	4754.36
607.278	4899.77
607.474	5168.05
607.67	5114.8
607.866	5249.97
608.062	5721
608.257	5819.3
608.453	5741.48
608.649	6011.81
608.845	5970.85
609.041	6239.14
609.236	6519.71
609.432	6687.64
609.628	6837.14
609.824	7080.85
610.019	7123.86
610.215	7283.6
610.411	7633.8
610.606	7664.52
610.802	7955.33
610.998	8139.65
611.193	8364.93
611.389	8444.8
611.584	9028.47
611.78	8831.87
611.976	9311.09
612.171	9638.76
612.367	9837.42
612.562	10048.36
612.758	10150.76
612.953	10476.38
613.149	10984.28
613.344	11031.38
613.539	11428.69
613.735	11785.04
613.93	11748.17
614.126	12002.12
614.321	12448.58
614.517	12835.64
614.712	12880.7
614.907	13415.22
615.103	14117.67
615.298	14103.34
615.493	14691.1
615.688	14842.65
615.884	15667.98
616.079	15581.97
616.274	16026.38
616.47	16257.8
616.665	16753.41
616.86	17310.46
617.055	17910.51
617.25	18150.12
617.445	18871.01
617.641	18932.45
617.836	19739.35
618.031	19755.73
618.226	20611.78
618.421	20816.58
618.616	21430.97
618.811	21779.12
619.006	22475.43
619.201	22602.41
619.396	23589.53
619.591	23429.79
619.786	24097.42
619.981	24816.26
620.176	25238.14
620.371	25596.54
620.566	26561.13
620.761	26931.81
620.956	27701.85
621.151	27761.24
621.346	28852.81
621.541	28684.87
621.735	29993.53
621.93	29844.02
622.125	30779.95
622.32	30974.5
622.515	32137.75
622.709	32539.15
622.904	33260.04
623.099	33423.87
623.294	34529.78
623.488	34583.02
623.683	35594.72
623.878	35506.66
624.072	36516.31
624.267	36934.09
624.462	37024.2
624.656	37704.13
624.851	38394.29
625.046	38709.68
625.24	39432.61
625.435	40171.93
625.629	40593.81
625.824	40962.45
626.018	41937.28
626.213	41441.67
626.407	42699.12
626.602	42529.14
626.796	43565.42
626.991	43884.9
627.185	43962.72
627.38	44198.24
627.574	44513.62
627.768	44335.45
627.963	44743
628.157	44878.16
628.352	45269.33
628.546	44616.02
628.74	45216.08
628.935	44962.13
629.129	45254.99
629.323	44452.19
629.517	44478.81
629.712	44536.15
629.906	44126.56
630.1	43082.09
630.294	43260.27
630.489	42154.36
630.683	42637.69
630.877	40952.21
631.071	40663.44
631.265	40022.43
631.459	39236.01
631.653	37966.27
631.848	37810.62
632.042	36067.8
632.236	35684.83
632.43	34470.39
632.624	33683.97
632.818	32543.25
633.012	31466.02
633.206	30771.75
633.4	29850.17
633.594	28715.59
633.788	27742.81
633.982	26839.65
634.176	25664.12
634.369	24722.05
634.563	23722.65
634.757	22919.84
634.951	22381.23
635.145	21355.19
635.339	20810.43
635.533	19555.03
635.726	18961.12
635.92	17988.33
636.114	17533.68
636.308	16663.3
636.501	15862.54
636.695	15483.67
636.889	14826.27
637.083	14101.29
637.276	13740.85
637.47	13054.78
637.664	12415.81
637.857	11864.91
638.051	11561.81
638.244	10967.9
638.438	10396.51
638.632	10232.68
638.825	9575.28
639.019	9360.24
639.212	8780.67
639.406	8723.32
639.599	8317.83
639.793	7959.43
639.986	7656.33
640.18	7488.4
640.373	7089.04
640.567	6822.81
640.76	6601.63
640.954	6386.59
641.147	5964.71
641.34	5792.68
641.534	5632.94
641.727	5577.64
641.92	5221.3
642.114	4977.59
642.307	4879.29
642.5	4623.29
642.694	4400.06
642.887	4225.98
643.08	4223.94
643.273	4047.81
643.467	3881.92
643.66	3650.5
643.853	3558.35
644.046	3560.39
644.239	3277.77
644.432	3099.6
644.626	3087.31
644.819	2919.38
645.012	2948.05
645.205	2694.1
645.398	2714.58
645.591	2454.49
645.784	2364.38
645.977	2223.07
646.17	2204.64
646.363	2132.96
646.556	1919.97
646.749	1905.63
646.942	2008.03
647.135	1856.48
647.328	1655.78
647.521	1633.26
647.714	1649.64
647.907	1440.75
648.099	1506.28
648.292	1563.62
648.485	1397.74
648.678	1311.72
648.871	1332.2
649.064	1246.19
649.256	1194.99
649.449	1199.09
649.642	1049.58
649.835	1051.63
650.027	1031.15
650.22	1184.75
650.413	1016.82
650.605	1029.1
650.798	879.6
650.991	865.27
651.183	924.66
651.376	850.93
651.568	920.56
651.761	828.4
651.954	840.69
652.146	685.05
652.339	756.72
652.531	771.06
652.724	648.18
652.916	605.17
653.109	510.97
653.301	717.81
653.494	605.17
653.686	635.89
653.879	629.75
654.071	603.13
654.263	515.06
654.456	459.77
654.648	596.98
654.84	500.73
655.033	498.68
655.225	623.61
655.417	371.71
655.61	609.27
655.802	492.54
655.994	486.39
656.186	410.62
656.379	390.14
656.571	345.08
656.763	375.8
656.955	416.76
657.148	355.32
657.34	457.72
657.532	381.95
657.724	404.47
657.916	347.13
658.108	404.47
658.3	377.85
658.492	310.27
658.684	324.6
658.876	390.14
659.068	293.88
659.26	214.01
659.452	275.45
659.644	347.13
659.836	396.28
660.028	273.4
660.22	261.12
660.412	345.08
660.604	269.31
660.796	244.73
660.988	351.23
661.18	267.26
661.372	232.44
661.563	181.25
661.755	205.82
661.947	125.95
662.139	230.4
662.331	289.79
662.522	279.55
662.714	220.16
662.906	285.69
663.097	214.01
663.289	160.77
663.481	119.81
663.673	185.34
663.864	300.03
664.056	332.79
664.247	134.14
664.439	250.88
664.631	252.92
664.822	191.49
665.014	154.62
665.205	160.77
665.397	171.01
665.588	244.73
665.78	181.25
665.971	254.97
666.163	160.77
666.354	259.07
666.546	162.81
666.737	199.68
666.929	150.53
667.12	162.81
667.311	244.73
667.503	205.82
667.694	197.63
667.885	144.38
668.077	257.02
668.268	87.04
668.459	177.15
668.651	220.16
668.842	228.35
669.033	80.89
669.224	50.18
669.416	406.52
669.607	162.81
669.798	197.63
669.989	277.5
670.18	193.53
670.371	240.64
670.563	148.48
670.754	261.12
670.945	222.2
671.136	242.68
671.327	154.62
671.518	248.83
671.709	293.88
671.9	224.25
672.091	283.64
672.282	158.72
672.473	168.96
672.664	146.43
672.855	224.25
673.046	347.13
673.237	293.88
673.428	193.53
673.619	310.27
673.809	199.68
674	230.4
674.191	209.92
674.382	242.68
674.573	197.63
674.764	252.92
674.954	306.17
675.145	138.24
675.336	173.05
675.527	195.58
675.717	199.68
675.908	158.72
676.099	232.44
676.289	177.15
676.48	111.61
676.671	285.69
676.861	257.02
677.052	205.82
677.243	209.92
677.433	148.48
677.624	285.69
677.814	289.79
678.005	173.05
678.195	367.61
678.386	146.43
678.576	207.87
678.767	181.25
678.957	318.46
679.148	340.99
679.338	402.43
679.529	259.07
679.719	257.02
679.909	375.8
680.1	353.27
680.29	347.13
680.481	238.59
680.671	355.32
680.861	353.27
681.052	318.46
681.242	267.26
681.432	351.23
681.622	332.79
681.813	128
682.003	369.66
682.193	246.78
682.383	304.12
682.573	300.03
682.764	269.31
682.954	345.08
683.144	357.37
683.334	297.98
683.524	336.89
683.714	310.27
683.904	447.48
684.094	289.79
684.284	306.17
684.474	400.38
684.664	453.63
684.854	330.75
685.044	347.13
685.234	353.27
685.424	437.24
685.614	304.12
685.804	504.82
685.994	410.62
686.184	330.75
686.374	324.6
686.564	390.14
686.753	400.38
686.943	236.54
687.133	330.75
687.323	375.8
687.513	390.14
687.702	334.84
687.892	226.3
688.082	420.86
688.272	502.78
688.461	320.51
688.651	461.82
688.841	414.71
689.03	361.47
689.22	334.84
689.41	373.75
689.599	381.95
689.789	271.36
689.979	480.25
690.168	400.38
690.358	431.1
690.547	416.76
690.737	412.67
690.926	437.24
691.116	443.39
691.305	381.95
691.495	398.33
691.684	261.12
691.874	283.64
692.063	398.33
692.252	398.33
692.442	480.25
692.631	322.56
692.82	322.56
693.01	396.28
693.199	334.84
693.388	445.43
693.578	390.14
693.767	375.8
693.956	447.48
694.146	312.32
694.335	402.43
694.524	392.19
694.713	316.41
694.902	340.99
695.092	347.13
695.281	373.75
695.47	250.88
695.659	343.03
695.848	367.61
696.037	246.78
696.226	467.96
696.415	390.14
696.604	402.43
696.793	363.51
696.982	404.47
697.171	406.52
697.36	238.59
697.549	338.94
697.738	326.65
697.927	343.03
698.116	293.88
698.305	349.18
698.494	414.71
698.683	369.66
698.872	441.34
699.061	347.13
699.25	345.08
699.438	420.86
699.627	297.98
699.816	445.43
700.005	228.35
700.193	326.65
700.382	343.03
700.571	377.85
700.76	320.51
700.948	418.81
701.137	410.62
701.326	381.95
701.514	273.4
701.703	476.15
701.892	343.03
702.08	451.58
702.269	304.12
702.457	326.65
702.646	375.8
702.834	304.12
703.023	404.47
703.212	470.01
703.4	314.36
703.589	406.52
703.777	273.4
703.965	291.84
704.154	287.74
704.342	297.98
704.531	300.03
704.719	355.32
704.907	484.34
705.096	279.55
705.284	320.51
705.472	349.18
705.661	338.94
705.849	304.12
706.037	375.8
706.226	406.52
706.414	416.76
706.602	220.16
706.79	365.56
706.979	367.61
707.167	383.99
707.355	236.54
707.543	388.09
707.731	412.67
707.919	330.75
708.107	388.09
708.296	297.98
708.484	377.85
708.672	314.36
708.86	386.04
709.048	371.71
709.236	265.21
709.424	433.15
709.612	363.51
709.8	222.2
709.988	367.61
710.176	414.71
710.364	482.3
710.551	349.18
710.739	398.33
710.927	314.36
711.115	347.13
711.303	394.23
711.491	383.99
711.679	308.22
711.866	396.28
712.054	304.12
712.242	379.9
712.43	465.91
712.617	300.03
712.805	482.3
712.993	383.99
713.181	244.73
713.368	420.86
713.556	228.35
713.744	267.26
713.931	508.92
714.119	467.96
714.306	306.17
714.494	330.75
714.682	351.23
714.869	271.36
715.057	295.93
715.244	218.11
715.432	443.39
715.619	351.23
715.807	367.61
715.994	357.37
716.182	347.13
716.369	386.04
716.556	390.14
716.744	353.27
716.931	326.65
717.119	365.56
717.306	406.52
717.493	390.14
717.681	367.61
717.868	410.62
718.055	340.99
718.242	465.91
718.43	379.9
718.617	418.81
718.804	340.99
718.991	478.2
719.179	357.37
719.366	381.95
719.553	437.24
719.74	363.51
719.927	359.42
720.114	381.95
720.301	431.1
720.488	291.84
720.676	320.51
720.863	441.34
721.05	539.64
721.237	410.62
721.424	453.63
721.611	400.38
721.798	232.44
721.985	310.27
722.172	375.8
722.358	353.27
722.545	527.35
722.732	365.56
722.919	502.78
723.106	408.57
723.293	418.81
723.48	381.95
723.667	338.94
723.853	455.67
724.04	439.29
724.227	449.53
724.414	353.27
724.6	433.15
724.787	523.26
724.974	517.11
725.161	367.61
725.347	334.84
725.534	433.15
725.72	357.37
725.907	494.58
726.094	467.96
726.28	388.09
726.467	398.33
726.653	355.32
726.84	545.78
727.027	543.74
727.213	431.1
727.4	359.42
727.586	461.82
727.773	455.67
727.959	445.43
728.145	431.1
728.332	363.51
728.518	318.46
728.705	547.83
728.891	445.43
729.077	478.2
729.264	343.03
729.45	506.87
729.636	484.34
729.823	443.39
730.009	482.3
730.195	441.34
730.382	431.1
730.568	474.1
730.754	453.63
730.94	429.05
731.126	451.58
731.313	502.78
731.499	500.73
731.685	517.11
731.871	556.02
732.057	400.38
732.243	457.72
732.429	515.06
732.615	611.32
732.801	527.35
732.987	424.95
733.173	508.92
733.359	422.91
733.545	531.45
733.731	422.91
733.917	549.88
734.103	441.34
734.289	498.68
734.475	373.75
734.661	676.85
734.847	529.4
735.033	439.29
735.219	478.2
735.404	429.05
735.59	420.86
735.776	402.43
735.962	457.72
736.148	465.91
736.333	525.3
736.519	451.58
736.705	465.91
736.89	457.72
737.076	484.34
737.262	420.86
737.447	422.91
737.633	474.1
737.819	517.11
738.004	431.1
738.19	451.58
738.375	488.44
738.561	560.12
738.747	429.05
738.932	408.57
739.118	588.79
739.303	588.79
739.489	564.22
739.674	418.81
739.859	441.34
740.045	541.69
740.23	457.72
740.416	310.27
740.601	441.34
740.786	502.78
740.972	429.05
741.157	386.04
741.342	383.99
741.528	369.66
741.713	498.68
741.898	517.11
742.084	410.62
742.269	414.71
742.454	478.2
742.639	510.97
742.824	472.06
743.01	586.74
743.195	652.28
743.38	523.26
743.565	414.71
743.75	449.53
743.935	533.5
744.12	539.64
744.305	359.42
744.49	443.39
744.675	445.43
744.86	455.67
745.045	539.64
745.23	472.06
745.415	406.52
745.6	488.44
745.785	365.56
745.97	603.13
746.155	506.87
746.34	621.56
746.525	474.1
746.71	562.17
746.895	410.62
747.079	312.32
747.264	402.43
747.449	486.39
747.634	416.76
747.819	429.05
748.003	394.23
748.188	377.85
748.373	347.13
748.557	457.72
748.742	388.09
748.927	443.39
749.111	363.51
749.296	306.17
749.481	474.1
749.665	367.61
749.85	353.27
750.034	424.95
750.219	427
750.404	353.27
750.588	408.57
750.773	302.08
750.957	418.81
751.141	306.17
751.326	402.43
751.51	318.46
751.695	381.95
751.879	269.31
752.064	519.16
752.248	306.17
752.432	474.1
752.617	435.19
752.801	420.86
752.985	386.04
753.17	463.86
753.354	334.84
753.538	369.66
753.722	328.7
753.907	236.54
754.091	275.45
754.275	330.75
754.459	203.77
754.643	312.32
754.828	318.46
755.012	363.51
755.196	324.6
755.38	291.84
755.564	334.84
755.748	326.65
755.932	427
756.116	343.03
756.3	375.8
756.484	300.03
756.668	357.37
756.852	113.66
757.036	273.4
757.22	318.46
757.404	308.22
757.588	332.79
757.772	277.5
757.956	242.68
758.14	394.23
758.323	304.12
758.507	283.64
758.691	232.44
758.875	347.13
759.059	316.41
759.242	230.4
759.426	287.74
759.61	285.69
759.794	164.86
759.977	289.79
760.161	492.54
760.345	332.79
760.528	373.75
760.712	205.82
760.895	379.9
761.079	218.11
761.263	257.02
761.446	154.62
761.63	318.46
761.813	334.84
761.997	154.62
762.18	287.74
762.364	308.22
762.547	121.85
762.731	199.68
762.914	203.77
763.098	185.34
763.281	254.97
763.464	193.53
763.648	277.5
763.831	177.15
764.015	177.15
764.198	277.5
764.381	203.77
764.564	191.49
764.748	302.08
764.931	261.12
765.114	228.35
765.297	234.49
765.481	156.67
765.664	254.97
765.847	197.63
766.03	334.84
766.213	117.76
766.397	166.91
766.58	107.52
766.763	211.96
766.946	128
767.129	220.16
767.312	89.09
767.495	105.47
767.678	134.14
767.861	185.34
768.044	211.96
768.227	105.47
768.41	140.29
768.593	187.39
768.776	259.07
768.959	123.9
769.142	246.78
769.324	148.48
769.507	244.73
769.69	130.05
769.873	183.29
770.056	328.7
770.239	179.2
770.421	283.64
770.604	179.2
770.787	103.42
770.97	183.29
771.152	140.29
771.335	164.86
771.518	76.8
771.7	254.97
771.883	214.01
772.066	166.91
772.248	277.5
772.431	242.68
772.613	228.35
772.796	181.25
772.978	150.53
773.161	232.44
773.343	66.56
773.526	99.33
773.708	54.27
773.891	-17.41
774.073	205.82
774.256	66.56
774.438	269.31
774.621	105.47
774.803	257.02
774.985	166.91
775.168	187.39
775.35	115.71
775.532	203.77
775.715	158.72
775.897	187.39
776.079	171.01
776.261	121.85
776.444	134.14
776.626	70.65
776.808	95.23
776.99	44.03
777.173	117.76
777.355	44.03
777.537	146.43
777.719	140.29
777.901	205.82
778.083	111.61
778.265	39.94
778.447	203.77
778.629	41.98
778.811	25.6
778.993	211.96
779.175	228.35
779.357	115.71
779.539	-33.79
779.721	52.22
779.903	162.81
780.085	46.08
780.267	175.1
780.449	91.13
780.631	123.9
780.812	269.31
780.994	119.81
781.176	115.71
781.358	48.13
781.54	105.47
781.721	134.14
781.903	123.9
782.085	115.71
782.267	191.49
782.448	74.75
782.63	82.94
782.812	70.65
782.993	148.48
783.175	134.14
783.357	35.84
783.538	84.99
783.72	3.07
783.901	93.18
784.083	76.8
784.264	66.56
784.446	-31.74
784.627	89.09
784.809	244.73
784.99	82.94
785.172	84.99
785.353	84.99
785.535	128
785.716	46.08
785.897	-50.18
786.079	125.95
786.26	68.61
786.441	80.89
786.623	-17.41
786.804	101.37
786.985	68.61
787.167	140.29
787.348	80.89
787.529	21.5
787.71	166.91
787.891	142.33
788.073	19.46
788.254	-9.22
788.435	181.25
788.616	82.94
788.797	31.74
788.978	64.51
789.159	19.46
789.34	54.27
789.522	-37.89
789.703	39.94
789.884	89.09
790.065	89.09
790.246	187.39
790.427	58.37
790.607	95.23
790.788	121.85
790.969	52.22
791.15	87.04
791.331	128
791.512	23.55
791.693	39.94
791.874	93.18
792.054	156.67
792.235	121.85
792.416	7.17
792.597	21.5
792.778	107.52
792.958	82.94
793.139	66.56
793.32	89.09
793.5	21.5
793.681	80.89
793.862	15.36
794.042	58.37
794.223	-37.89
794.404	84.99
794.584	39.94
794.765	70.65
794.945	60.42
795.126	41.98
795.306	164.86
795.487	62.46
795.667	68.61
795.848	37.89
796.028	15.36
796.209	5.12
796.389	123.9
796.57	27.65
796.75	3.07
796.93	46.08
797.111	-64.51
797.291	78.85
797.471	105.47
797.652	23.55
797.832	-7.17
798.012	78.85
798.192	56.32
798.373	-80.89
798.553	-7.17
798.733	164.86
798.913	-17.41
799.093	46.08
799.274	46.08
799.454	31.74
799.634	27.65
799.814	136.19
799.994	87.04
800.174	82.94
800.354	87.04
800.534	-27.65
800.714	56.32
800.894	-44.03
801.074	29.7
801.254	27.65
801.434	84.99
801.614	97.28
801.794	-1.02
801.974	1764.33
802.154	11.26
802.334	84.99
802.514	11.26
802.693	58.37
802.873	17.41
803.053	128
803.233	97.28
803.413	44.03
803.592	15.36
803.772	-31.74
803.952	82.94
804.131	-11.26
804.311	72.7
804.491	187.39
804.67	5.12
804.85	-41.98
805.03	58.37
805.209	183.29
805.389	-5.12
805.568	-70.65
805.748	15.36
805.928	52.22
806.107	54.27
806.287	80.89
806.466	146.43
806.646	-13.31
806.825	80.89
807.004	76.8
807.184	60.42
807.363	76.8
807.543	11.26
807.722	-5.12
807.901	113.66
808.081	168.96
808.26	-25.6
808.439	9.22
808.619	3.07
808.798	5.12
808.977	56.32
809.156	152.57
809.336	41.98
809.515	58.37
809.694	1.02
809.873	-37.89
810.052	162.81
810.231	150.53
810.411	-33.79
810.59	132.09
810.769	105.47
810.948	156.67
811.127	-44.03
811.306	-9.22
811.485	-11.26
811.664	123.9
811.843	39.94
812.022	-7.17
812.201	23.55
812.38	99.33
812.559	-29.7
812.737	50.18
812.916	-52.22
813.095	-44.03
813.274	29.7
813.453	-23.55
813.632	123.9
813.811	1.02
813.989	-105.47
814.168	27.65
814.347	-27.65
814.526	48.13
814.704	134.14
814.883	97.28
815.062	-78.85
815.24	-17.41
815.419	-13.31
815.598	123.9
815.776	-46.08
815.955	46.08
816.133	-95.23
816.312	25.6
816.49	39.94
816.669	78.85
816.847	5.12
817.026	39.94
817.204	-9.22
817.383	7.17
817.561	-66.56
817.74	46.08
817.918	13.31
818.097	-23.55
818.275	44.03
818.453	11.26
818.632	58.37
818.81	21.5
818.988	-44.03
819.167	-17.41
819.345	27.65
819.523	-17.41
819.701	3.07
819.879	31.74
820.058	27.65
820.236	3.07
820.414	-5.12
820.592	54.27
820.77	-37.89
820.948	-33.79
821.127	-93.18
821.305	29.7
821.483	-66.56
821.661	136.19
821.839	76.8
822.017	-29.7
822.195	-31.74
822.373	117.76
822.551	-33.79
822.729	74.75
822.907	23.55
823.085	64.51
823.262	31.74
823.44	-62.46
823.618	66.56
823.796	72.7
823.974	-23.55
824.152	25.6
824.329	-23.55
824.507	1.02
824.685	111.61
824.863	-37.89
825.04	119.81
825.218	39.94
825.396	17.41
825.574	17.41
825.751	80.89
825.929	105.47
826.107	-84.99
826.284	39.94
826.462	31.74
826.639	-68.61
826.817	-25.6
826.994	72.7
827.172	-46.08
827.349	93.18
827.527	39.94
827.704	23.55
827.882	103.42
828.059	52.22
828.237	87.04
828.414	64.51
828.591	-64.51
828.769	21.5
828.946	-3.07
829.124	105.47
829.301	72.7
829.478	9.22
829.655	91.13
829.833	-31.74
830.01	-99.33
830.187	60.42
830.364	68.61
830.542	23.55
830.719	95.23
830.896	5.12
831.073	-1.02
831.25	97.28
831.427	119.81
831.604	74.75
831.782	5.12
831.959	-27.65
832.136	39.94
832.313	31.74
832.49	-66.56
832.667	9.22
832.844	-25.6
833.021	119.81
833.198	-44.03
833.374	95.23
833.551	128
833.728	-1.02
833.905	3.07
834.082	-68.61
834.259	78.85
834.436	128
834.612	-84.99
834.789	74.75
834.966	80.89
835.143	130.05
835.319	-93.18
835.496	95.23
835.673	-5.12
835.85	27.65
836.026	68.61
836.203	111.61
836.38	-52.22
836.556	-19.46
836.733	-17.41
836.909	87.04
837.086	25.6
837.262	-23.55
837.439	7.17
837.616	-44.03
837.792	15.36
837.968	29.7
838.145	-17.41
838.321	-29.7
838.498	9.22
838.674	35.84
838.851	3.07
839.027	15.36
839.203	25.6
839.38	27.65
839.556	-25.6
839.732	150.53
839.909	-68.61
840.085	50.18
840.261	3.07
840.437	-1.02
840.614	31.74
840.79	84.99
840.966	156.67
841.142	46.08
841.318	-50.18
841.494	91.13
841.671	21.5
841.847	-52.22
842.023	-64.51
842.199	3.07
842.375	128
842.551	-13.31
842.727	-183.29
842.903	148.48
843.079	-125.95
843.255	62.46
843.431	95.23
843.607	54.27
843.783	-173.05
843.959	27.65
844.134	11.26
844.31	119.81
844.486	-5.12
844.662	-101.37
844.838	68.61
845.013	-50.18
845.189	103.42
845.365	-35.84
845.541	35.84
845.716	7.17
845.892	58.37
846.068	-5.12
846.244	-13.31
846.419	52.22
846.595	-54.27
846.77	-44.03
846.946	84.99
847.122	-89.09
847.297	-56.32
847.473	74.75
847.648	-93.18
847.824	3.07
847.999	-66.56
848.175	-9.22
848.35	-5.12
848.526	119.81
848.701	66.56
848.876	76.8
849.052	154.62
849.227	-19.46
849.403	-9.22
849.578	31.74
849.753	27.65
849.929	89.09
850.104	-82.94
850.279	52.22
850.454	3.07
850.63	82.94
850.805	50.18
850.98	41.98
851.155	-52.22
851.33	-9.22
851.505	-115.71
851.681	150.53
851.856	-23.55
852.031	19.46
852.206	5.12
852.381	-44.03
852.556	-44.03
852.731	56.32
852.906	80.89
853.081	-17.41
853.256	72.7
853.431	54.27
853.606	-3.07
853.781	-117.76
853.956	-76.8
854.131	-13.31
854.305	-9.22
854.48	33.79
854.655	-44.03
854.83	15.36
855.005	-1.02
855.18	-41.98
855.354	-48.13
855.529	-9.22
855.704	31.74
855.879	82.94
856.053	-19.46
856.228	37.89
856.403	-74.75
856.577	44.03
856.752	-93.18
856.926	-37.89
857.101	-11.26
857.276	-64.51
857.45	80.89
857.625	27.65
857.799	-44.03
857.974	7.17
858.148	-121.85
858.323	48.13
858.497	-29.7
858.672	-15.36
858.846	23.55
859.02	66.56
859.195	-87.04
859.369	-23.55
859.543	-23.55
859.718	58.37
859.892	70.65
860.066	11.26
860.241	-25.6
860.415	-1.02
860.589	35.84
860.763	52.22
860.938	9.22
861.112	48.13
861.286	-15.36
861.46	46.08
861.634	-9.22
861.808	54.27
861.982	54.27
862.157	-142.33
862.331	-37.89
862.505	-158.72
862.679	-56.32
862.853	13.31
863.027	-3.07
863.201	113.66
863.375	-48.13
863.549	15.36
863.722	76.8
863.896	21.5
864.07	15.36
864.244	21.5
864.418	-21.5
864.592	-9.22
864.766	37.89
864.939	-27.65
865.113	-56.32
865.287	101.37
865.461	-35.84
865.634	31.74
865.808	5.12
865.982	-52.22
866.156	-99.33
866.329	-87.04
866.503	44.03
866.676	68.61
866.85	70.65
867.024	-25.6
867.197	39.94
867.371	19.46
867.544	-48.13
867.718	-89.09
867.891	175.1
868.065	-76.8
868.238	-37.89
868.412	87.04
868.585	-13.31
868.759	-19.46
868.932	11.26
869.105	-115.71
869.279	-17.41
869.452	-46.08
869.625	101.37
869.799	11.26
869.972	-54.27
870.145	-107.52
870.319	31.74
870.492	-35.84
870.665	56.32
870.838	-50.18
871.011	-140.29
871.185	-33.79
871.358	-82.94
871.531	-31.74
871.704	-58.37
871.877	33.79
872.05	-56.32
872.223	-117.76
872.396	50.18
872.569	41.98
872.742	-115.71
872.915	78.85
873.088	-29.7
873.261	-121.85
873.434	58.37
873.607	27.65
873.78	123.9
873.953	-37.89
874.126	-1.02
874.299	64.51
874.471	-15.36
874.644	-19.46
874.817	37.89
874.99	224.25
875.163	-41.98
875.335	-48.13
875.508	27.65
875.681	168.96
875.853	-1.02
876.026	-7.17
876.199	58.37
876.371	60.42
876.544	-48.13
876.717	1.02
876.889	-66.56
877.062	64.51
877.234	-115.71
877.407	-25.6
877.579	-78.85
877.752	78.85
877.924	58.37
878.097	11.26
878.269	44.03
878.442	23.55
878.614	37.89
878.786	-33.79
878.959	-7.17
879.131	17.41
879.303	-220.16
879.476	-29.7
879.648	93.18
879.82	-41.98
879.993	-9.22
880.165	-29.7
880.337	-134.14
880.509	-29.7
880.681	-105.47
880.854	-25.6
881.026	29.7
881.198	177.15
881.37	-25.6
881.542	-21.5
881.714	-48.13
881.886	-41.98
882.058	3.07
882.23	64.51
882.402	-123.9
882.574	37.89
882.746	29.7
882.918	160.77
883.09	37.89
883.262	11.26
883.434	-21.5
883.606	-29.7
883.778	-23.55
883.95	97.28
884.122	-29.7
884.293	76.8
884.465	-15.36
884.637	52.22
884.809	-76.8
884.98	-17.41
885.152	29.7
885.324	7.17
885.496	-132.09
885.667	33.79
885.839	-72.7
886.011	99.33
886.182	27.65
886.354	91.13
886.525	13.31
886.697	37.89
886.869	-113.66
887.04	-44.03
887.212	80.89
887.383	48.13
887.555	23.55
887.726	5.12
887.897	-117.76
888.069	-3.07
888.24	117.76
888.412	17.41
888.583	-68.61
888.754	-68.61
888.926	-62.46
889.097	-5.12
889.268	-107.52
889.44	-33.79
889.611	-17.41
889.782	-117.76
889.953	-19.46
890.125	152.57
890.296	-44.03
890.467	11.26
890.638	-54.27
890.809	-44.03
890.98	-72.7
891.151	-44.03
891.323	82.94
891.494	21.5
891.665	-35.84
891.836	17.41
892.007	60.42
892.178	23.55
892.349	5.12
892.52	-101.37
892.691	-23.55
892.862	-64.51
893.032	-72.7
893.203	-50.18
893.374	21.5
893.545	72.7
893.716	15.36
893.887	99.33
894.057	-27.65
894.228	21.5
894.399	-103.42
894.57	138.24
894.74	17.41
894.911	1.02
895.082	-74.75
895.253	-54.27
895.423	3.07
895.594	41.98
895.764	-17.41
895.935	-82.94
896.106	54.27
896.276	-13.31
896.447	44.03
896.617	-31.74
896.788	-97.28
896.958	-74.75
897.129	48.13
897.299	-46.08
897.47	48.13
897.64	-13.31
897.81	44.03
897.981	11.26
898.151	-62.46
898.322	13.31
898.492	52.22
898.662	-70.65
898.832	-7.17
899.003	19.46
899.173	58.37
899.343	-46.08
899.513	-74.75
