Data from USB4F104151__114__10-36-28-410.txt Node

Date: Wed Feb 26 10:36:28 EST 2025
User: louis
Spectrometer: USB4F10415
Trigger mode: 4
Integration Time (sec): 1.000000E-1
Scans to average: 1
Electric dark correction enabled: true
Nonlinearity correction enabled: false
Boxcar width: 0
XAxis mode: Wavelengths
Number of Pixels in Spectrum: 3648
>>>>>Begin Spectral Data<<<<<
178.204	-456.19
178.424	-456.19
178.644	-456.19
178.864	-402.94
179.084	-353.79
179.304	12.8
179.524	8.7
179.744	18.94
179.964	74.24
180.184	2.56
180.404	14.85
180.624	-54.78
180.844	-13.82
181.064	-112.13
181.283	74.24
181.503	-32.26
181.723	6.66
181.943	-110.08
182.163	213.5
182.383	-7.68
182.602	-1.54
182.822	152.06
183.042	37.38
183.262	31.23
183.482	-52.74
183.701	33.28
183.921	-1.54
184.141	-65.02
184.361	117.25
184.58	49.66
184.8	25.09
185.02	8.7
185.239	37.38
185.459	119.29
185.679	133.63
185.898	-77.31
186.118	35.33
186.338	61.95
186.557	139.77
186.777	-56.83
186.997	-13.82
187.216	29.18
187.436	254.46
187.655	92.67
187.875	96.77
188.095	41.47
188.314	129.53
188.534	88.57
188.753	-38.4
188.973	70.14
189.192	135.68
189.412	16.9
189.631	10.75
189.851	152.06
190.07	219.64
190.29	-24.06
190.509	41.47
190.729	14.85
190.948	139.77
191.168	221.69
191.387	23.04
191.607	25.09
191.826	51.71
192.045	61.95
192.265	90.62
192.484	20.99
192.704	82.43
192.923	-103.93
193.142	141.82
193.362	166.4
193.581	195.07
193.8	96.77
194.02	88.57
194.239	-15.87
194.458	92.67
194.678	84.48
194.897	-26.11
195.116	53.76
195.335	84.48
195.555	10.75
195.774	-15.87
195.993	102.91
196.212	51.71
196.432	4.61
196.651	29.18
196.87	35.33
197.089	256.51
197.308	39.42
197.528	80.38
197.747	-89.6
197.966	31.23
198.185	184.83
198.404	-15.87
198.623	137.73
198.842	121.34
199.062	57.86
199.281	135.68
199.5	33.28
199.719	64
199.938	59.9
200.157	68.09
200.376	127.49
200.595	139.77
200.814	35.33
201.033	31.23
201.252	182.78
201.471	57.86
201.69	90.62
201.909	53.76
202.128	102.91
202.347	141.82
202.566	57.86
202.785	-75.26
203.004	-9.73
203.223	268.8
203.442	66.05
203.661	-60.93
203.879	133.63
204.098	82.43
204.317	-30.21
204.536	53.76
204.755	59.9
204.974	115.2
205.193	-34.3
205.411	135.68
205.63	168.45
205.849	59.9
206.068	-7.68
206.287	-22.02
206.505	168.45
206.724	78.33
206.943	-46.59
207.162	-13.82
207.381	68.09
207.599	-9.73
207.818	74.24
208.037	-32.26
208.255	-11.78
208.474	119.29
208.693	98.81
208.911	8.7
209.13	123.39
209.349	23.04
209.567	100.86
209.786	33.28
210.005	180.73
210.223	82.43
210.442	-60.93
210.661	27.14
210.879	49.66
211.098	2.56
211.316	41.47
211.535	98.81
211.753	33.28
211.972	49.66
212.191	-11.78
212.409	18.94
212.628	107.01
212.846	25.09
213.065	-1.54
213.283	88.57
213.502	6.66
213.72	98.81
213.938	66.05
214.157	41.47
214.375	102.91
214.594	33.28
214.812	111.1
215.031	4.61
215.249	37.38
215.467	88.57
215.686	33.28
215.904	61.95
216.122	41.47
216.341	133.63
216.559	39.42
216.778	182.78
216.996	186.88
217.214	37.38
217.432	23.04
217.651	-30.21
217.869	-32.26
218.087	61.95
218.306	16.9
218.524	59.9
218.742	-19.97
218.96	188.93
219.179	76.29
219.397	33.28
219.615	270.84
219.833	41.47
220.051	-28.16
220.27	100.86
220.488	131.58
220.706	66.05
220.924	-30.21
221.142	-7.68
221.36	123.39
221.578	117.25
221.796	-32.26
222.015	35.33
222.233	43.52
222.451	174.59
222.669	23.04
222.887	80.38
223.105	18.94
223.323	23.04
223.541	-22.02
223.759	72.19
223.977	39.42
224.195	162.3
224.413	139.77
224.631	61.95
224.849	82.43
225.067	317.95
225.285	-1.54
225.503	-17.92
225.721	-75.26
225.939	84.48
226.157	76.29
226.375	219.64
226.592	-58.88
226.81	49.66
227.028	186.88
227.246	182.78
227.464	90.62
227.682	70.14
227.9	6.66
228.117	43.52
228.335	27.14
228.553	-15.87
228.771	90.62
228.989	104.96
229.206	66.05
229.424	47.62
229.642	53.76
229.86	-30.21
230.077	88.57
230.295	80.38
230.513	84.48
230.731	125.44
230.948	201.21
231.166	135.68
231.384	39.42
231.601	-44.54
231.819	207.36
232.037	4.61
232.254	8.7
232.472	33.28
232.689	6.66
232.907	152.06
233.125	10.75
233.342	-108.03
233.56	16.9
233.777	113.15
233.995	-87.55
234.213	172.54
234.43	107.01
234.648	113.15
234.865	-9.73
235.083	102.91
235.3	29.18
235.518	111.1
235.735	152.06
235.953	64
236.17	27.14
236.388	64
236.605	68.09
236.822	109.05
237.04	100.86
237.257	133.63
237.475	-30.21
237.692	64
237.909	49.66
238.127	53.76
238.344	70.14
238.562	61.95
238.779	2.56
238.996	-77.31
239.214	104.96
239.431	109.05
239.648	25.09
239.865	133.63
240.083	127.49
240.3	74.24
240.517	20.99
240.735	49.66
240.952	119.29
241.169	-32.26
241.386	123.39
241.603	-65.02
241.821	-124.41
242.038	115.2
242.255	229.88
242.472	43.52
242.689	119.29
242.907	80.38
243.124	61.95
243.341	41.47
243.558	4.61
243.775	-77.31
243.992	2.56
244.209	90.62
244.426	131.58
244.643	127.49
244.86	-69.12
245.078	199.16
245.295	2.56
245.512	37.38
245.729	-42.5
245.946	115.2
246.163	39.42
246.38	88.57
246.597	33.28
246.814	84.48
247.031	76.29
247.248	61.95
247.464	86.53
247.681	113.15
247.898	59.9
248.115	90.62
248.332	6.66
248.549	166.4
248.766	127.49
248.983	121.34
249.2	139.77
249.417	135.68
249.633	23.04
249.85	68.09
250.067	-3.58
250.284	33.28
250.501	180.73
250.717	41.47
250.934	-9.73
251.151	14.85
251.368	0.51
251.585	94.72
251.801	37.38
252.018	27.14
252.235	152.06
252.451	-56.83
252.668	31.23
252.885	102.91
253.102	59.9
253.318	43.52
253.535	61.95
253.752	51.71
253.968	39.42
254.185	-101.89
254.401	31.23
254.618	78.33
254.835	-52.74
255.051	170.49
255.268	78.33
255.484	-7.68
255.701	39.42
255.917	8.7
256.134	10.75
256.351	23.04
256.567	-13.82
256.784	6.66
257	-87.55
257.217	166.4
257.433	57.86
257.65	39.42
257.866	170.49
258.082	-50.69
258.299	-11.78
258.515	115.2
258.732	0.51
258.948	0.51
259.165	82.43
259.381	-73.21
259.597	96.77
259.814	45.57
260.03	-62.98
260.246	-7.68
260.463	127.49
260.679	127.49
260.895	45.57
261.112	100.86
261.328	27.14
261.544	43.52
261.761	156.16
261.977	8.7
262.193	-1.54
262.409	96.77
262.626	53.76
262.842	78.33
263.058	27.14
263.274	195.07
263.49	109.05
263.707	49.66
263.923	98.81
264.139	-48.64
264.355	6.66
264.571	131.58
264.787	45.57
265.004	170.49
265.22	2.56
265.436	23.04
265.652	-3.58
265.868	61.95
266.084	-46.59
266.3	51.71
266.516	8.7
266.732	109.05
266.948	84.48
267.164	-56.83
267.38	100.86
267.596	109.05
267.812	152.06
268.028	68.09
268.244	39.42
268.46	61.95
268.676	-54.78
268.892	39.42
269.108	51.71
269.324	47.62
269.54	-24.06
269.756	197.12
269.972	-17.92
270.188	57.86
270.403	-44.54
270.619	16.9
270.835	107.01
271.051	41.47
271.267	35.33
271.483	10.75
271.698	80.38
271.914	8.7
272.13	86.53
272.346	18.94
272.562	147.97
272.777	57.86
272.993	-1.54
273.209	8.7
273.425	113.15
273.64	-73.21
273.856	70.14
274.072	-81.41
274.287	-13.82
274.503	121.34
274.719	135.68
274.934	-17.92
275.15	-15.87
275.366	49.66
275.581	-60.93
275.797	-7.68
276.012	43.52
276.228	-11.78
276.444	20.99
276.659	195.07
276.875	6.66
277.09	-34.3
277.306	4.61
277.521	143.87
277.737	90.62
277.952	164.35
278.168	39.42
278.383	115.2
278.599	31.23
278.814	70.14
279.03	47.62
279.245	150.01
279.461	43.52
279.676	184.83
279.892	-122.37
280.107	-26.11
280.322	6.66
280.538	164.35
280.753	-24.06
280.969	131.58
281.184	45.57
281.399	135.68
281.615	76.29
281.83	49.66
282.045	-105.98
282.26	41.47
282.476	27.14
282.691	72.19
282.906	0.51
283.122	10.75
283.337	-17.92
283.552	68.09
283.767	-67.07
283.983	4.61
284.198	16.9
284.413	113.15
284.628	-17.92
284.843	39.42
285.058	156.16
285.274	12.8
285.489	70.14
285.704	172.54
285.919	31.23
286.134	23.04
286.349	107.01
286.564	-24.06
286.779	162.3
286.995	-15.87
287.21	-50.69
287.425	74.24
287.64	10.75
287.855	14.85
288.07	-48.64
288.285	123.39
288.5	102.91
288.715	51.71
288.93	-17.92
289.145	-9.73
289.36	150.01
289.575	-11.78
289.79	233.98
290.004	68.09
290.219	96.77
290.434	-1.54
290.649	-40.45
290.864	-24.06
291.079	41.47
291.294	107.01
291.509	29.18
291.724	-32.26
291.938	-3.58
292.153	121.34
292.368	-36.35
292.583	111.1
292.798	68.09
293.012	35.33
293.227	55.81
293.442	0.51
293.657	113.15
293.871	80.38
294.086	94.72
294.301	131.58
294.516	35.33
294.73	109.05
294.945	16.9
295.16	27.14
295.374	184.83
295.589	125.44
295.804	-36.35
296.018	43.52
296.233	78.33
296.447	66.05
296.662	-44.54
296.877	100.86
297.091	64
297.306	-1.54
297.52	53.76
297.735	92.67
297.949	68.09
298.164	74.24
298.378	61.95
298.593	-46.59
298.807	-7.68
299.022	-13.82
299.236	178.69
299.451	20.99
299.665	16.9
299.88	4.61
300.094	-52.74
300.309	4.61
300.523	47.62
300.737	33.28
300.952	76.29
301.166	55.81
301.381	-19.97
301.595	35.33
301.809	61.95
302.024	88.57
302.238	-17.92
302.452	121.34
302.667	109.05
302.881	166.4
303.095	135.68
303.309	92.67
303.524	37.38
303.738	76.29
303.952	-3.58
304.166	119.29
304.381	-116.22
304.595	119.29
304.809	-24.06
305.023	39.42
305.237	94.72
305.452	86.53
305.666	47.62
305.88	74.24
306.094	94.72
306.308	111.1
306.522	61.95
306.736	68.09
306.95	66.05
307.164	-9.73
307.379	-11.78
307.593	143.87
307.807	61.95
308.021	117.25
308.235	55.81
308.449	4.61
308.663	82.43
308.877	190.97
309.091	4.61
309.305	80.38
309.519	-95.74
309.733	127.49
309.947	2.56
310.161	45.57
310.374	123.39
310.588	115.2
310.802	-93.69
311.016	8.7
311.23	57.86
311.444	113.15
311.658	43.52
311.872	195.07
312.085	133.63
312.299	172.54
312.513	68.09
312.727	41.47
312.941	-114.17
313.154	41.47
313.368	47.62
313.582	107.01
313.796	102.91
314.009	-9.73
314.223	162.3
314.437	78.33
314.651	45.57
314.864	12.8
315.078	29.18
315.292	-19.97
315.505	-11.78
315.719	76.29
315.933	35.33
316.146	104.96
316.36	-1.54
316.573	92.67
316.787	12.8
317.001	82.43
317.214	-62.98
317.428	20.99
317.641	-73.21
317.855	90.62
318.068	41.47
318.282	92.67
318.495	131.58
318.709	51.71
318.922	66.05
319.136	217.6
319.349	119.29
319.563	-24.06
319.776	96.77
319.99	-24.06
320.203	184.83
320.417	-7.68
320.63	27.14
320.843	131.58
321.057	45.57
321.27	4.61
321.483	70.14
321.697	119.29
321.91	49.66
322.124	45.57
322.337	10.75
322.55	-40.45
322.763	88.57
322.977	-5.63
323.19	35.33
323.403	-89.6
323.617	90.62
323.83	125.44
324.043	35.33
324.256	55.81
324.469	-79.36
324.683	141.82
324.896	49.66
325.109	53.76
325.322	-5.63
325.535	143.87
325.748	145.92
325.962	-34.3
326.175	18.94
326.388	47.62
326.601	150.01
326.814	18.94
327.027	100.86
327.24	154.11
327.453	-103.93
327.666	-3.58
327.879	72.19
328.092	80.38
328.305	121.34
328.518	-3.58
328.731	10.75
328.944	47.62
329.157	66.05
329.37	33.28
329.583	147.97
329.796	133.63
330.009	4.61
330.222	158.21
330.435	164.35
330.648	137.73
330.861	107.01
331.073	33.28
331.286	107.01
331.499	47.62
331.712	-3.58
331.925	49.66
332.138	18.94
332.35	84.48
332.563	-1.54
332.776	70.14
332.989	2.56
333.202	47.62
333.414	27.14
333.627	55.81
333.84	-28.16
334.053	18.94
334.265	16.9
334.478	8.7
334.691	64
334.903	70.14
335.116	64
335.329	-40.45
335.541	96.77
335.754	107.01
335.966	-19.97
336.179	84.48
336.392	10.75
336.604	4.61
336.817	115.2
337.029	84.48
337.242	107.01
337.454	45.57
337.667	74.24
337.88	147.97
338.092	-9.73
338.305	123.39
338.517	45.57
338.729	72.19
338.942	123.39
339.154	-22.02
339.367	-38.4
339.579	135.68
339.792	47.62
340.004	74.24
340.217	-15.87
340.429	98.81
340.641	-48.64
340.854	-34.3
341.066	59.9
341.278	147.97
341.491	287.23
341.703	84.48
341.915	53.76
342.128	57.86
342.34	92.67
342.552	27.14
342.764	127.49
342.977	-19.97
343.189	102.91
343.401	78.33
343.613	-26.11
343.826	88.57
344.038	10.75
344.25	61.95
344.462	53.76
344.674	127.49
344.886	16.9
345.099	61.95
345.311	104.96
345.523	-32.26
345.735	-67.07
345.947	25.09
346.159	76.29
346.371	8.7
346.583	94.72
346.795	141.82
347.007	-48.64
347.219	80.38
347.431	-44.54
347.643	143.87
347.855	4.61
348.067	115.2
348.279	-13.82
348.491	113.15
348.703	119.29
348.915	14.85
349.127	-48.64
349.339	66.05
349.551	-5.63
349.763	66.05
349.975	35.33
350.187	45.57
350.399	119.29
350.61	107.01
350.822	0.51
351.034	61.95
351.246	8.7
351.458	115.2
351.669	66.05
351.881	207.36
352.093	127.49
352.305	115.2
352.517	57.86
352.728	213.5
352.94	123.39
353.152	80.38
353.363	-7.68
353.575	125.44
353.787	213.5
353.999	64
354.21	186.88
354.422	-15.87
354.633	-7.68
354.845	72.19
355.057	-22.02
355.268	14.85
355.48	82.43
355.692	-93.69
355.903	51.71
356.115	20.99
356.326	-73.21
356.538	98.81
356.749	152.06
356.961	92.67
357.172	29.18
357.384	-65.02
357.595	266.75
357.807	-32.26
358.018	-13.82
358.23	33.28
358.441	137.73
358.653	43.52
358.864	2.56
359.075	-1.54
359.287	147.97
359.498	117.25
359.709	51.71
359.921	98.81
360.132	82.43
360.344	150.01
360.555	18.94
360.766	57.86
360.977	-58.88
361.189	135.68
361.4	-11.78
361.611	68.09
361.823	133.63
362.034	115.2
362.245	-5.63
362.456	51.71
362.667	33.28
362.879	-22.02
363.09	57.86
363.301	139.77
363.512	74.24
363.723	-67.07
363.935	-30.21
364.146	74.24
364.357	-9.73
364.568	-7.68
364.779	29.18
364.99	90.62
365.201	0.51
365.412	150.01
365.623	-71.17
365.834	31.23
366.045	16.9
366.256	88.57
366.467	49.66
366.678	57.86
366.889	68.09
367.1	53.76
367.311	131.58
367.522	14.85
367.733	74.24
367.944	70.14
368.155	-22.02
368.366	104.96
368.577	147.97
368.788	127.49
368.999	-62.98
369.209	127.49
369.42	268.8
369.631	270.84
369.842	53.76
370.053	53.76
370.264	57.86
370.474	-79.36
370.685	100.86
370.896	96.77
371.107	98.81
371.317	64
371.528	45.57
371.739	107.01
371.95	100.86
372.16	66.05
372.371	-87.55
372.582	25.09
372.792	74.24
373.003	76.29
373.214	82.43
373.424	107.01
373.635	-56.83
373.846	82.43
374.056	27.14
374.267	147.97
374.477	119.29
374.688	-77.31
374.898	64
375.109	64
375.319	8.7
375.53	125.44
375.74	64
375.951	12.8
376.161	117.25
376.372	156.16
376.582	53.76
376.793	90.62
377.003	-48.64
377.214	-48.64
377.424	94.72
377.635	47.62
377.845	-40.45
378.055	102.91
378.266	-26.11
378.476	20.99
378.686	119.29
378.897	41.47
379.107	162.3
379.317	76.29
379.528	102.91
379.738	74.24
379.948	27.14
380.158	66.05
380.369	78.33
380.579	94.72
380.789	6.66
380.999	107.01
381.21	98.81
381.42	131.58
381.63	47.62
381.84	156.16
382.05	70.14
382.261	127.49
382.471	170.49
382.681	39.42
382.891	90.62
383.101	57.86
383.311	8.7
383.521	-7.68
383.731	43.52
383.941	66.05
384.151	86.53
384.361	61.95
384.571	109.05
384.781	74.24
384.991	211.45
385.201	201.21
385.411	168.45
385.621	49.66
385.831	107.01
386.041	18.94
386.251	117.25
386.461	133.63
386.671	45.57
386.881	55.81
387.091	66.05
387.301	131.58
387.511	45.57
387.72	98.81
387.93	70.14
388.14	6.66
388.35	86.53
388.56	127.49
388.769	133.63
388.979	70.14
389.189	-28.16
389.399	-1.54
389.609	94.72
389.818	51.71
390.028	66.05
390.238	94.72
390.447	-24.06
390.657	74.24
390.867	14.85
391.076	-50.69
391.286	68.09
391.496	37.38
391.705	10.75
391.915	193.02
392.125	135.68
392.334	35.33
392.544	195.07
392.753	72.19
392.963	33.28
393.172	119.29
393.382	-38.4
393.591	205.31
393.801	37.38
394.01	170.49
394.22	135.68
394.429	51.71
394.639	31.23
394.848	84.48
395.058	121.34
395.267	57.86
395.477	76.29
395.686	84.48
395.895	188.93
396.105	209.4
396.314	14.85
396.524	47.62
396.733	61.95
396.942	86.53
397.152	57.86
397.361	55.81
397.57	113.15
397.78	86.53
397.989	-1.54
398.198	186.88
398.407	66.05
398.617	70.14
398.826	37.38
399.035	-13.82
399.244	164.35
399.453	92.67
399.663	12.8
399.872	123.39
400.081	-91.65
400.29	86.53
400.499	16.9
400.708	117.25
400.917	47.62
401.127	78.33
401.336	-48.64
401.545	180.73
401.754	141.82
401.963	109.05
402.172	33.28
402.381	-17.92
402.59	-1.54
402.799	-19.97
403.008	92.67
403.217	6.66
403.426	8.7
403.635	-26.11
403.844	61.95
404.053	-32.26
404.262	33.28
404.471	211.45
404.68	33.28
404.888	23.04
405.097	37.38
405.306	6.66
405.515	64
405.724	113.15
405.933	111.1
406.142	20.99
406.35	96.77
406.559	-3.58
406.768	57.86
406.977	139.77
407.185	57.86
407.394	16.9
407.603	6.66
407.812	82.43
408.02	147.97
408.229	74.24
408.438	6.66
408.646	-83.45
408.855	61.95
409.064	82.43
409.272	-52.74
409.481	43.52
409.69	14.85
409.898	-71.17
410.107	117.25
410.315	78.33
410.524	37.38
410.733	76.29
410.941	64
411.15	70.14
411.358	123.39
411.567	137.73
411.775	41.47
411.984	107.01
412.192	143.87
412.401	23.04
412.609	127.49
412.818	139.77
413.026	94.72
413.234	113.15
413.443	90.62
413.651	6.66
413.86	-22.02
414.068	180.73
414.276	160.25
414.485	68.09
414.693	84.48
414.901	176.64
415.11	-13.82
415.318	16.9
415.526	20.99
415.734	131.58
415.943	68.09
416.151	180.73
416.359	74.24
416.567	-3.58
416.776	160.25
416.984	43.52
417.192	172.54
417.4	8.7
417.608	14.85
417.817	-5.63
418.025	92.67
418.233	180.73
418.441	-89.6
418.649	-71.17
418.857	94.72
419.065	154.11
419.273	-3.58
419.481	25.09
419.689	72.19
419.897	20.99
420.105	-3.58
420.313	197.12
420.521	150.01
420.729	94.72
420.937	35.33
421.145	14.85
421.353	119.29
421.561	152.06
421.769	78.33
421.977	-30.21
422.185	141.82
422.393	29.18
422.601	70.14
422.809	143.87
423.017	152.06
423.224	74.24
423.432	137.73
423.64	43.52
423.848	147.97
424.056	20.99
424.263	113.15
424.471	39.42
424.679	207.36
424.887	-62.98
425.094	121.34
425.302	170.49
425.51	104.96
425.718	76.29
425.925	84.48
426.133	53.76
426.341	150.01
426.548	37.38
426.756	47.62
426.964	98.81
427.171	10.75
427.379	129.53
427.586	23.04
427.794	160.25
428.001	133.63
428.209	125.44
428.417	156.16
428.624	72.19
428.832	147.97
429.039	68.09
429.247	31.23
429.454	154.11
429.662	229.88
429.869	55.81
430.076	64
430.284	188.93
430.491	201.21
430.699	31.23
430.906	217.6
431.114	92.67
431.321	176.64
431.528	76.29
431.736	119.29
431.943	154.11
432.15	137.73
432.358	184.83
432.565	166.4
432.772	-5.63
432.979	205.31
433.187	135.68
433.394	213.5
433.601	129.53
433.808	186.88
434.016	193.02
434.223	158.21
434.43	135.68
434.637	236.03
434.844	317.95
435.052	188.93
435.259	229.88
435.466	258.56
435.673	285.18
435.88	276.99
436.087	315.9
436.294	369.15
436.501	375.29
436.708	188.93
436.915	283.13
437.122	322.04
437.329	176.64
437.537	262.65
437.743	268.8
437.95	354.81
438.157	346.62
438.364	336.38
438.571	266.75
438.778	336.38
438.985	379.39
439.192	453.11
439.399	471.54
439.606	387.58
439.813	446.97
440.02	545.27
440.227	627.19
440.433	492.02
440.64	479.74
440.847	401.91
441.054	543.22
441.261	619
441.467	516.6
441.674	516.6
441.881	639.48
442.088	555.51
442.294	643.57
442.501	635.38
442.708	682.49
442.914	578.04
443.121	707.06
443.328	772.6
443.534	846.32
443.741	739.83
443.948	735.73
444.154	819.7
444.361	993.78
444.568	840.18
444.774	854.51
444.981	815.6
445.187	1004.02
445.394	967.15
445.6	958.96
445.807	1139.18
446.013	1188.33
446.22	1008.11
446.426	1128.94
446.633	1200.62
446.839	1354.22
447.046	1225.2
447.252	1442.28
447.459	1337.84
447.665	1370.6
447.871	1505.77
448.078	1466.86
448.284	1536.49
448.491	1651.17
448.697	1796.58
448.903	1849.83
449.11	1866.21
449.316	1716.71
449.522	1982.95
449.728	2048.48
449.935	2077.15
450.141	1982.95
450.347	2294.24
450.553	2255.33
450.76	2275.81
450.966	2349.53
451.172	2453.98
451.378	2632.15
451.584	2644.44
451.791	2873.81
451.997	2873.81
452.203	3008.98
452.409	3203.54
452.615	3256.78
452.821	3097.04
453.027	3285.45
453.233	3707.34
453.44	3475.91
453.646	3770.82
453.852	3742.15
454.058	4049.35
454.264	4164.03
454.47	4549.05
454.676	4411.84
454.882	4800.95
455.088	4604.35
455.294	4819.38
455.5	5188.02
455.705	5476.78
455.911	5468.59
456.117	5642.67
456.323	5613.99
456.529	5726.63
456.735	6209.95
456.941	6551.96
457.147	6793.62
457.352	7016.85
457.558	7008.66
457.764	7506.32
457.97	7838.09
458.176	7958.92
458.381	8495.49
458.587	8589.69
458.793	9097.59
458.999	9007.48
459.204	10086.76
459.41	10537.31
459.616	10551.65
459.821	10910.04
460.027	11299.16
460.233	11811.15
460.438	11899.21
460.644	12699.97
460.85	12874.04
461.055	13465.91
461.261	13941.04
461.466	13615.41
461.672	13842.73
461.878	15495.44
462.083	15493.4
462.289	15794.45
462.494	16392.45
462.7	16335.11
462.905	16564.48
463.111	18227.43
463.316	18954.46
463.522	19314.91
463.727	19935.44
463.932	20478.15
464.138	21455.03
464.343	22306.99
464.549	22294.7
464.754	23898.26
464.959	24488.07
465.165	24856.71
465.37	24676.49
465.575	25041.03
465.781	26507.37
465.986	27091.04
466.191	27045.99
466.397	26841.19
466.602	25985.14
466.807	27965.53
467.012	28620.88
467.218	29112.39
467.423	28997.7
467.628	29837.37
467.833	31373.35
468.038	30730.28
468.244	30095.41
468.449	31473.7
468.654	31242.28
468.859	31352.87
469.064	31172.64
469.269	30296.11
469.474	30599.21
469.679	31430.69
469.885	30445.62
470.09	30832.68
470.295	30986.28
470.5	30437.42
470.705	30511.15
470.91	30025.78
471.115	29636.67
471.32	30031.93
471.525	29988.92
471.73	28897.35
471.935	28903.49
472.139	27811.93
472.344	27699.29
472.549	27517.02
472.754	27123.81
472.959	26493.04
473.164	25565.31
473.369	25270.4
473.574	26097.78
473.778	25409.66
473.983	24828.04
474.188	24633.48
474.393	23640.22
474.598	23556.25
474.802	22722.73
475.007	22403.24
475.212	22247.6
475.417	21436.6
475.621	21242.04
475.826	21027.01
476.031	20302.03
476.235	19886.29
476.44	20199.63
476.645	19738.83
476.849	19544.28
477.054	19212.51
477.259	18819.3
477.463	18424.04
477.668	18143.47
477.872	18176.23
478.077	17805.55
478.282	17291.51
478.486	17035.52
478.691	16961.79
478.895	16687.36
479.1	16619.78
479.304	16691.46
479.509	15788.3
479.713	16003.34
479.918	15485.2
480.122	15307.03
480.326	15528.21
480.531	15466.77
480.735	15378.71
480.94	15098.14
481.144	15304.98
481.348	14711.07
481.553	14960.92
481.757	14297.38
481.961	14475.56
482.166	14528.8
482.37	14348.58
482.574	14174.5
482.778	14063.91
482.983	14420.26
483.187	14098.73
483.391	13758.77
483.595	13678.9
483.8	13568.3
484.004	13586.74
484.208	13451.57
484.412	13160.76
484.616	13254.97
484.821	13187.38
485.025	12532.03
485.229	12826.94
485.433	12628.29
485.637	12384.58
485.841	12249.41
486.045	12157.25
486.249	11882.83
486.453	11669.84
486.657	11645.26
486.861	11493.71
487.065	11016.54
487.269	11321.68
487.473	10635.61
487.677	10783.07
487.881	10856.79
488.085	10352.99
488.289	10389.86
488.493	10185.06
488.697	10174.82
488.901	9826.67
489.105	9585.01
489.309	9429.36
489.512	9300.34
489.716	9134.45
489.92	8976.76
490.124	8919.42
490.328	8864.12
490.531	8415.62
490.735	8438.14
490.939	8452.48
491.143	8130.95
491.346	7999.88
491.55	7883.14
491.754	7727.5
491.958	7608.72
492.161	7405.97
492.365	7356.82
492.569	7254.42
492.772	7260.56
492.976	7246.23
493.18	7115.16
493.383	7092.63
493.587	6934.93
493.79	6916.5
493.994	6703.51
494.197	6640.03
494.401	6498.72
494.605	6533.53
494.808	6476.19
495.012	6435.23
495.215	6300.06
495.419	6437.28
495.622	6201.76
495.825	6394.27
496.029	6152.61
496.232	6224.29
496.436	6156.71
496.639	6355.36
496.843	6132.13
497.046	6271.39
497.249	6257.06
497.453	6320.54
497.656	6154.66
497.859	6101.41
498.063	6420.89
498.266	6302.11
498.469	6193.57
498.673	6343.07
498.876	6379.93
499.079	6263.2
499.282	6343.07
499.485	6701.47
499.689	6420.89
499.892	6609.31
500.095	6447.52
500.298	6637.98
500.501	6558.11
500.705	6771.1
500.908	6691.23
501.111	6740.38
501.314	6863.26
501.517	7141.78
501.72	7010.71
501.923	6965.65
502.126	6975.89
502.329	7278.99
502.532	7235.99
502.735	7215.51
502.938	7594.38
503.141	7547.28
503.344	7661.96
503.547	7770.51
503.75	7780.75
503.953	7788.94
504.156	8104.32
504.359	8155.52
504.562	8251.78
504.765	8294.79
504.968	8534.4
505.17	8696.19
505.373	8642.94
505.576	8892.79
505.779	8819.07
505.982	9007.48
506.185	9503.09
506.387	9576.81
506.59	9468.27
506.793	9959.78
506.996	9994.6
507.198	10463.58
507.401	10531.17
507.604	10604.89
507.807	10975.58
508.009	11211.09
508.212	11059.54
508.415	11387.22
508.617	11680.08
508.82	12112.2
509.022	12104.01
509.225	12169.54
509.428	12878.14
509.63	12937.53
509.833	13080.89
510.035	13631.79
510.238	13707.57
510.44	13922.6
510.643	14156.07
510.845	14782.75
511.048	14956.83
511.25	15241.5
511.453	15415.57
511.655	16343.3
511.858	16425.22
512.06	16656.64
512.262	16974.08
512.465	17432.82
512.667	18020.59
512.87	18008.3
513.072	18213.1
513.274	19036.38
513.477	19405.02
513.679	19624.15
513.881	20154.57
514.084	20617.41
514.286	21016.77
514.488	21440.7
514.69	22388.91
514.893	22628.52
515.095	22847.65
515.297	23617.69
515.499	23740.57
515.701	24152.21
515.904	24920.2
516.106	25331.84
516.308	25903.22
516.51	26472.56
516.712	26751.08
516.914	27457.63
517.116	27949.14
517.318	28524.62
517.52	28876.87
517.722	29202.5
517.925	29810.75
518.127	30603.31
518.329	31334.43
518.531	31182.88
518.733	32286.74
518.935	32749.58
519.136	32985.1
519.338	33820.67
519.54	34207.73
519.742	34752.49
519.944	35028.97
520.146	35821.53
520.348	35981.27
520.55	36528.08
520.752	37038.03
520.954	37611.46
521.155	37447.62
521.357	38401.97
521.559	38602.67
521.761	39528.36
521.963	39430.05
522.164	39835.55
522.366	39948.19
522.568	40937.36
522.77	40609.68
522.971	41242.51
523.173	41455.5
523.375	41770.88
523.576	42131.33
523.778	41381.77
523.98	42157.95
524.181	42708.85
524.383	42370.94
524.584	43302.76
524.786	42884.98
524.988	42338.17
525.189	42760.05
525.391	42803.06
525.592	43132.78
525.794	43159.41
525.995	43040.62
526.197	43005.81
526.398	42798.96
526.6	42909.55
526.801	43179.89
527.003	42542.97
527.204	42301.31
527.406	42514.3
527.607	42280.83
527.808	41928.58
528.01	41717.64
528.211	41600.9
528.412	41932.67
528.614	41166.73
528.815	40849.3
529.016	41228.17
529.218	40279.96
529.419	39980.96
529.62	39761.83
529.822	39296.94
530.023	38584.24
530.224	38387.64
530.425	38270.9
530.626	37513.16
530.828	37156.81
531.029	37754.82
531.23	36653.01
531.431	36235.22
531.632	36143.06
531.833	35477.47
532.035	34936.81
532.236	34600.94
532.437	34617.33
532.638	33902.59
532.839	33347.59
533.04	33191.94
533.241	32536.59
533.442	32725
533.643	32061.46
533.844	31586.33
534.045	31174.69
534.246	30550.06
534.447	29997.11
534.648	29718.59
534.849	29771.83
535.05	29014.09
535.251	28858.44
535.451	27998.29
535.652	27725.91
535.853	27449.44
536.054	27484.25
536.255	27007.08
536.456	26243.18
536.657	26486.89
536.857	25444.48
537.058	25088.13
537.259	24871.04
537.46	24778.89
537.66	24422.54
537.861	24215.69
538.062	23744.66
538.263	23515.29
538.463	23126.18
538.664	23154.85
538.865	22354.09
539.065	22505.64
539.266	22003.89
539.466	22071.47
539.667	21465.27
539.868	21401.79
540.068	21004.48
540.269	20670.66
540.469	20750.53
540.67	20330.7
540.87	20193.48
541.071	19787.99
541.271	19464.41
541.472	19370.2
541.672	19214.55
541.873	18788.58
542.073	18444.52
542.274	18837.73
542.474	18395.37
542.675	18006.25
542.875	18094.32
543.075	17479.93
543.276	17158.39
543.476	17414.39
543.676	17051.9
543.877	16843.01
544.077	16544
544.277	16595.2
544.478	16304.39
544.678	16351.49
544.878	16001.29
545.078	15876.37
545.279	15411.48
545.479	15229.21
545.679	15331.61
545.879	15055.13
546.079	15059.23
546.28	14762.27
546.48	14399.78
546.68	14663.97
546.88	14336.29
547.08	14065.96
547.28	14039.34
547.48	13578.54
547.68	13639.98
547.88	13304.12
548.081	13396.28
548.281	13168.95
548.481	12788.03
548.681	12718.4
548.881	12706.11
549.081	12624.19
549.28	12306.76
549.48	12296.52
549.68	12001.61
549.88	11891.02
550.08	11573.58
550.28	11602.25
550.48	11376.98
550.68	11235.67
550.88	10994.01
551.08	10781.02
551.279	10977.62
551.479	10371.43
551.679	10504.54
551.879	10314.08
552.079	10232.16
552.278	9859.43
552.478	10094.95
552.678	9810.28
552.878	9580.91
553.077	9341.3
553.277	9302.39
553.477	9085.3
553.676	9236.85
553.876	8802.68
554.076	8665.47
554.275	8477.05
554.475	8253.83
554.674	8229.25
554.874	8280.45
555.074	7981.45
555.273	8116.61
555.473	7981.45
555.672	7582.09
555.872	7735.69
556.071	7553.42
556.271	7504.27
556.47	7119.25
556.67	6953.37
556.869	6969.75
557.068	6764.95
557.268	6769.05
557.467	6586.78
557.667	6711.71
557.866	6459.81
558.065	6271.39
558.265	6164.9
558.464	6091.17
558.663	5976.48
558.863	5982.63
559.062	5839.27
559.261	5745.06
559.461	5826.98
559.66	5530.03
559.859	5300.66
560.058	5360.05
560.258	5292.46
560.457	5278.13
560.656	5441.96
560.855	5015.99
561.054	5089.71
561.253	4772.28
561.453	4839.86
561.652	4731.32
561.851	4723.13
562.05	4624.83
562.249	4514.24
562.448	4487.61
562.647	4252.1
562.846	4465.08
563.045	4362.69
563.244	4153.79
563.443	4299.2
563.642	4243.9
563.841	4131.26
564.04	3889.6
564.239	3815.88
564.438	3797.45
564.637	3697.1
564.836	3701.19
565.035	3715.53
565.234	3598.79
565.432	3584.46
565.631	3588.55
565.83	3645.9
566.029	3574.22
566.228	3453.39
566.427	3449.29
566.625	3289.55
566.824	3363.28
567.023	3215.82
567.222	3109.33
567.42	3099.09
567.619	3170.77
567.818	3019.22
568.016	3162.58
568.215	2900.44
568.414	2980.31
568.612	2845.14
568.811	2828.76
569.01	2795.99
569.208	2601.43
569.407	2804.18
569.605	2757.08
569.804	2648.54
570.002	2646.49
570.201	2496.99
570.4	2492.89
570.598	2531.8
570.797	2480.6
570.995	2464.22
571.193	2357.72
571.392	2320.86
571.59	2214.37
571.789	2363.87
571.987	2382.3
572.186	2300.38
572.384	2222.56
572.582	2150.88
572.781	2257.37
572.979	1927.65
573.177	2157.02
573.376	2040.29
573.574	2144.74
573.772	1982.95
573.971	1745.38
574.169	1749.48
574.367	1954.27
574.565	1731.05
574.763	1786.34
574.962	1745.38
575.16	1831.4
575.358	1753.57
575.556	1712.61
575.754	1636.84
575.952	1659.37
576.151	1610.22
576.349	1681.89
576.547	1440.23
576.745	1618.41
576.943	1565.16
577.141	1542.63
577.339	1450.47
577.537	1606.12
577.735	1468.91
577.933	1497.58
578.131	1356.27
578.329	1434.09
578.527	1374.7
578.725	1460.71
578.923	1241.58
579.121	1348.08
579.319	1221.1
579.516	1319.4
579.714	1354.22
579.912	1241.58
580.11	1100.27
580.308	1212.91
580.506	1167.85
580.704	928.24
580.901	1059.31
581.099	1124.85
581.297	987.63
581.495	1165.81
581.692	1094.13
581.89	1178.09
582.088	1108.46
582.285	1008.11
582.483	1036.78
582.681	1020.4
582.878	950.77
583.076	879.09
583.274	930.29
583.471	1071.6
583.669	961.01
583.866	868.85
584.064	897.52
584.262	778.74
584.459	846.32
584.657	940.53
584.854	877.04
585.052	999.92
585.249	956.91
585.447	838.13
585.644	698.87
585.841	895.47
586.039	819.7
586.236	893.43
586.434	815.6
586.631	768.5
586.828	641.53
587.026	801.27
587.223	653.81
587.42	659.96
587.618	754.16
587.815	799.22
588.012	588.28
588.21	659.96
588.407	670.2
588.604	762.36
588.801	672.25
588.999	559.61
589.196	711.16
589.393	627.19
589.59	748.02
589.787	731.64
589.984	625.14
590.182	713.21
590.379	524.79
590.576	582.14
590.773	524.79
590.97	596.47
591.167	690.68
591.364	575.99
591.561	553.46
591.758	565.75
591.955	756.21
592.152	580.09
592.349	563.7
592.546	606.71
592.743	504.31
592.94	539.13
593.137	578.04
593.334	688.63
593.531	641.53
593.727	614.9
593.924	606.71
594.121	557.56
594.318	545.27
594.515	586.23
594.712	733.68
594.908	735.73
595.105	430.59
595.302	592.37
595.499	698.87
595.696	760.31
595.892	578.04
596.089	768.5
596.286	631.29
596.482	809.46
596.679	702.97
596.876	621.05
597.072	811.51
597.269	778.74
597.466	811.51
597.662	784.88
597.859	815.6
598.055	774.64
598.252	791.03
598.448	901.62
598.645	975.35
598.841	940.53
599.038	981.49
599.234	1100.27
599.431	1006.06
599.627	1120.75
599.824	1278.44
600.02	993.78
600.217	1083.89
600.413	1255.92
600.609	1231.34
600.806	1579.5
601.002	1456.62
601.198	1417.71
601.395	1569.26
601.591	1511.91
601.787	1511.91
601.984	1622.5
602.18	1690.09
602.376	1753.57
602.572	1864.16
602.769	1929.7
602.965	2054.62
603.161	2073.06
603.357	2044.38
603.553	2259.42
603.75	2085.34
603.946	2355.68
604.142	2243.04
604.338	2580.95
604.534	2439.64
604.73	2654.68
604.926	2638.3
605.122	2830.8
605.318	2802.13
605.514	3033.55
605.71	2929.11
605.906	3234.25
606.102	3287.5
606.298	3498.44
606.494	3611.08
606.69	3701.19
606.886	3674.57
607.082	3609.03
607.278	3762.63
607.474	3985.86
607.67	4051.39
607.866	4016.58
608.062	4415.93
608.257	4434.36
608.453	4372.93
608.649	4649.4
608.845	4567.48
609.041	4661.69
609.236	5087.67
609.432	5298.61
609.628	5368.24
609.824	5474.73
610.019	5597.61
610.215	5743.02
610.411	6087.08
610.606	6062.5
610.802	6076.84
610.998	6326.69
611.193	6726.04
611.389	6556.06
611.584	6797.72
611.78	7004.57
611.976	7139.73
612.171	7655.82
612.367	7745.93
612.562	7766.41
612.758	7838.09
612.953	8055.17
613.149	8411.52
613.344	8528.25
613.539	8778.11
613.735	9220.47
613.93	9316.72
614.126	9458.03
614.321	10051.94
614.517	10271.08
614.712	10172.77
614.907	10629.47
615.103	10879.32
615.298	10858.84
615.493	11360.59
615.688	11546.96
615.884	12095.82
616.079	12249.41
616.274	12591.42
616.47	12912.95
616.665	13222.2
616.86	13281.59
617.055	13838.64
617.25	14108.97
617.445	14801.18
617.641	14704.93
617.836	15178.01
618.031	15178.01
618.226	15982.86
618.421	16288.01
618.616	17080.57
618.811	17119.48
619.006	17719.54
619.201	17438.97
619.396	18385.13
619.591	18458.85
619.786	19349.72
619.981	19183.84
620.176	20134.09
620.371	20259.02
620.566	20766.92
620.761	21256.38
620.956	21573.81
621.151	22132.91
621.346	22511.78
621.541	22626.47
621.735	23507.1
621.93	23722.13
622.125	24019.09
622.32	24146.06
622.515	25069.7
622.709	25380.99
622.904	26005.62
623.099	26675.3
623.294	26888.29
623.488	27254.88
623.683	27881.56
623.878	28313.68
624.072	29020.23
624.267	29186.11
624.462	29349.95
624.656	29698.11
624.851	30556.21
625.046	30691.37
625.24	31260.71
625.435	31678.49
625.629	31703.07
625.824	32309.27
626.018	33148.93
626.213	33159.17
626.407	33789.95
626.602	33648.64
626.796	34465.78
626.991	34699.25
627.185	34877.42
627.38	35022.83
627.574	35393.51
627.768	35471.33
627.963	35604.45
628.157	35586.02
628.352	35725.28
628.546	35502.05
628.74	36274.13
628.935	35952.6
629.129	35987.42
629.323	35895.26
629.517	35543.01
629.712	35487.71
629.906	35311.59
630.1	34414.58
630.294	34848.75
630.489	33869.82
630.683	33855.48
630.877	32987.14
631.071	32401.43
631.265	32366.61
631.459	31381.54
631.653	31057.96
631.848	30535.73
632.042	29431.87
632.236	29296.7
632.43	28180.56
632.624	27428.96
632.818	26314.86
633.012	25618.55
633.206	24854.66
633.4	24367.24
633.594	23605.4
633.788	22540.46
633.982	21778.61
634.176	20940.99
634.369	20029.65
634.563	19765.46
634.757	18249.96
634.951	18268.39
635.145	17512.69
635.339	16742.66
635.533	15962.38
635.726	15282.45
635.92	14766.37
636.114	14197.03
636.308	13556.02
636.501	13308.21
636.695	12597.57
636.889	12140.87
637.083	11499.86
637.276	11149.65
637.47	10766.68
637.664	10234.21
637.857	9843.05
638.051	9376.11
638.244	9003.38
638.438	8825.21
638.632	8450.43
638.825	8094.08
639.019	7965.06
639.212	7436.69
639.406	7145.87
639.599	6853.02
639.793	6680.99
639.986	6304.16
640.18	5996.96
640.373	5783.98
640.567	5450.16
640.76	5415.34
640.954	5358
641.147	5032.37
641.34	4868.53
641.534	4827.57
641.727	4583.87
641.92	4334.01
642.114	4061.63
642.307	3932.61
642.5	3783.11
642.694	3756.49
642.887	3586.51
643.08	3549.64
643.273	3264.97
643.467	3070.42
643.66	2961.87
643.853	2910.68
644.046	2886.1
644.239	2712.02
644.432	2613.72
644.626	2396.64
644.819	2314.72
645.012	2271.71
645.205	2286.05
645.398	2277.85
645.591	2073.06
645.784	1913.31
645.977	1958.37
646.17	1741.29
646.363	1792.48
646.556	1778.15
646.749	1497.58
646.942	1591.78
647.135	1675.75
647.328	1468.91
647.521	1440.23
647.714	1386.99
647.907	1417.71
648.099	1313.26
648.292	1384.94
648.485	1268.2
648.678	1100.27
648.871	1006.06
649.064	1122.8
649.256	930.29
649.449	946.67
649.642	854.51
649.835	887.28
650.027	829.94
650.22	852.47
650.413	829.94
650.605	768.5
650.798	811.51
650.991	741.88
651.183	737.78
651.376	762.36
651.568	741.88
651.761	649.72
651.954	725.49
652.146	580.09
652.339	559.61
652.531	680.44
652.724	475.64
652.916	643.57
653.109	440.83
653.301	530.94
653.494	557.56
653.686	432.63
653.879	487.93
654.071	524.79
654.263	422.39
654.456	494.07
654.648	475.64
654.84	438.78
655.033	350.71
655.225	612.85
655.417	287.23
655.61	457.21
655.802	444.92
655.994	422.39
656.186	289.28
656.379	436.73
656.571	264.7
656.763	283.13
656.955	236.03
657.148	279.04
657.34	363
657.532	336.38
657.724	231.93
657.916	287.23
658.108	324.09
658.3	272.89
658.492	250.36
658.684	236.03
658.876	322.04
659.068	186.88
659.26	174.59
659.452	207.36
659.644	279.04
659.836	317.95
660.028	195.07
660.22	236.03
660.412	203.26
660.604	229.88
660.796	285.18
660.988	188.93
661.18	301.56
661.372	281.08
661.563	176.64
661.755	242.17
661.947	168.45
662.139	186.88
662.331	184.83
662.522	190.97
662.714	199.16
662.906	158.21
663.097	176.64
663.289	195.07
663.481	127.49
663.673	152.06
663.864	188.93
664.056	229.88
664.247	154.11
664.439	309.76
664.631	119.29
664.822	197.12
665.014	104.96
665.205	92.67
665.397	131.58
665.588	125.44
665.78	113.15
665.971	195.07
666.163	125.44
666.354	188.93
666.546	137.73
666.737	150.01
666.929	78.33
667.12	102.91
667.311	166.4
667.503	195.07
667.694	201.21
667.885	172.54
668.077	135.68
668.268	88.57
668.459	137.73
668.651	217.6
668.842	172.54
669.033	68.09
669.224	35.33
669.416	254.46
669.607	88.57
669.798	18.94
669.989	182.78
670.18	104.96
670.371	188.93
670.563	74.24
670.754	184.83
670.945	213.5
671.136	225.79
671.327	-3.58
671.518	215.55
671.709	283.13
671.9	199.16
672.091	250.36
672.282	154.11
672.473	102.91
672.664	41.47
672.855	156.16
673.046	170.49
673.237	209.4
673.428	133.63
673.619	164.35
673.809	100.86
674	162.3
674.191	178.69
674.382	205.31
674.573	238.08
674.764	168.45
674.954	158.21
675.145	57.86
675.336	137.73
675.527	84.48
675.717	80.38
675.908	84.48
676.099	166.4
676.289	164.35
676.48	33.28
676.671	197.12
676.861	186.88
677.052	154.11
677.243	104.96
677.433	129.53
677.624	172.54
677.814	225.79
678.005	174.59
678.195	254.46
678.386	113.15
678.576	223.74
678.767	107.01
678.957	123.39
679.148	176.64
679.338	326.14
679.529	150.01
679.719	107.01
679.909	268.8
680.1	215.55
680.29	221.69
680.481	115.2
680.671	178.69
680.861	221.69
681.052	221.69
681.242	154.11
681.432	279.04
681.622	201.21
681.813	113.15
682.003	213.5
682.193	84.48
682.383	174.59
682.573	94.72
682.764	221.69
682.954	328.19
683.144	307.71
683.334	184.83
683.524	158.21
683.714	258.56
683.904	242.17
684.094	219.64
684.284	156.16
684.474	307.71
684.664	233.98
684.854	166.4
685.044	182.78
685.234	221.69
685.424	219.64
685.614	209.4
685.804	358.91
685.994	209.4
686.184	182.78
686.374	225.79
686.564	227.84
686.753	180.73
686.943	57.86
687.133	283.13
687.323	203.26
687.513	262.65
687.702	193.02
687.892	154.11
688.082	315.9
688.272	254.46
688.461	268.8
688.651	338.43
688.841	246.27
689.03	203.26
689.22	135.68
689.41	225.79
689.599	209.4
689.789	166.4
689.979	244.22
690.168	119.29
690.358	162.3
690.547	276.99
690.737	264.7
690.926	172.54
691.116	219.64
691.305	176.64
691.495	209.4
691.684	111.1
691.874	186.88
692.063	215.55
692.252	250.36
692.442	266.75
692.631	203.26
692.82	152.06
693.01	195.07
693.199	246.27
693.388	250.36
693.578	213.5
693.767	348.67
693.956	205.31
694.146	217.6
694.335	225.79
694.524	129.53
694.713	272.89
694.902	166.4
695.092	152.06
695.281	250.36
695.47	213.5
695.659	209.4
695.848	78.33
696.037	104.96
696.226	209.4
696.415	213.5
696.604	266.75
696.793	162.3
696.982	223.74
697.171	274.94
697.36	186.88
697.549	244.22
697.738	72.19
697.927	156.16
698.116	117.25
698.305	236.03
698.494	195.07
698.683	41.47
698.872	274.94
699.061	164.35
699.25	143.87
699.438	233.98
699.627	147.97
699.816	246.27
700.005	174.59
700.193	104.96
700.382	287.23
700.571	125.44
700.76	205.31
700.948	295.42
701.137	213.5
701.326	207.36
701.514	141.82
701.703	244.22
701.892	180.73
702.08	303.61
702.269	156.16
702.457	119.29
702.646	201.21
702.834	127.49
703.023	227.84
703.212	227.84
703.4	96.77
703.589	94.72
703.777	193.02
703.965	139.77
704.154	188.93
704.342	107.01
704.531	115.2
704.719	188.93
704.907	246.27
705.096	102.91
705.284	145.92
705.472	219.64
705.661	211.45
705.849	145.92
706.037	160.25
706.226	242.17
706.414	190.97
706.602	137.73
706.79	227.84
706.979	168.45
707.167	166.4
707.355	90.62
707.543	203.26
707.731	246.27
707.919	117.25
708.107	152.06
708.296	147.97
708.484	90.62
708.672	197.12
708.86	250.36
709.048	154.11
709.236	188.93
709.424	111.1
709.612	178.69
709.8	61.95
709.988	64
710.176	268.8
710.364	174.59
710.551	182.78
710.739	242.17
710.927	115.2
711.115	238.08
711.303	250.36
711.491	127.49
711.679	178.69
711.866	248.32
712.054	193.02
712.242	190.97
712.43	283.13
712.617	174.59
712.805	233.98
712.993	170.49
713.181	94.72
713.368	258.56
713.556	311.8
713.744	133.63
713.931	303.61
714.119	201.21
714.306	152.06
714.494	137.73
714.682	217.6
714.869	96.77
715.057	147.97
715.244	31.23
715.432	244.22
715.619	100.86
715.807	180.73
715.994	102.91
716.182	133.63
716.369	246.27
716.556	186.88
716.744	98.81
716.931	47.62
717.119	182.78
717.306	184.83
717.493	252.41
717.681	49.66
717.868	141.82
718.055	201.21
718.242	135.68
718.43	145.92
718.617	213.5
718.804	137.73
718.991	371.19
719.179	197.12
719.366	215.55
719.553	203.26
719.74	195.07
719.927	201.21
720.114	260.6
720.301	152.06
720.488	107.01
720.676	74.24
720.863	287.23
721.05	305.66
721.237	178.69
721.424	250.36
721.611	188.93
721.798	104.96
721.985	229.88
722.172	111.1
722.358	229.88
722.545	238.08
722.732	223.74
722.919	287.23
723.106	221.69
723.293	244.22
723.48	199.16
723.667	201.21
723.853	328.19
724.04	182.78
724.227	272.89
724.414	268.8
724.6	287.23
724.787	412.15
724.974	313.85
725.161	199.16
725.347	209.4
725.534	276.99
725.72	250.36
725.907	346.62
726.094	354.81
726.28	201.21
726.467	279.04
726.653	178.69
726.84	348.67
727.027	320
727.213	219.64
727.4	274.94
727.586	254.46
727.773	248.32
727.959	258.56
728.145	258.56
728.332	313.85
728.518	227.84
728.705	338.43
728.891	233.98
729.077	201.21
729.264	178.69
729.45	248.32
729.636	231.93
729.823	262.65
730.009	207.36
730.195	211.45
730.382	285.18
730.568	205.31
730.754	246.27
730.94	332.28
731.126	340.47
731.313	326.14
731.499	186.88
731.685	332.28
731.871	350.71
732.057	270.84
732.243	268.8
732.429	289.28
732.615	377.34
732.801	254.46
732.987	276.99
733.173	246.27
733.359	254.46
733.545	328.19
733.731	229.88
733.917	379.39
734.103	375.29
734.289	276.99
734.475	408.06
734.661	446.97
734.847	303.61
735.033	268.8
735.219	344.57
735.404	225.79
735.59	399.87
735.776	266.75
735.962	313.85
736.148	344.57
736.333	410.11
736.519	231.93
736.705	266.75
736.89	348.67
737.076	340.47
737.262	184.83
737.447	272.89
737.633	227.84
737.819	412.15
738.004	299.52
738.19	295.42
738.375	332.28
738.561	381.43
738.747	360.95
738.932	195.07
739.118	481.78
739.303	453.11
739.489	279.04
739.674	229.88
739.859	287.23
740.045	387.58
740.23	254.46
740.416	123.39
740.601	295.42
740.786	332.28
740.972	252.41
741.157	311.8
741.342	262.65
741.528	238.08
741.713	393.72
741.898	283.13
742.084	266.75
742.269	346.62
742.454	264.7
742.639	356.86
742.824	293.37
743.01	432.63
743.195	363
743.38	281.08
743.565	274.94
743.75	301.56
743.935	225.79
744.12	369.15
744.305	201.21
744.49	266.75
744.675	328.19
744.86	285.18
745.045	283.13
745.23	352.76
745.415	317.95
745.6	381.43
745.785	270.84
745.97	393.72
746.155	346.62
746.34	360.95
746.525	297.47
746.71	328.19
746.895	217.6
747.079	264.7
747.264	270.84
747.449	301.56
747.634	358.91
747.819	295.42
748.003	287.23
748.188	178.69
748.373	287.23
748.557	301.56
748.742	307.71
748.927	270.84
749.111	250.36
749.296	252.41
749.481	238.08
749.665	281.08
749.85	274.94
750.034	338.43
750.219	256.51
750.404	231.93
750.588	274.94
750.773	272.89
750.957	252.41
751.141	227.84
751.326	311.8
751.51	143.87
751.695	231.93
751.879	256.51
752.064	401.91
752.248	313.85
752.432	373.24
752.617	350.71
752.801	246.27
752.985	295.42
753.17	420.35
753.354	225.79
753.538	268.8
753.722	242.17
753.907	164.35
754.091	231.93
754.275	223.74
754.459	160.25
754.643	172.54
754.828	193.02
755.012	332.28
755.196	205.31
755.38	203.26
755.564	221.69
755.748	336.38
755.932	268.8
756.116	295.42
756.3	215.55
756.484	213.5
756.668	266.75
756.852	96.77
757.036	152.06
757.22	154.11
757.404	164.35
757.588	225.79
757.772	182.78
757.956	193.02
758.14	328.19
758.323	84.48
758.507	252.41
758.691	184.83
758.875	242.17
759.059	252.41
759.242	166.4
759.426	156.16
759.61	268.8
759.794	133.63
759.977	297.47
760.161	422.39
760.345	221.69
760.528	274.94
760.712	131.58
760.895	150.01
761.079	135.68
761.263	160.25
761.446	121.34
761.63	133.63
761.813	231.93
761.997	96.77
762.18	240.12
762.364	229.88
762.547	-3.58
762.731	164.35
762.914	156.16
763.098	197.12
763.281	139.77
763.464	150.01
763.648	195.07
763.831	135.68
764.015	94.72
764.198	217.6
764.381	47.62
764.564	160.25
764.748	150.01
764.931	197.12
765.114	160.25
765.297	221.69
765.481	211.45
765.664	92.67
765.847	176.64
766.03	195.07
766.213	82.43
766.397	123.39
766.58	123.39
766.763	188.93
766.946	96.77
767.129	117.25
767.312	70.14
767.495	113.15
767.678	20.99
767.861	172.54
768.044	14.85
768.227	78.33
768.41	197.12
768.593	156.16
768.776	135.68
768.959	119.29
769.142	180.73
769.324	147.97
769.507	102.91
769.69	72.19
769.873	76.29
770.056	238.08
770.239	104.96
770.421	242.17
770.604	143.87
770.787	72.19
770.97	61.95
771.152	78.33
771.335	131.58
771.518	61.95
771.7	197.12
771.883	238.08
772.066	107.01
772.248	121.34
772.431	125.44
772.613	145.92
772.796	113.15
772.978	125.44
773.161	193.02
773.343	68.09
773.526	59.9
773.708	-15.87
773.891	10.75
774.073	141.82
774.256	23.04
774.438	221.69
774.621	31.23
774.803	111.1
774.985	78.33
775.168	115.2
775.35	59.9
775.532	135.68
775.715	53.76
775.897	190.97
776.079	2.56
776.261	100.86
776.444	92.67
776.626	76.29
776.808	55.81
776.99	45.57
777.173	123.39
777.355	64
777.537	135.68
777.719	70.14
777.901	107.01
778.083	78.33
778.265	2.56
778.447	143.87
778.629	31.23
778.811	59.9
778.993	141.82
779.175	176.64
779.357	131.58
779.539	-22.02
779.721	115.2
779.903	127.49
780.085	49.66
780.267	84.48
780.449	51.71
780.631	129.53
780.812	240.12
780.994	88.57
781.176	111.1
781.358	111.1
781.54	49.66
781.721	86.53
781.903	33.28
782.085	74.24
782.267	141.82
782.448	2.56
782.63	127.49
782.812	90.62
782.993	72.19
783.175	190.97
783.357	43.52
783.538	123.39
783.72	14.85
783.901	55.81
784.083	41.47
784.264	80.38
784.446	-15.87
784.627	-15.87
784.809	113.15
784.99	25.09
785.172	66.05
785.353	47.62
785.535	61.95
785.716	0.51
785.897	-7.68
786.079	84.48
786.26	119.29
786.441	43.52
786.623	10.75
786.804	-28.16
786.985	-5.63
787.167	16.9
787.348	-40.45
787.529	92.67
787.71	141.82
787.891	102.91
788.073	35.33
788.254	78.33
788.435	139.77
788.616	68.09
788.797	-32.26
788.978	45.57
789.159	80.38
789.34	78.33
789.522	96.77
789.703	27.14
789.884	49.66
790.065	72.19
790.246	135.68
790.427	2.56
790.607	154.11
790.788	109.05
790.969	0.51
791.15	27.14
791.331	-13.82
791.512	94.72
791.693	6.66
791.874	96.77
792.054	168.45
792.235	139.77
792.416	-110.08
792.597	18.94
792.778	111.1
792.958	68.09
793.139	61.95
793.32	86.53
793.5	37.38
793.681	86.53
793.862	20.99
794.042	80.38
794.223	-24.06
794.404	59.9
794.584	-36.35
794.765	39.42
794.945	86.53
795.126	80.38
795.306	82.43
795.487	-19.97
795.667	12.8
795.848	35.33
796.028	-52.74
796.209	31.23
796.389	111.1
796.57	-1.54
796.75	51.71
796.93	16.9
797.111	-15.87
797.291	4.61
797.471	70.14
797.652	-3.58
797.832	-22.02
798.012	61.95
798.192	10.75
798.373	-11.78
798.553	78.33
798.733	164.35
798.913	-3.58
799.093	-81.41
799.274	27.14
799.454	82.43
799.634	20.99
799.814	98.81
799.994	41.47
800.174	57.86
800.354	57.86
800.534	-24.06
800.714	70.14
800.894	-54.78
801.074	4.61
801.254	-5.63
801.434	172.54
801.614	18.94
801.794	-69.12
801.974	1939.94
802.154	-3.58
802.334	231.93
802.514	14.85
802.693	39.42
802.873	-11.78
803.053	154.11
803.233	33.28
803.413	90.62
803.592	-13.82
803.772	-15.87
803.952	76.29
804.131	-3.58
804.311	96.77
804.491	147.97
804.67	14.85
804.85	-116.22
805.03	135.68
805.209	37.38
805.389	25.09
805.568	14.85
805.748	-46.59
805.928	10.75
806.107	45.57
806.287	41.47
806.466	29.18
806.646	37.38
806.825	-15.87
807.004	-26.11
807.184	-1.54
807.363	55.81
807.543	123.39
807.722	-3.58
807.901	107.01
808.081	96.77
808.26	-122.37
808.439	33.28
808.619	8.7
808.798	-50.69
808.977	92.67
809.156	160.25
809.336	31.23
809.515	131.58
809.694	-120.32
809.873	-3.58
810.052	88.57
810.231	59.9
810.411	20.99
810.59	109.05
810.769	-46.59
810.948	88.57
811.127	-181.76
811.306	68.09
811.485	-26.11
811.664	82.43
811.843	29.18
812.022	6.66
812.201	12.8
812.38	2.56
812.559	-7.68
812.737	18.94
812.916	-50.69
813.095	-44.54
813.274	18.94
813.453	51.71
813.632	68.09
813.811	121.34
813.989	-75.26
814.168	57.86
814.347	-67.07
814.526	-36.35
814.704	119.29
814.883	203.26
815.062	-60.93
815.24	152.06
815.419	20.99
815.598	68.09
815.776	-95.74
815.955	6.66
816.133	-26.11
816.312	51.71
816.49	-36.35
816.669	12.8
816.847	-69.12
817.026	49.66
817.204	18.94
817.383	20.99
817.561	-112.13
817.74	10.75
817.918	41.47
818.097	-1.54
818.275	33.28
818.453	70.14
818.632	102.91
818.81	-15.87
818.988	0.51
819.167	8.7
819.345	27.14
819.523	-32.26
819.701	64
819.879	119.29
820.058	16.9
820.236	23.04
820.414	35.33
820.592	-62.98
820.77	29.18
820.948	-34.3
821.127	-7.68
821.305	-28.16
821.483	-69.12
821.661	64
821.839	23.04
822.017	14.85
822.195	12.8
822.373	94.72
822.551	-3.58
822.729	61.95
822.907	-40.45
823.085	61.95
823.262	96.77
823.44	18.94
823.618	-79.36
823.796	-9.73
823.974	-11.78
824.152	0.51
824.329	-7.68
824.507	68.09
824.685	96.77
824.863	-3.58
825.04	29.18
825.218	117.25
825.396	12.8
825.574	-1.54
825.751	68.09
825.929	45.57
826.107	-91.65
826.284	18.94
826.462	51.71
826.639	-44.54
826.817	-103.93
826.994	20.99
827.172	-71.17
827.349	125.44
827.527	45.57
827.704	14.85
827.882	41.47
828.059	31.23
828.237	-17.92
828.414	-19.97
828.591	-140.8
828.769	-42.5
828.946	-5.63
829.124	49.66
829.301	129.53
829.478	25.09
829.655	4.61
829.833	70.14
830.01	-171.52
830.187	47.62
830.364	8.7
830.542	33.28
830.719	33.28
830.896	-3.58
831.073	37.38
831.25	51.71
831.427	70.14
831.604	12.8
831.782	-81.41
831.959	-36.35
832.136	-24.06
832.313	78.33
832.49	29.18
832.667	47.62
832.844	-5.63
833.021	78.33
833.198	88.57
833.374	18.94
833.551	2.56
833.728	74.24
833.905	53.76
834.082	-91.65
834.259	59.9
834.436	133.63
834.612	-87.55
834.789	37.38
834.966	25.09
835.143	8.7
835.319	16.9
835.496	119.29
835.673	111.1
835.85	117.25
836.026	27.14
836.203	66.05
836.38	6.66
836.556	-40.45
836.733	-28.16
836.909	92.67
837.086	-48.64
837.262	-77.31
837.439	84.48
837.616	-40.45
837.792	8.7
837.968	-11.78
838.145	-148.99
838.321	20.99
838.498	-5.63
838.674	6.66
838.851	35.33
839.027	25.09
839.203	-44.54
839.38	14.85
839.556	-22.02
839.732	55.81
839.909	6.66
840.085	55.81
840.261	-48.64
840.437	57.86
840.614	-38.4
840.79	57.86
840.966	70.14
841.142	55.81
841.318	64
841.494	-30.21
841.671	53.76
841.847	-81.41
842.023	25.09
842.199	-13.82
842.375	115.2
842.551	-134.65
842.727	-114.17
842.903	111.1
843.079	-5.63
843.255	61.95
843.431	-54.78
843.607	-44.54
843.783	-91.65
843.959	-7.68
844.134	-77.31
844.31	86.53
844.486	-3.58
844.662	-69.12
844.838	74.24
845.013	76.29
845.189	43.52
845.365	27.14
845.541	-22.02
845.716	33.28
845.892	35.33
846.068	37.38
846.244	-17.92
846.419	0.51
846.595	-30.21
846.77	-71.17
846.946	100.86
847.122	-54.78
847.297	-87.55
847.473	104.96
847.648	-122.37
847.824	37.38
847.999	-120.32
848.175	-5.63
848.35	31.23
848.526	51.71
848.701	41.47
848.876	61.95
849.052	43.52
849.227	45.57
849.403	18.94
849.578	-36.35
849.753	96.77
849.929	121.34
850.104	-32.26
850.279	25.09
850.454	72.19
850.63	55.81
850.805	-36.35
850.98	16.9
851.155	29.18
851.33	80.38
851.505	-118.27
851.681	53.76
851.856	-114.17
852.031	57.86
852.206	2.56
852.381	-87.55
852.556	-7.68
852.731	12.8
852.906	16.9
853.081	35.33
853.256	147.97
853.431	57.86
853.606	-73.21
853.781	-91.65
853.956	-157.18
854.131	45.57
854.305	-7.68
854.48	-26.11
854.655	-40.45
854.83	-32.26
855.005	4.61
855.18	-24.06
855.354	27.14
855.529	61.95
855.704	-13.82
855.879	6.66
856.053	-81.41
856.228	10.75
856.403	-71.17
856.577	66.05
856.752	-95.74
856.926	29.18
857.101	-9.73
857.276	-163.33
857.45	33.28
857.625	20.99
857.799	-34.3
857.974	27.14
858.148	-167.42
858.323	-17.92
858.497	-60.93
858.672	-124.41
858.846	-52.74
859.02	16.9
859.195	-77.31
859.369	6.66
859.543	23.04
859.718	-32.26
859.892	-46.59
860.066	-11.78
860.241	-28.16
860.415	-30.21
860.589	-38.4
860.763	14.85
860.938	-11.78
861.112	74.24
861.286	-52.74
861.46	16.9
861.634	2.56
861.808	55.81
861.982	-17.92
862.157	-118.27
862.331	-1.54
862.505	-120.32
862.679	-54.78
862.853	-26.11
863.027	-15.87
863.201	154.11
863.375	88.57
863.549	45.57
863.722	-24.06
863.896	35.33
864.07	16.9
864.244	-11.78
864.418	39.42
864.592	66.05
864.766	35.33
864.939	68.09
865.113	12.8
865.287	82.43
865.461	0.51
865.634	27.14
865.808	-58.88
865.982	-89.6
866.156	-44.54
866.329	-36.35
866.503	82.43
866.676	-7.68
866.85	33.28
867.024	-56.83
867.197	88.57
867.371	2.56
867.544	55.81
867.718	-95.74
867.891	164.35
868.065	-120.32
868.238	-79.36
868.412	80.38
868.585	57.86
868.759	23.04
868.932	16.9
869.105	-67.07
869.279	35.33
869.452	-36.35
869.625	53.76
869.799	-93.69
869.972	-44.54
870.145	37.38
870.319	47.62
870.492	-56.83
870.665	-93.69
870.838	-101.89
871.011	-187.9
871.185	-15.87
871.358	20.99
871.531	160.25
871.704	-40.45
871.877	8.7
872.05	-32.26
872.223	-3.58
872.396	37.38
872.569	-7.68
872.742	-142.85
872.915	23.04
873.088	43.52
873.261	-87.55
873.434	-17.92
873.607	-1.54
873.78	72.19
873.953	-91.65
874.126	98.81
874.299	8.7
874.471	-5.63
874.644	111.1
874.817	55.81
874.99	156.16
875.163	-52.74
875.335	74.24
875.508	-95.74
875.681	123.39
875.853	-22.02
876.026	-7.68
876.199	86.53
876.371	-17.92
876.544	-60.93
876.717	-9.73
876.889	-30.21
877.062	-5.63
877.234	-36.35
877.407	-48.64
877.579	35.33
877.752	-34.3
877.924	68.09
878.097	2.56
878.269	33.28
878.442	14.85
878.614	41.47
878.786	12.8
878.959	41.47
879.131	-56.83
879.303	-120.32
879.476	-1.54
879.648	-5.63
879.82	102.91
879.993	2.56
880.165	23.04
880.337	-62.98
880.509	18.94
880.681	-87.55
880.854	-77.31
881.026	78.33
881.198	135.68
881.37	117.25
881.542	-5.63
881.714	-40.45
881.886	47.62
882.058	-101.89
882.23	49.66
882.402	-38.4
882.574	-1.54
882.746	76.29
882.918	121.34
883.09	84.48
883.262	0.51
883.434	-11.78
883.606	-56.83
883.778	2.56
883.95	107.01
884.122	-85.5
884.293	-11.78
884.465	59.9
884.637	72.19
884.809	-81.41
884.98	18.94
885.152	88.57
885.324	84.48
885.496	55.81
885.667	10.75
885.839	0.51
886.011	29.18
886.182	64
886.354	47.62
886.525	-44.54
886.697	-11.78
886.869	16.9
887.04	-81.41
887.212	68.09
887.383	162.3
887.555	-9.73
887.726	-34.3
887.897	-15.87
888.069	37.38
888.24	55.81
888.412	2.56
888.583	55.81
888.754	66.05
888.926	-165.37
889.097	-30.21
889.268	-54.78
889.44	-77.31
889.611	-71.17
889.782	-103.93
889.953	-101.89
890.125	53.76
890.296	-19.97
890.467	-22.02
890.638	25.09
890.809	-52.74
890.98	-50.69
891.151	10.75
891.323	98.81
891.494	16.9
891.665	47.62
891.836	6.66
892.007	-69.12
892.178	61.95
892.349	51.71
892.52	-56.83
892.691	35.33
892.862	-67.07
893.032	-116.22
893.203	-56.83
893.374	6.66
893.545	12.8
893.716	-24.06
893.887	18.94
894.057	27.14
894.228	57.86
894.399	-1.54
894.57	68.09
894.74	4.61
894.911	-40.45
895.082	-30.21
895.253	-56.83
895.423	-34.3
895.594	29.18
895.764	47.62
895.935	-89.6
896.106	94.72
896.276	-75.26
896.447	27.14
896.617	-30.21
896.788	-110.08
896.958	2.56
897.129	-87.55
897.299	-97.79
897.47	145.92
897.64	80.38
897.81	-42.5
897.981	53.76
898.151	-46.59
898.322	12.8
898.492	37.38
898.662	-110.08
898.832	-3.58
899.003	14.85
899.173	76.29
899.343	-24.06
899.513	-146.94
