Data from USB4F104151__103__10-35-45-626.txt Node

Date: Wed Feb 26 10:35:45 EST 2025
User: louis
Spectrometer: USB4F10415
Trigger mode: 4
Integration Time (sec): 1.000000E-1
Scans to average: 1
Electric dark correction enabled: true
Nonlinearity correction enabled: false
Boxcar width: 0
XAxis mode: Wavelengths
Number of Pixels in Spectrum: 3648
>>>>>Begin Spectral Data<<<<<
178.204	-381.6
178.424	-381.6
178.644	-381.6
178.864	-383.65
179.084	-381.6
179.304	-19.11
179.524	-21.16
179.744	5.46
179.964	40.28
180.184	62.8
180.404	122.2
180.624	-27.31
180.844	-62.12
181.064	-84.65
181.283	-2.73
181.503	-25.26
181.723	11.61
181.943	-121.51
182.163	169.3
182.383	-0.68
182.602	38.23
182.822	214.35
183.042	77.14
183.262	-10.92
183.482	-12.97
183.701	25.94
183.921	44.37
184.141	-68.27
184.361	120.15
184.58	91.48
184.8	52.56
185.02	7.51
185.239	81.24
185.459	17.75
185.679	95.57
185.898	-156.33
186.118	38.23
186.338	62.8
186.557	93.52
186.777	-76.46
186.997	-15.02
187.216	-10.92
187.436	197.97
187.655	99.67
187.875	66.9
188.095	42.32
188.314	122.2
188.534	91.48
188.753	-27.31
188.973	118.1
189.192	126.29
189.412	-2.73
189.631	105.81
189.851	38.23
190.07	157.01
190.29	-58.03
190.509	-17.07
190.729	73.04
190.948	114
191.168	234.83
191.387	132.44
191.607	71
191.826	9.56
192.045	-6.83
192.265	-0.68
192.484	97.62
192.704	3.41
192.923	-58.03
193.142	230.74
193.362	132.44
193.581	116.05
193.8	56.66
194.02	68.95
194.239	97.62
194.458	44.37
194.678	-10.92
194.897	30.04
195.116	136.53
195.335	-17.07
195.555	15.7
195.774	-72.36
195.993	107.86
196.212	23.89
196.432	-19.11
196.651	-51.88
196.87	60.76
197.089	212.31
197.308	62.8
197.528	126.29
197.747	-55.98
197.966	75.09
198.185	140.63
198.404	17.75
198.623	30.04
198.842	118.1
199.062	34.13
199.281	85.33
199.5	32.08
199.719	142.68
199.938	-8.87
200.157	83.28
200.376	58.71
200.595	60.76
200.814	77.14
201.033	-25.26
201.252	261.46
201.471	97.62
201.69	93.52
201.909	50.52
202.128	140.63
202.347	60.76
202.566	56.66
202.785	-74.41
203.004	-6.83
203.223	243.03
203.442	105.81
203.661	-45.74
203.879	5.46
204.098	109.91
204.317	9.56
204.536	95.57
204.755	32.08
204.974	64.85
205.193	13.65
205.411	154.96
205.63	157.01
205.849	66.9
206.068	5.46
206.287	40.28
206.505	144.72
206.724	36.18
206.943	7.51
207.162	71
207.381	-2.73
207.599	-47.79
207.818	109.91
208.037	-76.46
208.255	-6.83
208.474	62.8
208.693	48.47
208.911	44.37
209.13	95.57
209.349	25.94
209.567	150.87
209.786	87.38
210.005	142.68
210.223	36.18
210.442	-148.14
210.661	7.51
210.879	-21.16
211.098	15.7
211.316	-19.11
211.535	68.95
211.753	91.48
211.972	132.44
212.191	64.85
212.409	27.99
212.628	50.52
212.846	30.04
213.065	68.95
213.283	62.8
213.502	73.04
213.72	114
213.938	34.13
214.157	81.24
214.375	36.18
214.594	46.42
214.812	56.66
215.031	27.99
215.249	58.71
215.467	15.7
215.686	60.76
215.904	81.24
216.122	128.34
216.341	87.38
216.559	42.32
216.778	52.56
216.996	93.52
217.214	-25.26
217.432	-10.92
217.651	-64.17
217.869	42.32
218.087	122.2
218.306	54.61
218.524	159.06
218.742	-49.83
218.96	87.38
219.179	30.04
219.397	30.04
219.615	214.35
219.833	202.07
220.051	-96.94
220.27	107.86
220.488	38.23
220.706	85.33
220.924	-6.83
221.142	-68.27
221.36	75.09
221.578	91.48
221.796	64.85
222.015	44.37
222.233	93.52
222.451	140.63
222.669	-51.88
222.887	27.99
223.105	44.37
223.323	81.24
223.541	11.61
223.759	79.19
223.977	46.42
224.195	189.78
224.413	91.48
224.631	73.04
224.849	66.9
225.067	267.6
225.285	-0.68
225.503	7.51
225.721	-101.03
225.939	81.24
226.157	87.38
226.375	183.63
226.592	-19.11
226.81	64.85
227.028	42.32
227.246	181.59
227.464	19.8
227.682	103.76
227.9	122.2
228.117	34.13
228.335	116.05
228.553	-35.5
228.771	118.1
228.989	56.66
229.206	109.91
229.424	13.65
229.642	30.04
229.86	-49.83
230.077	138.58
230.295	79.19
230.513	161.11
230.731	48.47
230.948	152.91
231.166	163.15
231.384	30.04
231.601	17.75
231.819	247.12
232.037	25.94
232.254	-31.4
232.472	73.04
232.689	11.61
232.907	136.53
233.125	75.09
233.342	-31.4
233.56	1.37
233.777	27.99
233.995	42.32
234.213	89.43
234.43	83.28
234.648	-49.83
234.865	19.8
235.083	71
235.3	-12.97
235.518	105.81
235.735	191.83
235.953	79.19
236.17	5.46
236.388	36.18
236.605	34.13
236.822	173.39
237.04	152.91
237.257	62.8
237.475	-86.7
237.692	66.9
237.909	79.19
238.127	27.99
238.344	34.13
238.562	-4.78
238.779	32.08
238.996	30.04
239.214	-4.78
239.431	97.62
239.648	27.99
239.865	81.24
240.083	105.81
240.3	66.9
240.517	89.43
240.735	9.56
240.952	101.72
241.169	25.94
241.386	62.8
241.603	25.94
241.821	-12.97
242.038	120.15
242.255	124.24
242.472	-17.07
242.689	103.76
242.907	142.68
243.124	118.1
243.341	118.1
243.558	75.09
243.775	-72.36
243.992	15.7
244.209	99.67
244.426	101.72
244.643	91.48
244.86	50.52
245.078	195.92
245.295	134.48
245.512	50.52
245.729	-4.78
245.946	34.13
246.163	32.08
246.38	62.8
246.597	103.76
246.814	73.04
247.031	52.56
247.248	89.43
247.464	50.52
247.681	40.28
247.898	124.24
248.115	130.39
248.332	-4.78
248.549	73.04
248.766	210.26
248.983	46.42
249.2	1.37
249.417	120.15
249.633	-29.35
249.85	83.28
250.067	30.04
250.284	68.95
250.501	81.24
250.717	120.15
250.934	56.66
251.151	-27.31
251.368	50.52
251.585	52.56
251.801	93.52
252.018	30.04
252.235	30.04
252.451	-23.21
252.668	105.81
252.885	173.39
253.102	46.42
253.318	66.9
253.535	38.23
253.752	17.75
253.968	40.28
254.185	-47.79
254.401	54.61
254.618	77.14
254.835	-82.6
255.051	60.76
255.268	132.44
255.484	15.7
255.701	87.38
255.917	95.57
256.134	-78.51
256.351	66.9
256.567	11.61
256.784	-29.35
257	21.85
257.217	93.52
257.433	62.8
257.65	83.28
257.866	142.68
258.082	64.85
258.299	56.66
258.515	44.37
258.732	48.47
258.948	3.41
259.165	52.56
259.381	21.85
259.597	91.48
259.814	95.57
260.03	64.85
260.246	-15.02
260.463	36.18
260.679	165.2
260.895	19.8
261.112	120.15
261.328	13.65
261.544	-74.41
261.761	212.31
261.977	-12.97
262.193	-43.69
262.409	214.35
262.626	107.86
262.842	-25.26
263.058	-70.31
263.274	9.56
263.49	54.61
263.707	107.86
263.923	122.2
264.139	-76.46
264.355	54.61
264.571	122.2
264.787	32.08
265.004	103.76
265.22	54.61
265.436	36.18
265.652	7.51
265.868	30.04
266.084	-74.41
266.3	27.99
266.516	-21.16
266.732	114
266.948	30.04
267.164	5.46
267.38	107.86
267.596	50.52
267.812	173.39
268.028	5.46
268.244	62.8
268.46	85.33
268.676	-8.87
268.892	128.34
269.108	-4.78
269.324	-39.59
269.54	-107.18
269.756	148.82
269.972	1.37
270.188	-23.21
270.403	62.8
270.619	-19.11
270.835	105.81
271.051	30.04
271.267	-45.74
271.483	15.7
271.698	118.1
271.914	93.52
272.13	79.19
272.346	-33.45
272.562	23.89
272.777	154.96
272.993	15.7
273.209	32.08
273.425	83.28
273.64	-47.79
273.856	13.65
274.072	17.75
274.287	1.37
274.503	97.62
274.719	138.58
274.934	50.52
275.15	52.56
275.366	25.94
275.581	-21.16
275.797	1.37
276.012	-15.02
276.228	32.08
276.444	13.65
276.659	144.72
276.875	-27.31
277.09	34.13
277.306	-35.5
277.521	23.89
277.737	27.99
277.952	148.82
278.168	62.8
278.383	99.67
278.599	42.32
278.814	124.24
279.03	1.37
279.245	107.86
279.461	71
279.676	140.63
279.892	5.46
280.107	-88.75
280.322	-8.87
280.538	97.62
280.753	9.56
280.969	44.37
281.184	107.86
281.399	101.72
281.615	-0.68
281.83	118.1
282.045	-45.74
282.26	-35.5
282.476	152.91
282.691	116.05
282.906	87.38
283.122	60.76
283.337	-10.92
283.552	54.61
283.767	-6.83
283.983	163.15
284.198	42.32
284.413	79.19
284.628	-31.4
284.843	52.56
285.058	73.04
285.274	40.28
285.489	15.7
285.704	130.39
285.919	-19.11
286.134	13.65
286.349	73.04
286.564	30.04
286.779	103.76
286.995	93.52
287.21	-66.22
287.425	52.56
287.64	1.37
287.855	-10.92
288.07	3.41
288.285	107.86
288.5	216.4
288.715	62.8
288.93	32.08
289.145	-8.87
289.36	64.85
289.575	-17.07
289.79	118.1
290.004	60.76
290.219	157.01
290.434	30.04
290.649	-64.17
290.864	97.62
291.079	58.71
291.294	85.33
291.509	34.13
291.724	97.62
291.938	-27.31
292.153	9.56
292.368	42.32
292.583	54.61
292.798	75.09
293.012	52.56
293.227	85.33
293.442	27.99
293.657	116.05
293.871	107.86
294.086	50.52
294.301	136.53
294.516	60.76
294.73	87.38
294.945	68.95
295.16	52.56
295.374	136.53
295.589	95.57
295.804	79.19
296.018	23.89
296.233	77.14
296.447	52.56
296.662	-23.21
296.877	132.44
297.091	120.15
297.306	15.7
297.52	21.85
297.735	13.65
297.949	44.37
298.164	54.61
298.378	48.47
298.593	-53.93
298.807	7.51
299.022	32.08
299.236	197.97
299.451	54.61
299.665	1.37
299.88	109.91
300.094	120.15
300.309	13.65
300.523	30.04
300.737	68.95
300.952	89.43
301.166	144.72
301.381	-53.93
301.595	13.65
301.809	93.52
302.024	34.13
302.238	-68.27
302.452	169.3
302.667	50.52
302.881	146.77
303.095	71
303.309	25.94
303.524	19.8
303.738	64.85
303.952	7.51
304.166	21.85
304.381	-178.86
304.595	128.34
304.809	75.09
305.023	23.89
305.237	23.89
305.452	21.85
305.666	68.95
305.88	91.48
306.094	101.72
306.308	134.48
306.522	71
306.736	161.11
306.95	87.38
307.164	-0.68
307.379	11.61
307.593	140.63
307.807	157.01
308.021	71
308.235	85.33
308.449	-31.4
308.663	15.7
308.877	200.02
309.091	15.7
309.305	77.14
309.519	-53.93
309.733	116.05
309.947	-103.08
310.161	91.48
310.374	19.8
310.588	118.1
310.802	-35.5
311.016	-33.45
311.23	62.8
311.444	-43.69
311.658	40.28
311.872	64.85
312.085	122.2
312.299	206.16
312.513	185.68
312.727	58.71
312.941	-21.16
313.154	52.56
313.368	11.61
313.582	-2.73
313.796	19.8
314.009	15.7
314.223	169.3
314.437	-8.87
314.651	46.42
314.864	-41.64
315.078	25.94
315.292	-144.04
315.505	-21.16
315.719	95.57
315.933	111.96
316.146	25.94
316.36	-21.16
316.573	83.28
316.787	132.44
317.001	68.95
317.214	5.46
317.428	58.71
317.641	-62.12
317.855	1.37
318.068	68.95
318.282	9.56
318.495	95.57
318.709	87.38
318.922	30.04
319.136	154.96
319.349	34.13
319.563	52.56
319.776	89.43
319.99	-41.64
320.203	105.81
320.417	32.08
320.63	161.11
320.843	159.06
321.057	101.72
321.27	48.47
321.483	81.24
321.697	165.2
321.91	60.76
322.124	77.14
322.337	-12.97
322.55	54.61
322.763	101.72
322.977	34.13
323.19	15.7
323.403	-19.11
323.617	120.15
323.83	136.53
324.043	-2.73
324.256	48.47
324.469	-55.98
324.683	116.05
324.896	9.56
325.109	75.09
325.322	-45.74
325.535	77.14
325.748	105.81
325.962	-10.92
326.175	95.57
326.388	56.66
326.601	132.44
326.814	44.37
327.027	58.71
327.24	165.2
327.453	-51.88
327.666	95.57
327.879	103.76
328.092	75.09
328.305	114
328.518	81.24
328.731	62.8
328.944	54.61
329.157	132.44
329.37	25.94
329.583	116.05
329.796	171.35
330.009	-96.94
330.222	58.71
330.435	142.68
330.648	116.05
330.861	3.41
331.073	93.52
331.286	95.57
331.499	64.85
331.712	25.94
331.925	-6.83
332.138	103.76
332.35	120.15
332.563	44.37
332.776	93.52
332.989	-12.97
333.202	75.09
333.414	-0.68
333.627	25.94
333.84	23.89
334.053	118.1
334.265	9.56
334.478	56.66
334.691	68.95
334.903	40.28
335.116	1.37
335.329	7.51
335.541	132.44
335.754	169.3
335.966	38.23
336.179	7.51
336.392	48.47
336.604	40.28
336.817	122.2
337.029	52.56
337.242	73.04
337.454	17.75
337.667	62.8
337.88	40.28
338.092	56.66
338.305	71
338.517	-6.83
338.729	79.19
338.942	181.59
339.154	-27.31
339.367	-8.87
339.579	64.85
339.792	-29.35
340.004	150.87
340.217	62.8
340.429	60.76
340.641	-35.5
340.854	-17.07
341.066	13.65
341.278	97.62
341.491	165.2
341.703	58.71
341.915	46.42
342.128	134.48
342.34	13.65
342.552	-10.92
342.764	62.8
342.977	-2.73
343.189	-58.03
343.401	68.95
343.613	-0.68
343.826	62.8
344.038	7.51
344.25	75.09
344.462	-8.87
344.674	107.86
344.886	58.71
345.099	50.52
345.311	62.8
345.523	25.94
345.735	-19.11
345.947	25.94
346.159	218.45
346.371	-15.02
346.583	-55.98
346.795	193.87
347.007	-0.68
347.219	60.76
347.431	66.9
347.643	114
347.855	46.42
348.067	130.39
348.279	-29.35
348.491	93.52
348.703	32.08
348.915	-2.73
349.127	36.18
349.339	89.43
349.551	-4.78
349.763	95.57
349.975	56.66
350.187	71
350.399	126.29
350.61	146.77
350.822	36.18
351.034	85.33
351.246	42.32
351.458	79.19
351.669	120.15
351.881	109.91
352.093	124.24
352.305	68.95
352.517	27.99
352.728	107.86
352.94	36.18
353.152	-2.73
353.363	-21.16
353.575	114
353.787	177.49
353.999	-33.45
354.21	140.63
354.422	-76.46
354.633	30.04
354.845	87.38
355.057	85.33
355.268	75.09
355.48	48.47
355.692	-33.45
355.903	11.61
356.115	-84.65
356.326	-70.31
356.538	144.72
356.749	93.52
356.961	232.79
357.172	-29.35
357.384	7.51
357.595	277.84
357.807	40.28
358.018	-72.36
358.23	68.95
358.441	218.45
358.653	52.56
358.864	-10.92
359.075	-41.64
359.287	97.62
359.498	107.86
359.709	60.76
359.921	9.56
360.132	-27.31
360.344	60.76
360.555	15.7
360.766	81.24
360.977	-15.02
361.189	120.15
361.4	-39.59
361.611	46.42
361.823	142.68
362.034	128.34
362.245	5.46
362.456	48.47
362.667	7.51
362.879	-21.16
363.09	109.91
363.301	66.9
363.512	103.76
363.723	-19.11
363.935	21.85
364.146	83.28
364.357	54.61
364.568	68.95
364.779	-6.83
364.99	154.96
365.201	-17.07
365.412	197.97
365.623	-127.66
365.834	73.04
366.045	54.61
366.256	101.72
366.467	152.91
366.678	-6.83
366.889	38.23
367.1	-43.69
367.311	136.53
367.522	-96.94
367.733	52.56
367.944	77.14
368.155	-15.02
368.366	60.76
368.577	177.49
368.788	103.76
368.999	-0.68
369.209	99.67
369.42	181.59
369.631	214.35
369.842	97.62
370.053	-19.11
370.264	173.39
370.474	54.61
370.685	25.94
370.896	1.37
371.107	107.86
371.317	97.62
371.528	36.18
371.739	77.14
371.95	140.63
372.16	136.53
372.371	40.28
372.582	-47.79
372.792	83.28
373.003	21.85
373.214	32.08
373.424	91.48
373.635	-86.7
373.846	56.66
374.056	17.75
374.267	58.71
374.477	58.71
374.688	38.23
374.898	36.18
375.109	46.42
375.319	101.72
375.53	146.77
375.74	126.29
375.951	9.56
376.161	99.67
376.372	128.34
376.582	122.2
376.793	62.8
377.003	9.56
377.214	3.41
377.424	58.71
377.635	32.08
377.845	25.94
378.055	146.77
378.266	17.75
378.476	1.37
378.686	89.43
378.897	101.72
379.107	83.28
379.317	50.52
379.528	-21.16
379.738	101.72
379.948	-23.21
380.158	68.95
380.369	40.28
380.579	71
380.789	-45.74
380.999	75.09
381.21	105.81
381.42	142.68
381.63	89.43
381.84	97.62
382.05	68.95
382.261	208.21
382.471	132.44
382.681	-29.35
382.891	138.58
383.101	60.76
383.311	-58.03
383.521	-37.55
383.731	68.95
383.941	77.14
384.151	87.38
384.361	46.42
384.571	142.68
384.781	42.32
384.991	177.49
385.201	140.63
385.411	105.81
385.621	140.63
385.831	118.1
386.041	128.34
386.251	-37.55
386.461	93.52
386.671	-2.73
386.881	25.94
387.091	64.85
387.301	109.91
387.511	83.28
387.72	134.48
387.93	116.05
388.14	30.04
388.35	95.57
388.56	142.68
388.769	146.77
388.979	19.8
389.189	56.66
389.399	17.75
389.609	50.52
389.818	114
390.028	103.76
390.238	128.34
390.447	5.46
390.657	77.14
390.867	23.89
391.076	-29.35
391.286	87.38
391.496	-6.83
391.705	46.42
391.915	179.54
392.125	165.2
392.334	85.33
392.544	222.55
392.753	44.37
392.963	-58.03
393.172	99.67
393.382	30.04
393.591	130.39
393.801	25.94
394.01	93.52
394.22	77.14
394.429	32.08
394.639	34.13
394.848	34.13
395.058	54.61
395.267	75.09
395.477	99.67
395.686	64.85
395.895	185.68
396.105	224.59
396.314	62.8
396.524	68.95
396.733	9.56
396.942	75.09
397.152	142.68
397.361	130.39
397.57	105.81
397.78	97.62
397.989	54.61
398.198	181.59
398.407	-21.16
398.617	48.47
398.826	25.94
399.035	-0.68
399.244	144.72
399.453	48.47
399.663	111.96
399.872	101.72
400.081	40.28
400.29	130.39
400.499	19.8
400.708	132.44
400.917	15.7
401.127	71
401.336	52.56
401.545	208.21
401.754	120.15
401.963	85.33
402.172	-15.02
402.381	13.65
402.59	-19.11
402.799	17.75
403.008	157.01
403.217	54.61
403.426	128.34
403.635	-33.45
403.844	66.9
404.053	-70.31
404.262	30.04
404.471	124.24
404.68	120.15
404.888	40.28
405.097	30.04
405.306	46.42
405.515	66.9
405.724	21.85
405.933	107.86
406.142	79.19
406.35	175.44
406.559	40.28
406.768	7.51
406.977	136.53
407.185	89.43
407.394	44.37
407.603	25.94
407.812	132.44
408.02	189.78
408.229	60.76
408.438	101.72
408.646	1.37
408.855	56.66
409.064	99.67
409.272	-23.21
409.481	73.04
409.69	-19.11
409.898	60.76
410.107	81.24
410.315	85.33
410.524	9.56
410.733	99.67
410.941	-15.02
411.15	142.68
411.358	134.48
411.567	167.25
411.775	5.46
411.984	87.38
412.192	89.43
412.401	48.47
412.609	230.74
412.818	132.44
413.026	124.24
413.234	-62.12
413.443	-2.73
413.651	68.95
413.86	73.04
414.068	157.01
414.276	132.44
414.485	25.94
414.693	200.02
414.901	189.78
415.11	132.44
415.318	124.24
415.526	62.8
415.734	83.28
415.943	17.75
416.151	136.53
416.359	1.37
416.567	52.56
416.776	81.24
416.984	140.63
417.192	181.59
417.4	-29.35
417.608	62.8
417.817	5.46
418.025	150.87
418.233	169.3
418.441	13.65
418.649	50.52
418.857	83.28
419.065	66.9
419.273	81.24
419.481	109.91
419.689	34.13
419.897	56.66
420.105	-0.68
420.313	89.43
420.521	130.39
420.729	167.25
420.937	73.04
421.145	71
421.353	138.58
421.561	157.01
421.769	36.18
421.977	25.94
422.185	81.24
422.393	77.14
422.601	105.81
422.809	122.2
423.017	150.87
423.224	60.76
423.432	142.68
423.64	75.09
423.848	118.1
424.056	3.41
424.263	134.48
424.471	11.61
424.679	181.59
424.887	42.32
425.094	185.68
425.302	107.86
425.51	101.72
425.718	124.24
425.925	62.8
426.133	34.13
426.341	238.93
426.548	62.8
426.756	-17.07
426.964	150.87
427.171	71
427.379	81.24
427.586	93.52
427.794	144.72
428.001	234.83
428.209	93.52
428.417	132.44
428.624	171.35
428.832	136.53
429.039	7.51
429.247	64.85
429.454	130.39
429.662	204.11
429.869	46.42
430.076	132.44
430.284	214.35
430.491	107.86
430.699	226.64
430.906	222.55
431.114	152.91
431.321	159.06
431.528	66.9
431.736	124.24
431.943	144.72
432.15	181.59
432.358	210.26
432.565	333.14
432.772	36.18
432.979	216.4
433.187	109.91
433.394	265.55
433.601	185.68
433.808	191.83
434.016	281.94
434.223	210.26
434.43	255.31
434.637	331.09
434.844	304.46
435.052	189.78
435.259	304.46
435.466	228.69
435.673	175.44
435.88	341.33
436.087	378.19
436.294	333.14
436.501	326.99
436.708	294.22
436.915	390.48
437.122	345.42
437.329	187.73
437.537	351.57
437.743	279.89
437.95	468.3
438.157	357.71
438.364	384.34
438.571	445.77
438.778	417.1
438.985	478.54
439.192	523.6
439.399	378.19
439.606	484.69
439.813	511.31
440.02	576.84
440.227	681.29
440.433	603.47
440.64	621.9
440.847	480.59
441.054	630.09
441.261	687.43
441.467	605.52
441.674	587.08
441.881	767.31
442.088	617.8
442.294	789.83
442.501	779.59
442.708	916.81
442.914	787.79
443.121	855.37
443.328	849.22
443.534	898.38
443.741	943.43
443.948	849.22
444.154	1056.07
444.361	1080.64
444.568	1039.69
444.774	1066.31
444.981	1094.98
445.187	1195.33
445.394	1250.63
445.6	1197.38
445.807	1410.37
446.013	1412.42
446.22	1221.95
446.426	1443.14
446.633	1467.71
446.839	1713.47
447.046	1434.94
447.252	1699.13
447.459	1664.32
447.665	1611.07
447.871	1920.31
448.078	1889.59
448.284	1869.11
448.491	2141.49
448.697	2018.61
448.903	2233.65
449.11	2288.95
449.316	2293.04
449.522	2286.9
449.728	2577.71
449.935	2512.18
450.141	2571.57
450.347	2706.73
450.553	2819.37
450.76	2805.03
450.966	2864.43
451.172	3048.74
451.378	3165.48
451.584	3304.74
451.791	3534.11
451.997	3525.92
452.203	3656.99
452.409	3869.98
452.615	3947.8
452.821	3859.74
453.027	3929.37
453.233	4605.2
453.44	4332.82
453.646	4556.05
453.852	4730.13
454.058	4984.07
454.264	5084.42
454.47	5416.19
454.676	5471.49
454.882	5829.88
455.088	5664
455.294	5858.56
455.5	6333.68
455.705	6790.38
455.911	6810.86
456.117	6831.34
456.323	6982.89
456.529	7085.29
456.735	7707.87
456.941	7912.67
457.147	8486.1
457.352	8537.3
457.558	8832.21
457.764	9276.62
457.97	9473.22
458.176	9886.91
458.381	10493.11
458.587	10755.25
458.793	11089.07
458.999	10941.61
459.204	12352.66
459.41	12907.66
459.616	12899.47
459.821	13565.06
460.027	13988.99
460.233	14769.27
460.438	14840.95
460.644	15647.85
460.85	15721.57
461.055	16286.81
461.261	17120.34
461.466	16520.28
461.672	17282.13
461.878	19360.81
462.083	19078.19
462.289	19553.32
462.494	20091.94
462.7	19934.25
462.905	20476.96
463.111	22363.14
463.316	23139.32
463.522	23712.75
463.727	24368.1
463.932	25529.3
464.138	26051.53
464.343	27327.41
464.549	27433.91
464.754	29277.08
464.959	30294.92
465.165	30679.94
465.37	30540.68
465.575	29954.96
465.781	32430.95
465.986	33258.33
466.191	32947.04
466.397	32797.54
466.602	32580.45
466.807	34362.18
467.012	34653
467.218	35337.02
467.423	35238.72
467.628	36182.83
467.833	38044.43
468.038	37694.23
468.244	36836.13
468.449	38718.21
468.654	38202.13
468.859	37882.64
469.064	38091.54
469.269	36688.68
469.474	37503.77
469.679	38236.94
469.885	37602.07
470.09	38259.47
470.295	37884.69
470.5	36870.95
470.705	37128.99
470.91	36651.81
471.115	36080.43
471.32	36670.25
471.525	36262.7
471.73	34974.53
471.935	34816.83
472.139	33446.74
472.344	33790.8
472.549	33669.97
472.754	32901.98
472.959	32177
473.164	31415.16
473.369	30165.9
473.574	31490.93
473.778	30919.55
473.983	30245.77
474.188	29803.41
474.393	28044.2
474.598	28310.44
474.802	27712.43
475.007	27132.86
475.212	27294.64
475.417	26084.3
475.621	25662.41
475.826	25392.08
476.031	24667.1
476.235	24257.51
476.44	24290.27
476.645	23430.13
476.849	23682.03
477.054	22832.12
477.259	22504.45
477.463	22531.07
477.668	21570.57
477.872	21976.07
478.077	21404.69
478.282	20726.81
478.486	20489.24
478.691	20522.01
478.895	20085.79
479.1	20022.31
479.304	20091.94
479.509	19014.71
479.713	19594.28
479.918	19055.67
480.122	18746.42
480.326	19070
480.531	18820.15
480.735	18484.28
480.94	17935.43
481.144	18619.45
481.348	17710.15
481.553	17972.29
481.757	17198.16
481.961	17574.99
482.166	17572.94
482.37	17318.99
482.574	17144.91
482.778	17243.21
482.983	17531.98
483.187	16919.64
483.391	16761.94
483.595	16348.25
483.8	16225.37
484.004	16165.98
484.208	16282.72
484.412	15756.39
484.616	15838.31
484.821	15817.83
485.025	15252.59
485.229	15432.81
485.433	15158.38
485.637	14845.04
485.841	14552.18
486.045	14478.46
486.249	14494.84
486.453	14126.21
486.657	13796.48
486.861	13704.32
487.065	13200.52
487.269	13395.08
487.473	12932.24
487.677	13202.57
487.881	13040.78
488.085	12489.88
488.289	12432.54
488.493	11975.84
488.697	11902.11
488.901	11910.3
489.105	11420.84
489.309	11478.18
489.512	11302.06
489.716	10966.19
489.92	10642.61
490.124	10560.69
490.328	10624.18
490.531	10044.6
490.735	10130.62
490.939	9886.91
491.143	9620.67
491.346	9540.8
491.55	9610.43
491.754	9252.04
491.958	9235.66
492.161	9166.03
492.365	8971.47
492.569	8764.62
492.772	8410.33
492.976	8522.96
493.18	8385.75
493.383	8412.37
493.587	8049.88
493.79	8285.4
493.994	7869.66
494.197	7892.19
494.401	7939.29
494.605	7818.46
494.808	7791.84
495.012	7640.29
495.215	7722.21
495.419	7806.17
495.622	7453.92
495.825	7523.55
496.029	7431.4
496.232	7529.7
496.436	7333.09
496.639	7603.43
496.843	7302.37
497.046	7337.19
497.249	7496.93
497.453	7365.86
497.656	7302.37
497.859	7261.41
498.063	7494.88
498.266	7494.88
498.469	7351.53
498.673	7474.4
498.876	7537.89
499.079	7625.95
499.282	7476.45
499.485	7998.68
499.689	7656.67
499.892	7814.37
500.095	7535.84
500.298	7656.67
500.501	7662.82
500.705	7826.65
500.908	8221.91
501.111	8033.5
501.314	8254.68
501.517	8346.84
501.72	8430.8
501.923	8260.82
502.126	8383.7
502.329	8545.49
502.532	8643.79
502.735	8914.13
502.938	8875.21
503.141	9022.67
503.344	8869.07
503.547	9196.74
503.75	9258.18
503.953	9391.3
504.156	9604.29
504.359	9632.96
504.562	9739.46
504.765	9811.14
504.968	10327.22
505.17	10351.8
505.373	10439.86
505.576	10632.37
505.779	10517.68
505.982	10763.44
506.185	11383.98
506.387	11295.91
506.59	11424.93
506.793	11773.09
506.996	11852.96
507.198	12180.64
507.401	12305.56
507.604	12645.52
507.807	12999.82
508.009	13053.07
508.212	13309.07
508.415	13431.94
508.617	13958.27
508.82	13962.37
509.022	13905.03
509.225	14867.57
509.428	14832.75
509.63	15387.75
509.833	15516.78
510.035	16315.48
510.238	16243.81
510.44	16585.82
510.643	17003.6
510.845	17652.81
511.048	17591.37
511.25	18101.31
511.453	18598.97
511.655	19180.59
511.858	19192.88
512.06	19844.13
512.262	20132.9
512.465	20436
512.667	21238.8
512.87	21343.25
513.072	21888.01
513.274	22463.49
513.477	22924.28
513.679	23553.01
513.881	23862.25
514.084	24681.44
514.286	24794.07
514.488	25590.73
514.69	26407.87
514.893	26651.58
515.095	27081.66
515.297	27630.51
515.499	28674.98
515.701	28939.16
515.904	29729.68
516.106	30110.6
516.308	30833.53
516.51	31335.29
516.712	31783.79
516.914	32672.61
517.116	33401.69
517.318	33495.89
517.52	34397
517.722	35216.19
517.925	35373.88
518.127	36475.69
518.329	36948.77
518.531	37057.31
518.733	38411.02
518.935	38693.64
519.136	39119.62
519.338	40243.95
519.54	40645.35
519.742	41186.02
519.944	41878.23
520.146	42728.14
520.348	42828.49
520.55	43252.42
520.752	43676.35
520.954	44544.69
521.155	44339.89
521.357	45496.99
521.559	45884.06
521.761	46819.98
521.963	46879.37
522.164	46895.75
522.366	47628.93
522.568	48374.39
522.77	48140.92
522.971	49775.2
523.173	48564.85
523.375	49459.81
523.576	49420.9
523.778	49662.56
523.98	50176.6
524.181	50379.35
524.383	50160.22
524.584	50684.5
524.786	50709.07
524.988	50522.71
525.189	50575.95
525.391	51151.43
525.592	50985.55
525.794	51141.19
525.995	50596.43
526.197	50670.16
526.398	50932.3
526.6	51386.95
526.801	50784.85
527.003	50899.53
527.204	50270.81
527.406	50676.3
527.607	49885.79
527.808	49994.33
528.01	49179.24
528.211	49408.61
528.412	49568.35
528.614	48956.01
528.815	48278.13
529.016	48824.94
529.218	47897.21
529.419	47559.3
529.62	47180.42
529.822	46862.99
530.023	46422.67
530.224	45879.96
530.425	45322.91
530.626	44927.66
530.828	44587.69
531.029	44661.42
531.23	43809.46
531.431	42959.56
531.632	42998.47
531.833	42451.66
532.035	41620.19
532.236	41695.96
532.437	41120.48
532.638	39924.47
532.839	39842.55
533.04	39729.91
533.241	38380.3
533.442	38937.35
533.643	37821.2
533.844	37597.98
534.045	37331.74
534.246	36092.72
534.447	36244.27
534.648	35654.45
534.849	35248.96
535.05	34489.16
535.251	33874.77
535.451	33401.69
535.652	33254.23
535.853	32842.59
536.054	32455.53
536.255	31652.72
536.456	31185.79
536.657	31366.01
536.857	30604.16
537.058	30501.76
537.259	30262.15
537.46	29567.89
537.66	29180.82
537.861	29000.6
538.062	28441.51
538.263	27849.64
538.463	27677.61
538.664	27327.41
538.865	26780.6
539.065	26819.52
539.266	26266.56
539.466	26055.62
539.667	25322.45
539.868	25396.18
540.068	24939.48
540.269	24847.32
540.469	24523.74
540.67	23991.27
540.87	24054.76
541.071	23540.72
541.271	23755.75
541.472	23114.74
541.672	22625.28
541.873	22467.58
542.073	21926.92
542.274	22045.7
542.474	22098.95
542.675	21363.73
542.875	21500.94
543.075	20943.89
543.276	20569.12
543.476	20900.89
543.676	20438.05
543.877	20329.5
544.077	20044.84
544.277	19803.18
544.478	19618.86
544.678	19612.71
544.878	19072.05
545.078	18682.94
545.279	18502.71
545.479	18336.83
545.679	18230.34
545.879	18013.25
546.079	17974.34
546.28	17622.09
546.48	17265.74
546.68	17437.77
546.88	16909.4
547.08	16864.34
547.28	16434.27
547.48	16184.41
547.68	16053.34
547.88	16219.23
548.081	15948.9
548.281	15656.04
548.481	15340.65
548.681	15471.72
548.881	14863.47
549.081	14883.95
549.28	14439.54
549.48	14398.59
549.68	14148.73
549.88	14482.55
550.08	13831.3
550.28	13421.7
550.48	13370.51
550.68	13333.64
550.88	13057.17
551.08	12840.08
551.279	12784.79
551.479	12399.77
551.679	12364.95
551.879	12264.6
552.079	12111
552.278	11871.39
552.478	11750.56
552.678	11545.77
552.878	11441.32
553.077	11052.2
553.277	10888.37
553.477	10951.85
553.676	10759.35
553.876	10572.98
554.076	10243.26
554.275	10431.67
554.475	10011.84
554.674	10073.28
554.874	9841.86
555.074	9538.76
555.273	9493.7
555.473	9266.38
555.672	9047.24
555.872	8772.82
556.071	9082.06
556.271	8920.27
556.47	8543.44
556.67	8377.56
556.869	8195.29
557.068	8129.75
557.268	8072.41
557.467	7859.42
557.667	7906.52
557.866	7660.77
558.065	7525.6
558.265	7552.23
558.464	7302.37
558.663	7230.69
558.863	7165.16
559.062	6870.25
559.261	6823.15
559.461	6741.23
559.66	6550.77
559.859	6585.58
560.058	6286.58
560.258	6169.85
560.457	6274.29
560.656	6231.29
560.855	5840.12
561.054	6059.26
561.253	5866.75
561.453	5891.32
561.652	5582.08
561.851	5709.05
562.05	5393.67
562.249	5293.32
562.448	5397.76
562.647	5170.44
562.846	5154.05
563.045	5199.11
563.244	4953.35
563.443	5063.94
563.642	4764.94
563.841	4908.3
564.04	4664.59
564.239	4701.45
564.438	4510.99
564.637	4504.85
564.836	4420.88
565.035	4449.55
565.234	4295.96
565.432	4154.65
565.631	4107.54
565.83	4255
566.029	4046.1
566.228	3951.9
566.427	4017.43
566.625	3851.55
566.824	3931.42
567.023	3847.45
567.222	3900.7
567.42	3683.61
567.619	3595.55
567.818	3521.82
568.016	3685.66
568.215	3525.92
568.414	3659.04
568.612	3450.14
568.811	3378.47
569.01	3261.73
569.208	3198.24
569.407	3161.38
569.605	3298.59
569.804	3153.19
570.002	3003.69
570.201	2995.5
570.4	3069.22
570.598	2925.86
570.797	2911.53
570.995	2745.64
571.193	2823.47
571.392	2825.51
571.59	2745.64
571.789	2692.4
571.987	2747.69
572.186	2686.25
572.384	2528.56
572.582	2501.94
572.781	2471.22
572.979	2381.1
573.177	2368.82
573.376	2356.53
573.574	2379.06
573.772	2268.47
573.971	2168.12
574.169	2139.44
574.367	2303.28
574.565	2139.44
574.763	2125.11
574.962	2065.72
575.16	2094.39
575.358	1883.45
575.556	1998.13
575.754	1934.65
575.952	1924.41
576.151	1946.94
576.349	2049.33
576.547	1725.75
576.745	1760.57
576.943	1877.3
577.141	1666.36
577.339	1666.36
577.537	1748.28
577.735	1803.58
577.933	1660.22
578.131	1647.93
578.329	1822.01
578.527	1557.82
578.725	1672.51
578.923	1404.22
579.121	1510.72
579.319	1396.03
579.516	1402.18
579.714	1598.78
579.912	1428.8
580.11	1217.86
580.308	1379.65
580.506	1328.45
580.704	1330.5
580.901	1219.91
581.099	1338.69
581.297	1316.16
581.495	1316.16
581.692	1129.8
581.89	1303.87
582.088	1267.01
582.285	1203.52
582.483	1027.4
582.681	1267.01
582.878	1115.46
583.076	1230.15
583.274	1062.21
583.471	1185.09
583.669	1070.4
583.866	939.34
584.064	961.86
584.262	943.43
584.459	1029.45
584.657	1025.35
584.854	1129.8
585.052	1051.97
585.249	1045.83
585.447	869.7
585.644	802.12
585.841	1002.82
586.039	957.77
586.236	867.66
586.434	863.56
586.631	777.55
586.828	775.5
587.026	759.11
587.223	738.63
587.42	857.42
587.618	886.09
587.815	894.28
588.012	765.26
588.21	769.35
588.407	816.46
588.604	914.76
588.801	664.91
588.999	806.22
589.196	851.27
589.393	640.33
589.59	765.26
589.787	722.25
589.984	726.35
590.182	820.55
590.379	673.1
590.576	662.86
590.773	771.4
590.97	662.86
591.167	773.45
591.364	679.24
591.561	638.28
591.758	750.92
591.955	705.87
592.152	660.81
592.349	632.14
592.546	664.91
592.743	691.53
592.94	615.76
593.137	644.43
593.334	746.83
593.531	740.68
593.727	658.76
593.924	621.9
594.121	646.48
594.318	656.72
594.515	730.44
594.712	847.18
594.908	793.93
595.105	537.93
595.302	732.49
595.499	738.63
595.696	841.03
595.892	601.42
596.089	787.79
596.286	720.2
596.482	894.28
596.679	847.18
596.876	816.46
597.072	900.42
597.269	791.88
597.466	898.38
597.662	845.13
597.859	849.22
598.055	1000.77
598.252	886.09
598.448	1094.98
598.645	1152.32
598.841	1035.59
599.038	1168.71
599.234	1277.25
599.431	1176.9
599.627	1156.42
599.824	1295.68
600.02	1342.78
600.217	1396.03
600.413	1328.45
600.609	1445.18
600.806	1799.48
601.002	1594.68
601.198	1561.92
601.395	1684.8
601.591	1869.11
601.787	1924.41
601.984	1897.78
602.18	1887.54
602.376	1938.74
602.572	2080.05
602.769	2325.81
602.965	2336.05
603.161	2372.91
603.357	2450.74
603.553	2559.28
603.75	2477.36
603.946	2491.7
604.142	2845.99
604.338	2942.25
604.534	2882.86
604.73	3032.36
604.926	3038.5
605.122	3411.23
605.318	3245.35
605.514	3517.73
605.71	3423.52
605.906	3650.85
606.102	3786.01
606.298	3843.35
606.494	4044.06
606.69	4175.13
606.886	4123.93
607.082	4218.13
607.278	4431.12
607.474	4658.45
607.67	4617.49
607.866	4500.75
608.062	4971.79
608.257	5102.86
608.453	4986.12
608.649	5289.22
608.845	5348.61
609.041	5686.53
609.236	5905.66
609.432	5991.67
609.628	6159.61
609.824	6288.63
610.019	6356.21
610.215	6552.82
610.411	6769.9
610.606	7091.43
610.802	7122.15
610.998	7199.98
611.193	7615.71
611.389	7488.74
611.584	7834.85
611.78	7955.68
611.976	8123.61
612.171	8656.08
612.367	8621.27
612.562	8594.64
612.758	9096.39
612.953	9100.49
613.149	9641.15
613.344	9764.03
613.539	10202.3
613.735	10575.03
613.93	10685.62
614.126	10861.74
614.321	11328.68
614.517	11619.49
614.712	11949.22
614.907	12180.64
615.103	12532.89
615.298	12645.52
615.493	13196.43
615.688	13450.38
615.884	13683.84
616.079	14113.92
616.274	14249.08
616.47	14378.11
616.665	15135.85
616.86	15328.36
617.055	15762.53
617.25	16049.25
617.445	16870.48
617.641	16727.13
617.836	17458.25
618.031	17777.73
618.226	18304.06
618.421	18762.81
618.616	19153.97
618.811	19174.45
619.006	20069.41
619.201	20231.2
619.396	21064.72
619.591	20978.71
619.786	22101
619.981	22223.87
620.176	23106.55
620.371	23084.02
620.566	23800.81
620.761	24173.54
620.956	24646.62
621.151	25144.28
621.346	25560.02
621.541	25660.37
621.735	26872.76
621.93	26657.73
622.125	27550.64
622.32	27808.68
622.515	28347.3
622.709	28683.17
622.904	29451.16
623.099	29746.06
623.294	30661.51
623.488	30892.93
623.683	32025.45
623.878	32041.84
624.072	32537.44
624.267	33121.12
624.462	33315.67
624.656	33690.45
624.851	34466.63
625.046	34933.57
625.24	35164.99
625.435	35349.31
625.629	36299.56
625.824	36625.19
626.018	37128.99
626.213	37071.65
626.407	37978.9
626.602	38165.26
626.796	38552.33
626.991	39152.38
627.185	39258.88
627.38	39488.25
627.574	39908.08
627.768	40254.19
627.963	40153.84
628.157	40020.72
628.352	40653.54
628.546	40280.81
628.74	40780.52
628.935	40409.84
629.129	40790.76
629.323	40108.79
629.517	39836.41
629.712	39641.85
629.906	39668.47
630.1	38570.76
630.294	39189.25
630.489	38370.06
630.683	38103.82
630.877	36741.92
631.071	36768.55
631.265	36397.87
631.459	35351.35
631.653	34288.46
631.848	33694.55
632.042	32811.87
632.236	32695.14
632.43	31136.63
632.624	31097.72
632.818	29559.7
633.012	28818.33
633.206	27638.7
633.4	26962.87
633.594	25975.75
633.788	25101.27
633.982	24818.65
634.176	23596.01
634.369	22559.74
634.563	21769.23
634.757	20892.69
634.951	20104.23
635.145	19434.54
635.339	18701.37
635.533	18070.59
635.726	17095.76
635.92	16069.73
636.114	15975.52
636.308	15031.41
636.501	14257.28
636.695	14140.54
636.889	13251.72
637.083	12737.68
637.276	12367
637.47	11742.37
637.664	11492.52
637.857	10894.51
638.051	10323.13
638.244	10056.89
638.438	9626.82
638.632	9338.05
638.825	8686.8
639.019	8537.3
639.212	8352.98
639.406	7853.28
639.599	7697.63
639.793	7425.25
639.986	6827.25
640.18	6821.1
640.373	6479.09
640.567	6167.8
640.76	5995.77
640.954	5719.29
641.147	5373.19
641.34	5381.38
641.534	5229.83
641.727	4957.45
641.92	4803.85
642.114	4523.28
642.307	4369.68
642.5	4242.71
642.694	4216.09
642.887	4001.05
643.08	3800.35
643.273	3745.05
643.467	3550.5
643.66	3390.75
643.853	3167.52
644.046	3099.94
644.239	3026.22
644.432	2907.43
644.626	2721.07
644.819	2624.81
645.012	2549.04
645.205	2549.04
645.398	2458.93
645.591	2317.62
645.784	2159.92
645.977	2147.64
646.17	2053.43
646.363	2030.9
646.556	1801.53
646.749	1756.47
646.942	1676.6
647.135	1699.13
647.328	1568.06
647.521	1508.67
647.714	1490.24
647.907	1467.71
648.099	1328.45
648.292	1400.13
648.485	1303.87
648.678	1244.48
648.871	1193.28
649.064	1090.88
649.256	1033.54
649.449	951.62
649.642	935.24
649.835	914.76
650.027	922.95
650.22	982.34
650.413	904.52
650.605	959.81
650.798	765.26
650.991	881.99
651.183	767.31
651.376	818.5
651.568	791.88
651.761	732.49
651.954	742.73
652.146	617.8
652.339	722.25
652.531	744.78
652.724	662.86
652.916	527.69
653.109	441.68
653.301	630.09
653.494	605.52
653.686	462.16
653.879	539.98
654.071	525.65
654.263	492.88
654.456	435.53
654.648	503.12
654.84	490.83
655.033	451.92
655.225	413.01
655.417	259.41
655.61	552.27
655.802	521.55
655.994	531.79
656.186	343.38
656.379	509.26
656.571	283.99
656.763	372.05
656.955	320.85
657.148	314.7
657.34	415.05
657.532	281.94
657.724	277.84
657.916	304.46
658.108	312.66
658.3	394.58
658.492	292.18
658.684	337.23
658.876	339.28
659.068	283.99
659.26	206.16
659.452	204.11
659.644	249.17
659.836	357.71
660.028	220.5
660.22	243.03
660.412	189.78
660.604	259.41
660.796	294.22
660.988	310.61
661.18	191.83
661.372	222.55
661.563	177.49
661.755	195.92
661.947	142.68
662.139	177.49
662.331	204.11
662.522	236.88
662.714	144.72
662.906	189.78
663.097	185.68
663.289	75.09
663.481	-15.02
663.673	185.68
663.864	97.62
664.056	216.4
664.247	68.95
664.439	306.51
664.631	101.72
664.822	265.55
665.014	136.53
665.205	99.67
665.397	183.63
665.588	222.55
665.78	114
665.971	142.68
666.163	193.87
666.354	208.21
666.546	118.1
666.737	56.66
666.929	116.05
667.12	50.52
667.311	159.06
667.503	200.02
667.694	171.35
667.885	140.63
668.077	161.11
668.268	17.75
668.459	130.39
668.651	116.05
668.842	99.67
669.033	36.18
669.224	66.9
669.416	288.08
669.607	128.34
669.798	36.18
669.989	218.45
670.18	89.43
670.371	191.83
670.563	-15.02
670.754	132.44
670.945	169.3
671.136	204.11
671.327	101.72
671.518	210.26
671.709	202.07
671.9	175.44
672.091	238.93
672.282	101.72
672.473	83.28
672.664	40.28
672.855	132.44
673.046	134.48
673.237	185.68
673.428	107.86
673.619	208.21
673.809	101.72
674	253.27
674.191	212.31
674.382	118.1
674.573	181.59
674.764	154.96
674.954	177.49
675.145	34.13
675.336	77.14
675.527	81.24
675.717	95.57
675.908	97.62
676.099	128.34
676.289	134.48
676.48	44.37
676.671	161.11
676.861	116.05
677.052	159.06
677.243	95.57
677.433	44.37
677.624	263.51
677.814	140.63
678.005	144.72
678.195	247.12
678.386	89.43
678.576	81.24
678.767	32.08
678.957	179.54
679.148	195.92
679.338	230.74
679.529	191.83
679.719	200.02
679.909	255.31
680.1	161.11
680.29	243.03
680.481	46.42
680.671	212.31
680.861	269.65
681.052	179.54
681.242	111.96
681.432	204.11
681.622	109.91
681.813	64.85
682.003	161.11
682.193	118.1
682.383	238.93
682.573	130.39
682.764	120.15
682.954	210.26
683.144	292.18
683.334	148.82
683.524	226.64
683.714	191.83
683.904	195.92
684.094	144.72
684.284	187.73
684.474	232.79
684.664	296.27
684.854	216.4
685.044	148.82
685.234	75.09
685.424	263.51
685.614	132.44
685.804	318.8
685.994	226.64
686.184	179.54
686.374	183.63
686.564	107.86
686.753	175.44
686.943	138.58
687.133	173.39
687.323	107.86
687.513	157.01
687.702	187.73
687.892	177.49
688.082	230.74
688.272	159.06
688.461	204.11
688.651	337.23
688.841	187.73
689.03	197.97
689.22	189.78
689.41	265.55
689.599	267.6
689.789	73.04
689.979	302.42
690.168	177.49
690.358	253.27
690.547	191.83
690.737	181.59
690.926	173.39
691.116	204.11
691.305	202.07
691.495	197.97
691.684	109.91
691.874	73.04
692.063	210.26
692.252	187.73
692.442	269.65
692.631	130.39
692.82	130.39
693.01	157.01
693.199	132.44
693.388	232.79
693.578	142.68
693.767	259.41
693.956	281.94
694.146	136.53
694.335	167.25
694.524	134.48
694.713	230.74
694.902	146.77
695.092	120.15
695.281	179.54
695.47	140.63
695.659	132.44
695.848	99.67
696.037	165.2
696.226	202.07
696.415	171.35
696.604	345.42
696.793	238.93
696.982	118.1
697.171	234.83
697.36	122.2
697.549	177.49
697.738	52.56
697.927	93.52
698.116	122.2
698.305	202.07
698.494	154.96
698.683	150.87
698.872	445.77
699.061	132.44
699.25	253.27
699.438	124.24
699.627	193.87
699.816	222.55
700.005	52.56
700.193	136.53
700.382	224.59
700.571	179.54
700.76	261.46
700.948	306.51
701.137	212.31
701.326	251.22
701.514	81.24
701.703	243.03
701.892	202.07
702.08	269.65
702.269	150.87
702.457	97.62
702.646	148.82
702.834	157.01
703.023	193.87
703.212	214.35
703.4	197.97
703.589	152.91
703.777	118.1
703.965	138.58
704.154	136.53
704.342	81.24
704.531	165.2
704.719	226.64
704.907	240.98
705.096	146.77
705.284	48.47
705.472	181.59
705.661	179.54
705.849	238.93
706.037	179.54
706.226	255.31
706.414	255.31
706.602	101.72
706.79	189.78
706.979	81.24
707.167	118.1
707.355	99.67
707.543	195.92
707.731	144.72
707.919	157.01
708.107	195.92
708.296	68.95
708.484	73.04
708.672	175.44
708.86	136.53
709.048	68.95
709.236	105.81
709.424	206.16
709.612	189.78
709.8	103.76
709.988	154.96
710.176	177.49
710.364	288.08
710.551	275.79
710.739	187.73
710.927	152.91
711.115	157.01
711.303	281.94
711.491	171.35
711.679	126.29
711.866	310.61
712.054	175.44
712.242	109.91
712.43	222.55
712.617	163.15
712.805	281.94
712.993	150.87
713.181	58.71
713.368	212.31
713.556	146.77
713.744	193.87
713.931	249.17
714.119	261.46
714.306	126.29
714.494	159.06
714.682	210.26
714.869	81.24
715.057	187.73
715.244	54.61
715.432	161.11
715.619	238.93
715.807	173.39
715.994	124.24
716.182	212.31
716.369	175.44
716.556	202.07
716.744	60.76
716.931	68.95
717.119	183.63
717.306	130.39
717.493	257.36
717.681	105.81
717.868	138.58
718.055	216.4
718.242	179.54
718.43	171.35
718.617	181.59
718.804	152.91
718.991	232.79
719.179	273.75
719.366	167.25
719.553	159.06
719.74	181.59
719.927	181.59
720.114	193.87
720.301	50.52
720.488	183.63
720.676	161.11
720.863	226.64
721.05	376.14
721.237	204.11
721.424	275.79
721.611	142.68
721.798	97.62
721.985	52.56
722.172	154.96
722.358	210.26
722.545	243.03
722.732	208.21
722.919	259.41
723.106	177.49
723.293	181.59
723.48	220.5
723.667	159.06
723.853	316.75
724.04	234.83
724.227	322.9
724.414	240.98
724.6	257.36
724.787	341.33
724.974	333.14
725.161	234.83
725.347	183.63
725.534	243.03
725.72	226.64
725.907	226.64
726.094	265.55
726.28	134.48
726.467	204.11
726.653	128.34
726.84	320.85
727.027	392.53
727.213	206.16
727.4	290.13
727.586	214.35
727.773	243.03
727.959	175.44
728.145	175.44
728.332	189.78
728.518	281.94
728.705	173.39
728.891	259.41
729.077	243.03
729.264	130.39
729.45	228.69
729.636	320.85
729.823	296.27
730.009	286.03
730.195	277.84
730.382	324.94
730.568	200.02
730.754	206.16
730.94	165.2
731.126	202.07
731.313	243.03
731.499	179.54
731.685	292.18
731.871	200.02
732.057	238.93
732.243	261.46
732.429	200.02
732.615	251.22
732.801	230.74
732.987	197.97
733.173	294.22
733.359	122.2
733.545	316.75
733.731	232.79
733.917	306.51
734.103	290.13
734.289	253.27
734.475	167.25
734.661	365.9
734.847	265.55
735.033	275.79
735.219	314.7
735.404	206.16
735.59	245.07
735.776	157.01
735.962	316.75
736.148	320.85
736.333	359.76
736.519	267.6
736.705	249.17
736.89	216.4
737.076	243.03
737.262	138.58
737.447	271.7
737.633	185.68
737.819	347.47
738.004	275.79
738.19	265.55
738.375	335.18
738.561	335.18
738.747	232.79
738.932	220.5
739.118	482.64
739.303	296.27
739.489	249.17
739.674	263.51
739.859	292.18
740.045	363.86
740.23	304.46
740.416	150.87
740.601	294.22
740.786	279.89
740.972	275.79
741.157	267.6
741.342	226.64
741.528	148.82
741.713	410.96
741.898	224.59
742.084	177.49
742.269	200.02
742.454	261.46
742.639	273.75
742.824	216.4
743.01	302.42
743.195	304.46
743.38	212.31
743.565	259.41
743.75	261.46
743.935	253.27
744.12	308.56
744.305	111.96
744.49	245.07
744.675	222.55
744.86	169.3
745.045	308.56
745.23	249.17
745.415	253.27
745.6	376.14
745.785	208.21
745.97	324.94
746.155	298.32
746.34	290.13
746.525	204.11
746.71	304.46
746.895	222.55
747.079	204.11
747.264	165.2
747.449	304.46
747.634	300.37
747.819	267.6
748.003	200.02
748.188	60.76
748.373	292.18
748.557	298.32
748.742	181.59
748.927	159.06
749.111	202.07
749.296	208.21
749.481	265.55
749.665	238.93
749.85	220.5
750.034	195.92
750.219	294.22
750.404	183.63
750.588	169.3
750.773	116.05
750.957	200.02
751.141	179.54
751.326	177.49
751.51	163.15
751.695	159.06
751.879	103.76
752.064	300.37
752.248	214.35
752.432	351.57
752.617	265.55
752.801	283.99
752.985	148.82
753.17	222.55
753.354	230.74
753.538	169.3
753.722	97.62
753.907	193.87
754.091	181.59
754.275	222.55
754.459	159.06
754.643	261.46
754.828	181.59
755.012	214.35
755.196	165.2
755.38	171.35
755.564	154.96
755.748	193.87
755.932	271.7
756.116	195.92
756.3	300.37
756.484	48.47
756.668	200.02
756.852	73.04
757.036	116.05
757.22	179.54
757.404	68.95
757.588	187.73
757.772	183.63
757.956	126.29
758.14	281.94
758.323	152.91
758.507	208.21
758.691	169.3
758.875	261.46
759.059	212.31
759.242	132.44
759.426	89.43
759.61	157.01
759.794	87.38
759.977	159.06
760.161	400.72
760.345	214.35
760.528	283.99
760.712	169.3
760.895	101.72
761.079	124.24
761.263	89.43
761.446	64.85
761.63	169.3
761.813	245.07
761.997	1.37
762.18	75.09
762.364	128.34
762.547	32.08
762.731	89.43
762.914	144.72
763.098	42.32
763.281	140.63
763.464	105.81
763.648	103.76
763.831	124.24
764.015	99.67
764.198	210.26
764.381	144.72
764.564	142.68
764.748	124.24
764.931	103.76
765.114	124.24
765.297	247.12
765.481	130.39
765.664	71
765.847	77.14
766.03	245.07
766.213	101.72
766.397	101.72
766.58	3.41
766.763	157.01
766.946	136.53
767.129	114
767.312	114
767.495	73.04
767.678	38.23
767.861	161.11
768.044	40.28
768.227	159.06
768.41	81.24
768.593	152.91
768.776	181.59
768.959	103.76
769.142	279.89
769.324	87.38
769.507	7.51
769.69	44.37
769.873	111.96
770.056	281.94
770.239	111.96
770.421	146.77
770.604	134.48
770.787	87.38
770.97	97.62
771.152	81.24
771.335	118.1
771.518	32.08
771.7	185.68
771.883	159.06
772.066	-0.68
772.248	134.48
772.431	191.83
772.613	150.87
772.796	118.1
772.978	114
773.161	228.69
773.343	66.9
773.526	101.72
773.708	-29.35
773.891	21.85
774.073	60.76
774.256	60.76
774.438	222.55
774.621	11.61
774.803	116.05
774.985	5.46
775.168	85.33
775.35	60.76
775.532	187.73
775.715	83.28
775.897	107.86
776.079	116.05
776.261	68.95
776.444	77.14
776.626	89.43
776.808	1.37
776.99	-27.31
777.173	120.15
777.355	114
777.537	120.15
777.719	148.82
777.901	107.86
778.083	85.33
778.265	-15.02
778.447	23.89
778.629	36.18
778.811	130.39
778.993	136.53
779.175	171.35
779.357	122.2
779.539	-17.07
779.721	40.28
779.903	107.86
780.085	56.66
780.267	89.43
780.449	81.24
780.631	93.52
780.812	197.97
780.994	77.14
781.176	75.09
781.358	56.66
781.54	-12.97
781.721	83.28
781.903	124.24
782.085	-41.64
782.267	111.96
782.448	11.61
782.63	66.9
782.812	5.46
782.993	130.39
783.175	107.86
783.357	50.52
783.538	48.47
783.72	1.37
783.901	60.76
784.083	77.14
784.264	103.76
784.446	-31.4
784.627	75.09
784.809	107.86
784.99	58.71
785.172	116.05
785.353	64.85
785.535	89.43
785.716	-29.35
785.897	-37.55
786.079	56.66
786.26	79.19
786.441	75.09
786.623	-51.88
786.804	58.71
786.985	-4.78
787.167	118.1
787.348	11.61
787.529	-6.83
787.71	181.59
787.891	64.85
788.073	23.89
788.254	-29.35
788.435	97.62
788.616	77.14
788.797	-6.83
788.978	95.57
789.159	-37.55
789.34	111.96
789.522	25.94
789.703	66.9
789.884	46.42
790.065	62.8
790.246	179.54
790.427	52.56
790.607	142.68
790.788	97.62
790.969	-53.93
791.15	140.63
791.331	-51.88
791.512	-15.02
791.693	-21.16
791.874	103.76
792.054	154.96
792.235	150.87
792.416	-68.27
792.597	60.76
792.778	136.53
792.958	103.76
793.139	124.24
793.32	-12.97
793.5	-101.03
793.681	75.09
793.862	87.38
794.042	1.37
794.223	-41.64
794.404	44.37
794.584	-111.27
794.765	42.32
794.945	40.28
795.126	44.37
795.306	109.91
795.487	52.56
795.667	-4.78
795.848	118.1
796.028	-43.69
796.209	27.99
796.389	97.62
796.57	64.85
796.75	5.46
796.93	62.8
797.111	5.46
797.291	52.56
797.471	152.91
797.652	21.85
797.832	-33.45
798.012	75.09
798.192	-45.74
798.373	-45.74
798.553	13.65
798.733	79.19
798.913	-21.16
799.093	-21.16
799.274	44.37
799.454	126.29
799.634	50.52
799.814	105.81
799.994	79.19
800.174	83.28
800.354	38.23
800.534	-8.87
800.714	44.37
800.894	-111.27
801.074	-39.59
801.254	-37.55
801.434	46.42
801.614	34.13
801.794	-39.59
801.974	1903.93
802.154	-41.64
802.334	91.48
802.514	-19.11
802.693	83.28
802.873	-15.02
803.053	146.77
803.233	91.48
803.413	-12.97
803.592	13.65
803.772	44.37
803.952	58.71
804.131	9.56
804.311	103.76
804.491	130.39
804.67	-4.78
804.85	-94.89
805.03	128.34
805.209	36.18
805.389	-6.83
805.568	19.8
805.748	-51.88
805.928	9.56
806.107	56.66
806.287	52.56
806.466	30.04
806.646	-4.78
806.825	7.51
807.004	-6.83
807.184	-17.07
807.363	85.33
807.543	91.48
807.722	-15.02
807.901	38.23
808.081	93.52
808.26	-121.51
808.439	87.38
808.619	3.41
808.798	21.85
808.977	66.9
809.156	87.38
809.336	9.56
809.515	130.39
809.694	13.65
809.873	-55.98
810.052	120.15
810.231	91.48
810.411	56.66
810.59	58.71
810.769	3.41
810.948	130.39
811.127	-109.23
811.306	5.46
811.485	34.13
811.664	210.26
811.843	3.41
812.022	42.32
812.201	30.04
812.38	7.51
812.559	-27.31
812.737	62.8
812.916	-55.98
813.095	-23.21
813.274	48.47
813.453	-17.07
813.632	19.8
813.811	95.57
813.989	-4.78
814.168	-15.02
814.347	-74.41
814.526	105.81
814.704	27.99
814.883	42.32
815.062	-82.6
815.24	75.09
815.419	-33.45
815.598	44.37
815.776	-53.93
815.955	5.46
816.133	-105.13
816.312	15.7
816.49	-47.79
816.669	-47.79
816.847	-47.79
817.026	97.62
817.204	-23.21
817.383	13.65
817.561	3.41
817.74	44.37
817.918	60.76
818.097	-29.35
818.275	19.8
818.453	56.66
818.632	-12.97
818.81	7.51
818.988	-19.11
819.167	30.04
819.345	-27.31
819.523	-39.59
819.701	7.51
819.879	38.23
820.058	71
820.236	75.09
820.414	11.61
820.592	42.32
820.77	-33.45
820.948	-39.59
821.127	3.41
821.305	58.71
821.483	-6.83
821.661	120.15
821.839	34.13
822.017	-43.69
822.195	-29.35
822.373	58.71
822.551	-60.07
822.729	95.57
822.907	5.46
823.085	17.75
823.262	7.51
823.44	-58.03
823.618	-31.4
823.796	-21.16
823.974	-4.78
824.152	15.7
824.329	62.8
824.507	-62.12
824.685	23.89
824.863	11.61
825.04	21.85
825.218	60.76
825.396	30.04
825.574	30.04
825.751	5.46
825.929	71
826.107	-19.11
826.284	-29.35
826.462	27.99
826.639	-60.07
826.817	-131.75
826.994	25.94
827.172	-25.26
827.349	140.63
827.527	-35.5
827.704	48.47
827.882	91.48
828.059	85.33
828.237	17.75
828.414	21.85
828.591	-41.64
828.769	34.13
828.946	-23.21
829.124	11.61
829.301	21.85
829.478	-35.5
829.655	-49.83
829.833	-23.21
830.01	-168.62
830.187	50.52
830.364	-68.27
830.542	-0.68
830.719	165.2
830.896	34.13
831.073	68.95
831.25	-19.11
831.427	66.9
831.604	-51.88
831.782	-43.69
831.959	101.72
832.136	-49.83
832.313	46.42
832.49	-12.97
832.667	15.7
832.844	-35.5
833.021	95.57
833.198	36.18
833.374	-45.74
833.551	87.38
833.728	-55.98
833.905	87.38
834.082	-105.13
834.259	30.04
834.436	44.37
834.612	1.37
834.789	38.23
834.966	40.28
835.143	19.8
835.319	-55.98
835.496	40.28
835.673	42.32
835.85	93.52
836.026	15.7
836.203	38.23
836.38	-10.92
836.556	-45.74
836.733	-15.02
836.909	120.15
837.086	56.66
837.262	-103.08
837.439	-37.55
837.616	-4.78
837.792	11.61
837.968	17.75
838.145	-68.27
838.321	25.94
838.498	48.47
838.674	68.95
838.851	30.04
839.027	-51.88
839.203	7.51
839.38	27.99
839.556	-37.55
839.732	83.28
839.909	-0.68
840.085	83.28
840.261	-35.5
840.437	64.85
840.614	19.8
840.79	56.66
840.966	46.42
841.142	34.13
841.318	-39.59
841.494	-2.73
841.671	128.34
841.847	-45.74
842.023	-41.64
842.199	52.56
842.375	68.95
842.551	-137.9
842.727	-17.07
842.903	32.08
843.079	-62.12
843.255	48.47
843.431	-15.02
843.607	9.56
843.783	-94.89
843.959	42.32
844.134	-62.12
844.31	173.39
844.486	-70.31
844.662	-80.55
844.838	-45.74
845.013	66.9
845.189	130.39
845.365	15.7
845.541	-21.16
845.716	58.71
845.892	25.94
846.068	38.23
846.244	-47.79
846.419	27.99
846.595	-53.93
846.77	-35.5
846.946	46.42
847.122	9.56
847.297	-8.87
847.473	144.72
847.648	-60.07
847.824	73.04
847.999	-58.03
848.175	52.56
848.35	21.85
848.526	122.2
848.701	60.76
848.876	9.56
849.052	60.76
849.227	-41.64
849.403	-6.83
849.578	-27.31
849.753	124.24
849.929	3.41
850.104	-86.7
850.279	-76.46
850.454	-15.02
850.63	97.62
850.805	17.75
850.98	54.61
851.155	-8.87
851.33	56.66
851.505	-47.79
851.681	107.86
851.856	-64.17
852.031	-19.11
852.206	54.61
852.381	-72.36
852.556	21.85
852.731	60.76
852.906	124.24
853.081	27.99
853.256	146.77
853.431	42.32
853.606	-19.11
853.781	-113.32
853.956	-133.8
854.131	-19.11
854.305	-23.21
854.48	-6.83
854.655	-10.92
854.83	-70.31
855.005	-55.98
855.18	46.42
855.354	-15.02
855.529	38.23
855.704	-47.79
855.879	38.23
856.053	-31.4
856.228	-2.73
856.403	42.32
856.577	83.28
856.752	-141.99
856.926	7.51
857.101	-8.87
857.276	-58.03
857.45	52.56
857.625	101.72
857.799	50.52
857.974	-94.89
858.148	-68.27
858.323	17.75
858.497	-23.21
858.672	-76.46
858.846	40.28
859.02	-37.55
859.195	-109.23
859.369	-55.98
859.543	77.14
859.718	25.94
859.892	34.13
860.066	-39.59
860.241	-74.41
860.415	-12.97
860.589	-51.88
860.763	-19.11
860.938	-10.92
861.112	50.52
861.286	-12.97
861.46	48.47
861.634	-23.21
861.808	25.94
861.982	-64.17
862.157	19.8
862.331	-68.27
862.505	-35.5
862.679	-86.7
862.853	-58.03
863.027	-21.16
863.201	62.8
863.375	-35.5
863.549	91.48
863.722	19.8
863.896	52.56
864.07	-2.73
864.244	-6.83
864.418	44.37
864.592	58.71
864.766	68.95
864.939	17.75
865.113	-68.27
865.287	36.18
865.461	-17.07
865.634	25.94
865.808	-101.03
865.982	-88.75
866.156	-133.8
866.329	-68.27
866.503	-23.21
866.676	40.28
866.85	52.56
867.024	-51.88
867.197	48.47
867.371	40.28
867.544	30.04
867.718	-119.46
867.891	48.47
868.065	-80.55
868.238	1.37
868.412	73.04
868.585	-41.64
868.759	7.51
868.932	32.08
869.105	-58.03
869.279	27.99
869.452	-82.6
869.625	-29.35
869.799	-39.59
869.972	-98.99
870.145	-21.16
870.319	75.09
870.492	-39.59
870.665	3.41
870.838	-35.5
871.011	-90.79
871.185	-43.69
871.358	-0.68
871.531	42.32
871.704	13.65
871.877	23.89
872.05	-0.68
872.223	-144.04
872.396	-12.97
872.569	48.47
872.742	-37.55
872.915	64.85
873.088	-70.31
873.261	-105.13
873.434	13.65
873.607	-90.79
873.78	58.71
873.953	-82.6
874.126	-0.68
874.299	36.18
874.471	-12.97
874.644	-12.97
874.817	79.19
874.99	189.78
875.163	3.41
875.335	32.08
875.508	-15.02
875.681	75.09
875.853	66.9
876.026	42.32
876.199	19.8
876.371	-10.92
876.544	-27.31
876.717	-55.98
876.889	27.99
877.062	109.91
877.234	-60.07
877.407	-72.36
877.579	50.52
877.752	1.37
877.924	1.37
878.097	68.95
878.269	30.04
878.442	-21.16
878.614	13.65
878.786	-35.5
878.959	-17.07
879.131	-29.35
879.303	-107.18
879.476	-41.64
879.648	122.2
879.82	17.75
879.993	-51.88
880.165	-6.83
880.337	-125.61
880.509	56.66
880.681	-141.99
880.854	-64.17
881.026	21.85
881.198	144.72
881.37	-2.73
881.542	34.13
881.714	3.41
881.886	3.41
882.058	-47.79
882.23	15.7
882.402	5.46
882.574	19.8
882.746	91.48
882.918	19.8
883.09	89.43
883.262	23.89
883.434	38.23
883.606	-64.17
883.778	-76.46
883.95	118.1
884.122	-82.6
884.293	144.72
884.465	27.99
884.637	56.66
884.809	-78.51
884.98	56.66
885.152	13.65
885.324	7.51
885.496	-90.79
885.667	-39.59
885.839	-66.22
886.011	107.86
886.182	3.41
886.354	68.95
886.525	5.46
886.697	-23.21
886.869	-96.94
887.04	1.37
887.212	83.28
887.383	120.15
887.555	71
887.726	-29.35
887.897	30.04
888.069	32.08
888.24	36.18
888.412	5.46
888.583	-21.16
888.754	32.08
888.926	-66.22
889.097	-19.11
889.268	-84.65
889.44	38.23
889.611	-62.12
889.782	-94.89
889.953	-113.32
890.125	21.85
890.296	5.46
890.467	-68.27
890.638	25.94
890.809	38.23
890.98	-86.7
891.151	66.9
891.323	71
891.494	-2.73
891.665	15.7
891.836	-53.93
892.007	62.8
892.178	-2.73
892.349	66.9
892.52	3.41
892.691	-62.12
892.862	-27.31
893.032	-53.93
893.203	-47.79
893.374	-41.64
893.545	75.09
893.716	-113.32
893.887	64.85
894.057	-92.84
894.228	-144.04
894.399	-47.79
894.57	157.01
894.74	62.8
894.911	-33.45
895.082	-39.59
895.253	-74.41
895.423	7.51
895.594	-35.5
895.764	103.76
895.935	-58.03
896.106	13.65
896.276	-80.55
896.447	46.42
896.617	-10.92
896.788	-107.18
896.958	-49.83
897.129	-66.22
897.299	-23.21
897.47	109.91
897.64	32.08
897.81	-76.46
897.981	-6.83
898.151	-64.17
898.322	34.13
898.492	56.66
898.662	-82.6
898.832	1.37
899.003	-55.98
899.173	5.46
899.343	-55.98
899.513	-35.5
