Data from USB4F104151__47__09-28-03-504.txt Node

Date: Wed Feb 26 09:28:03 EST 2025
User: louis
Spectrometer: USB4F10415
Trigger mode: 4
Integration Time (sec): 1.000000E-1
Scans to average: 1
Electric dark correction enabled: true
Nonlinearity correction enabled: false
Boxcar width: 0
XAxis mode: Wavelengths
Number of Pixels in Spectrum: 3648
>>>>>Begin Spectral Data<<<<<
178.204	-347.47
178.424	-347.47
178.644	-347.47
178.864	-351.57
179.084	-320.85
179.304	49.83
179.524	-3.41
179.744	47.79
179.964	37.55
180.184	-19.8
180.404	-46.42
180.624	17.07
180.844	-5.46
181.064	-79.19
181.283	-19.8
181.503	-58.71
181.723	80.55
181.943	-91.48
182.163	195.24
182.383	12.97
182.602	49.83
182.822	119.46
183.042	98.99
183.262	25.26
183.482	-15.7
183.701	-48.47
183.921	37.55
184.141	-5.46
184.361	111.27
184.58	29.35
184.8	17.07
185.02	-15.7
185.239	80.55
185.459	41.64
185.679	182.95
185.898	-32.08
186.118	8.87
186.338	25.26
186.557	64.17
186.777	-40.28
186.997	-36.18
187.216	12.97
187.436	160.42
187.655	31.4
187.875	35.5
188.095	49.83
188.314	152.23
188.534	78.51
188.753	-54.61
188.973	111.27
189.192	98.99
189.412	17.07
189.631	25.26
189.851	41.64
190.07	133.8
190.29	17.07
190.509	74.41
190.729	-21.84
190.948	152.23
191.168	258.73
191.387	58.03
191.607	-66.9
191.826	72.36
192.045	6.83
192.265	0.68
192.484	2.73
192.704	76.46
192.923	-77.14
193.142	182.95
193.362	58.03
193.581	129.7
193.8	98.99
194.02	58.03
194.239	31.4
194.458	92.84
194.678	8.87
194.897	41.64
195.116	0.68
195.335	55.98
195.555	88.75
195.774	-9.56
195.993	51.88
196.212	70.31
196.432	49.83
196.651	45.74
196.87	25.26
197.089	172.71
197.308	29.35
197.528	180.9
197.747	-95.57
197.966	17.07
198.185	80.55
198.404	8.87
198.623	25.26
198.842	84.65
199.062	92.84
199.281	74.41
199.5	15.02
199.719	111.27
199.938	27.31
200.157	21.16
200.376	29.35
200.595	111.27
200.814	74.41
201.033	-3.41
201.252	137.9
201.471	70.31
201.69	152.23
201.909	-44.37
202.128	123.56
202.347	94.89
202.566	37.55
202.785	-60.76
203.004	15.02
203.223	154.28
203.442	86.7
203.661	-5.46
203.879	53.93
204.098	62.12
204.317	78.51
204.536	33.45
204.755	84.65
204.974	17.07
205.193	29.35
205.411	150.18
205.63	137.9
205.849	66.22
206.068	25.26
206.287	-1.37
206.505	113.32
206.724	58.03
206.943	8.87
207.162	-23.89
207.381	2.73
207.599	23.21
207.818	12.97
208.037	17.07
208.255	72.36
208.474	19.11
208.693	-32.08
208.911	119.46
209.13	76.46
209.349	35.5
209.567	21.16
209.786	78.51
210.005	19.11
210.223	49.83
210.442	-73.04
210.661	58.03
210.879	51.88
211.098	6.83
211.316	39.59
211.535	76.46
211.753	39.59
211.972	98.99
212.191	72.36
212.409	86.7
212.628	72.36
212.846	-56.66
213.065	94.89
213.283	148.14
213.502	45.74
213.72	88.75
213.938	43.69
214.157	-58.71
214.375	92.84
214.594	-38.23
214.812	37.55
215.031	21.16
215.249	-1.37
215.467	53.93
215.686	62.12
215.904	66.22
216.122	41.64
216.341	98.99
216.559	27.31
216.778	31.4
216.996	70.31
217.214	-23.89
217.432	-1.37
217.651	-21.84
217.869	15.02
218.087	41.64
218.306	31.4
218.524	78.51
218.742	-30.04
218.96	144.04
219.179	-81.24
219.397	-11.61
219.615	144.04
219.833	37.55
220.051	0.68
220.27	131.75
220.488	131.75
220.706	70.31
220.924	41.64
221.142	27.31
221.36	103.08
221.578	23.21
221.796	17.07
222.015	62.12
222.233	25.26
222.451	139.94
222.669	-23.89
222.887	23.21
223.105	-9.56
223.323	-38.23
223.541	-60.76
223.759	-7.51
223.977	35.5
224.195	193.19
224.413	84.65
224.631	64.17
224.849	17.07
225.067	131.75
225.285	-3.41
225.503	4.78
225.721	-52.56
225.939	45.74
226.157	17.07
226.375	166.57
226.592	43.69
226.81	35.5
227.028	135.85
227.246	139.94
227.464	43.69
227.682	88.75
227.9	80.55
228.117	55.98
228.335	31.4
228.553	-9.56
228.771	41.64
228.989	33.45
229.206	45.74
229.424	-25.94
229.642	-27.99
229.86	-52.56
230.077	94.89
230.295	-9.56
230.513	92.84
230.731	66.22
230.948	107.18
231.166	103.08
231.384	2.73
231.601	4.78
231.819	148.14
232.037	-3.41
232.254	12.97
232.472	70.31
232.689	29.35
232.907	80.55
233.125	53.93
233.342	27.31
233.56	-44.37
233.777	2.73
233.995	35.5
234.213	86.7
234.43	15.02
234.648	51.88
234.865	41.64
235.083	137.9
235.3	-9.56
235.518	55.98
235.735	199.34
235.953	62.12
236.17	-7.51
236.388	17.07
236.605	-3.41
236.822	68.27
237.04	58.03
237.257	45.74
237.475	-13.65
237.692	53.93
237.909	47.79
238.127	-64.85
238.344	58.03
238.562	84.65
238.779	-17.75
238.996	-44.37
239.214	47.79
239.431	60.07
239.648	-21.84
239.865	66.22
240.083	88.75
240.3	-91.48
240.517	-32.08
240.735	107.18
240.952	178.86
241.169	6.83
241.386	39.59
241.603	6.83
241.821	-30.04
242.038	109.23
242.255	119.46
242.472	-68.95
242.689	74.41
242.907	33.45
243.124	15.02
243.341	8.87
243.558	-9.56
243.775	-60.76
243.992	-120.15
244.209	70.31
244.426	84.65
244.643	92.84
244.86	-9.56
245.078	72.36
245.295	49.83
245.512	43.69
245.729	-34.13
245.946	111.27
246.163	51.88
246.38	68.27
246.597	0.68
246.814	-42.32
247.031	-1.37
247.248	-32.08
247.464	70.31
247.681	60.07
247.898	58.03
248.115	74.41
248.332	66.22
248.549	96.94
248.766	152.23
248.983	72.36
249.2	29.35
249.417	80.55
249.633	-25.94
249.85	27.31
250.067	4.78
250.284	29.35
250.501	80.55
250.717	94.89
250.934	-56.66
251.151	-9.56
251.368	39.59
251.585	66.22
251.801	39.59
252.018	0.68
252.235	51.88
252.451	-56.66
252.668	-19.8
252.885	121.51
253.102	-32.08
253.318	-42.32
253.535	-11.61
253.752	2.73
253.968	-32.08
254.185	-48.47
254.401	31.4
254.618	25.26
254.835	10.92
255.051	98.99
255.268	70.31
255.484	74.41
255.701	41.64
255.917	51.88
256.134	17.07
256.351	70.31
256.567	-27.99
256.784	64.17
257	-64.85
257.217	164.52
257.433	103.08
257.65	117.42
257.866	82.6
258.082	-7.51
258.299	-81.24
258.515	74.41
258.732	-7.51
258.948	-7.51
259.165	17.07
259.381	-105.81
259.597	80.55
259.814	0.68
260.03	8.87
260.246	-58.71
260.463	74.41
260.679	135.85
260.895	47.79
261.112	92.84
261.328	-17.75
261.544	-1.37
261.761	160.42
261.977	-38.23
262.193	-85.33
262.409	29.35
262.626	88.75
262.842	80.55
263.058	-103.76
263.274	27.31
263.49	0.68
263.707	133.8
263.923	64.17
264.139	-79.19
264.355	35.5
264.571	185
264.787	49.83
265.004	72.36
265.22	78.51
265.436	-23.89
265.652	53.93
265.868	53.93
266.084	-32.08
266.3	62.12
266.516	-7.51
266.732	66.22
266.948	53.93
267.164	39.59
267.38	90.79
267.596	117.42
267.812	129.7
268.028	58.03
268.244	12.97
268.46	68.27
268.676	37.55
268.892	-13.65
269.108	-27.99
269.324	8.87
269.54	-48.47
269.756	53.93
269.972	-25.94
270.188	-1.37
270.403	-50.52
270.619	25.26
270.835	82.6
271.051	105.13
271.267	17.07
271.483	4.78
271.698	66.22
271.914	70.31
272.13	12.97
272.346	21.16
272.562	19.11
272.777	51.88
272.993	-3.41
273.209	-52.56
273.425	123.56
273.64	-120.15
273.856	55.98
274.072	-32.08
274.287	-36.18
274.503	74.41
274.719	123.56
274.934	4.78
275.15	-111.96
275.366	41.64
275.581	-9.56
275.797	-36.18
276.012	0.68
276.228	-66.9
276.444	17.07
276.659	76.46
276.875	-19.8
277.09	-7.51
277.306	-3.41
277.521	62.12
277.737	-68.95
277.952	31.4
278.168	12.97
278.383	23.21
278.599	70.31
278.814	66.22
279.03	10.92
279.245	119.46
279.461	17.07
279.676	135.85
279.892	53.93
280.107	-3.41
280.322	12.97
280.538	60.07
280.753	8.87
280.969	17.07
281.184	70.31
281.399	150.18
281.615	47.79
281.83	17.07
282.045	-91.48
282.26	-3.41
282.476	0.68
282.691	29.35
282.906	-32.08
283.122	0.68
283.337	23.21
283.552	90.79
283.767	-73.04
283.983	70.31
284.198	17.07
284.413	103.08
284.628	-52.56
284.843	8.87
285.058	72.36
285.274	-11.61
285.489	-21.84
285.704	76.46
285.919	-75.09
286.134	35.5
286.349	-23.89
286.564	-23.89
286.779	86.7
286.995	12.97
287.21	-25.94
287.425	4.78
287.64	-21.84
287.855	-50.52
288.07	-103.76
288.285	70.31
288.5	164.52
288.715	111.27
288.93	-19.8
289.145	43.69
289.36	62.12
289.575	-52.56
289.79	105.13
290.004	-30.04
290.219	127.66
290.434	12.97
290.649	-27.99
290.864	-19.8
291.079	-17.75
291.294	74.41
291.509	35.5
291.724	6.83
291.938	35.5
292.153	39.59
292.368	37.55
292.583	17.07
292.798	107.18
293.012	78.51
293.227	68.27
293.442	-38.23
293.657	31.4
293.871	64.17
294.086	58.03
294.301	98.99
294.516	131.75
294.73	27.31
294.945	-68.95
295.16	2.73
295.374	135.85
295.589	90.79
295.804	39.59
296.018	53.93
296.233	221.86
296.447	23.21
296.662	-64.85
296.877	82.6
297.091	76.46
297.306	8.87
297.52	8.87
297.735	0.68
297.949	10.92
298.164	41.64
298.378	51.88
298.593	6.83
298.807	-21.84
299.022	6.83
299.236	148.14
299.451	-79.19
299.665	72.36
299.88	-19.8
300.094	74.41
300.309	8.87
300.523	51.88
300.737	21.16
300.952	76.46
301.166	70.31
301.381	-32.08
301.595	12.97
301.809	21.16
302.024	33.45
302.238	-3.41
302.452	58.03
302.667	55.98
302.881	96.94
303.095	127.66
303.309	17.07
303.524	45.74
303.738	-56.66
303.952	51.88
304.166	23.21
304.381	-87.38
304.595	168.62
304.809	-40.28
305.023	41.64
305.237	-36.18
305.452	25.26
305.666	45.74
305.88	-11.61
306.094	10.92
306.308	17.07
306.522	66.22
306.736	62.12
306.95	84.65
307.164	-17.75
307.379	47.79
307.593	45.74
307.807	74.41
308.021	139.94
308.235	47.79
308.449	-52.56
308.663	31.4
308.877	193.19
309.091	33.45
309.305	66.22
309.519	-130.39
309.733	88.75
309.947	-52.56
310.161	-46.42
310.374	119.46
310.588	72.36
310.802	-81.24
311.016	-7.51
311.23	-3.41
311.444	-11.61
311.658	-27.99
311.872	115.37
312.085	43.69
312.299	45.74
312.513	129.7
312.727	19.11
312.941	-60.76
313.154	45.74
313.368	27.31
313.582	37.55
313.796	-27.99
314.009	-7.51
314.223	131.75
314.437	84.65
314.651	62.12
314.864	-68.95
315.078	-15.7
315.292	-58.71
315.505	-7.51
315.719	92.84
315.933	74.41
316.146	19.11
316.36	55.98
316.573	82.6
316.787	123.56
317.001	23.21
317.214	-42.32
317.428	31.4
317.641	31.4
317.855	-9.56
318.068	35.5
318.282	4.78
318.495	109.23
318.709	0.68
318.922	41.64
319.136	72.36
319.349	98.99
319.563	8.87
319.776	58.03
319.99	-46.42
320.203	117.42
320.417	8.87
320.63	80.55
320.843	148.14
321.057	84.65
321.27	33.45
321.483	0.68
321.697	33.45
321.91	-21.84
322.124	33.45
322.337	60.07
322.55	0.68
322.763	64.17
322.977	2.73
323.19	53.93
323.403	88.75
323.617	31.4
323.83	74.41
324.043	-44.37
324.256	-1.37
324.469	-85.33
324.683	135.85
324.896	17.07
325.109	-1.37
325.322	-75.09
325.535	78.51
325.748	33.45
325.962	17.07
326.175	94.89
326.388	127.66
326.601	111.27
326.814	10.92
327.027	76.46
327.24	119.46
327.453	-38.23
327.666	66.22
327.879	72.36
328.092	33.45
328.305	101.03
328.518	-30.04
328.731	21.16
328.944	8.87
329.157	55.98
329.37	-62.8
329.583	139.94
329.796	127.66
330.009	-52.56
330.222	25.26
330.435	51.88
330.648	-13.65
330.861	74.41
331.073	45.74
331.286	58.03
331.499	23.21
331.712	-19.8
331.925	-34.13
332.138	80.55
332.35	105.13
332.563	-60.76
332.776	45.74
332.989	45.74
333.202	-23.89
333.414	103.08
333.627	25.26
333.84	29.35
334.053	43.69
334.265	0.68
334.478	-36.18
334.691	74.41
334.903	53.93
335.116	-15.7
335.329	64.17
335.541	23.21
335.754	131.75
335.966	31.4
336.179	25.26
336.392	51.88
336.604	-9.56
336.817	2.73
337.029	115.37
337.242	17.07
337.454	84.65
337.667	139.94
337.88	107.18
338.092	-7.51
338.305	105.13
338.517	-50.52
338.729	156.33
338.942	78.51
339.154	-38.23
339.367	-32.08
339.579	92.84
339.792	-13.65
340.004	131.75
340.217	10.92
340.429	58.03
340.641	-75.09
340.854	27.31
341.066	68.27
341.278	72.36
341.491	152.23
341.703	10.92
341.915	-75.09
342.128	53.93
342.34	17.07
342.552	33.45
342.764	21.16
342.977	41.64
343.189	21.16
343.401	139.94
343.613	-75.09
343.826	-77.14
344.038	-44.37
344.25	8.87
344.462	-27.99
344.674	-27.99
344.886	70.31
345.099	31.4
345.311	43.69
345.523	25.26
345.735	-138.58
345.947	39.59
346.159	105.13
346.371	25.26
346.583	119.46
346.795	127.66
347.007	94.89
347.219	31.4
347.431	-32.08
347.643	80.55
347.855	-32.08
348.067	117.42
348.279	-27.99
348.491	62.12
348.703	-5.46
348.915	4.78
349.127	-1.37
349.339	41.64
349.551	-83.28
349.763	-7.51
349.975	-3.41
350.187	82.6
350.399	51.88
350.61	45.74
350.822	-17.75
351.034	-34.13
351.246	74.41
351.458	125.61
351.669	121.51
351.881	66.22
352.093	121.51
352.305	70.31
352.517	-36.18
352.728	78.51
352.94	-19.8
353.152	27.31
353.363	-56.66
353.575	96.94
353.787	86.7
353.999	107.18
354.21	98.99
354.422	-56.66
354.633	-50.52
354.845	4.78
355.057	66.22
355.268	41.64
355.48	49.83
355.692	-77.14
355.903	107.18
356.115	-17.75
356.326	-111.96
356.538	144.04
356.749	64.17
356.961	150.18
357.172	33.45
357.384	-13.65
357.595	266.92
357.807	23.21
358.018	-32.08
358.23	33.45
358.441	74.41
358.653	2.73
358.864	17.07
359.075	-52.56
359.287	72.36
359.498	17.07
359.709	-7.51
359.921	8.87
360.132	47.79
360.344	27.31
360.555	-40.28
360.766	62.12
360.977	31.4
361.189	55.98
361.4	-44.37
361.611	84.65
361.823	58.03
362.034	60.07
362.245	-62.8
362.456	64.17
362.667	80.55
362.879	-11.61
363.09	55.98
363.301	-48.47
363.512	-1.37
363.723	-11.61
363.935	-9.56
364.146	80.55
364.357	-36.18
364.568	94.89
364.779	-48.47
364.99	125.61
365.201	0.68
365.412	129.7
365.623	-32.08
365.834	86.7
366.045	12.97
366.256	92.84
366.467	53.93
366.678	-34.13
366.889	33.45
367.1	23.21
367.311	148.14
367.522	-46.42
367.733	25.26
367.944	64.17
368.155	62.12
368.366	113.32
368.577	45.74
368.788	113.32
368.999	-17.75
369.209	39.59
369.42	170.66
369.631	203.43
369.842	29.35
370.053	66.22
370.264	45.74
370.474	-44.37
370.685	74.41
370.896	-5.46
371.107	39.59
371.317	35.5
371.528	-15.7
371.739	156.33
371.95	-46.42
372.16	109.23
372.371	-25.94
372.582	49.83
372.792	58.03
373.003	25.26
373.214	51.88
373.424	96.94
373.635	-32.08
373.846	111.27
374.056	51.88
374.267	4.78
374.477	33.45
374.688	17.07
374.898	-27.99
375.109	-32.08
375.319	19.11
375.53	82.6
375.74	98.99
375.951	0.68
376.161	31.4
376.372	74.41
376.582	-87.38
376.793	94.89
377.003	-11.61
377.214	0.68
377.424	33.45
377.635	39.59
377.845	17.07
378.055	115.37
378.266	-23.89
378.476	6.83
378.686	74.41
378.897	43.69
379.107	78.51
379.317	82.6
379.528	-11.61
379.738	107.18
379.948	-17.75
380.158	88.75
380.369	101.03
380.579	123.56
380.789	0.68
380.999	53.93
381.21	55.98
381.42	154.28
381.63	12.97
381.84	25.26
382.05	84.65
382.261	115.37
382.471	98.99
382.681	-36.18
382.891	109.23
383.101	125.61
383.311	-95.57
383.521	-46.42
383.731	55.98
383.941	74.41
384.151	53.93
384.361	58.03
384.571	-13.65
384.781	111.27
384.991	154.28
385.201	144.04
385.411	117.42
385.621	47.79
385.831	21.16
386.041	41.64
386.251	62.12
386.461	90.79
386.671	-5.46
386.881	-7.51
387.091	17.07
387.301	84.65
387.511	2.73
387.72	125.61
387.93	78.51
388.14	-83.28
388.35	-23.89
388.56	78.51
388.769	41.64
388.979	21.16
389.189	8.87
389.399	66.22
389.609	115.37
389.818	47.79
390.028	12.97
390.238	47.79
390.447	53.93
390.657	160.42
390.867	60.07
391.076	-44.37
391.286	115.37
391.496	-64.85
391.705	4.78
391.915	74.41
392.125	105.13
392.334	45.74
392.544	88.75
392.753	78.51
392.963	-66.9
393.172	78.51
393.382	45.74
393.591	103.08
393.801	12.97
394.01	37.55
394.22	62.12
394.429	2.73
394.639	37.55
394.848	62.12
395.058	58.03
395.267	-36.18
395.477	29.35
395.686	70.31
395.895	152.23
396.105	203.43
396.314	156.33
396.524	33.45
396.733	39.59
396.942	76.46
397.152	49.83
397.361	146.09
397.57	-7.51
397.78	60.07
397.989	109.23
398.198	141.99
398.407	58.03
398.617	-36.18
398.826	35.5
399.035	-15.7
399.244	45.74
399.453	17.07
399.663	-5.46
399.872	33.45
400.081	8.87
400.29	115.37
400.499	25.26
400.708	150.18
400.917	-1.37
401.127	31.4
401.336	-17.75
401.545	166.57
401.754	176.81
401.963	-44.37
402.172	-50.52
402.381	-15.7
402.59	70.31
402.799	74.41
403.008	84.65
403.217	51.88
403.426	35.5
403.635	-52.56
403.844	-40.28
404.053	37.55
404.262	88.75
404.471	182.95
404.68	25.26
404.888	68.27
405.097	37.55
405.306	8.87
405.515	49.83
405.724	33.45
405.933	152.23
406.142	107.18
406.35	72.36
406.559	23.21
406.768	43.69
406.977	121.51
407.185	25.26
407.394	72.36
407.603	-30.04
407.812	105.13
408.02	80.55
408.229	4.78
408.438	33.45
408.646	-64.85
408.855	64.17
409.064	31.4
409.272	-27.99
409.481	60.07
409.69	33.45
409.898	-25.94
410.107	8.87
410.315	117.42
410.524	-17.75
410.733	0.68
410.941	-19.8
411.15	35.5
411.358	72.36
411.567	139.94
411.775	107.18
411.984	117.42
412.192	113.32
412.401	4.78
412.609	156.33
412.818	131.75
413.026	19.11
413.234	37.55
413.443	10.92
413.651	8.87
413.86	49.83
414.068	115.37
414.276	109.23
414.485	-9.56
414.693	131.75
414.901	172.71
415.11	80.55
415.318	-38.23
415.526	82.6
415.734	62.12
415.943	47.79
416.151	94.89
416.359	39.59
416.567	29.35
416.776	131.75
416.984	137.9
417.192	107.18
417.4	23.21
417.608	-46.42
417.817	-52.56
418.025	76.46
418.233	123.56
418.441	-81.24
418.649	37.55
418.857	35.5
419.065	82.6
419.273	74.41
419.481	43.69
419.689	-17.75
419.897	-36.18
420.105	0.68
420.313	78.51
420.521	45.74
420.729	84.65
420.937	17.07
421.145	-36.18
421.353	51.88
421.561	109.23
421.769	111.27
421.977	70.31
422.185	162.47
422.393	17.07
422.601	109.23
422.809	148.14
423.017	-13.65
423.224	41.64
423.432	119.46
423.64	-21.84
423.848	148.14
424.056	31.4
424.263	88.75
424.471	-13.65
424.679	123.56
424.887	-25.94
425.094	156.33
425.302	82.6
425.51	68.27
425.718	43.69
425.925	41.64
426.133	-3.41
426.341	176.81
426.548	86.7
426.756	45.74
426.964	60.07
427.171	-60.76
427.379	8.87
427.586	39.59
427.794	94.89
428.001	144.04
428.209	60.07
428.417	139.94
428.624	78.51
428.832	49.83
429.039	39.59
429.247	109.23
429.454	123.56
429.662	223.91
429.869	139.94
430.076	178.86
430.284	133.8
430.491	234.15
430.699	78.51
430.906	191.14
431.114	74.41
431.321	123.56
431.528	98.99
431.736	60.07
431.943	127.66
432.15	195.24
432.358	146.09
432.565	199.34
432.772	25.26
432.979	258.73
433.187	111.27
433.394	96.94
433.601	41.64
433.808	217.77
434.016	264.87
434.223	187.05
434.43	166.57
434.637	234.15
434.844	246.44
435.052	203.43
435.259	295.59
435.466	279.21
435.673	279.21
435.88	285.35
436.087	275.11
436.294	254.63
436.501	303.78
436.708	299.69
436.915	275.11
437.122	314.02
437.329	160.42
437.537	348.84
437.743	318.12
437.95	447.14
438.157	332.45
438.364	426.66
438.571	268.97
438.778	375.46
438.985	453.28
439.192	516.77
439.399	506.53
439.606	402.08
439.813	500.39
440.02	510.63
440.227	656.03
440.433	406.18
440.64	531.11
440.847	486.05
441.054	594.59
441.261	713.38
441.467	574.11
441.674	557.73
441.881	717.47
442.088	557.73
442.294	776.86
442.501	735.9
442.708	813.73
442.914	836.25
443.121	746.14
443.328	879.26
443.534	989.85
443.741	826.01
443.948	762.53
444.154	920.22
444.361	1122.97
444.568	975.52
444.774	877.21
444.981	901.79
445.187	1106.59
445.394	1065.63
445.6	1079.96
445.807	1231.51
446.013	1215.13
446.22	1161.88
446.426	1409.69
446.633	1426.07
446.839	1565.33
447.046	1342.1
447.252	1491.6
447.459	1575.57
447.665	1612.43
447.871	1710.74
448.078	1876.62
448.284	1727.12
448.491	1868.43
448.697	2044.56
448.903	2069.13
449.11	2185.87
449.316	2138.76
449.522	2232.97
449.728	2292.36
449.935	2351.75
450.141	2380.42
450.347	2706.05
450.553	2433.67
450.76	2650.75
450.966	2812.54
451.172	2847.36
451.378	2988.67
451.584	3101.31
451.791	3244.67
451.997	3441.27
452.203	3342.97
452.409	3619.44
452.615	3676.79
452.821	3687.03
453.027	3648.11
453.233	4160.11
453.44	3930.73
453.646	4260.46
453.852	4495.97
454.058	4475.49
454.264	4815.46
454.47	5093.98
454.676	5182.04
454.882	5466.71
455.088	5354.07
455.294	5667.41
455.5	6025.81
455.705	6404.68
455.911	6201.93
456.117	6597.19
456.323	6578.76
456.529	6693.44
456.735	7371.32
456.941	7356.99
457.147	7840.31
457.352	7832.12
457.558	8077.87
457.764	8806.95
457.97	8890.91
458.176	9413.15
458.381	9783.83
458.587	9763.35
458.793	10232.33
458.999	10408.46
459.204	11799.03
459.41	12020.21
459.616	11821.56
459.821	12788.2
460.027	13130.21
460.233	13746.65
460.438	13855.19
460.644	14744.01
460.85	15006.15
461.055	15215.04
461.261	16077.24
461.466	15858.1
461.672	16232.88
461.878	17785.24
462.083	17885.59
462.289	17863.07
462.494	18876.81
462.7	18950.54
462.905	19313.03
463.111	21047.66
463.316	21709.15
463.522	21934.43
463.727	22630.74
463.932	23363.91
464.138	24580.4
464.343	25659.68
464.549	25839.9
464.754	27789.57
464.959	27941.12
465.165	28625.14
465.37	28569.85
465.575	28459.26
465.781	30447.83
465.986	31008.98
466.191	30906.58
466.397	31164.62
466.602	30378.2
466.807	32250.05
467.012	33038.51
467.218	33319.09
467.423	33222.83
467.628	34121.89
467.833	35795.08
468.038	35207.31
468.244	34418.85
468.449	36808.82
468.654	35735.69
468.859	35922.05
469.064	36026.5
469.269	34830.49
469.474	35436.69
469.679	36087.94
469.885	35264.66
470.09	35881.1
470.295	35672.2
470.5	34678.94
470.705	35195.03
470.91	34099.36
471.115	33755.3
471.32	34306.21
471.525	34089.12
471.73	33083.57
471.935	32989.36
472.139	31705.29
472.344	31748.29
472.549	32102.59
472.754	31228.11
472.959	30886.1
473.164	29481.19
473.369	29026.54
473.574	29829.35
473.778	29251.82
473.983	28676.34
474.188	28154.11
474.393	26468.63
474.598	27011.34
474.802	26134.81
475.007	26241.31
475.212	25590.05
475.417	24564.02
475.621	24459.57
475.826	24215.87
476.031	23611.71
476.235	23206.22
476.44	22903.12
476.645	22514
476.849	22116.7
477.054	22085.98
477.259	21107.05
477.463	21277.03
477.668	20726.13
477.872	20638.06
478.077	20189.56
478.282	19722.62
478.486	19261.83
478.691	19188.1
478.895	18866.57
479.1	19046.79
479.304	18729.36
479.509	17934.74
479.713	18409.87
479.918	18155.93
480.122	17398.18
480.326	17912.22
480.531	17777.05
480.735	17303.97
480.94	16937.38
481.144	17627.55
481.348	16869.8
481.553	16943.53
481.757	16181.68
481.961	16759.21
482.166	16667.05
482.37	16789.93
482.574	16030.13
482.778	16165.3
482.983	16112.05
483.187	16030.13
483.391	15770.04
483.595	15665.6
483.8	15528.38
484.004	15653.31
484.208	15393.22
484.412	15235.52
484.616	14868.94
484.821	14885.32
485.025	14385.62
485.229	14516.69
485.433	14287.31
485.637	14115.28
485.841	13920.73
486.045	13578.72
486.249	13765.08
486.453	13310.43
486.657	13205.99
486.861	13132.26
487.065	12546.54
487.269	12630.51
487.473	12235.25
487.677	12360.17
487.881	12313.07
488.085	11713.02
488.289	11837.94
488.493	11463.16
488.697	11454.97
488.901	11213.31
489.105	10887.68
489.309	10877.44
489.512	10650.12
489.716	10377.74
489.92	10142.22
490.124	9896.47
490.328	10078.74
490.531	9626.14
490.735	9728.53
490.939	9396.76
491.143	9198.11
491.346	9015.84
491.55	8960.55
491.754	8843.81
491.958	8600.1
492.161	8548.9
492.365	8270.38
492.569	8239.66
492.772	8307.24
492.976	8086.06
493.18	8135.21
493.383	7742
493.587	7864.88
493.79	7817.78
493.994	7610.93
494.197	7574.07
494.401	7569.98
494.605	7242.3
494.808	7457.34
495.012	7313.98
495.215	7408.19
495.419	7275.07
495.622	7144
495.825	7014.98
496.029	6949.44
496.232	7045.7
496.436	7041.6
496.639	7111.23
496.843	7103.04
497.046	6890.05
497.249	7012.93
497.453	6963.78
497.656	6992.45
497.859	7080.51
498.063	6978.11
498.266	7238.2
498.469	7049.79
498.673	7092.8
498.876	7049.79
499.079	7262.78
499.282	7111.23
499.485	7395.9
499.689	7236.16
499.892	7356.99
500.095	7494.2
500.298	7545.4
500.501	7322.17
500.705	7682.61
500.908	7635.51
501.111	7582.26
501.314	7877.17
501.517	7914.03
501.72	7854.64
501.923	8051.25
502.126	7954.99
502.329	8147.5
502.532	8235.57
502.735	8256.04
502.938	8471.08
503.141	8499.75
503.344	8725.03
503.547	8755.75
503.75	8583.72
503.953	8780.32
504.156	9220.64
504.359	9179.68
504.562	9175.58
504.765	9458.2
504.968	9697.81
505.17	9710.1
505.373	9982.48
505.576	9974.29
505.779	10342.92
505.982	10228.24
506.185	10580.49
506.387	10777.09
506.59	10883.59
506.793	11125.25
506.996	11205.12
507.198	11682.3
507.401	11678.2
507.604	12075.51
507.807	12343.79
508.009	12526.06
508.212	12784.1
508.415	12861.93
508.617	13083.11
508.82	13427.17
509.022	13369.82
509.225	14229.97
509.428	14508.49
509.63	14672.33
509.833	14721.48
510.035	15538.62
510.238	15432.13
510.44	15878.58
510.643	16325.04
510.845	16898.47
511.048	16820.65
511.25	17402.27
511.453	17607.07
511.655	18389.39
511.858	18682.25
512.06	18979.21
512.262	19415.43
512.465	19765.63
512.667	20322.68
512.87	20902.25
513.072	21152.1
513.274	21905.76
513.477	22223.19
513.679	22585.68
513.881	23372.1
514.084	23767.36
514.286	24416.57
514.488	24672.56
514.69	25786.66
514.893	26222.87
515.095	26388.76
515.297	26771.73
515.499	27363.59
515.701	27855.11
515.904	29042.93
516.106	29311.21
516.308	29884.64
516.51	30761.17
516.712	31011.03
516.914	31869.12
517.116	32729.27
517.318	32829.62
517.52	33540.27
517.722	34031.78
517.925	34822.3
518.127	35815.56
518.329	36298.88
518.531	36219.01
518.733	37654.64
518.935	38264.93
519.136	38099.05
519.338	39315.54
519.54	39626.83
519.742	40470.59
519.944	41232.44
520.146	42055.72
520.348	42551.33
520.55	42848.28
520.752	43362.32
520.954	44296.2
521.155	44275.72
521.357	44994.56
521.559	45586.42
521.761	46387.17
521.963	46237.67
522.164	46958.56
522.366	47005.66
522.568	47661.01
522.77	48383.94
522.971	48551.88
523.173	48418.76
523.375	49162.17
523.576	49309.63
523.778	49932.21
523.98	50413.48
524.181	50405.29
524.383	50587.56
524.584	50679.72
524.786	50788.26
524.988	50669.48
525.189	51488.66
525.391	50821.03
525.592	51185.57
525.794	51613.59
525.995	51156.89
526.197	51410.84
526.398	51234.72
526.6	51318.68
526.801	51148.7
527.003	50861.99
527.204	51201.95
527.406	50966.43
527.607	50718.63
527.808	51013.54
528.01	49665.97
528.211	49944.5
528.412	50173.87
528.614	49526.71
528.815	49455.03
529.016	49706.93
529.218	48435.14
529.419	48181.2
529.62	47755.22
529.822	47151.07
530.023	46968.8
530.224	46573.54
530.425	46454.76
530.626	45498.36
530.828	44787.71
531.029	45027.32
531.23	44222.47
531.431	44087.31
531.632	43479.06
531.833	43495.44
532.035	42780.7
532.236	42244.13
532.437	41979.95
532.638	41123.9
532.839	41123.9
533.04	40319.04
533.241	39331.92
533.442	39508.05
533.643	38785.11
533.844	38248.55
534.045	38025.32
534.246	37138.55
534.447	36866.17
534.648	36067.46
534.849	35715.21
535.05	35633.29
535.251	35086.48
535.451	34441.37
535.652	34074.79
535.853	33575.08
536.054	33370.29
536.255	32471.23
536.456	31871.17
536.657	31953.09
536.857	31191.25
537.058	30834.9
537.259	30494.94
537.46	30339.29
537.66	29516.01
537.861	29657.32
538.062	28831.99
538.263	28952.82
538.463	28352.76
538.664	27754.76
538.865	27625.73
539.065	27445.51
539.266	26951.95
539.466	26786.07
539.667	26220.83
539.868	25905.44
540.068	25479.46
540.269	25125.16
540.469	24906.03
540.67	24570.16
540.87	24473.91
541.071	24117.56
541.271	23900.48
541.472	23800.13
541.672	23527.75
541.873	23109.96
542.073	22618.45
542.274	22706.51
542.474	22597.97
542.675	22077.79
542.875	21999.96
543.075	21453.16
543.276	21219.69
543.476	21295.46
543.676	20980.07
543.877	20941.16
544.077	20523.38
544.277	20214.13
544.478	19978.62
544.678	19874.17
544.878	19620.22
545.078	19337.6
545.279	18919.82
545.479	18499.98
545.679	18966.92
545.879	18198.93
546.079	18221.46
546.28	17975.7
546.48	17736.09
546.68	17775
546.88	17191.33
547.08	16939.43
547.28	16875.95
547.48	16626.09
547.68	16542.13
547.88	16437.68
548.081	16294.32
548.281	15933.88
548.481	15761.85
548.681	15743.42
548.881	15532.48
549.081	15030.73
549.28	14772.68
549.48	14752.2
549.68	14809.54
549.88	14539.21
550.08	14090.71
550.28	14268.88
550.48	13955.54
550.68	13844.95
550.88	13193.7
551.08	13212.13
551.279	13038.05
551.479	12741.1
551.679	12747.24
551.879	12444.14
552.079	12521.96
552.278	12165.62
552.478	12087.79
552.678	11813.37
552.878	11624.95
553.077	11348.48
553.277	11063.81
553.477	11190.78
553.676	11069.95
553.876	10897.92
554.076	10394.12
554.275	10400.27
554.475	10349.07
554.674	10191.38
554.874	10043.92
555.074	9706.01
555.273	9714.2
555.473	9454.11
555.672	9261.6
555.872	9249.31
556.071	9155.1
556.271	8985.12
556.47	8688.17
556.67	8473.13
556.869	8536.62
557.068	8413.74
557.268	8176.17
557.467	8063.54
557.667	8024.62
557.866	7754.29
558.065	7586.36
558.265	7418.43
558.464	7498.3
558.663	7332.41
558.863	7088.7
559.062	7197.24
559.261	6990.4
559.461	6971.97
559.66	6453.83
559.859	6613.57
560.058	6496.84
560.258	6339.15
560.457	6169.16
560.656	6406.73
560.855	6005.33
561.054	6060.62
561.253	6005.33
561.453	5743.19
561.652	5839.44
561.851	5710.42
562.05	5528.15
562.249	5401.18
562.448	5425.75
562.647	5358.17
562.846	5243.48
563.045	5126.75
563.244	5005.92
563.443	5050.97
563.642	4819.55
563.841	4860.51
564.04	4629.09
564.239	4686.44
564.438	4629.09
564.637	4543.08
564.836	4645.48
565.035	4563.56
565.234	4463.21
565.432	4301.42
565.631	4274.79
565.83	4166.25
566.029	4072.04
566.228	4022.89
566.427	4063.85
566.625	3850.86
566.824	3955.31
567.023	3822.19
567.222	3809.9
567.42	3834.48
567.619	3691.12
567.818	3641.97
568.016	3781.23
568.215	3605.11
568.414	3439.22
568.612	3367.54
568.811	3365.5
569.01	3224.19
569.208	3179.13
569.407	3269.24
569.605	3215.99
569.804	3068.54
570.002	3195.51
570.201	2955.9
570.4	3019.39
570.598	2853.5
570.797	2769.54
570.995	2787.97
571.193	2839.17
571.392	2804.35
571.59	2704
571.789	2675.33
571.987	2570.88
572.186	2765.44
572.384	2415.24
572.582	2445.96
572.781	2515.59
572.979	2439.81
573.177	2302.6
573.376	2306.7
573.574	2382.47
573.772	2374.28
573.971	2181.77
574.169	2146.95
574.367	2120.33
574.565	2155.15
574.763	2042.51
574.962	2177.67
575.16	1983.12
575.358	2048.65
575.556	1970.83
575.754	2126.47
575.952	1854.09
576.151	1942.16
576.349	1897.1
576.547	1671.83
576.745	1817.23
576.943	1794.7
577.141	1710.74
577.339	1710.74
577.537	1628.82
577.735	1655.44
577.933	1766.03
578.131	1606.29
578.329	1716.88
578.527	1479.32
578.725	1589.91
578.923	1436.31
579.121	1634.96
579.319	1360.53
579.516	1450.64
579.714	1696.4
579.912	1372.82
580.11	1338.01
580.308	1284.76
580.506	1211.03
580.704	1198.74
580.901	1256.09
581.099	1362.58
581.297	1231.51
581.495	1299.09
581.692	1266.33
581.89	1286.81
582.088	1227.42
582.285	1082.01
582.483	1049.24
582.681	1116.83
582.878	1088.15
583.076	1082.01
583.274	1041.05
583.471	1221.27
583.669	1041.05
583.866	1071.77
584.064	967.32
584.262	955.04
584.459	918.17
584.657	1008.28
584.854	987.8
585.052	957.08
585.249	891.55
585.447	969.37
585.644	799.39
585.841	932.51
586.039	948.89
586.236	932.51
586.434	848.54
586.631	803.49
586.828	866.97
587.026	768.67
587.223	725.66
587.42	748.19
587.618	897.69
587.815	848.54
588.012	840.35
588.21	768.67
588.407	807.58
588.604	770.72
588.801	701.09
588.999	805.53
589.196	764.58
589.393	656.03
589.59	803.49
589.787	615.07
589.984	676.51
590.182	789.15
590.379	656.03
590.576	625.31
590.773	694.94
590.97	692.9
591.167	729.76
591.364	699.04
591.561	637.6
591.758	748.19
591.955	694.94
592.152	656.03
592.349	631.46
592.546	610.98
592.743	565.92
592.94	598.69
593.137	629.41
593.334	756.38
593.531	758.43
593.727	658.08
593.924	696.99
594.121	660.13
594.318	615.07
594.515	651.94
594.712	703.14
594.908	826.01
595.105	651.94
595.302	783.01
595.499	703.14
595.696	879.26
595.892	604.83
596.089	809.63
596.286	615.07
596.482	844.45
596.679	778.91
596.876	688.8
597.072	850.59
597.269	836.25
597.466	969.37
597.662	881.31
597.859	852.64
598.055	905.88
598.252	993.95
598.448	1018.52
598.645	987.8
598.841	1051.29
599.038	1192.6
599.234	1149.59
599.431	1086.11
599.627	1245.85
599.824	1186.46
600.02	1278.62
600.217	1270.42
600.413	1338.01
600.609	1503.89
600.806	1645.2
601.002	1596.05
601.198	1432.21
601.395	1860.24
601.591	1671.83
601.787	1745.55
601.984	1888.91
602.18	1893.01
602.376	2052.75
602.572	2030.22
602.769	2165.39
602.965	2146.95
603.161	2306.7
603.357	2421.38
603.553	2429.57
603.75	2452.1
603.946	2599.56
604.142	2667.14
604.338	2978.43
604.534	2892.41
604.73	2908.8
604.926	3080.83
605.122	3365.5
605.318	3396.21
605.514	3433.08
605.71	3478.13
605.906	3613.3
606.102	3629.68
606.298	3963.5
606.494	3928.69
606.69	4026.99
606.886	4211.31
607.082	4209.26
607.278	4352.62
607.474	4399.72
607.67	4561.51
607.866	4741.73
608.062	5053.02
608.257	5034.59
608.453	5128.8
608.649	5341.79
608.845	5442.14
609.041	5548.63
609.236	5792.34
609.432	5861.97
609.628	6138.44
609.824	6298.19
610.019	6283.85
610.215	6586.95
610.411	6834.75
610.606	7029.31
610.802	7125.57
610.998	7373.37
611.193	7467.58
611.389	7604.79
611.584	7905.84
611.78	8016.43
611.976	8282.67
612.171	8614.44
612.367	8704.55
612.562	8716.84
612.758	9040.42
612.953	9314.84
613.149	9699.86
613.344	9888.28
613.539	10168.85
613.735	10263.05
613.93	10578.44
614.126	10881.54
614.321	11174.4
614.517	11540.99
614.712	11792.89
614.907	11743.74
615.103	12474.86
615.298	12790.25
615.493	13052.39
615.688	13036
615.884	14019.03
616.079	14131.67
616.274	14555.6
616.47	14701
616.665	14969.29
616.86	15585.72
617.055	16120.24
617.25	15980.98
617.445	16472.5
617.641	17113.51
617.836	17557.92
618.031	17637.79
618.226	18364.82
618.421	18786.7
618.616	19372.42
618.811	19612.03
619.006	20294.01
619.201	20316.53
619.396	21068.14
619.591	21377.38
619.786	21956.96
619.981	22147.42
620.176	22661.46
620.371	23042.38
620.566	23947.58
620.761	24117.56
620.956	24820.02
621.151	24832.3
621.346	25876.77
621.541	26106.14
621.735	26876.18
621.93	27253
622.125	27699.46
622.32	27728.13
622.515	28573.94
622.709	28860.66
622.904	29423.85
623.099	30161.12
623.294	30888.15
623.488	31189.2
623.683	31977.67
623.878	31676.62
624.072	32585.91
624.267	33552.55
624.462	33751.21
624.656	33593.51
624.851	34869.4
625.046	35156.11
625.24	35770.5
625.435	35899.53
625.629	36716.67
625.824	36948.09
626.018	37556.33
626.213	37320.82
626.407	38576.22
626.602	38408.29
626.796	39333.97
626.991	39553.1
627.185	39907.4
627.38	39786.57
627.574	40153.16
627.768	39995.46
627.963	40867.9
628.157	40669.25
628.352	41197.62
628.546	40759.36
628.74	41136.18
628.935	40616
629.129	41343.03
629.323	40503.36
629.517	40814.65
629.712	40271.94
629.906	40425.54
630.1	39821.39
630.294	39921.74
630.489	38842.46
630.683	39039.06
630.877	37941.35
631.071	37451.89
631.265	37079.16
631.459	36341.89
631.653	35504.27
631.848	34873.49
632.042	33847.46
632.236	33362.09
632.43	31887.56
632.624	31422.67
632.818	30378.2
633.012	29575.4
633.206	29022.45
633.4	28053.76
633.594	27031.82
633.788	26194.2
633.982	25600.29
634.176	24523.06
634.369	23576.9
634.563	22784.33
634.757	21510.5
634.951	21447.01
635.145	20523.38
635.339	19372.42
635.533	18796.94
635.726	18094.49
635.92	17201.57
636.114	16740.78
636.308	15876.54
636.501	15360.45
636.695	14662.09
636.889	13861.34
637.083	13421.02
637.276	12855.78
637.47	12177.9
637.664	12007.92
637.857	11739.64
638.051	11108.87
638.244	10467.85
638.438	9994.77
638.632	9771.54
638.825	9257.5
639.019	8987.17
639.212	8536.62
639.406	8448.55
639.599	7979.57
639.793	7580.22
639.986	7305.79
640.18	7012.93
640.373	6664.77
640.567	6486.6
640.76	6199.88
640.954	6099.53
641.147	5679.7
641.34	5376.6
641.534	5321.31
641.727	5100.12
641.92	4911.71
642.114	4809.31
642.307	4575.84
642.5	4356.71
642.694	4278.89
642.887	4078.19
643.08	4045.42
643.273	3826.29
643.467	3727.99
643.66	3525.24
643.853	3510.9
644.046	3109.5
644.239	3054.2
644.432	2888.32
644.626	2806.4
644.819	2851.46
645.012	2642.56
645.205	2597.51
645.398	2550.4
645.591	2372.23
645.784	2146.95
645.977	2167.43
646.17	2118.28
646.363	2017.93
646.556	1948.3
646.749	1817.23
646.942	1909.39
647.135	1784.46
647.328	1608.34
647.521	1602.19
647.714	1614.48
647.907	1467.03
648.099	1557.14
648.292	1428.12
648.485	1338.01
648.678	1292.95
648.871	1239.7
649.064	1233.56
649.256	1006.24
649.449	996
649.642	993.95
649.835	1026.72
650.027	905.88
650.22	1039
650.413	854.69
650.605	901.79
650.798	740
650.991	887.45
651.183	846.49
651.376	809.63
651.568	795.29
651.761	723.62
651.954	746.14
652.146	641.7
652.339	709.28
652.531	709.28
652.724	563.87
652.916	592.55
653.109	434.85
653.301	719.52
653.494	637.6
653.686	535.2
653.879	629.41
654.071	533.15
654.263	447.14
654.456	463.52
654.648	570.02
654.84	424.61
655.033	445.09
655.225	447.14
655.417	342.69
655.61	479.91
655.802	451.24
655.994	416.42
656.186	299.69
656.379	397.99
656.571	326.31
656.763	287.4
656.955	254.63
657.148	359.08
657.34	436.9
657.532	297.64
657.724	309.93
657.916	271.01
658.108	326.31
658.3	326.31
658.492	328.36
658.684	236.2
658.876	334.5
659.068	213.67
659.26	242.34
659.452	189.1
659.644	244.39
659.836	324.26
660.028	242.34
660.22	230.06
660.412	148.14
660.604	193.19
660.796	246.44
660.988	244.39
661.18	238.25
661.372	266.92
661.563	170.66
661.755	322.21
661.947	160.42
662.139	144.04
662.331	266.92
662.522	121.51
662.714	144.04
662.906	129.7
663.097	152.23
663.289	205.48
663.481	29.35
663.673	223.91
663.864	146.09
664.056	254.63
664.247	107.18
664.439	168.62
664.631	199.34
664.822	242.34
665.014	156.33
665.205	94.89
665.397	131.75
665.588	193.19
665.78	70.31
665.971	195.24
666.163	84.65
666.354	170.66
666.546	70.31
666.737	139.94
666.929	98.99
667.12	103.08
667.311	176.81
667.503	43.69
667.694	162.47
667.885	170.66
668.077	148.14
668.268	41.64
668.459	72.36
668.651	176.81
668.842	121.51
669.033	80.55
669.224	115.37
669.416	316.07
669.607	90.79
669.798	96.94
669.989	250.53
670.18	144.04
670.371	178.86
670.563	-13.65
670.754	148.14
670.945	86.7
671.136	262.82
671.327	96.94
671.518	180.9
671.709	213.67
671.9	182.95
672.091	209.58
672.282	105.13
672.473	62.12
672.664	98.99
672.855	113.32
673.046	148.14
673.237	250.53
673.428	88.75
673.619	115.37
673.809	166.57
674	203.43
674.191	168.62
674.382	180.9
674.573	119.46
674.764	109.23
674.954	246.44
675.145	35.5
675.336	129.7
675.527	115.37
675.717	131.75
675.908	111.27
676.099	141.99
676.289	189.1
676.48	17.07
676.671	203.43
676.861	141.99
677.052	215.72
677.243	111.27
677.433	158.38
677.624	230.06
677.814	185
678.005	164.52
678.195	277.16
678.386	137.9
678.576	162.47
678.767	66.22
678.957	193.19
679.148	217.77
679.338	242.34
679.529	213.67
679.719	111.27
679.909	225.96
680.1	164.52
680.29	236.2
680.481	68.27
680.671	271.01
680.861	105.13
681.052	193.19
681.242	236.2
681.432	205.48
681.622	197.29
681.813	129.7
682.003	185
682.193	193.19
682.383	228.01
682.573	234.15
682.764	182.95
682.954	189.1
683.144	299.69
683.334	176.81
683.524	250.53
683.714	139.94
683.904	209.58
684.094	213.67
684.284	191.14
684.474	344.74
684.664	311.97
684.854	225.96
685.044	217.77
685.234	262.82
685.424	240.3
685.614	187.05
685.804	350.89
685.994	187.05
686.184	271.01
686.374	195.24
686.564	137.9
686.753	201.38
686.943	119.46
687.133	205.48
687.323	228.01
687.513	340.65
687.702	207.53
687.892	240.3
688.082	281.25
688.272	246.44
688.461	287.4
688.651	361.13
688.841	199.34
689.03	170.66
689.22	203.43
689.41	258.73
689.599	264.87
689.789	213.67
689.979	254.63
690.168	164.52
690.358	213.67
690.547	180.9
690.737	213.67
690.926	238.25
691.116	281.25
691.305	221.86
691.495	240.3
691.684	137.9
691.874	154.28
692.063	197.29
692.252	293.54
692.442	187.05
692.631	215.72
692.82	168.62
693.01	180.9
693.199	242.34
693.388	211.62
693.578	187.05
693.767	283.3
693.956	201.38
694.146	182.95
694.335	258.73
694.524	98.99
694.713	180.9
694.902	217.77
695.092	172.71
695.281	268.97
695.47	115.37
695.659	152.23
695.848	193.19
696.037	223.91
696.226	281.25
696.415	234.15
696.604	305.83
696.793	172.71
696.982	219.82
697.171	303.78
697.36	152.23
697.549	195.24
697.738	66.22
697.927	197.29
698.116	111.27
698.305	273.06
698.494	170.66
698.683	82.6
698.872	336.55
699.061	260.77
699.25	137.9
699.438	139.94
699.627	180.9
699.816	414.37
700.005	105.13
700.193	246.44
700.382	291.49
700.571	166.57
700.76	221.86
700.948	205.48
701.137	187.05
701.326	240.3
701.514	113.32
701.703	219.82
701.892	131.75
702.08	324.26
702.269	148.14
702.457	193.19
702.646	193.19
702.834	201.38
703.023	279.21
703.212	301.73
703.4	217.77
703.589	209.58
703.777	248.49
703.965	86.7
704.154	174.76
704.342	127.66
704.531	115.37
704.719	178.86
704.907	318.12
705.096	98.99
705.284	117.42
705.472	230.06
705.661	228.01
705.849	299.69
706.037	209.58
706.226	248.49
706.414	250.53
706.602	191.14
706.79	191.14
706.979	60.07
707.167	172.71
707.355	141.99
707.543	244.39
707.731	258.73
707.919	160.42
708.107	166.57
708.296	172.71
708.484	111.27
708.672	182.95
708.86	178.86
709.048	185
709.236	185
709.424	230.06
709.612	248.49
709.8	90.79
709.988	162.47
710.176	215.72
710.364	217.77
710.551	228.01
710.739	258.73
710.927	121.51
711.115	207.53
711.303	221.86
711.491	283.3
711.679	62.12
711.866	221.86
712.054	135.85
712.242	250.53
712.43	287.4
712.617	168.62
712.805	271.01
712.993	221.86
713.181	82.6
713.368	281.25
713.556	250.53
713.744	137.9
713.931	336.55
714.119	281.25
714.306	168.62
714.494	107.18
714.682	273.06
714.869	131.75
715.057	189.1
715.244	164.52
715.432	262.82
715.619	115.37
715.807	211.62
715.994	156.33
716.182	191.14
716.369	273.06
716.556	217.77
716.744	107.18
716.931	33.45
717.119	295.59
717.306	232.1
717.493	213.67
717.681	144.04
717.868	217.77
718.055	236.2
718.242	105.13
718.43	303.78
718.617	350.89
718.804	113.32
718.991	299.69
719.179	246.44
719.366	271.01
719.553	221.86
719.74	193.19
719.927	172.71
720.114	199.34
720.301	152.23
720.488	156.33
720.676	84.65
720.863	240.3
721.05	307.88
721.237	219.82
721.424	305.83
721.611	240.3
721.798	215.72
721.985	213.67
722.172	199.34
722.358	354.98
722.545	264.87
722.732	221.86
722.919	277.16
723.106	287.4
723.293	185
723.48	344.74
723.667	271.01
723.853	334.5
724.04	334.5
724.227	285.35
724.414	172.71
724.6	266.92
724.787	326.31
724.974	397.99
725.161	275.11
725.347	178.86
725.534	250.53
725.72	205.48
725.907	373.41
726.094	266.92
726.28	203.43
726.467	242.34
726.653	148.14
726.84	287.4
727.027	369.32
727.213	262.82
727.4	324.26
727.586	373.41
727.773	379.56
727.959	230.06
728.145	350.89
728.332	246.44
728.518	244.39
728.705	352.93
728.891	311.97
729.077	279.21
729.264	197.29
729.45	285.35
729.636	338.6
729.823	289.45
730.009	367.27
730.195	289.45
730.382	379.56
730.568	201.38
730.754	293.54
730.94	264.87
731.126	309.93
731.313	346.79
731.499	193.19
731.685	309.93
731.871	303.78
732.057	287.4
732.243	369.32
732.429	299.69
732.615	369.32
732.801	307.88
732.987	275.11
733.173	266.92
733.359	309.93
733.545	279.21
733.731	320.17
733.917	379.56
734.103	311.97
734.289	283.3
734.475	260.77
734.661	416.42
734.847	342.69
735.033	311.97
735.219	441
735.404	213.67
735.59	268.97
735.776	299.69
735.962	320.17
736.148	332.45
736.333	365.22
736.519	277.16
736.705	217.77
736.89	295.59
737.076	246.44
737.262	230.06
737.447	219.82
737.633	309.93
737.819	389.8
738.004	250.53
738.19	283.3
738.375	377.51
738.561	352.93
738.747	223.91
738.932	248.49
739.118	369.32
739.303	307.88
739.489	291.49
739.674	271.01
739.859	316.07
740.045	307.88
740.23	322.21
740.416	144.04
740.601	373.41
740.786	352.93
740.972	285.35
741.157	199.34
741.342	303.78
741.528	299.69
741.713	340.65
741.898	328.36
742.084	260.77
742.269	293.54
742.454	271.01
742.639	287.4
742.824	311.97
743.01	365.22
743.195	385.7
743.38	309.93
743.565	266.92
743.75	371.37
743.935	332.45
744.12	391.84
744.305	293.54
744.49	268.97
744.675	254.63
744.86	254.63
745.045	365.22
745.23	340.65
745.415	250.53
745.6	424.61
745.785	221.86
745.97	344.74
746.155	307.88
746.34	395.94
746.525	344.74
746.71	367.27
746.895	164.52
747.079	287.4
747.264	309.93
747.449	332.45
747.634	320.17
747.819	295.59
748.003	301.73
748.188	185
748.373	365.22
748.557	193.19
748.742	250.53
748.927	219.82
749.111	195.24
749.296	260.77
749.481	357.03
749.665	271.01
749.85	217.77
750.034	252.58
750.219	199.34
750.404	309.93
750.588	221.86
750.773	201.38
750.957	201.38
751.141	275.11
751.326	217.77
751.51	182.95
751.695	234.15
751.879	264.87
752.064	316.07
752.248	283.3
752.432	279.21
752.617	309.93
752.801	316.07
752.985	150.18
753.17	301.73
753.354	254.63
753.538	268.97
753.722	127.66
753.907	244.39
754.091	150.18
754.275	254.63
754.459	55.98
754.643	166.57
754.828	219.82
755.012	303.78
755.196	123.56
755.38	197.29
755.564	193.19
755.748	172.71
755.932	250.53
756.116	213.67
756.3	262.82
756.484	135.85
756.668	205.48
756.852	199.34
757.036	168.62
757.22	254.63
757.404	78.51
757.588	82.6
757.772	121.51
757.956	158.38
758.14	242.34
758.323	94.89
758.507	199.34
758.691	193.19
758.875	248.49
759.059	205.48
759.242	141.99
759.426	189.1
759.61	246.44
759.794	164.52
759.977	162.47
760.161	354.98
760.345	219.82
760.528	258.73
760.712	127.66
760.895	209.58
761.079	187.05
761.263	105.13
761.446	166.57
761.63	101.03
761.813	238.25
761.997	53.93
762.18	127.66
762.364	172.71
762.547	80.55
762.731	146.09
762.914	111.27
763.098	109.23
763.281	164.52
763.464	64.17
763.648	127.66
763.831	129.7
764.015	96.94
764.198	201.38
764.381	107.18
764.564	58.03
764.748	195.24
764.931	113.32
765.114	141.99
765.297	230.06
765.481	98.99
765.664	125.61
765.847	170.66
766.03	205.48
766.213	78.51
766.397	121.51
766.58	111.27
766.763	152.23
766.946	86.7
767.129	101.03
767.312	41.64
767.495	4.78
767.678	45.74
767.861	162.47
768.044	250.53
768.227	101.03
768.41	96.94
768.593	117.42
768.776	148.14
768.959	96.94
769.142	213.67
769.324	162.47
769.507	115.37
769.69	80.55
769.873	146.09
770.056	228.01
770.239	33.45
770.421	215.72
770.604	141.99
770.787	62.12
770.97	86.7
771.152	45.74
771.335	98.99
771.518	-7.51
771.7	152.23
771.883	129.7
772.066	125.61
772.248	121.51
772.431	189.1
772.613	164.52
772.796	96.94
772.978	33.45
773.161	197.29
773.343	115.37
773.526	58.03
773.708	-19.8
773.891	51.88
774.073	84.65
774.256	31.4
774.438	264.87
774.621	82.6
774.803	109.23
774.985	23.21
775.168	125.61
775.35	74.41
775.532	146.09
775.715	10.92
775.897	139.94
776.079	55.98
776.261	86.7
776.444	131.75
776.626	86.7
776.808	98.99
776.99	47.79
777.173	49.83
777.355	31.4
777.537	37.55
777.719	62.12
777.901	-17.75
778.083	66.22
778.265	-56.66
778.447	119.46
778.629	15.02
778.811	162.47
778.993	80.55
779.175	150.18
779.357	94.89
779.539	-77.14
779.721	64.17
779.903	164.52
780.085	33.45
780.267	98.99
780.449	111.27
780.631	66.22
780.812	117.42
780.994	41.64
781.176	-32.08
781.358	58.03
781.54	-11.61
781.721	53.93
781.903	94.89
782.085	55.98
782.267	109.23
782.448	-64.85
782.63	31.4
782.812	19.11
782.993	49.83
783.175	23.21
783.357	2.73
783.538	70.31
783.72	41.64
783.901	74.41
784.083	29.35
784.264	78.51
784.446	12.97
784.627	4.78
784.809	15.02
784.99	-19.8
785.172	94.89
785.353	53.93
785.535	-23.89
785.716	39.59
785.897	-27.99
786.079	86.7
786.26	49.83
786.441	66.22
786.623	-9.56
786.804	55.98
786.985	74.41
787.167	107.18
787.348	60.07
787.529	21.16
787.71	156.33
787.891	58.03
788.073	-9.56
788.254	-5.46
788.435	139.94
788.616	53.93
788.797	-66.9
788.978	10.92
789.159	17.07
789.34	58.03
789.522	-19.8
789.703	-34.13
789.884	66.22
790.065	76.46
790.246	103.08
790.427	21.16
790.607	80.55
790.788	84.65
790.969	-85.33
791.15	84.65
791.331	4.78
791.512	41.64
791.693	4.78
791.874	0.68
792.054	193.19
792.235	60.07
792.416	-64.85
792.597	-30.04
792.778	121.51
792.958	0.68
793.139	41.64
793.32	76.46
793.5	-23.89
793.681	176.81
793.862	49.83
794.042	-7.51
794.223	25.26
794.404	4.78
794.584	-11.61
794.765	4.78
794.945	-71
795.126	-11.61
795.306	119.46
795.487	6.83
795.667	45.74
795.848	27.31
796.028	10.92
796.209	25.26
796.389	-1.37
796.57	62.12
796.75	-40.28
796.93	-1.37
797.111	60.07
797.291	-9.56
797.471	41.64
797.652	25.26
797.832	-21.84
798.012	166.57
798.192	4.78
798.373	-56.66
798.553	45.74
798.733	49.83
798.913	-73.04
799.093	-30.04
799.274	29.35
799.454	123.56
799.634	58.03
799.814	66.22
799.994	55.98
800.174	29.35
800.354	-23.89
800.534	-54.61
800.714	119.46
800.894	-66.9
801.074	-32.08
801.254	39.59
801.434	131.75
801.614	15.02
801.794	-7.51
801.974	1745.55
802.154	21.16
802.334	-3.41
802.514	4.78
802.693	-25.94
802.873	-11.61
803.053	144.04
803.233	-7.51
803.413	-38.23
803.592	-48.47
803.772	-52.56
803.952	-1.37
804.131	-99.67
804.311	2.73
804.491	76.46
804.67	-27.99
804.85	-34.13
805.03	78.51
805.209	123.56
805.389	-64.85
805.568	-13.65
805.748	-60.76
805.928	-17.75
806.107	80.55
806.287	31.4
806.466	-25.94
806.646	-34.13
806.825	33.45
807.004	49.83
807.184	10.92
807.363	86.7
807.543	-48.47
807.722	-34.13
807.901	62.12
808.081	88.75
808.26	-107.86
808.439	-1.37
808.619	-40.28
808.798	-60.76
808.977	-11.61
809.156	58.03
809.336	37.55
809.515	88.75
809.694	-32.08
809.873	-48.47
810.052	74.41
810.231	27.31
810.411	-3.41
810.59	84.65
810.769	-48.47
810.948	70.31
811.127	-150.87
811.306	-52.56
811.485	-21.84
811.664	68.27
811.843	-30.04
812.022	19.11
812.201	0.68
812.38	31.4
812.559	4.78
812.737	74.41
812.916	-64.85
813.095	-99.67
813.274	-1.37
813.453	-60.76
813.632	47.79
813.811	31.4
813.989	-64.85
814.168	-13.65
814.347	-73.04
814.526	-7.51
814.704	17.07
814.883	119.46
815.062	-25.94
815.24	45.74
815.419	-58.71
815.598	78.51
815.776	-95.57
815.955	-71
816.133	-89.43
816.312	51.88
816.49	8.87
816.669	72.36
816.847	25.26
817.026	12.97
817.204	-85.33
817.383	-34.13
817.561	-42.32
817.74	-25.94
817.918	25.26
818.097	-15.7
818.275	-48.47
818.453	41.64
818.632	33.45
818.81	-1.37
818.988	-23.89
819.167	29.35
819.345	-23.89
819.523	12.97
819.701	-19.8
819.879	6.83
820.058	72.36
820.236	58.03
820.414	-17.75
820.592	68.27
820.77	15.02
820.948	-36.18
821.127	2.73
821.305	17.07
821.483	-73.04
821.661	-3.41
821.839	23.21
822.017	29.35
822.195	-81.24
822.373	74.41
822.551	43.69
822.729	49.83
822.907	53.93
823.085	4.78
823.262	37.55
823.44	-79.19
823.618	-77.14
823.796	-3.41
823.974	-64.85
824.152	-64.85
824.329	39.59
824.507	62.12
824.685	-23.89
824.863	-87.38
825.04	4.78
825.218	39.59
825.396	21.16
825.574	-42.32
825.751	-7.51
825.929	17.07
826.107	-19.8
826.284	-19.8
826.462	103.08
826.639	-9.56
826.817	-46.42
826.994	35.5
827.172	-36.18
827.349	111.27
827.527	49.83
827.704	27.31
827.882	111.27
828.059	23.21
828.237	-50.52
828.414	23.21
828.591	-87.38
828.769	17.07
828.946	-68.95
829.124	33.45
829.301	92.84
829.478	-56.66
829.655	31.4
829.833	-21.84
830.01	-179.54
830.187	-3.41
830.364	-58.71
830.542	33.45
830.719	94.89
830.896	-1.37
831.073	35.5
831.25	2.73
831.427	0.68
831.604	4.78
831.782	-99.67
831.959	107.18
832.136	31.4
832.313	33.45
832.49	-15.7
832.667	-30.04
832.844	-66.9
833.021	21.16
833.198	21.16
833.374	-58.71
833.551	72.36
833.728	-5.46
833.905	53.93
834.082	-179.54
834.259	41.64
834.436	70.31
834.612	-89.43
834.789	64.17
834.966	-40.28
835.143	10.92
835.319	-40.28
835.496	-3.41
835.673	6.83
835.85	-66.9
836.026	29.35
836.203	10.92
836.38	-79.19
836.556	-75.09
836.733	-56.66
836.909	129.7
837.086	-17.75
837.262	-56.66
837.439	-48.47
837.616	-40.28
837.792	-64.85
837.968	21.16
838.145	-99.67
838.321	-7.51
838.498	96.94
838.674	35.5
838.851	33.45
839.027	-52.56
839.203	-1.37
839.38	45.74
839.556	-48.47
839.732	41.64
839.909	-32.08
840.085	12.97
840.261	-120.15
840.437	-15.7
840.614	10.92
840.79	17.07
840.966	21.16
841.142	-7.51
841.318	-3.41
841.494	8.87
841.671	4.78
841.847	8.87
842.023	-138.58
842.199	-19.8
842.375	15.02
842.551	-111.96
842.727	25.26
842.903	53.93
843.079	-124.24
843.255	74.41
843.431	-44.37
843.607	64.17
843.783	-167.25
843.959	25.26
844.134	-46.42
844.31	-5.46
844.486	-64.85
844.662	-34.13
844.838	12.97
845.013	-58.71
845.189	29.35
845.365	-3.41
845.541	37.55
845.716	-25.94
845.892	39.59
846.068	25.26
846.244	2.73
846.419	-32.08
846.595	-60.76
846.77	35.5
846.946	88.75
847.122	17.07
847.297	-13.65
847.473	31.4
847.648	-83.28
847.824	-44.37
847.999	-130.39
848.175	6.83
848.35	17.07
848.526	64.17
848.701	8.87
848.876	31.4
849.052	115.37
849.227	45.74
849.403	-15.7
849.578	45.74
849.753	4.78
849.929	45.74
850.104	-109.91
850.279	-48.47
850.454	-9.56
850.63	-40.28
850.805	-36.18
850.98	-85.33
851.155	-27.99
851.33	47.79
851.505	-64.85
851.681	98.99
851.856	-46.42
852.031	33.45
852.206	6.83
852.381	33.45
852.556	-75.09
852.731	-3.41
852.906	4.78
853.081	-5.46
853.256	78.51
853.431	-11.61
853.606	-101.72
853.781	-44.37
853.956	-99.67
854.131	-11.61
854.305	-50.52
854.48	19.11
854.655	-114
854.83	-73.04
855.005	-48.47
855.18	27.31
855.354	-73.04
855.529	0.68
855.704	-3.41
855.879	25.26
856.053	-44.37
856.228	-19.8
856.403	-58.71
856.577	47.79
856.752	-146.77
856.926	-11.61
857.101	-60.76
857.276	-7.51
857.45	45.74
857.625	53.93
857.799	-13.65
857.974	-64.85
858.148	-15.7
858.323	0.68
858.497	8.87
858.672	-52.56
858.846	-56.66
859.02	15.02
859.195	-68.95
859.369	17.07
859.543	-19.8
859.718	-38.23
859.892	-7.51
860.066	-5.46
860.241	47.79
860.415	-77.14
860.589	-15.7
860.763	25.26
860.938	-17.75
861.112	23.21
861.286	-64.85
861.46	31.4
861.634	25.26
861.808	66.22
861.982	-124.24
862.157	-103.76
862.331	-64.85
862.505	-91.48
862.679	-138.58
862.853	-66.9
863.027	-81.24
863.201	55.98
863.375	29.35
863.549	-1.37
863.722	49.83
863.896	29.35
864.07	-7.51
864.244	-58.71
864.418	64.17
864.592	-5.46
864.766	31.4
864.939	-40.28
865.113	-87.38
865.287	25.26
865.461	-50.52
865.634	-58.71
865.808	37.55
865.982	-64.85
866.156	-40.28
866.329	-30.04
866.503	-56.66
866.676	64.17
866.85	39.59
867.024	-9.56
867.197	64.17
867.371	19.11
867.544	101.03
867.718	-83.28
867.891	-17.75
868.065	-60.76
868.238	-7.51
868.412	60.07
868.585	0.68
868.759	-23.89
868.932	-42.32
869.105	-89.43
869.279	0.68
869.452	-75.09
869.625	49.83
869.799	-77.14
869.972	-130.39
870.145	-50.52
870.319	-15.7
870.492	-103.76
870.665	8.87
870.838	-32.08
871.011	-173.39
871.185	-48.47
871.358	-36.18
871.531	2.73
871.704	-40.28
871.877	62.12
872.05	-36.18
872.223	-89.43
872.396	41.64
872.569	74.41
872.742	-118.1
872.915	-25.94
873.088	-73.04
873.261	-56.66
873.434	58.03
873.607	-89.43
873.78	103.08
873.953	-130.39
874.126	45.74
874.299	17.07
874.471	6.83
874.644	-79.19
874.817	-52.56
874.99	172.71
875.163	-99.67
875.335	70.31
875.508	-58.71
875.681	68.27
875.853	0.68
876.026	-9.56
876.199	51.88
876.371	19.11
876.544	37.55
876.717	-66.9
876.889	-32.08
877.062	15.02
877.234	-77.14
877.407	-21.84
877.579	-27.99
877.752	31.4
877.924	33.45
878.097	-58.71
878.269	-7.51
878.442	25.26
878.614	-7.51
878.786	-52.56
878.959	-3.41
879.131	-83.28
879.303	-1.37
879.476	35.5
879.648	2.73
879.82	17.07
879.993	8.87
880.165	-64.85
880.337	-46.42
880.509	-36.18
880.681	-58.71
880.854	-73.04
881.026	17.07
881.198	105.13
881.37	-48.47
881.542	-13.65
881.714	-36.18
881.886	-32.08
882.058	-40.28
882.23	-3.41
882.402	-19.8
882.574	12.97
882.746	-38.23
882.918	141.99
883.09	0.68
883.262	-38.23
883.434	19.11
883.606	-114
883.778	-32.08
883.95	119.46
884.122	-32.08
884.293	8.87
884.465	-27.99
884.637	37.55
884.809	-7.51
884.98	12.97
885.152	-15.7
885.324	31.4
885.496	-97.62
885.667	-75.09
885.839	-79.19
886.011	96.94
886.182	-25.94
886.354	74.41
886.525	-64.85
886.697	92.84
886.869	-114
887.04	-54.61
887.212	51.88
887.383	119.46
887.555	-23.89
887.726	-32.08
887.897	-73.04
888.069	-34.13
888.24	0.68
888.412	58.03
888.583	25.26
888.754	-3.41
888.926	-142.68
889.097	33.45
889.268	-56.66
889.44	-17.75
889.611	-101.72
889.782	-11.61
889.953	-58.71
890.125	47.79
890.296	-116.05
890.467	-15.7
890.638	-111.96
890.809	-25.94
890.98	-75.09
891.151	51.88
891.323	25.26
891.494	39.59
891.665	-68.95
891.836	-32.08
892.007	-11.61
892.178	4.78
892.349	-56.66
892.52	-42.32
892.691	-46.42
892.862	-21.84
893.032	-17.75
893.203	8.87
893.374	-21.84
893.545	0.68
893.716	-11.61
893.887	51.88
894.057	17.07
894.228	45.74
894.399	-5.46
894.57	66.22
894.74	-34.13
894.911	-27.99
895.082	-21.84
895.253	-89.43
895.423	-19.8
895.594	43.69
895.764	29.35
895.935	-62.8
896.106	25.26
896.276	-105.81
896.447	10.92
896.617	35.5
896.788	-19.8
896.958	-114
897.129	-83.28
897.299	-52.56
897.47	107.18
897.64	-17.75
897.81	-73.04
897.981	-15.7
898.151	0.68
898.322	4.78
898.492	37.55
898.662	-81.24
898.832	21.16
899.003	-25.94
899.173	12.97
899.343	-99.67
899.513	-3.41
