Data from USB4F104151__58__10-26-16-928.txt Node

Date: Wed Feb 26 10:26:16 EST 2025
User: louis
Spectrometer: USB4F10415
Trigger mode: 4
Integration Time (sec): 1.000000E-1
Scans to average: 1
Electric dark correction enabled: true
Nonlinearity correction enabled: false
Boxcar width: 0
XAxis mode: Wavelengths
Number of Pixels in Spectrum: 3648
>>>>>Begin Spectral Data<<<<<
178.204	-393.89
178.424	-393.89
178.644	-393.89
178.864	-383.65
179.084	-430.76
179.304	-21.16
179.524	-25.26
179.744	25.94
179.964	42.32
180.184	3.41
180.404	42.32
180.624	-19.11
180.844	19.8
181.064	-135.85
181.283	-25.26
181.503	-2.73
181.723	95.57
181.943	-158.38
182.163	202.07
182.383	23.89
182.602	79.19
182.822	193.87
183.042	79.19
183.262	-4.78
183.482	-23.21
183.701	48.47
183.921	32.08
184.141	-88.75
184.361	161.11
184.58	44.37
184.8	62.8
185.02	-47.79
185.239	97.62
185.459	46.42
185.679	152.92
185.898	-129.7
186.118	-17.07
186.338	116.05
186.557	136.53
186.777	-47.79
186.997	-6.83
187.216	132.44
187.436	206.16
187.655	30.04
187.875	163.15
188.095	11.61
188.314	111.96
188.534	118.1
188.753	-27.31
188.973	48.47
189.192	159.06
189.412	36.18
189.631	-51.88
189.851	161.11
190.07	146.77
190.29	11.61
190.509	13.65
190.729	48.47
190.948	136.53
191.168	152.92
191.387	71
191.607	-15.02
191.826	120.15
192.045	34.13
192.265	68.95
192.484	105.81
192.704	-2.73
192.923	-33.45
193.142	146.77
193.362	99.67
193.581	95.57
193.8	54.61
194.02	195.92
194.239	36.18
194.458	161.11
194.678	105.81
194.897	-0.68
195.116	105.81
195.335	58.71
195.555	79.19
195.774	64.85
195.993	99.67
196.212	56.66
196.432	58.71
196.651	-39.59
196.87	15.7
197.089	243.03
197.308	42.32
197.528	50.52
197.747	-74.41
197.966	-49.83
198.185	132.44
198.404	64.85
198.623	105.81
198.842	103.76
199.062	95.57
199.281	134.48
199.5	54.61
199.719	107.86
199.938	27.99
200.157	130.39
200.376	142.68
200.595	128.34
200.814	83.28
201.033	-47.79
201.252	122.2
201.471	44.37
201.69	75.09
201.909	21.85
202.128	95.57
202.347	111.96
202.566	27.99
202.785	-66.22
203.004	-33.45
203.223	236.88
203.442	23.89
203.661	-33.45
203.879	50.52
204.098	105.81
204.317	-0.68
204.536	183.63
204.755	97.62
204.974	93.52
205.193	-33.45
205.411	66.9
205.63	126.29
205.849	87.38
206.068	40.28
206.287	-15.02
206.505	204.11
206.724	105.81
206.943	15.7
207.162	-60.07
207.381	36.18
207.599	62.8
207.818	71
208.037	-45.74
208.255	42.32
208.474	54.61
208.693	19.8
208.911	-17.07
209.13	50.52
209.349	111.96
209.567	27.99
209.786	132.44
210.005	30.04
210.223	36.18
210.442	-47.79
210.661	91.48
210.879	97.62
211.098	-31.4
211.316	87.38
211.535	46.42
211.753	58.71
211.972	11.61
212.191	30.04
212.409	9.56
212.628	148.82
212.846	9.56
213.065	97.62
213.283	132.44
213.502	25.94
213.72	134.48
213.938	103.76
214.157	71
214.375	157.01
214.594	27.99
214.812	132.44
215.031	27.99
215.249	-27.31
215.467	56.66
215.686	60.76
215.904	56.66
216.122	38.23
216.341	173.39
216.559	42.32
216.778	154.96
216.996	83.28
217.214	3.41
217.432	64.85
217.651	-17.07
217.869	132.44
218.087	19.8
218.306	11.61
218.524	15.7
218.742	-19.11
218.96	111.96
219.179	79.19
219.397	83.28
219.615	245.07
219.833	52.56
220.051	7.51
220.27	103.76
220.488	91.48
220.706	126.29
220.924	11.61
221.142	-51.88
221.36	68.95
221.578	128.34
221.796	44.37
222.015	71
222.233	73.04
222.451	189.78
222.669	-84.65
222.887	66.9
223.105	42.32
223.323	1.37
223.541	-15.02
223.759	30.04
223.977	1.37
224.195	206.16
224.413	48.47
224.631	13.65
224.849	27.99
225.067	193.87
225.285	97.62
225.503	13.65
225.721	-17.07
225.939	81.24
226.157	66.9
226.375	210.26
226.592	-17.07
226.81	107.86
227.028	134.48
227.246	138.58
227.464	71
227.682	154.96
227.9	19.8
228.117	50.52
228.335	77.14
228.553	44.37
228.771	-17.07
228.989	99.67
229.206	99.67
229.424	42.32
229.642	-12.97
229.86	-33.45
230.077	148.82
230.295	3.41
230.513	107.86
230.731	103.76
230.948	79.19
231.166	193.87
231.384	32.08
231.601	5.46
231.819	161.11
232.037	3.41
232.254	5.46
232.472	27.99
232.689	-23.21
232.907	107.86
233.125	7.51
233.342	-29.35
233.56	-12.97
233.777	-31.4
233.995	32.08
234.213	85.33
234.43	118.1
234.648	23.89
234.865	30.04
235.083	32.08
235.3	-29.35
235.518	52.56
235.735	148.82
235.953	140.63
236.17	81.24
236.388	19.8
236.605	58.71
236.822	77.14
237.04	152.92
237.257	46.42
237.475	-58.03
237.692	30.04
237.909	50.52
238.127	-6.83
238.344	109.91
238.562	66.9
238.779	-8.87
238.996	32.08
239.214	73.04
239.431	99.67
239.648	66.9
239.865	56.66
240.083	87.38
240.3	-82.6
240.517	13.65
240.735	-0.68
240.952	116.05
241.169	99.67
241.386	71
241.603	83.28
241.821	-10.92
242.038	105.81
242.255	105.81
242.472	-66.22
242.689	46.42
242.907	77.14
243.124	103.76
243.341	52.56
243.558	36.18
243.775	-51.88
243.992	-4.78
244.209	85.33
244.426	173.39
244.643	87.38
244.86	3.41
245.078	56.66
245.295	15.7
245.512	25.94
245.729	-8.87
245.946	114
246.163	32.08
246.38	5.46
246.597	71
246.814	50.52
247.031	19.8
247.248	17.75
247.464	93.52
247.681	79.19
247.898	142.68
248.115	91.48
248.332	46.42
248.549	103.76
248.766	216.4
248.983	23.89
249.2	54.61
249.417	87.38
249.633	105.81
249.85	56.66
250.067	68.95
250.284	103.76
250.501	103.76
250.717	148.82
250.934	-17.07
251.151	56.66
251.368	58.71
251.585	71
251.801	-6.83
252.018	-39.59
252.235	68.95
252.451	-68.27
252.668	27.99
252.885	173.39
253.102	71
253.318	64.85
253.535	-6.83
253.752	50.52
253.968	-10.92
254.185	-8.87
254.401	3.41
254.618	138.58
254.835	48.47
255.051	52.56
255.268	132.44
255.484	58.71
255.701	34.13
255.917	52.56
256.134	-37.55
256.351	25.94
256.567	-41.64
256.784	68.95
257	-0.68
257.217	62.8
257.433	54.61
257.65	87.38
257.866	95.57
258.082	3.41
258.299	-27.31
258.515	109.91
258.732	1.37
258.948	13.65
259.165	40.28
259.381	36.18
259.597	17.75
259.814	85.33
260.03	9.56
260.246	42.32
260.463	75.09
260.679	136.53
260.895	107.86
261.112	62.8
261.328	68.95
261.544	-6.83
261.761	261.46
261.977	-47.79
262.193	21.85
262.409	101.72
262.626	99.67
262.842	27.99
263.058	-76.46
263.274	42.32
263.49	85.33
263.707	101.72
263.923	79.19
264.139	-19.11
264.355	91.48
264.571	148.82
264.787	122.2
265.004	154.96
265.22	30.04
265.436	44.37
265.652	-33.45
265.868	109.91
266.084	-31.4
266.3	38.23
266.516	-68.27
266.732	46.42
266.948	-10.92
267.164	15.7
267.38	138.58
267.596	23.89
267.812	187.73
268.028	62.8
268.244	13.65
268.46	-19.11
268.676	32.08
268.892	48.47
269.108	-41.64
269.324	-66.22
269.54	-68.27
269.756	140.63
269.972	-49.83
270.188	95.57
270.403	-53.93
270.619	17.75
270.835	107.86
271.051	73.04
271.267	-25.26
271.483	-19.11
271.698	30.04
271.914	68.95
272.13	1.37
272.346	9.56
272.562	105.81
272.777	114
272.993	-0.68
273.209	9.56
273.425	101.72
273.64	-74.41
273.856	81.24
274.072	3.41
274.287	58.71
274.503	142.68
274.719	91.48
274.934	23.89
275.15	-90.79
275.366	40.28
275.581	19.8
275.797	27.99
276.012	30.04
276.228	15.7
276.444	79.19
276.659	177.49
276.875	62.8
277.09	73.04
277.306	-23.21
277.521	56.66
277.737	124.24
277.952	95.57
278.168	120.15
278.383	130.39
278.599	21.85
278.814	111.96
279.03	11.61
279.245	116.05
279.461	15.7
279.676	124.24
279.892	21.85
280.107	-0.68
280.322	-64.17
280.538	144.72
280.753	-27.31
280.969	42.32
281.184	56.66
281.399	191.83
281.615	48.47
281.83	56.66
282.045	-21.16
282.26	-37.55
282.476	124.24
282.691	52.56
282.906	60.76
283.122	15.7
283.337	52.56
283.552	54.61
283.767	-49.83
283.983	116.05
284.198	64.85
284.413	95.57
284.628	-174.76
284.843	52.56
285.058	93.52
285.274	11.61
285.489	7.51
285.704	105.81
285.919	-45.74
286.134	-17.07
286.349	-0.68
286.564	-21.16
286.779	179.54
286.995	-12.97
287.21	-78.51
287.425	46.42
287.64	62.8
287.855	75.09
288.07	-25.26
288.285	175.44
288.5	220.5
288.715	85.33
288.93	27.99
289.145	-12.97
289.36	120.15
289.575	95.57
289.79	114
290.004	15.7
290.219	83.28
290.434	34.13
290.649	1.37
290.864	-4.78
291.079	19.8
291.294	134.48
291.509	101.72
291.724	30.04
291.938	-15.02
292.153	118.1
292.368	30.04
292.583	60.76
292.798	107.86
293.012	101.72
293.227	116.05
293.442	25.94
293.657	38.23
293.871	150.87
294.086	64.85
294.301	224.59
294.516	167.25
294.73	81.24
294.945	-51.88
295.16	-6.83
295.374	144.72
295.589	126.29
295.804	-74.41
296.018	38.23
296.233	95.57
296.447	7.51
296.662	5.46
296.877	103.76
297.091	126.29
297.306	34.13
297.52	81.24
297.735	91.48
297.949	75.09
298.164	103.76
298.378	11.61
298.593	42.32
298.807	-45.74
299.022	-60.07
299.236	64.85
299.451	-60.07
299.665	-4.78
299.88	38.23
300.094	62.8
300.309	114
300.523	56.66
300.737	52.56
300.952	71
301.166	79.19
301.381	-47.79
301.595	-53.93
301.809	-6.83
302.024	52.56
302.238	-15.02
302.452	167.25
302.667	50.52
302.881	189.78
303.095	66.9
303.309	91.48
303.524	21.85
303.738	3.41
303.952	-19.11
304.166	56.66
304.381	-43.69
304.595	118.1
304.809	-23.21
305.023	38.23
305.237	11.61
305.452	-19.11
305.666	107.86
305.88	60.76
306.094	107.86
306.308	107.86
306.522	75.09
306.736	130.39
306.95	52.56
307.164	56.66
307.379	19.8
307.593	159.06
307.807	111.96
308.021	109.91
308.235	107.86
308.449	23.89
308.663	19.8
308.877	148.82
309.091	105.81
309.305	81.24
309.519	-64.17
309.733	124.24
309.947	-76.46
310.161	21.85
310.374	116.05
310.588	144.72
310.802	-88.75
311.016	48.47
311.23	48.47
311.444	34.13
311.658	27.99
311.872	75.09
312.085	150.87
312.299	152.92
312.513	134.48
312.727	54.61
312.941	-68.27
313.154	34.13
313.368	60.76
313.582	56.66
313.796	56.66
314.009	32.08
314.223	93.52
314.437	171.35
314.651	50.52
314.864	-0.68
315.078	-70.31
315.292	3.41
315.505	7.51
315.719	66.9
315.933	79.19
316.146	32.08
316.36	-33.45
316.573	124.24
316.787	44.37
317.001	58.71
317.214	38.23
317.428	85.33
317.641	-119.46
317.855	7.51
318.068	44.37
318.282	50.52
318.495	167.25
318.709	107.86
318.922	56.66
319.136	134.48
319.349	101.72
319.563	13.65
319.776	25.94
319.99	-27.31
320.203	89.43
320.417	60.76
320.63	79.19
320.843	136.53
321.057	40.28
321.27	77.14
321.483	81.24
321.697	120.15
321.91	109.91
322.124	5.46
322.337	95.57
322.55	-6.83
322.763	128.34
322.977	19.8
323.19	58.71
323.403	21.85
323.617	60.76
323.83	142.68
324.043	32.08
324.256	87.38
324.469	5.46
324.683	159.06
324.896	71
325.109	118.1
325.322	-41.64
325.535	208.21
325.748	118.1
325.962	-19.11
326.175	32.08
326.388	144.72
326.601	77.14
326.814	-35.5
327.027	38.23
327.24	130.39
327.453	-31.4
327.666	107.86
327.879	109.91
328.092	175.44
328.305	60.76
328.518	32.08
328.731	-23.21
328.944	21.85
329.157	66.9
329.37	-12.97
329.583	185.68
329.796	140.63
330.009	-17.07
330.222	71
330.435	87.38
330.648	50.52
330.861	85.33
331.073	85.33
331.286	95.57
331.499	-15.02
331.712	48.47
331.925	62.8
332.138	32.08
332.35	175.44
332.563	-10.92
332.776	60.76
332.989	-6.83
333.202	-10.92
333.414	-2.73
333.627	109.91
333.84	-4.78
334.053	124.24
334.265	75.09
334.478	-33.45
334.691	15.7
334.903	50.52
335.116	5.46
335.329	38.23
335.541	34.13
335.754	130.39
335.966	36.18
336.179	-6.83
336.392	42.32
336.604	7.51
336.817	85.33
337.029	21.85
337.242	103.76
337.454	122.2
337.667	42.32
337.88	109.91
338.092	101.72
338.305	130.39
338.517	60.76
338.729	103.76
338.942	187.73
339.154	-41.64
339.367	-43.69
339.579	167.25
339.792	-62.12
340.004	77.14
340.217	13.65
340.429	122.2
340.641	15.7
340.854	15.7
341.066	85.33
341.278	42.32
341.491	183.63
341.703	-12.97
341.915	-0.68
342.128	58.71
342.34	27.99
342.552	-41.64
342.764	66.9
342.977	46.42
343.189	1.37
343.401	44.37
343.613	17.75
343.826	-2.73
344.038	66.9
344.25	66.9
344.462	25.94
344.674	42.32
344.886	-10.92
345.099	120.15
345.311	71
345.523	-8.87
345.735	-37.55
345.947	89.43
346.159	85.33
346.371	136.53
346.583	148.82
346.795	130.39
347.007	21.85
347.219	77.14
347.431	66.9
347.643	97.62
347.855	27.99
348.067	165.2
348.279	44.37
348.491	34.13
348.703	52.56
348.915	32.08
349.127	54.61
349.339	66.9
349.551	64.85
349.763	109.91
349.975	77.14
350.187	93.52
350.399	197.97
350.61	60.76
350.822	103.76
351.034	81.24
351.246	85.33
351.458	128.34
351.669	124.24
351.881	179.54
352.093	77.14
352.305	146.77
352.517	23.89
352.728	183.63
352.94	75.09
353.152	50.52
353.363	25.94
353.575	32.08
353.787	152.92
353.999	66.9
354.21	73.04
354.422	27.99
354.633	50.52
354.845	27.99
355.057	-37.55
355.268	38.23
355.48	81.24
355.692	-15.02
355.903	-12.97
356.115	-17.07
356.326	-27.31
356.538	146.77
356.749	126.29
356.961	136.53
357.172	-12.97
357.384	-2.73
357.595	255.31
357.807	-31.4
358.018	7.51
358.23	48.47
358.441	216.4
358.653	77.14
358.864	75.09
359.075	-0.68
359.287	32.08
359.498	101.72
359.709	120.15
359.921	71
360.132	89.43
360.344	34.13
360.555	44.37
360.766	50.52
360.977	62.8
361.189	169.3
361.4	85.33
361.611	75.09
361.823	128.34
362.034	42.32
362.245	-33.45
362.456	66.9
362.667	79.19
362.879	-41.64
363.09	144.72
363.301	58.71
363.512	101.72
363.723	1.37
363.935	-49.83
364.146	58.71
364.357	-35.5
364.568	116.05
364.779	3.41
364.99	146.77
365.201	-0.68
365.412	118.1
365.623	-21.16
365.834	97.62
366.045	27.99
366.256	77.14
366.467	58.71
366.678	66.9
366.889	93.52
367.1	13.65
367.311	83.28
367.522	15.7
367.733	107.86
367.944	118.1
368.155	11.61
368.366	97.62
368.577	132.44
368.788	165.2
368.999	11.61
369.209	-21.16
369.42	234.83
369.631	238.93
369.842	128.34
370.053	73.04
370.264	81.24
370.474	23.89
370.685	62.8
370.896	9.56
371.107	193.87
371.317	66.9
371.528	21.85
371.739	56.66
371.95	87.38
372.16	116.05
372.371	-72.36
372.582	-6.83
372.792	9.56
373.003	95.57
373.214	25.94
373.424	85.33
373.635	3.41
373.846	171.35
374.056	68.95
374.267	107.86
374.477	120.15
374.688	-31.4
374.898	42.32
375.109	38.23
375.319	109.91
375.53	116.05
375.74	81.24
375.951	64.85
376.161	77.14
376.372	107.86
376.582	58.71
376.793	138.58
377.003	46.42
377.214	13.65
377.424	42.32
377.635	50.52
377.845	-17.07
378.055	175.44
378.266	-15.02
378.476	66.9
378.686	48.47
378.897	103.76
379.107	109.91
379.317	99.67
379.528	-68.27
379.738	128.34
379.948	-12.97
380.158	114
380.369	27.99
380.579	83.28
380.789	34.13
380.999	146.77
381.21	91.48
381.42	165.2
381.63	64.85
381.84	44.37
382.05	83.28
382.261	169.3
382.471	179.54
382.681	32.08
382.891	218.45
383.101	99.67
383.311	25.94
383.521	7.51
383.731	42.32
383.941	152.92
384.151	19.8
384.361	30.04
384.571	23.89
384.781	48.47
384.991	195.92
385.201	191.83
385.411	95.57
385.621	48.47
385.831	152.92
386.041	21.85
386.251	56.66
386.461	111.96
386.671	54.61
386.881	-41.64
387.091	85.33
387.301	85.33
387.511	54.61
387.72	64.85
387.93	99.67
388.14	-144.04
388.35	27.99
388.56	107.86
388.769	148.82
388.979	46.42
389.189	25.94
389.399	62.8
389.609	136.53
389.818	167.25
390.028	122.2
390.238	204.11
390.447	5.46
390.657	114
390.867	9.56
391.076	-84.65
391.286	128.34
391.496	19.8
391.705	7.51
391.915	128.34
392.125	79.19
392.334	23.89
392.544	202.07
392.753	52.56
392.963	-70.31
393.172	66.9
393.382	5.46
393.591	191.83
393.801	-27.31
394.01	105.81
394.22	85.33
394.429	103.76
394.639	68.95
394.848	66.9
395.058	32.08
395.267	32.08
395.477	122.2
395.686	95.57
395.895	261.46
396.105	230.74
396.314	101.72
396.524	19.8
396.733	19.8
396.942	163.15
397.152	105.81
397.361	64.85
397.57	120.15
397.78	15.7
397.989	60.76
398.198	226.64
398.407	68.95
398.617	73.04
398.826	130.39
399.035	64.85
399.244	124.24
399.453	87.38
399.663	42.32
399.872	60.76
400.081	107.86
400.29	50.52
400.499	7.51
400.708	163.15
400.917	161.11
401.127	25.94
401.336	-6.83
401.545	60.76
401.754	81.24
401.963	136.53
402.172	46.42
402.381	-58.03
402.59	42.32
402.799	-0.68
403.008	101.72
403.217	103.76
403.426	62.8
403.635	-51.88
403.844	42.32
404.053	93.52
404.262	52.56
404.471	165.2
404.68	105.81
404.888	58.71
405.097	-17.07
405.306	68.95
405.515	157.01
405.724	17.75
405.933	34.13
406.142	89.43
406.35	146.77
406.559	23.89
406.768	124.24
406.977	169.3
407.185	91.48
407.394	181.59
407.603	68.95
407.812	58.71
408.02	128.34
408.229	64.85
408.438	111.96
408.646	-45.74
408.855	75.09
409.064	32.08
409.272	89.43
409.481	114
409.69	23.89
409.898	23.89
410.107	42.32
410.315	140.63
410.524	71
410.733	71
410.941	27.99
411.15	114
411.358	122.2
411.567	142.68
411.775	11.61
411.984	140.63
412.192	105.81
412.401	25.94
412.609	122.2
412.818	142.68
413.026	85.33
413.234	23.89
413.443	91.48
413.651	66.9
413.86	79.19
414.068	183.63
414.276	169.3
414.485	15.7
414.693	163.15
414.901	197.97
415.11	111.96
415.318	109.91
415.526	44.37
415.734	167.25
415.943	83.28
416.151	124.24
416.359	30.04
416.567	60.76
416.776	89.43
416.984	91.48
417.192	173.39
417.4	13.65
417.608	71
417.817	-10.92
418.025	183.63
418.233	267.6
418.441	-15.02
418.649	3.41
418.857	62.8
419.065	222.55
419.273	1.37
419.481	44.37
419.689	99.67
419.897	23.89
420.105	23.89
420.313	148.82
420.521	206.16
420.729	263.51
420.937	15.7
421.145	-8.87
421.353	114
421.561	148.82
421.769	87.38
421.977	46.42
422.185	93.52
422.393	114
422.601	46.42
422.809	167.25
423.017	109.91
423.224	23.89
423.432	120.15
423.64	60.76
423.848	150.87
424.056	23.89
424.263	187.73
424.471	54.61
424.679	185.68
424.887	-8.87
425.094	163.15
425.302	122.2
425.51	91.48
425.718	56.66
425.925	83.28
426.133	54.61
426.341	130.39
426.548	54.61
426.756	107.86
426.964	101.72
427.171	52.56
427.379	77.14
427.586	60.76
427.794	136.53
428.001	64.85
428.209	97.62
428.417	177.49
428.624	163.15
428.832	118.1
429.039	154.96
429.247	126.29
429.454	138.58
429.662	206.16
429.869	195.92
430.076	191.83
430.284	107.86
430.491	204.11
430.699	165.2
430.906	228.69
431.114	171.35
431.321	150.87
431.528	83.28
431.736	165.2
431.943	134.48
432.15	132.44
432.358	232.79
432.565	228.69
432.772	25.94
432.979	255.31
433.187	157.01
433.394	212.31
433.601	116.05
433.808	236.88
434.016	253.27
434.223	273.75
434.43	247.12
434.637	286.03
434.844	238.93
435.052	247.12
435.259	265.55
435.466	341.33
435.673	337.23
435.88	224.59
436.087	365.9
436.294	300.37
436.501	417.1
436.708	273.75
436.915	443.73
437.122	398.67
437.329	224.59
437.537	335.18
437.743	466.25
437.95	521.55
438.157	421.2
438.364	427.34
438.571	496.97
438.778	474.45
438.985	507.21
439.192	505.17
439.399	494.93
439.606	499.02
439.813	482.64
440.02	669
440.227	675.15
440.433	656.72
440.64	546.13
440.847	533.84
441.054	726.35
441.261	781.64
441.467	722.25
441.674	595.28
441.881	791.88
442.088	771.4
442.294	830.79
442.501	900.42
442.708	812.36
442.914	773.45
443.121	982.34
443.328	925
443.534	996.68
443.741	1013.06
443.948	994.63
444.154	1082.69
444.361	1221.95
444.568	1115.46
444.774	1082.69
444.981	1105.22
445.187	1262.91
445.394	1344.83
445.6	1350.98
445.807	1508.67
446.013	1422.66
446.22	1332.55
446.426	1418.56
446.633	1635.64
446.839	1893.69
447.046	1514.81
447.252	1738.04
447.459	1795.39
447.665	1754.43
447.871	1942.84
448.078	2159.92
448.284	2067.77
448.491	2196.79
448.697	2266.42
448.903	2366.77
449.11	2458.93
449.316	2370.87
449.522	2577.71
449.728	2694.44
449.935	2766.12
450.141	2716.97
450.347	2895.15
450.553	2909.48
450.76	2936.1
450.966	3249.44
451.172	3239.2
451.378	3386.66
451.584	3497.25
451.791	3779.87
451.997	3740.96
452.203	3990.81
452.409	4085.01
452.615	4275.48
452.821	4193.56
453.027	4257.04
453.233	4723.98
453.44	4498.7
453.646	4875.53
453.852	5141.77
454.058	5467.39
454.264	5487.87
454.47	5829.88
454.676	5604.61
454.882	6292.73
455.088	6006.01
455.294	6368.5
455.5	6784.24
455.705	7195.88
455.911	7159.02
456.117	7396.58
456.323	7546.08
456.529	7535.84
456.735	8174.81
456.941	8455.38
457.147	8848.59
457.352	8979.66
457.558	9258.18
457.764	9741.5
457.97	10116.28
458.176	10650.8
458.381	10917.04
458.587	11054.25
458.793	11918.5
458.999	11836.58
459.204	13204.62
459.41	13614.21
459.616	13462.66
459.821	14564.47
460.027	15137.9
460.233	15389.8
460.438	15752.29
460.644	16579.67
460.85	16663.64
461.055	17402.96
461.261	18230.34
461.466	18037.83
461.672	17884.23
461.878	20323.36
462.083	20057.12
462.289	20575.26
462.494	21339.15
462.7	21240.85
462.905	21847.05
463.111	23010.29
463.316	24787.93
463.522	25136.09
463.727	26149.83
463.932	26825.66
464.138	27626.42
464.343	28996.51
464.549	29213.59
464.754	31236.98
464.959	31689.59
465.165	32289.64
465.37	32021.36
465.575	32312.17
465.781	34306.89
465.986	35265.34
466.191	34628.42
466.397	35224.38
466.602	34376.52
466.807	36322.09
467.012	36696.87
467.218	37507.86
467.423	37335.84
467.628	38384.4
467.833	40364.78
468.038	39758.58
468.244	39191.3
468.449	41075.43
468.654	40483.56
468.859	40131.31
469.064	40463.08
469.269	39310.08
469.474	39654.14
469.679	40897.25
469.885	39623.42
470.09	40098.55
470.295	40565.48
470.5	39484.15
470.705	39461.63
470.91	38820.61
471.115	38112.02
471.32	38884.1
471.525	38787.85
471.73	37784.34
471.935	37430.04
472.139	36168.49
472.344	36160.3
472.549	35517.24
472.754	35222.33
472.959	34337.61
473.164	33192.79
473.369	32686.95
473.574	33774.42
473.778	33155.93
473.983	32433
474.188	31742.83
474.393	30311.3
474.598	30184.33
474.802	29731.73
475.007	29162.39
475.212	29242.26
475.417	27749.29
475.621	28033.96
475.826	27638.7
476.031	26690.49
476.235	25648.08
476.44	26293.19
476.645	25191.38
476.849	25056.21
477.054	24544.22
477.259	24200.16
477.463	24280.03
477.668	23391.22
477.872	23311.35
478.077	22914.04
478.282	22256.64
478.486	22037.51
478.691	21832.71
478.895	21529.61
479.1	21482.51
479.304	21224.47
479.509	20778.01
479.713	20743.19
479.918	20270.11
480.122	19948.58
480.326	20345.89
480.531	20216.86
480.735	19803.18
480.94	19688.49
481.144	20409.37
481.348	18930.74
481.553	19108.91
481.757	18482.24
481.961	18943.03
482.166	19123.25
482.37	18713.66
482.574	18388.03
482.778	18246.72
482.983	18629.69
483.187	18048.07
483.391	18201.66
483.595	17712.2
483.8	17362
484.004	17763.4
484.208	17441.87
484.412	17259.6
484.616	16927.83
484.821	17060.94
485.025	16401.5
485.229	16526.43
485.433	16170.08
485.637	16008.29
485.841	15803.49
486.045	15465.58
486.249	15350.89
486.453	15119.47
486.657	15019.12
486.861	14769.27
487.065	14371.96
487.269	14482.55
487.473	13948.03
487.677	14185.6
487.881	13884.55
488.085	13454.47
488.289	13454.47
488.493	12971.15
488.697	13296.78
488.901	12831.89
489.105	12422.3
489.309	12362.9
489.512	12029.09
489.716	12004.51
489.92	11758.75
490.124	11388.07
490.328	11621.54
490.531	11224.23
490.735	10929.33
490.939	10802.35
491.143	10353.85
491.346	10532.02
491.55	10380.47
491.754	10020.03
491.958	10110.14
492.161	9620.67
492.365	9741.5
492.569	9442.5
492.772	9401.54
492.976	9258.18
493.18	9295.05
493.383	9008.33
493.587	9077.96
493.79	9010.38
493.994	8492.24
494.197	8637.65
494.401	8682.7
494.605	8285.4
494.808	8604.88
495.012	8199.38
495.215	8584.4
495.419	8479.96
495.622	8234.2
495.825	8193.24
496.029	8164.57
496.232	8168.66
496.436	7978.2
496.639	8289.49
496.843	8068.31
497.046	8033.5
497.249	8406.23
497.453	8309.97
497.656	8092.89
497.859	8015.07
498.063	8187.1
498.266	8385.75
498.469	8180.95
498.673	8264.92
498.876	8303.83
499.079	8148.19
499.282	8238.3
499.485	8750.29
499.689	8555.73
499.892	8627.41
500.095	8639.7
500.298	8944.84
500.501	8651.99
500.705	8946.89
500.908	8955.08
501.111	8944.84
501.314	8998.09
501.517	9268.42
501.72	9282.76
501.923	9415.88
502.126	9458.89
502.329	9755.84
502.532	9737.41
502.735	9704.64
502.938	9845.95
503.141	10136.76
503.344	10042.56
503.547	10177.72
503.75	10337.46
503.953	10695.86
504.156	10642.61
504.359	10796.21
504.562	10816.69
504.765	11310.25
504.968	11357.35
505.17	11547.81
505.373	11836.58
505.576	11941.02
505.779	12018.85
505.982	12164.25
506.185	12602.52
506.387	12655.76
506.59	12956.82
506.793	13120.65
506.996	13331.59
507.198	13814.91
507.401	13755.52
507.604	14150.78
507.807	14513.27
508.009	14652.53
508.212	15008.88
508.415	15033.46
508.617	15342.7
508.82	15744.1
509.022	15950.95
509.225	16671.83
509.428	16866.39
509.63	17196.11
509.833	17542.22
510.035	18166.85
510.238	17998.91
510.44	18457.66
510.643	19217.46
510.845	19551.27
511.048	19577.9
511.25	20456.48
511.453	20753.43
511.655	21611.53
511.858	21734.41
512.06	22432.77
512.262	22434.81
512.465	22858.74
512.667	23475.18
512.87	24230.88
513.072	24460.26
513.274	25187.28
513.477	25756.62
513.679	26160.07
513.881	26600.38
514.084	27628.46
514.286	27675.57
514.488	28310.44
514.69	29373.33
514.893	29852.56
515.095	30292.87
515.297	30954.36
515.499	31196.03
515.701	32285.54
515.904	33145.69
516.106	33469.27
516.308	34046.8
516.51	34818.88
516.712	35216.19
516.914	35806
517.116	36799.27
517.318	37063.46
517.52	37520.15
517.722	38445.83
517.925	38877.96
518.127	39920.37
518.329	40624.87
518.531	40301.29
518.733	41839.32
518.935	42404.56
519.136	42871.5
519.338	43717.31
519.54	44038.84
519.742	44673.71
519.944	44985
520.146	46095
520.348	46647.95
520.55	46961.29
520.752	47385.22
520.954	48118.39
521.155	48013.94
521.357	49224.29
521.559	49900.12
521.761	50614.86
521.963	50760.27
522.164	50475.6
522.366	51503.68
522.568	52007.48
522.77	52113.98
522.971	53107.24
523.173	52683.31
523.375	53381.67
523.576	52888.11
523.778	53076.52
523.98	53942.81
524.181	53930.53
524.383	53709.35
524.584	54176.28
524.786	54471.19
524.988	54002.21
525.189	54639.12
525.391	54479.38
525.592	54712.85
525.794	54999.57
525.995	53977.63
526.197	54272.54
526.398	53772.83
526.6	53994.01
526.801	54026.78
527.003	54010.4
527.204	53711.39
527.406	53670.43
527.607	53072.43
527.808	53086.76
528.01	52206.14
528.211	52279.86
528.412	52529.72
528.614	52091.45
528.815	51735.1
529.016	51927.61
529.218	50113.11
529.419	50330.2
529.62	49568.35
529.822	49449.57
530.023	49134.18
530.224	48517.74
530.425	47866.49
530.626	46920.33
530.828	46574.22
531.029	47223.43
531.23	45875.87
531.431	45695.64
531.632	45163.17
531.833	44835.5
532.035	44196.53
532.236	43524.8
532.437	43299.52
532.638	42322.64
532.839	42056.4
533.04	41265.89
533.241	40465.13
533.442	40897.25
533.643	39967.48
533.844	39166.72
534.045	38851.33
534.246	38058.77
534.447	38062.86
534.648	37577.5
534.849	36895.52
535.05	35957.55
535.251	36008.75
535.451	35466.04
535.652	34980.67
535.853	34198.35
536.054	33557.33
536.255	33823.57
536.456	32961.37
536.657	32490.34
536.857	32392.04
537.058	31783.79
537.259	31513.46
537.46	30968.7
537.66	30376.84
537.861	30237.58
538.062	29404.05
538.263	29123.48
538.463	28922.78
538.664	28316.58
538.865	28203.94
539.065	28169.13
539.266	27474.87
539.466	27362.23
539.667	26805.18
539.868	26782.65
540.068	26368.96
540.269	25754.57
540.469	25410.51
540.67	25308.12
540.87	24841.18
541.071	24599.52
541.271	24353.76
541.472	24005.61
541.672	23991.27
541.873	23430.13
542.073	23051.25
542.274	23049.21
542.474	22774.78
542.675	22313.98
542.875	22287.36
543.075	21943.3
543.276	21447.69
543.476	21707.79
543.676	21197.84
543.877	21083.16
544.077	20960.28
544.277	20648.99
544.478	20235.3
544.678	20186.15
544.878	19973.16
545.078	19854.37
545.279	19407.92
545.479	19129.39
545.679	19098.67
545.879	18494.52
546.079	18633.78
546.28	18232.38
546.48	18107.46
546.68	18259.01
546.88	17747.01
547.08	17370.19
547.28	17192.01
547.48	16884.82
547.68	16780.37
547.88	16426.07
548.081	16686.17
548.281	16186.46
548.481	16127.07
548.681	15938.66
548.881	15719.53
549.081	15477.87
549.28	15211.63
549.48	15228.01
549.68	15129.71
549.88	14853.23
550.08	14269.56
550.28	14351.48
550.48	14144.64
550.68	14040.19
550.88	13419.66
551.08	13290.63
551.279	13362.31
551.479	12907.66
551.679	13059.21
551.879	12598.42
552.079	12637.33
552.278	12317.85
552.478	12256.41
552.678	11941.02
552.878	12008.61
553.077	11771.04
553.277	11252.91
553.477	11218.09
553.676	11132.08
553.876	11017.39
554.076	10775.73
554.275	10472.63
554.475	10253.5
554.674	10394.81
554.874	10257.59
555.074	9888.96
555.273	9954.49
555.473	9659.59
555.672	9428.17
555.872	9254.09
556.071	9274.57
556.271	9166.03
556.47	8807.63
556.67	8766.67
556.869	8721.62
557.068	8539.35
557.268	8477.91
557.467	8303.83
557.667	8258.78
557.866	8035.55
558.065	7859.42
558.265	7814.37
558.464	7554.27
558.663	7589.09
558.863	7347.43
559.062	7421.16
559.261	7042.28
559.461	7081.19
559.66	6812.91
559.859	6538.48
560.058	6513.91
560.258	6507.76
560.457	6393.08
560.656	6479.09
560.855	6227.19
561.054	6393.08
561.253	6311.16
561.453	6034.68
561.652	5825.79
561.851	5891.32
562.05	5659.9
562.249	5575.94
562.448	5686.53
562.647	5448.96
562.846	5422.34
563.045	5371.14
563.244	5217.54
563.443	5209.35
563.642	5006.6
563.841	5061.9
564.04	5008.65
564.239	4945.16
564.438	4785.42
564.637	4656.4
564.836	4738.32
565.035	4615.44
565.234	4486.42
565.432	4578.58
565.631	4457.75
565.83	4336.92
566.029	4259.09
566.228	4220.18
566.427	4373.78
566.625	4003.1
566.824	4103.45
567.023	4025.62
567.222	3951.9
567.42	3841.31
567.619	3874.07
567.818	3841.31
568.016	3904.79
568.215	3683.61
568.414	3908.89
568.612	3505.44
568.811	3519.78
569.01	3507.49
569.208	3456.29
569.407	3444
569.605	3413.28
569.804	3251.49
570.002	3382.56
570.201	3112.23
570.4	3179.81
570.598	3065.13
570.797	3099.94
570.995	3040.55
571.193	3009.83
571.392	2872.62
571.59	2782.51
571.789	2882.86
571.987	2878.76
572.186	2837.8
572.384	2639.15
572.582	2680.11
572.781	2764.08
572.979	2510.13
573.177	2557.23
573.376	2587.95
573.574	2637.1
573.772	2463.02
573.971	2325.81
574.169	2344.24
574.367	2389.3
574.565	2219.32
574.763	2252.08
574.962	2280.75
575.16	2067.77
575.358	2243.89
575.556	2075.96
575.754	2137.4
575.952	1973.56
576.151	2073.91
576.349	2178.36
576.547	1811.77
576.745	2014.52
576.943	2045.24
577.141	1944.89
577.339	1811.77
577.537	1944.89
577.735	1989.94
577.933	1912.12
578.131	1758.52
578.329	1879.35
578.527	1690.94
578.725	1715.52
578.923	1611.07
579.121	1641.79
579.319	1500.48
579.516	1643.84
579.714	1791.29
579.912	1533.25
580.11	1453.38
580.308	1510.72
580.506	1307.97
580.704	1219.91
580.901	1408.32
581.099	1549.63
581.297	1453.38
581.495	1477.95
581.692	1301.83
581.89	1465.66
582.088	1260.87
582.285	1275.2
582.483	1267.01
582.681	1316.16
582.878	1271.11
583.076	1273.15
583.274	1158.47
583.471	1371.46
583.669	1273.15
583.866	1086.79
584.064	1115.46
584.262	1019.21
584.459	1013.06
584.657	1066.31
584.854	1111.36
585.052	1092.93
585.249	1181
585.447	1115.46
585.644	884.04
585.841	1121.6
586.039	1099.08
586.236	1127.75
586.434	976.2
586.631	808.27
586.828	875.85
587.026	933.19
587.223	828.74
587.42	843.08
587.618	881.99
587.815	972.1
588.012	869.7
588.21	941.38
588.407	857.42
588.604	865.61
588.801	857.42
588.999	734.54
589.196	906.57
589.393	752.97
589.59	900.42
589.787	861.51
589.984	808.27
590.182	718.15
590.379	683.34
590.576	695.63
590.773	798.03
590.97	804.17
591.167	853.32
591.364	806.22
591.561	740.68
591.758	871.75
591.955	841.03
592.152	851.27
592.349	705.87
592.546	677.19
592.743	693.58
592.94	791.88
593.137	761.16
593.334	775.5
593.531	769.35
593.727	816.46
593.924	707.91
594.121	763.21
594.318	734.54
594.515	687.43
594.712	884.04
594.908	798.03
595.105	650.57
595.302	818.5
595.499	865.61
595.696	834.89
595.892	771.4
596.089	978.25
596.286	863.56
596.482	879.94
596.679	910.66
596.876	836.94
597.072	937.29
597.269	875.85
597.466	927.05
597.662	1004.87
597.859	927.05
598.055	939.34
598.252	1060.17
598.448	1170.76
598.645	1193.28
598.841	1097.03
599.038	1348.93
599.234	1385.79
599.431	1324.35
599.627	1271.11
599.824	1318.21
600.02	1471.81
600.217	1424.7
600.413	1654.08
600.609	1606.97
600.806	1920.31
601.002	1791.29
601.198	1609.02
601.395	1914.17
601.591	1918.26
601.787	1944.89
601.984	2026.81
602.18	2231.6
602.376	2223.41
602.572	2389.3
602.769	2307.38
602.965	2432.3
603.161	2667.82
603.357	2598.19
603.553	2809.13
603.75	2651.44
603.946	2936.1
604.142	2985.26
604.338	3175.72
604.534	3167.52
604.73	3302.69
604.926	3386.66
605.122	3523.87
605.318	3487.01
605.514	3810.59
605.71	3745.05
605.906	4015.38
606.102	4214.04
606.298	4470.03
606.494	4345.11
606.69	4554
606.886	4566.29
607.082	4730.13
607.278	4744.46
607.474	5055.75
607.67	5211.4
607.866	5262.6
608.062	5620.99
608.257	5547.26
608.453	5676.29
608.649	5819.64
608.845	6038.78
609.041	6114.55
609.236	6538.48
609.432	6542.58
609.628	6720.75
609.824	6962.41
610.019	6837.48
610.215	7179.5
610.411	7601.38
610.606	7767.26
610.802	7808.22
610.998	8053.98
611.193	8432.85
611.389	8348.89
611.584	8723.66
611.78	8877.26
611.976	9215.18
612.171	9514.18
612.367	9731.26
612.562	10030.27
612.758	10226.87
612.953	10319.03
613.149	10642.61
613.344	10919.09
613.539	11373.74
613.735	11707.55
613.93	11965.6
614.126	11936.93
614.321	12545.17
614.517	12807.31
614.712	13329.55
614.907	13587.59
615.103	13878.4
615.298	13964.42
615.493	14556.28
615.688	14691.45
615.884	15520.87
616.079	15387.75
616.274	15887.46
616.47	16383.07
616.665	16811.09
616.86	17267.79
617.055	17499.21
617.25	18291.77
617.445	18836.53
617.641	18793.53
617.836	19403.82
618.031	19536.94
618.226	20479
618.421	20786.2
618.616	21494.8
618.811	21459.98
619.006	22561.79
619.201	22639.61
619.396	23663.6
619.591	23507.95
619.786	24411.1
619.981	24630.24
620.176	25582.54
620.371	25541.58
620.566	26088.39
620.761	26817.47
620.956	27507.63
621.151	27618.22
621.346	28791.71
621.541	28568.48
621.735	30147.47
621.93	29803.41
622.125	30729.09
622.32	30958.46
622.515	31456.12
622.709	32312.17
622.904	33268.57
623.099	33276.76
623.294	34054.99
623.488	34489.16
623.683	35300.15
623.878	35222.33
624.072	36637.48
624.267	37016.35
624.462	37311.26
624.656	37829.4
624.851	38603.53
625.046	38818.56
625.24	39443.2
625.435	39889.65
625.629	40712.94
625.824	41026.28
626.018	42105.55
626.213	41622.23
626.407	42732.23
626.602	42386.13
626.796	43270.85
626.991	44176.05
627.185	43881.14
627.38	44667.56
627.574	44704.43
627.768	44671.66
627.963	45206.18
628.157	45021.86
628.352	45648.54
628.546	45183.65
628.74	45712.03
628.935	45583.01
629.129	45732.51
629.323	45267.62
629.517	45284
629.712	44915.37
629.906	45003.43
630.1	44026.55
630.294	43850.42
630.489	43158.21
630.683	43186.88
630.877	42425.04
631.071	41138.91
631.265	40862.44
631.459	39963.38
631.653	39439.1
631.848	38607.62
632.042	37532.44
632.236	37370.65
632.43	35670.84
632.624	35324.73
632.818	33760.08
633.012	32799.58
633.206	31918.96
633.4	31071.1
633.594	29916.04
633.788	28621.73
633.982	28201.89
634.176	27171.77
634.369	25994.18
634.563	25074.65
634.757	23956.46
634.951	23391.22
635.145	22721.53
635.339	21541.9
635.533	20556.83
635.726	19856.42
635.92	19031.09
636.114	18447.42
636.308	17327.18
636.501	16933.97
636.695	16264.29
636.889	15447.15
637.083	14890.1
637.276	14265.47
637.47	13579.4
637.664	13059.21
637.857	12737.68
638.051	12008.61
638.244	11572.39
638.438	11072.68
638.632	10882.22
638.825	10204.35
639.019	9825.47
639.212	9567.43
639.406	9374.92
639.599	8928.46
639.793	8486.1
639.986	8060.12
640.18	7816.41
640.373	7529.7
640.567	7261.41
640.76	7089.39
640.954	6741.23
641.147	6329.59
641.34	6212.85
641.534	5989.63
641.727	5782.78
641.92	5623.04
642.114	5414.15
642.307	5156.1
642.5	4928.78
642.694	4562.19
642.887	4619.53
643.08	4574.48
643.273	4199.7
643.467	4123.93
643.66	3869.98
643.853	3685.66
644.046	3702.04
644.239	3435.81
644.432	3337.51
644.626	3030.31
644.819	3104.04
645.012	2940.2
645.205	2925.86
645.398	3032.36
645.591	2788.65
645.784	2446.64
645.977	2458.93
646.17	2426.16
646.363	2215.22
646.556	2088.25
646.749	2030.9
646.942	2114.87
647.135	2053.43
647.328	1928.5
647.521	1875.26
647.714	1850.68
647.907	1674.56
648.099	1535.29
648.292	1617.21
648.485	1586.49
648.678	1408.32
648.871	1400.13
649.064	1387.84
649.256	1199.43
649.449	1234.24
649.642	1129.8
649.835	1152.32
650.027	1181
650.22	1191.24
650.413	1082.69
650.605	1064.26
650.798	1043.78
650.991	972.1
651.183	931.14
651.376	933.19
651.568	832.84
651.761	859.46
651.954	746.83
652.146	740.68
652.339	843.08
652.531	773.45
652.724	722.25
652.916	679.24
653.109	601.42
653.301	646.48
653.494	701.77
653.686	613.71
653.879	693.58
654.071	531.79
654.263	535.89
654.456	535.89
654.648	585.04
654.84	580.94
655.033	372.05
655.225	558.41
655.417	431.44
655.61	515.41
655.802	552.27
655.994	554.32
656.186	339.28
656.379	478.54
656.571	341.33
656.763	408.91
656.955	394.58
657.148	378.19
657.34	480.59
657.532	316.75
657.724	318.8
657.916	382.29
658.108	351.57
658.3	443.73
658.492	384.34
658.684	251.22
658.876	376.14
659.068	273.75
659.26	208.21
659.452	234.83
659.644	277.84
659.836	435.53
660.028	376.14
660.22	308.56
660.412	255.31
660.604	193.87
660.796	320.85
660.988	283.99
661.18	314.7
661.372	370
661.563	261.46
661.755	228.69
661.947	214.35
662.139	187.73
662.331	316.75
662.522	245.07
662.714	220.5
662.906	132.44
663.097	294.22
663.289	118.1
663.481	66.9
663.673	247.12
663.864	206.16
664.056	212.31
664.247	204.11
664.439	220.5
664.631	189.78
664.822	259.41
665.014	226.64
665.205	87.38
665.397	169.3
665.588	210.26
665.78	157.01
665.971	208.21
666.163	68.95
666.354	261.46
666.546	154.96
666.737	144.72
666.929	175.44
667.12	136.53
667.311	124.24
667.503	234.83
667.694	175.44
667.885	81.24
668.077	171.35
668.268	87.38
668.459	165.2
668.651	128.34
668.842	240.98
669.033	79.19
669.224	116.05
669.416	273.75
669.607	163.15
669.798	148.82
669.989	292.18
670.18	159.06
670.371	226.64
670.563	136.53
670.754	202.07
670.945	214.35
671.136	181.59
671.327	124.24
671.518	191.83
671.709	208.21
671.9	222.55
672.091	261.46
672.282	146.77
672.473	124.24
672.664	44.37
672.855	187.73
673.046	150.87
673.237	230.74
673.428	187.73
673.619	224.59
673.809	42.32
674	273.75
674.191	222.55
674.382	154.96
674.573	171.35
674.764	230.74
674.954	238.93
675.145	85.33
675.336	177.49
675.527	152.92
675.717	159.06
675.908	159.06
676.099	126.29
676.289	197.97
676.48	107.86
676.671	193.87
676.861	167.25
677.052	191.83
677.243	128.34
677.433	193.87
677.624	230.74
677.814	222.55
678.005	154.96
678.195	355.66
678.386	159.06
678.576	173.39
678.767	226.64
678.957	173.39
679.148	273.75
679.338	234.83
679.529	224.59
679.719	148.82
679.909	357.71
680.1	261.46
680.29	324.94
680.481	144.72
680.671	296.27
680.861	283.99
681.052	222.55
681.242	152.92
681.432	279.89
681.622	214.35
681.813	216.4
682.003	126.29
682.193	169.3
682.383	253.27
682.573	124.24
682.764	183.63
682.954	257.36
683.144	300.37
683.334	202.07
683.524	181.59
683.714	331.09
683.904	308.56
684.094	222.55
684.284	300.37
684.474	392.53
684.664	296.27
684.854	290.13
685.044	277.84
685.234	324.94
685.424	222.55
685.614	173.39
685.804	404.82
685.994	210.26
686.184	255.31
686.374	249.17
686.564	277.84
686.753	197.97
686.943	206.16
687.133	226.64
687.323	257.36
687.513	300.37
687.702	165.2
687.892	224.59
688.082	294.22
688.272	322.9
688.461	222.55
688.651	337.23
688.841	351.57
689.03	152.92
689.22	200.02
689.41	255.31
689.599	335.18
689.789	165.2
689.979	271.7
690.168	277.84
690.358	288.08
690.547	224.59
690.737	169.3
690.926	263.51
691.116	292.18
691.305	333.14
691.495	269.65
691.684	138.58
691.874	181.59
692.063	218.45
692.252	331.09
692.442	302.42
692.631	120.15
692.82	154.96
693.01	183.63
693.199	232.79
693.388	245.07
693.578	226.64
693.767	288.08
693.956	255.31
694.146	275.79
694.335	329.04
694.524	126.29
694.713	283.99
694.902	286.03
695.092	197.97
695.281	193.87
695.47	234.83
695.659	200.02
695.848	167.25
696.037	273.75
696.226	179.54
696.415	120.15
696.604	226.64
696.793	253.27
696.982	216.4
697.171	306.51
697.36	247.12
697.549	238.93
697.738	144.72
697.927	212.31
698.116	189.78
698.305	232.79
698.494	136.53
698.683	150.87
698.872	318.8
699.061	150.87
699.25	111.96
699.438	130.39
699.627	154.96
699.816	398.67
700.005	140.63
700.193	177.49
700.382	214.35
700.571	204.11
700.76	253.27
700.948	257.36
701.137	202.07
701.326	218.45
701.514	79.19
701.703	208.21
701.892	210.26
702.08	384.34
702.269	165.2
702.457	165.2
702.646	193.87
702.834	169.3
703.023	273.75
703.212	288.08
703.4	204.11
703.589	183.63
703.777	95.57
703.965	163.15
704.154	128.34
704.342	173.39
704.531	144.72
704.719	195.92
704.907	275.79
705.096	118.1
705.284	148.82
705.472	320.85
705.661	138.58
705.849	316.75
706.037	279.89
706.226	224.59
706.414	159.06
706.602	179.54
706.79	222.55
706.979	148.82
707.167	163.15
707.355	25.94
707.543	249.17
707.731	95.57
707.919	200.02
708.107	189.78
708.296	62.8
708.484	144.72
708.672	206.16
708.86	224.59
709.048	179.54
709.236	144.72
709.424	265.55
709.612	195.92
709.8	38.23
709.988	226.64
710.176	220.5
710.364	281.94
710.551	161.11
710.739	134.48
710.927	183.63
711.115	234.83
711.303	265.55
711.491	236.88
711.679	120.15
711.866	253.27
712.054	173.39
712.242	277.84
712.43	195.92
712.617	118.1
712.805	322.9
712.993	193.87
713.181	136.53
713.368	263.51
713.556	234.83
713.744	118.1
713.931	419.15
714.119	255.31
714.306	161.11
714.494	175.44
714.682	245.07
714.869	132.44
715.057	195.92
715.244	60.76
715.432	269.65
715.619	122.2
715.807	138.58
715.994	222.55
716.182	183.63
716.369	296.27
716.556	300.37
716.744	134.48
716.931	152.92
717.119	269.65
717.306	116.05
717.493	236.88
717.681	193.87
717.868	195.92
718.055	204.11
718.242	202.07
718.43	243.03
718.617	261.46
718.804	181.59
718.991	283.99
719.179	255.31
719.366	275.79
719.553	249.17
719.74	222.55
719.927	169.3
720.114	197.97
720.301	165.2
720.488	202.07
720.676	169.3
720.863	343.38
721.05	370
721.237	230.74
721.424	240.98
721.611	181.59
721.798	169.3
721.985	251.22
722.172	288.08
722.358	206.16
722.545	324.94
722.732	304.46
722.919	431.44
723.106	202.07
723.293	279.89
723.48	288.08
723.667	206.16
723.853	312.66
724.04	306.51
724.227	320.85
724.414	296.27
724.6	234.83
724.787	425.29
724.974	439.63
725.161	273.75
725.347	204.11
725.534	288.08
725.72	245.07
725.907	240.98
726.094	283.99
726.28	220.5
726.467	171.35
726.653	177.49
726.84	417.1
727.027	406.86
727.213	286.03
727.4	267.6
727.586	370
727.773	191.83
727.959	306.51
728.145	304.46
728.332	267.6
728.518	232.79
728.705	380.24
728.891	290.13
729.077	337.23
729.264	148.82
729.45	292.18
729.636	326.99
729.823	238.93
730.009	290.13
730.195	300.37
730.382	300.37
730.568	208.21
730.754	249.17
730.94	236.88
731.126	288.08
731.313	339.28
731.499	337.23
731.685	359.76
731.871	302.42
732.057	308.56
732.243	240.98
732.429	306.51
732.615	349.52
732.801	386.38
732.987	240.98
733.173	318.8
733.359	279.89
733.545	318.8
733.731	318.8
733.917	355.66
734.103	324.94
734.289	370
734.475	243.03
734.661	507.21
734.847	314.7
735.033	304.46
735.219	390.48
735.404	251.22
735.59	304.46
735.776	357.71
735.962	400.72
736.148	355.66
736.333	370
736.519	269.65
736.705	337.23
736.89	310.61
737.076	337.23
737.262	380.24
737.447	329.04
737.633	329.04
737.819	449.87
738.004	302.42
738.19	324.94
738.375	466.25
738.561	470.35
738.747	357.71
738.932	224.59
739.118	490.83
739.303	388.43
739.489	427.34
739.674	253.27
739.859	300.37
740.045	427.34
740.23	339.28
740.416	206.16
740.601	347.47
740.786	335.18
740.972	351.57
741.157	310.61
741.342	267.6
741.528	320.85
741.713	482.64
741.898	339.28
742.084	302.42
742.269	326.99
742.454	423.25
742.639	380.24
742.824	376.14
743.01	441.68
743.195	398.67
743.38	349.52
743.565	210.26
743.75	386.38
743.935	374.1
744.12	421.2
744.305	304.46
744.49	341.33
744.675	363.86
744.86	353.62
745.045	384.34
745.23	390.48
745.415	322.9
745.6	437.58
745.785	279.89
745.97	384.34
746.155	372.05
746.34	361.81
746.525	380.24
746.71	386.38
746.895	306.51
747.079	243.03
747.264	302.42
747.449	296.27
747.634	464.21
747.819	390.48
748.003	322.9
748.188	292.18
748.373	370
748.557	333.14
748.742	312.66
748.927	367.95
749.111	355.66
749.296	374.1
749.481	390.48
749.665	400.72
749.85	302.42
750.034	329.04
750.219	263.51
750.404	269.65
750.588	288.08
750.773	236.88
750.957	232.79
751.141	320.85
751.326	394.58
751.51	257.36
751.695	253.27
751.879	234.83
752.064	425.29
752.248	265.55
752.432	458.06
752.617	312.66
752.801	349.52
752.985	273.75
753.17	345.42
753.354	312.66
753.538	300.37
753.722	216.4
753.907	189.78
754.091	187.73
754.275	271.7
754.459	200.02
754.643	154.96
754.828	329.04
755.012	279.89
755.196	144.72
755.38	265.55
755.564	185.68
755.748	302.42
755.932	218.45
756.116	234.83
756.3	261.46
756.484	210.26
756.668	349.52
756.852	179.54
757.036	230.74
757.22	294.22
757.404	148.82
757.588	269.65
757.772	273.75
757.956	218.45
758.14	281.94
758.323	146.77
758.507	247.12
758.691	146.77
758.875	273.75
759.059	251.22
759.242	167.25
759.426	247.12
759.61	200.02
759.794	159.06
759.977	255.31
760.161	316.75
760.345	263.51
760.528	316.75
760.712	236.88
760.895	232.79
761.079	200.02
761.263	202.07
761.446	177.49
761.63	197.97
761.813	261.46
761.997	206.16
762.18	128.34
762.364	245.07
762.547	64.85
762.731	259.41
762.914	245.07
763.098	150.87
763.281	89.43
763.464	105.81
763.648	157.01
763.831	163.15
764.015	144.72
764.198	271.7
764.381	181.59
764.564	195.92
764.748	193.87
764.931	238.93
765.114	87.38
765.297	255.31
765.481	97.62
765.664	171.35
765.847	138.58
766.03	230.74
766.213	146.77
766.397	161.11
766.58	56.66
766.763	200.02
766.946	177.49
767.129	103.76
767.312	148.82
767.495	128.34
767.678	73.04
767.861	179.54
768.044	107.86
768.227	109.91
768.41	136.53
768.593	179.54
768.776	181.59
768.959	136.53
769.142	122.2
769.324	130.39
769.507	124.24
769.69	154.96
769.873	118.1
770.056	310.61
770.239	191.83
770.421	173.39
770.604	118.1
770.787	58.71
770.97	152.92
771.152	-2.73
771.335	204.11
771.518	79.19
771.7	191.83
771.883	236.88
772.066	60.76
772.248	179.54
772.431	259.41
772.613	173.39
772.796	97.62
772.978	202.07
773.161	238.93
773.343	126.29
773.526	68.95
773.708	-23.21
773.891	-45.74
774.073	91.48
774.256	48.47
774.438	259.41
774.621	95.57
774.803	179.54
774.985	52.56
775.168	95.57
775.35	50.52
775.532	152.92
775.715	105.81
775.897	124.24
776.079	152.92
776.261	128.34
776.444	73.04
776.626	114
776.808	116.05
776.99	52.56
777.173	148.82
777.355	62.8
777.537	99.67
777.719	68.95
777.901	87.38
778.083	5.46
778.265	-4.78
778.447	140.63
778.629	34.13
778.811	128.34
778.993	134.48
779.175	200.02
779.357	89.43
779.539	38.23
779.721	89.43
779.903	118.1
780.085	101.72
780.267	132.44
780.449	167.25
780.631	157.01
780.812	101.72
780.994	9.56
781.176	56.66
781.358	126.29
781.54	77.14
781.721	146.77
781.903	142.68
782.085	58.71
782.267	107.86
782.448	-8.87
782.63	83.28
782.812	64.85
782.993	177.49
783.175	152.92
783.357	58.71
783.538	148.82
783.72	58.71
783.901	11.61
784.083	97.62
784.264	68.95
784.446	81.24
784.627	-90.79
784.809	111.96
784.99	-8.87
785.172	114
785.353	101.72
785.535	122.2
785.716	7.51
785.897	-74.41
786.079	81.24
786.26	99.67
786.441	79.19
786.623	-2.73
786.804	103.76
786.985	71
787.167	36.18
787.348	32.08
787.529	30.04
787.71	243.03
787.891	116.05
788.073	62.8
788.254	-51.88
788.435	171.35
788.616	99.67
788.797	36.18
788.978	50.52
789.159	52.56
789.34	109.91
789.522	-2.73
789.703	25.94
789.884	142.68
790.065	89.43
790.246	171.35
790.427	38.23
790.607	163.15
790.788	136.53
790.969	42.32
791.15	27.99
791.331	-25.26
791.512	30.04
791.693	-29.35
791.874	-43.69
792.054	208.21
792.235	173.39
792.416	-10.92
792.597	11.61
792.778	75.09
792.958	9.56
793.139	46.42
793.32	79.19
793.5	-60.07
793.681	101.72
793.862	52.56
794.042	25.94
794.223	-10.92
794.404	75.09
794.584	-39.59
794.765	1.37
794.945	-2.73
795.126	36.18
795.306	83.28
795.487	68.95
795.667	15.7
795.848	25.94
796.028	95.57
796.209	50.52
796.389	83.28
796.57	5.46
796.75	-35.5
796.93	107.86
797.111	-10.92
797.291	-55.98
797.471	34.13
797.652	-31.4
797.832	17.75
798.012	62.8
798.192	-55.98
798.373	-51.88
798.553	52.56
798.733	66.9
798.913	-70.31
799.093	-27.31
799.274	-8.87
799.454	60.76
799.634	93.52
799.814	54.61
799.994	93.52
800.174	34.13
800.354	85.33
800.534	-19.11
800.714	40.28
800.894	21.85
801.074	-37.55
801.254	15.7
801.434	120.15
801.614	-19.11
801.794	3.41
801.974	1774.91
802.154	-27.31
802.334	167.25
802.514	-29.35
802.693	-47.79
802.873	21.85
803.053	54.61
803.233	93.52
803.413	-25.26
803.592	-35.5
803.772	-49.83
803.952	107.86
804.131	-144.04
804.311	81.24
804.491	105.81
804.67	-23.21
804.85	-25.26
805.03	21.85
805.209	103.76
805.389	60.76
805.568	-8.87
805.748	68.95
805.928	19.8
806.107	13.65
806.287	7.51
806.466	5.46
806.646	-0.68
806.825	34.13
807.004	-60.07
807.184	85.33
807.363	99.67
807.543	42.32
807.722	-84.65
807.901	109.91
808.081	56.66
808.26	-51.88
808.439	91.48
808.619	52.56
808.798	25.94
808.977	83.28
809.156	62.8
809.336	54.61
809.515	111.96
809.694	42.32
809.873	-66.22
810.052	25.94
810.231	91.48
810.411	79.19
810.59	58.71
810.769	11.61
810.948	54.61
811.127	-117.42
811.306	21.85
811.485	-92.84
811.664	165.2
811.843	79.19
812.022	62.8
812.201	-72.36
812.38	7.51
812.559	-66.22
812.737	42.32
812.916	-47.79
813.095	-12.97
813.274	52.56
813.453	36.18
813.632	97.62
813.811	87.38
813.989	-19.11
814.168	13.65
814.347	-29.35
814.526	34.13
814.704	181.59
814.883	81.24
815.062	-10.92
815.24	32.08
815.419	-23.21
815.598	81.24
815.776	-12.97
815.955	21.85
816.133	-113.32
816.312	-0.68
816.49	-43.69
816.669	-17.07
816.847	-23.21
817.026	50.52
817.204	32.08
817.383	-19.11
817.561	-82.6
817.74	64.85
817.918	36.18
818.097	-53.93
818.275	-45.74
818.453	75.09
818.632	-8.87
818.81	25.94
818.988	-78.51
819.167	7.51
819.345	25.94
819.523	-88.75
819.701	30.04
819.879	46.42
820.058	126.29
820.236	36.18
820.414	-23.21
820.592	-47.79
820.77	9.56
820.948	42.32
821.127	34.13
821.305	30.04
821.483	-62.12
821.661	81.24
821.839	32.08
822.017	-21.16
822.195	-0.68
822.373	56.66
822.551	27.99
822.729	27.99
822.907	85.33
823.085	97.62
823.262	30.04
823.44	-82.6
823.618	9.56
823.796	46.42
823.974	7.51
824.152	-4.78
824.329	-72.36
824.507	21.85
824.685	118.1
824.863	-10.92
825.04	-27.31
825.218	17.75
825.396	-35.5
825.574	-19.11
825.751	54.61
825.929	60.76
826.107	-101.03
826.284	-23.21
826.462	71
826.639	-49.83
826.817	-74.41
826.994	62.8
827.172	-80.55
827.349	103.76
827.527	-27.31
827.704	105.81
827.882	50.52
828.059	-47.79
828.237	-25.26
828.414	32.08
828.591	-70.31
828.769	5.46
828.946	-43.69
829.124	36.18
829.301	87.38
829.478	13.65
829.655	11.61
829.833	11.61
830.01	-68.27
830.187	32.08
830.364	-6.83
830.542	11.61
830.719	163.15
830.896	93.52
831.073	42.32
831.25	81.24
831.427	21.85
831.604	97.62
831.782	-31.4
831.959	136.53
832.136	34.13
832.313	54.61
832.49	36.18
832.667	11.61
832.844	-6.83
833.021	152.92
833.198	36.18
833.374	9.56
833.551	77.14
833.728	19.8
833.905	134.48
834.082	-125.61
834.259	-0.68
834.436	85.33
834.612	13.65
834.789	97.62
834.966	-2.73
835.143	-4.78
835.319	-47.79
835.496	-29.35
835.673	30.04
835.85	36.18
836.026	42.32
836.203	85.33
836.38	-101.03
836.556	58.71
836.733	-23.21
836.909	159.06
837.086	-29.35
837.262	-62.12
837.439	54.61
837.616	-21.16
837.792	-0.68
837.968	30.04
838.145	-129.7
838.321	30.04
838.498	23.89
838.674	81.24
838.851	101.72
839.027	-41.64
839.203	36.18
839.38	116.05
839.556	-31.4
839.732	58.71
839.909	-66.22
840.085	56.66
840.261	3.41
840.437	52.56
840.614	3.41
840.79	95.57
840.966	56.66
841.142	42.32
841.318	-45.74
841.494	97.62
841.671	58.71
841.847	-131.75
842.023	-51.88
842.199	-2.73
842.375	105.81
842.551	-109.22
842.727	-60.07
842.903	138.58
843.079	32.08
843.255	124.24
843.431	-21.16
843.607	-19.11
843.783	-96.94
843.959	56.66
844.134	11.61
844.31	19.8
844.486	-47.79
844.662	-37.55
844.838	-37.55
845.013	99.67
845.189	58.71
845.365	71
845.541	-51.88
845.716	-21.16
845.892	-19.11
846.068	17.75
846.244	-86.7
846.419	-25.26
846.595	-55.98
846.77	-60.07
846.946	46.42
847.122	-2.73
847.297	42.32
847.473	116.05
847.648	-68.27
847.824	9.56
847.999	-58.03
848.175	-29.35
848.35	71
848.526	99.67
848.701	68.95
848.876	99.67
849.052	95.57
849.227	-37.55
849.403	62.8
849.578	73.04
849.753	60.76
849.929	44.37
850.104	-12.97
850.279	36.18
850.454	-0.68
850.63	-4.78
850.805	-37.55
850.98	-25.26
851.155	52.56
851.33	-64.17
851.505	-123.56
851.681	85.33
851.856	-21.16
852.031	19.8
852.206	-29.35
852.381	-27.31
852.556	34.13
852.731	30.04
852.906	27.99
853.081	58.71
853.256	99.67
853.431	5.46
853.606	-47.79
853.781	-23.21
853.956	-76.46
854.131	-17.07
854.305	-98.99
854.48	-76.46
854.655	-80.55
854.83	-78.51
855.005	60.76
855.18	-8.87
855.354	-6.83
855.529	13.65
855.704	-68.27
855.879	15.7
856.053	-64.17
856.228	-70.31
856.403	-164.52
856.577	36.18
856.752	-72.36
856.926	58.71
857.101	-35.5
857.276	-86.7
857.45	27.99
857.625	60.76
857.799	-31.4
857.974	9.56
858.148	-66.22
858.323	52.56
858.497	13.65
858.672	-21.16
858.846	-39.59
859.02	5.46
859.195	-88.75
859.369	19.8
859.543	-25.26
859.718	-8.87
859.892	-31.4
860.066	-35.5
860.241	-37.55
860.415	-98.99
860.589	46.42
860.763	-33.45
860.938	21.85
861.112	15.7
861.286	7.51
861.46	77.14
861.634	-64.17
861.808	42.32
861.982	-23.21
862.157	-103.08
862.331	21.85
862.505	-141.99
862.679	-53.93
862.853	50.52
863.027	-70.31
863.201	138.58
863.375	-8.87
863.549	9.56
863.722	120.15
863.896	109.91
864.07	-109.22
864.244	83.28
864.418	50.52
864.592	48.47
864.766	77.14
864.939	48.47
865.113	-49.83
865.287	97.62
865.461	-146.09
865.634	-6.83
865.808	-33.45
865.982	-31.4
866.156	-47.79
866.329	-49.83
866.503	52.56
866.676	56.66
866.85	27.99
867.024	-55.98
867.197	54.61
867.371	81.24
867.544	-0.68
867.718	-154.28
867.891	97.62
868.065	-55.98
868.238	-12.97
868.412	34.13
868.585	-41.64
868.759	-35.5
868.932	-0.68
869.105	-33.45
869.279	21.85
869.452	-66.22
869.625	21.85
869.799	50.52
869.972	-21.16
870.145	23.89
870.319	62.8
870.492	7.51
870.665	-33.45
870.838	-74.41
871.011	-45.74
871.185	19.8
871.358	27.99
871.531	91.48
871.704	-37.55
871.877	-8.87
872.05	-37.55
872.223	-55.98
872.396	97.62
872.569	11.61
872.742	-119.46
872.915	64.85
873.088	-98.99
873.261	-43.69
873.434	1.37
873.607	-15.02
873.78	56.66
873.953	-150.18
874.126	62.8
874.299	62.8
874.471	-90.79
874.644	-4.78
874.817	48.47
874.99	126.29
875.163	15.7
875.335	15.7
875.508	-4.78
875.681	118.1
875.853	-37.55
876.026	-12.97
876.199	144.72
876.371	30.04
876.544	11.61
876.717	50.52
876.889	-33.45
877.062	27.99
877.234	-19.11
877.407	-84.65
877.579	-27.31
877.752	13.65
877.924	25.94
878.097	91.48
878.269	-43.69
878.442	32.08
878.614	27.99
878.786	-70.31
878.959	-64.17
879.131	38.23
879.303	-96.94
879.476	-37.55
879.648	99.67
879.82	-0.68
879.993	-58.03
880.165	-6.83
880.337	-39.59
880.509	30.04
880.681	-51.88
880.854	-70.31
881.026	34.13
881.198	146.77
881.37	-12.97
881.542	-31.4
881.714	-60.07
881.886	23.89
882.058	-21.16
882.23	46.42
882.402	-64.17
882.574	99.67
882.746	-15.02
882.918	161.11
883.09	11.61
883.262	-43.69
883.434	3.41
883.606	-135.85
883.778	38.23
883.95	150.87
884.122	-12.97
884.293	89.43
884.465	-45.74
884.637	27.99
884.809	-68.27
884.98	-8.87
885.152	17.75
885.324	75.09
885.496	13.65
885.667	-43.69
885.839	-12.97
886.011	136.53
886.182	68.95
886.354	58.71
886.525	-25.26
886.697	-23.21
886.869	-55.98
887.04	-45.74
887.212	42.32
887.383	185.68
887.555	-64.17
887.726	-51.88
887.897	62.8
888.069	-45.74
888.24	58.71
888.412	25.94
888.583	25.94
888.754	-10.92
888.926	-43.69
889.097	-105.13
889.268	-49.83
889.44	34.13
889.611	-141.99
889.782	-121.51
889.953	-80.55
890.125	97.62
890.296	-47.79
890.467	-66.22
890.638	-21.16
890.809	-47.79
890.98	-23.21
891.151	-23.21
891.323	50.52
891.494	-0.68
891.665	-6.83
891.836	-2.73
892.007	30.04
892.178	-29.35
892.349	17.75
892.52	-62.12
892.691	-6.83
892.862	50.52
893.032	-123.56
893.203	42.32
893.374	54.61
893.545	87.38
893.716	-58.03
893.887	54.61
894.057	-76.46
894.228	-23.21
894.399	-4.78
894.57	87.38
894.74	-21.16
894.911	99.67
895.082	-45.74
895.253	-43.69
895.423	50.52
895.594	68.95
895.764	42.32
895.935	-31.4
896.106	54.61
896.276	-60.07
896.447	17.75
896.617	-19.11
896.788	-84.65
896.958	-12.97
897.129	23.89
897.299	-33.45
897.47	62.8
897.64	64.85
897.81	-4.78
897.981	-23.21
898.151	-47.79
898.322	-64.17
898.492	-51.88
898.662	-39.59
898.832	-101.03
899.003	-51.88
899.173	48.47
899.343	25.94
899.513	-76.46
