Data from USB4F104151__94__10-35-19-729.txt Node

Date: Wed Feb 26 10:35:19 EST 2025
User: louis
Spectrometer: USB4F10415
Trigger mode: 4
Integration Time (sec): 1.000000E-1
Scans to average: 1
Electric dark correction enabled: true
Nonlinearity correction enabled: false
Boxcar width: 0
XAxis mode: Wavelengths
Number of Pixels in Spectrum: 3648
>>>>>Begin Spectral Data<<<<<
178.204	-432.97
178.424	-432.97
178.644	-432.97
178.864	-373.58
179.084	-355.15
179.304	21.67
179.524	-35.67
179.744	1.19
179.964	58.54
180.184	3.24
180.404	50.35
180.624	-25.43
180.844	42.15
181.064	-78.68
181.283	-25.43
181.503	-72.53
181.723	60.59
181.943	-115.54
182.163	205.99
182.383	11.43
182.602	-13.14
182.822	220.33
183.042	44.2
183.262	-25.43
183.482	-43.86
183.701	31.91
183.921	130.22
184.141	-103.25
184.361	124.07
184.58	138.41
184.8	60.59
185.02	-52.05
185.239	101.55
185.459	126.12
185.679	142.5
185.898	-80.72
186.118	111.78
186.338	91.31
186.557	62.63
186.777	-54.1
186.997	72.87
187.216	56.49
187.436	169.13
187.655	44.2
187.875	-15.19
188.095	48.3
188.314	99.5
188.534	126.12
188.753	-43.86
188.973	158.89
189.192	177.32
189.412	44.2
189.631	-43.86
189.851	81.07
190.07	179.37
190.29	-31.57
190.509	-78.68
190.729	-23.38
190.948	115.88
191.168	189.61
191.387	21.67
191.607	31.91
191.826	33.96
192.045	-54.1
192.265	-2.9
192.484	58.54
192.704	36.01
192.923	-0.85
193.142	175.27
193.362	117.93
193.581	107.69
193.8	5.29
194.02	64.68
194.239	44.2
194.458	124.07
194.678	-19.29
194.897	-13.14
195.116	128.17
195.335	38.06
195.555	72.87
195.774	7.34
195.993	152.74
196.212	101.55
196.432	13.48
196.651	33.96
196.87	-2.9
197.089	236.71
197.308	15.53
197.528	44.2
197.747	-19.29
197.966	113.83
198.185	152.74
198.404	9.39
198.623	87.21
198.842	81.07
199.062	-13.14
199.281	66.73
199.5	58.54
199.719	56.49
199.938	95.4
200.157	60.59
200.376	79.02
200.595	109.74
200.814	89.26
201.033	-45.91
201.252	144.55
201.471	9.39
201.69	85.16
201.909	62.63
202.128	93.35
202.347	74.92
202.566	11.43
202.785	-97.11
203.004	-15.19
203.223	214.18
203.442	-21.33
203.661	-54.1
203.879	72.87
204.098	130.22
204.317	60.59
204.536	187.56
204.755	101.55
204.974	130.22
205.193	-43.86
205.411	193.7
205.63	117.93
205.849	79.02
206.068	-7
206.287	19.63
206.505	130.22
206.724	33.96
206.943	-47.96
207.162	-13.14
207.381	156.84
207.599	7.34
207.818	64.68
208.037	-68.44
208.255	-31.57
208.474	29.87
208.693	140.46
208.911	109.74
209.13	99.5
209.349	101.55
209.567	103.59
209.786	101.55
210.005	19.63
210.223	79.02
210.442	11.43
210.661	23.72
210.879	74.92
211.098	42.15
211.316	-27.48
211.535	23.72
211.753	27.82
211.972	29.87
212.191	-29.52
212.409	-31.57
212.628	48.3
212.846	-25.43
213.065	25.77
213.283	126.12
213.502	40.11
213.72	-7
213.938	33.96
214.157	17.58
214.375	119.98
214.594	9.39
214.812	81.07
215.031	46.25
215.249	9.39
215.467	27.82
215.686	50.35
215.904	25.77
216.122	46.25
216.341	142.5
216.559	23.72
216.778	107.69
216.996	101.55
217.214	25.77
217.432	46.25
217.651	-82.77
217.869	-11.09
218.087	-2.9
218.306	7.34
218.524	56.49
218.742	64.68
218.96	21.67
219.179	42.15
219.397	46.25
219.615	244.9
219.833	83.11
220.051	-52.05
220.27	115.88
220.488	148.65
220.706	70.83
220.924	13.48
221.142	19.63
221.36	-37.72
221.578	101.55
221.796	3.24
222.015	-37.72
222.233	50.35
222.451	251.05
222.669	46.25
222.887	62.63
223.105	5.29
223.323	15.53
223.541	-80.72
223.759	130.22
223.977	38.06
224.195	87.21
224.413	126.12
224.631	-11.09
224.849	132.26
225.067	167.08
225.285	23.72
225.503	79.02
225.721	-109.4
225.939	60.59
226.157	-0.85
226.375	195.75
226.592	33.96
226.81	54.44
227.028	70.83
227.246	119.98
227.464	97.45
227.682	44.2
227.9	119.98
228.117	21.67
228.335	25.77
228.553	38.06
228.771	56.49
228.989	19.63
229.206	42.15
229.424	15.53
229.642	-19.29
229.86	11.43
230.077	124.07
230.295	107.69
230.513	165.03
230.731	134.31
230.948	152.74
231.166	148.65
231.384	103.59
231.601	-68.44
231.819	99.5
232.037	-31.57
232.254	-74.58
232.472	119.98
232.689	-41.81
232.907	99.5
233.125	29.87
233.342	17.58
233.56	-2.9
233.777	17.58
233.995	60.59
234.213	142.5
234.43	91.31
234.648	-19.29
234.865	-7
235.083	66.73
235.3	64.68
235.518	101.55
235.735	160.94
235.953	138.41
236.17	33.96
236.388	1.19
236.605	52.39
236.822	115.88
237.04	85.16
237.257	70.83
237.475	-60.24
237.692	62.63
237.909	113.83
238.127	-11.09
238.344	97.45
238.562	19.63
238.779	-90.96
238.996	5.29
239.214	27.82
239.431	85.16
239.648	1.19
239.865	74.92
240.083	9.39
240.3	-13.14
240.517	74.92
240.735	-11.09
240.952	128.17
241.169	146.6
241.386	124.07
241.603	-64.34
241.821	-47.96
242.038	-13.14
242.255	95.4
242.472	-66.39
242.689	42.15
242.907	79.02
243.124	103.59
243.341	42.15
243.558	13.48
243.775	-35.67
243.992	-25.43
244.209	124.07
244.426	95.4
244.643	91.31
244.86	-99.16
245.078	205.99
245.295	31.91
245.512	29.87
245.729	7.34
245.946	144.55
246.163	68.78
246.38	-64.34
246.597	70.83
246.814	89.26
247.031	72.87
247.248	29.87
247.464	17.58
247.681	72.87
247.898	101.55
248.115	50.35
248.332	-11.09
248.549	167.08
248.766	138.41
248.983	101.55
249.2	62.63
249.417	62.63
249.633	29.87
249.85	97.45
250.067	83.11
250.284	48.3
250.501	52.39
250.717	93.35
250.934	-103.25
251.151	36.01
251.368	23.72
251.585	17.58
251.801	56.49
252.018	31.91
252.235	128.17
252.451	-50
252.668	-11.09
252.885	152.74
253.102	165.03
253.318	33.96
253.535	19.63
253.752	-15.19
253.968	29.87
254.185	-11.09
254.401	-2.9
254.618	119.98
254.835	56.49
255.051	156.84
255.268	79.02
255.484	54.44
255.701	46.25
255.917	38.06
256.134	-88.92
256.351	64.68
256.567	-15.19
256.784	33.96
257	-9.05
257.217	142.5
257.433	85.16
257.65	21.67
257.866	173.22
258.082	-107.35
258.299	-56.15
258.515	-2.9
258.732	36.01
258.948	44.2
259.165	60.59
259.381	-45.91
259.597	101.55
259.814	119.98
260.03	17.58
260.246	52.39
260.463	126.12
260.679	140.46
260.895	33.96
261.112	91.31
261.328	31.91
261.544	29.87
261.761	169.13
261.977	-90.96
262.193	27.82
262.409	113.83
262.626	3.24
262.842	40.11
263.058	-39.76
263.274	152.74
263.49	89.26
263.707	38.06
263.923	117.93
264.139	52.39
264.355	46.25
264.571	70.83
264.787	91.31
265.004	185.51
265.22	-35.67
265.436	5.29
265.652	54.44
265.868	54.44
266.084	-58.2
266.3	68.78
266.516	-11.09
266.732	85.16
266.948	146.6
267.164	-62.29
267.38	76.97
267.596	21.67
267.812	144.55
268.028	95.4
268.244	3.24
268.46	-17.24
268.676	29.87
268.892	29.87
269.108	1.19
269.324	-2.9
269.54	-13.14
269.756	79.02
269.972	11.43
270.188	36.01
270.403	-21.33
270.619	11.43
270.835	189.61
271.051	-4.95
271.267	42.15
271.483	13.48
271.698	107.69
271.914	42.15
272.13	70.83
272.346	3.24
272.562	9.39
272.777	242.85
272.993	-9.05
273.209	-47.96
273.425	99.5
273.64	-41.81
273.856	74.92
274.072	-21.33
274.287	-0.85
274.503	64.68
274.719	27.82
274.934	-0.85
275.15	-74.58
275.366	21.67
275.581	-50
275.797	42.15
276.012	44.2
276.228	93.35
276.444	40.11
276.659	130.22
276.875	-72.53
277.09	91.31
277.306	-54.1
277.521	40.11
277.737	5.29
277.952	48.3
278.168	-17.24
278.383	38.06
278.599	58.54
278.814	70.83
279.03	42.15
279.245	138.41
279.461	15.53
279.676	156.84
279.892	-74.58
280.107	-39.76
280.322	-93.01
280.538	-4.95
280.753	-15.19
280.969	38.06
281.184	38.06
281.399	201.9
281.615	5.29
281.83	74.92
282.045	-31.57
282.26	29.87
282.476	91.31
282.691	183.46
282.906	62.63
283.122	36.01
283.337	-60.24
283.552	72.87
283.767	91.31
283.983	101.55
284.198	5.29
284.413	38.06
284.628	-13.14
284.843	19.63
285.058	68.78
285.274	74.92
285.489	-19.29
285.704	109.74
285.919	-50
286.134	-21.33
286.349	17.58
286.564	-33.62
286.779	128.17
286.995	70.83
287.21	-2.9
287.425	19.63
287.64	-19.29
287.855	54.44
288.07	-47.96
288.285	122.02
288.5	60.59
288.715	38.06
288.93	-66.39
289.145	50.35
289.36	66.73
289.575	58.54
289.79	95.4
290.004	50.35
290.219	89.26
290.434	7.34
290.649	83.11
290.864	19.63
291.079	68.78
291.294	74.92
291.509	76.97
291.724	25.77
291.938	31.91
292.153	74.92
292.368	58.54
292.583	17.58
292.798	95.4
293.012	81.07
293.227	31.91
293.442	-0.85
293.657	148.65
293.871	60.59
294.086	87.21
294.301	181.42
294.516	83.11
294.73	54.44
294.945	-45.91
295.16	-0.85
295.374	167.08
295.589	85.16
295.804	62.63
296.018	-13.14
296.233	173.22
296.447	91.31
296.662	-4.95
296.877	70.83
297.091	111.78
297.306	15.53
297.52	58.54
297.735	95.4
297.949	83.11
298.164	38.06
298.378	-4.95
298.593	-62.29
298.807	62.63
299.022	42.15
299.236	111.78
299.451	-45.91
299.665	72.87
299.88	44.2
300.094	146.6
300.309	-54.1
300.523	99.5
300.737	-93.01
300.952	101.55
301.166	93.35
301.381	-31.57
301.595	-35.67
301.809	48.3
302.024	33.96
302.238	13.48
302.452	79.02
302.667	-11.09
302.881	130.22
303.095	144.55
303.309	-9.05
303.524	-7
303.738	68.78
303.952	-45.91
304.166	33.96
304.381	-4.95
304.595	140.46
304.809	52.39
305.023	79.02
305.237	17.58
305.452	-45.91
305.666	60.59
305.88	74.92
306.094	46.25
306.308	74.92
306.522	76.97
306.736	74.92
306.95	185.51
307.164	76.97
307.379	29.87
307.593	79.02
307.807	109.74
308.021	85.16
308.235	50.35
308.449	-86.87
308.663	21.67
308.877	226.47
309.091	27.82
309.305	40.11
309.519	-45.91
309.733	156.84
309.947	1.19
310.161	107.69
310.374	31.91
310.588	44.2
310.802	-15.19
311.016	21.67
311.23	122.02
311.444	-13.14
311.658	1.19
311.872	122.02
312.085	50.35
312.299	68.78
312.513	107.69
312.727	74.92
312.941	-9.05
313.154	23.72
313.368	42.15
313.582	72.87
313.796	23.72
314.009	15.53
314.223	165.03
314.437	50.35
314.651	134.31
314.864	-9.05
315.078	76.97
315.292	-74.58
315.505	13.48
315.719	76.97
315.933	83.11
316.146	-0.85
316.36	-31.57
316.573	144.55
316.787	109.74
317.001	93.35
317.214	-7
317.428	66.73
317.641	-97.11
317.855	1.19
318.068	87.21
318.282	87.21
318.495	111.78
318.709	99.5
318.922	-9.05
319.136	140.46
319.349	165.03
319.563	9.39
319.776	136.36
319.99	-50
320.203	117.93
320.417	54.44
320.63	5.29
320.843	95.4
321.057	64.68
321.27	68.78
321.483	134.31
321.697	50.35
321.91	15.53
322.124	68.78
322.337	38.06
322.55	-56.15
322.763	54.44
322.977	70.83
323.19	-31.57
323.403	13.48
323.617	87.21
323.83	205.99
324.043	74.92
324.256	103.59
324.469	-70.48
324.683	144.55
324.896	11.43
325.109	-11.09
325.322	-58.2
325.535	79.02
325.748	95.4
325.962	13.48
326.175	-15.19
326.388	93.35
326.601	62.63
326.814	-19.29
327.027	-33.62
327.24	199.85
327.453	-90.96
327.666	54.44
327.879	105.64
328.092	29.87
328.305	-27.48
328.518	42.15
328.731	-4.95
328.944	-27.48
329.157	89.26
329.37	27.82
329.583	138.41
329.796	29.87
330.009	-74.58
330.222	50.35
330.435	171.18
330.648	76.97
330.861	38.06
331.073	7.34
331.286	148.65
331.499	60.59
331.712	31.91
331.925	101.55
332.138	62.63
332.35	25.77
332.563	21.67
332.776	99.5
332.989	29.87
333.202	13.48
333.414	23.72
333.627	52.39
333.84	52.39
334.053	19.63
334.265	25.77
334.478	-47.96
334.691	29.87
334.903	1.19
335.116	-11.09
335.329	1.19
335.541	87.21
335.754	107.69
335.966	23.72
336.179	27.82
336.392	-0.85
336.604	66.73
336.817	54.44
337.029	97.45
337.242	46.25
337.454	79.02
337.667	-11.09
337.88	140.46
338.092	9.39
338.305	79.02
338.517	-13.14
338.729	-7
338.942	134.31
339.154	-82.77
339.367	-33.62
339.579	105.64
339.792	81.07
340.004	136.36
340.217	74.92
340.429	3.24
340.641	-56.15
340.854	-33.62
341.066	33.96
341.278	70.83
341.491	195.75
341.703	76.97
341.915	-47.96
342.128	95.4
342.34	68.78
342.552	-35.67
342.764	79.02
342.977	-11.09
343.189	64.68
343.401	31.91
343.613	52.39
343.826	-7
344.038	-15.19
344.25	-7
344.462	-25.43
344.674	-19.29
344.886	44.2
345.099	83.11
345.311	124.07
345.523	-41.81
345.735	-70.48
345.947	3.24
346.159	1.19
346.371	33.96
346.583	42.15
346.795	148.65
347.007	-54.1
347.219	140.46
347.431	-23.38
347.643	95.4
347.855	-50
348.067	156.84
348.279	-43.86
348.491	74.92
348.703	68.78
348.915	-11.09
349.127	-95.06
349.339	62.63
349.551	17.58
349.763	54.44
349.975	17.58
350.187	117.93
350.399	140.46
350.61	140.46
350.822	72.87
351.034	66.73
351.246	60.59
351.458	58.54
351.669	-27.48
351.881	79.02
352.093	83.11
352.305	21.67
352.517	17.58
352.728	126.12
352.94	76.97
353.152	33.96
353.363	21.67
353.575	56.49
353.787	113.83
353.999	36.01
354.21	154.79
354.422	-60.24
354.633	72.87
354.845	5.29
355.057	56.49
355.268	72.87
355.48	81.07
355.692	-64.34
355.903	54.44
356.115	-56.15
356.326	-93.01
356.538	154.79
356.749	42.15
356.961	128.17
357.172	58.54
357.384	1.19
357.595	212.14
357.807	-39.76
358.018	36.01
358.23	36.01
358.441	158.89
358.653	89.26
358.864	15.53
359.075	7.34
359.287	21.67
359.498	46.25
359.709	38.06
359.921	107.69
360.132	97.45
360.344	40.11
360.555	-35.67
360.766	5.29
360.977	-7
361.189	140.46
361.4	40.11
361.611	117.93
361.823	70.83
362.034	140.46
362.245	-105.3
362.456	54.44
362.667	21.67
362.879	-21.33
363.09	81.07
363.301	93.35
363.512	25.77
363.723	-21.33
363.935	-7
364.146	54.44
364.357	21.67
364.568	64.68
364.779	-47.96
364.99	195.75
365.201	-33.62
365.412	146.6
365.623	-113.49
365.834	76.97
366.045	70.83
366.256	154.79
366.467	5.29
366.678	-68.44
366.889	56.49
367.1	-19.29
367.311	132.26
367.522	-2.9
367.733	81.07
367.944	89.26
368.155	1.19
368.366	85.16
368.577	115.88
368.788	136.36
368.999	-27.48
369.209	40.11
369.42	160.94
369.631	228.52
369.842	181.42
370.053	113.83
370.264	60.59
370.474	17.58
370.685	-2.9
370.896	36.01
371.107	91.31
371.317	-15.19
371.528	-37.72
371.739	140.46
371.95	128.17
372.16	74.92
372.371	-7
372.582	-99.16
372.792	68.78
373.003	54.44
373.214	60.59
373.424	113.83
373.635	3.24
373.846	124.07
374.056	27.82
374.267	19.63
374.477	109.74
374.688	-37.72
374.898	148.65
375.109	132.26
375.319	29.87
375.53	101.55
375.74	132.26
375.951	17.58
376.161	25.77
376.372	64.68
376.582	60.59
376.793	103.59
377.003	38.06
377.214	-60.24
377.424	136.36
377.635	58.54
377.845	44.2
378.055	97.45
378.266	-47.96
378.476	48.3
378.686	1.19
378.897	97.45
379.107	113.83
379.317	29.87
379.528	29.87
379.738	44.2
379.948	-56.15
380.158	126.12
380.369	9.39
380.579	132.26
380.789	89.26
380.999	109.74
381.21	111.78
381.42	236.71
381.63	54.44
381.84	199.85
382.05	83.11
382.261	130.22
382.471	189.61
382.681	-45.91
382.891	150.7
383.101	15.53
383.311	29.87
383.521	-62.29
383.731	105.64
383.941	76.97
384.151	74.92
384.361	52.39
384.571	62.63
384.781	81.07
384.991	236.71
385.201	126.12
385.411	93.35
385.621	38.06
385.831	81.07
386.041	44.2
386.251	21.67
386.461	109.74
386.671	-13.14
386.881	-4.95
387.091	25.77
387.301	162.98
387.511	31.91
387.72	128.17
387.93	52.39
388.14	-52.05
388.35	119.98
388.56	134.31
388.769	150.7
388.979	17.58
389.189	99.5
389.399	60.59
389.609	105.64
389.818	83.11
390.028	50.35
390.238	140.46
390.447	9.39
390.657	70.83
390.867	58.54
391.076	-74.58
391.286	107.69
391.496	9.39
391.705	36.01
391.915	167.08
392.125	93.35
392.334	42.15
392.544	138.41
392.753	58.54
392.963	-0.85
393.172	25.77
393.382	-4.95
393.591	124.07
393.801	7.34
394.01	134.31
394.22	119.98
394.429	21.67
394.639	50.35
394.848	29.87
395.058	36.01
395.267	40.11
395.477	97.45
395.686	89.26
395.895	175.27
396.105	177.32
396.314	21.67
396.524	46.25
396.733	17.58
396.942	72.87
397.152	58.54
397.361	27.82
397.57	60.59
397.78	66.73
397.989	109.74
398.198	226.47
398.407	33.96
398.617	76.97
398.826	1.19
399.035	9.39
399.244	107.69
399.453	146.6
399.663	52.39
399.872	31.91
400.081	-35.67
400.29	134.31
400.499	-2.9
400.708	150.7
400.917	72.87
401.127	44.2
401.336	27.82
401.545	261.29
401.754	93.35
401.963	101.55
402.172	-31.57
402.381	-7
402.59	5.29
402.799	-2.9
403.008	201.9
403.217	17.58
403.426	95.4
403.635	-0.85
403.844	70.83
404.053	44.2
404.262	13.48
404.471	187.56
404.68	70.83
404.888	44.2
405.097	52.39
405.306	70.83
405.515	87.21
405.724	5.29
405.933	165.03
406.142	58.54
406.35	138.41
406.559	1.19
406.768	52.39
406.977	146.6
407.185	62.63
407.394	52.39
407.603	-58.2
407.812	40.11
408.02	76.97
408.229	44.2
408.438	42.15
408.646	-50
408.855	62.63
409.064	-4.95
409.272	31.91
409.481	72.87
409.69	-9.05
409.898	11.43
410.107	44.2
410.315	60.59
410.524	-64.34
410.733	101.55
410.941	5.29
411.15	148.65
411.358	144.55
411.567	203.94
411.775	89.26
411.984	40.11
412.192	99.5
412.401	62.63
412.609	138.41
412.818	189.61
413.026	79.02
413.234	7.34
413.443	97.45
413.651	-0.85
413.86	58.54
414.068	103.59
414.276	111.78
414.485	-47.96
414.693	142.5
414.901	105.64
415.11	5.29
415.318	74.92
415.526	74.92
415.734	179.37
415.943	107.69
416.151	259.24
416.359	126.12
416.567	64.68
416.776	171.18
416.984	46.25
417.192	146.6
417.4	-50
417.608	-43.86
417.817	-50
418.025	140.46
418.233	212.14
418.441	-27.48
418.649	11.43
418.857	60.59
419.065	93.35
419.273	-4.95
419.481	132.26
419.689	95.4
419.897	-25.43
420.105	-19.29
420.313	95.4
420.521	173.22
420.729	107.69
420.937	52.39
421.145	-23.38
421.353	81.07
421.561	87.21
421.769	70.83
421.977	-13.14
422.185	140.46
422.393	46.25
422.601	132.26
422.809	132.26
423.017	13.48
423.224	140.46
423.432	107.69
423.64	11.43
423.848	171.18
424.056	15.53
424.263	83.11
424.471	-54.1
424.679	107.69
424.887	-47.96
425.094	154.79
425.302	97.45
425.51	7.34
425.718	160.94
425.925	160.94
426.133	3.24
426.341	234.66
426.548	58.54
426.756	81.07
426.964	72.87
427.171	3.24
427.379	79.02
427.586	44.2
427.794	95.4
428.001	113.83
428.209	79.02
428.417	185.51
428.624	38.06
428.832	156.84
429.039	33.96
429.247	89.26
429.454	189.61
429.662	205.99
429.869	136.36
430.076	105.64
430.284	146.6
430.491	244.9
430.699	148.65
430.906	228.52
431.114	91.31
431.321	140.46
431.528	140.46
431.736	138.41
431.943	171.18
432.15	193.7
432.358	169.13
432.565	220.33
432.772	38.06
432.979	165.03
433.187	234.66
433.394	261.29
433.601	130.22
433.808	187.56
434.016	171.18
434.223	234.66
434.43	181.42
434.637	259.24
434.844	279.72
435.052	195.75
435.259	324.77
435.466	251.05
435.673	267.43
435.88	302.25
436.087	312.49
436.294	339.11
436.501	269.48
436.708	263.33
436.915	240.81
437.122	332.97
437.329	183.46
437.537	322.73
437.743	341.16
437.95	429.22
438.157	355.49
438.364	345.25
438.571	304.29
438.778	468.13
438.985	404.64
439.192	382.12
439.399	386.21
439.606	410.79
439.813	455.84
440.02	613.54
440.227	591.01
440.433	558.24
440.64	572.58
440.847	441.51
441.054	455.84
441.261	744.61
441.467	552.1
441.674	568.48
441.881	664.74
442.088	658.59
442.294	814.24
442.501	699.55
442.708	806.05
442.914	758.94
443.121	773.28
443.328	799.9
443.534	838.81
443.741	912.54
443.948	720.03
444.154	984.22
444.361	1141.91
444.568	924.83
444.774	1084.57
444.981	951.45
445.187	1119.39
445.394	1160.34
445.6	1115.29
445.807	1244.31
446.013	1168.54
446.22	1090.71
446.426	1252.5
446.633	1391.77
446.839	1594.51
447.046	1436.82
447.252	1520.79
447.459	1531.03
447.665	1559.7
447.871	1752.21
448.078	1784.98
448.284	1774.74
448.491	1950.86
448.697	1873.04
448.903	2094.22
449.11	2098.31
449.316	2071.69
449.522	2219.14
449.728	2401.41
449.935	2387.08
450.141	2428.04
450.347	2528.39
450.553	2606.21
450.76	2563.2
450.966	2774.14
451.172	2849.92
451.378	2942.08
451.584	2864.25
451.791	3224.7
451.997	3271.8
452.203	3409.01
452.409	3632.24
452.615	3718.26
452.821	3607.67
453.027	3652.72
453.233	4146.28
453.44	4058.22
453.646	4189.29
453.852	4328.55
454.058	4359.27
454.264	4602.98
454.47	4969.57
454.676	5028.96
454.882	5434.46
455.088	5188.7
455.294	5653.59
455.5	5715.03
455.705	6155.34
455.911	6132.81
456.117	6513.74
456.323	6630.47
456.529	6569.03
456.735	7035.97
456.941	7296.06
457.147	7638.07
457.352	7779.38
457.558	7928.88
457.764	8680.49
457.97	8694.82
458.176	9233.44
458.381	9491.48
458.587	9663.51
458.793	10482.7
458.999	10109.97
459.204	11543.55
459.41	11734.01
459.616	11713.53
459.821	12270.58
460.027	13073.38
460.233	13661.15
460.438	13523.93
460.644	14242.77
460.85	14379.98
461.055	14889.93
461.261	15762.36
461.466	15539.13
461.672	15819.71
461.878	17480.61
462.083	17378.21
462.289	17742.75
462.494	18658.19
462.7	18674.57
462.905	18899.85
463.111	20329.33
463.316	21515.11
463.522	21429.09
463.727	22500.18
463.932	23288.65
464.138	23814.98
464.343	25072.43
464.549	25076.52
464.754	27048.72
464.959	27663.11
465.165	28115.71
465.37	27798.27
465.575	28209.92
465.781	29934.31
465.986	31089.36
466.191	30712.53
466.397	30135.01
466.602	29838.05
466.807	31722.18
467.012	32522.94
467.218	32875.19
467.423	32549.56
467.628	33979.04
467.833	35256.98
468.038	34728.6
468.244	34183.84
468.449	35877.51
468.654	35203.73
468.859	35347.09
469.064	35160.72
469.269	34220.7
469.474	34595.48
469.679	35461.77
469.885	34466.46
470.09	34859.67
470.295	35320.46
470.5	34503.32
470.705	34732.7
470.91	33684.14
471.115	33610.41
471.32	33786.54
471.525	33682.09
471.73	32703.16
471.935	32500.41
472.139	31539.91
472.344	31527.63
472.549	30984.91
472.754	30530.26
472.959	29569.77
473.164	29238
473.369	28580.6
473.574	28793.59
473.778	28666.61
473.983	28304.12
474.188	27790.08
474.393	26252.06
474.598	25953.05
474.802	25633.57
475.007	25430.82
475.212	25195.31
475.417	24310.58
475.621	23825.22
475.826	23804.74
476.031	23036.75
476.235	22477.65
476.44	22647.63
476.645	21898.08
476.849	21734.24
477.054	21496.67
477.259	20992.87
477.463	20966.25
477.668	20319.09
477.872	20077.43
478.077	19696.51
478.282	19245.96
478.486	18971.53
478.691	18854.79
478.895	18693.01
479.1	18461.58
479.304	18570.13
479.509	17398.69
479.713	18281.36
479.918	17431.46
480.122	17318.82
480.326	17331.11
480.531	17175.46
480.735	16919.46
480.94	16827.31
481.144	17542.05
481.348	16550.83
481.553	16724.91
481.757	16083.89
481.961	16233.39
482.166	16186.29
482.37	16026.55
482.574	15705.02
482.778	15731.64
482.983	15995.83
483.187	15485.89
483.391	15383.49
483.595	15139.78
483.8	14920.65
484.004	14945.22
484.208	14947.27
484.412	14928.84
484.616	14750.67
484.821	14525.39
485.025	14066.64
485.229	14353.36
485.433	13757.4
485.637	13677.53
485.841	13464.54
486.045	13405.15
486.249	13118.43
486.453	12827.62
486.657	12678.12
486.861	12674.03
487.065	12250.1
487.269	12153.84
487.473	11768.82
487.677	12094.45
487.881	11920.37
488.085	11670.52
488.289	11199.49
488.493	10994.69
488.697	11090.95
488.901	10730.5
489.105	10447.88
489.309	10214.41
489.512	10300.43
489.716	10101.78
489.92	9884.69
490.124	9434.14
490.328	9626.65
490.531	9337.88
490.735	9188.38
490.939	8832.04
491.143	8789.03
491.346	8524.84
491.55	8647.72
491.754	8223.79
491.958	8318
492.161	8150.06
492.365	8084.53
492.569	7666.74
492.772	7640.12
492.976	7830.58
493.18	7271.48
493.383	7554.1
493.587	7197.76
493.79	7334.97
493.994	6894.66
494.197	7064.64
494.401	6888.51
494.605	6972.48
494.808	7027.78
495.012	6927.42
495.215	6798.4
495.419	6687.81
495.622	6644.81
495.825	6536.26
496.029	6423.62
496.232	6620.23
496.436	6505.54
496.639	6370.38
496.843	6442.06
497.046	6464.58
497.249	6413.38
497.453	6286.41
497.656	6304.84
497.859	6173.77
498.063	6288.46
498.266	6454.34
498.469	6190.16
498.673	6198.35
498.876	6409.29
499.079	6417.48
499.282	6321.23
499.485	6687.81
499.689	6464.58
499.892	6585.41
500.095	6403.14
500.298	6710.34
500.501	6177.87
500.705	6478.92
500.908	6642.76
501.111	6650.95
501.314	6794.31
501.517	6861.89
501.72	6835.27
501.923	6814.79
502.126	6913.09
502.329	7019.58
502.532	7173.18
502.735	7044.16
502.938	7324.73
503.141	7224.38
503.344	7218.24
503.547	7453.75
503.75	7310.4
503.953	7662.65
504.156	7689.27
504.359	7652.41
504.562	7799.86
504.765	7822.39
504.968	8045.62
505.17	8174.64
505.373	8207.41
505.576	8346.67
505.779	8537.13
505.982	8533.03
506.185	8918.05
506.387	9057.31
506.59	9030.69
506.793	9374.75
506.996	9489.43
507.198	9755.67
507.401	9813.01
507.604	9993.23
507.807	10071.06
508.009	10144.78
508.212	10413.07
508.415	10634.25
508.617	10906.63
508.82	11174.91
509.022	11023.36
509.225	11369.47
509.428	11740.15
509.63	11854.84
509.833	11910.13
510.035	12727.27
510.238	12686.31
510.44	12946.41
510.643	13183.97
510.845	13577.18
511.048	13702.11
511.25	14046.16
511.453	14304.21
511.655	15176.64
511.858	15207.36
512.06	15588.28
512.262	15870.9
512.465	16067.51
512.667	16368.56
512.87	16520.11
513.072	17161.12
513.274	17671.07
513.477	17697.69
513.679	18203.54
513.881	18787.21
514.084	19065.74
514.286	19401.6
514.488	19702.65
514.69	20642.67
514.893	21060.46
515.095	21220.2
515.297	21730.14
515.499	22205.27
515.701	22448.98
515.904	23110.47
516.106	23542.6
516.308	24052.54
516.51	24275.77
516.712	24855.34
516.914	25643.81
517.116	26202.91
517.318	26229.53
517.52	26946.32
517.722	27376.39
517.925	27874.05
518.127	28635.89
518.329	28957.42
518.531	29063.92
518.733	30130.91
518.935	30743.25
519.136	30808.79
519.338	31648.46
519.54	32430.78
519.742	32475.84
519.944	33010.35
520.146	33831.59
520.348	34058.91
520.55	34286.24
520.752	34548.38
520.954	35342.99
521.155	35351.18
521.357	36055.68
521.559	36590.2
521.761	37350
521.963	37212.79
522.164	37630.57
522.366	38337.12
522.568	38120.04
522.77	38795.87
522.971	39483.98
523.173	39297.62
523.375	39766.6
523.576	39617.1
523.778	39848.52
523.98	40204.87
524.181	40329.8
524.383	40733.25
524.584	40903.23
524.786	40675.9
524.988	41073.21
525.189	41108.02
525.391	41269.81
525.592	41480.75
525.794	41562.67
525.995	41323.06
526.197	41720.37
526.398	41421.36
526.6	41531.95
526.801	41237.05
527.003	41591.34
527.204	41083.45
527.406	41146.93
527.607	40954.43
527.808	40888.89
528.01	40116.81
528.211	40294.98
528.412	40419.91
528.614	39871.05
528.815	39592.53
529.016	39756.36
529.218	39273.04
529.419	39385.68
529.62	38437.47
529.822	38181.48
530.023	38048.36
530.224	37800.55
530.425	37266.03
530.626	36553.34
530.828	36006.53
531.029	36401.79
531.23	35646.09
531.431	35449.49
531.632	35005.08
531.833	34687.64
532.035	34292.38
532.236	33829.54
532.437	33581.74
532.638	32973.49
532.839	32930.48
533.04	32547.51
533.241	31595.21
533.442	31957.7
533.643	31089.36
533.844	30663.38
534.045	30540.5
534.246	29780.71
534.447	29727.46
534.648	29037.3
534.849	28785.4
535.05	28304.12
535.251	28035.84
535.451	27618.05
535.652	27261.71
535.853	26780.43
536.054	27046.67
536.255	26252.06
536.456	25625.38
536.657	25748.26
536.857	24994.61
537.058	24814.38
537.259	24609.59
537.46	24144.7
537.66	23757.63
537.861	23604.03
538.062	23096.14
538.263	23069.51
538.463	22764.37
538.664	22399.83
538.865	22178.65
539.065	22023
539.266	21670.75
539.466	21621.6
539.667	21037.93
539.868	21019.5
540.068	20984.68
540.269	20337.52
540.469	20358
540.67	19929.98
540.87	19686.27
541.071	19360.64
541.271	19454.85
541.472	18867.08
541.672	19112.84
541.873	18551.7
542.073	18103.19
542.274	18209.68
542.474	17922.97
542.675	17943.45
542.875	17759.13
543.075	17572.77
543.276	16931.75
543.476	17224.61
543.676	16868.27
543.877	16577.45
544.077	16239.54
544.277	16167.86
544.478	15924.15
544.678	16153.52
544.878	15731.64
545.078	15621.05
545.279	15209.41
545.479	14945.22
545.679	14980.04
545.879	14840.78
546.079	14668.75
546.28	14199.76
546.48	14306.26
546.68	14306.26
546.88	14015.44
547.08	13693.91
547.28	13689.82
547.48	13233.12
547.68	13216.74
547.88	13126.63
548.081	12864.49
548.281	12819.43
548.481	12694.5
548.681	12606.44
548.881	12297.2
549.081	12071.92
549.28	12159.99
549.48	12024.82
549.68	11629.56
549.88	11633.66
550.08	11164.67
550.28	11316.22
550.48	11297.79
550.68	11136
550.88	10785.8
551.08	10331.15
551.279	10748.93
551.479	10314.77
551.679	10195.98
551.879	10036.24
552.079	10118.16
552.278	9896.98
552.478	9653.27
552.678	9391.13
552.878	9350.17
553.077	9100.32
553.277	8948.77
553.477	9077.79
553.676	8938.53
553.876	8631.33
554.076	8571.94
554.275	8496.17
554.475	8223.79
554.674	8137.77
554.874	7994.42
555.074	7646.26
555.273	7808.05
555.473	7605.3
555.672	7400.51
555.872	7386.17
556.071	7296.06
556.271	7435.32
556.47	7060.54
556.67	6839.36
556.869	6700.1
557.068	6573.13
557.268	6405.19
557.467	6538.31
557.667	6515.78
557.866	6098
558.065	6204.49
558.265	5975.12
558.464	5839.95
558.663	5874.77
558.863	5704.79
559.062	5815.38
559.261	5520.47
559.461	5504.09
559.66	5399.64
559.859	5432.41
560.058	5168.22
560.258	5082.21
560.457	5082.21
560.656	5106.78
560.855	4985.95
561.054	4914.27
561.253	4695.14
561.453	4836.45
561.652	4631.65
561.851	4564.07
562.05	4420.71
562.249	4271.21
562.448	4508.77
562.647	4324.46
562.846	4265.07
563.045	4129.9
563.244	3845.23
563.443	3953.77
563.642	3972.21
563.841	3945.58
564.04	3902.58
564.239	3791.98
564.438	3759.22
564.637	3587.19
564.836	3597.43
565.035	3535.99
565.234	3525.75
565.432	3392.63
565.631	3554.42
565.83	3409.01
566.029	3282.04
566.228	3216.51
566.427	3347.58
566.625	3028.09
566.824	3189.88
567.023	3062.91
567.222	3034.24
567.42	2952.32
567.619	2907.26
567.818	2974.85
568.016	2991.23
568.215	2872.45
568.414	2878.59
568.612	2804.86
568.811	2741.38
569.01	2557.06
569.208	2561.16
569.407	2587.78
569.605	2612.35
569.804	2352.26
570.002	2491.52
570.201	2425.99
570.4	2413.7
570.598	2296.97
570.797	2296.97
570.995	2309.26
571.193	2194.57
571.392	2190.47
571.59	2124.94
571.789	2188.43
571.987	2141.32
572.186	1975.44
572.384	2059.4
572.582	1954.96
572.781	2061.45
572.979	1920.14
573.177	1885.33
573.376	1983.63
573.574	1870.99
573.772	1893.52
573.971	1848.46
574.169	1762.45
574.367	1864.85
574.565	1653.91
574.763	1744.02
574.962	1787.02
575.16	1698.96
575.358	1606.8
575.556	1602.71
575.754	1516.69
575.952	1580.18
576.151	1651.86
576.349	1528.98
576.547	1512.6
576.745	1496.21
576.943	1471.64
577.141	1406.1
577.339	1332.37
577.537	1287.32
577.735	1342.61
577.933	1352.85
578.131	1299.61
578.329	1354.9
578.527	1301.65
578.725	1277.08
578.923	1217.69
579.121	1299.61
579.319	1066.14
579.516	1182.87
579.714	1352.85
579.912	1215.64
580.11	1053.85
580.308	1074.33
580.506	1029.27
580.704	949.4
580.901	853.15
581.099	1051.8
581.297	898.2
581.495	1002.65
581.692	996.51
581.89	1053.85
582.088	1014.94
582.285	873.63
582.483	933.02
582.681	912.54
582.878	844.96
583.076	980.12
583.274	828.57
583.471	1021.08
583.669	804
583.866	857.25
584.064	842.91
584.262	750.75
584.459	756.9
584.657	765.09
584.854	830.62
585.052	806.05
585.249	806.05
585.447	812.19
585.644	584.87
585.841	799.9
586.039	810.14
586.236	826.53
586.434	722.08
586.631	631.97
586.828	595.11
587.026	660.64
587.223	584.87
587.42	574.63
587.618	627.87
587.815	693.41
588.012	548
588.21	576.67
588.407	685.22
588.604	734.37
588.801	578.72
588.999	605.35
589.196	603.3
589.393	482.47
589.59	619.68
589.787	556.19
589.984	580.77
590.182	636.06
590.379	568.48
590.576	689.31
590.773	562.34
590.97	588.96
591.167	578.72
591.364	545.95
591.561	578.72
591.758	613.54
591.955	478.37
592.152	539.81
592.349	548
592.546	529.57
592.743	451.75
592.94	609.44
593.137	513.19
593.334	556.19
593.531	449.7
593.727	541.86
593.924	560.29
594.121	513.19
594.318	511.14
594.515	736.42
594.712	605.35
594.908	631.97
595.105	398.5
595.302	529.57
595.499	588.96
595.696	683.17
595.892	580.77
596.089	642.21
596.286	558.24
596.482	631.97
596.679	707.74
596.876	605.35
597.072	748.7
597.269	629.92
597.466	720.03
597.662	646.3
597.859	660.64
598.055	717.98
598.252	881.82
598.448	783.52
598.645	951.45
598.841	900.25
599.038	1021.08
599.234	912.54
599.431	1021.08
599.627	957.6
599.824	1033.37
600.02	1103
600.217	1113.24
600.413	1162.39
600.609	1103
600.806	1477.78
601.002	1346.71
601.198	1350.81
601.395	1426.58
601.591	1393.81
601.787	1449.11
601.984	1623.19
602.18	1629.33
602.376	1649.81
602.572	1746.06
602.769	1754.26
602.965	1879.18
603.161	1879.18
603.357	1961.1
603.553	2243.72
603.75	2057.36
603.946	2071.69
604.142	2229.38
604.338	2419.85
604.534	2327.69
604.73	2477.19
604.926	2534.53
605.122	2784.38
605.318	2843.78
605.514	2974.85
605.71	2731.14
605.906	3122.3
606.102	3138.68
606.298	3277.94
606.494	3374.2
606.69	3490.93
606.886	3503.22
607.082	3546.23
607.278	3773.55
607.474	3802.22
607.67	3859.57
607.866	3859.57
608.062	4101.23
608.257	4205.67
608.453	4156.52
608.649	4420.71
608.845	4564.07
609.041	4506.73
609.236	4844.64
609.432	4975.71
609.628	5114.97
609.824	5211.23
610.019	5246.04
610.215	5387.35
610.411	5755.99
610.606	5733.46
610.802	5921.87
610.998	5917.78
611.193	6267.98
611.389	6095.95
611.584	6573.13
611.78	6556.74
611.976	6956.1
612.171	7334.97
612.367	7322.68
612.562	7435.32
612.758	7586.87
612.953	7703.61
613.149	7939.12
613.344	8018.99
613.539	8381.48
613.735	8604.71
613.93	8811.56
614.126	8967.2
614.321	9561.11
614.517	9657.37
614.712	9810.96
614.907	10044.43
615.103	10351.63
615.298	10521.61
615.493	10724.36
615.688	11199.49
615.884	11578.36
616.079	11686.9
616.274	12190.7
616.47	12147.7
616.665	12608.49
616.86	12839.91
617.055	13069.28
617.25	13554.65
617.445	13853.66
617.641	14144.47
617.836	14642.12
618.031	14625.74
618.226	15080.39
618.421	15662.01
618.616	15846.33
618.811	15961.02
619.006	16772.01
619.201	16708.52
619.396	17529.76
619.591	17570.72
619.786	18187.16
619.981	18248.6
620.176	19231.62
620.371	19094.41
620.566	19868.54
620.761	19989.37
620.956	20771.69
621.151	20806.51
621.346	21396.32
621.541	21377.89
621.735	22440.79
621.93	22328.15
622.125	22868.81
622.32	23003.98
622.515	23475.01
622.709	24259.38
622.904	24404.79
623.099	24806.19
623.294	25535.27
623.488	25875.23
623.683	26465.05
623.878	26747.67
624.072	27425.54
624.267	27556.61
624.462	27962.11
624.656	28273.4
624.851	28746.48
625.046	29158.13
625.24	29534.95
625.435	29950.69
625.629	30403.29
625.824	30655.19
626.018	31083.22
626.213	30722.77
626.407	31744.71
626.602	31886.02
626.796	32823.99
626.991	33090.23
627.185	32721.59
627.38	33071.79
627.574	33378.99
627.768	33610.41
627.963	33780.39
628.157	33712.81
628.352	34192.03
628.546	33286.83
628.74	34196.13
628.935	33602.22
629.129	33948.32
629.323	33725.1
629.517	33573.55
629.712	33532.59
629.906	33280.69
630.1	32889.52
630.294	32776.89
630.489	32279.23
630.683	31990.47
630.877	31193.81
631.071	30644.95
631.265	30300.89
631.459	29770.47
631.653	29137.65
631.848	28250.88
632.042	27962.11
632.236	27319.05
632.43	26450.71
632.624	25991.97
632.818	24879.92
633.012	24216.38
633.206	23493.44
633.4	22920.01
633.594	21930.84
633.788	21519.2
633.982	20915.05
634.176	20052.86
634.369	19178.37
634.563	18350.99
634.757	17853.34
634.951	17367.97
635.145	16661.42
635.339	15993.78
635.533	15365.06
635.726	14599.12
635.92	13693.91
636.114	13415.39
636.308	12927.97
636.501	12504.04
636.695	12338.16
636.889	11277.31
637.083	10900.48
637.276	10525.71
637.47	10032.15
637.664	9647.13
637.857	9387.04
638.051	9057.31
638.244	8576.04
638.438	8133.68
638.632	8002.61
638.825	7234.62
639.019	7167.04
639.212	6837.31
639.406	6800.45
639.599	6448.2
639.793	6212.68
639.986	5876.82
640.18	5704.79
640.373	5477.46
640.567	5340.25
640.76	5266.52
640.954	4869.22
641.147	4674.66
641.34	4303.98
641.534	4396.14
641.727	4199.53
641.92	4076.65
642.114	3968.11
642.307	3728.5
642.5	3652.72
642.694	3437.69
642.887	3347.58
643.08	3331.19
643.273	3171.45
643.467	2980.99
643.66	2729.09
643.853	2737.28
644.046	2667.65
644.239	2530.44
644.432	2333.83
644.626	2256.01
644.819	2405.51
645.012	2225.29
645.205	2202.76
645.398	2149.51
645.591	1803.41
645.784	1776.78
645.977	1721.49
646.17	1633.43
646.363	1612.95
646.556	1606.8
646.749	1549.46
646.942	1479.83
647.135	1524.88
647.328	1307.8
647.521	1397.91
647.714	1203.35
647.907	1131.67
648.099	1189.02
648.292	1135.77
648.485	1074.33
648.678	912.54
648.871	990.36
649.064	1072.28
649.256	869.53
649.449	920.73
649.642	736.42
649.835	754.85
650.027	767.13
650.22	883.87
650.413	791.71
650.605	793.76
650.798	640.16
650.991	640.16
651.183	687.26
651.376	713.89
651.568	683.17
651.761	496.8
651.954	664.74
652.146	484.52
652.339	650.4
652.531	617.63
652.724	478.37
652.916	562.34
653.109	378.02
653.301	529.57
653.494	484.52
653.686	427.17
653.879	509.09
654.071	406.69
654.263	382.12
654.456	363.69
654.648	474.28
654.84	427.17
655.033	320.68
655.225	461.99
655.417	154.79
655.61	371.88
655.802	455.84
655.994	539.81
656.186	283.81
656.379	423.08
656.571	304.29
656.763	265.38
656.955	289.96
657.148	249
657.34	394.4
657.532	287.91
657.724	332.97
657.916	292.01
658.108	257.19
658.3	246.95
658.492	236.71
658.684	169.13
658.876	296.1
659.068	140.46
659.26	136.36
659.452	167.08
659.644	177.32
659.836	312.49
660.028	197.8
660.22	185.51
660.412	152.74
660.604	208.04
660.796	171.18
660.988	332.97
661.18	119.98
661.372	296.1
661.563	199.85
661.755	179.37
661.947	126.12
662.139	128.17
662.331	191.66
662.522	138.41
662.714	79.02
662.906	185.51
663.097	160.94
663.289	113.83
663.481	64.68
663.673	146.6
663.864	208.04
664.056	224.42
664.247	128.17
664.439	171.18
664.631	146.6
664.822	107.69
665.014	156.84
665.205	50.35
665.397	146.6
665.588	160.94
665.78	156.84
665.971	140.46
666.163	97.45
666.354	160.94
666.546	111.78
666.737	134.31
666.929	83.11
667.12	126.12
667.311	175.27
667.503	101.55
667.694	152.74
667.885	210.09
668.077	167.08
668.268	128.17
668.459	113.83
668.651	130.22
668.842	212.14
669.033	95.4
669.224	89.26
669.416	269.48
669.607	-4.95
669.798	46.25
669.989	179.37
670.18	54.44
670.371	150.7
670.563	27.82
670.754	226.47
670.945	124.07
671.136	212.14
671.327	50.35
671.518	154.79
671.709	201.9
671.9	259.24
672.091	203.94
672.282	130.22
672.473	74.92
672.664	25.77
672.855	23.72
673.046	128.17
673.237	173.22
673.428	138.41
673.619	203.94
673.809	138.41
674	224.42
674.191	152.74
674.382	177.32
674.573	27.82
674.764	177.32
674.954	249
675.145	-9.05
675.336	89.26
675.527	64.68
675.717	68.78
675.908	97.45
676.099	48.3
676.289	169.13
676.48	-58.2
676.671	134.31
676.861	148.65
677.052	107.69
677.243	113.83
677.433	44.2
677.624	156.84
677.814	210.09
678.005	148.65
678.195	218.28
678.386	130.22
678.576	113.83
678.767	44.2
678.957	130.22
679.148	269.48
679.338	228.52
679.529	119.98
679.719	81.07
679.909	165.03
680.1	240.81
680.29	249
680.481	136.36
680.671	195.75
680.861	134.31
681.052	238.76
681.242	181.42
681.432	193.7
681.622	228.52
681.813	83.11
682.003	212.14
682.193	175.27
682.383	197.8
682.573	177.32
682.764	158.89
682.954	212.14
683.144	281.77
683.334	203.94
683.524	181.42
683.714	263.33
683.904	244.9
684.094	189.61
684.284	115.88
684.474	359.59
684.664	238.76
684.854	179.37
685.044	193.7
685.234	201.9
685.424	265.38
685.614	107.69
685.804	246.95
685.994	279.72
686.184	156.84
686.374	122.02
686.564	199.85
686.753	199.85
686.943	144.55
687.133	181.42
687.323	185.51
687.513	212.14
687.702	126.12
687.892	95.4
688.082	203.94
688.272	152.74
688.461	236.71
688.651	304.29
688.841	251.05
689.03	179.37
689.22	169.13
689.41	228.52
689.599	283.81
689.789	107.69
689.979	396.45
690.168	216.23
690.358	253.09
690.547	195.75
690.737	169.13
690.926	146.6
691.116	244.9
691.305	281.77
691.495	277.67
691.684	117.93
691.874	181.42
692.063	203.94
692.252	224.42
692.442	214.18
692.631	189.61
692.82	255.14
693.01	152.74
693.199	138.41
693.388	177.32
693.578	208.04
693.767	228.52
693.956	222.38
694.146	193.7
694.335	203.94
694.524	165.03
694.713	257.19
694.902	136.36
695.092	169.13
695.281	156.84
695.47	205.99
695.659	210.09
695.848	238.76
696.037	142.5
696.226	292.01
696.415	173.22
696.604	253.09
696.793	234.66
696.982	222.38
697.171	302.25
697.36	181.42
697.549	175.27
697.738	56.49
697.927	185.51
698.116	185.51
698.305	160.94
698.494	177.32
698.683	142.5
698.872	246.95
699.061	214.18
699.25	64.68
699.438	124.07
699.627	177.32
699.816	267.43
700.005	83.11
700.193	191.66
700.382	222.38
700.571	179.37
700.76	187.56
700.948	271.53
701.137	234.66
701.326	193.7
701.514	130.22
701.703	214.18
701.892	175.27
702.08	289.96
702.269	111.78
702.457	60.59
702.646	228.52
702.834	169.13
703.023	326.82
703.212	218.28
703.4	232.62
703.589	148.65
703.777	183.46
703.965	150.7
704.154	185.51
704.342	134.31
704.531	154.79
704.719	185.51
704.907	246.95
705.096	58.54
705.284	101.55
705.472	205.99
705.661	224.42
705.849	251.05
706.037	306.34
706.226	93.35
706.414	265.38
706.602	132.26
706.79	261.29
706.979	107.69
707.167	220.33
707.355	62.63
707.543	257.19
707.731	212.14
707.919	171.18
708.107	148.65
708.296	138.41
708.484	64.68
708.672	177.32
708.86	234.66
709.048	181.42
709.236	89.26
709.424	179.37
709.612	146.6
709.8	119.98
709.988	154.79
710.176	259.24
710.364	244.9
710.551	132.26
710.739	205.99
710.927	150.7
711.115	144.55
711.303	277.67
711.491	275.62
711.679	150.7
711.866	220.33
712.054	160.94
712.242	232.62
712.43	228.52
712.617	193.7
712.805	216.23
712.993	249
713.181	31.91
713.368	224.42
713.556	177.32
713.744	134.31
713.931	402.6
714.119	312.49
714.306	111.78
714.494	113.83
714.682	165.03
714.869	5.29
715.057	187.56
715.244	146.6
715.432	226.47
715.619	167.08
715.807	185.51
715.994	187.56
716.182	183.46
716.369	312.49
716.556	183.46
716.744	76.97
716.931	105.64
717.119	212.14
717.306	195.75
717.493	265.38
717.681	113.83
717.868	167.08
718.055	199.85
718.242	212.14
718.43	195.75
718.617	289.96
718.804	152.74
718.991	275.62
719.179	218.28
719.366	310.44
719.553	267.43
719.74	214.18
719.927	160.94
720.114	224.42
720.301	144.55
720.488	175.27
720.676	212.14
720.863	251.05
721.05	378.02
721.237	238.76
721.424	310.44
721.611	212.14
721.798	60.59
721.985	115.88
722.172	298.15
722.358	146.6
722.545	304.29
722.732	218.28
722.919	246.95
723.106	287.91
723.293	224.42
723.48	349.35
723.667	277.67
723.853	363.69
724.04	214.18
724.227	265.38
724.414	226.47
724.6	259.24
724.787	421.03
724.974	384.16
725.161	251.05
725.347	195.75
725.534	152.74
725.72	357.54
725.907	255.14
726.094	285.86
726.28	289.96
726.467	244.9
726.653	138.41
726.84	324.77
727.027	316.58
727.213	310.44
727.4	253.09
727.586	283.81
727.773	191.66
727.959	169.13
728.145	251.05
728.332	281.77
728.518	150.7
728.705	300.2
728.891	322.73
729.077	287.91
729.264	83.11
729.45	251.05
729.636	287.91
729.823	285.86
730.009	353.45
730.195	271.53
730.382	308.39
730.568	169.13
730.754	281.77
730.94	257.19
731.126	179.37
731.313	318.63
731.499	205.99
731.685	277.67
731.871	367.78
732.057	244.9
732.243	275.62
732.429	294.05
732.615	341.16
732.801	298.15
732.987	255.14
733.173	285.86
733.359	273.57
733.545	365.73
733.731	314.53
733.917	375.97
734.103	306.34
734.289	271.53
734.475	300.2
734.661	347.3
734.847	267.43
735.033	322.73
735.219	330.92
735.404	193.7
735.59	242.85
735.776	230.57
735.962	351.4
736.148	363.69
736.333	296.1
736.519	265.38
736.705	285.86
736.89	185.51
737.076	289.96
737.262	177.32
737.447	281.77
737.633	222.38
737.819	359.59
738.004	234.66
738.19	363.69
738.375	328.87
738.561	328.87
738.747	277.67
738.932	259.24
739.118	418.98
739.303	263.33
739.489	294.05
739.674	244.9
739.859	220.33
740.045	408.74
740.23	275.62
740.416	218.28
740.601	267.43
740.786	283.81
740.972	179.37
741.157	273.57
741.342	257.19
741.528	177.32
741.713	392.36
741.898	199.85
742.084	296.1
742.269	312.49
742.454	375.97
742.639	320.68
742.824	271.53
743.01	345.25
743.195	367.78
743.38	261.29
743.565	308.39
743.75	271.53
743.935	402.6
744.12	382.12
744.305	197.8
744.49	251.05
744.675	318.63
744.86	222.38
745.045	302.25
745.23	289.96
745.415	244.9
745.6	351.4
745.785	230.57
745.97	394.4
746.155	312.49
746.34	310.44
746.525	328.87
746.71	394.4
746.895	242.85
747.079	228.52
747.264	230.57
747.449	369.83
747.634	357.54
747.819	304.29
748.003	269.48
748.188	177.32
748.373	298.15
748.557	330.92
748.742	251.05
748.927	277.67
749.111	208.04
749.296	238.76
749.481	355.49
749.665	269.48
749.85	255.14
750.034	310.44
750.219	187.56
750.404	122.02
750.588	283.81
750.773	140.46
750.957	281.77
751.141	287.91
751.326	255.14
751.51	234.66
751.695	222.38
751.879	220.33
752.064	341.16
752.248	191.66
752.432	310.44
752.617	328.87
752.801	308.39
752.985	185.51
753.17	232.62
753.354	238.76
753.538	226.47
753.722	189.61
753.907	162.98
754.091	165.03
754.275	249
754.459	150.7
754.643	253.09
754.828	261.29
755.012	234.66
755.196	76.97
755.38	224.42
755.564	216.23
755.748	191.66
755.932	238.76
756.116	242.85
756.3	255.14
756.484	167.08
756.668	234.66
756.852	130.22
757.036	138.41
757.22	224.42
757.404	115.88
757.588	132.26
757.772	134.31
757.956	64.68
758.14	285.86
758.323	154.79
758.507	142.5
758.691	113.83
758.875	191.66
759.059	210.09
759.242	214.18
759.426	154.79
759.61	208.04
759.794	126.12
759.977	179.37
760.161	341.16
760.345	283.81
760.528	308.39
760.712	226.47
760.895	152.74
761.079	275.62
761.263	68.78
761.446	83.11
761.63	205.99
761.813	249
761.997	150.7
762.18	130.22
762.364	263.33
762.547	103.59
762.731	60.59
762.914	169.13
763.098	124.07
763.281	193.7
763.464	128.17
763.648	156.84
763.831	136.36
764.015	70.83
764.198	185.51
764.381	142.5
764.564	158.89
764.748	185.51
764.931	195.75
765.114	150.7
765.297	246.95
765.481	103.59
765.664	17.58
765.847	81.07
766.03	212.14
766.213	107.69
766.397	140.46
766.58	107.69
766.763	160.94
766.946	119.98
767.129	105.64
767.312	126.12
767.495	101.55
767.678	36.01
767.861	130.22
768.044	70.83
768.227	117.93
768.41	50.35
768.593	146.6
768.776	89.26
768.959	46.25
769.142	191.66
769.324	105.64
769.507	107.69
769.69	64.68
769.873	40.11
770.056	261.29
770.239	17.58
770.421	218.28
770.604	162.98
770.787	136.36
770.97	136.36
771.152	-4.95
771.335	97.45
771.518	146.6
771.7	183.46
771.883	226.47
772.066	138.41
772.248	76.97
772.431	193.7
772.613	134.31
772.796	29.87
772.978	101.55
773.161	232.62
773.343	48.3
773.526	66.73
773.708	21.67
773.891	5.29
774.073	58.54
774.256	23.72
774.438	212.14
774.621	54.44
774.803	17.58
774.985	89.26
775.168	195.75
775.35	126.12
775.532	132.26
775.715	95.4
775.897	169.13
776.079	89.26
776.261	42.15
776.444	74.92
776.626	105.64
776.808	56.49
776.99	5.29
777.173	72.87
777.355	99.5
777.537	115.88
777.719	115.88
777.901	17.58
778.083	-9.05
778.265	-15.19
778.447	105.64
778.629	40.11
778.811	169.13
778.993	62.63
779.175	138.41
779.357	42.15
779.539	66.73
779.721	64.68
779.903	199.85
780.085	23.72
780.267	122.02
780.449	48.3
780.631	109.74
780.812	177.32
780.994	130.22
781.176	76.97
781.358	5.29
781.54	50.35
781.721	76.97
781.903	126.12
782.085	76.97
782.267	165.03
782.448	-41.81
782.63	58.54
782.812	117.93
782.993	165.03
783.175	101.55
783.357	31.91
783.538	99.5
783.72	-0.85
783.901	83.11
784.083	119.98
784.264	160.94
784.446	40.11
784.627	29.87
784.809	81.07
784.99	31.91
785.172	-2.9
785.353	50.35
785.535	81.07
785.716	126.12
785.897	33.96
786.079	33.96
786.26	111.78
786.441	64.68
786.623	-37.72
786.804	-37.72
786.985	122.02
787.167	107.69
787.348	105.64
787.529	7.34
787.71	122.02
787.891	48.3
788.073	58.54
788.254	-41.81
788.435	146.6
788.616	-19.29
788.797	-99.16
788.978	31.91
789.159	36.01
789.34	70.83
789.522	40.11
789.703	76.97
789.884	13.48
790.065	136.36
790.246	150.7
790.427	-43.86
790.607	224.42
790.788	50.35
790.969	-17.24
791.15	52.39
791.331	76.97
791.512	44.2
791.693	-39.76
791.874	-64.34
792.054	156.84
792.235	103.59
792.416	-29.52
792.597	-39.76
792.778	136.36
792.958	13.48
793.139	54.44
793.32	-2.9
793.5	-39.76
793.681	115.88
793.862	91.31
794.042	44.2
794.223	-37.72
794.404	42.15
794.584	-88.92
794.765	27.82
794.945	15.53
795.126	89.26
795.306	42.15
795.487	-19.29
795.667	-113.49
795.848	62.63
796.028	-23.38
796.209	66.73
796.389	58.54
796.57	-4.95
796.75	3.24
796.93	-47.96
797.111	58.54
797.291	54.44
797.471	87.21
797.652	-66.39
797.832	-43.86
798.012	81.07
798.192	48.3
798.373	-101.2
798.553	15.53
798.733	74.92
798.913	-47.96
799.093	44.2
799.274	89.26
799.454	109.74
799.634	89.26
799.814	46.25
799.994	105.64
800.174	7.34
800.354	21.67
800.534	-29.52
800.714	42.15
800.894	27.82
801.074	31.91
801.254	-66.39
801.434	91.31
801.614	1.19
801.794	7.34
801.974	1987.72
802.154	-43.86
802.334	95.4
802.514	-17.24
802.693	-0.85
802.873	-78.68
803.053	148.65
803.233	36.01
803.413	48.3
803.592	9.39
803.772	-68.44
803.952	15.53
804.131	-58.2
804.311	31.91
804.491	38.06
804.67	17.58
804.85	-35.67
805.03	83.11
805.209	79.02
805.389	-45.91
805.568	-72.53
805.748	-13.14
805.928	-4.95
806.107	74.92
806.287	25.77
806.466	44.2
806.646	-72.53
806.825	-31.57
807.004	-21.33
807.184	54.44
807.363	70.83
807.543	33.96
807.722	17.58
807.901	40.11
808.081	76.97
808.26	-76.63
808.439	29.87
808.619	-33.62
808.798	-0.85
808.977	-15.19
809.156	113.83
809.336	19.63
809.515	81.07
809.694	-127.83
809.873	-21.33
810.052	38.06
810.231	126.12
810.411	81.07
810.59	128.17
810.769	27.82
810.948	46.25
811.127	-97.11
811.306	-7
811.485	-17.24
811.664	169.13
811.843	19.63
812.022	-0.85
812.201	36.01
812.38	11.43
812.559	-2.9
812.737	1.19
812.916	-68.44
813.095	-31.57
813.274	-33.62
813.453	115.88
813.632	19.63
813.811	64.68
813.989	-39.76
814.168	42.15
814.347	-17.24
814.526	1.19
814.704	42.15
814.883	122.02
815.062	31.91
815.24	58.54
815.419	-39.76
815.598	36.01
815.776	-101.2
815.955	-78.68
816.133	-113.49
816.312	48.3
816.49	-19.29
816.669	-2.9
816.847	-74.58
817.026	-17.24
817.204	-23.38
817.383	21.67
817.561	-88.92
817.74	68.78
817.918	27.82
818.097	-27.48
818.275	-13.14
818.453	132.26
818.632	52.39
818.81	126.12
818.988	-62.29
819.167	-56.15
819.345	29.87
819.523	27.82
819.701	13.48
819.879	29.87
820.058	9.39
820.236	91.31
820.414	79.02
820.592	29.87
820.77	-7
820.948	23.72
821.127	-7
821.305	13.48
821.483	-0.85
821.661	60.59
821.839	42.15
822.017	-41.81
822.195	25.77
822.373	93.35
822.551	64.68
822.729	-13.14
822.907	31.91
823.085	60.59
823.262	-2.9
823.44	54.44
823.618	23.72
823.796	15.53
823.974	25.77
824.152	7.34
824.329	15.53
824.507	46.25
824.685	27.82
824.863	-13.14
825.04	7.34
825.218	85.16
825.396	-13.14
825.574	58.54
825.751	-23.38
825.929	76.97
826.107	-60.24
826.284	-54.1
826.462	150.7
826.639	-27.48
826.817	-62.29
826.994	56.49
827.172	-88.92
827.349	74.92
827.527	54.44
827.704	-13.14
827.882	56.49
828.059	-25.43
828.237	-43.86
828.414	27.82
828.591	-76.63
828.769	5.29
828.946	-0.85
829.124	122.02
829.301	3.24
829.478	5.29
829.655	46.25
829.833	3.24
830.01	-179.03
830.187	56.49
830.364	-7
830.542	-7
830.719	160.94
830.896	19.63
831.073	48.3
831.25	7.34
831.427	1.19
831.604	64.68
831.782	1.19
831.959	81.07
832.136	-23.38
832.313	-29.52
832.49	7.34
832.667	-17.24
832.844	-68.44
833.021	132.26
833.198	36.01
833.374	-72.53
833.551	83.11
833.728	19.63
833.905	50.35
834.082	-103.25
834.259	-50
834.436	81.07
834.612	-156.5
834.789	70.83
834.966	-9.05
835.143	13.48
835.319	-13.14
835.496	-13.14
835.673	72.87
835.85	169.13
836.026	31.91
836.203	52.39
836.38	-35.67
836.556	-7
836.733	-76.63
836.909	122.02
837.086	15.53
837.262	-74.58
837.439	3.24
837.616	-88.92
837.792	-17.24
837.968	-33.62
838.145	-107.35
838.321	21.67
838.498	66.73
838.674	107.69
838.851	52.39
839.027	11.43
839.203	-25.43
839.38	-13.14
839.556	-35.67
839.732	25.77
839.909	-7
840.085	-39.76
840.261	-93.01
840.437	19.63
840.614	-80.72
840.79	87.21
840.966	72.87
841.142	60.59
841.318	-47.96
841.494	13.48
841.671	50.35
841.847	-109.4
842.023	-66.39
842.199	19.63
842.375	76.97
842.551	-154.45
842.727	-74.58
842.903	99.5
843.079	-9.05
843.255	97.45
843.431	50.35
843.607	19.63
843.783	-101.2
843.959	111.78
844.134	-58.2
844.31	173.22
844.486	-41.81
844.662	-15.19
844.838	-31.57
845.013	40.11
845.189	89.26
845.365	40.11
845.541	-4.95
845.716	36.01
845.892	115.88
846.068	-60.24
846.244	-86.87
846.419	13.48
846.595	-47.96
846.77	-13.14
846.946	60.59
847.122	-47.96
847.297	-113.49
847.473	175.27
847.648	-84.82
847.824	42.15
847.999	-90.96
848.175	85.16
848.35	-15.19
848.526	83.11
848.701	9.39
848.876	58.54
849.052	105.64
849.227	-29.52
849.403	-45.91
849.578	-43.86
849.753	42.15
849.929	44.2
850.104	-56.15
850.279	-31.57
850.454	54.44
850.63	83.11
850.805	-7
850.98	-0.85
851.155	64.68
851.33	-15.19
851.505	-68.44
851.681	66.73
851.856	-82.77
852.031	58.54
852.206	3.24
852.381	-88.92
852.556	-43.86
852.731	9.39
852.906	48.3
853.081	-0.85
853.256	91.31
853.431	-11.09
853.606	-70.48
853.781	-58.2
853.956	-150.36
854.131	-2.9
854.305	-43.86
854.48	21.67
854.655	-127.83
854.83	-7
855.005	-0.85
855.18	17.58
855.354	-25.43
855.529	46.25
855.704	-33.62
855.879	91.31
856.053	-88.92
856.228	-21.33
856.403	-154.45
856.577	-13.14
856.752	-68.44
856.926	-41.81
857.101	-7
857.276	-27.48
857.45	-4.95
857.625	93.35
857.799	9.39
857.974	1.19
858.148	-72.53
858.323	-9.05
858.497	-50
858.672	-54.1
858.846	27.82
859.02	79.02
859.195	-113.49
859.369	-37.72
859.543	62.63
859.718	-68.44
859.892	70.83
860.066	-64.34
860.241	-78.68
860.415	-23.38
860.589	13.48
860.763	-37.72
860.938	-70.48
861.112	1.19
861.286	31.91
861.46	64.68
861.634	-33.62
861.808	128.17
861.982	-23.38
862.157	-78.68
862.331	-13.14
862.505	-47.96
862.679	-121.68
862.853	-0.85
863.027	21.67
863.201	76.97
863.375	-25.43
863.549	76.97
863.722	-15.19
863.896	109.74
864.07	21.67
864.244	-64.34
864.418	42.15
864.592	29.87
864.766	50.35
864.939	-19.29
865.113	-52.05
865.287	68.78
865.461	-39.76
865.634	46.25
865.808	-82.77
865.982	3.24
866.156	-62.29
866.329	-107.35
866.503	46.25
866.676	113.83
866.85	31.91
867.024	-4.95
867.197	38.06
867.371	7.34
867.544	-23.38
867.718	-52.05
867.891	64.68
868.065	-68.44
868.238	54.44
868.412	46.25
868.585	-70.48
868.759	-115.54
868.932	19.63
869.105	-45.91
869.279	46.25
869.452	-27.48
869.625	15.53
869.799	-15.19
869.972	-111.44
870.145	-111.44
870.319	95.4
870.492	-21.33
870.665	-0.85
870.838	-80.72
871.011	-109.4
871.185	-0.85
871.358	-7
871.531	85.16
871.704	-25.43
871.877	19.63
872.05	-17.24
872.223	-127.83
872.396	74.92
872.569	38.06
872.742	-117.59
872.915	33.96
873.088	-29.52
873.261	-133.97
873.434	124.07
873.607	-60.24
873.78	117.93
873.953	-37.72
874.126	5.29
874.299	27.82
874.471	-66.39
874.644	-56.15
874.817	-4.95
874.99	99.5
875.163	-50
875.335	-9.05
875.508	-45.91
875.681	95.4
875.853	-101.2
876.026	3.24
876.199	50.35
876.371	33.96
876.544	-50
876.717	-0.85
876.889	-25.43
877.062	7.34
877.234	-58.2
877.407	-95.06
877.579	-0.85
877.752	13.48
877.924	64.68
878.097	-0.85
878.269	-9.05
878.442	36.01
878.614	117.93
878.786	29.87
878.959	13.48
879.131	1.19
879.303	-64.34
879.476	-43.86
879.648	27.82
879.82	1.19
879.993	-37.72
880.165	-9.05
880.337	-37.72
880.509	-7
880.681	-60.24
880.854	5.29
881.026	42.15
881.198	128.17
881.37	-50
881.542	-54.1
881.714	-11.09
881.886	-43.86
882.058	-31.57
882.23	31.91
882.402	-15.19
882.574	-19.29
882.746	60.59
882.918	111.78
883.09	15.53
883.262	-23.38
883.434	3.24
883.606	-60.24
883.778	-54.1
883.95	140.46
884.122	5.29
884.293	136.36
884.465	-11.09
884.637	85.16
884.809	-97.11
884.98	25.77
885.152	21.67
885.324	105.64
885.496	-78.68
885.667	-37.72
885.839	-31.57
886.011	85.16
886.182	66.73
886.354	23.72
886.525	23.72
886.697	25.77
886.869	-4.95
887.04	-56.15
887.212	38.06
887.383	81.07
887.555	33.96
887.726	13.48
887.897	-0.85
888.069	72.87
888.24	95.4
888.412	-11.09
888.583	27.82
888.754	9.39
888.926	-95.06
889.097	-39.76
889.268	-62.29
889.44	-70.48
889.611	-140.12
889.782	-80.72
889.953	-58.2
890.125	93.35
890.296	-82.77
890.467	-17.24
890.638	-17.24
890.809	-35.67
890.98	-54.1
891.151	50.35
891.323	52.39
891.494	21.67
891.665	-17.24
891.836	46.25
892.007	29.87
892.178	-29.52
892.349	13.48
892.52	9.39
892.691	-17.24
892.862	15.53
893.032	-43.86
893.203	3.24
893.374	-25.43
893.545	85.16
893.716	-113.49
893.887	-33.62
894.057	-23.38
894.228	-39.76
894.399	-19.29
894.57	105.64
894.74	-76.63
894.911	-37.72
895.082	-43.86
895.253	-142.16
895.423	-60.24
895.594	93.35
895.764	19.63
895.935	-54.1
896.106	5.29
896.276	5.29
896.447	-15.19
896.617	-23.38
896.788	-74.58
896.958	-113.49
897.129	-58.2
897.299	-72.53
897.47	107.69
897.64	60.59
897.81	25.77
897.981	11.43
898.151	-111.44
898.322	40.11
898.492	54.44
898.662	-70.48
898.832	-54.1
899.003	-2.9
899.173	29.87
899.343	-4.95
899.513	-95.06
