Data from USB4F104151__60__10-26-30-727.txt Node

Date: Wed Feb 26 10:26:30 EST 2025
User: louis
Spectrometer: USB4F10415
Trigger mode: 4
Integration Time (sec): 1.000000E-1
Scans to average: 1
Electric dark correction enabled: true
Nonlinearity correction enabled: false
Boxcar width: 0
XAxis mode: Wavelengths
Number of Pixels in Spectrum: 3648
>>>>>Begin Spectral Data<<<<<
178.204	-379.39
178.424	-379.39
178.644	-379.39
178.864	-375.29
179.084	-369.15
179.304	-29.18
179.524	-76.29
179.744	3.58
179.964	5.63
180.184	58.88
180.404	13.82
180.624	17.92
180.844	60.93
181.064	-53.76
181.283	28.16
181.503	-57.86
181.723	28.16
181.943	-64
182.163	118.27
182.383	-41.47
182.602	105.98
182.822	126.46
183.042	85.5
183.262	15.87
183.482	34.3
183.701	26.11
183.921	-10.75
184.141	-55.81
184.361	93.69
184.58	56.83
184.8	58.88
185.02	-0.51
185.239	101.89
185.459	7.68
185.679	99.84
185.898	-55.81
186.118	67.07
186.338	56.83
186.557	46.59
186.777	1.54
186.997	-45.57
187.216	97.79
187.436	192
187.655	105.98
187.875	52.74
188.095	56.83
188.314	60.93
188.534	101.89
188.753	-68.09
188.973	122.37
189.192	101.89
189.412	15.87
189.631	38.4
189.851	13.82
190.07	212.48
190.29	-31.23
190.509	9.73
190.729	-25.09
190.948	93.69
191.168	278.01
191.387	73.21
191.607	-20.99
191.826	91.65
192.045	99.84
192.265	67.07
192.484	75.26
192.704	9.73
192.923	38.4
193.142	189.95
193.362	71.17
193.581	112.13
193.8	58.88
194.02	99.84
194.239	40.45
194.458	52.74
194.678	58.88
194.897	13.82
195.116	91.65
195.335	44.54
195.555	99.84
195.774	46.59
195.993	62.98
196.212	19.97
196.432	28.16
196.651	-45.57
196.87	15.87
197.089	249.34
197.308	89.6
197.528	22.02
197.747	60.93
197.966	120.32
198.185	171.52
198.404	11.78
198.623	67.07
198.842	122.37
199.062	124.41
199.281	71.17
199.5	34.3
199.719	48.64
199.938	28.16
200.157	81.41
200.376	151.04
200.595	163.33
200.814	69.12
201.033	48.64
201.252	120.32
201.471	85.5
201.69	144.89
201.909	79.36
202.128	136.7
202.347	65.02
202.566	87.55
202.785	-66.05
203.004	-45.57
203.223	308.73
203.442	-6.66
203.661	-8.7
203.879	-4.61
204.098	128.51
204.317	-64
204.536	71.17
204.755	26.11
204.974	-0.51
205.193	36.35
205.411	142.85
205.63	22.02
205.849	50.69
206.068	87.55
206.287	-25.09
206.505	87.55
206.724	50.69
206.943	1.54
207.162	-51.71
207.381	110.08
207.599	26.11
207.818	48.64
208.037	-51.71
208.255	-12.8
208.474	60.93
208.693	40.45
208.911	-51.71
209.13	75.26
209.349	110.08
209.567	77.31
209.786	132.61
210.005	132.61
210.223	40.45
210.442	-76.29
210.661	40.45
210.879	52.74
211.098	-0.51
211.316	42.5
211.535	73.21
211.753	97.79
211.972	62.98
212.191	13.82
212.409	26.11
212.628	56.83
212.846	-18.94
213.065	52.74
213.283	151.04
213.502	32.26
213.72	79.36
213.938	15.87
214.157	-88.57
214.375	40.45
214.594	-2.56
214.812	81.41
215.031	77.31
215.249	97.79
215.467	17.92
215.686	103.93
215.904	157.18
216.122	7.68
216.341	163.33
216.559	40.45
216.778	69.12
216.996	81.41
217.214	7.68
217.432	-35.33
217.651	-45.57
217.869	91.65
218.087	15.87
218.306	-2.56
218.524	60.93
218.742	85.5
218.96	112.13
219.179	42.5
219.397	-6.66
219.615	325.12
219.833	105.98
220.051	48.64
220.27	34.3
220.488	134.65
220.706	120.32
220.924	40.45
221.142	3.58
221.36	144.89
221.578	15.87
221.796	22.02
222.015	75.26
222.233	83.45
222.451	146.94
222.669	36.35
222.887	36.35
223.105	24.06
223.323	56.83
223.541	-27.14
223.759	105.98
223.977	-18.94
224.195	159.23
224.413	142.85
224.631	24.06
224.849	108.03
225.067	161.28
225.285	-16.9
225.503	71.17
225.721	-156.16
225.939	7.68
226.157	-29.18
226.375	187.9
226.592	24.06
226.81	58.88
227.028	65.02
227.246	140.8
227.464	89.6
227.682	151.04
227.9	44.54
228.117	9.73
228.335	112.13
228.553	136.7
228.771	95.74
228.989	81.41
229.206	87.55
229.424	-45.57
229.642	-10.75
229.86	13.82
230.077	136.7
230.295	46.59
230.513	138.75
230.731	77.31
230.948	198.14
231.166	224.76
231.384	-53.76
231.601	-10.75
231.819	85.5
232.037	-4.61
232.254	-41.47
232.472	17.92
232.689	42.5
232.907	110.08
233.125	28.16
233.342	-2.56
233.56	15.87
233.777	24.06
233.995	75.26
234.213	108.03
234.43	73.21
234.648	50.69
234.865	-27.14
235.083	91.65
235.3	110.08
235.518	122.37
235.735	122.37
235.953	32.26
236.17	46.59
236.388	62.98
236.605	7.68
236.822	83.45
237.04	157.18
237.257	19.97
237.475	-74.24
237.692	83.45
237.909	71.17
238.127	11.78
238.344	101.89
238.562	71.17
238.779	-20.99
238.996	-16.9
239.214	40.45
239.431	-10.75
239.648	56.83
239.865	114.17
240.083	89.6
240.3	9.73
240.517	-57.86
240.735	44.54
240.952	157.18
241.169	40.45
241.386	134.65
241.603	38.4
241.821	-76.29
242.038	83.45
242.255	38.4
242.472	9.73
242.689	17.92
242.907	48.64
243.124	83.45
243.341	24.06
243.558	11.78
243.775	-25.09
243.992	-47.62
244.209	44.54
244.426	87.55
244.643	89.6
244.86	24.06
245.078	132.61
245.295	89.6
245.512	-8.7
245.729	40.45
245.946	34.3
246.163	65.02
246.38	-12.8
246.597	-45.57
246.814	1.54
247.031	19.97
247.248	-12.8
247.464	-8.7
247.681	36.35
247.898	99.84
248.115	60.93
248.332	24.06
248.549	132.61
248.766	175.61
248.983	91.65
249.2	42.5
249.417	99.84
249.633	54.78
249.85	167.42
250.067	65.02
250.284	62.98
250.501	67.07
250.717	73.21
250.934	-61.95
251.151	46.59
251.368	-16.9
251.585	52.74
251.801	34.3
252.018	-66.05
252.235	46.59
252.451	-43.52
252.668	-10.75
252.885	157.18
253.102	44.54
253.318	-10.75
253.535	38.4
253.752	52.74
253.968	3.58
254.185	-27.14
254.401	11.78
254.618	58.88
254.835	32.26
255.051	71.17
255.268	75.26
255.484	26.11
255.701	7.68
255.917	-12.8
256.134	-12.8
256.351	26.11
256.567	7.68
256.784	52.74
257	32.26
257.217	36.35
257.433	97.79
257.65	54.78
257.866	56.83
258.082	40.45
258.299	54.78
258.515	146.94
258.732	-23.04
258.948	19.97
259.165	11.78
259.381	-55.81
259.597	26.11
259.814	54.78
260.03	-10.75
260.246	19.97
260.463	108.03
260.679	130.56
260.895	97.79
261.112	56.83
261.328	52.74
261.544	15.87
261.761	173.57
261.977	40.45
262.193	-47.62
262.409	169.47
262.626	77.31
262.842	9.73
263.058	-66.05
263.274	40.45
263.49	73.21
263.707	30.21
263.923	136.7
264.139	-31.23
264.355	54.78
264.571	101.89
264.787	151.04
265.004	130.56
265.22	-6.66
265.436	-72.19
265.652	-2.56
265.868	52.74
266.084	-57.86
266.3	-0.51
266.516	-53.76
266.732	85.5
266.948	52.74
267.164	3.58
267.38	93.69
267.596	116.22
267.812	142.85
268.028	42.5
268.244	22.02
268.46	36.35
268.676	22.02
268.892	56.83
269.108	-10.75
269.324	-14.85
269.54	17.92
269.756	93.69
269.972	-12.8
270.188	85.5
270.403	3.58
270.619	7.68
270.835	77.31
271.051	69.12
271.267	-64
271.483	22.02
271.698	130.56
271.914	118.27
272.13	-37.38
272.346	-18.94
272.562	71.17
272.777	144.89
272.993	-33.28
273.209	1.54
273.425	83.45
273.64	-31.23
273.856	73.21
274.072	24.06
274.287	-72.19
274.503	120.32
274.719	155.13
274.934	32.26
275.15	-98.81
275.366	120.32
275.581	26.11
275.797	77.31
276.012	73.21
276.228	-51.71
276.444	42.5
276.659	48.64
276.875	-25.09
277.09	3.58
277.306	38.4
277.521	181.76
277.737	19.97
277.952	136.7
278.168	19.97
278.383	48.64
278.599	-0.51
278.814	93.69
279.03	-18.94
279.245	99.84
279.461	34.3
279.676	89.6
279.892	24.06
280.107	-78.33
280.322	-35.33
280.538	93.69
280.753	-33.28
280.969	-16.9
281.184	91.65
281.399	56.83
281.615	89.6
281.83	-23.04
282.045	22.02
282.26	-6.66
282.476	19.97
282.691	99.84
282.906	50.69
283.122	-2.56
283.337	-2.56
283.552	44.54
283.767	36.35
283.983	148.99
284.198	-4.61
284.413	73.21
284.628	-18.94
284.843	30.21
285.058	126.46
285.274	-2.56
285.489	-16.9
285.704	163.33
285.919	73.21
286.134	-29.18
286.349	77.31
286.564	15.87
286.779	122.37
286.995	48.64
287.21	-61.95
287.425	50.69
287.64	-29.18
287.855	19.97
288.07	-41.47
288.285	140.8
288.5	87.55
288.715	46.59
288.93	73.21
289.145	-53.76
289.36	77.31
289.575	42.5
289.79	-6.66
290.004	-35.33
290.219	105.98
290.434	13.82
290.649	-74.24
290.864	-8.7
291.079	30.21
291.294	34.3
291.509	11.78
291.724	44.54
291.938	-16.9
292.153	7.68
292.368	17.92
292.583	95.74
292.798	83.45
293.012	116.22
293.227	69.12
293.442	105.98
293.657	85.5
293.871	114.17
294.086	44.54
294.301	192
294.516	105.98
294.73	83.45
294.945	-41.47
295.16	85.5
295.374	196.09
295.589	144.89
295.804	-10.75
296.018	26.11
296.233	163.33
296.447	77.31
296.662	24.06
296.877	216.57
297.091	99.84
297.306	56.83
297.52	46.59
297.735	30.21
297.949	19.97
298.164	44.54
298.378	65.02
298.593	-94.72
298.807	-88.57
299.022	46.59
299.236	75.26
299.451	3.58
299.665	30.21
299.88	93.69
300.094	40.45
300.309	40.45
300.523	118.27
300.737	19.97
300.952	36.35
301.166	69.12
301.381	30.21
301.595	-8.7
301.809	62.98
302.024	24.06
302.238	-31.23
302.452	128.51
302.667	28.16
302.881	130.56
303.095	196.09
303.309	46.59
303.524	-8.7
303.738	34.3
303.952	38.4
304.166	52.74
304.381	-109.05
304.595	206.33
304.809	-29.18
305.023	40.45
305.237	38.4
305.452	50.69
305.666	79.36
305.88	85.5
306.094	71.17
306.308	103.93
306.522	77.31
306.736	153.09
306.95	105.98
307.164	3.58
307.379	36.35
307.593	36.35
307.807	142.85
308.021	116.22
308.235	54.78
308.449	-31.23
308.663	108.03
308.877	153.09
309.091	30.21
309.305	5.63
309.519	-76.29
309.733	148.99
309.947	-35.33
310.161	60.93
310.374	81.41
310.588	81.41
310.802	-98.81
311.016	38.4
311.23	28.16
311.444	9.73
311.658	73.21
311.872	151.04
312.085	155.13
312.299	122.37
312.513	85.5
312.727	34.3
312.941	-61.95
313.154	97.79
313.368	54.78
313.582	95.74
313.796	60.93
314.009	26.11
314.223	114.17
314.437	85.5
314.651	-4.61
314.864	-80.38
315.078	-51.71
315.292	-18.94
315.505	65.02
315.719	62.98
315.933	83.45
316.146	-0.51
316.36	-6.66
316.573	157.18
316.787	50.69
317.001	56.83
317.214	-8.7
317.428	1.54
317.641	-33.28
317.855	91.65
318.068	40.45
318.282	48.64
318.495	212.48
318.709	103.93
318.922	71.17
319.136	136.7
319.349	103.93
319.563	-4.61
319.776	32.26
319.99	-41.47
320.203	81.41
320.417	-29.18
320.63	167.42
320.843	151.04
321.057	-6.66
321.27	46.59
321.483	71.17
321.697	118.27
321.91	-16.9
322.124	7.68
322.337	44.54
322.55	93.69
322.763	48.64
322.977	46.59
323.19	-6.66
323.403	71.17
323.617	97.79
323.83	144.89
324.043	22.02
324.256	38.4
324.469	-43.52
324.683	192
324.896	30.21
325.109	65.02
325.322	-35.33
325.535	73.21
325.748	77.31
325.962	-12.8
326.175	54.78
326.388	32.26
326.601	226.81
326.814	32.26
327.027	26.11
327.24	136.7
327.453	-25.09
327.666	71.17
327.879	99.84
328.092	114.17
328.305	62.98
328.518	-47.62
328.731	87.55
328.944	28.16
329.157	112.13
329.37	1.54
329.583	159.23
329.796	85.5
330.009	-35.33
330.222	83.45
330.435	81.41
330.648	67.07
330.861	65.02
331.073	110.08
331.286	-29.18
331.499	77.31
331.712	-82.43
331.925	-25.09
332.138	3.58
332.35	52.74
332.563	-59.9
332.776	124.41
332.989	-43.52
333.202	83.45
333.414	17.92
333.627	75.26
333.84	-18.94
334.053	13.82
334.265	-2.56
334.478	-92.67
334.691	-23.04
334.903	48.64
335.116	1.54
335.329	46.59
335.541	60.93
335.754	148.99
335.966	24.06
336.179	28.16
336.392	46.59
336.604	73.21
336.817	124.41
337.029	75.26
337.242	77.31
337.454	140.8
337.667	-20.99
337.88	42.5
338.092	97.79
338.305	85.5
338.517	-0.51
338.729	101.89
338.942	128.51
339.154	15.87
339.367	-18.94
339.579	103.93
339.792	-35.33
340.004	157.18
340.217	3.58
340.429	138.75
340.641	-70.14
340.854	26.11
341.066	69.12
341.278	105.98
341.491	253.44
341.703	3.58
341.915	34.3
342.128	81.41
342.34	50.69
342.552	-14.85
342.764	101.89
342.977	3.58
343.189	79.36
343.401	58.88
343.613	-49.66
343.826	50.69
344.038	-53.76
344.25	-33.28
344.462	69.12
344.674	116.22
344.886	26.11
345.099	75.26
345.311	42.5
345.523	22.02
345.735	-141.82
345.947	60.93
346.159	83.45
346.371	62.98
346.583	-23.04
346.795	249.34
347.007	38.4
347.219	155.13
347.431	56.83
347.643	73.21
347.855	-18.94
348.067	101.89
348.279	24.06
348.491	71.17
348.703	50.69
348.915	58.88
349.127	-59.9
349.339	-4.61
349.551	-74.24
349.763	95.74
349.975	34.3
350.187	105.98
350.399	122.37
350.61	79.36
350.822	-33.28
351.034	91.65
351.246	122.37
351.458	30.21
351.669	44.54
351.881	112.13
352.093	134.65
352.305	185.85
352.517	126.46
352.728	146.94
352.94	46.59
353.152	118.27
353.363	-16.9
353.575	34.3
353.787	144.89
353.999	22.02
354.21	173.57
354.422	-70.14
354.633	101.89
354.845	7.68
355.057	44.54
355.268	71.17
355.48	105.98
355.692	-72.19
355.903	95.74
356.115	-72.19
356.326	-43.52
356.538	81.41
356.749	52.74
356.961	161.28
357.172	30.21
357.384	19.97
357.595	179.71
357.807	32.26
358.018	-8.7
358.23	3.58
358.441	212.48
358.653	112.13
358.864	56.83
359.075	-6.66
359.287	34.3
359.498	175.61
359.709	151.04
359.921	44.54
360.132	142.85
360.344	46.59
360.555	34.3
360.766	103.93
360.977	46.59
361.189	136.7
361.4	81.41
361.611	138.75
361.823	99.84
362.034	3.58
362.245	-12.8
362.456	-14.85
362.667	77.31
362.879	-55.81
363.09	122.37
363.301	101.89
363.512	50.69
363.723	5.63
363.935	81.41
364.146	159.23
364.357	32.26
364.568	89.6
364.779	-0.51
364.99	130.56
365.201	30.21
365.412	54.78
365.623	-133.63
365.834	75.26
366.045	-12.8
366.256	89.6
366.467	38.4
366.678	19.97
366.889	36.35
367.1	-35.33
367.311	126.46
367.522	48.64
367.733	73.21
367.944	132.61
368.155	-2.56
368.366	44.54
368.577	22.02
368.788	81.41
368.999	-66.05
369.209	13.82
369.42	210.43
369.631	230.91
369.842	62.98
370.053	67.07
370.264	185.85
370.474	-23.04
370.685	36.35
370.896	99.84
371.107	151.04
371.317	71.17
371.528	19.97
371.739	138.75
371.95	138.75
372.16	87.55
372.371	-47.62
372.582	42.5
372.792	87.55
373.003	-23.04
373.214	103.93
373.424	99.84
373.635	22.02
373.846	110.08
374.056	62.98
374.267	-16.9
374.477	144.89
374.688	22.02
374.898	54.78
375.109	5.63
375.319	44.54
375.53	67.07
375.74	75.26
375.951	52.74
376.161	44.54
376.372	85.5
376.582	-70.14
376.793	50.69
377.003	32.26
377.214	-18.94
377.424	142.85
377.635	56.83
377.845	15.87
378.055	110.08
378.266	-33.28
378.476	3.58
378.686	89.6
378.897	22.02
379.107	157.18
379.317	-33.28
379.528	13.82
379.738	134.65
379.948	-88.57
380.158	40.45
380.369	79.36
380.579	105.98
380.789	46.59
380.999	105.98
381.21	32.26
381.42	212.48
381.63	69.12
381.84	124.41
382.05	13.82
382.261	167.42
382.471	151.04
382.681	-6.66
382.891	167.42
383.101	132.61
383.311	56.83
383.521	38.4
383.731	165.37
383.941	81.41
384.151	-27.14
384.361	26.11
384.571	48.64
384.781	71.17
384.991	226.81
385.201	171.52
385.411	151.04
385.621	-0.51
385.831	28.16
386.041	142.85
386.251	13.82
386.461	163.33
386.671	114.17
386.881	5.63
387.091	30.21
387.301	89.6
387.511	7.68
387.72	97.79
387.93	157.18
388.14	-84.48
388.35	30.21
388.56	-18.94
388.769	103.93
388.979	110.08
389.189	9.73
389.399	75.26
389.609	19.97
389.818	112.13
390.028	108.03
390.238	179.71
390.447	-0.51
390.657	28.16
390.867	-0.51
391.076	-59.9
391.286	62.98
391.496	128.51
391.705	62.98
391.915	97.79
392.125	69.12
392.334	-8.7
392.544	185.85
392.753	56.83
392.963	-59.9
393.172	77.31
393.382	-51.71
393.591	83.45
393.801	-18.94
394.01	142.85
394.22	75.26
394.429	9.73
394.639	28.16
394.848	85.5
395.058	32.26
395.267	83.45
395.477	22.02
395.686	56.83
395.895	218.62
396.105	169.47
396.314	44.54
396.524	54.78
396.733	24.06
396.942	136.7
397.152	40.45
397.361	138.75
397.57	83.45
397.78	-35.33
397.989	73.21
398.198	212.48
398.407	91.65
398.617	40.45
398.826	22.02
399.035	26.11
399.244	120.32
399.453	95.74
399.663	9.73
399.872	52.74
400.081	-43.52
400.29	128.51
400.499	-45.57
400.708	65.02
400.917	60.93
401.127	85.5
401.336	1.54
401.545	177.66
401.754	50.69
401.963	108.03
402.172	5.63
402.381	-25.09
402.59	24.06
402.799	19.97
403.008	97.79
403.217	85.5
403.426	40.45
403.635	-61.95
403.844	15.87
404.053	52.74
404.262	44.54
404.471	196.09
404.68	60.93
404.888	19.97
405.097	93.69
405.306	120.32
405.515	85.5
405.724	58.88
405.933	163.33
406.142	138.75
406.35	118.27
406.559	15.87
406.768	69.12
406.977	175.61
407.185	17.92
407.394	69.12
407.603	-33.28
407.812	87.55
408.02	134.65
408.229	-16.9
408.438	132.61
408.646	69.12
408.855	48.64
409.064	56.83
409.272	50.69
409.481	83.45
409.69	7.68
409.898	46.59
410.107	118.27
410.315	163.33
410.524	-6.66
410.733	15.87
410.941	32.26
411.15	181.76
411.358	120.32
411.567	116.22
411.775	77.31
411.984	48.64
412.192	99.84
412.401	3.58
412.609	192
412.818	179.71
413.026	97.79
413.234	97.79
413.443	85.5
413.651	28.16
413.86	42.5
414.068	120.32
414.276	130.56
414.485	11.78
414.693	85.5
414.901	144.89
415.11	13.82
415.318	77.31
415.526	58.88
415.734	206.33
415.943	163.33
416.151	132.61
416.359	50.69
416.567	56.83
416.776	136.7
416.984	126.46
417.192	192
417.4	3.58
417.608	83.45
417.817	-14.85
418.025	108.03
418.233	185.85
418.441	9.73
418.649	-16.9
418.857	95.74
419.065	132.61
419.273	42.5
419.481	52.74
419.689	50.69
419.897	32.26
420.105	-78.33
420.313	153.09
420.521	89.6
420.729	163.33
420.937	7.68
421.145	32.26
421.353	-6.66
421.561	185.85
421.769	62.98
421.977	89.6
422.185	138.75
422.393	5.63
422.601	151.04
422.809	132.61
423.017	108.03
423.224	77.31
423.432	79.36
423.64	15.87
423.848	148.99
424.056	-2.56
424.263	138.75
424.471	126.46
424.679	228.86
424.887	28.16
425.094	157.18
425.302	134.65
425.51	60.93
425.718	97.79
425.925	112.13
426.133	42.5
426.341	222.72
426.548	52.74
426.756	-8.7
426.964	187.9
427.171	34.3
427.379	126.46
427.586	38.4
427.794	40.45
428.001	179.71
428.209	136.7
428.417	214.52
428.624	179.71
428.832	108.03
429.039	73.21
429.247	93.69
429.454	118.27
429.662	189.95
429.869	183.81
430.076	163.33
430.284	65.02
430.491	204.28
430.699	155.13
430.906	243.2
431.114	187.9
431.321	196.09
431.528	169.47
431.736	153.09
431.943	169.47
432.15	200.19
432.358	198.14
432.565	259.58
432.772	-31.23
432.979	245.24
433.187	173.57
433.394	228.86
433.601	151.04
433.808	235
434.016	255.48
434.223	224.76
434.43	175.61
434.637	327.16
434.844	366.07
435.052	245.24
435.259	329.21
435.466	333.31
435.673	327.16
435.88	271.87
436.087	370.17
436.294	404.99
436.501	323.07
436.708	308.73
436.915	357.88
437.122	482.81
437.329	310.78
437.537	335.35
437.743	370.17
437.95	519.67
438.157	388.6
438.364	435.71
438.571	456.19
438.778	509.43
438.985	474.62
439.192	523.77
439.399	421.37
439.606	546.3
439.813	607.73
440.02	654.84
440.227	701.94
440.433	697.85
440.64	501.24
440.847	624.12
441.054	689.65
441.261	769.52
441.467	646.65
441.674	798.2
441.881	824.82
442.088	703.99
442.294	822.77
442.501	972.27
442.708	964.08
442.914	939.51
443.121	984.56
443.328	1041.9
443.534	1095.15
443.741	1035.76
443.948	914.93
444.154	1019.38
444.361	1285.61
444.568	1150.45
444.774	1199.6
444.981	1029.62
445.187	1289.71
445.394	1359.34
445.6	1353.2
445.807	1582.57
446.013	1449.45
446.22	1426.92
446.426	1570.28
446.633	1660.39
446.839	1813.99
447.046	1627.62
447.252	1848.8
447.459	1887.72
447.665	1945.06
447.871	2104.8
448.078	2295.26
448.284	2176.48
448.491	2399.71
448.697	2395.61
448.903	2450.91
449.11	2481.63
449.316	2598.36
449.522	2797.01
449.728	2756.05
449.935	2835.92
450.141	2909.65
450.347	3245.52
450.553	3065.3
450.76	3179.98
450.966	3251.66
451.172	3513.8
451.378	3558.86
451.584	3691.98
451.791	3950.02
451.997	4033.99
452.203	4085.19
452.409	4126.15
452.615	4519.36
452.821	4300.22
453.027	4433.34
453.233	4926.9
453.44	4773.3
453.646	5092.79
453.852	5250.48
454.058	5365.17
454.264	5668.27
454.47	6061.48
454.676	5993.89
454.882	6477.21
455.088	6247.84
455.294	6684.06
455.5	7157.14
455.705	7568.78
455.911	7427.47
456.117	7669.13
456.323	8193.41
456.529	7998.85
456.735	8924.54
456.941	9127.28
457.147	9301.36
457.352	9579.89
457.558	9858.41
457.764	10546.53
457.97	10669.41
458.176	10947.93
458.381	11648.33
458.587	11910.47
458.793	12295.49
458.999	12301.64
459.204	13886.76
459.41	14437.67
459.616	14208.3
459.821	14970.14
460.027	15600.91
460.233	16413.96
460.438	16645.38
460.644	17347.83
460.85	17695.99
461.055	18027.76
461.261	19428.57
461.466	18795.75
461.672	19080.41
461.878	21384.38
462.083	20950.21
462.289	21710
462.494	22709.41
462.7	22279.34
462.905	23110.82
463.111	24996.99
463.316	25787.51
463.522	26401.9
463.727	27327.58
463.932	28148.82
464.138	29256.77
464.343	30389.3
464.549	30473.26
464.754	32920.59
464.959	33502.21
465.165	34202.61
465.37	34165.75
465.575	33991.67
465.781	36320.21
465.986	37682.11
466.191	36987.85
466.397	37446.6
466.602	36467.67
466.807	38687.67
467.012	39224.23
467.218	39601.06
467.423	39543.72
467.628	41085.84
467.833	43230.06
468.038	42169.21
468.244	41128.84
468.449	43533.16
468.654	42894.19
468.859	42648.44
469.064	43021.17
469.269	41933.7
469.474	41925.5
469.679	43017.07
469.885	42005.38
470.09	42879.86
470.295	42914.67
470.5	42269.56
470.705	42165.12
470.91	41323.4
471.115	40680.34
471.32	41186.19
471.525	41016.21
471.73	39994.27
471.935	39576.48
472.139	38532.02
472.344	38343.61
472.549	38177.72
472.754	37426.12
472.959	36688.85
473.164	35431.4
473.369	34925.55
473.574	36123.61
473.778	35044.33
473.983	34552.82
474.188	34313.2
474.393	32300.05
474.598	32406.55
474.802	31495.2
475.007	31013.93
475.212	30979.11
475.417	29572.16
475.621	29230.15
475.826	29340.74
476.031	28386.38
476.235	27823.19
476.44	27659.35
476.645	27341.92
476.849	26711.14
477.054	26453.1
477.259	25857.14
477.463	25570.43
477.668	25009.28
477.872	25394.3
478.077	24439.95
478.282	23655.58
478.486	23551.13
478.691	23008.42
478.895	23069.86
479.1	22879.39
479.304	22942.88
479.509	22031.54
479.713	22334.64
479.918	21894.32
480.122	21331.13
480.326	21593.27
480.531	21492.92
480.735	21185.72
480.94	20765.89
481.144	21513.4
481.348	20217.04
481.553	20681.92
481.757	19827.92
481.961	20255.95
482.166	20411.59
482.37	20014.29
482.574	19545.3
482.778	19490.01
482.983	20042.96
483.187	19371.22
483.391	19479.77
483.595	18877.66
483.8	18490.6
484.004	18765.03
484.208	18689.25
484.412	18377.96
484.616	18310.38
484.821	18281.71
485.025	17646.83
485.229	17962.22
485.433	17323.26
485.637	17204.47
485.841	17138.94
486.045	16741.63
486.249	16821.5
486.453	16338.18
486.657	16014.6
486.861	16078.09
487.065	15537.43
487.269	15465.75
487.473	14845.21
487.677	14892.32
487.881	15007
488.085	14449.96
488.289	14406.95
488.493	13976.87
488.697	14056.75
488.901	13745.45
489.105	13249.85
489.309	13114.68
489.512	13086.01
489.716	12930.36
489.92	12569.92
490.124	12313.92
490.328	12406.08
490.531	11967.82
490.735	11933
490.939	11584.85
491.143	11472.21
491.346	11173.21
491.55	11058.52
491.754	10880.35
491.958	10976.6
492.161	10710.36
492.365	10405.22
492.569	10333.54
492.772	10126.69
492.976	10093.93
493.18	9956.71
493.383	9874.79
493.587	9588.08
493.79	9604.46
493.994	9512.3
494.197	9268.59
494.401	9262.45
494.605	9112.95
494.808	9182.58
495.012	9076.09
495.215	9149.81
495.419	8924.54
495.622	8732.03
495.825	8850.81
496.029	8727.93
496.232	8949.11
496.436	8797.56
496.639	8996.21
496.843	8629.63
497.046	8945.02
497.249	9039.22
497.453	8666.49
497.656	8797.56
497.859	8719.74
498.063	8725.88
498.266	8689.02
498.469	8705.4
498.673	8729.98
498.876	8781.18
499.079	8750.46
499.282	8920.44
499.485	9254.26
499.689	9215.35
499.892	9311.6
500.095	9198.96
500.298	9336.18
500.501	9215.35
500.705	9418.1
500.908	9600.37
501.111	9528.69
501.314	9813.35
501.517	10003.82
501.72	10003.82
501.923	10005.86
502.126	9971.05
502.329	10374.5
502.532	10308.96
502.735	10339.68
502.938	10745.18
503.141	10632.54
503.344	10788.19
503.547	10866.01
503.75	10925.4
503.953	11363.67
504.156	11453.78
504.359	11513.17
504.562	11672.91
504.765	11900.23
504.968	12076.36
505.17	12430.66
505.373	12381.51
505.576	12850.49
505.779	12741.95
505.982	13272.37
506.185	13405.49
506.387	13520.18
506.59	13854
506.793	13944.11
506.996	14069.03
507.198	14685.47
507.401	14736.67
507.604	14929.18
507.807	15365.4
508.009	15635.73
508.212	15965.45
508.415	16186.63
508.617	16669.95
508.82	17059.07
509.022	17274.1
509.225	17687.79
509.428	18019.57
509.63	18126.06
509.833	18474.21
510.035	19250.39
510.238	19918.03
510.44	19924.18
510.643	20468.94
510.845	20935.87
511.048	21003.46
511.25	21619.89
511.453	22135.98
511.655	23020.7
511.858	23254.17
512.06	23678.1
512.262	23936.15
512.465	24405.13
512.667	25025.67
512.87	26127.47
513.072	26109.04
513.274	26940.52
513.477	27647.07
513.679	28179.54
513.881	28804.17
514.084	29410.37
514.286	29615.16
514.488	30495.79
514.69	31677.47
514.893	31829.02
515.095	32164.89
515.297	32979.98
515.499	33817.6
515.701	34194.42
515.904	35566.56
516.106	36070.36
516.308	36703.18
516.51	37454.79
516.712	37481.41
516.914	39017.39
517.116	39283.62
517.318	39775.14
517.52	40676.24
517.722	41325.45
517.925	42222.46
518.127	43148.14
518.329	43729.76
518.531	43807.59
518.733	44893.01
518.935	45484.87
519.136	46046.02
519.338	47205.17
519.54	47547.18
519.742	48153.38
519.944	48792.34
520.146	49943.3
520.348	50137.86
520.55	50795.26
520.752	51051.25
520.954	51964.65
521.155	51737.32
521.357	52929.24
521.559	53617.36
521.761	54428.35
521.963	54440.64
522.164	55018.17
522.366	55380.66
522.568	55820.97
522.77	56474.27
522.971	57279.13
523.173	56414.88
523.375	56892.06
523.576	56877.72
523.778	57270.93
523.98	57909.9
524.181	58184.33
524.383	58208.9
524.584	58425.99
524.786	58784.38
524.988	58174.09
525.189	58864.25
525.391	58489.48
525.592	58868.35
525.794	59077.24
525.995	58188.42
526.197	58411.65
526.398	58851.97
526.6	58454.66
526.801	58446.47
527.003	58141.32
527.204	57703.06
527.406	58043.02
527.607	57637.52
527.808	57868.94
528.01	56502.95
528.211	56283.81
528.412	56763.04
528.614	56685.22
528.815	55661.23
529.016	55591.6
529.218	54487.74
529.419	54543.04
529.62	54051.53
529.822	53490.38
530.023	53002.97
530.224	52355.81
530.425	52134.63
530.626	51067.64
530.828	51006.2
531.029	51268.34
531.23	49621.77
531.431	49521.42
531.632	49031.96
531.833	48685.85
532.035	47907.62
532.236	47117.11
532.437	46639.93
532.638	46031.68
532.839	45955.91
533.04	45329.23
533.241	43981.66
533.442	44168.03
533.643	43377.51
533.844	42777.46
534.045	42412.92
534.246	41323.4
534.447	41231.24
534.648	40534.93
534.849	39973.79
535.05	39431.08
535.251	39025.58
535.451	38585.27
535.652	38200.25
535.853	37569.47
536.054	36455.38
536.255	36602.83
536.456	35671.01
536.657	35890.14
536.857	35023.85
537.058	34243.57
537.259	34294.77
537.46	33766.4
537.66	33170.44
537.861	32824.33
538.062	32109.59
538.263	31740.96
538.463	31403.04
538.664	31239.2
538.865	30719.02
539.065	30983.21
539.266	29658.17
539.466	29733.95
539.667	29269.06
539.868	29295.68
540.068	28902.47
540.269	28398.67
540.469	28034.13
540.67	27589.72
540.87	27597.91
541.071	26954.85
541.271	26889.32
541.472	26616.94
541.672	26070.13
541.873	25681.02
542.073	25318.53
542.274	25312.38
542.474	25357.44
542.675	24523.91
542.875	24413.32
543.075	23962.77
543.276	23694.49
543.476	23841.94
543.676	23659.67
543.877	23211.17
544.077	22979.75
544.277	22512.81
544.478	22013.1
544.678	22236.33
544.878	21769.4
545.078	21513.4
545.279	21490.87
545.479	21134.53
545.679	20952.26
545.879	20354.25
546.079	20485.32
546.28	19967.18
546.48	19649.75
546.68	19979.47
546.88	19436.76
547.08	19354.84
547.28	18984.16
547.48	18588.9
547.68	18828.51
547.88	18386.15
548.081	18074.86
548.281	18029.8
548.481	17583.35
548.681	17310.97
548.881	17306.87
549.081	17140.99
549.28	16749.82
549.48	16565.51
549.68	16473.35
549.88	16225.54
550.08	16045.32
550.28	15856.91
550.48	15480.08
550.68	15363.35
550.88	15095.07
551.08	14773.53
551.279	14769.44
551.479	14146.86
551.679	14349.61
551.879	13886.76
552.079	13954.35
552.278	13704.49
552.478	13643.06
552.678	13096.25
552.878	13223.22
553.077	12787
553.277	12617.02
553.477	12629.31
553.676	12414.27
553.876	12145.99
554.076	11846.99
554.275	11609.42
554.475	11459.92
554.674	11457.87
554.874	11150.68
555.074	10720.6
555.273	10868.06
555.473	10730.84
555.672	10458.46
555.872	10470.75
556.071	10128.74
556.271	10411.36
556.47	9811.31
556.67	9551.21
556.869	9618.8
557.068	9586.03
557.268	9104.76
557.467	8928.63
557.667	8975.74
557.866	8807.8
558.065	8568.19
558.265	8549.76
558.464	8318.34
558.663	8295.81
558.863	7998.85
559.062	7861.64
559.261	7746.95
559.461	7929.22
559.66	7413.13
559.859	7355.79
560.058	7331.22
560.258	7267.73
560.457	7263.63
560.656	7103.89
560.855	7017.88
561.054	7003.54
561.253	6966.68
561.453	6731.16
561.652	6645.15
561.851	6565.28
562.05	6241.7
562.249	6032.8
562.448	6245.79
562.647	6051.24
562.846	5797.29
563.045	5836.2
563.244	5875.11
563.443	5860.77
563.642	5596.59
563.841	5772.71
564.04	5371.31
564.239	5445.04
564.438	5416.37
564.637	5117.36
564.836	5320.11
565.035	5092.79
565.234	5109.17
565.432	5094.83
565.631	4916.66
565.83	4799.93
566.029	4654.52
566.228	4584.89
566.427	4715.96
566.625	4263.36
566.824	4568.51
567.023	4472.25
567.222	4240.83
567.42	4294.08
567.619	4177.34
567.818	4220.35
568.016	4361.66
568.215	4189.63
568.414	4279.74
568.612	4187.58
568.811	3927.49
569.01	3726.79
569.208	3665.35
569.407	3962.31
569.605	3616.2
569.804	3689.93
570.002	3575.24
570.201	3458.51
570.4	3536.33
570.598	3317.2
570.797	3339.73
570.995	3382.73
571.193	3286.48
571.392	3278.29
571.59	3182.03
571.789	3222.99
571.987	3268.05
572.186	3141.07
572.384	2975.19
572.582	3126.74
572.781	3042.77
572.979	2833.88
573.177	2876.88
573.376	2889.17
573.574	2868.69
573.772	2891.22
573.971	2647.51
574.169	2571.74
574.367	2647.51
574.565	2573.78
574.763	2545.11
574.962	2477.53
575.16	2536.92
575.358	2422.24
575.556	2346.46
575.754	2436.57
575.952	2291.17
576.151	2237.92
576.349	2362.84
576.547	2088.42
576.745	2213.34
576.943	2176.48
577.141	2190.81
577.339	1981.92
577.537	2018.79
577.735	2145.76
577.933	2106.85
578.131	1897.96
578.329	2022.88
578.527	1957.35
578.725	1920.48
578.923	1713.64
579.121	1824.23
579.319	1723.88
579.516	1768.93
579.714	1940.96
579.912	1727.97
580.11	1689.06
580.308	1732.07
580.506	1562.09
580.704	1506.79
580.901	1502.7
581.099	1744.36
581.297	1605.1
581.495	1523.18
581.692	1582.57
581.89	1623.53
582.088	1396.2
582.285	1486.31
582.483	1357.29
582.681	1406.44
582.878	1353.2
583.076	1281.52
583.274	1291.76
583.471	1469.93
583.669	1304.04
583.866	1191.41
584.064	1224.17
584.262	1283.56
584.459	1127.92
584.657	1283.56
584.854	1142.25
585.052	1220.08
585.249	1166.83
585.447	1207.79
585.644	1089.01
585.841	1164.78
586.039	1211.89
586.236	1164.78
586.434	1056.24
586.631	1058.29
586.828	994.8
587.026	1019.38
587.223	1011.18
587.42	1035.76
587.618	1109.49
587.815	1039.86
588.012	972.27
588.21	841.2
588.407	992.75
588.604	1000.94
588.801	902.64
588.999	970.23
589.196	1019.38
589.393	974.32
589.59	986.61
589.787	921.07
589.984	894.45
590.182	888.31
590.379	826.87
590.576	849.4
590.773	851.44
590.97	826.87
591.167	929.27
591.364	814.58
591.561	806.39
591.758	964.08
591.955	982.51
592.152	830.96
592.349	785.91
592.546	890.35
592.743	773.62
592.94	802.29
593.137	837.11
593.334	984.56
593.531	945.65
593.727	919.03
593.924	916.98
594.121	900.59
594.318	923.12
594.515	937.46
594.712	1082.86
594.908	921.07
595.105	753.14
595.302	871.92
595.499	945.65
595.696	1125.87
595.892	833.01
596.089	998.9
596.286	996.85
596.482	1117.68
596.679	1013.23
596.876	998.9
597.072	1123.82
597.269	1078.77
597.466	1031.66
597.662	1064.43
597.859	1123.82
598.055	1199.6
598.252	1273.32
598.448	1408.49
598.645	1476.07
598.841	1394.15
599.038	1482.22
599.234	1607.14
599.431	1578.47
599.627	1625.58
599.824	1605.1
600.02	1572.33
600.217	1691.11
600.413	1750.5
600.609	1893.86
600.806	2063.84
601.002	2076.13
601.198	2112.99
601.395	2254.3
601.591	2203.1
601.787	2317.79
601.984	2516.44
602.18	2588.12
602.376	2606.55
602.572	2770.39
602.769	2889.17
602.965	2940.37
603.161	3014.1
603.357	3124.69
603.553	3470.8
603.75	3292.62
603.946	3634.63
604.142	3542.47
604.338	3864.01
604.534	3861.96
604.73	3935.68
604.926	4042.18
605.122	4539.83
605.318	4267.45
605.514	4570.55
605.71	4517.31
605.906	4892.09
606.102	4922.8
606.298	5182.9
606.494	5414.32
606.69	5582.25
606.886	5373.36
607.082	5819.82
607.278	5834.15
607.474	6034.85
607.67	6387.1
607.866	6327.71
608.062	6714.78
608.257	6612.38
608.453	6956.44
608.649	7101.84
608.845	7183.76
609.041	7284.11
609.236	7757.19
609.432	8050.05
609.628	8217.99
609.824	8465.79
610.019	8631.68
610.215	8844.67
610.411	9352.56
610.606	9325.94
610.802	9629.04
610.998	9713
611.193	9952.62
611.389	10149.22
611.584	10599.77
611.78	10624.35
611.976	11046.23
612.171	11578.7
612.367	11791.69
612.562	12121.42
612.758	12313.92
612.953	12657.98
613.149	12918.07
613.344	13403.44
613.539	13792.56
613.735	14189.86
613.93	14421.28
614.126	14847.26
614.321	15152.41
614.517	15801.61
614.712	16188.68
614.907	16211.21
615.103	16911.61
615.298	17413.37
615.493	17818.86
615.688	18025.71
615.884	18676.96
616.079	18724.07
616.274	19813.59
616.47	20210.89
616.665	20720.84
616.86	20958.4
617.055	21587.13
617.25	22119.6
617.445	22815.91
617.641	22965.41
617.836	23852.18
618.031	23946.39
618.226	25126.02
618.421	25662.58
618.616	26403.95
618.811	26526.83
619.006	27491.42
619.201	27599.96
619.396	28607.56
619.591	28916.81
619.786	30102.58
619.981	30047.29
620.176	31284.26
620.371	31177.76
620.566	32095.25
620.761	32969.74
620.956	33696.77
621.151	34143.22
621.346	35095.53
621.541	35058.67
621.735	36635.6
621.93	36447.19
622.125	37555.14
622.32	37839.81
622.515	38869.93
622.709	39254.95
622.904	40379.29
623.099	40635.28
623.294	41888.64
623.488	42099.58
623.683	43223.92
623.878	43223.92
624.072	44469.08
624.267	45423.43
624.462	45949.76
624.656	45970.24
624.851	47186.74
625.046	47620.91
625.24	48472.86
625.435	48454.43
625.629	49695.5
625.824	50234.11
626.018	51143.41
626.213	50881.27
626.407	52159.2
626.602	52460.26
626.796	52974.3
626.991	53402.32
627.185	53623.5
627.38	54428.35
627.574	54409.92
627.768	54821.56
627.963	54928.06
628.157	55095.99
628.352	56068.78
628.546	55206.58
628.74	56316.58
628.935	55702.19
629.129	55587.5
629.323	55243.45
629.517	55149.24
629.712	54526.66
629.906	54651.58
630.1	53713.61
630.294	53961.42
630.489	53154.52
630.683	53107.41
630.877	51765.99
631.071	51000.05
631.265	50625.28
631.459	49210.13
631.653	48495.39
631.848	47602.47
632.042	46203.71
632.236	45628.23
632.43	43881.31
632.624	43531.11
632.818	42019.71
633.012	40500.12
633.206	39142.31
633.4	38378.42
633.594	36635.6
633.788	36209.62
633.982	34647.02
634.176	33555.46
634.369	32433.17
634.563	31101.99
634.757	29803.58
634.951	28875.85
635.145	27778.14
635.339	26870.89
635.533	25820.28
635.726	24990.85
635.92	23614.62
636.114	22629.54
636.308	21658.81
636.501	20878.53
636.695	20309.19
636.889	19174.62
637.083	18386.15
637.276	17931.5
637.47	16868.61
637.664	16409.86
637.857	16133.39
638.051	14949.66
638.244	14247.21
638.438	14003.5
638.632	13477.17
638.825	12606.78
639.019	12236.1
639.212	11820.36
639.406	11361.62
639.599	10773.85
639.793	10468.7
639.986	10081.64
640.18	9985.38
640.373	9342.32
640.567	9049.46
640.76	8826.23
640.954	8304
641.147	7980.42
641.34	7595.4
641.534	7538.06
641.727	7243.15
641.92	6837.66
642.114	6651.29
642.307	6485.41
642.5	6221.22
642.694	5785
642.887	5647.79
643.08	5741.99
643.273	5367.21
643.467	5150.13
643.66	4648.38
643.853	4533.69
644.046	4474.3
644.239	4367.81
644.432	4076.99
644.626	3777.99
644.819	3902.92
645.012	3788.23
645.205	3753.41
645.398	3491.27
645.591	3302.86
645.784	3147.22
645.977	3061.2
646.17	2997.71
646.363	2837.97
646.556	2661.85
646.749	2547.16
646.942	2561.5
647.135	2489.82
647.328	2438.62
647.521	2371.04
647.714	2088.42
647.907	2108.9
648.099	1916.39
648.292	1953.25
648.485	1940.96
648.678	1736.17
648.871	1727.97
649.064	1672.68
649.256	1615.34
649.449	1519.08
649.642	1390.06
649.835	1410.54
650.027	1375.72
650.22	1449.45
650.413	1230.32
650.605	1269.23
650.798	1232.37
650.991	1144.3
651.183	1086.96
651.376	1095.15
651.568	1132.01
651.761	939.51
651.954	1109.49
652.146	1009.14
652.339	994.8
652.531	1033.71
652.724	873.97
652.916	849.4
653.109	751.09
653.301	871.92
653.494	822.77
653.686	814.58
653.879	869.87
654.071	781.81
654.263	699.89
654.456	577.02
654.648	697.85
654.84	757.24
655.033	560.63
655.225	714.23
655.417	450.04
655.61	710.13
655.802	660.98
655.994	667.13
656.186	491
656.379	560.63
656.571	445.95
656.763	536.06
656.955	423.42
657.148	491
657.34	501.24
657.532	447.99
657.724	419.32
657.916	472.57
658.108	511.48
658.3	396.79
658.492	398.84
658.684	376.31
658.876	484.86
659.068	306.68
659.26	202.24
659.452	333.31
659.644	396.79
659.836	454.14
660.028	343.55
660.22	318.97
660.412	368.12
660.604	321.02
660.796	316.92
660.988	454.14
661.18	247.29
661.372	388.6
661.563	380.41
661.755	357.88
661.947	261.63
662.139	278.01
662.331	308.73
662.522	265.72
662.714	105.98
662.906	245.24
663.097	300.54
663.289	200.19
663.481	83.45
663.673	253.44
663.864	200.19
664.056	353.79
664.247	198.14
664.439	308.73
664.631	361.98
664.822	370.17
665.014	224.76
665.205	142.85
665.397	232.96
665.588	290.3
665.78	224.76
665.971	392.7
666.163	204.28
666.354	312.83
666.546	194.05
666.737	183.81
666.929	200.19
667.12	198.14
667.311	189.95
667.503	202.24
667.694	298.49
667.885	220.67
668.077	269.82
668.268	114.17
668.459	237.05
668.651	237.05
668.842	265.72
669.033	155.13
669.224	155.13
669.416	372.22
669.607	183.81
669.798	95.74
669.989	343.55
670.18	230.91
670.371	241.15
670.563	122.37
670.754	306.68
670.945	230.91
671.136	237.05
671.327	128.51
671.518	245.24
671.709	314.88
671.9	255.48
672.091	243.2
672.282	308.73
672.473	187.9
672.664	146.94
672.855	177.66
673.046	200.19
673.237	314.88
673.428	130.56
673.619	224.76
673.809	206.33
674	347.64
674.191	259.58
674.382	200.19
674.573	216.57
674.764	218.62
674.954	347.64
675.145	187.9
675.336	177.66
675.527	169.47
675.717	249.34
675.908	181.76
676.099	232.96
676.289	189.95
676.48	144.89
676.671	255.48
676.861	216.57
677.052	308.73
677.243	286.2
677.433	177.66
677.624	321.02
677.814	243.2
678.005	267.77
678.195	364.03
678.386	179.71
678.576	212.48
678.767	177.66
678.957	349.69
679.148	331.26
679.338	429.56
679.529	415.23
679.719	269.82
679.909	265.72
680.1	249.34
680.29	308.73
680.481	247.29
680.671	435.71
680.861	278.01
681.052	294.4
681.242	288.25
681.432	335.35
681.622	341.5
681.813	216.57
682.003	331.26
682.193	204.28
682.383	310.78
682.573	380.41
682.764	331.26
682.954	366.07
683.144	335.35
683.334	278.01
683.524	271.87
683.714	294.4
683.904	388.6
684.094	331.26
684.284	312.83
684.474	390.65
684.664	409.08
684.854	364.03
685.044	280.06
685.234	355.83
685.424	296.44
685.614	228.86
685.804	390.65
685.994	415.23
686.184	417.27
686.374	370.17
686.564	378.36
686.753	372.22
686.943	339.45
687.133	347.64
687.323	427.51
687.513	314.88
687.702	318.97
687.892	335.35
688.082	355.83
688.272	353.79
688.461	359.93
688.651	447.99
688.841	353.79
689.03	390.65
689.22	394.75
689.41	423.42
689.599	302.59
689.789	323.07
689.979	425.47
690.168	243.2
690.358	472.57
690.547	357.88
690.737	364.03
690.926	382.46
691.116	378.36
691.305	384.51
691.495	404.99
691.684	239.1
691.874	278.01
692.063	398.84
692.252	364.03
692.442	359.93
692.631	275.96
692.82	335.35
693.01	394.75
693.199	331.26
693.388	361.98
693.578	351.74
693.767	472.57
693.956	390.65
694.146	239.1
694.335	345.59
694.524	339.45
694.713	398.84
694.902	275.96
695.092	241.15
695.281	308.73
695.47	206.33
695.659	263.68
695.848	253.44
696.037	280.06
696.226	366.07
696.415	280.06
696.604	423.42
696.793	398.84
696.982	353.79
697.171	454.14
697.36	212.48
697.549	284.16
697.738	140.8
697.927	267.77
698.116	212.48
698.305	298.49
698.494	273.92
698.683	216.57
698.872	441.85
699.061	204.28
699.25	343.55
699.438	261.63
699.627	101.89
699.816	396.79
700.005	163.33
700.193	194.05
700.382	321.02
700.571	304.64
700.76	335.35
700.948	384.51
701.137	331.26
701.326	298.49
701.514	194.05
701.703	290.3
701.892	327.16
702.08	402.94
702.269	206.33
702.457	212.48
702.646	196.09
702.834	220.67
703.023	290.3
703.212	298.49
703.4	189.95
703.589	239.1
703.777	296.44
703.965	263.68
704.154	232.96
704.342	243.2
704.531	296.44
704.719	302.59
704.907	304.64
705.096	216.57
705.284	181.76
705.472	323.07
705.661	265.72
705.849	343.55
706.037	263.68
706.226	275.96
706.414	306.68
706.602	314.88
706.79	253.44
706.979	286.2
707.167	245.24
707.355	235
707.543	173.57
707.731	296.44
707.919	355.83
708.107	235
708.296	226.81
708.484	157.18
708.672	280.06
708.86	331.26
709.048	339.45
709.236	232.96
709.424	355.83
709.612	310.78
709.8	169.47
709.988	216.57
710.176	419.32
710.364	374.27
710.551	325.12
710.739	302.59
710.927	208.38
711.115	237.05
711.303	275.96
711.491	353.79
711.679	189.95
711.866	439.8
712.054	261.63
712.242	314.88
712.43	390.65
712.617	273.92
712.805	337.4
712.993	290.3
713.181	148.99
713.368	282.11
713.556	196.09
713.744	261.63
713.931	452.09
714.119	257.53
714.306	347.64
714.494	292.35
714.682	294.4
714.869	275.96
715.057	327.16
715.244	251.39
715.432	357.88
715.619	251.39
715.807	224.76
715.994	253.44
716.182	261.63
716.369	466.42
716.556	265.72
716.744	208.38
716.931	239.1
717.119	278.01
717.306	253.44
717.493	251.39
717.681	206.33
717.868	251.39
718.055	357.88
718.242	331.26
718.43	364.03
718.617	394.75
718.804	310.78
718.991	308.73
719.179	335.35
719.366	349.69
719.553	302.59
719.74	321.02
719.927	224.76
720.114	335.35
720.301	392.7
720.488	343.55
720.676	261.63
720.863	407.03
721.05	443.9
721.237	316.92
721.424	437.75
721.611	357.88
721.798	273.92
721.985	280.06
722.172	345.59
722.358	325.12
722.545	306.68
722.732	290.3
722.919	499.19
723.106	278.01
723.293	286.2
723.48	355.83
723.667	329.21
723.853	415.23
724.04	323.07
724.227	474.62
724.414	310.78
724.6	404.99
724.787	454.14
724.974	417.27
725.161	429.56
725.347	298.49
725.534	482.81
725.72	421.37
725.907	466.42
726.094	472.57
726.28	302.59
726.467	464.38
726.653	355.83
726.84	503.29
727.027	470.52
727.213	372.22
727.4	355.83
727.586	384.51
727.773	359.93
727.959	357.88
728.145	333.31
728.332	370.17
728.518	333.31
728.705	488.95
728.891	386.55
729.077	439.8
729.264	400.89
729.45	331.26
729.636	476.66
729.823	380.41
730.009	466.42
730.195	486.9
730.382	452.09
730.568	388.6
730.754	402.94
730.94	423.42
731.126	413.18
731.313	413.18
731.499	450.04
731.685	411.13
731.871	468.47
732.057	425.47
732.243	523.77
732.429	400.89
732.615	519.67
732.801	456.19
732.987	404.99
733.173	435.71
733.359	460.28
733.545	456.19
733.731	484.86
733.917	589.3
734.103	458.23
734.289	468.47
734.475	364.03
734.661	556.54
734.847	415.23
735.033	482.81
735.219	456.19
735.404	531.96
735.59	439.8
735.776	474.62
735.962	491
736.148	554.49
736.333	505.34
736.519	509.43
736.705	505.34
736.89	366.07
737.076	443.9
737.262	519.67
737.447	450.04
737.633	468.47
737.819	585.21
738.004	503.29
738.19	464.38
738.375	509.43
738.561	570.87
738.747	474.62
738.932	433.66
739.118	654.84
739.303	484.86
739.489	544.25
739.674	531.96
739.859	470.52
740.045	540.15
740.23	452.09
740.416	396.79
740.601	509.43
740.786	574.97
740.972	462.33
741.157	474.62
741.342	437.75
741.528	462.33
741.713	601.59
741.898	447.99
742.084	505.34
742.269	454.14
742.454	560.63
742.639	536.06
742.824	482.81
743.01	656.89
743.195	624.12
743.38	507.38
743.565	409.08
743.75	546.3
743.935	581.11
744.12	538.1
744.305	364.03
744.49	480.76
744.675	427.51
744.86	456.19
745.045	454.14
745.23	574.97
745.415	441.85
745.6	585.21
745.785	509.43
745.97	493.05
746.155	488.95
746.34	570.87
746.525	587.26
746.71	445.95
746.895	468.47
747.079	382.46
747.264	503.29
747.449	554.49
747.634	630.26
747.819	466.42
748.003	372.22
748.188	474.62
748.373	534.01
748.557	460.28
748.742	531.96
748.927	404.99
749.111	429.56
749.296	466.42
749.481	458.23
749.665	441.85
749.85	327.16
750.034	488.95
750.219	429.56
750.404	347.64
750.588	433.66
750.773	411.13
750.957	376.31
751.141	439.8
751.326	372.22
751.51	298.49
751.695	421.37
751.879	423.42
752.064	501.24
752.248	388.6
752.432	536.06
752.617	400.89
752.801	521.72
752.985	331.26
753.17	452.09
753.354	415.23
753.538	407.03
753.722	284.16
753.907	302.59
754.091	361.98
754.275	413.18
754.459	261.63
754.643	347.64
754.828	400.89
755.012	361.98
755.196	331.26
755.38	388.6
755.564	345.59
755.748	318.97
755.932	376.31
756.116	433.66
756.3	314.88
756.484	308.73
756.668	409.08
756.852	159.23
757.036	316.92
757.22	376.31
757.404	261.63
757.588	263.68
757.772	286.2
757.956	267.77
758.14	435.71
758.323	198.14
758.507	357.88
758.691	331.26
758.875	386.55
759.059	466.42
759.242	323.07
759.426	298.49
759.61	339.45
759.794	206.33
759.977	353.79
760.161	462.33
760.345	388.6
760.528	419.32
760.712	353.79
760.895	325.12
761.079	255.48
761.263	192
761.446	284.16
761.63	206.33
761.813	302.59
761.997	214.52
762.18	284.16
762.364	255.48
762.547	218.62
762.731	230.91
762.914	259.58
763.098	239.1
763.281	200.19
763.464	208.38
763.648	304.64
763.831	314.88
764.015	175.61
764.198	282.11
764.381	235
764.564	183.81
764.748	247.29
764.931	200.19
765.114	192
765.297	261.63
765.481	134.65
765.664	185.85
765.847	110.08
766.03	323.07
766.213	130.56
766.397	228.86
766.58	136.7
766.763	228.86
766.946	194.05
767.129	175.61
767.312	265.72
767.495	290.3
767.678	153.09
767.861	206.33
768.044	251.39
768.227	148.99
768.41	194.05
768.593	194.05
768.776	175.61
768.959	144.89
769.142	247.29
769.324	132.61
769.507	230.91
769.69	161.28
769.873	189.95
770.056	308.73
770.239	226.81
770.421	263.68
770.604	255.48
770.787	165.37
770.97	226.81
771.152	132.61
771.335	232.96
771.518	169.47
771.7	261.63
771.883	343.55
772.066	144.89
772.248	214.52
772.431	347.64
772.613	171.52
772.796	194.05
772.978	261.63
773.161	208.38
773.343	163.33
773.526	165.37
773.708	42.5
773.891	48.64
774.073	165.37
774.256	192
774.438	312.83
774.621	26.11
774.803	214.52
774.985	183.81
775.168	220.67
775.35	93.69
775.532	136.7
775.715	142.85
775.897	251.39
776.079	91.65
776.261	177.66
776.444	196.09
776.626	144.89
776.808	126.46
776.99	54.78
777.173	155.13
777.355	60.93
777.537	171.52
777.719	241.15
777.901	52.74
778.083	112.13
778.265	148.99
778.447	124.41
778.629	103.93
778.811	132.61
778.993	202.24
779.175	224.76
779.357	114.17
779.539	38.4
779.721	73.21
779.903	273.92
780.085	118.27
780.267	192
780.449	124.41
780.631	226.81
780.812	165.37
780.994	114.17
781.176	159.23
781.358	71.17
781.54	77.31
781.721	97.79
781.903	140.8
782.085	167.42
782.267	118.27
782.448	34.3
782.63	77.31
782.812	73.21
782.993	134.65
783.175	171.52
783.357	79.36
783.538	132.61
783.72	85.5
783.901	105.98
784.083	108.03
784.264	54.78
784.446	22.02
784.627	30.21
784.809	128.51
784.99	50.69
785.172	81.41
785.353	103.93
785.535	60.93
785.716	11.78
785.897	11.78
786.079	118.27
786.26	101.89
786.441	126.46
786.623	-0.51
786.804	-14.85
786.985	71.17
787.167	93.69
787.348	58.88
787.529	46.59
787.71	241.15
787.891	151.04
788.073	40.45
788.254	-55.81
788.435	181.76
788.616	120.32
788.797	-47.62
788.978	101.89
789.159	15.87
789.34	122.37
789.522	122.37
789.703	48.64
789.884	77.31
790.065	60.93
790.246	181.76
790.427	83.45
790.607	128.51
790.788	128.51
790.969	7.68
791.15	146.94
791.331	52.74
791.512	65.02
791.693	19.97
791.874	-6.66
792.054	198.14
792.235	128.51
792.416	67.07
792.597	42.5
792.778	42.5
792.958	79.36
793.139	87.55
793.32	50.69
793.5	44.54
793.681	212.48
793.862	142.85
794.042	34.3
794.223	-66.05
794.404	1.54
794.584	-6.66
794.765	-53.76
794.945	24.06
795.126	101.89
795.306	144.89
795.487	9.73
795.667	-51.71
795.848	134.65
796.028	38.4
796.209	38.4
796.389	99.84
796.57	-12.8
796.75	36.35
796.93	97.79
797.111	3.58
797.291	-18.94
797.471	62.98
797.652	-29.18
797.832	3.58
798.012	89.6
798.192	130.56
798.373	-90.62
798.553	81.41
798.733	73.21
798.913	-43.52
799.093	93.69
799.274	42.5
799.454	114.17
799.634	105.98
799.814	69.12
799.994	114.17
800.174	71.17
800.354	1.54
800.534	-119.29
800.714	124.41
800.894	91.65
801.074	-8.7
801.254	26.11
801.434	179.71
801.614	36.35
801.794	36.35
801.974	1951.2
802.154	28.16
802.334	42.5
802.514	5.63
802.693	46.59
802.873	50.69
803.053	48.64
803.233	69.12
803.413	-64
803.592	32.26
803.772	1.54
803.952	42.5
804.131	-49.66
804.311	108.03
804.491	126.46
804.67	62.98
804.85	-18.94
805.03	120.32
805.209	161.28
805.389	-16.9
805.568	-88.57
805.748	-8.7
805.928	54.78
806.107	17.92
806.287	36.35
806.466	73.21
806.646	91.65
806.825	3.58
807.004	1.54
807.184	75.26
807.363	161.28
807.543	65.02
807.722	-14.85
807.901	116.22
808.081	120.32
808.26	-86.53
808.439	13.82
808.619	83.45
808.798	26.11
808.977	7.68
809.156	196.09
809.336	28.16
809.515	50.69
809.694	-20.99
809.873	-47.62
810.052	118.27
810.231	171.52
810.411	56.83
810.59	56.83
810.769	46.59
810.948	77.31
811.127	-23.04
811.306	3.58
811.485	15.87
811.664	196.09
811.843	38.4
812.022	112.13
812.201	24.06
812.38	-20.99
812.559	67.07
812.737	-12.8
812.916	-78.33
813.095	22.02
813.274	101.89
813.453	75.26
813.632	93.69
813.811	7.68
813.989	-18.94
814.168	42.5
814.347	-64
814.526	-12.8
814.704	65.02
814.883	159.23
815.062	-14.85
815.24	50.69
815.419	-20.99
815.598	48.64
815.776	-39.42
815.955	-23.04
816.133	-74.24
816.312	62.98
816.49	-27.14
816.669	87.55
816.847	44.54
817.026	159.23
817.204	36.35
817.383	-2.56
817.561	44.54
817.74	60.93
817.918	9.73
818.097	-16.9
818.275	-90.62
818.453	46.59
818.632	65.02
818.81	22.02
818.988	15.87
819.167	58.88
819.345	-57.86
819.523	-84.48
819.701	46.59
819.879	108.03
820.058	-8.7
820.236	79.36
820.414	81.41
820.592	24.06
820.77	48.64
820.948	-72.19
821.127	-25.09
821.305	116.22
821.483	-43.52
821.661	146.94
821.839	22.02
822.017	-53.76
822.195	5.63
822.373	79.36
822.551	56.83
822.729	22.02
822.907	38.4
823.085	36.35
823.262	77.31
823.44	-23.04
823.618	-8.7
823.796	79.36
823.974	-0.51
824.152	32.26
824.329	24.06
824.507	42.5
824.685	132.61
824.863	-39.42
825.04	-23.04
825.218	54.78
825.396	-43.52
825.574	22.02
825.751	36.35
825.929	81.41
826.107	-61.95
826.284	38.4
826.462	75.26
826.639	-47.62
826.817	-74.24
826.994	17.92
827.172	-57.86
827.349	75.26
827.527	134.65
827.704	-0.51
827.882	48.64
828.059	-33.28
828.237	65.02
828.414	32.26
828.591	-100.86
828.769	103.93
828.946	-57.86
829.124	44.54
829.301	54.78
829.478	77.31
829.655	30.21
829.833	-57.86
830.01	-92.67
830.187	42.5
830.364	-4.61
830.542	34.3
830.719	60.93
830.896	146.94
831.073	50.69
831.25	95.74
831.427	99.84
831.604	-61.95
831.782	-47.62
831.959	91.65
832.136	-18.94
832.313	58.88
832.49	-16.9
832.667	9.73
832.844	-53.76
833.021	26.11
833.198	22.02
833.374	46.59
833.551	77.31
833.728	24.06
833.905	105.98
834.082	-94.72
834.259	69.12
834.436	87.55
834.612	-39.42
834.789	112.13
834.966	30.21
835.143	81.41
835.319	-88.57
835.496	81.41
835.673	-6.66
835.85	54.78
836.026	44.54
836.203	56.83
836.38	24.06
836.556	-18.94
836.733	-27.14
836.909	108.03
837.086	-27.14
837.262	-27.14
837.439	-31.23
837.616	-47.62
837.792	26.11
837.968	9.73
838.145	-45.57
838.321	-16.9
838.498	36.35
838.674	22.02
838.851	46.59
839.027	-10.75
839.203	15.87
839.38	52.74
839.556	-39.42
839.732	58.88
839.909	15.87
840.085	85.5
840.261	-18.94
840.437	-10.75
840.614	-59.9
840.79	99.84
840.966	95.74
841.142	1.54
841.318	-2.56
841.494	-10.75
841.671	69.12
841.847	-31.23
842.023	-174.59
842.199	101.89
842.375	26.11
842.551	-68.09
842.727	-90.62
842.903	132.61
843.079	-23.04
843.255	85.5
843.431	-37.38
843.607	79.36
843.783	-135.68
843.959	67.07
844.134	42.5
844.31	134.65
844.486	11.78
844.662	-68.09
844.838	28.16
845.013	-14.85
845.189	81.41
845.365	11.78
845.541	17.92
845.716	1.54
845.892	132.61
846.068	-53.76
846.244	1.54
846.419	-8.7
846.595	17.92
846.77	-43.52
846.946	120.32
847.122	-55.81
847.297	-68.09
847.473	118.27
847.648	-64
847.824	3.58
847.999	-115.2
848.175	-53.76
848.35	-33.28
848.526	67.07
848.701	108.03
848.876	114.17
849.052	91.65
849.227	-14.85
849.403	-16.9
849.578	15.87
849.753	-18.94
849.929	56.83
850.104	-84.48
850.279	22.02
850.454	-53.76
850.63	83.45
850.805	58.88
850.98	-41.47
851.155	36.35
851.33	19.97
851.505	-41.47
851.681	99.84
851.856	13.82
852.031	89.6
852.206	95.74
852.381	7.68
852.556	-2.56
852.731	42.5
852.906	71.17
853.081	17.92
853.256	32.26
853.431	-35.33
853.606	-64
853.781	-2.56
853.956	-139.77
854.131	-6.66
854.305	-59.9
854.48	-10.75
854.655	-78.33
854.83	-35.33
855.005	-70.14
855.18	48.64
855.354	-6.66
855.529	40.45
855.704	-107.01
855.879	19.97
856.053	-45.57
856.228	50.69
856.403	9.73
856.577	15.87
856.752	-55.81
856.926	-2.56
857.101	-29.18
857.276	-29.18
857.45	7.68
857.625	126.46
857.799	-61.95
857.974	22.02
858.148	-125.44
858.323	-53.76
858.497	-4.61
858.672	-45.57
858.846	-10.75
859.02	71.17
859.195	-49.66
859.369	-35.33
859.543	-29.18
859.718	93.69
859.892	13.82
860.066	-55.81
860.241	28.16
860.415	5.63
860.589	1.54
860.763	-37.38
860.938	-45.57
861.112	17.92
861.286	-23.04
861.46	24.06
861.634	-16.9
861.808	81.41
861.982	-33.28
862.157	-102.91
862.331	-35.33
862.505	-33.28
862.679	-94.72
862.853	-102.91
863.027	-55.81
863.201	161.28
863.375	-68.09
863.549	40.45
863.722	54.78
863.896	89.6
864.07	-6.66
864.244	-80.38
864.418	7.68
864.592	58.88
864.766	36.35
864.939	22.02
865.113	17.92
865.287	91.65
865.461	-2.56
865.634	85.5
865.808	-88.57
865.982	-18.94
866.156	-55.81
866.329	-162.3
866.503	46.59
866.676	36.35
866.85	60.93
867.024	26.11
867.197	-18.94
867.371	13.82
867.544	54.78
867.718	-80.38
867.891	40.45
868.065	-80.38
868.238	30.21
868.412	110.08
868.585	32.26
868.759	-78.33
868.932	-86.53
869.105	-70.14
869.279	-39.42
869.452	-68.09
869.625	30.21
869.799	34.3
869.972	-121.34
870.145	-61.95
870.319	26.11
870.492	-35.33
870.665	-90.62
870.838	-125.44
871.011	-211.45
871.185	-74.24
871.358	13.82
871.531	87.55
871.704	9.73
871.877	28.16
872.05	-16.9
872.223	-18.94
872.396	75.26
872.569	32.26
872.742	-104.96
872.915	83.45
873.088	28.16
873.261	-49.66
873.434	105.98
873.607	-6.66
873.78	116.22
873.953	-84.48
874.126	50.69
874.299	36.35
874.471	-18.94
874.644	-4.61
874.817	26.11
874.99	83.45
875.163	-59.9
875.335	26.11
875.508	-0.51
875.681	34.3
875.853	-51.71
876.026	19.97
876.199	38.4
876.371	13.82
876.544	-43.52
876.717	65.02
876.889	-12.8
877.062	93.69
877.234	-55.81
877.407	-27.14
877.579	69.12
877.752	54.78
877.924	48.64
878.097	-10.75
878.269	-41.47
878.442	36.35
878.614	122.37
878.786	-6.66
878.959	-0.51
879.131	-0.51
879.303	1.54
879.476	-96.77
879.648	130.56
879.82	7.68
879.993	-10.75
880.165	-10.75
880.337	-119.29
880.509	22.02
880.681	-18.94
880.854	-33.28
881.026	87.55
881.198	83.45
881.37	-37.38
881.542	-39.42
881.714	-8.7
881.886	-14.85
882.058	-0.51
882.23	-29.18
882.402	-37.38
882.574	-72.19
882.746	75.26
882.918	48.64
883.09	52.74
883.262	-41.47
883.434	15.87
883.606	-72.19
883.778	5.63
883.95	65.02
884.122	-2.56
884.293	85.5
884.465	32.26
884.637	110.08
884.809	-55.81
884.98	34.3
885.152	-39.42
885.324	124.41
885.496	-20.99
885.667	-68.09
885.839	-31.23
886.011	126.46
886.182	-12.8
886.354	17.92
886.525	-6.66
886.697	-25.09
886.869	-33.28
887.04	52.74
887.212	81.41
887.383	167.42
887.555	97.79
887.726	-78.33
887.897	-68.09
888.069	15.87
888.24	19.97
888.412	-12.8
888.583	-25.09
888.754	-37.38
888.926	-109.05
889.097	-55.81
889.268	-88.57
889.44	30.21
889.611	-39.42
889.782	-82.43
889.953	-90.62
890.125	79.36
890.296	-51.71
890.467	-27.14
890.638	-57.86
890.809	-6.66
890.98	22.02
891.151	-4.61
891.323	71.17
891.494	-6.66
891.665	3.58
891.836	-64
892.007	-57.86
892.178	44.54
892.349	-0.51
892.52	-68.09
892.691	-31.23
892.862	5.63
893.032	-166.4
893.203	-14.85
893.374	-29.18
893.545	118.27
893.716	-78.33
893.887	34.3
894.057	26.11
894.228	-98.81
894.399	58.88
894.57	93.69
894.74	-31.23
894.911	95.74
895.082	-12.8
895.253	-18.94
895.423	46.59
895.594	24.06
895.764	83.45
895.935	-57.86
896.106	48.64
896.276	-78.33
896.447	15.87
896.617	-4.61
896.788	-88.57
896.958	24.06
897.129	-14.85
897.299	-47.62
897.47	99.84
897.64	-0.51
897.81	-35.33
897.981	48.64
898.151	-80.38
898.322	48.64
898.492	1.54
898.662	-76.29
898.832	11.78
899.003	34.3
899.173	-57.86
899.343	-111.1
899.513	-68.09
