Data from USB4F104151__62__11-30-53-264.txt Node

Date: Wed Feb 26 11:30:53 EST 2025
User: louis
Spectrometer: USB4F10415
Trigger mode: 4
Integration Time (sec): 1.000000E-1
Scans to average: 1
Electric dark correction enabled: true
Nonlinearity correction enabled: false
Boxcar width: 0
XAxis mode: Wavelengths
Number of Pixels in Spectrum: 3648
>>>>>Begin Spectral Data<<<<<
178.204	-415.91
178.424	-415.91
178.644	-415.91
178.864	-393.38
179.084	-389.28
179.304	-53.42
179.524	32.6
179.744	-53.42
179.964	30.55
180.184	44.88
180.404	30.55
180.624	22.36
180.844	34.64
181.064	-69.8
181.283	-39.08
181.503	-67.75
181.723	87.89
181.943	-82.09
182.163	192.34
182.383	-53.42
182.602	98.13
182.822	190.29
183.042	114.52
183.262	-4.27
183.482	8.02
183.701	38.74
183.921	55.12
184.141	-55.47
184.361	83.8
184.58	71.51
184.8	44.88
185.02	20.31
185.239	98.13
185.459	61.27
185.679	173.91
185.898	-65.71
186.118	128.85
186.338	36.69
186.557	139.09
186.777	-32.94
186.997	42.84
187.216	5.97
187.436	182.1
187.655	65.36
187.875	104.28
188.095	36.69
188.314	122.71
188.534	73.56
188.753	14.17
188.973	210.77
189.192	141.14
189.412	79.7
189.631	1.88
189.851	83.8
190.07	100.18
190.29	-75.95
190.509	20.31
190.729	75.6
190.948	198.48
191.168	161.62
191.387	128.85
191.607	-34.99
191.826	126.8
192.045	108.37
192.265	40.79
192.484	153.43
192.704	-6.31
192.923	-2.22
193.142	178
193.362	112.47
193.581	94.04
193.8	87.89
194.02	81.75
194.239	65.36
194.458	118.61
194.678	128.85
194.897	48.98
195.116	141.14
195.335	22.36
195.555	106.32
195.774	5.97
195.993	155.47
196.212	55.12
196.432	71.51
196.651	20.31
196.87	46.93
197.089	241.49
197.308	87.89
197.528	85.84
197.747	-0.17
197.966	73.56
198.185	165.71
198.404	-57.51
198.623	161.62
198.842	94.04
199.062	81.75
199.281	91.99
199.5	38.74
199.719	104.28
199.938	141.14
200.157	128.85
200.376	151.38
200.595	153.43
200.814	69.46
201.033	22.36
201.252	163.67
201.471	85.84
201.69	89.94
201.909	61.27
202.128	67.41
202.347	71.51
202.566	28.5
202.785	-26.79
203.004	28.5
203.223	284.5
203.442	10.07
203.661	-49.32
203.879	106.32
204.098	118.61
204.317	3.93
204.536	51.03
204.755	81.75
204.974	184.15
205.193	-8.36
205.411	53.08
205.63	161.62
205.849	100.18
206.068	26.45
206.287	-32.94
206.505	141.14
206.724	59.22
206.943	51.03
207.162	73.56
207.381	104.28
207.599	46.93
207.818	73.56
208.037	14.17
208.255	22.36
208.474	102.23
208.693	40.79
208.911	14.17
209.13	38.74
209.349	44.88
209.567	34.64
209.786	126.8
210.005	155.47
210.223	87.89
210.442	-63.66
210.661	-34.99
210.879	83.8
211.098	-0.17
211.316	96.08
211.535	81.75
211.753	120.66
211.972	91.99
212.191	71.51
212.409	55.12
212.628	79.7
212.846	10.07
213.065	24.4
213.283	104.28
213.502	69.46
213.72	44.88
213.938	59.22
214.157	42.84
214.375	110.42
214.594	30.55
214.812	153.43
215.031	28.5
215.249	48.98
215.467	16.21
215.686	79.7
215.904	141.14
216.122	102.23
216.341	132.95
216.559	98.13
216.778	124.76
216.996	169.81
217.214	-106.67
217.432	-26.79
217.651	-6.31
217.869	79.7
218.087	-14.51
218.306	-0.17
218.524	98.13
218.742	8.02
218.96	73.56
219.179	65.36
219.397	110.42
219.615	190.29
219.833	59.22
220.051	1.88
220.27	106.32
220.488	102.23
220.706	40.79
220.924	28.5
221.142	-16.55
221.36	114.52
221.578	75.6
221.796	44.88
222.015	22.36
222.233	132.95
222.451	190.29
222.669	48.98
222.887	104.28
223.105	-4.27
223.323	79.7
223.541	38.74
223.759	-0.17
223.977	36.69
224.195	200.53
224.413	118.61
224.631	36.69
224.849	71.51
225.067	239.44
225.285	-8.36
225.503	-24.75
225.721	-73.9
225.939	-0.17
226.157	83.8
226.375	231.25
226.592	10.07
226.81	94.04
227.028	110.42
227.246	155.47
227.464	51.03
227.682	104.28
227.9	83.8
228.117	67.41
228.335	91.99
228.553	-16.55
228.771	87.89
228.989	79.7
229.206	153.43
229.424	48.98
229.642	22.36
229.86	-2.22
230.077	141.14
230.295	73.56
230.513	186.19
230.731	71.51
230.948	132.95
231.166	100.18
231.384	30.55
231.601	-0.17
231.819	255.83
232.037	-6.31
232.254	53.08
232.472	1.88
232.689	10.07
232.907	1.88
233.125	65.36
233.342	16.21
233.56	22.36
233.777	71.51
233.995	38.74
234.213	87.89
234.43	149.33
234.648	32.6
234.865	108.37
235.083	124.76
235.3	51.03
235.518	132.95
235.735	169.81
235.953	96.08
236.17	67.41
236.388	24.4
236.605	48.98
236.822	126.8
237.04	135
237.257	100.18
237.475	-26.79
237.692	38.74
237.909	106.32
238.127	48.98
238.344	26.45
238.562	5.97
238.779	-10.41
238.996	-55.47
239.214	16.21
239.431	104.28
239.648	73.56
239.865	200.53
240.083	46.93
240.3	-20.65
240.517	-22.7
240.735	91.99
240.952	198.48
241.169	79.7
241.386	130.9
241.603	65.36
241.821	-90.28
242.038	102.23
242.255	55.12
242.472	-51.37
242.689	65.36
242.907	85.84
243.124	63.32
243.341	40.79
243.558	16.21
243.775	-6.31
243.992	-34.99
244.209	83.8
244.426	122.71
244.643	149.33
244.86	-12.46
245.078	128.85
245.295	139.09
245.512	108.37
245.729	53.08
245.946	202.58
246.163	100.18
246.38	-55.47
246.597	12.12
246.814	137.04
247.031	18.26
247.248	36.69
247.464	116.56
247.681	94.04
247.898	171.86
248.115	100.18
248.332	-34.99
248.549	126.8
248.766	180.05
248.983	100.18
249.2	51.03
249.417	165.71
249.633	-41.13
249.85	128.85
250.067	-65.71
250.284	122.71
250.501	87.89
250.717	61.27
250.934	-47.27
251.151	5.97
251.368	12.12
251.585	24.4
251.801	24.4
252.018	-75.95
252.235	83.8
252.451	-4.27
252.668	30.55
252.885	77.65
253.102	122.71
253.318	10.07
253.535	20.31
253.752	30.55
253.968	-37.03
254.185	-59.56
254.401	55.12
254.618	128.85
254.835	12.12
255.051	116.56
255.268	104.28
255.484	104.28
255.701	24.4
255.917	81.75
256.134	32.6
256.351	87.89
256.567	-26.79
256.784	-22.7
257	-32.94
257.217	75.6
257.433	145.24
257.65	83.8
257.866	157.52
258.082	-22.7
258.299	-32.94
258.515	-20.65
258.732	44.88
258.948	-26.79
259.165	89.94
259.381	14.17
259.597	53.08
259.814	51.03
260.03	32.6
260.246	44.88
260.463	100.18
260.679	63.32
260.895	53.08
261.112	159.57
261.328	10.07
261.544	61.27
261.761	157.52
261.977	32.6
262.193	-14.51
262.409	130.9
262.626	22.36
262.842	14.17
263.058	32.6
263.274	124.76
263.49	79.7
263.707	61.27
263.923	77.65
264.139	-28.84
264.355	141.14
264.571	130.9
264.787	14.17
265.004	143.19
265.22	65.36
265.436	46.93
265.652	-22.7
265.868	36.69
266.084	5.97
266.3	42.84
266.516	34.64
266.732	67.41
266.948	75.6
267.164	-2.22
267.38	130.9
267.596	81.75
267.812	169.81
268.028	104.28
268.244	5.97
268.46	51.03
268.676	75.6
268.892	208.72
269.108	12.12
269.324	-2.22
269.54	8.02
269.756	147.28
269.972	-86.19
270.188	59.22
270.403	-61.61
270.619	26.45
270.835	173.91
271.051	32.6
271.267	44.88
271.483	-0.17
271.698	212.82
271.914	83.8
272.13	14.17
272.346	57.17
272.562	65.36
272.777	171.86
272.993	57.17
273.209	-26.79
273.425	85.84
273.64	-0.17
273.856	108.37
274.072	32.6
274.287	-30.89
274.503	126.8
274.719	153.43
274.934	5.97
275.15	-14.51
275.366	28.5
275.581	-0.17
275.797	83.8
276.012	67.41
276.228	-39.08
276.444	73.56
276.659	206.67
276.875	30.55
277.09	63.32
277.306	59.22
277.521	102.23
277.737	110.42
277.952	132.95
278.168	16.21
278.383	81.75
278.599	-18.6
278.814	73.56
279.03	40.79
279.245	106.32
279.461	104.28
279.676	139.09
279.892	34.64
280.107	-34.99
280.322	-61.61
280.538	30.55
280.753	-55.47
280.969	118.61
281.184	-4.27
281.399	161.62
281.615	89.94
281.83	81.75
282.045	-8.36
282.26	-20.65
282.476	71.51
282.691	89.94
282.906	81.75
283.122	175.95
283.337	-80.04
283.552	42.84
283.767	79.7
283.983	94.04
284.198	12.12
284.413	63.32
284.628	10.07
284.843	32.6
285.058	57.17
285.274	77.65
285.489	-18.6
285.704	120.66
285.919	-12.46
286.134	-16.55
286.349	67.41
286.564	36.69
286.779	108.37
286.995	-32.94
287.21	-20.65
287.425	157.52
287.64	36.69
287.855	32.6
288.07	51.03
288.285	149.33
288.5	114.52
288.715	100.18
288.93	8.02
289.145	40.79
289.36	114.52
289.575	71.51
289.79	128.85
290.004	24.4
290.219	175.95
290.434	-4.27
290.649	24.4
290.864	-4.27
291.079	44.88
291.294	-12.46
291.509	120.66
291.724	48.98
291.938	-4.27
292.153	106.32
292.368	34.64
292.583	104.28
292.798	141.14
293.012	61.27
293.227	83.8
293.442	65.36
293.657	94.04
293.871	98.13
294.086	118.61
294.301	153.43
294.516	165.71
294.73	59.22
294.945	-30.89
295.16	3.93
295.374	120.66
295.589	114.52
295.804	71.51
296.018	55.12
296.233	167.76
296.447	65.36
296.662	87.89
296.877	137.04
297.091	137.04
297.306	30.55
297.52	28.5
297.735	85.84
297.949	53.08
298.164	116.56
298.378	71.51
298.593	-53.42
298.807	-20.65
299.022	34.64
299.236	110.42
299.451	3.93
299.665	-28.84
299.88	26.45
300.094	104.28
300.309	14.17
300.523	145.24
300.737	-22.7
300.952	145.24
301.166	63.32
301.381	-28.84
301.595	-0.17
301.809	12.12
302.024	71.51
302.238	3.93
302.452	137.04
302.667	44.88
302.881	192.34
303.095	118.61
303.309	65.36
303.524	18.26
303.738	3.93
303.952	-16.55
304.166	98.13
304.381	-131.24
304.595	120.66
304.809	28.5
305.023	100.18
305.237	81.75
305.452	44.88
305.666	98.13
305.88	61.27
306.094	122.71
306.308	42.84
306.522	110.42
306.736	67.41
306.95	130.9
307.164	77.65
307.379	63.32
307.593	163.67
307.807	167.76
308.021	38.74
308.235	182.1
308.449	-39.08
308.663	89.94
308.877	264.02
309.091	59.22
309.305	188.24
309.519	-73.9
309.733	135
309.947	-39.08
310.161	180.05
310.374	106.32
310.588	202.58
310.802	-16.55
311.016	44.88
311.23	96.08
311.444	8.02
311.658	59.22
311.872	157.52
312.085	132.95
312.299	102.23
312.513	198.48
312.727	53.08
312.941	-57.51
313.154	120.66
313.368	51.03
313.582	32.6
313.796	-10.41
314.009	44.88
314.223	161.62
314.437	114.52
314.651	91.99
314.864	108.37
315.078	81.75
315.292	53.08
315.505	28.5
315.719	87.89
315.933	145.24
316.146	10.07
316.36	-2.22
316.573	124.76
316.787	55.12
317.001	87.89
317.214	53.08
317.428	42.84
317.641	5.97
317.855	126.8
318.068	96.08
318.282	5.97
318.495	206.67
318.709	38.74
318.922	18.26
319.136	167.76
319.349	161.62
319.563	30.55
319.776	100.18
319.99	-6.31
320.203	22.36
320.417	65.36
320.63	151.38
320.843	188.24
321.057	42.84
321.27	81.75
321.483	77.65
321.697	137.04
321.91	77.65
322.124	63.32
322.337	118.61
322.55	61.27
322.763	126.8
322.977	85.84
323.19	8.02
323.403	110.42
323.617	20.31
323.83	143.19
324.043	-32.94
324.256	89.94
324.469	-47.27
324.683	208.72
324.896	34.64
325.109	83.8
325.322	-127.14
325.535	81.75
325.748	44.88
325.962	14.17
326.175	26.45
326.388	126.8
326.601	108.37
326.814	110.42
327.027	79.7
327.24	202.58
327.453	-14.51
327.666	77.65
327.879	100.18
328.092	48.98
328.305	61.27
328.518	59.22
328.731	-61.61
328.944	57.17
329.157	81.75
329.37	-14.51
329.583	214.87
329.796	112.47
330.009	-14.51
330.222	169.81
330.435	116.56
330.648	-34.99
330.861	71.51
331.073	165.71
331.286	108.37
331.499	98.13
331.712	3.93
331.925	-6.31
332.138	63.32
332.35	153.43
332.563	-39.08
332.776	61.27
332.989	-34.99
333.202	51.03
333.414	-49.32
333.627	55.12
333.84	79.7
334.053	87.89
334.265	61.27
334.478	-32.94
334.691	83.8
334.903	100.18
335.116	69.46
335.329	32.6
335.541	87.89
335.754	169.81
335.966	28.5
336.179	57.17
336.392	55.12
336.604	24.4
336.817	79.7
337.029	91.99
337.242	87.89
337.454	75.6
337.667	83.8
337.88	169.81
338.092	83.8
338.305	96.08
338.517	65.36
338.729	153.43
338.942	214.87
339.154	-18.6
339.367	-2.22
339.579	75.6
339.792	44.88
340.004	147.28
340.217	1.88
340.429	38.74
340.641	61.27
340.854	16.21
341.066	102.23
341.278	204.63
341.491	124.76
341.703	40.79
341.915	-22.7
342.128	194.39
342.34	42.84
342.552	-32.94
342.764	141.14
342.977	10.07
343.189	87.89
343.401	42.84
343.613	16.21
343.826	96.08
344.038	-75.95
344.25	51.03
344.462	-69.8
344.674	89.94
344.886	1.88
345.099	108.37
345.311	30.55
345.523	28.5
345.735	59.22
345.947	38.74
346.159	73.56
346.371	5.97
346.583	5.97
346.795	165.71
347.007	44.88
347.219	42.84
347.431	12.12
347.643	161.62
347.855	16.21
348.067	157.52
348.279	-45.23
348.491	102.23
348.703	130.9
348.915	100.18
349.127	-51.37
349.339	32.6
349.551	-2.22
349.763	106.32
349.975	87.89
350.187	96.08
350.399	173.91
350.61	57.17
350.822	12.12
351.034	89.94
351.246	128.85
351.458	96.08
351.669	94.04
351.881	118.61
352.093	116.56
352.305	175.95
352.517	51.03
352.728	173.91
352.94	79.7
353.152	132.95
353.363	16.21
353.575	157.52
353.787	167.76
353.999	67.41
354.21	235.35
354.422	8.02
354.633	102.23
354.845	51.03
355.057	69.46
355.268	91.99
355.48	100.18
355.692	-39.08
355.903	75.6
356.115	42.84
356.326	-125.1
356.538	112.47
356.749	108.37
356.961	124.76
357.172	24.4
357.384	-28.84
357.595	259.92
357.807	28.5
358.018	-41.13
358.23	-2.22
358.441	165.71
358.653	59.22
358.864	18.26
359.075	-12.46
359.287	96.08
359.498	145.24
359.709	91.99
359.921	-4.27
360.132	51.03
360.344	71.51
360.555	22.36
360.766	53.08
360.977	77.65
361.189	206.67
361.4	116.56
361.611	194.39
361.823	120.66
362.034	65.36
362.245	-63.66
362.456	53.08
362.667	124.76
362.879	-39.08
363.09	77.65
363.301	81.75
363.512	3.93
363.723	61.27
363.935	100.18
364.146	87.89
364.357	57.17
364.568	91.99
364.779	5.97
364.99	151.38
365.201	16.21
365.412	94.04
365.623	-47.27
365.834	132.95
366.045	108.37
366.256	48.98
366.467	102.23
366.678	-28.84
366.889	-18.6
367.1	32.6
367.311	69.46
367.522	22.36
367.733	120.66
367.944	75.6
368.155	8.02
368.366	75.6
368.577	200.53
368.788	100.18
368.999	-2.22
369.209	42.84
369.42	212.82
369.631	239.44
369.842	100.18
370.053	28.5
370.264	110.42
370.474	-34.99
370.685	77.65
370.896	65.36
371.107	137.04
371.317	135
371.528	-0.17
371.739	149.33
371.95	116.56
372.16	55.12
372.371	48.98
372.582	-0.17
372.792	59.22
373.003	137.04
373.214	135
373.424	167.76
373.635	-30.89
373.846	153.43
374.056	57.17
374.267	122.71
374.477	30.55
374.688	5.97
374.898	22.36
375.109	57.17
375.319	157.52
375.53	184.15
375.74	130.9
375.951	65.36
376.161	89.94
376.372	155.47
376.582	-49.32
376.793	77.65
377.003	20.31
377.214	1.88
377.424	104.28
377.635	40.79
377.845	-4.27
378.055	180.05
378.266	-75.95
378.476	28.5
378.686	79.7
378.897	100.18
379.107	112.47
379.317	63.32
379.528	14.17
379.738	135
379.948	32.6
380.158	116.56
380.369	126.8
380.579	98.13
380.789	116.56
380.999	71.51
381.21	161.62
381.42	169.81
381.63	63.32
381.84	16.21
382.05	157.52
382.261	137.04
382.471	130.9
382.681	28.5
382.891	126.8
383.101	83.8
383.311	-53.42
383.521	67.41
383.731	141.14
383.941	149.33
384.151	65.36
384.361	-55.47
384.571	118.61
384.781	98.13
384.991	264.02
385.201	270.16
385.411	116.56
385.621	110.42
385.831	91.99
386.041	110.42
386.251	42.84
386.461	96.08
386.671	20.31
386.881	79.7
387.091	81.75
387.301	128.85
387.511	128.85
387.72	139.09
387.93	77.65
388.14	20.31
388.35	-28.84
388.56	83.8
388.769	171.86
388.979	30.55
389.189	-53.42
389.399	98.13
389.609	112.47
389.818	114.52
390.028	30.55
390.238	96.08
390.447	-6.31
390.657	42.84
390.867	42.84
391.076	-39.08
391.286	114.52
391.496	22.36
391.705	81.75
391.915	55.12
392.125	112.47
392.334	22.36
392.544	122.71
392.753	141.14
392.963	-10.41
393.172	48.98
393.382	10.07
393.591	163.67
393.801	-6.31
394.01	239.44
394.22	91.99
394.429	14.17
394.639	12.12
394.848	89.94
395.058	89.94
395.267	20.31
395.477	196.43
395.686	79.7
395.895	151.38
396.105	212.82
396.314	149.33
396.524	44.88
396.733	71.51
396.942	128.85
397.152	157.52
397.361	237.39
397.57	108.37
397.78	132.95
397.989	169.81
398.198	198.48
398.407	71.51
398.617	126.8
398.826	110.42
399.035	71.51
399.244	104.28
399.453	22.36
399.663	112.47
399.872	69.46
400.081	28.5
400.29	102.23
400.499	28.5
400.708	167.76
400.917	98.13
401.127	-67.75
401.336	34.64
401.545	194.39
401.754	126.8
401.963	69.46
402.172	24.4
402.381	8.02
402.59	24.4
402.799	34.64
403.008	137.04
403.217	94.04
403.426	28.5
403.635	-82.09
403.844	100.18
404.053	104.28
404.262	-10.41
404.471	153.43
404.68	89.94
404.888	75.6
405.097	28.5
405.306	85.84
405.515	124.76
405.724	-43.18
405.933	171.86
406.142	32.6
406.35	85.84
406.559	48.98
406.768	14.17
406.977	202.58
407.185	59.22
407.394	112.47
407.603	10.07
407.812	102.23
408.02	132.95
408.229	79.7
408.438	63.32
408.646	-12.46
408.855	69.46
409.064	169.81
409.272	71.51
409.481	79.7
409.69	22.36
409.898	12.12
410.107	114.52
410.315	81.75
410.524	94.04
410.733	48.98
410.941	46.93
411.15	124.76
411.358	155.47
411.567	141.14
411.775	30.55
411.984	102.23
412.192	132.95
412.401	20.31
412.609	192.34
412.818	165.71
413.026	91.99
413.234	18.26
413.443	155.47
413.651	55.12
413.86	89.94
414.068	141.14
414.276	229.2
414.485	38.74
414.693	139.09
414.901	196.43
415.11	22.36
415.318	96.08
415.526	98.13
415.734	120.66
415.943	96.08
416.151	153.43
416.359	98.13
416.567	20.31
416.776	75.6
416.984	79.7
417.192	214.87
417.4	38.74
417.608	102.23
417.817	18.26
418.025	104.28
418.233	173.91
418.441	63.32
418.649	16.21
418.857	132.95
419.065	132.95
419.273	42.84
419.481	98.13
419.689	77.65
419.897	-20.65
420.105	59.22
420.313	145.24
420.521	192.34
420.729	229.2
420.937	42.84
421.145	20.31
421.353	153.43
421.561	139.09
421.769	135
421.977	34.64
422.185	132.95
422.393	32.6
422.601	173.91
422.809	141.14
423.017	89.94
423.224	63.32
423.432	153.43
423.64	-2.22
423.848	171.86
424.056	24.4
424.263	143.19
424.471	77.65
424.679	139.09
424.887	71.51
425.094	83.8
425.302	128.85
425.51	79.7
425.718	96.08
425.925	75.6
426.133	81.75
426.341	229.2
426.548	184.15
426.756	-2.22
426.964	141.14
427.171	16.21
427.379	214.87
427.586	139.09
427.794	169.81
428.001	173.91
428.209	77.65
428.417	229.2
428.624	122.71
428.832	46.93
429.039	108.37
429.247	81.75
429.454	137.04
429.662	145.24
429.869	241.49
430.076	165.71
430.284	192.34
430.491	243.54
430.699	218.96
430.906	216.91
431.114	155.47
431.321	153.43
431.528	130.9
431.736	188.24
431.943	139.09
432.15	231.25
432.358	212.82
432.565	311.12
432.772	22.36
432.979	237.39
433.187	130.9
433.394	237.39
433.601	223.06
433.808	347.98
434.016	296.78
434.223	241.49
434.43	278.35
434.637	268.11
434.844	372.56
435.052	274.26
435.259	266.07
435.466	366.42
435.673	319.31
435.88	327.5
436.087	311.12
436.294	382.8
436.501	399.18
436.708	384.85
436.915	249.68
437.122	495.44
437.329	311.12
437.537	444.24
437.743	388.94
437.95	477.01
438.157	388.94
438.364	442.19
438.571	434
438.778	462.67
438.985	532.3
439.192	620.36
439.399	501.58
439.606	548.68
439.813	622.41
440.02	816.97
440.227	696.14
440.433	657.23
440.64	530.25
440.847	565.07
441.054	587.6
441.261	796.49
441.467	773.96
441.674	687.95
441.881	862.02
442.088	747.34
442.294	829.26
442.501	855.88
442.708	931.66
442.914	915.27
443.121	997.19
443.328	1034.05
443.534	1161.03
443.741	1025.86
443.948	929.61
444.154	1103.68
444.361	1355.58
444.568	1195.84
444.774	1251.14
444.981	1173.32
445.187	1390.4
445.394	1347.39
445.6	1394.5
445.807	1619.77
446.013	1466.17
446.22	1541.95
446.426	1761.08
446.633	1584.96
446.839	1894.2
447.046	1750.84
447.252	1840.95
447.459	1867.58
447.665	1838.91
447.871	2090.81
448.078	2283.31
448.284	2275.12
448.491	2273.07
448.697	2334.51
448.903	2514.73
449.11	2477.87
449.316	2561.84
449.522	2576.17
449.728	2803.5
449.935	2852.65
450.141	2932.52
450.347	3180.32
450.553	3217.19
450.76	3276.58
450.966	3540.77
451.172	3524.38
451.378	3825.43
451.584	3663.65
451.791	4075.29
451.997	4167.45
452.203	4097.81
452.409	4405.01
452.615	4491.02
452.821	4437.78
453.027	4423.44
453.233	5091.08
453.44	5021.45
453.646	5316.36
453.852	5330.69
454.058	5703.42
454.264	5842.68
454.47	6264.57
454.676	6219.51
454.882	6774.51
455.088	6475.51
455.294	6829.81
455.5	7196.39
455.705	7708.38
455.911	7884.51
456.117	7894.75
456.323	8298.2
456.529	8279.77
456.735	9029.32
456.941	9125.58
457.147	9567.94
457.352	9756.35
457.558	10174.14
457.764	10604.21
457.97	10993.33
458.176	11310.76
458.381	11886.24
458.587	12250.78
458.793	12474.01
458.999	12854.93
459.204	14210.68
459.41	14943.86
459.616	14839.41
459.821	15623.78
460.027	16232.03
460.233	16926.29
460.438	17083.98
460.644	17999.43
460.85	18488.89
461.055	19127.86
461.261	19746.34
461.466	19336.75
461.672	19893.8
461.878	21911.05
462.083	21659.15
462.289	22437.37
462.494	22875.64
462.7	23600.62
462.905	23979.5
463.111	25693.65
463.316	26674.62
463.522	27125.18
463.727	28272.04
463.932	29875.6
464.138	30274.95
464.343	31556.98
464.549	31628.66
464.754	33981.77
464.959	35228.99
465.165	35210.56
465.37	35360.06
465.575	35132.73
465.781	37109.02
465.986	38669.58
466.191	37444.89
466.397	38450.44
466.602	37461.27
466.807	39501.05
467.012	40140.02
467.218	41413.85
467.423	40787.17
467.628	42196.18
467.833	43822.26
468.038	43136.2
468.244	42427.6
468.449	44866.73
468.654	43785.4
468.859	43619.52
469.064	43652.28
469.269	42765.51
469.474	43207.87
469.679	44233.91
469.885	43017.41
470.09	43678.91
470.295	43619.52
470.5	42863.82
470.705	42781.9
470.91	41950.42
471.115	41475.29
471.32	42200.27
471.525	42106.07
471.73	40725.74
471.935	40187.12
472.139	38868.23
472.344	38821.12
472.549	38522.12
472.754	37723.41
472.959	37154.08
473.164	35904.82
473.369	35216.7
473.574	36039.98
473.778	35329.34
473.983	34565.45
474.188	34211.15
474.393	32615.78
474.598	32664.93
474.802	31796.59
475.007	31341.94
475.212	30858.62
475.417	30080.39
475.621	29695.38
475.826	29382.04
476.031	28603.81
476.235	28075.43
476.44	28222.89
476.645	27545.01
476.849	26893.75
477.054	26746.3
477.259	26211.78
477.463	26082.76
477.668	25200.08
477.872	25290.2
478.077	24270.31
478.282	23821.8
478.486	23662.06
478.691	23361.01
478.895	23180.79
479.1	22932.98
479.304	23250.42
479.509	22341.12
479.713	22599.16
479.918	21814.79
480.122	21569.04
480.326	21857.8
480.531	21489.17
480.735	21577.23
480.94	21102.1
481.144	21618.19
481.348	20659.74
481.553	20958.74
481.757	20192.8
481.961	20450.85
482.166	20438.56
482.37	20084.26
482.574	19830.31
482.778	19686.95
482.983	19885.61
483.187	19617.32
483.391	19351.09
483.595	19308.08
483.8	18945.59
484.004	19070.51
484.208	19047.99
484.412	18701.88
484.616	18560.57
484.821	18353.73
485.025	17866.31
485.229	18077.25
485.433	17520.2
485.637	17313.36
485.841	17075.79
486.045	17040.98
486.249	16805.46
486.453	16330.33
486.657	16328.28
486.861	16094.82
487.065	15595.11
487.269	15548.01
487.473	14808.69
487.677	15199.85
487.881	15025.78
488.085	14382.71
488.289	14433.91
488.493	13801.09
488.697	13948.54
488.901	13547.14
489.105	13545.09
489.309	13444.74
489.512	13022.86
489.716	12738.19
489.92	12461.72
490.124	12265.11
490.328	12263.07
490.531	11890.34
490.735	11693.73
490.939	11357.86
491.143	11439.78
491.346	11079.34
491.55	10983.09
491.754	10882.74
491.958	10600.12
492.161	10518.2
492.365	10307.26
492.569	9891.52
492.772	9926.33
492.976	9729.73
493.18	9739.97
493.383	9567.94
493.587	9549.51
493.79	9389.77
493.994	9305.8
494.197	9322.18
494.401	8998.6
494.605	8855.25
494.808	9090.76
495.012	9035.47
495.215	8990.41
495.419	9027.28
495.622	8885.97
495.825	8597.2
496.029	8500.95
496.232	8611.54
496.436	8398.55
496.639	8738.51
496.843	8384.21
497.046	8543.95
497.249	8750.8
497.453	8599.25
497.656	8543.95
497.859	8617.68
498.063	8574.67
498.266	8758.99
498.469	8572.63
498.673	8658.64
498.876	8371.93
499.079	8691.41
499.282	8718.03
499.485	9047.76
499.689	8908.49
499.892	9058
500.095	8933.07
500.298	9146.06
500.501	9113.29
500.705	9211.59
500.908	9289.42
501.111	9440.97
501.314	9574.08
501.517	9473.73
501.72	9680.58
501.923	9537.22
502.126	9721.54
502.329	9961.15
502.532	10081.98
502.735	10133.18
502.938	10454.71
503.141	10403.51
503.344	10548.92
503.547	10737.33
503.75	10837.68
503.953	10841.78
504.156	11095.72
504.359	11118.25
504.562	11396.78
504.765	11601.57
504.968	11749.03
505.17	11695.78
505.373	12066.46
505.576	12254.87
505.779	12316.31
505.982	12525.21
506.185	13061.77
506.387	13121.17
506.59	13471.37
506.793	13735.56
506.996	13549.19
507.198	14083.71
507.401	14341.75
507.604	14698.1
507.807	15156.85
508.009	15236.72
508.212	15742.57
508.415	15849.06
508.617	15955.55
508.82	16422.49
509.022	16477.79
509.225	17247.82
509.428	17274.45
509.63	17774.15
509.833	17931.84
510.035	18798.13
510.238	18818.61
510.44	19416.62
510.643	19883.56
510.845	20319.78
511.048	20385.31
511.25	20932.12
511.453	21335.57
511.655	22736.38
511.858	22441.47
512.06	23051.77
512.262	23602.67
512.465	23797.23
512.667	24649.18
512.87	25296.34
513.072	25710.03
513.274	26428.87
513.477	27284.92
513.679	27714.99
513.881	28454.31
514.084	28812.7
514.286	29578.64
514.488	30088.59
514.69	31229.3
514.893	31251.83
515.095	31939.95
515.297	32796
515.499	33387.86
515.701	34043.21
515.904	34907.46
516.106	35419.45
516.308	36285.74
516.51	37162.27
516.712	37367.07
516.914	38278.41
517.116	39318.78
517.318	39873.78
517.52	40455.4
517.722	40885.48
517.925	42167.51
518.127	42933.45
518.329	43721.91
518.531	43431.1
518.733	44965.03
518.935	45685.92
519.136	46058.65
519.338	47287.43
519.54	47963.26
519.742	48483.44
519.944	48780.4
520.146	49794.14
520.348	50437.2
520.55	50719.82
520.752	51403.84
520.954	52882.48
521.155	52317.24
521.357	53433.38
521.559	53885.98
521.761	54815.76
521.963	55028.75
522.164	55313.42
522.366	56089.6
522.568	56409.08
522.77	56577.01
522.971	57813.99
523.173	57252.84
523.375	58170.33
523.576	58047.46
523.778	58188.77
523.98	59089.87
524.181	58874.83
524.383	59456.46
524.584	59542.47
524.786	59409.35
524.988	59427.79
525.189	60246.97
525.391	59642.82
525.592	60150.72
525.794	60355.52
525.995	60206.01
526.197	59521.99
526.398	59841.48
526.6	59833.28
526.801	59730.89
527.003	59546.57
527.204	59421.64
527.406	59280.33
527.607	59096.02
527.808	59093.97
528.01	58182.62
528.211	58098.65
528.412	58420.19
528.614	57986.02
528.815	57273.32
529.016	57527.27
529.218	56495.1
529.419	56333.31
529.62	56052.73
529.822	55448.58
530.023	54811.66
530.224	54602.77
530.425	53558.31
530.626	52726.83
530.828	52522.04
531.029	53013.55
531.23	51244.1
531.431	51371.08
531.632	50941
531.833	50467.92
532.035	49132.65
532.236	49075.3
532.437	48876.65
532.638	47664.25
532.839	47451.27
533.04	46877.83
533.241	45855.9
533.442	46277.78
533.643	45249.7
533.844	44354.74
534.045	44287.15
534.246	42990.79
534.447	42749.13
534.648	42650.83
534.849	41800.92
535.05	41149.67
535.251	41012.45
535.451	40015.09
535.652	39984.37
535.853	39091.46
536.054	38702.34
536.255	37874.96
536.456	37532.95
536.657	37395.74
536.857	36422.95
537.058	36164.91
537.259	35659.06
537.46	35241.28
537.66	34735.43
537.861	34463.05
538.062	34032.97
538.263	33500.5
538.463	33172.83
538.664	32542.05
538.865	32265.58
539.065	32017.77
539.266	31182.2
539.466	31550.84
539.667	30764.42
539.868	30586.24
540.068	29928.84
540.269	29513.11
540.469	29664.66
540.67	28708.26
540.87	29089.18
541.071	28616.1
541.271	28183.98
541.472	27592.11
541.672	27577.78
541.873	27299.25
542.073	26504.64
542.274	26998.2
542.474	25959.88
542.675	25814.48
542.875	25804.24
543.075	25216.47
543.276	24739.29
543.476	25165.27
543.676	24417.76
543.877	24223.2
544.077	24149.48
544.277	23854.57
544.478	23522.8
544.678	23555.57
544.878	22877.69
545.078	22636.03
545.279	22128.13
545.479	21837.32
545.679	22238.72
545.879	21689.87
546.079	21558.8
546.28	21345.81
546.48	20846.1
546.68	20516.38
546.88	20708.89
547.08	20188.71
547.28	19809.83
547.48	19770.92
547.68	19426.86
547.88	19248.69
548.081	19402.29
548.281	18638.39
548.481	18521.66
548.681	18380.35
548.881	18167.36
549.081	17858.12
549.28	17518.15
549.48	17673.8
549.68	17268.3
549.88	17272.4
550.08	16414.3
550.28	16612.95
550.48	16342.62
550.68	16084.58
550.88	15793.76
551.08	15658.6
551.279	15404.65
551.479	15079.02
551.679	15218.29
551.879	14820.98
552.079	14771.83
552.278	14337.66
552.478	14200.44
552.678	14157.44
552.878	13854.34
553.077	13383.31
553.277	13209.23
553.477	13141.64
553.676	12961.42
553.876	12863.12
554.076	12404.38
554.275	12312.22
554.475	11910.82
554.674	12011.17
554.874	11671.2
555.074	11404.97
555.273	11482.79
555.473	11286.19
555.672	10890.93
555.872	10983.09
556.071	10835.63
556.271	10655.41
556.47	10184.38
556.67	10077.88
556.869	10006.2
557.068	9770.69
557.268	9711.3
557.467	9760.45
557.667	9590.47
557.866	9041.61
558.065	9002.7
558.265	8963.79
558.464	8736.46
558.663	8705.74
558.863	8416.98
559.062	8521.43
559.261	8171.22
559.461	8480.47
559.66	7929.56
559.859	7616.23
560.058	7648.99
560.258	7499.49
560.457	7423.72
560.656	7417.57
560.855	7274.21
561.054	7331.56
561.253	7061.23
561.453	7063.27
561.652	6831.85
561.851	6858.48
562.05	6485.75
562.249	6395.64
562.448	6397.68
562.647	6237.94
562.846	6141.69
563.045	6080.25
563.244	6035.19
563.443	6125.3
563.642	5842.68
563.841	5773.05
564.04	5598.98
564.239	5742.33
564.438	5381.89
564.637	5332.74
564.836	5291.78
565.035	5142.28
565.234	5168.9
565.432	5306.12
565.631	5168.9
565.83	5115.66
566.029	5140.23
566.228	4790.03
566.427	4761.36
566.625	4595.47
566.824	4589.33
567.023	4568.85
567.222	4419.35
567.42	4462.35
567.619	4345.62
567.818	4374.29
568.016	4515.6
568.215	4239.12
568.414	4073.24
568.612	4089.62
568.811	4122.39
569.01	3964.7
569.208	3903.26
569.407	3979.03
569.605	3809.05
569.804	3876.63
570.002	3923.74
570.201	3571.49
570.4	3716.89
570.598	3417.89
570.797	3456.8
570.995	3358.5
571.193	3391.27
571.392	3354.4
571.59	3106.6
571.789	3188.52
571.987	3204.9
572.186	3311.39
572.384	3114.79
572.582	3106.6
572.781	3165.99
572.979	2928.42
573.177	3000.1
573.376	2963.24
573.574	2856.75
573.772	2787.11
573.971	2725.68
574.169	2639.66
574.367	2742.06
574.565	2615.09
574.763	2592.56
574.962	2529.07
575.16	2420.53
575.358	2342.71
575.556	2416.43
575.754	2283.31
575.952	2391.86
576.151	2393.9
576.349	2490.16
576.547	2144.05
576.745	2371.38
576.943	2174.77
577.141	2088.76
577.339	2039.61
577.537	2168.63
577.735	2064.18
577.933	1988.41
578.131	1730.36
578.329	2053.94
578.527	1834.81
578.725	1879.86
578.923	1781.56
579.121	1857.34
579.319	1771.32
579.516	1759.03
579.714	1931.06
579.912	1705.79
580.11	1595.2
580.308	1722.17
580.506	1662.78
580.704	1429.31
580.901	1564.48
581.099	1652.54
581.297	1500.99
581.495	1574.72
581.692	1468.22
581.89	1617.72
582.088	1451.84
582.285	1437.5
582.483	1423.17
582.681	1402.69
582.878	1437.5
583.076	1396.54
583.274	1443.65
583.471	1439.55
583.669	1310.53
583.866	1218.37
584.064	1249.09
584.262	1185.6
584.459	1173.32
584.657	1242.95
584.854	1326.91
585.052	1177.41
585.249	1212.23
585.447	1187.65
585.644	1023.81
585.841	1142.6
586.039	1197.89
586.236	1150.79
586.434	1085.25
586.631	1144.64
586.828	1054.53
587.026	1036.1
587.223	956.23
587.42	1048.39
587.618	976.71
587.815	1050.44
588.012	956.23
588.21	1001.29
588.407	1066.82
588.604	896.84
588.801	827.21
588.999	970.57
589.196	1023.81
589.393	898.89
589.59	911.18
589.787	929.61
589.984	896.84
590.182	933.7
590.379	792.39
590.576	911.18
590.773	855.88
590.97	845.64
591.167	898.89
591.364	884.55
591.561	823.11
591.758	878.41
591.955	843.59
592.152	825.16
592.349	794.44
592.546	825.16
592.743	765.77
592.94	890.7
593.137	757.58
593.334	962.37
593.531	835.4
593.727	972.61
593.924	950.09
594.121	956.23
594.318	737.1
594.515	913.22
594.712	853.83
594.908	1040.2
595.105	796.49
595.302	896.84
595.499	931.66
595.696	1032.01
595.892	935.75
596.089	1060.68
596.286	927.56
596.482	997.19
596.679	1148.74
596.876	1072.96
597.072	1122.12
597.269	1038.15
597.466	1134.4
597.662	1120.07
597.859	1126.21
598.055	1244.99
598.252	1218.37
598.448	1367.87
598.645	1398.59
598.841	1421.12
599.038	1578.81
599.234	1619.77
599.431	1587.01
599.627	1656.64
599.824	1785.66
600.02	1732.41
600.217	1888.06
600.413	1931.06
600.609	1918.78
600.806	2232.12
601.002	2209.59
601.198	2078.52
601.395	2379.57
601.591	2463.54
601.787	2330.42
601.984	2582.32
602.18	2670.38
602.376	2613.04
602.572	2848.55
602.769	2940.71
602.965	2905.9
603.161	3280.68
603.357	3368.74
603.553	3456.8
603.75	3467.04
603.946	3604.25
604.142	3761.95
604.338	4042.52
604.534	3940.12
604.73	4097.81
604.926	4058.9
605.122	4460.31
605.318	4470.55
605.514	4632.33
605.71	4706.06
605.906	5099.27
606.102	5025.54
606.298	5345.03
606.494	5443.33
606.69	5506.82
606.886	5658.37
607.082	5836.54
607.278	5883.64
607.474	6242.04
607.67	6356.72
607.866	6377.2
608.062	6698.74
608.257	7016.17
608.453	7018.22
608.649	7286.5
608.845	7235.3
609.041	7747.3
609.236	7778.01
609.432	8066.78
609.628	8265.43
609.824	8586.96
610.019	8695.5
610.215	8896.21
610.411	9264.84
610.606	9436.87
610.802	9604.8
610.998	9766.59
611.193	10493.62
611.389	10337.98
611.584	10634.93
611.78	10868.4
611.976	11069.1
612.171	11783.84
612.367	12035.74
612.562	12193.44
612.758	12410.52
612.953	12781.2
613.149	13366.92
613.344	13522.57
613.539	14061.18
613.735	14456.44
613.93	14706.29
614.126	15093.36
614.321	15351.4
614.517	15849.06
614.712	16283.23
614.907	16533.08
615.103	17139.28
615.298	17237.58
615.493	17835.59
615.688	18310.72
615.884	19107.38
616.079	19125.81
616.274	19772.97
616.47	20168.23
616.665	20712.99
616.86	21255.7
617.055	21722.63
617.25	22242.82
617.445	23193.08
617.641	23354.86
617.836	24163.81
618.031	24139.24
618.226	25488.85
618.421	25417.17
618.616	26353.09
618.811	26650.05
619.006	27758
619.201	27987.37
619.396	28390.82
619.591	29058.46
619.786	30430.6
619.981	30463.36
620.176	31430.01
620.371	31761.78
620.566	32943.45
620.761	33371.48
620.956	34110.8
621.151	33965.39
621.346	35251.52
621.541	35142.97
621.735	37143.84
621.93	37219.61
622.125	38169.87
622.32	38165.77
622.515	39378.17
622.709	39564.54
622.904	40580.33
623.099	41284.83
623.294	41995.48
623.488	42335.44
623.683	43654.33
623.878	43429.05
624.072	44932.26
624.267	45350.05
624.462	45849.75
624.656	46333.07
624.851	47398.02
625.046	47719.55
625.24	48419.95
625.435	48966.76
625.629	49570.91
625.824	50533.46
626.018	51000.4
626.213	50316.37
626.407	51782.72
626.602	52003.9
626.796	53443.62
626.991	53539.88
627.185	53564.45
627.38	53697.57
627.574	54131.74
627.768	54217.75
627.963	54598.68
628.157	54498.33
628.352	55086.09
628.546	54127.64
628.74	55145.48
628.935	54645.78
629.129	54965.26
629.323	53775.39
629.517	54015.01
629.712	53619.75
629.906	52876.33
630.1	52360.25
630.294	51762.24
630.489	51145.8
630.683	51002.44
630.877	49335.4
631.071	48843.88
631.265	48276.6
631.459	47051.91
631.653	45903
631.848	44995.75
632.042	43777.21
632.236	42986.69
632.43	41415.9
632.624	40760.55
632.818	39466.24
633.012	37903.63
633.206	36902.18
633.4	36015.41
633.594	34288.97
633.788	33563.99
633.982	32337.26
634.176	30967.16
634.369	29496.72
634.563	28728.73
634.757	27354.55
634.951	26736.06
635.145	25478.61
635.339	24667.61
635.533	23201.27
635.726	22812.15
635.92	21509.65
636.114	20618.78
636.308	19680.81
636.501	19000.88
636.695	18312.77
636.889	17389.13
637.083	16778.84
637.276	15984.23
637.47	15283.82
637.664	14911.09
637.857	14456.44
638.051	13880.96
638.244	13395.59
638.438	12684.95
638.632	12435.1
638.825	11644.58
639.019	11181.74
639.212	10780.34
639.406	10407.61
639.599	9909.95
639.793	9584.32
639.986	9047.76
640.18	8892.11
640.373	8568.53
640.567	8175.32
640.76	7939.8
640.954	7491.3
641.147	7223.02
641.34	7032.55
641.534	6848.24
641.727	6680.3
641.92	6199.03
642.114	6051.58
642.307	5936.89
642.5	5639.94
642.694	5336.84
642.887	5199.62
643.08	5158.66
643.273	4839.18
643.467	4527.89
643.66	4409.11
643.853	4128.53
644.046	4038.42
644.239	3831.58
644.432	3600.16
644.626	3471.14
644.819	3555.1
645.012	3233.57
645.205	3133.22
645.398	3143.46
645.591	2897.71
645.784	2828.07
645.977	2795.31
646.17	2580.27
646.363	2654
646.556	2424.62
646.749	2363.19
646.942	2352.95
647.135	2221.88
647.328	2088.76
647.521	2099
647.714	1974.07
647.907	1943.35
648.099	1771.32
648.292	1769.27
648.485	1830.71
648.678	1634.11
648.871	1521.47
649.064	1462.08
649.256	1453.89
649.449	1421.12
649.642	1265.47
649.835	1255.23
650.027	1208.13
650.22	1226.56
650.413	1222.47
650.605	1169.22
650.798	1056.58
650.991	1025.86
651.183	1027.91
651.376	966.47
651.568	1036.1
651.761	923.46
651.954	948.04
652.146	878.41
652.339	950.09
652.531	849.74
652.724	712.52
652.916	681.8
653.109	642.89
653.301	857.93
653.494	669.52
653.686	669.52
653.879	821.06
654.071	712.52
654.263	657.23
654.456	530.25
654.648	651.08
654.84	683.85
655.033	626.51
655.225	651.08
655.417	466.77
655.61	618.32
655.802	614.22
655.994	612.17
656.186	397.14
656.379	513.87
656.571	390.99
656.763	491.34
656.955	444.24
657.148	419.66
657.34	573.26
657.532	409.42
657.724	444.24
657.916	409.42
658.108	479.05
658.3	460.62
658.492	393.04
658.684	368.46
658.876	419.66
659.068	284.5
659.26	270.16
659.452	339.79
659.644	370.51
659.836	423.76
660.028	247.63
660.22	333.65
660.412	356.18
660.604	327.5
660.796	331.6
660.988	323.41
661.18	331.6
661.372	259.92
661.563	278.35
661.755	323.41
661.947	210.77
662.139	223.06
662.331	274.26
662.522	221.01
662.714	200.53
662.906	212.82
663.097	194.39
663.289	196.43
663.481	132.95
663.673	235.35
663.864	186.19
664.056	270.16
664.247	198.48
664.439	292.69
664.631	204.63
664.822	231.25
665.014	178
665.205	122.71
665.397	126.8
665.588	173.91
665.78	237.39
665.971	331.6
666.163	143.19
666.354	243.54
666.546	120.66
666.737	163.67
666.929	184.15
667.12	163.67
667.311	188.24
667.503	153.43
667.694	128.85
667.885	169.81
668.077	223.06
668.268	53.08
668.459	239.44
668.651	208.72
668.842	194.39
669.033	96.08
669.224	77.65
669.416	372.56
669.607	128.85
669.798	143.19
669.989	319.31
670.18	100.18
670.371	229.2
670.563	40.79
670.754	253.78
670.945	139.09
671.136	175.95
671.327	79.7
671.518	255.83
671.709	175.95
671.9	178
672.091	208.72
672.282	188.24
672.473	182.1
672.664	44.88
672.855	149.33
673.046	198.48
673.237	141.14
673.428	112.47
673.619	257.87
673.809	192.34
674	227.15
674.191	180.05
674.382	102.23
674.573	75.6
674.764	139.09
674.954	241.49
675.145	85.84
675.336	102.23
675.527	118.61
675.717	83.8
675.908	186.19
676.099	63.32
676.289	124.76
676.48	34.64
676.671	202.58
676.861	116.56
677.052	249.68
677.243	126.8
677.433	245.59
677.624	210.77
677.814	233.3
678.005	132.95
678.195	266.07
678.386	81.75
678.576	165.71
678.767	26.45
678.957	147.28
679.148	261.97
679.338	190.29
679.529	227.15
679.719	98.13
679.909	241.49
680.1	266.07
680.29	216.91
680.481	96.08
680.671	221.01
680.861	124.76
681.052	151.38
681.242	141.14
681.432	184.15
681.622	204.63
681.813	69.46
682.003	182.1
682.193	100.18
682.383	132.95
682.573	124.76
682.764	147.28
682.954	192.34
683.144	270.16
683.334	155.47
683.524	178
683.714	247.63
683.904	218.96
684.094	190.29
684.284	147.28
684.474	304.98
684.664	282.45
684.854	175.95
685.044	137.04
685.234	200.53
685.424	270.16
685.614	120.66
685.804	444.24
685.994	210.77
686.184	145.24
686.374	247.63
686.564	182.1
686.753	190.29
686.943	57.17
687.133	130.9
687.323	167.76
687.513	253.78
687.702	178
687.892	153.43
688.082	311.12
688.272	300.88
688.461	173.91
688.651	294.74
688.841	221.01
689.03	141.14
689.22	116.56
689.41	239.44
689.599	284.5
689.789	214.87
689.979	337.74
690.168	175.95
690.358	268.11
690.547	204.63
690.737	266.07
690.926	249.68
691.116	266.07
691.305	323.41
691.495	247.63
691.684	165.71
691.874	167.76
692.063	188.24
692.252	261.97
692.442	253.78
692.631	171.86
692.82	147.28
693.01	194.39
693.199	81.75
693.388	300.88
693.578	151.38
693.767	229.2
693.956	292.69
694.146	229.2
694.335	227.15
694.524	137.04
694.713	274.26
694.902	227.15
695.092	163.67
695.281	313.17
695.47	225.11
695.659	210.77
695.848	239.44
696.037	120.66
696.226	278.35
696.415	266.07
696.604	245.59
696.793	264.02
696.982	233.3
697.171	354.13
697.36	175.95
697.549	159.57
697.738	149.33
697.927	196.43
698.116	206.67
698.305	284.5
698.494	194.39
698.683	245.59
698.872	321.36
699.061	202.58
699.25	157.52
699.438	194.39
699.627	145.24
699.816	276.31
700.005	147.28
700.193	221.01
700.382	300.88
700.571	153.43
700.76	206.67
700.948	253.78
701.137	253.78
701.326	202.58
701.514	202.58
701.703	235.35
701.892	237.39
702.08	356.18
702.269	268.11
702.457	186.19
702.646	270.16
702.834	159.57
703.023	225.11
703.212	249.68
703.4	216.91
703.589	216.91
703.777	200.53
703.965	155.47
704.154	227.15
704.342	171.86
704.531	245.59
704.719	233.3
704.907	259.92
705.096	141.14
705.284	167.76
705.472	212.82
705.661	325.46
705.849	309.07
706.037	300.88
706.226	159.57
706.414	192.34
706.602	180.05
706.79	259.92
706.979	208.72
707.167	204.63
707.355	143.19
707.543	298.83
707.731	298.83
707.919	190.29
708.107	163.67
708.296	69.46
708.484	173.91
708.672	247.63
708.86	284.5
709.048	184.15
709.236	161.62
709.424	290.64
709.612	239.44
709.8	190.29
709.988	202.58
710.176	274.26
710.364	241.49
710.551	157.52
710.739	192.34
710.927	155.47
711.115	223.06
711.303	325.46
711.491	327.5
711.679	190.29
711.866	327.5
712.054	255.83
712.242	292.69
712.43	266.07
712.617	139.09
712.805	237.39
712.993	216.91
713.181	118.61
713.368	294.74
713.556	218.96
713.744	282.45
713.931	466.77
714.119	276.31
714.306	239.44
714.494	214.87
714.682	249.68
714.869	169.81
715.057	249.68
715.244	159.57
715.432	253.78
715.619	272.21
715.807	171.86
715.994	253.78
716.182	196.43
716.369	268.11
716.556	382.8
716.744	112.47
716.931	188.24
717.119	272.21
717.306	294.74
717.493	223.06
717.681	182.1
717.868	227.15
718.055	296.78
718.242	212.82
718.43	231.25
718.617	333.65
718.804	202.58
718.991	325.46
719.179	218.96
719.366	313.17
719.553	360.27
719.74	231.25
719.927	288.59
720.114	243.54
720.301	182.1
720.488	147.28
720.676	247.63
720.863	286.54
721.05	393.04
721.237	356.18
721.424	210.77
721.611	216.91
721.798	163.67
721.985	202.58
722.172	284.5
722.358	237.39
722.545	290.64
722.732	239.44
722.919	345.94
723.106	276.31
723.293	229.2
723.48	319.31
723.667	143.19
723.853	249.68
724.04	296.78
724.227	296.78
724.414	247.63
724.6	294.74
724.787	444.24
724.974	409.42
725.161	274.26
725.347	282.45
725.534	212.82
725.72	280.4
725.907	382.8
726.094	337.74
726.28	225.11
726.467	274.26
726.653	229.2
726.84	431.95
727.027	366.42
727.213	274.26
727.4	378.7
727.586	268.11
727.773	284.5
727.959	208.72
728.145	218.96
728.332	274.26
728.518	243.54
728.705	325.46
728.891	200.53
729.077	335.7
729.264	210.77
729.45	251.73
729.636	356.18
729.823	313.17
730.009	374.61
730.195	280.4
730.382	319.31
730.568	245.59
730.754	352.08
730.94	241.49
731.126	302.93
731.313	325.46
731.499	313.17
731.685	333.65
731.871	339.79
732.057	319.31
732.243	372.56
732.429	264.02
732.615	434
732.801	288.59
732.987	282.45
733.173	266.07
733.359	311.12
733.545	352.08
733.731	202.58
733.917	409.42
734.103	264.02
734.289	255.83
734.475	225.11
734.661	423.76
734.847	302.93
735.033	302.93
735.219	337.74
735.404	216.91
735.59	266.07
735.776	315.22
735.962	341.84
736.148	341.84
736.333	395.09
736.519	313.17
736.705	225.11
736.89	255.83
737.076	300.88
737.262	233.3
737.447	294.74
737.633	300.88
737.819	456.53
738.004	296.78
738.19	282.45
738.375	360.27
738.561	386.9
738.747	284.5
738.932	167.76
739.118	388.94
739.303	341.84
739.489	399.18
739.674	333.65
739.859	178
740.045	294.74
740.23	268.11
740.416	200.53
740.601	296.78
740.786	307.02
740.972	227.15
741.157	221.01
741.342	298.83
741.528	337.74
741.713	411.47
741.898	208.72
742.084	378.7
742.269	300.88
742.454	364.37
742.639	354.13
742.824	272.21
743.01	378.7
743.195	419.66
743.38	286.54
743.565	339.79
743.75	280.4
743.935	276.31
744.12	411.47
744.305	294.74
744.49	325.46
744.675	268.11
744.86	282.45
745.045	343.89
745.23	307.02
745.415	307.02
745.6	329.55
745.785	276.31
745.97	331.6
746.155	259.92
746.34	374.61
746.525	300.88
746.71	339.79
746.895	276.31
747.079	218.96
747.264	247.63
747.449	309.07
747.634	423.76
747.819	311.12
748.003	317.26
748.188	278.35
748.373	345.94
748.557	259.92
748.742	302.93
748.927	284.5
749.111	313.17
749.296	204.63
749.481	261.97
749.665	331.6
749.85	261.97
750.034	261.97
750.219	294.74
750.404	216.91
750.588	333.65
750.773	149.33
750.957	194.39
751.141	173.91
751.326	307.02
751.51	118.61
751.695	245.59
751.879	157.52
752.064	376.66
752.248	223.06
752.432	372.56
752.617	274.26
752.801	356.18
752.985	175.95
753.17	403.28
753.354	300.88
753.538	216.91
753.722	192.34
753.907	194.39
754.091	114.52
754.275	227.15
754.459	122.71
754.643	157.52
754.828	237.39
755.012	186.19
755.196	118.61
755.38	243.54
755.564	182.1
755.748	192.34
755.932	264.02
756.116	216.91
756.3	245.59
756.484	231.25
756.668	282.45
756.852	145.24
757.036	206.67
757.22	218.96
757.404	91.99
757.588	98.13
757.772	218.96
757.956	237.39
758.14	347.98
758.323	77.65
758.507	221.01
758.691	130.9
758.875	249.68
759.059	253.78
759.242	116.56
759.426	208.72
759.61	145.24
759.794	139.09
759.977	167.76
760.161	378.7
760.345	243.54
760.528	241.49
760.712	200.53
760.895	128.85
761.079	155.47
761.263	89.94
761.446	141.14
761.63	151.38
761.813	206.67
761.997	55.12
762.18	151.38
762.364	202.58
762.547	100.18
762.731	120.66
762.914	118.61
763.098	153.43
763.281	106.32
763.464	100.18
763.648	186.19
763.831	249.68
764.015	104.28
764.198	157.52
764.381	120.66
764.564	192.34
764.748	98.13
764.931	141.14
765.114	130.9
765.297	204.63
765.481	3.93
765.664	135
765.847	73.56
766.03	237.39
766.213	20.31
766.397	233.3
766.58	118.61
766.763	122.71
766.946	87.89
767.129	100.18
767.312	71.51
767.495	202.58
767.678	12.12
767.861	145.24
768.044	59.22
768.227	167.76
768.41	126.8
768.593	118.61
768.776	46.93
768.959	98.13
769.142	216.91
769.324	100.18
769.507	112.47
769.69	65.36
769.873	192.34
770.056	249.68
770.239	155.47
770.421	159.57
770.604	180.05
770.787	137.04
770.97	165.71
771.152	143.19
771.335	141.14
771.518	87.89
771.7	216.91
771.883	139.09
772.066	124.76
772.248	143.19
772.431	233.3
772.613	229.2
772.796	178
772.978	141.14
773.161	249.68
773.343	34.64
773.526	44.88
773.708	44.88
773.891	-12.46
774.073	110.42
774.256	38.74
774.438	212.82
774.621	147.28
774.803	143.19
774.985	81.75
775.168	124.76
775.35	130.9
775.532	159.57
775.715	96.08
775.897	53.08
776.079	118.61
776.261	69.46
776.444	59.22
776.626	5.97
776.808	108.37
776.99	10.07
777.173	46.93
777.355	57.17
777.537	104.28
777.719	112.47
777.901	83.8
778.083	94.04
778.265	-71.85
778.447	233.3
778.629	18.26
778.811	128.85
778.993	116.56
779.175	151.38
779.357	98.13
779.539	14.17
779.721	57.17
779.903	159.57
780.085	63.32
780.267	118.61
780.449	85.84
780.631	100.18
780.812	182.1
780.994	116.56
781.176	141.14
781.358	18.26
781.54	79.7
781.721	96.08
781.903	108.37
782.085	57.17
782.267	137.04
782.448	-10.41
782.63	5.97
782.812	65.36
782.993	22.36
783.175	36.69
783.357	36.69
783.538	104.28
783.72	65.36
783.901	151.38
784.083	147.28
784.264	145.24
784.446	-65.71
784.627	3.93
784.809	69.46
784.99	40.79
785.172	89.94
785.353	-2.22
785.535	24.4
785.716	16.21
785.897	-14.51
786.079	151.38
786.26	38.74
786.441	135
786.623	-30.89
786.804	-57.51
786.985	73.56
787.167	100.18
787.348	20.31
787.529	30.55
787.71	173.91
787.891	173.91
788.073	38.74
788.254	-12.46
788.435	108.37
788.616	106.32
788.797	-4.27
788.978	55.12
789.159	55.12
789.34	122.71
789.522	10.07
789.703	-2.22
789.884	85.84
790.065	32.6
790.246	149.33
790.427	75.6
790.607	206.67
790.788	147.28
790.969	59.22
791.15	118.61
791.331	-28.84
791.512	55.12
791.693	-71.85
791.874	22.36
792.054	247.63
792.235	100.18
792.416	26.45
792.597	30.55
792.778	81.75
792.958	38.74
793.139	-47.27
793.32	53.08
793.5	-4.27
793.681	83.8
793.862	51.03
794.042	44.88
794.223	-30.89
794.404	55.12
794.584	-22.7
794.765	71.51
794.945	-4.27
795.126	38.74
795.306	106.32
795.487	28.5
795.667	-2.22
795.848	100.18
796.028	26.45
796.209	-4.27
796.389	67.41
796.57	22.36
796.75	-8.36
796.93	16.21
797.111	-63.66
797.291	98.13
797.471	91.99
797.652	44.88
797.832	-53.42
798.012	71.51
798.192	46.93
798.373	-75.95
798.553	77.65
798.733	81.75
798.913	-71.85
799.093	34.64
799.274	96.08
799.454	59.22
799.634	120.66
799.814	48.98
799.994	53.08
800.174	42.84
800.354	24.4
800.534	-61.61
800.714	110.42
800.894	-77.99
801.074	-47.27
801.254	-22.7
801.434	157.52
801.614	-10.41
801.794	-24.75
801.974	1720.12
802.154	-2.22
802.334	137.04
802.514	-69.8
802.693	-10.41
802.873	-16.55
803.053	137.04
803.233	34.64
803.413	44.88
803.592	71.51
803.772	8.02
803.952	12.12
804.131	5.97
804.311	87.89
804.491	48.98
804.67	34.64
804.85	12.12
805.03	-0.17
805.209	44.88
805.389	-18.6
805.568	-28.84
805.748	-26.79
805.928	3.93
806.107	69.46
806.287	59.22
806.466	89.94
806.646	1.88
806.825	32.6
807.004	-12.46
807.184	91.99
807.363	98.13
807.543	75.6
807.722	-69.8
807.901	108.37
808.081	44.88
808.26	-61.61
808.439	-22.7
808.619	8.02
808.798	8.02
808.977	1.88
809.156	118.61
809.336	20.31
809.515	73.56
809.694	-8.36
809.873	51.03
810.052	32.6
810.231	81.75
810.411	55.12
810.59	98.13
810.769	18.26
810.948	79.7
811.127	-84.14
811.306	26.45
811.485	65.36
811.664	161.62
811.843	71.51
812.022	61.27
812.201	-22.7
812.38	42.84
812.559	-20.65
812.737	48.98
812.916	-123.05
813.095	-41.13
813.274	67.41
813.453	102.23
813.632	61.27
813.811	182.1
813.989	63.32
814.168	40.79
814.347	3.93
814.526	61.27
814.704	137.04
814.883	89.94
815.062	-59.56
815.24	77.65
815.419	-12.46
815.598	83.8
815.776	-133.29
815.955	12.12
816.133	-131.24
816.312	96.08
816.49	-69.8
816.669	96.08
816.847	-32.94
817.026	34.64
817.204	-30.89
817.383	-47.27
817.561	-28.84
817.74	38.74
817.918	1.88
818.097	-55.47
818.275	-24.75
818.453	32.6
818.632	34.64
818.81	-84.14
818.988	22.36
819.167	-16.55
819.345	-20.65
819.523	-20.65
819.701	91.99
819.879	-20.65
820.058	46.93
820.236	89.94
820.414	-2.22
820.592	16.21
820.77	24.4
820.948	-8.36
821.127	-45.23
821.305	81.75
821.483	-106.67
821.661	67.41
821.839	75.6
822.017	-90.28
822.195	-16.55
822.373	42.84
822.551	-24.75
822.729	110.42
822.907	-10.41
823.085	36.69
823.262	71.51
823.44	-26.79
823.618	-32.94
823.796	44.88
823.974	-4.27
824.152	-88.23
824.329	18.26
824.507	36.69
824.685	96.08
824.863	77.65
825.04	59.22
825.218	36.69
825.396	10.07
825.574	-22.7
825.751	81.75
825.929	-24.75
826.107	-96.43
826.284	44.88
826.462	65.36
826.639	-43.18
826.817	-63.66
826.994	10.07
827.172	-75.95
827.349	126.8
827.527	36.69
827.704	83.8
827.882	67.41
828.059	-63.66
828.237	-34.99
828.414	83.8
828.591	-143.53
828.769	1.88
828.946	-14.51
829.124	46.93
829.301	48.98
829.478	28.5
829.655	20.31
829.833	-34.99
830.01	-108.71
830.187	116.56
830.364	-37.03
830.542	-14.51
830.719	165.71
830.896	114.52
831.073	59.22
831.25	67.41
831.427	104.28
831.604	48.98
831.782	16.21
831.959	40.79
832.136	-10.41
832.313	-8.36
832.49	-80.04
832.667	63.32
832.844	-14.51
833.021	87.89
833.198	55.12
833.374	-28.84
833.551	44.88
833.728	1.88
833.905	30.55
834.082	-2.22
834.259	65.36
834.436	126.8
834.612	-77.99
834.789	28.5
834.966	40.79
835.143	28.5
835.319	26.45
835.496	85.84
835.673	73.56
835.85	124.76
836.026	26.45
836.203	16.21
836.38	5.97
836.556	-24.75
836.733	-2.22
836.909	55.12
837.086	-0.17
837.262	-59.56
837.439	-43.18
837.616	-61.61
837.792	-88.23
837.968	18.26
838.145	-71.85
838.321	26.45
838.498	57.17
838.674	135
838.851	102.23
839.027	51.03
839.203	14.17
839.38	-20.65
839.556	-59.56
839.732	110.42
839.909	46.93
840.085	22.36
840.261	-4.27
840.437	44.88
840.614	40.79
840.79	71.51
840.966	55.12
841.142	46.93
841.318	-16.55
841.494	71.51
841.671	94.04
841.847	-77.99
842.023	-28.84
842.199	34.64
842.375	57.17
842.551	-170.15
842.727	-12.46
842.903	112.47
843.079	-39.08
843.255	114.52
843.431	-55.47
843.607	53.08
843.783	-129.19
843.959	42.84
844.134	-104.62
844.31	89.94
844.486	-34.99
844.662	-4.27
844.838	-0.17
845.013	48.98
845.189	63.32
845.365	53.08
845.541	5.97
845.716	18.26
845.892	124.76
846.068	-6.31
846.244	-114.86
846.419	36.69
846.595	-16.55
846.77	3.93
846.946	104.28
847.122	-26.79
847.297	1.88
847.473	157.52
847.648	-39.08
847.824	-4.27
847.999	-88.23
848.175	-2.22
848.35	59.22
848.526	79.7
848.701	122.71
848.876	63.32
849.052	126.8
849.227	-121
849.403	36.69
849.578	-6.31
849.753	48.98
849.929	5.97
850.104	-114.86
850.279	28.5
850.454	-26.79
850.63	34.64
850.805	-10.41
850.98	71.51
851.155	-14.51
851.33	102.23
851.505	-22.7
851.681	61.27
851.856	-47.27
852.031	63.32
852.206	46.93
852.381	-26.79
852.556	5.97
852.731	44.88
852.906	100.18
853.081	67.41
853.256	132.95
853.431	-49.32
853.606	-71.85
853.781	-80.04
853.956	-98.47
854.131	57.17
854.305	-47.27
854.48	-86.19
854.655	-43.18
854.83	-67.75
855.005	14.17
855.18	-18.6
855.354	10.07
855.529	8.02
855.704	-71.85
855.879	-43.18
856.053	-55.47
856.228	3.93
856.403	-131.24
856.577	46.93
856.752	-139.43
856.926	38.74
857.101	53.08
857.276	-65.71
857.45	5.97
857.625	106.32
857.799	26.45
857.974	-47.27
858.148	-88.23
858.323	44.88
858.497	-30.89
858.672	77.65
858.846	-94.38
859.02	151.38
859.195	-20.65
859.369	-10.41
859.543	-16.55
859.718	59.22
859.892	10.07
860.066	44.88
860.241	-102.57
860.415	-2.22
860.589	-4.27
860.763	3.93
860.938	1.88
861.112	94.04
861.286	22.36
861.46	-12.46
861.634	-45.23
861.808	182.1
861.982	-22.7
862.157	-100.52
862.331	-26.79
862.505	-104.62
862.679	-73.9
862.853	20.31
863.027	-59.56
863.201	151.38
863.375	-8.36
863.549	38.74
863.722	22.36
863.896	141.14
864.07	-8.36
864.244	-18.6
864.418	79.7
864.592	-10.41
864.766	67.41
864.939	14.17
865.113	-18.6
865.287	114.52
865.461	-110.76
865.634	8.02
865.808	-47.27
865.982	-10.41
866.156	-61.61
866.329	-71.85
866.503	40.79
866.676	77.65
866.85	34.64
867.024	-53.42
867.197	38.74
867.371	53.08
867.544	77.65
867.718	-75.95
867.891	94.04
868.065	-34.99
868.238	79.7
868.412	141.14
868.585	20.31
868.759	24.4
868.932	-30.89
869.105	-61.61
869.279	22.36
869.452	-39.08
869.625	28.5
869.799	-24.75
869.972	-123.05
870.145	1.88
870.319	53.08
870.492	-28.84
870.665	-16.55
870.838	8.02
871.011	-67.75
871.185	16.21
871.358	-16.55
871.531	55.12
871.704	-82.09
871.877	10.07
872.05	-10.41
872.223	-77.99
872.396	14.17
872.569	53.08
872.742	-80.04
872.915	159.57
873.088	-55.47
873.261	-86.19
873.434	63.32
873.607	-20.65
873.78	59.22
873.953	-77.99
874.126	18.26
874.299	44.88
874.471	-63.66
874.644	-8.36
874.817	77.65
874.99	89.94
875.163	71.51
875.335	40.79
875.508	-106.67
875.681	59.22
875.853	-22.7
876.026	-2.22
876.199	110.42
876.371	48.98
876.544	42.84
876.717	28.5
876.889	-2.22
877.062	22.36
877.234	-102.57
877.407	1.88
877.579	10.07
877.752	3.93
877.924	57.17
878.097	67.41
878.269	-4.27
878.442	53.08
878.614	36.69
878.786	22.36
878.959	34.64
879.131	-26.79
879.303	-55.47
879.476	10.07
879.648	73.56
879.82	3.93
879.993	-82.09
880.165	-41.13
880.337	-61.61
880.509	14.17
880.681	-114.86
880.854	-6.31
881.026	126.8
881.198	147.28
881.37	40.79
881.542	42.84
881.714	28.5
881.886	-67.75
882.058	20.31
882.23	59.22
882.402	10.07
882.574	-20.65
882.746	55.12
882.918	91.99
883.09	-0.17
883.262	-96.43
883.434	28.5
883.606	-159.91
883.778	-6.31
883.95	124.76
884.122	-18.6
884.293	110.42
884.465	-2.22
884.637	32.6
884.809	8.02
884.98	-57.51
885.152	-2.22
885.324	96.08
885.496	-57.51
885.667	46.93
885.839	-18.6
886.011	102.23
886.182	130.9
886.354	104.28
886.525	12.12
886.697	-41.13
886.869	10.07
887.04	5.97
887.212	106.32
887.383	124.76
887.555	87.89
887.726	-92.33
887.897	-86.19
888.069	63.32
888.24	-6.31
888.412	34.64
888.583	-94.38
888.754	10.07
888.926	-59.56
889.097	-6.31
889.268	-112.81
889.44	40.79
889.611	-90.28
889.782	8.02
889.953	8.02
890.125	89.94
890.296	-32.94
890.467	-20.65
890.638	-6.31
890.809	34.64
890.98	-47.27
891.151	118.61
891.323	112.47
891.494	30.55
891.665	-55.47
891.836	28.5
892.007	-43.18
892.178	108.37
892.349	1.88
892.52	-12.46
892.691	65.36
892.862	14.17
893.032	-121
893.203	-18.6
893.374	83.8
893.545	71.51
893.716	-67.75
893.887	161.62
894.057	20.31
894.228	-55.47
894.399	-73.9
894.57	44.88
894.74	3.93
894.911	14.17
895.082	-53.42
895.253	-18.6
895.423	65.36
895.594	5.97
895.764	83.8
895.935	-98.47
896.106	48.98
896.276	-73.9
896.447	61.27
896.617	-80.04
896.788	-110.76
896.958	-51.37
897.129	-71.85
897.299	-8.36
897.47	-4.27
897.64	42.84
897.81	10.07
897.981	79.7
898.151	-18.6
898.322	-26.79
898.492	34.64
898.662	-164.01
898.832	-10.41
899.003	-8.36
899.173	-12.46
899.343	-73.9
899.513	-125.1
