Data from USB4F104151__112__10-36-24-422.txt Node

Date: Wed Feb 26 10:36:24 EST 2025
User: louis
Spectrometer: USB4F10415
Trigger mode: 4
Integration Time (sec): 1.000000E-1
Scans to average: 1
Electric dark correction enabled: true
Nonlinearity correction enabled: false
Boxcar width: 0
XAxis mode: Wavelengths
Number of Pixels in Spectrum: 3648
>>>>>Begin Spectral Data<<<<<
178.204	-444.75
178.424	-444.75
178.644	-444.75
178.864	-358.74
179.084	-454.99
179.304	9.9
179.524	-24.92
179.744	36.52
179.964	106.15
180.184	7.85
180.404	-4.44
180.624	-45.4
180.844	24.23
181.064	-98.64
181.283	16.04
181.503	-74.07
181.723	46.76
181.943	-110.93
182.163	183.98
182.383	3.75
182.602	57
182.822	147.11
183.042	11.95
183.262	-102.74
183.482	1.71
183.701	-24.92
183.921	44.71
184.141	-45.4
184.361	-4.44
184.58	13.99
184.8	18.09
185.02	-37.2
185.239	71.34
185.459	69.29
185.679	-8.53
185.898	-129.36
186.118	54.95
186.338	73.39
186.557	153.26
186.777	-74.07
186.997	-14.68
187.216	34.47
187.436	114.34
187.655	-14.68
187.875	57
188.095	34.47
188.314	102.06
188.534	208.55
188.753	-12.63
188.973	54.95
189.192	95.91
189.412	-61.78
189.631	-10.58
189.851	75.43
190.07	110.25
190.29	-29.01
190.509	24.23
190.729	57
190.948	87.72
191.168	155.3
191.387	91.82
191.607	11.95
191.826	42.67
192.045	34.47
192.265	-0.34
192.484	-12.63
192.704	-29.01
192.923	-24.92
193.142	183.98
193.362	30.38
193.581	132.78
193.8	69.29
194.02	85.67
194.239	59.05
194.458	102.06
194.678	73.39
194.897	71.34
195.116	28.33
195.335	26.28
195.555	18.09
195.774	-8.53
195.993	87.72
196.212	-39.25
196.432	-0.34
196.651	42.67
196.87	26.28
197.089	329.38
197.308	50.86
197.528	132.78
197.747	-74.07
197.966	57
198.185	136.87
198.404	-112.98
198.623	65.19
198.842	77.48
199.062	81.58
199.281	118.44
199.5	81.58
199.719	79.53
199.938	-4.44
200.157	20.14
200.376	1.71
200.595	153.26
200.814	57
201.033	-4.44
201.252	186.02
201.471	5.8
201.69	48.81
201.909	48.81
202.128	44.71
202.347	65.19
202.566	-51.54
202.785	-112.98
203.004	-0.34
203.223	290.47
203.442	-10.58
203.661	-14.68
203.879	122.54
204.098	85.67
204.317	22.19
204.536	89.77
204.755	34.47
204.974	71.34
205.193	-41.3
205.411	130.73
205.63	112.3
205.849	102.06
206.068	59.05
206.287	-49.49
206.505	186.02
206.724	-20.82
206.943	-10.58
207.162	-31.06
207.381	9.9
207.599	28.33
207.818	-14.68
208.037	-45.4
208.255	22.19
208.474	165.54
208.693	48.81
208.911	-47.44
209.13	106.15
209.349	65.19
209.567	57
209.786	114.34
210.005	69.29
210.223	-22.87
210.442	-184.66
210.661	-61.78
210.879	5.8
211.098	24.23
211.316	3.75
211.535	28.33
211.753	73.39
211.972	91.82
212.191	1.71
212.409	-20.82
212.628	34.47
212.846	-102.74
213.065	-10.58
213.283	63.15
213.502	85.67
213.72	34.47
213.938	20.14
214.157	1.71
214.375	91.82
214.594	46.76
214.812	71.34
215.031	-0.34
215.249	-16.73
215.467	44.71
215.686	104.11
215.904	73.39
216.122	59.05
216.341	79.53
216.559	38.57
216.778	77.48
216.996	110.25
217.214	-12.63
217.432	73.39
217.651	-20.82
217.869	38.57
218.087	93.87
218.306	22.19
218.524	110.25
218.742	38.57
218.96	59.05
219.179	-4.44
219.397	67.24
219.615	231.08
219.833	-12.63
220.051	40.62
220.27	22.19
220.488	77.48
220.706	61.1
220.924	-41.3
221.142	-37.2
221.36	-16.73
221.578	20.14
221.796	24.23
222.015	52.91
222.233	42.67
222.451	59.05
222.669	-33.11
222.887	24.23
223.105	26.28
223.323	-8.53
223.541	-29.01
223.759	7.85
223.977	-26.96
224.195	153.26
224.413	110.25
224.631	38.57
224.849	83.63
225.067	167.59
225.285	18.09
225.503	5.8
225.721	-33.11
225.939	75.43
226.157	-22.87
226.375	216.74
226.592	-4.44
226.81	16.04
227.028	112.3
227.246	126.63
227.464	73.39
227.682	69.29
227.9	52.91
228.117	149.16
228.335	-16.73
228.553	20.14
228.771	-29.01
228.989	40.62
229.206	104.11
229.424	-0.34
229.642	-47.44
229.86	-51.54
230.077	159.4
230.295	-14.68
230.513	112.3
230.731	128.68
230.948	122.54
231.166	173.74
231.384	48.81
231.601	-41.3
231.819	77.48
232.037	-39.25
232.254	-65.88
232.472	22.19
232.689	61.1
232.907	132.78
233.125	-10.58
233.342	-49.49
233.56	3.75
233.777	-26.96
233.995	-33.11
234.213	30.38
234.43	118.44
234.648	-20.82
234.865	-4.44
235.083	44.71
235.3	32.43
235.518	44.71
235.735	69.29
235.953	73.39
236.17	1.71
236.388	-4.44
236.605	48.81
236.822	183.98
237.04	1.71
237.257	128.68
237.475	16.04
237.692	-12.63
237.909	91.82
238.127	-43.35
238.344	57
238.562	118.44
238.779	-123.22
238.996	-57.68
239.214	26.28
239.431	42.67
239.648	11.95
239.865	65.19
240.083	81.58
240.3	-37.2
240.517	-22.87
240.735	61.1
240.952	200.36
241.169	118.44
241.386	100.01
241.603	24.23
241.821	-6.49
242.038	132.78
242.255	138.92
242.472	-129.36
242.689	73.39
242.907	9.9
243.124	-8.53
243.341	-61.78
243.558	-26.96
243.775	-63.83
243.992	-78.16
244.209	13.99
244.426	122.54
244.643	-22.87
244.86	42.67
245.078	57
245.295	75.43
245.512	50.86
245.729	1.71
245.946	44.71
246.163	-43.35
246.38	61.1
246.597	7.85
246.814	30.38
247.031	1.71
247.248	46.76
247.464	77.48
247.681	-10.58
247.898	69.29
248.115	52.91
248.332	-43.35
248.549	81.58
248.766	149.16
248.983	122.54
249.2	95.91
249.417	97.96
249.633	-4.44
249.85	81.58
250.067	61.1
250.284	73.39
250.501	79.53
250.717	36.52
250.934	-16.73
251.151	34.47
251.368	-29.01
251.585	-6.49
251.801	97.96
252.018	-65.88
252.235	30.38
252.451	-86.36
252.668	-72.02
252.885	48.81
253.102	48.81
253.318	38.57
253.535	-33.11
253.752	-41.3
253.968	9.9
254.185	-98.64
254.401	-16.73
254.618	59.05
254.835	-0.34
255.051	151.21
255.268	36.52
255.484	57
255.701	34.47
255.917	48.81
256.134	-37.2
256.351	13.99
256.567	-41.3
256.784	24.23
257	-78.16
257.217	67.24
257.433	87.72
257.65	-8.53
257.866	159.4
258.082	-143.7
258.299	-96.6
258.515	50.86
258.732	-65.88
258.948	-12.63
259.165	28.33
259.381	-41.3
259.597	32.43
259.814	-55.64
260.03	7.85
260.246	18.09
260.463	134.82
260.679	77.48
260.895	44.71
261.112	-4.44
261.328	-74.07
261.544	-29.01
261.761	130.73
261.977	34.47
262.193	-45.4
262.409	71.34
262.626	22.19
262.842	32.43
263.058	-18.77
263.274	114.34
263.49	85.67
263.707	50.86
263.923	69.29
264.139	-53.59
264.355	110.25
264.571	50.86
264.787	11.95
265.004	32.43
265.22	1.71
265.436	-10.58
265.652	57
265.868	13.99
266.084	-41.3
266.3	-22.87
266.516	-35.16
266.732	32.43
266.948	91.82
267.164	24.23
267.38	114.34
267.596	153.26
267.812	202.41
268.028	42.67
268.244	-24.92
268.46	16.04
268.676	-61.78
268.892	108.2
269.108	-65.88
269.324	-51.54
269.54	-4.44
269.756	52.91
269.972	-131.41
270.188	34.47
270.403	-43.35
270.619	-18.77
270.835	26.28
271.051	32.43
271.267	-26.96
271.483	16.04
271.698	91.82
271.914	40.62
272.13	89.77
272.346	-67.92
272.562	34.47
272.777	181.93
272.993	-47.44
273.209	32.43
273.425	89.77
273.64	-94.55
273.856	169.64
274.072	-55.64
274.287	-94.55
274.503	48.81
274.719	102.06
274.934	-49.49
275.15	-51.54
275.366	-43.35
275.581	-49.49
275.797	3.75
276.012	-0.34
276.228	-8.53
276.444	32.43
276.659	161.45
276.875	-92.5
277.09	-33.11
277.306	-2.39
277.521	73.39
277.737	54.95
277.952	46.76
278.168	5.8
278.383	71.34
278.599	134.82
278.814	75.43
279.03	22.19
279.245	85.67
279.461	30.38
279.676	106.15
279.892	-112.98
280.107	-106.84
280.322	-4.44
280.538	52.91
280.753	-90.45
280.969	95.91
281.184	30.38
281.399	192.17
281.615	32.43
281.83	30.38
282.045	-26.96
282.26	-45.4
282.476	38.57
282.691	143.02
282.906	89.77
283.122	57
283.337	-31.06
283.552	28.33
283.767	20.14
283.983	50.86
284.198	-43.35
284.413	61.1
284.628	-133.46
284.843	50.86
285.058	63.15
285.274	11.95
285.489	-67.92
285.704	46.76
285.919	-33.11
286.134	57
286.349	-12.63
286.564	3.75
286.779	89.77
286.995	42.67
287.21	-94.55
287.425	20.14
287.64	-80.21
287.855	1.71
288.07	-74.07
288.285	93.87
288.5	91.82
288.715	69.29
288.93	1.71
289.145	-74.07
289.36	106.15
289.575	1.71
289.79	179.88
290.004	24.23
290.219	132.78
290.434	13.99
290.649	-35.16
290.864	3.75
291.079	-29.01
291.294	54.95
291.509	24.23
291.724	54.95
291.938	7.85
292.153	65.19
292.368	36.52
292.583	38.57
292.798	11.95
293.012	122.54
293.227	61.1
293.442	61.1
293.657	140.97
293.871	138.92
294.086	-31.06
294.301	194.22
294.516	59.05
294.73	3.75
294.945	-10.58
295.16	24.23
295.374	89.77
295.589	69.29
295.804	16.04
296.018	9.9
296.233	110.25
296.447	97.96
296.662	-12.63
296.877	65.19
297.091	71.34
297.306	-43.35
297.52	3.75
297.735	57
297.949	-31.06
298.164	-0.34
298.378	-4.44
298.593	-57.68
298.807	20.14
299.022	-33.11
299.236	63.15
299.451	-29.01
299.665	-24.92
299.88	-14.68
300.094	42.67
300.309	-53.59
300.523	81.58
300.737	1.71
300.952	40.62
301.166	-12.63
301.381	-59.73
301.595	61.1
301.809	-16.73
302.024	9.9
302.238	13.99
302.452	120.49
302.667	69.29
302.881	83.63
303.095	59.05
303.309	112.3
303.524	-65.88
303.738	-18.77
303.952	-20.82
304.166	26.28
304.381	-102.74
304.595	163.5
304.809	-43.35
305.023	38.57
305.237	26.28
305.452	9.9
305.666	134.82
305.88	106.15
306.094	153.26
306.308	7.85
306.522	65.19
306.736	18.09
306.95	97.96
307.164	-6.49
307.379	-20.82
307.593	124.58
307.807	149.16
308.021	91.82
308.235	85.67
308.449	-47.44
308.663	-45.4
308.877	208.55
309.091	63.15
309.305	34.47
309.519	-80.21
309.733	126.63
309.947	-65.88
310.161	13.99
310.374	42.67
310.588	75.43
310.802	-47.44
311.016	-10.58
311.23	7.85
311.444	-37.2
311.658	40.62
311.872	30.38
312.085	122.54
312.299	75.43
312.513	112.3
312.727	-12.63
312.941	16.04
313.154	13.99
313.368	-22.87
313.582	-18.77
313.796	73.39
314.009	-29.01
314.223	128.68
314.437	81.58
314.651	-8.53
314.864	-22.87
315.078	-20.82
315.292	-24.92
315.505	38.57
315.719	89.77
315.933	22.19
316.146	-39.25
316.36	-33.11
316.573	102.06
316.787	13.99
317.001	20.14
317.214	46.76
317.428	-14.68
317.641	-47.44
317.855	11.95
318.068	65.19
318.282	83.63
318.495	132.78
318.709	-8.53
318.922	24.23
319.136	132.78
319.349	93.87
319.563	7.85
319.776	93.87
319.99	-86.36
320.203	1.71
320.417	-31.06
320.63	40.62
320.843	157.35
321.057	67.24
321.27	36.52
321.483	102.06
321.697	134.82
321.91	40.62
322.124	110.25
322.337	-12.63
322.55	-35.16
322.763	93.87
322.977	28.33
323.19	-78.16
323.403	44.71
323.617	42.67
323.83	108.2
324.043	38.57
324.256	52.91
324.469	-43.35
324.683	75.43
324.896	18.09
325.109	9.9
325.322	-26.96
325.535	26.28
325.748	18.09
325.962	50.86
326.175	1.71
326.388	20.14
326.601	106.15
326.814	1.71
327.027	40.62
327.24	13.99
327.453	-82.26
327.666	132.78
327.879	122.54
328.092	83.63
328.305	122.54
328.518	-4.44
328.731	34.47
328.944	34.47
329.157	130.73
329.37	-24.92
329.583	59.05
329.796	77.48
330.009	-35.16
330.222	69.29
330.435	87.72
330.648	3.75
330.861	-16.73
331.073	57
331.286	118.44
331.499	13.99
331.712	-84.31
331.925	36.52
332.138	-6.49
332.35	81.58
332.563	-14.68
332.776	157.35
332.989	3.75
333.202	54.95
333.414	18.09
333.627	61.1
333.84	11.95
334.053	-8.53
334.265	-8.53
334.478	-57.68
334.691	81.58
334.903	50.86
335.116	-43.35
335.329	-45.4
335.541	-6.49
335.754	40.62
335.966	20.14
336.179	-14.68
336.392	-8.53
336.604	-10.58
336.817	143.02
337.029	77.48
337.242	16.04
337.454	11.95
337.667	-12.63
337.88	106.15
338.092	91.82
338.305	48.81
338.517	-37.2
338.729	167.59
338.942	79.53
339.154	-69.97
339.367	-22.87
339.579	71.34
339.792	-14.68
340.004	67.24
340.217	-22.87
340.429	44.71
340.641	-51.54
340.854	-4.44
341.066	24.23
341.278	59.05
341.491	153.26
341.703	-8.53
341.915	-14.68
342.128	34.47
342.34	-35.16
342.552	-37.2
342.764	-59.73
342.977	-29.01
343.189	-4.44
343.401	65.19
343.613	13.99
343.826	34.47
344.038	-39.25
344.25	30.38
344.462	13.99
344.674	106.15
344.886	-39.25
345.099	81.58
345.311	124.58
345.523	24.23
345.735	-127.32
345.947	28.33
346.159	44.71
346.371	83.63
346.583	36.52
346.795	153.26
347.007	-78.16
347.219	59.05
347.431	40.62
347.643	132.78
347.855	-45.4
348.067	157.35
348.279	-53.59
348.491	-8.53
348.703	63.15
348.915	11.95
349.127	-33.11
349.339	57
349.551	-20.82
349.763	89.77
349.975	-6.49
350.187	97.96
350.399	134.82
350.61	30.38
350.822	22.19
351.034	-26.96
351.246	34.47
351.458	79.53
351.669	69.29
351.881	67.24
352.093	95.91
352.305	46.76
352.517	93.87
352.728	110.25
352.94	46.76
353.152	126.63
353.363	-51.54
353.575	-2.39
353.787	165.54
353.999	22.19
354.21	157.35
354.422	-33.11
354.633	9.9
354.845	75.43
355.057	-35.16
355.268	13.99
355.48	57
355.692	-117.08
355.903	5.8
356.115	-82.26
356.326	-94.55
356.538	44.71
356.749	16.04
356.961	85.67
357.172	-8.53
357.384	-104.79
357.595	208.55
357.807	-41.3
358.018	13.99
358.23	28.33
358.441	140.97
358.653	116.39
358.864	36.52
359.075	-24.92
359.287	-24.92
359.498	75.43
359.709	106.15
359.921	20.14
360.132	16.04
360.344	3.75
360.555	93.87
360.766	42.67
360.977	-41.3
361.189	77.48
361.4	-74.07
361.611	128.68
361.823	147.11
362.034	-6.49
362.245	-63.83
362.456	9.9
362.667	61.1
362.879	9.9
363.09	40.62
363.301	40.62
363.512	97.96
363.723	-67.92
363.935	48.81
364.146	42.67
364.357	26.28
364.568	24.23
364.779	-26.96
364.99	116.39
365.201	-39.25
365.412	83.63
365.623	-49.49
365.834	102.06
366.045	-35.16
366.256	54.95
366.467	48.81
366.678	145.06
366.889	-18.77
367.1	-57.68
367.311	57
367.522	-22.87
367.733	93.87
367.944	100.01
368.155	-33.11
368.366	116.39
368.577	104.11
368.788	28.33
368.999	-39.25
369.209	63.15
369.42	206.5
369.631	274.09
369.842	40.62
370.053	-14.68
370.264	81.58
370.474	-39.25
370.685	61.1
370.896	83.63
371.107	71.34
371.317	36.52
371.528	40.62
371.739	116.39
371.95	22.19
372.16	48.81
372.371	-24.92
372.582	-0.34
372.792	87.72
373.003	30.38
373.214	13.99
373.424	85.67
373.635	-37.2
373.846	77.48
374.056	28.33
374.267	50.86
374.477	-6.49
374.688	-45.4
374.898	30.38
375.109	93.87
375.319	-22.87
375.53	97.96
375.74	173.74
375.951	-4.44
376.161	28.33
376.372	40.62
376.582	7.85
376.793	71.34
377.003	-10.58
377.214	5.8
377.424	16.04
377.635	95.91
377.845	-12.63
378.055	89.77
378.266	-82.26
378.476	100.01
378.686	34.47
378.897	44.71
379.107	71.34
379.317	52.91
379.528	-45.4
379.738	79.53
379.948	-45.4
380.158	79.53
380.369	89.77
380.579	28.33
380.789	13.99
380.999	61.1
381.21	54.95
381.42	210.6
381.63	-2.39
381.84	63.15
382.05	46.76
382.261	87.72
382.471	147.11
382.681	32.43
382.891	122.54
383.101	63.15
383.311	-14.68
383.521	-102.74
383.731	85.67
383.941	95.91
384.151	69.29
384.361	-43.35
384.571	52.91
384.781	-4.44
384.991	190.12
385.201	118.44
385.411	44.71
385.621	26.28
385.831	34.47
386.041	-0.34
386.251	-22.87
386.461	83.63
386.671	-61.78
386.881	69.29
387.091	20.14
387.301	67.24
387.511	63.15
387.72	-14.68
387.93	147.11
388.14	-92.5
388.35	20.14
388.56	18.09
388.769	87.72
388.979	20.14
389.189	-12.63
389.399	89.77
389.609	85.67
389.818	83.63
390.028	24.23
390.238	108.2
390.447	28.33
390.657	128.68
390.867	-29.01
391.076	-117.08
391.286	5.8
391.496	57
391.705	89.77
391.915	132.78
392.125	171.69
392.334	54.95
392.544	122.54
392.753	114.34
392.963	-61.78
393.172	-14.68
393.382	40.62
393.591	65.19
393.801	-6.49
394.01	151.21
394.22	69.29
394.429	28.33
394.639	34.47
394.848	106.15
395.058	50.86
395.267	26.28
395.477	61.1
395.686	69.29
395.895	229.03
396.105	171.69
396.314	7.85
396.524	24.23
396.733	20.14
396.942	57
397.152	95.91
397.361	40.62
397.57	34.47
397.78	-45.4
397.989	65.19
398.198	151.21
398.407	20.14
398.617	-26.96
398.826	13.99
399.035	5.8
399.244	57
399.453	-14.68
399.663	57
399.872	87.72
400.081	-49.49
400.29	130.73
400.499	40.62
400.708	149.16
400.917	89.77
401.127	50.86
401.336	-49.49
401.545	153.26
401.754	52.91
401.963	54.95
402.172	48.81
402.381	-43.35
402.59	-2.39
402.799	26.28
403.008	93.87
403.217	102.06
403.426	52.91
403.635	-74.07
403.844	1.71
404.053	-31.06
404.262	-57.68
404.471	93.87
404.68	38.57
404.888	24.23
405.097	-33.11
405.306	32.43
405.515	44.71
405.724	-90.45
405.933	100.01
406.142	124.58
406.35	112.3
406.559	-6.49
406.768	42.67
406.977	177.83
407.185	32.43
407.394	126.63
407.603	1.71
407.812	11.95
408.02	136.87
408.229	67.24
408.438	95.91
408.646	-18.77
408.855	-86.36
409.064	67.24
409.272	63.15
409.481	30.38
409.69	-49.49
409.898	11.95
410.107	9.9
410.315	145.06
410.524	-35.16
410.733	9.9
410.941	1.71
411.15	95.91
411.358	52.91
411.567	114.34
411.775	30.38
411.984	18.09
412.192	130.73
412.401	1.71
412.609	50.86
412.818	71.34
413.026	69.29
413.234	-26.96
413.443	32.43
413.651	1.71
413.86	-18.77
414.068	44.71
414.276	149.16
414.485	-22.87
414.693	167.59
414.901	237.22
415.11	32.43
415.318	-8.53
415.526	7.85
415.734	143.02
415.943	57
416.151	106.15
416.359	97.96
416.567	46.76
416.776	130.73
416.984	118.44
417.192	159.4
417.4	-8.53
417.608	30.38
417.817	-33.11
418.025	59.05
418.233	134.82
418.441	20.14
418.649	-65.88
418.857	79.53
419.065	145.06
419.273	-51.54
419.481	-0.34
419.689	-6.49
419.897	-8.53
420.105	-51.54
420.313	91.82
420.521	61.1
420.729	134.82
420.937	9.9
421.145	-63.83
421.353	110.25
421.561	102.06
421.769	48.81
421.977	-31.06
422.185	48.81
422.393	20.14
422.601	28.33
422.809	95.91
423.017	32.43
423.224	57
423.432	97.96
423.64	-12.63
423.848	118.44
424.056	18.09
424.263	63.15
424.471	-26.96
424.679	153.26
424.887	-33.11
425.094	134.82
425.302	34.47
425.51	3.75
425.718	69.29
425.925	54.95
426.133	-2.39
426.341	186.02
426.548	-8.53
426.756	-2.39
426.964	34.47
427.171	-80.21
427.379	79.53
427.586	-10.58
427.794	89.77
428.001	151.21
428.209	52.91
428.417	110.25
428.624	118.44
428.832	40.62
429.039	52.91
429.247	40.62
429.454	126.63
429.662	112.3
429.869	95.91
430.076	110.25
430.284	61.1
430.491	200.36
430.699	116.39
430.906	188.07
431.114	63.15
431.321	110.25
431.528	89.77
431.736	112.3
431.943	75.43
432.15	161.45
432.358	194.22
432.565	218.79
432.772	1.71
432.979	181.93
433.187	163.5
433.394	200.36
433.601	97.96
433.808	177.83
434.016	159.4
434.223	173.74
434.43	54.95
434.637	143.02
434.844	128.68
435.052	188.07
435.259	210.6
435.466	247.46
435.673	233.13
435.88	237.22
436.087	245.41
436.294	235.18
436.501	259.75
436.708	237.22
436.915	251.56
437.122	278.18
437.329	186.02
437.537	231.08
437.743	249.51
437.95	366.25
438.157	286.37
438.364	294.57
438.571	282.28
438.778	372.39
438.985	261.8
439.192	362.15
439.399	278.18
439.606	337.57
439.813	403.11
440.02	564.9
440.227	503.46
440.433	448.16
440.64	460.45
440.847	347.81
441.054	429.73
441.261	525.99
441.467	528.03
441.674	429.73
441.881	587.43
442.088	448.16
442.294	566.95
442.501	546.47
442.708	546.47
442.914	546.47
443.121	630.43
443.328	773.79
443.534	677.54
443.741	751.26
443.948	554.66
444.154	829.09
444.361	888.48
444.568	767.65
444.774	824.99
444.981	753.31
445.187	831.13
445.394	851.61
445.6	857.76
445.807	966.3
446.013	951.96
446.22	878.24
446.426	1017.5
446.633	1035.93
446.839	1265.3
447.046	994.97
447.252	1236.63
447.459	1156.76
447.665	1191.58
447.871	1326.74
448.078	1414.81
448.284	1412.76
448.491	1562.26
448.697	1517.2
448.903	1578.64
449.11	1646.23
449.316	1523.35
449.522	1769.1
449.728	1877.65
449.935	1955.47
450.141	1939.09
450.347	2004.62
450.553	1992.33
450.76	1961.61
450.966	2313.86
451.172	2141.83
451.378	2389.64
451.584	2336.39
451.791	2651.78
451.997	2510.47
452.203	2592.39
452.409	2612.87
452.615	2860.67
452.821	2774.66
453.027	2819.71
453.233	3286.65
453.44	3063.42
453.646	3257.98
453.852	3477.11
454.058	3524.21
454.264	3491.45
454.47	3944.05
454.676	3837.55
454.882	4349.54
455.088	4083.31
455.294	4314.73
455.5	4523.62
455.705	4810.34
455.911	4812.39
456.117	5039.71
456.323	5076.57
456.529	5172.83
456.735	5652.05
456.941	5768.79
457.147	5805.65
457.352	6094.41
457.558	6381.13
457.764	6702.66
457.97	6889.03
458.176	7011.9
458.381	7384.63
458.587	7511.61
458.793	8060.46
458.999	7949.87
459.204	8920.61
459.41	9160.22
459.616	9098.78
459.821	9899.54
460.027	10012.18
460.233	10337.8
460.438	10581.51
460.644	11132.42
460.85	11128.32
461.055	11693.56
461.261	12348.91
461.466	12082.67
461.672	12242.42
461.878	13782.49
462.083	13598.17
462.289	13753.82
462.494	14308.82
462.7	14691.79
462.905	14822.86
463.111	16205.24
463.316	16729.52
463.522	17132.97
463.727	17659.29
463.932	18357.65
464.138	18974.09
464.343	19731.84
464.549	19926.39
464.754	21204.33
464.959	22037.85
465.165	22324.57
465.37	21972.32
465.575	22021.47
465.781	23131.47
465.986	23954.75
466.191	23770.43
466.397	24112.44
466.602	23434.57
466.807	24646.96
467.012	25224.49
467.218	25429.29
467.423	25728.29
467.628	26656.02
467.833	27641.09
468.038	27057.42
468.244	26754.32
468.449	27890.95
468.654	27757.83
468.859	27557.13
469.064	27655.43
469.269	26934.54
469.474	26965.26
469.679	28058.88
469.885	27225.36
470.09	27129.1
470.295	27665.67
470.5	26809.62
470.705	27239.69
470.91	26866.96
471.115	26332.44
471.32	26639.64
471.525	26475.8
471.73	25709.86
471.935	25578.79
472.139	24450.36
472.344	24538.42
472.549	24409.4
472.754	24272.18
472.959	23571.78
473.164	22754.64
473.369	22439.25
473.574	22871.37
473.778	22080.86
473.983	22134.1
474.188	21601.63
474.393	20774.25
474.598	20575.6
474.802	20159.86
475.007	19594.62
475.212	20077.94
475.417	19027.34
475.621	18681.23
475.826	18664.85
476.031	18027.93
476.235	17626.53
476.44	17548.7
476.645	17257.89
476.849	17094.05
477.054	16825.77
477.259	16450.99
477.463	16340.4
477.668	16154.04
477.872	16068.02
478.077	15300.03
478.282	14829
478.486	15054.28
478.691	14673.35
478.895	14728.65
479.1	14728.65
479.304	14505.42
479.509	13927.89
479.713	14306.77
479.918	14036.44
480.122	13417.95
480.326	13659.61
480.531	13641.18
480.735	13471.2
480.94	13143.52
481.144	13518.3
481.348	13059.56
481.553	13106.66
481.757	12631.53
481.961	12778.98
482.166	12875.24
482.37	12844.52
482.574	12580.33
482.778	12293.62
482.983	12641.77
483.187	12355.05
483.391	12414.45
483.595	12090.87
483.8	11927.03
484.004	12101.11
484.208	11767.29
484.412	11722.23
484.616	11691.51
484.821	11654.65
485.025	11320.83
485.229	11400.7
485.433	11142.66
485.637	11054.59
485.841	10757.64
486.045	10671.62
486.249	10653.19
486.453	10272.27
486.657	10169.87
486.861	10073.62
487.065	9803.29
487.269	9899.54
487.473	9420.31
487.677	9631.26
487.881	9608.73
488.085	9283.1
488.289	9033.25
488.493	9002.53
488.697	8936.99
488.901	8830.5
489.105	8709.67
489.309	8351.28
489.512	8162.86
489.716	8144.43
489.92	7953.97
490.124	7816.76
490.328	7816.76
490.531	7646.77
490.735	7456.31
490.939	7161.41
491.143	7226.94
491.346	7089.73
491.55	7036.48
491.754	6872.64
491.958	6852.16
492.161	6637.13
492.365	6561.35
492.569	6340.17
492.772	6405.7
492.976	6205
493.18	6176.33
493.383	6266.44
493.587	6086.22
493.79	5951.06
493.994	5906
494.197	5916.24
494.401	5817.94
494.605	5678.68
494.808	5744.21
495.012	5772.88
495.215	5727.83
495.419	5709.4
495.622	5480.02
495.825	5580.37
496.029	5287.51
496.232	5586.52
496.436	5480.02
496.639	5711.44
496.843	5398.1
497.046	5496.41
497.249	5514.84
497.453	5510.74
497.656	5357.14
497.859	5658.2
498.063	5617.24
498.266	5678.68
498.469	5494.36
498.673	5428.82
498.876	5678.68
499.079	5520.98
499.282	5420.63
499.485	5906
499.689	5639.76
499.892	5865.04
500.095	5766.74
500.298	5920.34
500.501	5752.4
500.705	5965.39
500.908	5938.77
501.111	5979.73
501.314	6174.28
501.517	6151.76
501.72	6331.98
501.923	6295.11
502.126	6243.92
502.329	6512.2
502.532	6583.88
502.735	6637.13
502.938	6839.87
503.141	6643.27
503.344	6813.25
503.547	6970.94
503.75	6934.08
503.953	7214.65
504.156	7282.24
504.359	7394.87
504.562	7274.04
504.765	7452.22
504.968	7546.42
505.17	7798.32
505.373	7921.2
505.576	8175.15
505.779	8113.71
505.982	8011.31
506.185	8273.45
506.387	8449.58
506.59	8754.73
506.793	8828.45
506.996	8732.2
507.198	9344.54
507.401	9225.76
507.604	9412.12
507.807	9801.24
508.009	9930.26
508.212	10055.19
508.415	10223.12
508.617	10364.43
508.82	10462.73
509.022	10685.96
509.225	11005.44
509.428	11333.12
509.63	11456
509.833	11662.84
510.035	12334.57
510.238	11937.27
510.44	12340.72
510.643	12682.73
510.845	13137.38
511.048	13227.49
511.25	13688.28
511.453	13970.9
511.655	14659.02
511.858	14681.55
512.06	14929.35
512.262	15134.15
512.465	15766.97
512.667	15744.44
512.87	16074.17
513.072	16379.31
513.274	17046.95
513.477	17427.87
513.679	17749.4
513.881	17943.96
514.084	18759.05
514.286	18974.09
514.488	19281.28
514.69	19946.87
514.893	20247.93
515.095	20819.31
515.297	21359.97
515.499	21239.14
515.701	21978.46
515.904	22506.84
516.106	22889.81
516.308	23264.58
516.51	24061.24
516.712	24077.63
516.914	24784.18
517.116	25173.29
517.318	25748.77
517.52	25928.99
517.722	26414.36
517.925	27208.97
518.127	27489.54
518.329	28247.29
518.531	28085.5
518.733	28886.26
518.935	29508.84
519.136	29697.25
519.338	30029.02
519.54	30477.53
519.742	31362.25
519.944	31734.98
520.146	32576.7
520.348	32273.6
520.55	33254.58
520.752	33334.45
520.954	33926.31
521.155	33934.5
521.357	34587.8
521.559	34958.49
521.761	35423.37
521.963	35538.06
522.164	36115.59
522.366	36441.21
522.568	37039.22
522.77	36625.53
522.971	37205.11
523.173	37168.24
523.375	37526.64
523.576	37731.43
523.778	37887.08
523.98	38278.24
524.181	38444.13
524.383	38364.26
524.584	39181.4
524.786	38724.7
524.988	38331.49
525.189	39005.27
525.391	39162.97
525.592	39314.51
525.794	39208.02
525.995	39177.3
526.197	38747.23
526.398	39011.42
526.6	38716.51
526.801	39052.37
527.003	38970.46
527.204	38468.7
527.406	38872.15
527.607	38317.15
527.808	38638.69
528.01	37821.55
528.211	37575.79
528.412	38208.61
528.614	37692.52
528.815	37088.37
529.016	37530.73
529.218	36709.5
529.419	36209.79
529.62	36168.83
529.822	35533.96
530.023	35413.13
530.224	35024.02
530.425	34915.48
530.626	34151.59
530.828	33457.32
531.029	34063.52
531.23	33186.99
531.431	32853.17
531.632	32591.03
531.833	32472.25
532.035	31868.1
532.236	31542.47
532.437	31628.49
532.638	30649.56
532.839	30502.11
533.04	29975.78
533.241	29232.36
533.442	29803.75
533.643	29226.22
533.844	28470.52
534.045	28118.27
534.246	27725.06
534.447	27278.6
534.648	26899.73
534.849	26991.89
535.05	26277.15
535.251	25945.37
535.451	25799.97
535.652	25281.83
535.853	24937.77
536.054	24855.86
536.255	24405.3
536.456	24108.35
536.657	23987.52
536.857	23528.77
537.058	22959.44
537.259	22750.54
537.46	22558.03
537.66	22218.07
537.861	22117.72
538.062	21575.01
538.263	21216.61
538.463	21022.06
538.664	20913.52
538.865	20622.7
539.065	20354.42
539.266	19654.01
539.466	19912.06
539.667	19522.94
539.868	19350.92
540.068	19174.79
540.269	18863.5
540.469	19064.2
540.67	18480.53
540.87	18202
541.071	17933.72
541.271	17761.69
541.472	17716.64
541.672	17454.5
541.873	17257.89
542.073	16950.7
542.274	16938.41
542.474	16506.29
542.675	16369.07
542.875	16498.09
543.075	15920.57
543.276	15642.04
543.476	15773.11
543.676	15777.21
543.877	15519.17
544.077	15605.18
544.277	15347.14
544.478	14747.08
544.678	14892.49
544.878	14646.73
545.078	14349.78
545.279	14253.52
545.479	13981.14
545.679	13831.64
545.879	13774.3
546.079	13684.19
546.28	13336.03
546.48	13092.32
546.68	13358.56
546.88	13235.68
547.08	12936.68
547.28	12805.61
547.48	12473.84
547.68	12426.73
547.88	12205.55
548.081	12316.14
548.281	11707.9
548.481	11716.09
548.681	11617.79
548.881	11470.33
549.081	11412.99
549.28	11181.57
549.48	11099.65
549.68	11404.8
549.88	10827.27
550.08	10569.23
550.28	10690.06
550.48	10399.24
550.68	10333.71
550.88	10259.98
551.08	9846.29
551.279	10069.52
551.479	9672.22
551.679	9782.81
551.879	9301.53
552.079	9186.85
552.278	9156.13
552.478	9106.98
552.678	8754.73
552.878	8828.45
553.077	8443.43
553.277	8490.54
553.477	8396.33
553.676	8185.39
553.876	8007.22
554.076	7968.31
554.275	7829.04
554.475	7673.4
554.674	7777.84
554.874	7474.74
555.074	7188.03
555.273	7294.52
555.473	7145.02
555.672	7110.21
555.872	6999.62
556.071	6696.52
556.271	6649.41
556.47	6645.32
556.67	6282.83
556.869	6397.51
557.068	6342.22
557.268	6168.14
557.467	6110.8
557.667	6030.93
557.866	5639.76
558.065	5887.57
558.265	5715.54
558.464	5496.41
558.663	5410.39
558.863	5584.47
559.062	5344.86
559.261	5269.08
559.461	5197.4
559.66	5041.76
559.859	4949.6
560.058	4832.86
560.258	4568.68
560.457	4652.64
560.656	4832.86
560.855	4558.44
561.054	4595.3
561.253	4540.01
561.453	4359.78
561.652	4353.64
561.851	4388.46
562.05	4195.95
562.249	4118.12
562.448	4099.69
562.647	3841.65
562.846	3989.1
563.045	3948.14
563.244	3874.42
563.443	3896.94
563.642	3718.77
563.841	3786.35
564.04	3575.41
564.239	3532.4
564.438	3436.15
564.637	3350.14
564.836	3341.94
565.035	3317.37
565.234	3229.31
565.432	3296.89
565.631	3284.6
565.83	3239.55
566.029	3163.77
566.228	3018.36
566.427	3090.04
566.625	2809.47
566.824	3006.08
567.023	2819.71
567.222	2885.25
567.42	2748.03
567.619	2907.77
567.818	2829.95
568.016	2897.53
568.215	2709.12
568.414	2643.59
568.612	2592.39
568.811	2489.99
569.01	2494.08
569.208	2610.82
569.407	2530.95
569.605	2401.93
569.804	2371.21
570.002	2238.09
570.201	2262.66
570.4	2391.69
570.598	2244.23
570.797	2279.05
570.995	2117.26
571.193	2139.79
571.392	2096.78
571.59	1932.94
571.789	2160.27
571.987	2096.78
572.186	1973.9
572.384	1982.09
572.582	1967.76
572.781	1980.04
572.979	1754.77
573.177	1703.57
573.376	1795.73
573.574	1922.7
573.772	1844.88
573.971	1732.24
574.169	1674.9
574.367	1724.05
574.565	1664.66
574.763	1631.89
574.962	1625.75
575.16	1668.75
575.358	1627.79
575.556	1476.24
575.754	1498.77
575.952	1549.97
576.151	1449.62
576.349	1519.25
576.547	1320.6
576.745	1379.99
576.943	1416.85
577.141	1314.45
577.339	1187.48
577.537	1281.69
577.735	1388.18
577.933	1285.78
578.131	1253.02
578.329	1308.31
578.527	1146.52
578.725	1259.16
578.923	1085.08
579.121	1277.59
579.319	976.54
579.516	1068.7
579.714	1289.88
579.912	966.3
580.11	988.83
580.308	1101.47
580.506	974.49
580.704	898.72
580.901	906.91
581.099	1091.23
581.297	913.05
581.495	1033.88
581.692	937.63
581.89	1005.21
582.088	994.97
582.285	831.13
582.483	954.01
582.681	829.09
582.878	876.19
583.076	861.85
583.274	827.04
583.471	988.83
583.669	906.91
583.866	749.22
584.064	675.49
584.262	716.45
584.459	736.93
584.657	773.79
584.854	890.53
585.052	759.46
585.249	855.71
585.447	771.74
585.644	704.16
585.841	640.67
586.039	661.15
586.236	749.22
586.434	581.28
586.631	599.71
586.828	577.19
587.026	652.96
587.223	507.55
587.42	577.19
587.618	626.34
587.815	784.03
588.012	556.71
588.21	628.39
588.407	661.15
588.604	648.86
588.801	554.66
588.999	503.46
589.196	589.47
589.393	538.27
589.59	634.53
589.787	573.09
589.984	564.9
590.182	562.85
590.379	450.21
590.576	556.71
590.773	532.13
590.97	568.99
591.167	511.65
591.364	554.66
591.561	519.84
591.758	630.43
591.955	542.37
592.152	495.27
592.349	390.82
592.546	528.03
592.743	433.83
592.94	419.49
593.137	620.19
593.334	530.08
593.531	425.64
593.727	491.17
593.924	573.09
594.121	501.41
594.318	464.55
594.515	607.91
594.712	695.97
594.908	657.06
595.105	407.2
595.302	521.89
595.499	585.38
595.696	581.28
595.892	560.8
596.089	708.26
596.286	507.55
596.482	663.2
596.679	618.15
596.876	587.43
597.072	741.02
597.269	691.87
597.466	722.59
597.662	642.72
597.859	675.49
598.055	726.69
598.252	710.3
598.448	767.65
598.645	839.33
598.841	894.62
599.038	1025.69
599.234	986.78
599.431	947.87
599.627	1009.31
599.824	1013.4
600.02	1101.47
600.217	1072.79
600.413	1011.36
600.609	1197.72
600.806	1457.81
601.002	1330.84
601.198	1255.06
601.395	1365.65
601.591	1343.13
601.787	1461.91
601.984	1529.49
602.18	1627.79
602.376	1701.52
602.572	1652.37
602.769	1779.34
602.965	1765.01
603.161	1822.35
603.357	1834.64
603.553	2133.64
603.75	1867.41
603.946	2078.35
604.142	2303.62
604.338	2281.1
604.534	2356.87
604.73	2358.92
604.926	2463.37
605.122	2633.35
605.318	2625.15
605.514	2625.15
605.71	2782.85
605.906	2868.86
606.102	2877.05
606.298	2991.74
606.494	3237.5
606.69	3286.65
606.886	3247.74
607.082	3264.12
607.278	3360.38
607.474	3655.28
607.67	3817.07
607.866	3733.11
608.062	4005.49
608.257	4087.4
608.453	4038.25
608.649	4312.68
608.845	4210.28
609.041	4417.13
609.236	4550.25
609.432	4660.84
609.628	4959.84
609.824	5119.58
610.019	5078.62
610.215	5277.27
610.411	5555.8
610.606	5637.72
610.802	5787.22
610.998	5828.18
611.193	6118.99
611.389	6012.49
611.584	6266.44
611.78	6477.38
611.976	6534.73
612.171	6895.17
612.367	6774.34
612.562	7155.26
612.758	7317.05
612.953	7249.47
613.149	7724.6
613.344	7974.45
613.539	8326.7
613.735	8246.83
613.93	8629.8
614.126	8658.47
614.321	9016.87
614.517	9383.45
614.712	9393.69
614.907	9786.9
615.103	9999.89
615.298	10096.14
615.493	10620.42
615.688	10642.95
615.884	11255.29
616.079	11337.21
616.274	11709.94
616.47	11818.49
616.665	12013.04
616.86	12600.81
617.055	12887.53
617.25	12936.68
617.445	13649.37
617.641	13600.22
617.836	14089.68
618.031	14083.54
618.226	14783.95
618.421	14806.47
618.616	15433.15
618.811	15467.97
619.006	16350.64
619.201	16321.97
619.396	17026.47
619.591	16876.97
619.786	17943.96
619.981	18011.54
620.176	18517.39
620.371	18693.52
620.566	19203.46
620.761	19223.94
620.956	20039.03
621.151	20061.56
621.346	20610.42
621.541	20796.78
621.735	21908.83
621.93	21894.49
622.125	22099.29
622.32	22275.41
622.515	22902.09
622.709	23188.81
622.904	23838.01
623.099	24339.77
623.294	25204.01
623.488	25224.49
623.683	25980.19
623.878	25933.09
624.072	26342.68
624.267	26795.28
624.462	27653.38
624.656	27526.41
624.851	27790.59
625.046	28505.34
625.24	28802.29
625.435	29222.12
625.629	29596.9
625.824	29889.76
626.018	30368.99
626.213	30235.87
626.407	31286.48
626.602	31235.28
626.796	31573.19
626.991	32201.92
627.185	32064.71
627.38	31964.35
627.574	32644.28
627.768	32552.12
627.963	32576.7
628.157	32765.11
628.352	33133.75
628.546	32982.2
628.74	33555.63
628.935	33146.03
629.129	33133.75
629.323	32781.49
629.517	32724.15
629.712	32488.63
629.906	32310.46
630.1	31861.96
630.294	32208.06
630.489	31388.88
630.683	31612.1
630.877	30579.93
631.071	29977.83
631.265	29644.01
631.459	28980.46
631.653	27911.42
631.848	27708.68
632.042	27178.25
632.236	26414.36
632.43	25926.94
632.624	24864.05
632.818	24550.71
633.012	23604.55
633.206	22922.57
633.4	22312.28
633.594	21493.09
633.788	20983.15
633.982	20120.95
634.176	19527.04
634.369	18902.41
634.563	18177.43
634.757	17218.98
634.951	16696.75
635.145	16025.01
635.339	15363.52
635.533	14673.35
635.726	14364.11
635.92	13241.82
636.114	13172.19
636.308	12414.45
636.501	12176.88
636.695	11582.97
636.889	10833.41
637.083	10626.57
637.276	10227.21
637.47	9666.07
637.664	9557.53
637.857	8996.39
638.051	8826.4
638.244	8314.41
638.438	8013.36
638.632	7808.56
638.825	7409.21
639.019	7216.7
639.212	6839.87
639.406	6524.49
639.599	6364.75
639.793	6194.76
639.986	5688.92
640.18	5533.27
640.373	5271.13
640.567	5221.98
640.76	5174.88
640.954	4787.81
641.147	4443.75
641.34	4378.22
641.534	4306.54
641.727	4163.18
641.92	4095.6
642.114	3872.37
642.307	3585.65
642.5	3583.6
642.694	3335.8
642.887	3245.69
643.08	3300.98
643.273	3051.13
643.467	2862.72
643.66	2719.36
643.853	2635.39
644.046	2649.73
644.239	2487.94
644.432	2297.48
644.626	2293.38
644.819	2233.99
645.012	2068.11
645.205	2160.27
645.398	2018.96
645.591	1889.93
645.784	1838.73
645.977	1736.34
646.17	1629.84
646.363	1685.14
646.556	1435.28
646.749	1406.61
646.942	1431.19
647.135	1537.68
647.328	1314.45
647.521	1341.08
647.714	1310.36
647.907	1242.78
648.099	1117.85
648.292	1212.06
648.485	1183.38
648.678	1050.27
648.871	966.3
649.064	974.49
649.256	974.49
649.449	835.23
649.642	810.65
649.835	722.59
650.027	708.26
650.22	888.48
650.413	677.54
650.605	749.22
650.798	689.82
650.991	636.58
651.183	591.52
651.376	603.81
651.568	605.86
651.761	581.28
651.954	542.37
652.146	560.8
652.339	603.81
652.531	589.47
652.724	499.36
652.916	401.06
653.109	360.1
653.301	470.69
653.494	442.02
653.686	437.92
653.879	489.12
654.071	425.64
654.263	431.78
654.456	399.01
654.648	442.02
654.84	399.01
655.033	323.24
655.225	388.77
655.417	251.56
655.61	396.96
655.802	474.79
655.994	396.96
656.186	267.94
656.379	368.29
656.571	212.65
656.763	243.37
656.955	224.94
657.148	341.67
657.34	286.37
657.532	253.61
657.724	163.5
657.916	306.85
658.108	345.77
658.3	310.95
658.492	179.88
658.684	186.02
658.876	341.67
659.068	167.59
659.26	151.21
659.452	214.7
659.644	190.12
659.836	298.66
660.028	153.26
660.22	247.46
660.412	190.12
660.604	132.78
660.796	122.54
660.988	229.03
661.18	243.37
661.372	214.7
661.563	208.55
661.755	112.3
661.947	50.86
662.139	91.82
662.331	106.15
662.522	108.2
662.714	159.4
662.906	40.62
663.097	188.07
663.289	114.34
663.481	63.15
663.673	132.78
663.864	145.06
664.056	147.11
664.247	11.95
664.439	136.87
664.631	157.35
664.822	202.41
665.014	151.21
665.205	102.06
665.397	85.67
665.588	169.64
665.78	190.12
665.971	186.02
666.163	112.3
666.354	183.98
666.546	120.49
666.737	124.58
666.929	73.39
667.12	36.52
667.311	157.35
667.503	136.87
667.694	100.01
667.885	237.22
668.077	132.78
668.268	11.95
668.459	167.59
668.651	210.6
668.842	183.98
669.033	69.29
669.224	32.43
669.416	294.57
669.607	50.86
669.798	30.38
669.989	237.22
670.18	116.39
670.371	237.22
670.563	-35.16
670.754	212.65
670.945	186.02
671.136	235.18
671.327	79.53
671.518	269.99
671.709	290.47
671.9	163.5
672.091	163.5
672.282	85.67
672.473	186.02
672.664	69.29
672.855	210.6
673.046	134.82
673.237	222.89
673.428	145.06
673.619	192.17
673.809	153.26
674	235.18
674.191	233.13
674.382	177.83
674.573	112.3
674.764	186.02
674.954	257.7
675.145	126.63
675.336	50.86
675.527	75.43
675.717	194.22
675.908	167.59
676.099	126.63
676.289	183.98
676.48	95.91
676.671	126.63
676.861	102.06
677.052	134.82
677.243	112.3
677.433	75.43
677.624	196.26
677.814	198.31
678.005	163.5
678.195	249.51
678.386	161.45
678.576	192.17
678.767	97.96
678.957	233.13
679.148	243.37
679.338	267.94
679.529	229.03
679.719	226.98
679.909	339.62
680.1	245.41
680.29	249.51
680.481	163.5
680.671	276.13
680.861	300.71
681.052	190.12
681.242	171.69
681.432	292.52
681.622	251.56
681.813	179.88
682.003	165.54
682.193	110.25
682.383	226.98
682.573	200.36
682.764	204.46
682.954	229.03
683.144	325.29
683.334	202.41
683.524	247.46
683.714	292.52
683.904	261.8
684.094	229.03
684.284	317.09
684.474	388.77
684.664	278.18
684.854	292.52
685.044	229.03
685.234	282.28
685.424	288.42
685.614	204.46
685.804	417.44
685.994	306.85
686.184	237.22
686.374	335.53
686.564	263.85
686.753	229.03
686.943	288.42
687.133	208.55
687.323	210.6
687.513	278.18
687.702	216.74
687.892	319.14
688.082	386.72
688.272	339.62
688.461	286.37
688.651	417.44
688.841	339.62
689.03	274.09
689.22	237.22
689.41	325.29
689.599	296.61
689.789	231.08
689.979	399.01
690.168	214.7
690.358	329.38
690.547	249.51
690.737	335.53
690.926	296.61
691.116	323.24
691.305	366.25
691.495	319.14
691.684	249.51
691.874	183.98
692.063	245.41
692.252	286.37
692.442	341.67
692.631	179.88
692.82	229.03
693.01	288.42
693.199	276.13
693.388	284.33
693.578	188.07
693.767	280.23
693.956	384.68
694.146	224.94
694.335	276.13
694.524	274.09
694.713	317.09
694.902	259.75
695.092	204.46
695.281	341.67
695.47	313
695.659	272.04
695.848	226.98
696.037	196.26
696.226	278.18
696.415	218.79
696.604	327.33
696.793	321.19
696.982	249.51
697.171	331.43
697.36	177.83
697.549	243.37
697.738	91.82
697.927	200.36
698.116	208.55
698.305	206.5
698.494	296.61
698.683	183.98
698.872	388.77
699.061	253.61
699.25	167.59
699.438	196.26
699.627	186.02
699.816	380.58
700.005	57
700.193	300.71
700.382	315.05
700.571	333.48
700.76	229.03
700.948	300.71
701.137	386.72
701.326	302.76
701.514	188.07
701.703	337.57
701.892	210.6
702.08	325.29
702.269	153.26
702.457	153.26
702.646	206.5
702.834	274.09
703.023	331.43
703.212	267.94
703.4	261.8
703.589	165.54
703.777	218.79
703.965	210.6
704.154	194.22
704.342	145.06
704.531	161.45
704.719	265.89
704.907	280.23
705.096	151.21
705.284	155.3
705.472	224.94
705.661	200.36
705.849	327.33
706.037	310.95
706.226	208.55
706.414	229.03
706.602	177.83
706.79	257.7
706.979	134.82
707.167	204.46
707.355	140.97
707.543	251.56
707.731	243.37
707.919	216.74
708.107	196.26
708.296	134.82
708.484	151.21
708.672	315.05
708.86	255.65
709.048	198.31
709.236	200.36
709.424	368.29
709.612	233.13
709.8	93.87
709.988	233.13
710.176	298.66
710.364	313
710.551	212.65
710.739	276.13
710.927	188.07
711.115	267.94
711.303	290.47
711.491	237.22
711.679	167.59
711.866	319.14
712.054	224.94
712.242	280.23
712.43	272.04
712.617	239.27
712.805	333.48
712.993	304.81
713.181	147.11
713.368	325.29
713.556	200.36
713.744	226.98
713.931	362.15
714.119	347.81
714.306	278.18
714.494	179.88
714.682	200.36
714.869	183.98
715.057	243.37
715.244	130.73
715.432	319.14
715.619	128.68
715.807	249.51
715.994	216.74
716.182	278.18
716.369	229.03
716.556	292.52
716.744	190.12
716.931	120.49
717.119	255.65
717.306	194.22
717.493	302.76
717.681	186.02
717.868	272.04
718.055	392.87
718.242	239.27
718.43	378.53
718.617	345.77
718.804	216.74
718.991	296.61
719.179	220.84
719.366	292.52
719.553	278.18
719.74	276.13
719.927	304.81
720.114	235.18
720.301	284.33
720.488	218.79
720.676	269.99
720.863	433.83
721.05	444.07
721.237	423.59
721.424	360.1
721.611	298.66
721.798	143.02
721.985	327.33
722.172	304.81
722.358	278.18
722.545	384.68
722.732	267.94
722.919	458.4
723.106	329.38
723.293	290.47
723.48	298.66
723.667	276.13
723.853	378.53
724.04	407.2
724.227	347.81
724.414	304.81
724.6	257.7
724.787	429.73
724.974	431.78
725.161	302.76
725.347	222.89
725.534	399.01
725.72	405.16
725.907	421.54
726.094	405.16
726.28	413.35
726.467	331.43
726.653	210.6
726.84	388.77
727.027	425.64
727.213	298.66
727.4	376.48
727.586	364.2
727.773	421.54
727.959	378.53
728.145	298.66
728.332	401.06
728.518	315.05
728.705	368.29
728.891	304.81
729.077	313
729.264	310.95
729.45	302.76
729.636	462.5
729.823	405.16
730.009	380.58
730.195	405.16
730.382	456.36
730.568	325.29
730.754	356.01
730.94	284.33
731.126	452.26
731.313	325.29
731.499	411.3
731.685	415.4
731.871	384.68
732.057	356.01
732.243	466.6
732.429	439.97
732.615	562.85
732.801	376.48
732.987	401.06
733.173	454.31
733.359	403.11
733.545	417.44
733.731	396.96
733.917	501.41
734.103	358.05
734.289	370.34
734.475	386.72
734.661	435.88
734.847	433.83
735.033	403.11
735.219	495.27
735.404	396.96
735.59	415.4
735.776	401.06
735.962	415.4
736.148	454.31
736.333	564.9
736.519	411.3
736.705	341.67
736.89	421.54
737.076	421.54
737.262	411.3
737.447	417.44
737.633	423.59
737.819	540.32
738.004	407.2
738.19	444.07
738.375	374.44
738.561	556.71
738.747	462.5
738.932	470.69
739.118	612
739.303	532.13
739.489	460.45
739.674	382.63
739.859	380.58
740.045	507.55
740.23	442.02
740.416	304.81
740.601	429.73
740.786	476.84
740.972	413.35
741.157	370.34
741.342	353.96
741.528	401.06
741.713	491.17
741.898	386.72
742.084	482.98
742.269	396.96
742.454	442.02
742.639	515.75
742.824	442.02
743.01	480.93
743.195	540.32
743.38	396.96
743.565	405.16
743.75	478.88
743.935	452.26
744.12	532.13
744.305	341.67
744.49	374.44
744.675	394.92
744.86	433.83
745.045	403.11
745.23	401.06
745.415	390.82
745.6	534.18
745.785	362.15
745.97	489.12
746.155	435.88
746.34	515.75
746.525	376.48
746.71	446.12
746.895	325.29
747.079	319.14
747.264	411.3
747.449	462.5
747.634	413.35
747.819	419.49
748.003	356.01
748.188	415.4
748.373	448.16
748.557	482.98
748.742	425.64
748.927	392.87
749.111	366.25
749.296	468.64
749.481	435.88
749.665	374.44
749.85	286.37
750.034	351.91
750.219	384.68
750.404	356.01
750.588	413.35
750.773	343.72
750.957	341.67
751.141	259.75
751.326	444.07
751.51	224.94
751.695	356.01
751.879	325.29
752.064	450.21
752.248	331.43
752.432	356.01
752.617	437.92
752.801	362.15
752.985	290.47
753.17	388.77
753.354	411.3
753.538	272.04
753.722	306.85
753.907	327.33
754.091	267.94
754.275	315.05
754.459	216.74
754.643	181.93
754.828	343.72
755.012	343.72
755.196	235.18
755.38	386.72
755.564	249.51
755.748	251.56
755.932	292.52
756.116	401.06
756.3	276.13
756.484	245.41
756.668	337.57
756.852	143.02
757.036	249.51
757.22	292.52
757.404	284.33
757.588	202.41
757.772	372.39
757.956	282.28
758.14	399.01
758.323	190.12
758.507	347.81
758.691	196.26
758.875	356.01
759.059	366.25
759.242	192.17
759.426	278.18
759.61	286.37
759.794	222.89
759.977	315.05
760.161	462.5
760.345	347.81
760.528	278.18
760.712	278.18
760.895	302.76
761.079	210.6
761.263	239.27
761.446	143.02
761.63	257.7
761.813	280.23
761.997	157.35
762.18	204.46
762.364	249.51
762.547	-12.63
762.731	261.8
762.914	210.6
763.098	151.21
763.281	183.98
763.464	267.94
763.648	282.28
763.831	145.06
764.015	106.15
764.198	190.12
764.381	136.87
764.564	200.36
764.748	276.13
764.931	194.22
765.114	183.98
765.297	257.7
765.481	153.26
765.664	206.5
765.847	175.78
766.03	286.37
766.213	167.59
766.397	145.06
766.58	151.21
766.763	265.89
766.946	153.26
767.129	112.3
767.312	167.59
767.495	216.74
767.678	110.25
767.861	192.17
768.044	216.74
768.227	177.83
768.41	167.59
768.593	241.32
768.776	261.8
768.959	179.88
769.142	239.27
769.324	143.02
769.507	79.53
769.69	118.44
769.873	124.58
770.056	308.9
770.239	259.75
770.421	272.04
770.604	208.55
770.787	95.91
770.97	95.91
771.152	97.96
771.335	188.07
771.518	91.82
771.7	265.89
771.883	290.47
772.066	171.69
772.248	140.97
772.431	247.46
772.613	153.26
772.796	120.49
772.978	245.41
773.161	237.22
773.343	108.2
773.526	93.87
773.708	48.81
773.891	16.04
774.073	108.2
774.256	190.12
774.438	126.63
774.621	87.72
774.803	155.3
774.985	149.16
775.168	140.97
775.35	79.53
775.532	192.17
775.715	116.39
775.897	194.22
776.079	54.95
776.261	222.89
776.444	63.15
776.626	128.68
776.808	73.39
776.99	22.19
777.173	126.63
777.355	118.44
777.537	134.82
777.719	87.72
777.901	100.01
778.083	69.29
778.265	18.09
778.447	120.49
778.629	-12.63
778.811	124.58
778.993	202.41
779.175	54.95
779.357	120.49
779.539	40.62
779.721	77.48
779.903	132.78
780.085	18.09
780.267	87.72
780.449	110.25
780.631	173.74
780.812	151.21
780.994	77.48
781.176	163.5
781.358	46.76
781.54	-8.53
781.721	128.68
781.903	175.78
782.085	7.85
782.267	200.36
782.448	5.8
782.63	9.9
782.812	140.97
782.993	89.77
783.175	140.97
783.357	59.05
783.538	85.67
783.72	38.57
783.901	65.19
784.083	118.44
784.264	120.49
784.446	-2.39
784.627	-6.49
784.809	173.74
784.99	57
785.172	89.77
785.353	97.96
785.535	73.39
785.716	79.53
785.897	102.06
786.079	75.43
786.26	22.19
786.441	73.39
786.623	-39.25
786.804	34.47
786.985	89.77
787.167	85.67
787.348	11.95
787.529	-10.58
787.71	196.26
787.891	147.11
788.073	-43.35
788.254	-18.77
788.435	161.45
788.616	32.43
788.797	-51.54
788.978	46.76
789.159	108.2
789.34	81.58
789.522	46.76
789.703	-4.44
789.884	136.87
790.065	134.82
790.246	151.21
790.427	18.09
790.607	122.54
790.788	134.82
790.969	16.04
791.15	36.52
791.331	-59.73
791.512	-35.16
791.693	-0.34
791.874	-41.3
792.054	165.54
792.235	161.45
792.416	-29.01
792.597	3.75
792.778	13.99
792.958	85.67
793.139	81.58
793.32	130.73
793.5	-4.44
793.681	63.15
793.862	79.53
794.042	13.99
794.223	-69.97
794.404	7.85
794.584	-47.44
794.765	-6.49
794.945	71.34
795.126	42.67
795.306	65.19
795.487	63.15
795.667	13.99
795.848	44.71
796.028	7.85
796.209	38.57
796.389	110.25
796.57	-72.02
796.75	-6.49
796.93	18.09
797.111	-2.39
797.291	7.85
797.471	24.23
797.652	-80.21
797.832	-24.92
798.012	93.87
798.192	-51.54
798.373	-82.26
798.553	-12.63
798.733	75.43
798.913	-10.58
799.093	-78.16
799.274	22.19
799.454	63.15
799.634	140.97
799.814	32.43
799.994	57
800.174	61.1
800.354	9.9
800.534	-119.12
800.714	83.63
800.894	-61.78
801.074	-137.56
801.254	9.9
801.434	71.34
801.614	-51.54
801.794	-51.54
801.974	1937.04
802.154	-61.78
802.334	79.53
802.514	-86.36
802.693	22.19
802.873	11.95
803.053	130.73
803.233	54.95
803.413	-51.54
803.592	-0.34
803.772	3.75
803.952	63.15
804.131	-22.87
804.311	87.72
804.491	65.19
804.67	-41.3
804.85	20.14
805.03	110.25
805.209	61.1
805.389	-108.88
805.568	-92.5
805.748	44.71
805.928	-35.16
806.107	20.14
806.287	130.73
806.466	26.28
806.646	-14.68
806.825	-18.77
807.004	-4.44
807.184	73.39
807.363	26.28
807.543	46.76
807.722	-10.58
807.901	71.34
808.081	85.67
808.26	-147.8
808.439	11.95
808.619	-29.01
808.798	48.81
808.977	40.62
809.156	34.47
809.336	75.43
809.515	40.62
809.694	-53.59
809.873	40.62
810.052	5.8
810.231	126.63
810.411	-76.12
810.59	83.63
810.769	-37.2
810.948	104.11
811.127	-69.97
811.306	-12.63
811.485	-47.44
811.664	120.49
811.843	-31.06
812.022	34.47
812.201	-37.2
812.38	7.85
812.559	-72.02
812.737	63.15
812.916	-117.08
813.095	-39.25
813.274	38.57
813.453	-2.39
813.632	91.82
813.811	36.52
813.989	-67.92
814.168	-43.35
814.347	-74.07
814.526	-35.16
814.704	175.78
814.883	110.25
815.062	34.47
815.24	9.9
815.419	-24.92
815.598	77.48
815.776	-35.16
815.955	-2.39
816.133	-110.93
816.312	50.86
816.49	-16.73
816.669	-24.92
816.847	-41.3
817.026	57
817.204	-12.63
817.383	48.81
817.561	-8.53
817.74	-65.88
817.918	-45.4
818.097	3.75
818.275	9.9
818.453	42.67
818.632	16.04
818.81	-20.82
818.988	-35.16
819.167	20.14
819.345	-65.88
819.523	-22.87
819.701	26.28
819.879	34.47
820.058	40.62
820.236	16.04
820.414	-22.87
820.592	-35.16
820.77	-29.01
820.948	42.67
821.127	-94.55
821.305	-14.68
821.483	-74.07
821.661	69.29
821.839	36.52
822.017	-117.08
822.195	-20.82
822.373	110.25
822.551	-10.58
822.729	3.75
822.907	18.09
823.085	75.43
823.262	48.81
823.44	-61.78
823.618	-26.96
823.796	-6.49
823.974	-90.45
824.152	-47.44
824.329	65.19
824.507	104.11
824.685	11.95
824.863	-67.92
825.04	-33.11
825.218	126.63
825.396	-6.49
825.574	71.34
825.751	11.95
825.929	-8.53
826.107	-0.34
826.284	-55.64
826.462	89.77
826.639	-69.97
826.817	-47.44
826.994	9.9
827.172	-100.69
827.349	134.82
827.527	36.52
827.704	28.33
827.882	151.21
828.059	-37.2
828.237	-12.63
828.414	65.19
828.591	-110.93
828.769	22.19
828.946	-164.18
829.124	-33.11
829.301	87.72
829.478	-14.68
829.655	-8.53
829.833	75.43
830.01	-192.85
830.187	16.04
830.364	36.52
830.542	34.47
830.719	118.44
830.896	26.28
831.073	46.76
831.25	59.05
831.427	77.48
831.604	-57.68
831.782	-78.16
831.959	75.43
832.136	-10.58
832.313	36.52
832.49	-117.08
832.667	18.09
832.844	-12.63
833.021	85.67
833.198	-84.31
833.374	-49.49
833.551	44.71
833.728	1.71
833.905	63.15
834.082	-92.5
834.259	-29.01
834.436	85.67
834.612	-88.4
834.789	-31.06
834.966	-10.58
835.143	-10.58
835.319	-76.12
835.496	104.11
835.673	-14.68
835.85	81.58
836.026	-10.58
836.203	16.04
836.38	-18.77
836.556	-24.92
836.733	-92.5
836.909	104.11
837.086	-59.73
837.262	-123.22
837.439	-16.73
837.616	-16.73
837.792	20.14
837.968	-0.34
838.145	-78.16
838.321	-18.77
838.498	-76.12
838.674	75.43
838.851	-43.35
839.027	-86.36
839.203	11.95
839.38	5.8
839.556	11.95
839.732	-20.82
839.909	7.85
840.085	32.43
840.261	-88.4
840.437	-14.68
840.614	-18.77
840.79	67.24
840.966	71.34
841.142	-61.78
841.318	-86.36
841.494	-51.54
841.671	26.28
841.847	-72.02
842.023	-37.2
842.199	83.63
842.375	65.19
842.551	-133.46
842.727	26.28
842.903	18.09
843.079	-98.64
843.255	-16.73
843.431	-47.44
843.607	5.8
843.783	-209.23
843.959	-12.63
844.134	-49.49
844.31	140.97
844.486	-37.2
844.662	-47.44
844.838	46.76
845.013	-53.59
845.189	40.62
845.365	-4.44
845.541	-12.63
845.716	-39.25
845.892	167.59
846.068	-65.88
846.244	-94.55
846.419	44.71
846.595	-72.02
846.77	-100.69
846.946	102.06
847.122	-59.73
847.297	-90.45
847.473	112.3
847.648	-55.64
847.824	-16.73
847.999	-55.64
848.175	24.23
848.35	32.43
848.526	-0.34
848.701	69.29
848.876	46.76
849.052	85.67
849.227	-35.16
849.403	-33.11
849.578	7.85
849.753	-2.39
849.929	9.9
850.104	-155.99
850.279	-47.44
850.454	-69.97
850.63	22.19
850.805	-29.01
850.98	-74.07
851.155	-22.87
851.33	-4.44
851.505	-115.03
851.681	73.39
851.856	-67.92
852.031	18.09
852.206	83.63
852.381	-14.68
852.556	-57.68
852.731	7.85
852.906	-31.06
853.081	30.38
853.256	26.28
853.431	9.9
853.606	-4.44
853.781	-55.64
853.956	-147.8
854.131	32.43
854.305	-37.2
854.48	-110.93
854.655	-57.68
854.83	-29.01
855.005	-67.92
855.18	16.04
855.354	-12.63
855.529	5.8
855.704	-37.2
855.879	26.28
856.053	-74.07
856.228	-16.73
856.403	-78.16
856.577	69.29
856.752	-119.12
856.926	-31.06
857.101	73.39
857.276	-108.88
857.45	26.28
857.625	40.62
857.799	-51.54
857.974	1.71
858.148	-92.5
858.323	16.04
858.497	-76.12
858.672	-98.64
858.846	-43.35
859.02	13.99
859.195	-53.59
859.369	-72.02
859.543	-76.12
859.718	-37.2
859.892	69.29
860.066	67.24
860.241	-117.08
860.415	-61.78
860.589	36.52
860.763	-10.58
860.938	-10.58
861.112	59.05
861.286	-4.44
861.46	50.86
861.634	-49.49
861.808	-37.2
861.982	-82.26
862.157	-57.68
862.331	-51.54
862.505	-110.93
862.679	-96.6
862.853	-69.97
863.027	-51.54
863.201	57
863.375	-127.32
863.549	48.81
863.722	11.95
863.896	140.97
864.07	-29.01
864.244	-31.06
864.418	-2.39
864.592	-0.34
864.766	-0.34
864.939	1.71
865.113	-35.16
865.287	145.06
865.461	-57.68
865.634	-65.88
865.808	-2.39
865.982	-61.78
866.156	-88.4
866.329	-63.83
866.503	-8.53
866.676	3.75
866.85	36.52
867.024	-26.96
867.197	30.38
867.371	-12.63
867.544	5.8
867.718	-37.2
867.891	34.47
868.065	-86.36
868.238	-20.82
868.412	71.34
868.585	40.62
868.759	-110.93
868.932	-29.01
869.105	-104.79
869.279	16.04
869.452	-117.08
869.625	7.85
869.799	-31.06
869.972	-119.12
870.145	-47.44
870.319	42.67
870.492	-84.31
870.665	-82.26
870.838	-37.2
871.011	-117.08
871.185	-45.4
871.358	-39.25
871.531	32.43
871.704	7.85
871.877	13.99
872.05	26.28
872.223	-43.35
872.396	-45.4
872.569	7.85
872.742	-47.44
872.915	79.53
873.088	-96.6
873.261	-49.49
873.434	44.71
873.607	-20.82
873.78	44.71
873.953	-119.12
874.126	-33.11
874.299	13.99
874.471	-43.35
874.644	-14.68
874.817	97.96
874.99	157.35
875.163	-80.21
875.335	3.75
875.508	-26.96
875.681	87.72
875.853	-61.78
876.026	11.95
876.199	50.86
876.371	57
876.544	-78.16
876.717	-24.92
876.889	-98.64
877.062	-14.68
877.234	-61.78
877.407	75.43
877.579	46.76
877.752	7.85
877.924	46.76
878.097	11.95
878.269	-6.49
878.442	48.81
878.614	9.9
878.786	-12.63
878.959	118.44
879.131	11.95
879.303	-133.46
879.476	-2.39
879.648	50.86
879.82	54.95
879.993	-47.44
880.165	-45.4
880.337	-90.45
880.509	-41.3
880.681	-69.97
880.854	-100.69
881.026	38.57
881.198	147.11
881.37	-63.83
881.542	1.71
881.714	-106.84
881.886	-20.82
882.058	-24.92
882.23	32.43
882.402	-12.63
882.574	-2.39
882.746	-2.39
882.918	75.43
883.09	120.49
883.262	-10.58
883.434	57
883.606	-98.64
883.778	-57.68
883.95	126.63
884.122	-43.35
884.293	32.43
884.465	-10.58
884.637	75.43
884.809	-104.79
884.98	-155.99
885.152	11.95
885.324	-8.53
885.496	-45.4
885.667	-49.49
885.839	-49.49
886.011	87.72
886.182	32.43
886.354	54.95
886.525	13.99
886.697	-37.2
886.869	-72.02
887.04	-69.97
887.212	-37.2
887.383	106.15
887.555	-39.25
887.726	-35.16
887.897	-10.58
888.069	24.23
888.24	-0.34
888.412	-2.39
888.583	-10.58
888.754	-43.35
888.926	-170.32
889.097	-47.44
889.268	-100.69
889.44	-94.55
889.611	-149.84
889.782	-94.55
889.953	-65.88
890.125	79.53
890.296	-82.26
890.467	3.75
890.638	-65.88
890.809	-37.2
890.98	-65.88
891.151	-78.16
891.323	54.95
891.494	-4.44
891.665	-51.54
891.836	-16.73
892.007	-22.87
892.178	-29.01
892.349	5.8
892.52	-37.2
892.691	-22.87
892.862	-86.36
893.032	-106.84
893.203	-18.77
893.374	-12.63
893.545	13.99
893.716	-6.49
893.887	61.1
894.057	-55.64
894.228	-51.54
894.399	-129.36
894.57	57
894.74	-0.34
894.911	-8.53
895.082	-26.96
895.253	-57.68
895.423	30.38
895.594	-8.53
895.764	20.14
895.935	-88.4
896.106	-8.53
896.276	-29.01
896.447	5.8
896.617	-110.93
896.788	-82.26
896.958	-51.54
897.129	-90.45
897.299	-74.07
897.47	59.05
897.64	-51.54
897.81	-47.44
897.981	-12.63
898.151	-90.45
898.322	-49.49
898.492	52.91
898.662	-145.75
898.832	-90.45
899.003	-92.5
899.173	-4.44
899.343	-135.51
899.513	-53.59
