Data from USB4F104151__96__10-35-25-328.txt Node

Date: Wed Feb 26 10:35:25 EST 2025
User: louis
Spectrometer: USB4F10415
Trigger mode: 4
Integration Time (sec): 1.000000E-1
Scans to average: 1
Electric dark correction enabled: true
Nonlinearity correction enabled: false
Boxcar width: 0
XAxis mode: Wavelengths
Number of Pixels in Spectrum: 3648
>>>>>Begin Spectral Data<<<<<
178.204	-439.63
178.424	-439.63
178.644	-439.63
178.864	-384.34
179.084	-468.3
179.304	-32.08
179.524	-25.94
179.744	17.07
179.964	23.21
180.184	35.5
180.404	86.7
180.624	-23.89
180.844	-73.04
181.064	2.73
181.283	-9.56
181.503	-60.76
181.723	60.07
181.943	-122.2
182.163	123.56
182.383	-27.99
182.602	90.79
182.822	84.65
183.042	45.74
183.262	-75.09
183.482	-21.84
183.701	-3.41
183.921	25.26
184.141	-44.37
184.361	62.12
184.58	21.16
184.8	-1.37
185.02	-103.76
185.239	88.75
185.459	43.69
185.679	139.94
185.898	-79.19
186.118	49.83
186.338	25.26
186.557	154.28
186.777	-19.8
186.997	-66.9
187.216	25.26
187.436	150.18
187.655	49.83
187.875	127.66
188.095	43.69
188.314	156.33
188.534	49.83
188.753	15.02
188.973	105.13
189.192	119.46
189.412	25.26
189.631	45.74
189.851	35.5
190.07	115.37
190.29	-87.38
190.509	15.02
190.729	-38.23
190.948	137.9
191.168	256.68
191.387	68.27
191.607	55.98
191.826	37.55
192.045	17.07
192.265	47.79
192.484	58.03
192.704	23.21
192.923	-83.28
193.142	84.65
193.362	127.66
193.581	146.09
193.8	88.75
194.02	58.03
194.239	31.4
194.458	51.88
194.678	-7.51
194.897	-17.75
195.116	33.45
195.335	47.79
195.555	64.17
195.774	-32.08
195.993	180.9
196.212	29.35
196.432	-44.37
196.651	-44.37
196.87	-48.47
197.089	221.86
197.308	72.36
197.528	105.13
197.747	-56.66
197.966	-3.41
198.185	150.18
198.404	-91.48
198.623	94.89
198.842	15.02
199.062	103.08
199.281	66.22
199.5	23.21
199.719	53.93
199.938	21.16
200.157	86.7
200.376	203.43
200.595	76.46
200.814	60.07
201.033	-71
201.252	201.38
201.471	-7.51
201.69	21.16
201.909	8.87
202.128	84.65
202.347	33.45
202.566	-52.56
202.785	-107.86
203.004	-25.94
203.223	271.01
203.442	53.93
203.661	-58.71
203.879	-1.37
204.098	133.8
204.317	10.92
204.536	-13.65
204.755	111.27
204.974	113.32
205.193	-32.08
205.411	84.65
205.63	12.97
205.849	-3.41
206.068	-48.47
206.287	-23.89
206.505	160.42
206.724	6.83
206.943	-50.52
207.162	55.98
207.381	29.35
207.599	25.26
207.818	39.59
208.037	-25.94
208.255	33.45
208.474	-87.38
208.693	94.89
208.911	-21.84
209.13	49.83
209.349	35.5
209.567	107.18
209.786	31.4
210.005	90.79
210.223	88.75
210.442	-19.8
210.661	-5.46
210.879	21.16
211.098	33.45
211.316	21.16
211.535	6.83
211.753	43.69
211.972	152.23
212.191	-9.56
212.409	-15.7
212.628	94.89
212.846	-5.46
213.065	10.92
213.283	68.27
213.502	35.5
213.72	-34.13
213.938	58.03
214.157	-42.32
214.375	62.12
214.594	78.51
214.812	82.6
215.031	37.55
215.249	41.64
215.467	60.07
215.686	88.75
215.904	21.16
216.122	60.07
216.341	166.57
216.559	94.89
216.778	21.16
216.996	111.27
217.214	31.4
217.432	76.46
217.651	-34.13
217.869	-66.9
218.087	31.4
218.306	-11.61
218.524	10.92
218.742	8.87
218.96	19.11
219.179	-7.51
219.397	-15.7
219.615	162.47
219.833	62.12
220.051	-21.84
220.27	70.31
220.488	82.6
220.706	45.74
220.924	29.35
221.142	-73.04
221.36	39.59
221.578	70.31
221.796	8.87
222.015	8.87
222.233	15.02
222.451	191.14
222.669	-3.41
222.887	53.93
223.105	-56.66
223.323	43.69
223.541	-38.23
223.759	43.69
223.977	101.03
224.195	170.66
224.413	68.27
224.631	25.26
224.849	121.51
225.067	131.75
225.285	33.45
225.503	-27.99
225.721	-103.76
225.939	47.79
226.157	84.65
226.375	240.3
226.592	-19.8
226.81	27.31
227.028	78.51
227.246	127.66
227.464	94.89
227.682	41.64
227.9	141.99
228.117	58.03
228.335	80.55
228.553	35.5
228.771	21.16
228.989	23.21
229.206	101.03
229.424	12.97
229.642	-7.51
229.86	-66.9
230.077	168.62
230.295	-11.61
230.513	123.56
230.731	127.66
230.948	185
231.166	109.23
231.384	45.74
231.601	-58.71
231.819	144.04
232.037	-21.84
232.254	8.87
232.472	72.36
232.689	-38.23
232.907	115.37
233.125	2.73
233.342	-64.85
233.56	2.73
233.777	2.73
233.995	-52.56
234.213	105.13
234.43	101.03
234.648	19.11
234.865	-3.41
235.083	47.79
235.3	2.73
235.518	88.75
235.735	96.94
235.953	90.79
236.17	23.21
236.388	66.22
236.605	23.21
236.822	35.5
237.04	82.6
237.257	86.7
237.475	-42.32
237.692	-21.84
237.909	101.03
238.127	-36.18
238.344	72.36
238.562	35.5
238.779	-40.28
238.996	-50.52
239.214	35.5
239.431	64.17
239.648	-19.8
239.865	33.45
240.083	19.11
240.3	-71
240.517	55.98
240.735	-25.94
240.952	45.74
241.169	-7.51
241.386	62.12
241.603	92.84
241.821	70.31
242.038	117.42
242.255	84.65
242.472	-19.8
242.689	29.35
242.907	154.28
243.124	-54.61
243.341	66.22
243.558	-48.47
243.775	-13.65
243.992	-9.56
244.209	86.7
244.426	96.94
244.643	23.21
244.86	12.97
245.078	101.03
245.295	25.26
245.512	35.5
245.729	-1.37
245.946	86.7
246.163	58.03
246.38	-1.37
246.597	8.87
246.814	74.41
247.031	35.5
247.248	39.59
247.464	49.83
247.681	17.07
247.898	45.74
248.115	74.41
248.332	-32.08
248.549	94.89
248.766	150.18
248.983	-30.04
249.2	45.74
249.417	72.36
249.633	90.79
249.85	43.69
250.067	-3.41
250.284	41.64
250.501	45.74
250.717	131.75
250.934	12.97
251.151	37.55
251.368	55.98
251.585	0.68
251.801	15.02
252.018	-120.15
252.235	101.03
252.451	-11.61
252.668	-23.89
252.885	86.7
253.102	62.12
253.318	55.98
253.535	21.16
253.752	49.83
253.968	-25.94
254.185	8.87
254.401	86.7
254.618	55.98
254.835	6.83
255.051	90.79
255.268	51.88
255.484	-7.51
255.701	43.69
255.917	78.51
256.134	-66.9
256.351	12.97
256.567	-32.08
256.784	-48.47
257	-52.56
257.217	80.55
257.433	84.65
257.65	62.12
257.866	96.94
258.082	-85.33
258.299	6.83
258.515	88.75
258.732	-46.42
258.948	101.03
259.165	111.27
259.381	8.87
259.597	80.55
259.814	17.07
260.03	-46.42
260.246	43.69
260.463	76.46
260.679	125.61
260.895	31.4
261.112	58.03
261.328	19.11
261.544	8.87
261.761	109.23
261.977	-15.7
262.193	-71
262.409	84.65
262.626	35.5
262.842	49.83
263.058	35.5
263.274	123.56
263.49	45.74
263.707	49.83
263.923	107.18
264.139	-52.56
264.355	55.98
264.571	119.46
264.787	53.93
265.004	133.8
265.22	8.87
265.436	47.79
265.652	-38.23
265.868	68.27
266.084	-40.28
266.3	88.75
266.516	-27.99
266.732	86.7
266.948	12.97
267.164	-5.46
267.38	53.93
267.596	-19.8
267.812	170.66
268.028	23.21
268.244	-9.56
268.46	27.31
268.676	17.07
268.892	80.55
269.108	-46.42
269.324	-42.32
269.54	-54.61
269.756	68.27
269.972	21.16
270.188	-7.51
270.403	-81.24
270.619	-32.08
270.835	47.79
271.051	-3.41
271.267	-75.09
271.483	-17.75
271.698	51.88
271.914	62.12
272.13	2.73
272.346	0.68
272.562	-27.99
272.777	154.28
272.993	-11.61
273.209	2.73
273.425	45.74
273.64	-56.66
273.856	168.62
274.072	-9.56
274.287	-44.37
274.503	107.18
274.719	113.32
274.934	-71
275.15	-38.23
275.366	41.64
275.581	-3.41
275.797	47.79
276.012	-3.41
276.228	-13.65
276.444	19.11
276.659	146.09
276.875	25.26
277.09	-13.65
277.306	-13.65
277.521	-9.56
277.737	37.55
277.952	76.46
278.168	-46.42
278.383	6.83
278.599	86.7
278.814	117.42
279.03	15.02
279.245	98.99
279.461	31.4
279.676	47.79
279.892	-21.84
280.107	-21.84
280.322	-54.61
280.538	84.65
280.753	-7.51
280.969	90.79
281.184	60.07
281.399	96.94
281.615	-5.46
281.83	27.31
282.045	-64.85
282.26	-40.28
282.476	109.23
282.691	74.41
282.906	98.99
283.122	-42.32
283.337	-56.66
283.552	25.26
283.767	-34.13
283.983	74.41
284.198	10.92
284.413	68.27
284.628	-64.85
284.843	64.17
285.058	39.59
285.274	-1.37
285.489	0.68
285.704	31.4
285.919	-9.56
286.134	-1.37
286.349	4.78
286.564	-1.37
286.779	98.99
286.995	41.64
287.21	-62.8
287.425	98.99
287.64	-17.75
287.855	76.46
288.07	-68.95
288.285	58.03
288.5	131.75
288.715	64.17
288.93	6.83
289.145	43.69
289.36	37.55
289.575	0.68
289.79	98.99
290.004	47.79
290.219	107.18
290.434	-9.56
290.649	29.35
290.864	17.07
291.079	17.07
291.294	29.35
291.509	-13.65
291.724	58.03
291.938	-23.89
292.153	39.59
292.368	66.22
292.583	41.64
292.798	64.17
293.012	39.59
293.227	21.16
293.442	-101.72
293.657	94.89
293.871	17.07
294.086	53.93
294.301	154.28
294.516	131.75
294.73	-3.41
294.945	-7.51
295.16	58.03
295.374	129.7
295.589	119.46
295.804	-42.32
296.018	35.5
296.233	144.04
296.447	68.27
296.662	-19.8
296.877	117.42
297.091	8.87
297.306	-9.56
297.52	-19.8
297.735	37.55
297.949	4.78
298.164	58.03
298.378	27.31
298.593	-48.47
298.807	2.73
299.022	49.83
299.236	139.94
299.451	-34.13
299.665	-3.41
299.88	-40.28
300.094	94.89
300.309	35.5
300.523	64.17
300.737	47.79
300.952	51.88
301.166	62.12
301.381	-27.99
301.595	-52.56
301.809	17.07
302.024	-15.7
302.238	-25.94
302.452	162.47
302.667	19.11
302.881	137.9
303.095	86.7
303.309	86.7
303.524	-97.62
303.738	-64.85
303.952	-27.99
304.166	55.98
304.381	-152.91
304.595	113.32
304.809	-19.8
305.023	29.35
305.237	-30.04
305.452	6.83
305.666	41.64
305.88	119.46
306.094	58.03
306.308	86.7
306.522	68.27
306.736	80.55
306.95	62.12
307.164	-19.8
307.379	12.97
307.593	205.48
307.807	76.46
308.021	96.94
308.235	103.08
308.449	-93.52
308.663	-3.41
308.877	236.2
309.091	31.4
309.305	53.93
309.519	-193.87
309.733	86.7
309.947	-66.9
310.161	60.07
310.374	107.18
310.588	115.37
310.802	-52.56
311.016	25.26
311.23	109.23
311.444	-36.18
311.658	41.64
311.872	47.79
312.085	62.12
312.299	121.51
312.513	223.91
312.727	53.93
312.941	-83.28
313.154	82.6
313.368	62.12
313.582	2.73
313.796	-32.08
314.009	25.26
314.223	113.32
314.437	-11.61
314.651	88.75
314.864	-23.89
315.078	15.02
315.292	-7.51
315.505	2.73
315.719	10.92
315.933	37.55
316.146	-58.71
316.36	-9.56
316.573	131.75
316.787	133.8
317.001	111.27
317.214	17.07
317.428	21.16
317.641	-54.61
317.855	-50.52
318.068	33.45
318.282	66.22
318.495	205.48
318.709	37.55
318.922	-1.37
319.136	109.23
319.349	154.28
319.563	12.97
319.776	86.7
319.99	-77.14
320.203	139.94
320.417	41.64
320.63	6.83
320.843	207.53
321.057	8.87
321.27	27.31
321.483	117.42
321.697	158.38
321.91	74.41
322.124	19.11
322.337	70.31
322.55	-13.65
322.763	31.4
322.977	19.11
323.19	51.88
323.403	2.73
323.617	76.46
323.83	33.45
324.043	-1.37
324.256	41.64
324.469	-95.57
324.683	19.11
324.896	-25.94
325.109	-1.37
325.322	-23.89
325.535	66.22
325.748	21.16
325.962	-50.52
326.175	51.88
326.388	31.4
326.601	72.36
326.814	60.07
327.027	80.55
327.24	162.47
327.453	-111.96
327.666	74.41
327.879	127.66
328.092	137.9
328.305	49.83
328.518	-1.37
328.731	-15.7
328.944	41.64
329.157	2.73
329.37	-27.99
329.583	131.75
329.796	146.09
330.009	-13.65
330.222	96.94
330.435	68.27
330.648	53.93
330.861	80.55
331.073	35.5
331.286	133.8
331.499	17.07
331.712	-1.37
331.925	-11.61
332.138	-5.46
332.35	154.28
332.563	-66.9
332.776	129.7
332.989	33.45
333.202	8.87
333.414	64.17
333.627	29.35
333.84	64.17
334.053	8.87
334.265	72.36
334.478	-77.14
334.691	37.55
334.903	2.73
335.116	-44.37
335.329	23.21
335.541	62.12
335.754	119.46
335.966	-25.94
336.179	27.31
336.392	-7.51
336.604	27.31
336.817	35.5
337.029	51.88
337.242	15.02
337.454	33.45
337.667	-38.23
337.88	125.61
338.092	80.55
338.305	12.97
338.517	8.87
338.729	115.37
338.942	84.65
339.154	-103.76
339.367	62.12
339.579	43.69
339.792	-5.46
340.004	39.59
340.217	39.59
340.429	47.79
340.641	-11.61
340.854	-42.32
341.066	8.87
341.278	107.18
341.491	160.42
341.703	90.79
341.915	-42.32
342.128	53.93
342.34	62.12
342.552	-13.65
342.764	15.02
342.977	4.78
343.189	66.22
343.401	27.31
343.613	-23.89
343.826	49.83
344.038	-13.65
344.25	43.69
344.462	-40.28
344.674	-15.7
344.886	37.55
345.099	-23.89
345.311	101.03
345.523	21.16
345.735	-91.48
345.947	131.75
346.159	58.03
346.371	31.4
346.583	-32.08
346.795	199.34
347.007	-44.37
347.219	92.84
347.431	35.5
347.643	170.66
347.855	-50.52
348.067	31.4
348.279	-54.61
348.491	98.99
348.703	33.45
348.915	25.26
349.127	-19.8
349.339	-32.08
349.551	51.88
349.763	66.22
349.975	80.55
350.187	78.51
350.399	107.18
350.61	-5.46
350.822	0.68
351.034	53.93
351.246	111.27
351.458	76.46
351.669	31.4
351.881	103.08
352.093	148.14
352.305	72.36
352.517	29.35
352.728	150.18
352.94	31.4
353.152	92.84
353.363	-27.99
353.575	150.18
353.787	135.85
353.999	105.13
354.21	152.23
354.422	4.78
354.633	-32.08
354.845	-38.23
355.057	10.92
355.268	51.88
355.48	103.08
355.692	-52.56
355.903	74.41
356.115	19.11
356.326	-27.99
356.538	141.99
356.749	68.27
356.961	160.42
357.172	82.6
357.384	-17.75
357.595	244.39
357.807	82.6
358.018	-60.76
358.23	84.65
358.441	113.32
358.653	98.99
358.864	15.02
359.075	-27.99
359.287	31.4
359.498	-17.75
359.709	25.26
359.921	-15.7
360.132	70.31
360.344	-23.89
360.555	-38.23
360.766	10.92
360.977	117.42
361.189	82.6
361.4	-11.61
361.611	101.03
361.823	45.74
362.034	35.5
362.245	-71
362.456	-46.42
362.667	45.74
362.879	10.92
363.09	109.23
363.301	90.79
363.512	-54.61
363.723	2.73
363.935	-3.41
364.146	72.36
364.357	-9.56
364.568	84.65
364.779	-54.61
364.99	178.86
365.201	-13.65
365.412	107.18
365.623	-130.39
365.834	45.74
366.045	-13.65
366.256	43.69
366.467	60.07
366.678	2.73
366.889	53.93
367.1	35.5
367.311	58.03
367.522	-13.65
367.733	0.68
367.944	15.02
368.155	43.69
368.366	58.03
368.577	125.61
368.788	109.23
368.999	-85.33
369.209	-1.37
369.42	178.86
369.631	244.39
369.842	41.64
370.053	82.6
370.264	154.28
370.474	4.78
370.685	45.74
370.896	6.83
371.107	45.74
371.317	-7.51
371.528	-19.8
371.739	133.8
371.95	78.51
372.16	72.36
372.371	-38.23
372.582	-15.7
372.792	86.7
373.003	127.66
373.214	55.98
373.424	19.11
373.635	-21.84
373.846	82.6
374.056	37.55
374.267	49.83
374.477	58.03
374.688	35.5
374.898	33.45
375.109	53.93
375.319	80.55
375.53	156.33
375.74	98.99
375.951	-30.04
376.161	115.37
376.372	127.66
376.582	37.55
376.793	64.17
377.003	19.11
377.214	-40.28
377.424	53.93
377.635	4.78
377.845	15.02
378.055	115.37
378.266	-62.8
378.476	-52.56
378.686	-60.76
378.897	10.92
379.107	70.31
379.317	39.59
379.528	74.41
379.738	62.12
379.948	-95.57
380.158	148.14
380.369	45.74
380.579	49.83
380.789	39.59
380.999	103.08
381.21	119.46
381.42	133.8
381.63	-3.41
381.84	39.59
382.05	21.16
382.261	115.37
382.471	92.84
382.681	-77.14
382.891	111.27
383.101	103.08
383.311	-19.8
383.521	-38.23
383.731	82.6
383.941	76.46
384.151	31.4
384.361	-11.61
384.571	84.65
384.781	-11.61
384.991	187.05
385.201	205.48
385.411	74.41
385.621	78.51
385.831	68.27
386.041	-19.8
386.251	-36.18
386.461	115.37
386.671	31.4
386.881	72.36
387.091	27.31
387.301	84.65
387.511	62.12
387.72	74.41
387.93	121.51
388.14	-68.95
388.35	-9.56
388.56	125.61
388.769	107.18
388.979	4.78
389.189	-19.8
389.399	117.42
389.609	129.7
389.818	152.23
390.028	31.4
390.238	60.07
390.447	-34.13
390.657	60.07
390.867	-73.04
391.076	-38.23
391.286	12.97
391.496	-25.94
391.705	78.51
391.915	72.36
392.125	82.6
392.334	53.93
392.544	115.37
392.753	66.22
392.963	43.69
393.172	58.03
393.382	-40.28
393.591	189.1
393.801	23.21
394.01	146.09
394.22	92.84
394.429	-30.04
394.639	31.4
394.848	27.31
395.058	96.94
395.267	23.21
395.477	4.78
395.686	96.94
395.895	131.75
396.105	197.29
396.314	66.22
396.524	49.83
396.733	-32.08
396.942	119.46
397.152	74.41
397.361	82.6
397.57	111.27
397.78	82.6
397.989	176.81
398.198	141.99
398.407	47.79
398.617	41.64
398.826	2.73
399.035	-7.51
399.244	121.51
399.453	-21.84
399.663	92.84
399.872	62.12
400.081	-46.42
400.29	90.79
400.499	-36.18
400.708	43.69
400.917	-1.37
401.127	-48.47
401.336	0.68
401.545	180.9
401.754	76.46
401.963	105.13
402.172	8.87
402.381	-60.76
402.59	23.21
402.799	68.27
403.008	123.56
403.217	70.31
403.426	64.17
403.635	-58.71
403.844	23.21
404.053	-13.65
404.262	-13.65
404.471	185
404.68	113.32
404.888	33.45
405.097	-44.37
405.306	105.13
405.515	90.79
405.724	-52.56
405.933	15.02
406.142	96.94
406.35	152.23
406.559	-15.7
406.768	25.26
406.977	131.75
407.185	80.55
407.394	88.75
407.603	12.97
407.812	62.12
408.02	80.55
408.229	49.83
408.438	111.27
408.646	-52.56
408.855	82.6
409.064	37.55
409.272	86.7
409.481	70.31
409.69	2.73
409.898	-54.61
410.107	-75.09
410.315	94.89
410.524	68.27
410.733	-27.99
410.941	58.03
411.15	88.75
411.358	94.89
411.567	199.34
411.775	53.93
411.984	10.92
412.192	78.51
412.401	-27.99
412.609	137.9
412.818	109.23
413.026	101.03
413.234	15.02
413.443	55.98
413.651	19.11
413.86	49.83
414.068	113.32
414.276	133.8
414.485	21.16
414.693	117.42
414.901	189.1
415.11	-17.75
415.318	113.32
415.526	35.5
415.734	139.94
415.943	35.5
416.151	238.25
416.359	92.84
416.567	45.74
416.776	127.66
416.984	25.26
417.192	182.95
417.4	-21.84
417.608	29.35
417.817	35.5
418.025	146.09
418.233	205.48
418.441	4.78
418.649	-48.47
418.857	96.94
419.065	70.31
419.273	0.68
419.481	0.68
419.689	29.35
419.897	29.35
420.105	-85.33
420.313	70.31
420.521	123.56
420.729	37.55
420.937	-23.89
421.145	-19.8
421.353	144.04
421.561	123.56
421.769	111.27
421.977	78.51
422.185	101.03
422.393	80.55
422.601	98.99
422.809	82.6
423.017	105.13
423.224	31.4
423.432	168.62
423.64	53.93
423.848	141.99
424.056	-25.94
424.263	88.75
424.471	31.4
424.679	166.57
424.887	35.5
425.094	141.99
425.302	123.56
425.51	6.83
425.718	25.26
425.925	47.79
426.133	21.16
426.341	289.45
426.548	6.83
426.756	43.69
426.964	127.66
427.171	68.27
427.379	101.03
427.586	43.69
427.794	53.93
428.001	170.66
428.209	129.7
428.417	137.9
428.624	74.41
428.832	107.18
429.039	131.75
429.247	35.5
429.454	137.9
429.662	160.42
429.869	113.32
430.076	148.14
430.284	148.14
430.491	172.71
430.699	150.18
430.906	193.19
431.114	84.65
431.321	172.71
431.528	129.7
431.736	197.29
431.943	187.05
432.15	215.72
432.358	146.09
432.565	291.49
432.772	60.07
432.979	160.42
433.187	139.94
433.394	228.01
433.601	164.52
433.808	193.19
434.016	248.49
434.223	228.01
434.43	158.38
434.637	244.39
434.844	256.68
435.052	260.77
435.259	262.82
435.466	316.07
435.673	201.38
435.88	236.2
436.087	357.03
436.294	287.4
436.501	406.18
436.708	285.35
436.915	287.4
437.122	338.6
437.329	316.07
437.537	295.59
437.743	359.08
437.95	479.91
438.157	481.96
438.364	424.61
438.571	383.65
438.778	369.32
438.985	484
439.192	510.63
439.399	510.63
439.606	453.28
439.813	539.3
440.02	674.46
440.227	621.22
440.433	502.44
440.64	627.36
440.847	557.73
441.054	615.07
441.261	733.86
441.467	619.17
441.674	637.6
441.881	707.23
442.088	645.79
442.294	680.61
442.501	815.77
442.708	803.49
442.914	821.92
443.121	934.56
443.328	862.88
443.534	993.95
443.741	977.56
443.948	877.21
444.154	1016.48
444.361	1137.31
444.568	1151.64
444.774	1219.22
444.981	1002.14
445.187	1192.6
445.394	1305.24
445.6	1190.55
445.807	1264.28
446.013	1342.1
446.22	1376.92
446.426	1487.51
446.633	1575.57
446.839	1825.42
447.046	1491.6
447.252	1759.89
447.459	1794.7
447.665	1737.36
447.871	1954.44
448.078	2194.06
448.284	1989.26
448.491	2079.37
448.697	2372.23
448.903	2300.55
449.11	2386.57
449.316	2210.44
449.522	2697.86
449.728	2654.85
449.935	2704
450.141	2654.85
450.347	2925.18
450.553	2892.41
450.76	2964.09
450.966	3035.77
451.172	3383.93
451.378	3349.11
451.584	3564.15
451.791	3703.41
451.997	3756.66
452.203	3828.34
452.409	4067.95
452.615	4223.59
452.821	4070
453.027	4268.65
453.233	4653.67
453.44	4670.05
453.646	4858.46
453.852	4858.46
454.058	5065.31
454.264	5241.43
454.47	5712.47
454.676	5683.8
454.882	6300.23
455.088	5765.71
455.294	6234.7
455.5	6707.78
455.705	7017.02
455.911	7051.84
456.117	7201.34
456.323	7443
456.529	7692.85
456.735	8155.69
456.941	8348.2
457.147	8659.49
457.352	9083.42
457.558	9259.55
457.764	9851.41
457.97	10105.36
458.176	10598.92
458.381	11102.72
458.587	11254.27
458.793	11805.17
458.999	11497.98
459.204	13169.12
459.41	13361.63
459.616	13062.63
459.821	14291.41
460.027	14911.94
460.233	15532.48
460.438	15534.53
460.644	16445.87
460.85	16611.76
461.055	17310.11
461.261	17934.74
461.466	17858.97
461.672	18010.52
461.878	20308.34
462.083	19827.07
462.289	20169.08
462.494	21072.23
462.7	21260.65
462.905	21711.2
463.111	23322.95
463.316	24285.5
463.522	24723.76
463.727	25932.06
463.932	26751.25
464.138	27568.39
464.343	28627.19
464.549	28678.39
464.754	30832.85
464.959	31396.04
465.165	32155.84
465.37	32028.87
465.575	32188.61
465.781	34015.4
465.986	34932.89
466.191	34472.09
466.397	34834.58
466.602	33933.48
466.807	35858.57
467.012	36622.46
467.218	36864.12
467.423	37302.39
467.628	38299.75
467.833	39884.87
468.038	39628.88
468.244	38977.62
468.449	41107.51
468.654	40200.26
468.859	39868.49
469.064	39790.67
469.269	38813.79
469.474	39172.18
469.679	40323.14
469.885	38893.66
470.09	39409.75
470.295	39809.1
470.5	39106.65
470.705	39028.82
470.91	38412.38
471.115	37636.2
471.32	38213.73
471.525	38234.21
471.73	36812.92
471.935	36880.5
472.139	35666.06
472.344	35092.63
472.549	35377.29
472.754	34281.63
472.959	33605.8
473.164	32766.13
473.369	31942.85
473.574	32913.59
473.778	32272.57
473.983	31869.12
474.188	31287.5
474.393	29522.15
474.598	29296.88
474.802	28913.91
475.007	28801.27
475.212	28279.04
475.417	27267.34
475.621	27164.94
475.826	26947.86
476.031	26050.85
476.235	25200.94
476.44	25463.08
476.645	24807.73
476.849	24594.74
477.054	24369.46
477.259	23595.33
477.463	23677.25
477.668	22794.57
477.872	23028.04
478.077	22276.44
478.282	21612.9
478.486	21649.76
478.691	21223.78
478.895	21350.76
479.1	21016.94
479.304	20838.76
479.509	19925.37
479.713	20427.12
479.918	19974.52
480.122	19384.71
480.326	19638.65
480.531	19696
480.735	19308.93
480.94	18964.87
481.144	19685.76
481.348	18479.5
481.553	19040.65
481.757	18028.95
481.961	18293.14
482.166	18495.89
482.37	18497.94
482.574	17848.73
482.778	17609.12
482.983	17944.98
483.187	17426.85
483.391	17562.01
483.595	17146.28
483.8	17080.74
484.004	16986.54
484.208	17021.35
484.412	16673.2
484.616	16574.89
484.821	16495.02
485.025	15983.03
485.229	16359.86
485.433	15759.8
485.637	15743.42
485.841	15241.67
486.045	15210.95
486.249	15129.03
486.453	14746.06
486.657	14635.47
486.861	14580.17
487.065	13771.22
487.269	13951.45
487.473	13537.76
487.677	13711.83
487.881	13599.2
488.085	12993
488.289	13066.72
488.493	12777.96
488.697	12823.01
488.901	12304.88
489.105	11803.13
489.309	11893.24
489.512	11538.94
489.716	11469.31
489.92	11035.14
490.124	10961.41
490.328	10912.26
490.531	10498.57
490.735	10490.38
490.939	10301.97
491.143	9978.39
491.346	9802.26
491.55	9773.59
491.754	9708.05
491.958	9568.79
492.161	9216.54
492.365	9161.25
492.569	8942.11
492.772	8892.96
492.976	8886.82
493.18	8419.88
493.383	8657.45
493.587	8661.54
493.79	8526.38
493.994	8227.37
494.197	8002.1
494.401	8092.21
494.605	7981.62
494.808	7928.37
495.012	7985.71
495.215	7887.41
495.419	7862.83
495.622	7569.98
495.825	7459.38
496.029	7608.89
496.232	7754.29
496.436	7330.36
496.639	7809.59
496.843	7266.88
497.046	7379.51
497.249	7647.8
497.453	7471.67
497.656	7563.83
497.859	7324.22
498.063	7553.59
498.266	7694.9
498.469	7561.78
498.673	7438.91
498.876	7512.63
499.079	7561.78
499.282	7576.12
499.485	7832.12
499.689	7791.16
499.892	8032.82
500.095	7746.1
500.298	8110.64
500.501	7739.96
500.705	7967.28
500.908	8075.82
501.111	8114.73
501.314	8139.31
501.517	8290.86
501.72	8591.91
501.923	8258.09
502.126	8417.83
502.329	8722.98
502.532	8524.33
502.735	8749.61
502.938	9013.79
503.141	8985.12
503.344	8942.11
503.547	9146.91
503.75	9085.47
503.953	9353.76
504.156	9531.93
504.359	9517.59
504.562	9589.27
504.765	9900.56
504.968	10009.11
505.17	10152.46
505.373	10377.74
505.576	10631.69
505.779	10689.03
505.982	10562.06
506.185	11180.54
506.387	11078.15
506.59	11407.87
506.793	11575.8
506.996	11954.68
507.198	12186.1
507.401	12265.97
507.604	12507.63
507.807	12663.27
508.009	12745.19
508.212	12964.32
508.415	13107.68
508.617	13711.83
508.82	14070.23
509.022	14029.27
509.225	14660.04
509.428	14813.64
509.63	14811.59
509.833	15561.15
510.035	15972.79
510.238	15968.7
510.44	16447.92
510.643	16904.62
510.845	17209.76
511.048	17281.44
511.25	17777.05
511.453	17908.12
511.655	18610.57
511.858	19073.42
512.06	19564.93
512.262	20011.39
512.465	20330.87
512.667	20715.89
512.87	20949.35
513.072	21535.07
513.274	22055.26
513.477	22585.68
513.679	23101.77
513.881	23583.04
514.084	24162.62
514.286	24647.99
514.488	24992.05
514.69	25997.6
514.893	26239.26
515.095	26599.7
515.297	27078.93
515.499	27658.5
515.701	28045.57
515.904	29198.57
516.106	29305.07
516.308	30304.48
516.51	30906.58
516.712	31129.81
516.914	31791.3
517.116	32331.97
517.318	32702.65
517.52	33745.06
517.722	33847.46
517.925	34564.25
518.127	35537.04
518.329	36061.32
518.531	36274.31
518.733	37400.69
518.935	38135.91
519.136	38299.75
519.338	39147.61
519.54	39397.46
519.742	40413.25
519.944	40871.99
520.146	41392.18
520.348	41838.64
520.55	42444.83
520.752	42653.73
520.954	43302.93
521.155	43669.52
521.357	44728.32
521.559	44738.56
521.761	45508.6
521.963	45895.66
522.164	45385.72
522.366	46041.07
522.568	46933.98
522.77	47261.66
522.971	47933.39
523.173	47790.03
523.375	48101.32
523.576	47990.73
523.778	48166.86
523.98	48693.19
524.181	49098.69
524.383	49072.06
524.584	49768.37
524.786	49539
524.988	49375.16
525.189	49500.09
525.391	49641.4
525.592	49727.41
525.794	49430.46
525.995	49567.67
526.197	49784.75
526.398	49323.96
526.6	49604.53
526.801	49313.72
527.003	48844.74
527.204	48527.3
527.406	49283
527.607	48635.84
527.808	48895.94
528.01	47521.75
528.211	48072.65
528.412	48439.24
528.614	47464.41
528.815	47173.59
529.016	47216.6
529.218	46151.66
529.419	46362.6
529.62	45570.04
529.822	45088.76
530.023	45023.23
530.224	44703.74
530.425	43849.74
530.626	43526.16
530.828	43218.97
531.029	43102.23
531.23	42287.14
531.431	41885.74
531.632	41416.75
531.833	40960.06
532.035	40847.42
532.236	39899.21
532.437	39727.18
532.638	38701.15
532.839	38918.23
533.04	38428.77
533.241	37533.81
533.442	37496.94
533.643	36393.09
533.844	36812.92
534.045	35825.8
534.246	35045.52
534.447	34994.32
534.648	34392.22
534.849	34252.96
535.05	33093.81
535.251	33052.85
535.451	32362.68
535.652	32274.62
535.853	31355.08
536.054	31316.17
536.255	31121.62
536.456	29776.1
536.657	30560.47
536.857	29561.06
537.058	29032.69
537.259	28647.67
537.46	28395.77
537.66	28057.85
537.861	27756.8
538.062	27371.78
538.263	26994.96
538.463	26433.82
538.664	26116.38
538.865	26347.8
539.065	25884.96
539.266	25473.32
539.466	25231.66
539.667	24342.84
539.868	24944.94
540.068	24115.51
540.269	23892.29
540.469	23613.76
540.67	23257.42
540.87	23261.51
541.071	22749.52
541.271	22575.44
541.472	22169.94
541.672	21875.04
541.873	21653.86
542.073	21100.9
542.274	21184.87
542.474	20963.69
542.675	20836.72
542.875	20502.9
543.075	20035.96
543.276	19706.24
543.476	20001.15
543.676	19513.73
543.877	19427.71
544.077	19161.48
544.277	19046.79
544.478	18772.36
544.678	18772.36
544.878	18385.3
545.078	18117.01
545.279	17727.9
545.479	17582.49
545.679	17473.95
545.879	17291.68
546.079	17179.04
546.28	17027.49
546.48	16820.65
546.68	16701.87
546.88	16445.87
547.08	16316.85
547.28	15915.45
547.48	15526.33
547.68	15600.06
547.88	15237.57
548.081	15329.73
548.281	15006.15
548.481	15028.68
548.681	14684.62
548.881	14406.09
549.081	14381.52
549.28	13791.7
549.48	13857.24
549.68	13689.31
549.88	13564.38
550.08	13257.18
550.28	13220.32
550.48	13036
550.68	13050.34
550.88	12505.58
551.08	12225.01
551.279	12476.91
551.479	12095.99
551.679	11919.86
551.879	11694.58
552.079	11706.87
552.278	11411.96
552.478	11323.9
552.678	11225.6
552.878	11028.99
553.077	10631.69
553.277	10443.28
553.477	10603.02
553.676	10449.42
553.876	10078.74
554.076	9867.8
554.275	9904.66
554.475	9288.22
554.674	9431.58
554.874	9378.33
555.074	9130.53
555.273	9056.8
555.473	9015.84
555.672	8651.3
555.872	8579.62
556.071	8577.58
556.271	8546.86
556.47	8153.65
556.67	7916.08
556.869	7858.74
557.068	7840.31
557.268	7664.18
557.467	7422.52
557.667	7416.38
557.866	7225.92
558.065	7373.37
558.265	7057.98
558.464	7017.02
558.663	6806.08
558.863	6720.07
559.062	6658.63
559.261	6427.21
559.461	6509.13
559.66	6154.83
559.859	6029.9
560.058	5902.93
560.258	6013.52
560.457	5737.04
560.656	6042.19
560.855	5599.83
561.054	5808.72
561.253	5669.46
561.453	5519.96
561.652	5352.02
561.851	5442.14
562.05	5210.72
562.249	5114.46
562.448	5003.87
562.647	5055.07
562.846	5016.16
563.045	5003.87
563.244	4825.7
563.443	4762.21
563.642	4622.95
563.841	4596.32
564.04	4520.55
564.239	4452.97
564.438	4399.72
564.637	4264.55
564.836	4211.31
565.035	4113
565.234	4176.49
565.432	4067.95
565.631	4143.72
565.83	3961.45
566.029	3846.77
566.228	3770.99
566.427	3895.92
566.625	3496.57
566.824	3674.74
567.023	3666.55
567.222	3633.78
567.42	3412.6
567.619	3529.33
567.818	3457.65
568.016	3535.48
568.215	3334.78
568.414	3455.61
568.612	3172.99
568.811	3123.84
569.01	3111.55
569.208	3058.3
569.407	3084.92
569.605	3041.92
569.804	2912.89
570.002	2847.36
570.201	2806.4
570.4	2755.2
570.598	2734.72
570.797	2642.56
570.995	2617.99
571.193	2706.05
571.392	2636.42
571.59	2572.93
571.789	2581.12
571.987	2548.36
572.186	2534.02
572.384	2405
572.582	2411.14
572.781	2634.37
572.979	2235.02
573.177	2243.21
573.376	2267.78
573.574	2179.72
573.772	1972.88
573.971	2054.8
574.169	2128.52
574.367	2105.99
574.565	2011.79
574.763	1913.49
574.962	1895.05
575.16	1850
575.358	1950.35
575.556	1862.29
575.754	1944.21
575.952	1886.86
576.151	1829.52
576.349	1821.33
576.547	1688.21
576.745	1780.37
576.943	1776.27
577.141	1530.52
577.339	1659.54
577.537	1624.72
577.735	1692.3
577.933	1557.14
578.131	1356.44
578.329	1507.99
578.527	1421.97
578.725	1528.47
578.923	1303.19
579.121	1495.7
579.319	1262.23
579.516	1282.71
579.714	1520.28
579.912	1297.05
580.11	1264.28
580.308	1297.05
580.506	1346.2
580.704	1079.96
580.901	1153.69
581.099	1325.72
581.297	1147.55
581.495	1237.66
581.692	1227.42
581.89	1211.03
582.088	1178.26
582.285	1077.91
582.483	1086.11
582.681	1065.63
582.878	979.61
583.076	1063.58
583.274	1047.19
583.471	1139.35
583.669	1036.95
583.866	961.18
584.064	916.12
584.262	946.84
584.459	993.95
584.657	909.98
584.854	924.32
585.052	1041.05
585.249	938.65
585.447	907.93
585.644	860.83
585.841	971.42
586.039	850.59
586.236	846.49
586.434	830.11
586.631	819.87
586.828	823.97
587.026	799.39
587.223	699.04
587.42	735.9
587.618	834.21
587.815	869.02
588.012	674.46
588.21	858.78
588.407	748.19
588.604	737.95
588.801	721.57
588.999	750.24
589.196	885.41
589.393	750.24
589.59	674.46
589.787	762.53
589.984	725.66
590.182	746.14
590.379	615.07
590.576	590.5
590.773	565.92
590.97	635.55
591.167	737.95
591.364	694.94
591.561	637.6
591.758	742.05
591.955	760.48
592.152	666.27
592.349	565.92
592.546	600.74
592.743	613.03
592.94	666.27
593.137	625.31
593.334	631.46
593.531	715.42
593.727	729.76
593.924	623.27
594.121	635.55
594.318	606.88
594.515	662.18
594.712	823.97
594.908	750.24
595.105	557.73
595.302	711.33
595.499	713.38
595.696	819.87
595.892	696.99
596.089	791.2
596.286	686.75
596.482	883.36
596.679	735.9
596.876	803.49
597.072	944.8
597.269	828.06
597.466	899.74
597.662	846.49
597.859	764.58
598.055	834.21
598.252	1055.39
598.448	1122.97
598.645	1098.39
598.841	1108.63
599.038	1178.26
599.234	1239.7
599.431	1204.89
599.627	1202.84
599.824	1307.29
600.02	1323.67
600.217	1383.06
600.413	1499.8
600.609	1399.45
600.806	1811.09
601.002	1716.88
601.198	1555.09
601.395	1761.94
601.591	1763.98
601.787	1888.91
601.984	1927.82
602.18	2056.84
602.376	2001.55
602.572	2163.34
602.769	2255.5
602.965	2325.13
603.161	2400.9
603.357	2566.79
603.553	2652.8
603.75	2568.84
603.946	2697.86
604.142	2773.63
604.338	3029.63
604.534	2833.02
604.73	3119.74
604.926	3187.32
605.122	3318.39
605.318	3410.55
605.514	3545.72
605.71	3590.77
605.906	3705.46
606.102	3646.07
606.298	3912.3
606.494	3998.32
606.69	4211.31
606.886	4319.85
607.082	4395.62
607.278	4573.8
607.474	4610.66
607.67	4590.18
607.866	4686.44
608.062	5214.81
608.257	5208.67
608.453	5395.03
608.649	5522.01
608.845	5608.02
609.041	5722.71
609.236	5921.36
609.432	6117.97
609.628	6281.8
609.824	6378.06
610.019	6513.22
610.215	6675.01
610.411	6971.97
610.606	7086.65
610.802	7291.45
610.998	7494.2
611.193	7719.48
611.389	7750.2
611.584	8223.28
611.78	8401.45
611.976	8401.45
612.171	8890.92
612.367	8999.46
612.562	9028.13
612.758	9427.48
612.953	9646.62
613.149	10091.02
613.344	10156.56
613.539	10410.51
613.735	10850.82
613.93	11012.61
614.126	11276.8
614.321	11737.59
614.517	12032.5
614.712	12476.91
614.907	12429.81
615.103	12745.19
615.298	13054.44
615.493	13613.53
615.688	13531.61
615.884	14524.88
616.079	14199.25
616.274	15116.74
616.47	15184.32
616.665	15503.81
616.86	15880.63
617.055	16312.75
617.25	16562.61
617.445	17572.25
617.641	17615.26
617.836	18059.67
618.031	18157.97
618.226	18948.49
618.421	19179.91
618.616	20025.72
618.811	20207.99
619.006	21315.94
619.201	21029.23
619.396	21858.65
619.591	21649.76
619.786	22587.73
619.981	22694.22
620.176	24183.1
620.371	23662.91
620.566	24615.22
620.761	25157.93
620.956	25676.07
621.151	25839.9
621.346	26665.24
621.541	26734.87
621.735	27603.21
621.93	27613.45
622.125	28428.54
622.32	28811.51
622.515	29675.75
622.709	29759.72
622.904	30882
623.099	31234.25
623.294	31971.52
623.488	32180.42
623.683	32831.67
623.878	32805.05
624.072	33896.61
624.267	33976.48
624.462	34592.92
624.656	35215.51
624.851	35866.76
625.046	36403.33
625.24	37015.67
625.435	37085.3
625.629	37806.19
625.824	38152.29
626.018	39135.32
626.213	38733.92
626.407	39372.88
626.602	39663.69
626.796	40423.49
626.991	41060.41
627.185	41156.66
627.38	41171
627.574	41404.47
627.768	41312.31
627.963	41560.11
628.157	41885.74
628.352	42264.61
628.546	41467.95
628.74	42315.81
628.935	41769.01
629.129	41936.94
629.323	41121.85
629.517	41543.73
629.712	41179.19
629.906	41279.54
630.1	39981.13
630.294	40321.09
630.489	39424.08
630.683	39553.1
630.877	38373.47
631.071	37513.33
631.265	37099.64
631.459	36380.8
631.653	35186.83
631.848	34685.08
632.042	34039.97
632.236	33503.4
632.43	31865.03
632.624	31525.07
632.818	30904.53
633.012	29456.62
633.206	28739.83
633.4	28156.16
633.594	26605.84
633.788	25887.01
633.982	25159.98
634.176	24303.93
634.369	23138.63
634.563	22337.88
634.757	21442.92
634.951	20797.81
635.145	20132.22
635.339	19472.77
635.533	18499.98
635.726	17908.12
635.92	16800.17
636.114	16341.43
636.308	15702.46
636.501	15329.73
636.695	14594.51
636.889	13947.35
637.083	13191.65
637.276	12718.57
637.47	12001.78
637.664	11758.07
637.857	11317.76
638.051	10760.71
638.244	10258.96
638.438	10088.98
638.632	9550.36
638.825	9212.45
639.019	8921.63
639.212	8356.4
639.406	8182.32
639.599	7993.9
639.793	7658.04
639.986	7182.91
640.18	6996.54
640.373	6591.05
640.567	6539.85
640.76	6183.5
640.954	5982.8
641.147	5667.41
641.34	5454.42
641.534	5341.79
641.727	5249.63
641.92	4967.01
642.114	4645.48
642.307	4485.73
642.5	4395.62
642.694	4201.07
642.887	3986.03
643.08	3998.32
643.273	3889.78
643.467	3529.33
643.66	3330.68
643.853	3330.68
644.046	3140.22
644.239	3107.45
644.432	2921.09
644.626	2763.39
644.819	2835.07
645.012	2636.42
645.205	2644.61
645.398	2566.79
645.591	2417.29
645.784	2282.12
645.977	2060.94
646.17	2149
646.363	1946.25
646.556	1827.47
646.749	1823.37
646.942	1870.48
647.135	1772.18
647.328	1663.63
647.521	1589.91
647.714	1647.25
647.907	1581.71
648.099	1358.49
648.292	1522.32
648.485	1368.73
648.678	1290.9
648.871	1225.37
649.064	1149.59
649.256	989.85
649.449	1036.95
649.642	965.28
649.835	973.47
650.027	887.45
650.22	975.52
650.413	828.06
650.605	899.74
650.798	719.52
650.991	768.67
651.183	770.72
651.376	735.9
651.568	793.25
651.761	715.42
651.954	662.18
652.146	653.98
652.339	785.05
652.531	733.86
652.724	553.63
652.916	567.97
653.109	408.23
653.301	582.31
653.494	606.88
653.686	590.5
653.879	553.63
654.071	594.59
654.263	529.06
654.456	481.96
654.648	467.62
654.84	471.72
655.033	502.44
655.225	610.98
655.417	307.88
655.61	512.67
655.802	418.47
655.994	463.52
656.186	281.25
656.379	447.14
656.571	281.25
656.763	332.45
656.955	320.17
657.148	340.65
657.34	406.18
657.532	311.97
657.724	340.65
657.916	387.75
658.108	375.46
658.3	314.02
658.492	303.78
658.684	268.97
658.876	275.11
659.068	164.52
659.26	158.38
659.452	125.61
659.644	279.21
659.836	369.32
660.028	291.49
660.22	199.34
660.412	199.34
660.604	217.77
660.796	283.3
660.988	283.3
661.18	191.14
661.372	234.15
661.563	172.71
661.755	273.06
661.947	129.7
662.139	129.7
662.331	180.9
662.522	166.57
662.714	168.62
662.906	199.34
663.097	197.29
663.289	160.42
663.481	137.9
663.673	215.72
663.864	182.95
664.056	281.25
664.247	144.04
664.439	228.01
664.631	103.08
664.822	178.86
665.014	197.29
665.205	45.74
665.397	160.42
665.588	160.42
665.78	144.04
665.971	213.67
666.163	137.9
666.354	70.31
666.546	82.6
666.737	139.94
666.929	98.99
667.12	45.74
667.311	166.57
667.503	156.33
667.694	148.14
667.885	185
668.077	148.14
668.268	-23.89
668.459	72.36
668.651	170.66
668.842	137.9
669.033	35.5
669.224	74.41
669.416	301.73
669.607	72.36
669.798	76.46
669.989	219.82
670.18	98.99
670.371	158.38
670.563	10.92
670.754	119.46
670.945	131.75
671.136	189.1
671.327	6.83
671.518	150.18
671.709	211.62
671.9	205.48
672.091	174.76
672.282	152.23
672.473	172.71
672.664	90.79
672.855	113.32
673.046	113.32
673.237	170.66
673.428	174.76
673.619	178.86
673.809	144.04
674	217.77
674.191	246.44
674.382	164.52
674.573	166.57
674.764	121.51
674.954	271.01
675.145	135.85
675.336	39.59
675.527	129.7
675.717	35.5
675.908	166.57
676.099	74.41
676.289	135.85
676.48	31.4
676.671	127.66
676.861	111.27
677.052	86.7
677.243	103.08
677.433	109.23
677.624	150.18
677.814	187.05
678.005	90.79
678.195	266.92
678.386	125.61
678.576	209.58
678.767	68.27
678.957	191.14
679.148	160.42
679.338	266.92
679.529	238.25
679.719	199.34
679.909	230.06
680.1	189.1
680.29	168.62
680.481	80.55
680.671	217.77
680.861	176.81
681.052	213.67
681.242	76.46
681.432	262.82
681.622	172.71
681.813	47.79
682.003	133.8
682.193	123.56
682.383	250.53
682.573	170.66
682.764	98.99
682.954	158.38
683.144	246.44
683.334	150.18
683.524	176.81
683.714	197.29
683.904	219.82
684.094	139.94
684.284	129.7
684.474	275.11
684.664	260.77
684.854	160.42
685.044	213.67
685.234	113.32
685.424	135.85
685.614	139.94
685.804	279.21
685.994	230.06
686.184	209.58
686.374	221.86
686.564	221.86
686.753	141.99
686.943	180.9
687.133	144.04
687.323	207.53
687.513	135.85
687.702	115.37
687.892	127.66
688.082	150.18
688.272	166.57
688.461	182.95
688.651	352.93
688.841	185
689.03	234.15
689.22	250.53
689.41	199.34
689.599	260.77
689.789	162.47
689.979	258.73
690.168	152.23
690.358	211.62
690.547	180.9
690.737	152.23
690.926	203.43
691.116	250.53
691.305	185
691.495	246.44
691.684	137.9
691.874	125.61
692.063	133.8
692.252	238.25
692.442	309.93
692.631	191.14
692.82	146.09
693.01	195.24
693.199	187.05
693.388	193.19
693.578	172.71
693.767	217.77
693.956	223.91
694.146	107.18
694.335	240.3
694.524	230.06
694.713	244.39
694.902	193.19
695.092	80.55
695.281	232.1
695.47	109.23
695.659	82.6
695.848	182.95
696.037	90.79
696.226	281.25
696.415	230.06
696.604	271.01
696.793	205.48
696.982	156.33
697.171	260.77
697.36	168.62
697.549	225.96
697.738	-64.85
697.927	197.29
698.116	88.75
698.305	162.47
698.494	240.3
698.683	121.51
698.872	332.45
699.061	58.03
699.25	180.9
699.438	168.62
699.627	135.85
699.816	293.54
700.005	41.64
700.193	158.38
700.382	234.15
700.571	154.28
700.76	215.72
700.948	258.73
701.137	182.95
701.326	195.24
701.514	139.94
701.703	146.09
701.892	176.81
702.08	318.12
702.269	131.75
702.457	180.9
702.646	168.62
702.834	182.95
703.023	125.61
703.212	195.24
703.4	64.17
703.589	150.18
703.777	72.36
703.965	88.75
704.154	113.32
704.342	121.51
704.531	70.31
704.719	115.37
704.907	195.24
705.096	129.7
705.284	78.51
705.472	168.62
705.661	182.95
705.849	244.39
706.037	189.1
706.226	180.9
706.414	166.57
706.602	129.7
706.79	225.96
706.979	111.27
707.167	166.57
707.355	74.41
707.543	213.67
707.731	129.7
707.919	160.42
708.107	289.45
708.296	92.84
708.484	154.28
708.672	191.14
708.86	144.04
709.048	258.73
709.236	49.83
709.424	244.39
709.612	189.1
709.8	60.07
709.988	105.13
710.176	260.77
710.364	240.3
710.551	148.14
710.739	199.34
710.927	123.56
711.115	156.33
711.303	254.63
711.491	309.93
711.679	131.75
711.866	285.35
712.054	185
712.242	221.86
712.43	258.73
712.617	90.79
712.805	273.06
712.993	211.62
713.181	107.18
713.368	228.01
713.556	133.8
713.744	101.03
713.931	316.07
714.119	160.42
714.306	156.33
714.494	74.41
714.682	234.15
714.869	101.03
715.057	107.18
715.244	70.31
715.432	268.97
715.619	146.09
715.807	141.99
715.994	94.89
716.182	98.99
716.369	254.63
716.556	223.91
716.744	45.74
716.931	131.75
717.119	215.72
717.306	174.76
717.493	164.52
717.681	125.61
717.868	154.28
718.055	242.34
718.242	68.27
718.43	166.57
718.617	234.15
718.804	148.14
718.991	248.49
719.179	242.34
719.366	277.16
719.553	107.18
719.74	248.49
719.927	219.82
720.114	170.66
720.301	131.75
720.488	90.79
720.676	135.85
720.863	293.54
721.05	361.13
721.237	279.21
721.424	232.1
721.611	117.42
721.798	160.42
721.985	135.85
722.172	170.66
722.358	148.14
722.545	246.44
722.732	205.48
722.919	297.64
723.106	311.97
723.293	191.14
723.48	246.44
723.667	125.61
723.853	318.12
724.04	238.25
724.227	230.06
724.414	180.9
724.6	256.68
724.787	264.87
724.974	336.55
725.161	242.34
725.347	96.94
725.534	201.38
725.72	238.25
725.907	271.01
726.094	281.25
726.28	152.23
726.467	260.77
726.653	156.33
726.84	295.59
727.027	348.84
727.213	213.67
727.4	340.65
727.586	205.48
727.773	332.45
727.959	262.82
728.145	234.15
728.332	150.18
728.518	117.42
728.705	242.34
728.891	242.34
729.077	217.77
729.264	90.79
729.45	228.01
729.636	334.5
729.823	246.44
730.009	242.34
730.195	176.81
730.382	203.43
730.568	236.2
730.754	146.09
730.94	205.48
731.126	203.43
731.313	307.88
731.499	248.49
731.685	344.74
731.871	330.41
732.057	309.93
732.243	334.5
732.429	328.36
732.615	336.55
732.801	299.69
732.987	281.25
733.173	314.02
733.359	217.77
733.545	309.93
733.731	180.9
733.917	248.49
734.103	254.63
734.289	299.69
734.475	209.58
734.661	424.61
734.847	260.77
735.033	238.25
735.219	336.55
735.404	209.58
735.59	256.68
735.776	240.3
735.962	230.06
736.148	334.5
736.333	344.74
736.519	264.87
736.705	301.73
736.89	211.62
737.076	295.59
737.262	185
737.447	182.95
737.633	322.21
737.819	291.49
738.004	291.49
738.19	271.01
738.375	322.21
738.561	332.45
738.747	246.44
738.932	228.01
739.118	414.37
739.303	391.84
739.489	303.78
739.674	215.72
739.859	221.86
740.045	332.45
740.23	238.25
740.416	129.7
740.601	320.17
740.786	346.79
740.972	180.9
741.157	103.08
741.342	205.48
741.528	293.54
741.713	342.69
741.898	228.01
742.084	242.34
742.269	228.01
742.454	281.25
742.639	273.06
742.824	289.45
743.01	397.99
743.195	404.13
743.38	324.26
743.565	283.3
743.75	322.21
743.935	375.46
744.12	293.54
744.305	166.57
744.49	172.71
744.675	246.44
744.86	234.15
745.045	357.03
745.23	264.87
745.415	240.3
745.6	389.8
745.785	195.24
745.97	311.97
746.155	279.21
746.34	314.02
746.525	230.06
746.71	295.59
746.895	107.18
747.079	109.23
747.264	189.1
747.449	295.59
747.634	289.45
747.819	230.06
748.003	254.63
748.188	195.24
748.373	240.3
748.557	322.21
748.742	240.3
748.927	191.14
749.111	195.24
749.296	287.4
749.481	318.12
749.665	234.15
749.85	152.23
750.034	242.34
750.219	258.73
750.404	232.1
750.588	260.77
750.773	217.77
750.957	162.47
751.141	223.91
751.326	195.24
751.51	113.32
751.695	199.34
751.879	230.06
752.064	234.15
752.248	178.86
752.432	348.84
752.617	203.43
752.801	207.53
752.985	213.67
753.17	287.4
753.354	252.58
753.538	219.82
753.722	187.05
753.907	193.19
754.091	141.99
754.275	277.16
754.459	113.32
754.643	178.86
754.828	176.81
755.012	238.25
755.196	119.46
755.38	203.43
755.564	109.23
755.748	221.86
755.932	228.01
756.116	207.53
756.3	211.62
756.484	154.28
756.668	162.47
756.852	66.22
757.036	86.7
757.22	189.1
757.404	129.7
757.588	80.55
757.772	185
757.956	113.32
758.14	262.82
758.323	111.27
758.507	203.43
758.691	144.04
758.875	217.77
759.059	211.62
759.242	113.32
759.426	238.25
759.61	201.38
759.794	98.99
759.977	197.29
760.161	391.84
760.345	273.06
760.528	240.3
760.712	182.95
760.895	139.94
761.079	123.56
761.263	135.85
761.446	86.7
761.63	228.01
761.813	156.33
761.997	135.85
762.18	111.27
762.364	174.76
762.547	109.23
762.731	197.29
762.914	164.52
763.098	78.51
763.281	127.66
763.464	131.75
763.648	172.71
763.831	156.33
764.015	109.23
764.198	164.52
764.381	62.12
764.564	29.35
764.748	117.42
764.931	170.66
765.114	33.45
765.297	156.33
765.481	31.4
765.664	121.51
765.847	37.55
766.03	223.91
766.213	111.27
766.397	66.22
766.58	86.7
766.763	135.85
766.946	94.89
767.129	2.73
767.312	119.46
767.495	90.79
767.678	45.74
767.861	119.46
768.044	144.04
768.227	86.7
768.41	107.18
768.593	144.04
768.776	51.88
768.959	90.79
769.142	219.82
769.324	51.88
769.507	117.42
769.69	-27.99
769.873	55.98
770.056	217.77
770.239	127.66
770.421	193.19
770.604	98.99
770.787	115.37
770.97	199.34
771.152	4.78
771.335	146.09
771.518	53.93
771.7	162.47
771.883	215.72
772.066	86.7
772.248	111.27
772.431	199.34
772.613	105.13
772.796	86.7
772.978	158.38
773.161	178.86
773.343	55.98
773.526	125.61
773.708	-11.61
773.891	51.88
774.073	103.08
774.256	49.83
774.438	144.04
774.621	33.45
774.803	172.71
774.985	68.27
775.168	70.31
775.35	12.97
775.532	107.18
775.715	4.78
775.897	107.18
776.079	53.93
776.261	166.57
776.444	80.55
776.626	82.6
776.808	66.22
776.99	-21.84
777.173	37.55
777.355	62.12
777.537	144.04
777.719	80.55
777.901	55.98
778.083	98.99
778.265	-17.75
778.447	107.18
778.629	41.64
778.811	-17.75
778.993	141.99
779.175	148.14
779.357	84.65
779.539	-40.28
779.721	105.13
779.903	80.55
780.085	88.75
780.267	82.6
780.449	76.46
780.631	117.42
780.812	187.05
780.994	139.94
781.176	12.97
781.358	17.07
781.54	90.79
781.721	76.46
781.903	146.09
782.085	66.22
782.267	168.62
782.448	15.02
782.63	-9.56
782.812	121.51
782.993	80.55
783.175	135.85
783.357	4.78
783.538	43.69
783.72	-23.89
783.901	98.99
784.083	-5.46
784.264	33.45
784.446	-30.04
784.627	74.41
784.809	105.13
784.99	-30.04
785.172	119.46
785.353	64.17
785.535	4.78
785.716	68.27
785.897	31.4
786.079	-17.75
786.26	-1.37
786.441	45.74
786.623	-75.09
786.804	33.45
786.985	-15.7
787.167	86.7
787.348	45.74
787.529	66.22
787.71	152.23
787.891	23.21
788.073	6.83
788.254	-42.32
788.435	162.47
788.616	68.27
788.797	-32.08
788.978	27.31
789.159	51.88
789.34	39.59
789.522	35.5
789.703	-62.8
789.884	74.41
790.065	15.02
790.246	211.62
790.427	19.11
790.607	176.81
790.788	76.46
790.969	-30.04
791.15	62.12
791.331	-40.28
791.512	-36.18
791.693	0.68
791.874	-46.42
792.054	146.09
792.235	49.83
792.416	-11.61
792.597	-7.51
792.778	-42.32
792.958	19.11
793.139	62.12
793.32	51.88
793.5	-44.37
793.681	105.13
793.862	37.55
794.042	-15.7
794.223	-97.62
794.404	29.35
794.584	-15.7
794.765	-13.65
794.945	10.92
795.126	90.79
795.306	72.36
795.487	19.11
795.667	33.45
795.848	49.83
796.028	68.27
796.209	-19.8
796.389	119.46
796.57	10.92
796.75	25.26
796.93	29.35
797.111	-15.7
797.291	84.65
797.471	150.18
797.652	-30.04
797.832	10.92
798.012	47.79
798.192	-40.28
798.373	-95.57
798.553	-7.51
798.733	-36.18
798.913	-32.08
799.093	27.31
799.274	-1.37
799.454	72.36
799.634	49.83
799.814	31.4
799.994	96.94
800.174	-9.56
800.354	58.03
800.534	-46.42
800.714	76.46
800.894	-99.67
801.074	-118.1
801.254	-38.23
801.434	53.93
801.614	39.59
801.794	-79.19
801.974	2011.79
802.154	-7.51
802.334	21.16
802.514	-68.95
802.693	-27.99
802.873	19.11
803.053	41.64
803.233	94.89
803.413	90.79
803.592	-87.38
803.772	39.59
803.952	-58.71
804.131	-126.29
804.311	78.51
804.491	123.56
804.67	-32.08
804.85	-36.18
805.03	58.03
805.209	68.27
805.389	19.11
805.568	12.97
805.748	37.55
805.928	-40.28
806.107	12.97
806.287	70.31
806.466	115.37
806.646	33.45
806.825	-19.8
807.004	-89.43
807.184	51.88
807.363	-40.28
807.543	45.74
807.722	-38.23
807.901	78.51
808.081	49.83
808.26	-95.57
808.439	6.83
808.619	10.92
808.798	-56.66
808.977	0.68
809.156	94.89
809.336	-9.56
809.515	21.16
809.694	-73.04
809.873	-5.46
810.052	68.27
810.231	86.7
810.411	37.55
810.59	80.55
810.769	-7.51
810.948	107.18
811.127	-109.91
811.306	27.31
811.485	-27.99
811.664	101.03
811.843	55.98
812.022	68.27
812.201	-40.28
812.38	27.31
812.559	-132.44
812.737	17.07
812.916	-54.61
813.095	8.87
813.274	51.88
813.453	-21.84
813.632	41.64
813.811	-46.42
813.989	-62.8
814.168	-7.51
814.347	-38.23
814.526	84.65
814.704	115.37
814.883	113.32
815.062	-66.9
815.24	29.35
815.419	-40.28
815.598	66.22
815.776	-42.32
815.955	19.11
816.133	-118.1
816.312	-107.86
816.49	-36.18
816.669	25.26
816.847	15.02
817.026	25.26
817.204	-11.61
817.383	31.4
817.561	-13.65
817.74	62.12
817.918	55.98
818.097	-66.9
818.275	-44.37
818.453	-25.94
818.632	-19.8
818.81	8.87
818.988	-21.84
819.167	-54.61
819.345	23.21
819.523	-44.37
819.701	8.87
819.879	64.17
820.058	55.98
820.236	8.87
820.414	-60.76
820.592	-71
820.77	-42.32
820.948	-73.04
821.127	25.26
821.305	-19.8
821.483	-54.61
821.661	41.64
821.839	43.69
822.017	-48.47
822.195	-79.19
822.373	35.5
822.551	-27.99
822.729	33.45
822.907	-42.32
823.085	33.45
823.262	-7.51
823.44	-99.67
823.618	-79.19
823.796	-40.28
823.974	-11.61
824.152	60.07
824.329	-48.47
824.507	39.59
824.685	19.11
824.863	-25.94
825.04	31.4
825.218	33.45
825.396	-40.28
825.574	0.68
825.751	62.12
825.929	17.07
826.107	-120.15
826.284	0.68
826.462	98.99
826.639	-77.14
826.817	-81.24
826.994	51.88
827.172	-87.38
827.349	115.37
827.527	53.93
827.704	-11.61
827.882	60.07
828.059	-5.46
828.237	-27.99
828.414	74.41
828.591	-64.85
828.769	-13.65
828.946	-25.94
829.124	86.7
829.301	113.32
829.478	-34.13
829.655	-52.56
829.833	-11.61
830.01	-169.3
830.187	29.35
830.364	27.31
830.542	-7.51
830.719	131.75
830.896	51.88
831.073	60.07
831.25	31.4
831.427	139.94
831.604	12.97
831.782	-87.38
831.959	55.98
832.136	-17.75
832.313	31.4
832.49	-48.47
832.667	-56.66
832.844	-13.65
833.021	64.17
833.198	-15.7
833.374	-62.8
833.551	43.69
833.728	-46.42
833.905	39.59
834.082	-66.9
834.259	29.35
834.436	21.16
834.612	-56.66
834.789	72.36
834.966	-23.89
835.143	19.11
835.319	-111.96
835.496	-38.23
835.673	-1.37
835.85	-7.51
836.026	0.68
836.203	80.55
836.38	-83.28
836.556	-30.04
836.733	-32.08
836.909	92.84
837.086	31.4
837.262	-114
837.439	-44.37
837.616	-81.24
837.792	-60.76
837.968	37.55
838.145	-54.61
838.321	-73.04
838.498	-1.37
838.674	58.03
838.851	-68.95
839.027	-48.47
839.203	-30.04
839.38	-7.51
839.556	23.21
839.732	8.87
839.909	23.21
840.085	-11.61
840.261	-79.19
840.437	-15.7
840.614	-71
840.79	-7.51
840.966	49.83
841.142	27.31
841.318	-17.75
841.494	53.93
841.671	55.98
841.847	-38.23
842.023	-81.24
842.199	21.16
842.375	66.22
842.551	-97.62
842.727	-56.66
842.903	119.46
843.079	-79.19
843.255	86.7
843.431	37.55
843.607	-9.56
843.783	-109.91
843.959	78.51
844.134	-25.94
844.31	35.5
844.486	-48.47
844.662	-44.37
844.838	21.16
845.013	8.87
845.189	45.74
845.365	-7.51
845.541	-19.8
845.716	94.89
845.892	55.98
846.068	-116.05
846.244	-71
846.419	2.73
846.595	-85.33
846.77	-25.94
846.946	25.26
847.122	-58.71
847.297	-52.56
847.473	133.8
847.648	-77.14
847.824	45.74
847.999	-161.11
848.175	27.31
848.35	-1.37
848.526	58.03
848.701	17.07
848.876	72.36
849.052	33.45
849.227	-21.84
849.403	17.07
849.578	-62.8
849.753	-27.99
849.929	-13.65
850.104	-66.9
850.279	-23.89
850.454	-3.41
850.63	103.08
850.805	-75.09
850.98	4.78
851.155	-3.41
851.33	-32.08
851.505	-62.8
851.681	58.03
851.856	-3.41
852.031	45.74
852.206	101.03
852.381	25.26
852.556	-3.41
852.731	-40.28
852.906	84.65
853.081	78.51
853.256	55.98
853.431	-44.37
853.606	-40.28
853.781	35.5
853.956	-91.48
854.131	-25.94
854.305	-142.68
854.48	35.5
854.655	-89.43
854.83	-30.04
855.005	8.87
855.18	37.55
855.354	-64.85
855.529	4.78
855.704	-34.13
855.879	43.69
856.053	-93.52
856.228	-19.8
856.403	-71
856.577	-36.18
856.752	-105.81
856.926	-38.23
857.101	45.74
857.276	-66.9
857.45	25.26
857.625	105.13
857.799	-21.84
857.974	60.07
858.148	-202.07
858.323	-25.94
858.497	-17.75
858.672	-62.8
858.846	-56.66
859.02	25.26
859.195	-154.96
859.369	-32.08
859.543	-3.41
859.718	2.73
859.892	39.59
860.066	19.11
860.241	4.78
860.415	-114
860.589	4.78
860.763	0.68
860.938	-23.89
861.112	37.55
861.286	-46.42
861.46	8.87
861.634	-36.18
861.808	-17.75
861.982	-46.42
862.157	-150.87
862.331	-83.28
862.505	-126.29
862.679	-73.04
862.853	-87.38
863.027	17.07
863.201	123.56
863.375	0.68
863.549	23.21
863.722	-38.23
863.896	88.75
864.07	41.64
864.244	-58.71
864.418	19.11
864.592	-85.33
864.766	-21.84
864.939	-30.04
865.113	-11.61
865.287	55.98
865.461	-148.82
865.634	-52.56
865.808	-1.37
865.982	-81.24
866.156	23.21
866.329	-120.15
866.503	-34.13
866.676	-30.04
866.85	-19.8
867.024	0.68
867.197	64.17
867.371	33.45
867.544	-11.61
867.718	-105.81
867.891	82.6
868.065	-66.9
868.238	74.41
868.412	74.41
868.585	-38.23
868.759	-58.71
868.932	-66.9
869.105	-71
869.279	25.26
869.452	-109.91
869.625	21.16
869.799	-19.8
869.972	-101.72
870.145	-60.76
870.319	-11.61
870.492	-95.57
870.665	-32.08
870.838	-5.46
871.011	-134.48
871.185	23.21
871.358	-25.94
871.531	19.11
871.704	-109.91
871.877	39.59
872.05	12.97
872.223	-142.68
872.396	-1.37
872.569	45.74
872.742	-95.57
872.915	-9.56
873.088	23.21
873.261	0.68
873.434	64.17
873.607	-42.32
873.78	72.36
873.953	-132.44
874.126	27.31
874.299	0.68
874.471	-46.42
874.644	2.73
874.817	103.08
874.99	70.31
875.163	-56.66
875.335	29.35
875.508	60.07
875.681	111.27
875.853	-81.24
876.026	29.35
876.199	29.35
876.371	-15.7
876.544	-44.37
876.717	-27.99
876.889	-17.75
877.062	-5.46
877.234	-93.52
877.407	-116.05
877.579	-42.32
877.752	78.51
877.924	2.73
878.097	17.07
878.269	-79.19
878.442	-32.08
878.614	49.83
878.786	51.88
878.959	-79.19
879.131	-50.52
879.303	-50.52
879.476	-77.14
879.648	178.86
879.82	17.07
879.993	-7.51
880.165	-71
880.337	-46.42
880.509	-40.28
880.681	-120.15
880.854	-7.51
881.026	17.07
881.198	92.84
881.37	-48.47
881.542	-7.51
881.714	-38.23
881.886	2.73
882.058	-21.84
882.23	-48.47
882.402	-97.62
882.574	-27.99
882.746	80.55
882.918	55.98
883.09	-83.28
883.262	0.68
883.434	-36.18
883.606	-97.62
883.778	-32.08
883.95	76.46
884.122	-114
884.293	101.03
884.465	-32.08
884.637	156.33
884.809	0.68
884.98	-5.46
885.152	78.51
885.324	-58.71
885.496	-30.04
885.667	-50.52
885.839	-54.61
886.011	74.41
886.182	31.4
886.354	55.98
886.525	8.87
886.697	2.73
886.869	-89.43
887.04	-9.56
887.212	64.17
887.383	82.6
887.555	35.5
887.726	-95.57
887.897	-58.71
888.069	53.93
888.24	19.11
888.412	-64.85
888.583	-46.42
888.754	39.59
888.926	-101.72
889.097	-38.23
889.268	-132.44
889.44	-30.04
889.611	-99.67
889.782	-136.53
889.953	-87.38
890.125	-38.23
890.296	-87.38
890.467	-40.28
890.638	-54.61
890.809	-34.13
890.98	-73.04
891.151	58.03
891.323	129.7
891.494	6.83
891.665	-56.66
891.836	25.26
892.007	23.21
892.178	-15.7
892.349	-32.08
892.52	17.07
892.691	-40.28
892.862	-9.56
893.032	8.87
893.203	-107.86
893.374	64.17
893.545	49.83
893.716	-21.84
893.887	15.02
894.057	-48.47
894.228	72.36
894.399	-99.67
894.57	49.83
894.74	2.73
894.911	-21.84
895.082	-13.65
895.253	8.87
895.423	45.74
895.594	-11.61
895.764	55.98
895.935	-93.52
896.106	4.78
896.276	-79.19
896.447	35.5
896.617	-130.39
896.788	-105.81
896.958	-75.09
897.129	21.16
897.299	-128.34
897.47	193.19
897.64	31.4
897.81	-48.47
897.981	15.02
898.151	-50.52
898.322	8.87
898.492	-81.24
898.662	-62.8
898.832	-48.47
899.003	-32.08
899.173	15.02
899.343	-150.87
899.513	-38.23
