Data from USB4F104151__31__11-24-55-104.txt Node

Date: Wed Feb 26 11:24:55 EST 2025
User: louis
Spectrometer: USB4F10415
Trigger mode: 4
Integration Time (sec): 1.000000E-1
Scans to average: 1
Electric dark correction enabled: true
Nonlinearity correction enabled: false
Boxcar width: 0
XAxis mode: Wavelengths
Number of Pixels in Spectrum: 3648
>>>>>Begin Spectral Data<<<<<
178.204	-409.08
178.424	-409.08
178.644	-409.08
178.864	-386.55
179.084	-343.55
179.304	-15.87
179.524	8.7
179.744	29.18
179.964	49.66
180.184	68.09
180.404	117.25
180.624	-130.56
180.844	0.51
181.064	-91.65
181.283	31.23
181.503	-75.26
181.723	8.7
181.943	-69.12
182.163	211.45
182.383	-36.35
182.602	84.48
182.822	109.05
183.042	49.66
183.262	57.86
183.482	-136.7
183.701	-38.4
183.921	119.29
184.141	-85.5
184.361	107.01
184.58	78.33
184.8	61.95
185.02	25.09
185.239	41.47
185.459	33.28
185.679	207.36
185.898	-89.6
186.118	39.42
186.338	20.99
186.557	109.05
186.777	-44.54
186.997	18.94
187.216	37.38
187.436	184.83
187.655	61.95
187.875	141.82
188.095	39.42
188.314	184.83
188.534	135.68
188.753	0.51
188.973	94.72
189.192	176.64
189.412	43.52
189.631	29.18
189.851	12.8
190.07	201.21
190.29	-79.36
190.509	35.33
190.729	31.23
190.948	100.86
191.168	205.31
191.387	107.01
191.607	-42.5
191.826	-26.11
192.045	31.23
192.265	-65.02
192.484	47.62
192.704	41.47
192.923	-91.65
193.142	123.39
193.362	100.86
193.581	127.49
193.8	64
194.02	102.91
194.239	-22.02
194.458	160.25
194.678	23.04
194.897	-34.3
195.116	82.43
195.335	14.85
195.555	29.18
195.774	41.47
195.993	125.44
196.212	-17.92
196.432	-40.45
196.651	2.56
196.87	78.33
197.089	217.6
197.308	37.38
197.528	37.38
197.747	-60.93
197.966	66.05
198.185	72.19
198.404	12.8
198.623	147.97
198.842	178.69
199.062	53.76
199.281	147.97
199.5	33.28
199.719	129.53
199.938	74.24
200.157	82.43
200.376	109.05
200.595	143.87
200.814	-3.58
201.033	-15.87
201.252	107.01
201.471	64
201.69	41.47
201.909	47.62
202.128	80.38
202.347	72.19
202.566	-7.68
202.785	-75.26
203.004	-69.12
203.223	254.46
203.442	-32.26
203.661	-52.74
203.879	29.18
204.098	170.49
204.317	-19.97
204.536	41.47
204.755	90.62
204.974	55.81
205.193	20.99
205.411	182.78
205.63	121.34
205.849	47.62
206.068	16.9
206.287	90.62
206.505	141.82
206.724	-34.3
206.943	6.66
207.162	0.51
207.381	47.62
207.599	-3.58
207.818	45.57
208.037	41.47
208.255	-9.73
208.474	2.56
208.693	25.09
208.911	-62.98
209.13	78.33
209.349	-15.87
209.567	107.01
209.786	23.04
210.005	72.19
210.223	10.75
210.442	-101.89
210.661	68.09
210.879	104.96
211.098	-9.73
211.316	8.7
211.535	107.01
211.753	59.9
211.972	27.14
212.191	-38.4
212.409	-34.3
212.628	107.01
212.846	-7.68
213.065	84.48
213.283	135.68
213.502	-9.73
213.72	98.81
213.938	-5.63
214.157	4.61
214.375	150.01
214.594	-48.64
214.812	33.28
215.031	14.85
215.249	14.85
215.467	31.23
215.686	111.1
215.904	45.57
216.122	43.52
216.341	152.06
216.559	-11.78
216.778	115.2
216.996	131.58
217.214	31.23
217.432	39.42
217.651	-22.02
217.869	-15.87
218.087	49.66
218.306	-19.97
218.524	-9.73
218.742	2.56
218.96	74.24
219.179	10.75
219.397	74.24
219.615	205.31
219.833	74.24
220.051	14.85
220.27	2.56
220.488	129.53
220.706	78.33
220.924	-58.88
221.142	-24.06
221.36	107.01
221.578	100.86
221.796	41.47
222.015	-11.78
222.233	84.48
222.451	186.88
222.669	-26.11
222.887	10.75
223.105	-26.11
223.323	-17.92
223.541	51.71
223.759	47.62
223.977	0.51
224.195	178.69
224.413	121.34
224.631	31.23
224.849	-36.35
225.067	166.4
225.285	33.28
225.503	-3.58
225.721	-77.31
225.939	8.7
226.157	25.09
226.375	207.36
226.592	-22.02
226.81	4.61
227.028	111.1
227.246	111.1
227.464	82.43
227.682	80.38
227.9	43.52
228.117	94.72
228.335	107.01
228.553	98.81
228.771	-69.12
228.989	4.61
229.206	96.77
229.424	45.57
229.642	2.56
229.86	-15.87
230.077	215.55
230.295	61.95
230.513	107.01
230.731	78.33
230.948	123.39
231.166	131.58
231.384	12.8
231.601	-67.07
231.819	178.69
232.037	-19.97
232.254	-17.92
232.472	61.95
232.689	4.61
232.907	160.25
233.125	-3.58
233.342	29.18
233.56	-34.3
233.777	33.28
233.995	0.51
234.213	64
234.43	82.43
234.648	35.33
234.865	4.61
235.083	20.99
235.3	55.81
235.518	45.57
235.735	92.67
235.953	117.25
236.17	59.9
236.388	76.29
236.605	45.57
236.822	117.25
237.04	74.24
237.257	80.38
237.475	-44.54
237.692	-22.02
237.909	76.29
238.127	61.95
238.344	123.39
238.562	61.95
238.779	-38.4
238.996	-101.89
239.214	68.09
239.431	150.01
239.648	37.38
239.865	176.64
240.083	66.05
240.3	68.09
240.517	31.23
240.735	-56.83
240.952	90.62
241.169	76.29
241.386	113.15
241.603	16.9
241.821	-73.21
242.038	139.77
242.255	147.97
242.472	35.33
242.689	100.86
242.907	39.42
243.124	-3.58
243.341	29.18
243.558	-36.35
243.775	-28.16
243.992	-99.84
244.209	135.68
244.426	176.64
244.643	86.53
244.86	14.85
245.078	131.58
245.295	51.71
245.512	-120.32
245.729	-24.06
245.946	10.75
246.163	14.85
246.38	-22.02
246.597	35.33
246.814	16.9
247.031	33.28
247.248	0.51
247.464	72.19
247.681	39.42
247.898	23.04
248.115	96.77
248.332	2.56
248.549	111.1
248.766	121.34
248.983	92.67
249.2	18.94
249.417	180.73
249.633	2.56
249.85	41.47
250.067	121.34
250.284	33.28
250.501	59.9
250.717	61.95
250.934	-89.6
251.151	53.76
251.368	-9.73
251.585	27.14
251.801	51.71
252.018	-75.26
252.235	107.01
252.451	-26.11
252.668	-56.83
252.885	76.29
253.102	-15.87
253.318	-24.06
253.535	-85.5
253.752	-34.3
253.968	-40.45
254.185	23.04
254.401	43.52
254.618	61.95
254.835	45.57
255.051	129.53
255.268	141.82
255.484	18.94
255.701	37.38
255.917	86.53
256.134	-5.63
256.351	53.76
256.567	-30.21
256.784	107.01
257	-118.27
257.217	27.14
257.433	45.57
257.65	-24.06
257.866	76.29
258.082	-50.69
258.299	-19.97
258.515	59.9
258.732	-28.16
258.948	25.09
259.165	39.42
259.381	-91.65
259.597	-5.63
259.814	-32.26
260.03	55.81
260.246	70.14
260.463	152.06
260.679	113.15
260.895	-19.97
261.112	111.1
261.328	12.8
261.544	-54.78
261.761	160.25
261.977	2.56
262.193	-28.16
262.409	88.57
262.626	33.28
262.842	14.85
263.058	33.28
263.274	80.38
263.49	70.14
263.707	61.95
263.923	8.7
264.139	-13.82
264.355	47.62
264.571	41.47
264.787	98.81
265.004	199.16
265.22	35.33
265.436	35.33
265.652	49.66
265.868	119.29
266.084	-101.89
266.3	-3.58
266.516	-3.58
266.732	8.7
266.948	55.81
267.164	37.38
267.38	51.71
267.596	64
267.812	129.53
268.028	66.05
268.244	-36.35
268.46	61.95
268.676	37.38
268.892	23.04
269.108	-1.54
269.324	59.9
269.54	-13.82
269.756	61.95
269.972	-40.45
270.188	25.09
270.403	8.7
270.619	29.18
270.835	27.14
271.051	109.05
271.267	31.23
271.483	25.09
271.698	84.48
271.914	111.1
272.13	37.38
272.346	35.33
272.562	53.76
272.777	68.09
272.993	-24.06
273.209	78.33
273.425	78.33
273.64	-54.78
273.856	78.33
274.072	6.66
274.287	-32.26
274.503	109.05
274.719	64
274.934	-40.45
275.15	-32.26
275.366	6.66
275.581	2.56
275.797	-9.73
276.012	27.14
276.228	53.76
276.444	68.09
276.659	35.33
276.875	0.51
277.09	47.62
277.306	6.66
277.521	82.43
277.737	27.14
277.952	8.7
278.168	45.57
278.383	94.72
278.599	72.19
278.814	160.25
279.03	43.52
279.245	47.62
279.461	82.43
279.676	123.39
279.892	-52.74
280.107	-5.63
280.322	-54.78
280.538	78.33
280.753	-34.3
280.969	41.47
281.184	41.47
281.399	100.86
281.615	10.75
281.83	47.62
282.045	-87.55
282.26	10.75
282.476	-1.54
282.691	113.15
282.906	74.24
283.122	18.94
283.337	-3.58
283.552	82.43
283.767	-5.63
283.983	119.29
284.198	23.04
284.413	129.53
284.628	-71.17
284.843	72.19
285.058	113.15
285.274	8.7
285.489	-69.12
285.704	127.49
285.919	-40.45
286.134	14.85
286.349	59.9
286.564	45.57
286.779	174.59
286.995	-13.82
287.21	-110.08
287.425	31.23
287.64	41.47
287.855	-1.54
288.07	-101.89
288.285	66.05
288.5	111.1
288.715	74.24
288.93	96.77
289.145	49.66
289.36	10.75
289.575	10.75
289.79	125.44
290.004	-28.16
290.219	107.01
290.434	-24.06
290.649	-7.68
290.864	6.66
291.079	-62.98
291.294	16.9
291.509	137.73
291.724	-24.06
291.938	55.81
292.153	115.2
292.368	14.85
292.583	16.9
292.798	70.14
293.012	109.05
293.227	55.81
293.442	-7.68
293.657	45.57
293.871	137.73
294.086	27.14
294.301	182.78
294.516	111.1
294.73	16.9
294.945	-11.78
295.16	6.66
295.374	68.09
295.589	51.71
295.804	-17.92
296.018	90.62
296.233	80.38
296.447	41.47
296.662	16.9
296.877	129.53
297.091	16.9
297.306	27.14
297.52	2.56
297.735	129.53
297.949	41.47
298.164	35.33
298.378	2.56
298.593	-22.02
298.807	-11.78
299.022	-1.54
299.236	100.86
299.451	-54.78
299.665	-1.54
299.88	68.09
300.094	31.23
300.309	25.09
300.523	33.28
300.737	23.04
300.952	135.68
301.166	102.91
301.381	-52.74
301.595	-1.54
301.809	86.53
302.024	2.56
302.238	-83.45
302.452	35.33
302.667	-13.82
302.881	152.06
303.095	100.86
303.309	37.38
303.524	2.56
303.738	-26.11
303.952	4.61
304.166	37.38
304.381	-138.75
304.595	117.25
304.809	-36.35
305.023	37.38
305.237	41.47
305.452	-48.64
305.666	55.81
305.88	14.85
306.094	96.77
306.308	51.71
306.522	100.86
306.736	76.29
306.95	90.62
307.164	14.85
307.379	45.57
307.593	100.86
307.807	147.97
308.021	31.23
308.235	61.95
308.449	-83.45
308.663	-7.68
308.877	180.73
309.091	-11.78
309.305	121.34
309.519	-146.94
309.733	0.51
309.947	-73.21
310.161	25.09
310.374	84.48
310.588	133.63
310.802	-9.73
311.016	-1.54
311.23	43.52
311.444	-11.78
311.658	18.94
311.872	117.25
312.085	125.44
312.299	55.81
312.513	39.42
312.727	-36.35
312.941	-7.68
313.154	-7.68
313.368	6.66
313.582	25.09
313.796	127.49
314.009	0.51
314.223	139.77
314.437	16.9
314.651	41.47
314.864	-13.82
315.078	20.99
315.292	-95.74
315.505	-13.82
315.719	74.24
315.933	33.28
316.146	-28.16
316.36	-81.41
316.573	100.86
316.787	135.68
317.001	82.43
317.214	-24.06
317.428	37.38
317.641	-34.3
317.855	-40.45
318.068	33.28
318.282	49.66
318.495	207.36
318.709	84.48
318.922	78.33
319.136	139.77
319.349	131.58
319.563	16.9
319.776	74.24
319.99	-17.92
320.203	117.25
320.417	29.18
320.63	74.24
320.843	119.29
321.057	-32.26
321.27	14.85
321.483	-65.02
321.697	98.81
321.91	47.62
322.124	-28.16
322.337	27.14
322.55	-75.26
322.763	41.47
322.977	8.7
323.19	41.47
323.403	74.24
323.617	8.7
323.83	68.09
324.043	25.09
324.256	35.33
324.469	-81.41
324.683	133.63
324.896	33.28
325.109	96.77
325.322	14.85
325.535	84.48
325.748	117.25
325.962	76.29
326.175	72.19
326.388	47.62
326.601	117.25
326.814	35.33
327.027	100.86
327.24	119.29
327.453	-99.84
327.666	6.66
327.879	33.28
328.092	43.52
328.305	100.86
328.518	41.47
328.731	-81.41
328.944	-1.54
329.157	102.91
329.37	-13.82
329.583	174.59
329.796	125.44
330.009	-67.07
330.222	27.14
330.435	102.91
330.648	-19.97
330.861	76.29
331.073	-54.78
331.286	94.72
331.499	64
331.712	8.7
331.925	66.05
332.138	37.38
332.35	90.62
332.563	-24.06
332.776	115.2
332.989	10.75
333.202	-69.12
333.414	51.71
333.627	4.61
333.84	-28.16
334.053	37.38
334.265	20.99
334.478	10.75
334.691	43.52
334.903	12.8
335.116	-75.26
335.329	70.14
335.541	70.14
335.754	96.77
335.966	10.75
336.179	29.18
336.392	14.85
336.604	74.24
336.817	96.77
337.029	37.38
337.242	-32.26
337.454	2.56
337.667	10.75
337.88	131.58
338.092	51.71
338.305	135.68
338.517	10.75
338.729	94.72
338.942	164.35
339.154	-7.68
339.367	-56.83
339.579	-36.35
339.792	-40.45
340.004	59.9
340.217	10.75
340.429	-42.5
340.641	-9.73
340.854	-40.45
341.066	-112.13
341.278	61.95
341.491	119.29
341.703	12.8
341.915	-5.63
342.128	35.33
342.34	-22.02
342.552	-15.87
342.764	64
342.977	-13.82
343.189	41.47
343.401	66.05
343.613	-38.4
343.826	33.28
344.038	25.09
344.25	-9.73
344.462	0.51
344.674	33.28
344.886	29.18
345.099	64
345.311	64
345.523	-1.54
345.735	-89.6
345.947	41.47
346.159	35.33
346.371	23.04
346.583	-46.59
346.795	123.39
347.007	70.14
347.219	8.7
347.431	-32.26
347.643	84.48
347.855	31.23
348.067	70.14
348.279	104.96
348.491	29.18
348.703	74.24
348.915	-40.45
349.127	-65.02
349.339	117.25
349.551	29.18
349.763	43.52
349.975	41.47
350.187	139.77
350.399	205.31
350.61	33.28
350.822	78.33
351.034	31.23
351.246	72.19
351.458	61.95
351.669	8.7
351.881	72.19
352.093	109.05
352.305	47.62
352.517	66.05
352.728	94.72
352.94	49.66
353.152	25.09
353.363	4.61
353.575	61.95
353.787	109.05
353.999	94.72
354.21	152.06
354.422	-30.21
354.633	64
354.845	20.99
355.057	86.53
355.268	61.95
355.48	150.01
355.692	-71.17
355.903	6.66
356.115	-67.07
356.326	-91.65
356.538	84.48
356.749	29.18
356.961	137.73
357.172	-28.16
357.384	-93.69
357.595	182.78
357.807	8.7
358.018	59.9
358.23	-3.58
358.441	141.82
358.653	100.86
358.864	80.38
359.075	-24.06
359.287	96.77
359.498	96.77
359.709	70.14
359.921	119.29
360.132	47.62
360.344	-71.17
360.555	-38.4
360.766	-7.68
360.977	-9.73
361.189	121.34
361.4	27.14
361.611	92.67
361.823	53.76
362.034	23.04
362.245	-65.02
362.456	-56.83
362.667	92.67
362.879	-40.45
363.09	57.86
363.301	39.42
363.512	37.38
363.723	0.51
363.935	37.38
364.146	137.73
364.357	37.38
364.568	104.96
364.779	-30.21
364.99	117.25
365.201	-24.06
365.412	20.99
365.623	-67.07
365.834	84.48
366.045	94.72
366.256	23.04
366.467	82.43
366.678	27.14
366.889	37.38
367.1	-11.78
367.311	94.72
367.522	25.09
367.733	29.18
367.944	117.25
368.155	-9.73
368.366	45.57
368.577	90.62
368.788	82.43
368.999	25.09
369.209	18.94
369.42	166.4
369.631	199.16
369.842	61.95
370.053	-32.26
370.264	51.71
370.474	-71.17
370.685	35.33
370.896	14.85
371.107	43.52
371.317	70.14
371.528	53.76
371.739	107.01
371.95	16.9
372.16	-3.58
372.371	-5.63
372.582	6.66
372.792	39.42
373.003	10.75
373.214	37.38
373.424	98.81
373.635	-48.64
373.846	102.91
374.056	61.95
374.267	74.24
374.477	150.01
374.688	-1.54
374.898	2.56
375.109	45.57
375.319	-28.16
375.53	119.29
375.74	152.06
375.951	0.51
376.161	109.05
376.372	102.91
376.582	-40.45
376.793	53.76
377.003	-50.69
377.214	-3.58
377.424	74.24
377.635	72.19
377.845	-48.64
378.055	107.01
378.266	-77.31
378.476	-17.92
378.686	14.85
378.897	2.56
379.107	41.47
379.317	94.72
379.528	23.04
379.738	51.71
379.948	-40.45
380.158	147.97
380.369	33.28
380.579	90.62
380.789	51.71
380.999	57.86
381.21	68.09
381.42	203.26
381.63	2.56
381.84	39.42
382.05	39.42
382.261	96.77
382.471	102.91
382.681	-93.69
382.891	186.88
383.101	8.7
383.311	0.51
383.521	-40.45
383.731	76.29
383.941	76.29
384.151	84.48
384.361	45.57
384.571	0.51
384.781	70.14
384.991	158.21
385.201	98.81
385.411	53.76
385.621	78.33
385.831	16.9
386.041	94.72
386.251	29.18
386.461	127.49
386.671	45.57
386.881	43.52
387.091	43.52
387.301	100.86
387.511	29.18
387.72	80.38
387.93	172.54
388.14	-110.08
388.35	78.33
388.56	137.73
388.769	80.38
388.979	27.14
389.189	-22.02
389.399	33.28
389.609	94.72
389.818	35.33
390.028	125.44
390.238	102.91
390.447	-75.26
390.657	107.01
390.867	-32.26
391.076	-148.99
391.286	107.01
391.496	51.71
391.705	-19.97
391.915	195.07
392.125	125.44
392.334	72.19
392.544	182.78
392.753	-7.68
392.963	-34.3
393.172	39.42
393.382	-19.97
393.591	166.4
393.801	-1.54
394.01	57.86
394.22	25.09
394.429	-1.54
394.639	33.28
394.848	145.92
395.058	55.81
395.267	43.52
395.477	68.09
395.686	53.76
395.895	184.83
396.105	178.69
396.314	10.75
396.524	33.28
396.733	-38.4
396.942	170.49
397.152	102.91
397.361	121.34
397.57	16.9
397.78	121.34
397.989	33.28
398.198	231.93
398.407	-54.78
398.617	-5.63
398.826	27.14
399.035	16.9
399.244	96.77
399.453	53.76
399.663	76.29
399.872	-5.63
400.081	-13.82
400.29	147.97
400.499	-69.12
400.708	104.96
400.917	43.52
401.127	16.9
401.336	12.8
401.545	180.73
401.754	41.47
401.963	107.01
402.172	27.14
402.381	-28.16
402.59	-15.87
402.799	-28.16
403.008	66.05
403.217	35.33
403.426	78.33
403.635	-87.55
403.844	14.85
404.053	-32.26
404.262	-13.82
404.471	147.97
404.68	-3.58
404.888	-46.59
405.097	12.8
405.306	80.38
405.515	111.1
405.724	49.66
405.933	127.49
406.142	57.86
406.35	135.68
406.559	-32.26
406.768	123.39
406.977	156.16
407.185	109.05
407.394	94.72
407.603	-40.45
407.812	51.71
408.02	201.21
408.229	35.33
408.438	47.62
408.646	-48.64
408.855	18.94
409.064	51.71
409.272	-28.16
409.481	107.01
409.69	49.66
409.898	-15.87
410.107	14.85
410.315	98.81
410.524	-34.3
410.733	-50.69
410.941	29.18
411.15	131.58
411.358	133.63
411.567	123.39
411.775	31.23
411.984	6.66
412.192	57.86
412.401	33.28
412.609	139.77
412.818	147.97
413.026	-38.4
413.234	76.29
413.443	92.67
413.651	-58.88
413.86	-7.68
414.068	176.64
414.276	107.01
414.485	-36.35
414.693	143.87
414.901	147.97
415.11	86.53
415.318	47.62
415.526	43.52
415.734	115.2
415.943	68.09
416.151	100.86
416.359	37.38
416.567	-28.16
416.776	100.86
416.984	39.42
417.192	195.07
417.4	31.23
417.608	-30.21
417.817	-7.68
418.025	82.43
418.233	117.25
418.441	-36.35
418.649	6.66
418.857	80.38
419.065	94.72
419.273	45.57
419.481	29.18
419.689	20.99
419.897	47.62
420.105	-167.42
420.313	76.29
420.521	125.44
420.729	127.49
420.937	-67.07
421.145	-103.93
421.353	107.01
421.561	96.77
421.769	51.71
421.977	-46.59
422.185	86.53
422.393	115.2
422.601	31.23
422.809	61.95
423.017	88.57
423.224	25.09
423.432	51.71
423.64	12.8
423.848	107.01
424.056	-40.45
424.263	100.86
424.471	39.42
424.679	76.29
424.887	-26.11
425.094	125.44
425.302	61.95
425.51	10.75
425.718	90.62
425.925	64
426.133	-36.35
426.341	170.49
426.548	2.56
426.756	53.76
426.964	84.48
427.171	-77.31
427.379	86.53
427.586	6.66
427.794	55.81
428.001	98.81
428.209	59.9
428.417	88.57
428.624	59.9
428.832	-11.78
429.039	37.38
429.247	147.97
429.454	145.92
429.662	197.12
429.869	55.81
430.076	33.28
430.284	104.96
430.491	135.68
430.699	82.43
430.906	123.39
431.114	111.1
431.321	172.54
431.528	31.23
431.736	45.57
431.943	61.95
432.15	176.64
432.358	84.48
432.565	205.31
432.772	29.18
432.979	152.06
433.187	113.15
433.394	121.34
433.601	70.14
433.808	131.58
434.016	174.59
434.223	180.73
434.43	33.28
434.637	231.93
434.844	162.3
435.052	143.87
435.259	135.68
435.466	150.01
435.673	92.67
435.88	154.11
436.087	180.73
436.294	215.55
436.501	240.12
436.708	197.12
436.915	139.77
437.122	236.03
437.329	203.26
437.537	123.39
437.743	217.6
437.95	311.8
438.157	184.83
438.364	176.64
438.571	209.4
438.778	242.17
438.985	190.97
439.192	260.6
439.399	238.08
439.606	264.7
439.813	262.65
440.02	479.74
440.227	481.78
440.433	350.71
440.64	340.47
440.847	328.19
441.054	346.62
441.261	479.74
441.467	338.43
441.674	272.89
441.881	399.87
442.088	365.05
442.294	438.78
442.501	395.77
442.708	627.19
442.914	334.33
443.121	500.22
443.328	524.79
443.534	578.04
443.741	520.7
443.948	346.62
444.154	565.75
444.361	678.39
444.568	584.18
444.774	592.37
444.981	565.75
445.187	782.84
445.394	637.43
445.6	608.76
445.807	799.22
446.013	627.19
446.22	651.77
446.426	807.41
446.633	866.8
446.839	930.29
447.046	801.27
447.252	940.53
447.459	907.76
447.665	954.87
447.871	1049.07
448.078	1145.33
448.284	1124.85
448.491	1133.04
448.697	1180.14
448.903	1219.05
449.11	1276.4
449.316	1200.62
449.522	1352.17
449.728	1470.95
449.935	1450.47
450.141	1415.66
450.347	1516.01
450.553	1522.15
450.76	1573.35
450.966	1663.46
451.172	1731.05
451.378	1843.68
451.584	1804.77
451.791	1982.95
451.997	2021.86
452.203	2001.38
452.409	2157.02
452.615	2218.46
452.821	2085.34
453.027	2013.67
453.233	2517.47
453.44	2466.27
453.646	2527.71
453.852	2683.35
454.058	2496.99
454.264	2810.33
454.47	2978.26
454.676	3015.12
454.882	3350.99
455.088	3142.1
455.294	3273.17
455.5	3527.11
455.705	3676.62
455.911	3760.58
456.117	3746.25
456.323	3946.95
456.529	3946.95
456.735	4360.64
456.941	4454.84
457.147	4579.77
457.352	4602.3
457.558	4698.55
457.764	5036.47
457.97	5210.54
458.176	5491.12
458.381	5671.34
458.587	5935.53
458.793	6134.18
458.999	6107.55
459.204	6830.49
459.41	6971.8
459.616	6875.54
459.821	7444.88
460.027	7807.37
460.233	8065.41
460.438	8176
460.644	8634.75
460.85	8540.54
461.055	8929.66
461.261	9408.88
461.466	9156.98
461.672	9216.37
461.878	10381.67
462.083	10342.75
462.289	10623.33
462.494	11178.33
462.7	11221.33
462.905	11305.3
463.111	12151.11
463.316	12671.29
463.522	13070.65
463.727	13531.44
463.932	13764.91
464.138	14397.73
464.343	14903.58
464.549	14919.96
464.754	15714.58
464.959	16576.77
465.165	16613.63
465.37	16802.05
465.575	16591.11
465.781	17742.07
465.986	18462.95
466.191	18428.13
466.397	18481.38
466.602	18008.3
466.807	19126.49
467.012	19142.88
467.218	19355.86
467.423	19658.96
467.628	20240.59
467.833	21166.27
468.038	21031.1
468.244	20635.85
468.449	21606.58
468.654	21149.89
468.859	21047.49
469.064	21416.12
469.269	20732.1
469.474	20805.83
469.679	21409.98
469.885	20811.97
470.09	21119.17
470.295	21393.59
470.5	20865.22
470.705	20889.79
470.91	20218.06
471.115	20158.67
471.32	20453.58
471.525	20308.17
471.73	19929.3
471.935	20033.74
472.139	19087.58
472.344	19157.21
472.549	18794.72
472.754	18411.75
472.959	18063.6
473.164	17641.71
473.369	17475.83
473.574	17866.99
473.778	17447.16
473.983	16994.56
474.188	16974.08
474.393	15986.96
474.598	15829.26
474.802	15423.76
475.007	15509.78
475.212	15352.09
475.417	14545.19
475.621	14666.02
475.826	14424.36
476.031	14014.76
476.235	13750.57
476.44	13613.36
476.645	13470
476.849	13084.98
477.054	12872
477.259	12708.16
477.463	12542.27
477.668	12532.03
477.872	12286.28
478.077	11962.7
478.282	11643.21
478.486	11573.58
478.691	11221.33
478.895	11102.55
479.1	11125.08
479.304	11434.32
479.509	10649.95
479.713	11071.83
479.918	10641.76
480.122	10498.4
480.326	10451.3
480.531	10656.09
480.735	10355.04
480.94	10168.68
481.144	10842.46
481.348	9922.92
481.553	9910.63
481.757	9507.18
481.961	10013.03
482.166	9863.53
482.37	9783.66
482.574	9329.01
482.778	9482.61
482.983	9836.91
483.187	9245.04
483.391	9423.22
483.595	9171.32
483.8	8997.24
484.004	9161.08
484.208	9173.36
484.412	9032.05
484.616	9036.15
484.821	8761.72
485.025	8489.34
485.229	8440.19
485.433	8403.33
485.637	8251.78
485.841	8239.49
486.045	7960.97
486.249	8081.8
486.453	7833.99
486.657	7819.66
486.861	7668.11
487.065	7428.49
487.269	7506.32
487.473	7158.16
487.677	7360.91
487.881	7258.51
488.085	6975.89
488.289	7023
488.493	6728.09
488.697	6758.81
488.901	6668.7
489.105	6300.06
489.309	6431.13
489.512	6220.19
489.716	6162.85
489.92	5974.44
490.124	5833.13
490.328	5949.86
490.531	5697.96
490.735	5831.08
490.939	5710.25
491.143	5339.57
491.346	5294.51
491.55	5208.5
491.754	5214.64
491.958	5196.21
492.161	4909.49
492.365	4895.16
492.569	4862.39
492.772	4626.87
492.976	4747.7
493.18	4587.96
493.383	4628.92
493.587	4585.91
493.79	4487.61
493.994	4211.14
494.197	4334.01
494.401	4362.69
494.605	4260.29
494.808	4241.86
495.012	4188.61
495.215	4176.32
495.419	4313.53
495.622	4080.07
495.825	4006.34
496.029	4078.02
496.232	4116.93
496.436	3924.42
496.639	4082.11
496.843	3803.59
497.046	3920.32
497.249	3975.62
497.453	4049.35
497.656	4004.29
497.859	3985.86
498.063	3889.6
498.266	4051.39
498.469	3920.32
498.673	3844.55
498.876	4024.77
499.079	3981.76
499.282	3961.28
499.485	4379.07
499.689	4043.2
499.892	4250.05
500.095	3979.72
500.298	4090.31
500.501	3920.32
500.705	4258.24
500.908	4204.99
501.111	4129.22
501.314	4469.18
501.517	4471.23
501.72	4233.66
501.923	4319.68
502.126	4374.97
502.329	4473.28
502.532	4446.65
502.735	4585.91
502.938	4708.79
503.141	4714.94
503.344	4608.44
503.547	4800.95
503.75	4735.42
503.953	4749.75
504.156	5005.75
504.359	4905.4
504.562	4866.49
504.765	5190.06
504.968	5118.39
505.17	5212.59
505.373	5355.95
505.576	5368.24
505.779	5403.05
505.982	5380.53
506.185	5671.34
506.387	5734.82
506.59	5837.22
506.793	5900.71
506.996	6080.93
507.198	6384.03
507.401	6328.74
507.604	6424.99
507.807	6558.11
508.009	6652.31
508.212	6691.23
508.415	6850.97
508.617	7035.28
508.82	7254.42
509.022	7109.01
509.225	7342.48
509.428	7692.68
509.63	7598.48
509.833	7807.37
510.035	8212.87
510.238	8284.55
510.44	8466.81
510.643	8771.96
510.845	8974.71
511.048	9093.49
511.25	9208.18
511.453	9382.26
511.655	9759.08
511.858	9779.56
512.06	10043.75
512.262	10303.84
512.465	10289.51
512.667	10658.14
512.87	10951
513.072	11469.14
513.274	11446.61
513.477	11639.12
513.679	12022.09
513.881	12394.82
514.084	12689.73
514.286	12779.84
514.488	13125.94
514.69	13320.5
514.893	13648.18
515.095	13867.31
515.297	14156.07
515.499	14643.49
515.701	14647.58
515.904	15091.99
516.106	15528.21
516.308	15862.03
516.51	16214.28
516.712	16095.5
516.914	16578.82
517.116	17246.46
517.318	17709.3
517.52	17864.94
517.722	18305.26
517.925	18499.81
518.127	18909.41
518.329	19187.93
518.531	19351.77
518.733	20140.24
518.935	20322.51
519.136	20605.13
519.338	20918.46
519.54	21108.93
519.742	21676.21
519.944	21901.49
520.146	22624.42
520.348	22689.96
520.55	22814.88
520.752	23185.57
520.954	23759
521.155	23650.46
521.357	24199.31
521.559	24666.25
521.761	24871.04
521.963	24957.06
522.164	25614.46
522.366	25755.77
522.568	25704.57
522.77	26148.98
522.971	26753.13
523.173	26329.2
523.375	26949.73
523.576	26484.84
523.778	27170.91
523.98	27388
524.181	27547.74
524.383	27543.64
524.584	27967.57
524.786	27547.74
524.988	27830.36
525.189	28264.53
525.391	28280.91
525.592	28186.71
525.794	28309.58
525.995	28125.27
526.197	27969.62
526.398	28500.05
526.6	28375.12
526.801	28282.96
527.003	28244.05
527.204	28205.14
527.406	28119.12
527.607	28084.31
527.808	28289.1
528.01	27455.58
528.211	27680.86
528.412	27899.99
528.614	27826.26
528.815	27400.29
529.016	27416.67
529.218	26925.16
529.419	26929.25
529.62	26896.49
529.822	26298.48
530.023	26034.29
530.224	25995.38
530.425	25624.7
530.626	25282.69
530.828	24750.21
531.029	25391.23
531.23	24858.76
531.431	24039.57
531.632	24422.54
531.833	24189.07
532.035	23679.13
532.236	23578.78
532.437	23240.86
532.638	22821.03
532.839	22622.37
533.04	22632.61
533.241	22018.22
533.442	22323.37
533.643	21657.78
533.844	21223.61
534.045	20746.44
534.246	20693.19
534.447	20658.37
534.648	20328.65
534.849	20127.95
535.05	19896.53
535.251	19372.25
535.451	19210.46
535.652	19171.55
535.853	18514.15
536.054	18399.46
536.255	18596.07
536.456	17846.51
536.657	18020.59
536.857	17414.39
537.058	17234.17
537.259	17240.31
537.46	17027.32
537.66	16697.6
537.861	16470.28
538.062	16298.25
538.263	16181.51
538.463	15747.34
538.664	15603.99
538.865	15337.75
539.065	15368.47
539.266	14919.96
539.466	14895.39
539.667	14397.73
539.868	14618.91
540.068	14592.29
540.269	14068.01
540.469	14070.06
540.67	13834.54
540.87	13697.33
541.071	13314.36
541.271	13627.7
541.472	13240.63
541.672	12998.97
541.873	12894.52
542.073	12597.57
542.274	12687.68
542.474	12591.42
542.675	12499.27
542.875	12233.03
543.075	11970.89
543.276	11964.75
543.476	11905.35
543.676	11757.9
543.877	11442.51
544.077	11651.41
544.277	11354.45
544.478	11004.25
544.678	11022.68
544.878	10932.57
545.078	10930.52
545.279	10578.27
545.479	10588.51
545.679	10361.19
545.879	10238.31
546.079	10379.62
546.28	9961.83
546.48	9814.38
546.68	10072.42
546.88	9689.45
547.08	9826.67
547.28	9546.09
547.48	9232.76
547.68	9470.32
547.88	9130.36
548.081	9171.32
548.281	9003.38
548.481	8681.85
548.681	8833.4
548.881	8788.35
549.081	8528.25
549.28	8614.27
549.48	8296.83
549.68	8253.83
549.88	8350.08
550.08	8001.93
550.28	7952.77
550.48	7858.57
550.68	7639.44
550.88	7528.85
551.08	7487.89
551.279	7655.82
551.479	7377.3
551.679	7119.25
551.879	7072.15
552.079	6824.34
552.278	6756.76
552.478	6820.25
552.678	6697.37
552.878	6658.46
553.077	6351.26
553.277	6283.68
553.477	6392.22
553.676	6142.37
553.876	6146.47
554.076	6076.84
554.275	6054.31
554.475	5710.25
554.674	5869.99
554.874	5669.29
555.074	5484.97
555.273	5497.26
555.473	5523.88
555.672	5061.04
555.872	5218.74
556.071	5102
556.271	5149.11
556.47	4880.82
556.67	4719.03
556.869	4936.12
557.068	4657.59
557.268	4667.83
557.467	4571.58
557.667	4547
557.866	4436.41
558.065	4252.1
558.265	4139.46
558.464	4151.74
558.663	4219.33
558.863	4018.63
559.062	4006.34
559.261	3912.13
559.461	4008.39
559.66	3799.49
559.859	3617.22
560.058	3506.63
560.258	3469.77
560.457	3668.42
560.656	3639.75
560.855	3445.2
561.054	3445.2
561.253	3350.99
561.453	3271.12
561.652	3303.89
561.851	3234.25
562.05	3025.36
562.249	2959.83
562.448	3101.14
562.647	2849.24
562.846	2994.64
563.045	3023.31
563.244	2953.68
563.443	2828.76
563.642	2677.21
563.841	2742.74
564.04	2644.44
564.239	2752.98
564.438	2671.06
564.637	2468.31
564.836	2441.69
565.035	2474.46
565.234	2451.93
565.432	2312.67
565.631	2367.96
565.83	2292.19
566.029	2247.13
566.228	2175.45
566.427	2294.24
566.625	2146.78
566.824	2116.06
567.023	2130.4
567.222	2114.02
567.42	2122.21
567.619	2066.91
567.818	1984.99
568.016	2062.82
568.215	2005.47
568.414	2023.91
568.612	1921.51
568.811	1954.27
569.01	1817.06
569.208	1774.05
569.407	1804.77
569.605	1835.49
569.804	1712.61
570.002	1749.48
570.201	1729
570.4	1704.42
570.598	1530.34
570.797	1712.61
570.995	1442.28
571.193	1540.58
571.392	1452.52
571.59	1485.29
571.789	1538.54
571.987	1522.15
572.186	1497.58
572.384	1395.18
572.582	1348.08
572.781	1393.13
572.979	1282.54
573.177	1311.21
573.376	1386.99
573.574	1327.6
573.772	1212.91
573.971	1065.46
574.169	1120.75
574.367	1163.76
574.565	1176.05
574.763	1161.71
574.962	1120.75
575.16	1040.88
575.358	1028.59
575.556	1141.23
575.754	1020.4
575.952	1085.94
576.151	1110.51
576.349	1198.57
576.547	879.09
576.745	1059.31
576.943	926.19
577.141	899.57
577.339	805.36
577.537	858.61
577.735	899.57
577.933	864.75
578.131	870.9
578.329	1008.11
578.527	729.59
578.725	893.43
578.923	733.68
579.121	891.38
579.319	676.34
579.516	608.76
579.714	940.53
579.912	705.01
580.11	700.92
580.308	741.88
580.506	700.92
580.704	573.94
580.901	621.05
581.099	733.68
581.297	709.11
581.495	682.49
581.692	678.39
581.89	811.51
582.088	590.33
582.285	659.96
582.483	631.29
582.681	621.05
582.878	545.27
583.076	563.7
583.274	602.61
583.471	690.68
583.669	549.37
583.866	547.32
584.064	471.54
584.262	434.68
584.459	485.88
584.657	477.69
584.854	535.03
585.052	532.98
585.249	541.18
585.447	510.46
585.644	360.95
585.841	584.18
586.039	537.08
586.236	520.7
586.434	428.54
586.631	383.48
586.828	436.73
587.026	422.39
587.223	356.86
587.42	367.1
587.618	446.97
587.815	459.26
588.012	416.25
588.21	365.05
588.407	430.59
588.604	446.97
588.801	371.19
588.999	307.71
589.196	414.2
589.393	375.29
589.59	438.78
589.787	385.53
589.984	371.19
590.182	440.83
590.379	270.84
590.576	291.32
590.773	307.71
590.97	393.72
591.167	393.72
591.364	422.39
591.561	301.56
591.758	426.49
591.955	352.76
592.152	320
592.349	352.76
592.546	311.8
592.743	297.47
592.94	338.43
593.137	381.43
593.334	369.15
593.531	289.28
593.727	356.86
593.924	309.76
594.121	385.53
594.318	356.86
594.515	436.73
594.712	477.69
594.908	483.83
595.105	236.03
595.302	381.43
595.499	406.01
595.696	467.45
595.892	414.2
596.089	561.66
596.286	330.23
596.482	516.6
596.679	442.87
596.876	360.95
597.072	477.69
597.269	393.72
597.466	477.69
597.662	414.2
597.859	395.77
598.055	489.98
598.252	545.27
598.448	555.51
598.645	668.15
598.841	555.51
599.038	709.11
599.234	709.11
599.431	627.19
599.627	686.58
599.824	676.34
600.02	698.87
600.217	635.38
600.413	694.77
600.609	733.68
600.806	1018.35
601.002	811.51
601.198	778.74
601.395	1014.26
601.591	879.09
601.787	969.2
601.984	1028.59
602.18	1075.7
602.376	981.49
602.572	1161.71
602.769	1194.48
602.965	1155.57
603.161	1294.83
603.357	1257.96
603.553	1384.94
603.75	1331.69
603.946	1438.19
604.142	1386.99
604.338	1622.5
604.534	1425.9
604.73	1585.64
604.926	1591.78
605.122	1688.04
605.318	1735.14
605.514	1788.39
605.71	1806.82
605.906	2054.62
606.102	1956.32
606.298	2105.82
606.494	2126.3
606.69	2232.8
606.886	2111.97
607.082	2359.77
607.278	2251.23
607.474	2308.57
607.67	2425.31
607.866	2343.39
608.062	2515.42
608.257	2734.55
608.453	2619.86
608.649	2814.42
608.845	2800.09
609.041	2841.04
609.236	3017.17
609.432	3076.56
609.628	3215.82
609.824	3258.83
610.019	3203.54
610.215	3299.79
610.411	3520.97
610.606	3742.15
610.802	3649.99
610.998	3766.73
611.193	4020.67
611.389	3903.94
611.584	4200.9
611.78	4047.3
611.976	4270.53
612.171	4544.95
612.367	4489.66
612.562	4594.11
612.758	4585.91
612.953	4766.14
613.149	4874.68
613.344	4919.73
613.539	5075.38
613.735	5276.08
613.93	5501.36
614.126	5589.42
614.321	5931.43
614.517	5857.7
614.712	6052.26
614.907	6181.28
615.103	6402.46
615.298	6390.17
615.493	6670.75
615.688	6547.87
615.884	7162.26
616.079	6918.55
616.274	7176.59
616.47	7389.58
616.665	7737.74
616.86	7881.1
617.055	7852.42
617.25	8307.07
617.445	8544.64
617.641	8505.73
617.836	8890.74
618.031	8802.68
618.226	9390.45
618.421	9519.47
618.616	9703.79
618.811	10107.24
619.006	10330.47
619.201	10525.02
619.396	10781.02
619.591	10840.41
619.786	11278.68
619.981	11125.08
620.176	11704.65
620.371	12065.1
620.566	11942.22
620.761	12214.6
620.956	12650.81
621.151	12810.56
621.346	13031.74
621.541	12880.19
621.735	13807.92
621.93	13517.11
622.125	13824.3
622.32	14014.76
622.515	14465.32
622.709	14659.87
622.904	15112.47
623.099	15075.61
623.294	15505.68
623.488	15745.3
623.683	16048.4
623.878	16054.54
624.072	16673.03
624.267	16830.72
624.462	16904.45
624.656	17064.19
624.851	17639.67
625.046	17774.83
625.24	18168.04
625.435	18151.66
625.629	18587.88
625.824	18856.16
626.018	19210.46
626.213	19130.59
626.407	19538.13
626.602	19656.92
626.796	20152.52
626.991	20228.3
627.185	20109.52
627.38	20359.37
627.574	20652.23
627.768	20699.33
627.963	20885.7
628.157	20539.59
628.352	20838.59
628.546	20584.65
628.74	21469.37
628.935	20994.24
629.129	20760.77
629.323	20717.76
629.517	20994.24
629.712	20545.73
629.906	20572.36
630.1	20115.66
630.294	20390.09
630.489	19826.9
630.683	19818.71
630.877	19298.52
631.071	19007.71
631.265	18839.78
631.459	18419.94
631.653	18198.76
631.848	17869.04
632.042	17285.37
632.236	16781.57
632.43	16527.62
632.624	16191.75
632.818	15694.1
633.012	15229.21
633.206	14614.82
633.4	14295.33
633.594	13580.59
633.788	13404.47
633.982	12882.24
634.176	12640.58
634.369	12122.44
634.563	11706.7
634.757	11202.9
634.951	10883.42
635.145	10404.19
635.339	9890.15
635.533	9505.13
635.726	9390.45
635.92	8821.11
636.114	8421.76
636.308	7936.39
636.501	7707.02
636.695	7362.96
636.889	6973.85
637.083	6789.53
637.276	6588.83
637.47	6363.55
637.664	6017.44
637.857	5869.99
638.051	5642.67
638.244	5503.4
638.438	5188.02
638.632	5009.84
638.825	4495.8
639.019	4512.19
639.212	4297.15
639.406	4243.9
639.599	3959.24
639.793	3889.6
639.986	3680.71
640.18	3592.65
640.373	3416.52
640.567	3377.61
640.76	3154.38
640.954	3033.55
641.147	2908.63
641.34	2834.9
641.534	2687.45
641.727	2712.02
641.92	2462.17
642.114	2462.17
642.307	2355.68
642.5	2271.71
642.694	2128.35
642.887	2179.55
643.08	2087.39
643.273	2017.76
643.467	1716.71
643.66	1808.87
643.853	1706.47
644.046	1718.76
644.239	1593.83
644.432	1415.66
644.626	1329.64
644.819	1505.77
645.012	1268.2
645.205	1409.51
645.398	1288.68
645.591	1223.15
645.784	954.87
645.977	979.44
646.17	1065.46
646.363	1034.74
646.556	918
646.749	877.04
646.942	993.78
647.135	1016.3
647.328	887.28
647.521	834.04
647.714	772.6
647.907	858.61
648.099	748.02
648.292	745.97
648.485	758.26
648.678	647.67
648.871	614.9
649.064	631.29
649.256	555.51
649.449	506.36
649.642	420.35
649.835	504.31
650.027	446.97
650.22	563.7
650.413	430.59
650.605	508.41
650.798	432.63
650.991	479.74
651.183	430.59
651.376	408.06
651.568	414.2
651.761	260.6
651.954	315.9
652.146	276.99
652.339	406.01
652.531	428.54
652.724	270.84
652.916	272.89
653.109	178.69
653.301	344.57
653.494	287.23
653.686	295.42
653.879	358.91
654.071	311.8
654.263	246.27
654.456	279.04
654.648	270.84
654.84	201.21
655.033	264.7
655.225	377.34
655.417	43.52
655.61	336.38
655.802	317.95
655.994	285.18
656.186	80.38
656.379	223.74
656.571	98.81
656.763	76.29
656.955	145.92
657.148	152.06
657.34	211.45
657.532	193.02
657.724	168.45
657.916	227.84
658.108	299.52
658.3	211.45
658.492	215.55
658.684	68.09
658.876	178.69
659.068	100.86
659.26	59.9
659.452	39.42
659.644	150.01
659.836	170.49
660.028	133.63
660.22	82.43
660.412	162.3
660.604	127.49
660.796	154.11
660.988	250.36
661.18	104.96
661.372	217.6
661.563	156.16
661.755	231.93
661.947	41.47
662.139	113.15
662.331	84.48
662.522	133.63
662.714	94.72
662.906	76.29
663.097	162.3
663.289	80.38
663.481	-3.58
663.673	123.39
663.864	119.29
664.056	131.58
664.247	111.1
664.439	172.54
664.631	53.76
664.822	172.54
665.014	55.81
665.205	74.24
665.397	133.63
665.588	102.91
665.78	16.9
665.971	78.33
666.163	41.47
666.354	174.59
666.546	68.09
666.737	107.01
666.929	90.62
667.12	117.25
667.311	176.64
667.503	100.86
667.694	143.87
667.885	92.67
668.077	141.82
668.268	12.8
668.459	186.88
668.651	135.68
668.842	109.05
669.033	49.66
669.224	4.61
669.416	264.7
669.607	164.35
669.798	10.75
669.989	152.06
670.18	113.15
670.371	57.86
670.563	74.24
670.754	182.78
670.945	195.07
671.136	133.63
671.327	12.8
671.518	166.4
671.709	184.83
671.9	111.1
672.091	250.36
672.282	14.85
672.473	137.73
672.664	23.04
672.855	51.71
673.046	111.1
673.237	160.25
673.428	84.48
673.619	119.29
673.809	51.71
674	219.64
674.191	84.48
674.382	20.99
674.573	158.21
674.764	80.38
674.954	260.6
675.145	-15.87
675.336	113.15
675.527	98.81
675.717	84.48
675.908	109.05
676.099	80.38
676.289	160.25
676.48	47.62
676.671	227.84
676.861	113.15
677.052	141.82
677.243	152.06
677.433	76.29
677.624	219.64
677.814	162.3
678.005	88.57
678.195	227.84
678.386	117.25
678.576	111.1
678.767	117.25
678.957	119.29
679.148	197.12
679.338	195.07
679.529	152.06
679.719	104.96
679.909	246.27
680.1	150.01
680.29	215.55
680.481	78.33
680.671	188.93
680.861	182.78
681.052	199.16
681.242	172.54
681.432	201.21
681.622	158.21
681.813	92.67
682.003	193.02
682.193	86.53
682.383	141.82
682.573	92.67
682.764	109.05
682.954	176.64
683.144	178.69
683.334	215.55
683.524	119.29
683.714	205.31
683.904	182.78
684.094	104.96
684.284	150.01
684.474	262.65
684.664	154.11
684.854	174.59
685.044	186.88
685.234	197.12
685.424	219.64
685.614	180.73
685.804	336.38
685.994	252.41
686.184	123.39
686.374	190.97
686.564	141.82
686.753	242.17
686.943	152.06
687.133	233.98
687.323	213.5
687.513	270.84
687.702	188.93
687.892	152.06
688.082	254.46
688.272	254.46
688.461	147.97
688.651	354.81
688.841	209.4
689.03	143.87
689.22	143.87
689.41	231.93
689.599	129.53
689.789	211.45
689.979	299.52
690.168	184.83
690.358	176.64
690.547	244.22
690.737	172.54
690.926	274.94
691.116	256.51
691.305	201.21
691.495	291.32
691.684	160.25
691.874	156.16
692.063	178.69
692.252	190.97
692.442	334.33
692.631	145.92
692.82	164.35
693.01	233.98
693.199	166.4
693.388	186.88
693.578	96.77
693.767	256.51
693.956	188.93
694.146	107.01
694.335	231.93
694.524	133.63
694.713	262.65
694.902	104.96
695.092	162.3
695.281	217.6
695.47	90.62
695.659	180.73
695.848	158.21
696.037	127.49
696.226	227.84
696.415	154.11
696.604	330.23
696.793	231.93
696.982	135.68
697.171	244.22
697.36	57.86
697.549	201.21
697.738	78.33
697.927	176.64
698.116	145.92
698.305	252.41
698.494	147.97
698.683	129.53
698.872	348.67
699.061	145.92
699.25	162.3
699.438	127.49
699.627	152.06
699.816	344.57
700.005	119.29
700.193	94.72
700.382	207.36
700.571	109.05
700.76	201.21
700.948	219.64
701.137	238.08
701.326	256.51
701.514	109.05
701.703	170.49
701.892	123.39
702.08	373.24
702.269	147.97
702.457	57.86
702.646	117.25
702.834	127.49
703.023	197.12
703.212	178.69
703.4	223.74
703.589	135.68
703.777	68.09
703.965	129.53
704.154	150.01
704.342	113.15
704.531	162.3
704.719	236.03
704.907	248.32
705.096	37.38
705.284	74.24
705.472	145.92
705.661	121.34
705.849	254.46
706.037	254.46
706.226	176.64
706.414	172.54
706.602	119.29
706.79	143.87
706.979	113.15
707.167	205.31
707.355	0.51
707.543	225.79
707.731	180.73
707.919	170.49
708.107	125.44
708.296	115.2
708.484	51.71
708.672	156.16
708.86	219.64
709.048	152.06
709.236	100.86
709.424	137.73
709.612	256.51
709.8	102.91
709.988	168.45
710.176	141.82
710.364	240.12
710.551	197.12
710.739	205.31
710.927	68.09
711.115	233.98
711.303	256.51
711.491	270.84
711.679	76.29
711.866	203.26
712.054	82.43
712.242	162.3
712.43	186.88
712.617	117.25
712.805	229.88
712.993	92.67
713.181	88.57
713.368	211.45
713.556	164.35
713.744	76.29
713.931	324.09
714.119	201.21
714.306	172.54
714.494	197.12
714.682	221.69
714.869	57.86
715.057	107.01
715.244	88.57
715.432	240.12
715.619	156.16
715.807	197.12
715.994	123.39
716.182	156.16
716.369	236.03
716.556	178.69
716.744	84.48
716.931	133.63
717.119	293.37
717.306	145.92
717.493	217.6
717.681	227.84
717.868	199.16
718.055	270.84
718.242	174.59
718.43	184.83
718.617	262.65
718.804	166.4
718.991	295.42
719.179	154.11
719.366	268.8
719.553	258.56
719.74	193.02
719.927	123.39
720.114	174.59
720.301	6.66
720.488	160.25
720.676	143.87
720.863	229.88
721.05	311.8
721.237	254.46
721.424	225.79
721.611	209.4
721.798	123.39
721.985	145.92
722.172	117.25
722.358	125.44
722.545	240.12
722.732	201.21
722.919	320
723.106	279.04
723.293	229.88
723.48	174.59
723.667	158.21
723.853	262.65
724.04	252.41
724.227	262.65
724.414	119.29
724.6	262.65
724.787	348.67
724.974	268.8
725.161	201.21
725.347	168.45
725.534	197.12
725.72	281.08
725.907	256.51
726.094	268.8
726.28	127.49
726.467	223.74
726.653	246.27
726.84	254.46
727.027	352.76
727.213	199.16
727.4	221.69
727.586	240.12
727.773	158.21
727.959	217.6
728.145	229.88
728.332	264.7
728.518	172.54
728.705	154.11
728.891	137.73
729.077	270.84
729.264	141.82
729.45	219.64
729.636	330.23
729.823	233.98
730.009	283.13
730.195	174.59
730.382	338.43
730.568	109.05
730.754	233.98
730.94	270.84
731.126	297.47
731.313	299.52
731.499	217.6
731.685	287.23
731.871	264.7
732.057	256.51
732.243	246.27
732.429	266.75
732.615	346.62
732.801	385.53
732.987	219.64
733.173	276.99
733.359	227.84
733.545	246.27
733.731	203.26
733.917	385.53
734.103	242.17
734.289	326.14
734.475	229.88
734.661	367.1
734.847	285.18
735.033	236.03
735.219	336.38
735.404	279.04
735.59	182.78
735.776	276.99
735.962	254.46
736.148	338.43
736.333	377.34
736.519	260.6
736.705	283.13
736.89	238.08
737.076	178.69
737.262	223.74
737.447	199.16
737.633	307.71
737.819	254.46
738.004	262.65
738.19	248.32
738.375	336.38
738.561	395.77
738.747	274.94
738.932	231.93
739.118	391.67
739.303	371.19
739.489	303.61
739.674	283.13
739.859	154.11
740.045	342.52
740.23	299.52
740.416	178.69
740.601	272.89
740.786	330.23
740.972	113.15
741.157	297.47
741.342	176.64
741.528	160.25
741.713	272.89
741.898	313.85
742.084	221.69
742.269	246.27
742.454	240.12
742.639	297.47
742.824	264.7
743.01	332.28
743.195	383.48
743.38	270.84
743.565	268.8
743.75	246.27
743.935	229.88
744.12	340.47
744.305	182.78
744.49	201.21
744.675	242.17
744.86	170.49
745.045	311.8
745.23	272.89
745.415	254.46
745.6	276.99
745.785	238.08
745.97	342.52
746.155	258.56
746.34	299.52
746.525	315.9
746.71	350.71
746.895	182.78
747.079	264.7
747.264	199.16
747.449	328.19
747.634	289.28
747.819	246.27
748.003	217.6
748.188	131.58
748.373	340.47
748.557	283.13
748.742	211.45
748.927	274.94
749.111	254.46
749.296	147.97
749.481	250.36
749.665	133.63
749.85	197.12
750.034	233.98
750.219	252.41
750.404	217.6
750.588	242.17
750.773	113.15
750.957	213.5
751.141	215.55
751.326	266.75
751.51	20.99
751.695	133.63
751.879	236.03
752.064	340.47
752.248	279.04
752.432	338.43
752.617	289.28
752.801	330.23
752.985	143.87
753.17	180.73
753.354	338.43
753.538	205.31
753.722	197.12
753.907	139.77
754.091	195.07
754.275	246.27
754.459	59.9
754.643	141.82
754.828	252.41
755.012	182.78
755.196	150.01
755.38	231.93
755.564	176.64
755.748	147.97
755.932	211.45
756.116	279.04
756.3	195.07
756.484	88.57
756.668	248.32
756.852	82.43
757.036	143.87
757.22	188.93
757.404	70.14
757.588	141.82
757.772	119.29
757.956	104.96
758.14	268.8
758.323	104.96
758.507	147.97
758.691	158.21
758.875	209.4
759.059	211.45
759.242	61.95
759.426	90.62
759.61	164.35
759.794	74.24
759.977	156.16
760.161	408.06
760.345	229.88
760.528	264.7
760.712	156.16
760.895	203.26
761.079	133.63
761.263	49.66
761.446	70.14
761.63	88.57
761.813	160.25
761.997	117.25
762.18	102.91
762.364	195.07
762.547	102.91
762.731	78.33
762.914	84.48
763.098	94.72
763.281	115.2
763.464	168.45
763.648	176.64
763.831	57.86
764.015	123.39
764.198	205.31
764.381	84.48
764.564	80.38
764.748	139.77
764.931	117.25
765.114	92.67
765.297	111.1
765.481	96.77
765.664	84.48
765.847	12.8
766.03	201.21
766.213	16.9
766.397	90.62
766.58	-30.21
766.763	154.11
766.946	8.7
767.129	137.73
767.312	82.43
767.495	84.48
767.678	94.72
767.861	186.88
768.044	127.49
768.227	92.67
768.41	104.96
768.593	72.19
768.776	88.57
768.959	-56.83
769.142	209.4
769.324	41.47
769.507	74.24
769.69	59.9
769.873	53.76
770.056	270.84
770.239	31.23
770.421	186.88
770.604	100.86
770.787	55.81
770.97	129.53
771.152	23.04
771.335	113.15
771.518	47.62
771.7	150.01
771.883	211.45
772.066	45.57
772.248	164.35
772.431	139.77
772.613	197.12
772.796	176.64
772.978	164.35
773.161	150.01
773.343	57.86
773.526	84.48
773.708	2.56
773.891	2.56
774.073	80.38
774.256	82.43
774.438	297.47
774.621	33.28
774.803	96.77
774.985	41.47
775.168	107.01
775.35	20.99
775.532	141.82
775.715	41.47
775.897	12.8
776.079	88.57
776.261	150.01
776.444	88.57
776.626	150.01
776.808	88.57
776.99	25.09
777.173	45.57
777.355	102.91
777.537	109.05
777.719	23.04
777.901	61.95
778.083	102.91
778.265	-38.4
778.447	117.25
778.629	-1.54
778.811	84.48
778.993	41.47
779.175	113.15
779.357	72.19
779.539	0.51
779.721	80.38
779.903	43.52
780.085	-30.21
780.267	39.42
780.449	25.09
780.631	78.33
780.812	205.31
780.994	47.62
781.176	16.9
781.358	0.51
781.54	51.71
781.721	64
781.903	137.73
782.085	76.29
782.267	88.57
782.448	12.8
782.63	18.94
782.812	78.33
782.993	70.14
783.175	78.33
783.357	-15.87
783.538	70.14
783.72	-38.4
783.901	33.28
784.083	72.19
784.264	84.48
784.446	-15.87
784.627	-32.26
784.809	2.56
784.99	-32.26
785.172	88.57
785.353	121.34
785.535	47.62
785.716	68.09
785.897	-15.87
786.079	-13.82
786.26	12.8
786.441	41.47
786.623	6.66
786.804	-11.78
786.985	-42.5
787.167	90.62
787.348	80.38
787.529	14.85
787.71	139.77
787.891	41.47
788.073	18.94
788.254	-136.7
788.435	72.19
788.616	10.75
788.797	37.38
788.978	-5.63
789.159	57.86
789.34	86.53
789.522	-1.54
789.703	-13.82
789.884	143.87
790.065	94.72
790.246	193.02
790.427	-7.68
790.607	147.97
790.788	147.97
790.969	8.7
791.15	47.62
791.331	-36.35
791.512	55.81
791.693	-54.78
791.874	6.66
792.054	143.87
792.235	45.57
792.416	-65.02
792.597	12.8
792.778	111.1
792.958	125.44
793.139	37.38
793.32	16.9
793.5	-44.54
793.681	186.88
793.862	61.95
794.042	80.38
794.223	-71.17
794.404	-44.54
794.584	-67.07
794.765	-26.11
794.945	14.85
795.126	154.11
795.306	61.95
795.487	10.75
795.667	4.61
795.848	-11.78
796.028	8.7
796.209	49.66
796.389	82.43
796.57	-5.63
796.75	12.8
796.93	18.94
797.111	-50.69
797.291	-13.82
797.471	25.09
797.652	-5.63
797.832	-46.59
798.012	76.29
798.192	-93.69
798.373	-34.3
798.553	-38.4
798.733	61.95
798.913	4.61
799.093	37.38
799.274	45.57
799.454	100.86
799.634	20.99
799.814	59.9
799.994	139.77
800.174	51.71
800.354	-42.5
800.534	-87.55
800.714	45.57
800.894	-32.26
801.074	-77.31
801.254	-73.21
801.434	74.24
801.614	-9.73
801.794	-67.07
801.974	1729
802.154	-54.78
802.334	90.62
802.514	-44.54
802.693	59.9
802.873	-7.68
803.053	76.29
803.233	68.09
803.413	57.86
803.592	-36.35
803.772	-50.69
803.952	-3.58
804.131	-24.06
804.311	117.25
804.491	68.09
804.67	-50.69
804.85	2.56
805.03	64
805.209	164.35
805.389	-26.11
805.568	-24.06
805.748	-13.82
805.928	-19.97
806.107	18.94
806.287	31.23
806.466	94.72
806.646	-19.97
806.825	-9.73
807.004	-5.63
807.184	92.67
807.363	90.62
807.543	-9.73
807.722	-75.26
807.901	107.01
808.081	104.96
808.26	-132.61
808.439	41.47
808.619	102.91
808.798	20.99
808.977	16.9
809.156	145.92
809.336	4.61
809.515	80.38
809.694	-24.06
809.873	-38.4
810.052	45.57
810.231	25.09
810.411	-42.5
810.59	59.9
810.769	10.75
810.948	68.09
811.127	-99.84
811.306	-32.26
811.485	2.56
811.664	43.52
811.843	45.57
812.022	51.71
812.201	-28.16
812.38	-36.35
812.559	-17.92
812.737	25.09
812.916	-93.69
813.095	-24.06
813.274	16.9
813.453	20.99
813.632	86.53
813.811	55.81
813.989	-112.13
814.168	-17.92
814.347	-26.11
814.526	37.38
814.704	64
814.883	57.86
815.062	-36.35
815.24	61.95
815.419	-36.35
815.598	-9.73
815.776	-128.51
815.955	39.42
816.133	-142.85
816.312	41.47
816.49	-108.03
816.669	6.66
816.847	55.81
817.026	-34.3
817.204	10.75
817.383	-73.21
817.561	-65.02
817.74	-44.54
817.918	-34.3
818.097	-62.98
818.275	-3.58
818.453	98.81
818.632	98.81
818.81	-30.21
818.988	2.56
819.167	0.51
819.345	-3.58
819.523	-24.06
819.701	8.7
819.879	64
820.058	16.9
820.236	-52.74
820.414	-56.83
820.592	-28.16
820.77	2.56
820.948	-56.83
821.127	-65.02
821.305	96.77
821.483	-83.45
821.661	92.67
821.839	37.38
822.017	-67.07
822.195	-17.92
822.373	-26.11
822.551	-24.06
822.729	43.52
822.907	16.9
823.085	100.86
823.262	41.47
823.44	-69.12
823.618	-1.54
823.796	-62.98
823.974	0.51
824.152	-26.11
824.329	98.81
824.507	88.57
824.685	43.52
824.863	-7.68
825.04	-5.63
825.218	70.14
825.396	0.51
825.574	-13.82
825.751	-34.3
825.929	-11.78
826.107	-122.37
826.284	-32.26
826.462	86.53
826.639	-13.82
826.817	-118.27
826.994	-65.02
827.172	-105.98
827.349	80.38
827.527	23.04
827.704	-62.98
827.882	98.81
828.059	-7.68
828.237	-58.88
828.414	55.81
828.591	-161.28
828.769	33.28
828.946	-73.21
829.124	55.81
829.301	121.34
829.478	-73.21
829.655	43.52
829.833	39.42
830.01	-134.65
830.187	33.28
830.364	10.75
830.542	16.9
830.719	96.77
830.896	-15.87
831.073	37.38
831.25	78.33
831.427	68.09
831.604	43.52
831.782	-13.82
831.959	-19.97
832.136	0.51
832.313	-19.97
832.49	-11.78
832.667	-34.3
832.844	-24.06
833.021	211.45
833.198	-7.68
833.374	-97.79
833.551	25.09
833.728	14.85
833.905	47.62
834.082	-144.89
834.259	68.09
834.436	117.25
834.612	-48.64
834.789	14.85
834.966	45.57
835.143	39.42
835.319	-126.46
835.496	90.62
835.673	45.57
835.85	-3.58
836.026	47.62
836.203	107.01
836.38	-67.07
836.556	31.23
836.733	-32.26
836.909	102.91
837.086	-9.73
837.262	-83.45
837.439	59.9
837.616	-17.92
837.792	35.33
837.968	64
838.145	-110.08
838.321	57.86
838.498	29.18
838.674	18.94
838.851	43.52
839.027	-28.16
839.203	-7.68
839.38	8.7
839.556	-85.5
839.732	61.95
839.909	61.95
840.085	27.14
840.261	-105.98
840.437	-24.06
840.614	29.18
840.79	70.14
840.966	104.96
841.142	4.61
841.318	-40.45
841.494	66.05
841.671	137.73
841.847	-65.02
842.023	-101.89
842.199	27.14
842.375	86.53
842.551	-120.32
842.727	-73.21
842.903	53.76
843.079	-65.02
843.255	100.86
843.431	-44.54
843.607	72.19
843.783	-181.76
843.959	59.9
844.134	-42.5
844.31	113.15
844.486	-91.65
844.662	-56.83
844.838	-38.4
845.013	16.9
845.189	47.62
845.365	-1.54
845.541	-5.63
845.716	37.38
845.892	143.87
846.068	-42.5
846.244	-26.11
846.419	-3.58
846.595	-38.4
846.77	-73.21
846.946	-56.83
847.122	-11.78
847.297	-44.54
847.473	82.43
847.648	-99.84
847.824	10.75
847.999	-114.17
848.175	-34.3
848.35	43.52
848.526	94.72
848.701	33.28
848.876	8.7
849.052	-5.63
849.227	57.86
849.403	6.66
849.578	-32.26
849.753	4.61
849.929	39.42
850.104	-112.13
850.279	41.47
850.454	27.14
850.63	92.67
850.805	82.43
850.98	-3.58
851.155	4.61
851.33	-56.83
851.505	-24.06
851.681	96.77
851.856	-67.07
852.031	-5.63
852.206	23.04
852.381	-3.58
852.556	-34.3
852.731	37.38
852.906	119.29
853.081	53.76
853.256	117.25
853.431	-9.73
853.606	-44.54
853.781	-81.41
853.956	-110.08
854.131	8.7
854.305	14.85
854.48	18.94
854.655	-67.07
854.83	12.8
855.005	-89.6
855.18	33.28
855.354	-15.87
855.529	66.05
855.704	0.51
855.879	143.87
856.053	-17.92
856.228	88.57
856.403	-142.85
856.577	57.86
856.752	-30.21
856.926	-5.63
857.101	25.09
857.276	-91.65
857.45	33.28
857.625	41.47
857.799	4.61
857.974	-1.54
858.148	-120.32
858.323	-22.02
858.497	2.56
858.672	-120.32
858.846	-50.69
859.02	43.52
859.195	-71.17
859.369	33.28
859.543	-24.06
859.718	-26.11
859.892	-46.59
860.066	88.57
860.241	-17.92
860.415	-77.31
860.589	-11.78
860.763	27.14
860.938	-48.64
861.112	10.75
861.286	4.61
861.46	35.33
861.634	-58.88
861.808	137.73
861.982	16.9
862.157	-118.27
862.331	-5.63
862.505	-108.03
862.679	-62.98
862.853	-44.54
863.027	-24.06
863.201	154.11
863.375	-50.69
863.549	39.42
863.722	8.7
863.896	61.95
864.07	-99.84
864.244	-56.83
864.418	45.57
864.592	-69.12
864.766	27.14
864.939	78.33
865.113	-44.54
865.287	20.99
865.461	-87.55
865.634	-24.06
865.808	-34.3
865.982	-95.74
866.156	-36.35
866.329	2.56
866.503	70.14
866.676	98.81
866.85	37.38
867.024	-11.78
867.197	-11.78
867.371	55.81
867.544	43.52
867.718	-122.37
867.891	55.81
868.065	-77.31
868.238	0.51
868.412	94.72
868.585	14.85
868.759	-26.11
868.932	-11.78
869.105	-69.12
869.279	-7.68
869.452	-93.69
869.625	55.81
869.799	-75.26
869.972	-87.55
870.145	10.75
870.319	88.57
870.492	-142.85
870.665	-58.88
870.838	-30.21
871.011	-122.37
871.185	-46.59
871.358	39.42
871.531	-42.5
871.704	-22.02
871.877	8.7
872.05	-65.02
872.223	-151.04
872.396	68.09
872.569	109.05
872.742	-24.06
872.915	6.66
873.088	-71.17
873.261	0.51
873.434	29.18
873.607	-19.97
873.78	57.86
873.953	-146.94
874.126	-9.73
874.299	18.94
874.471	-24.06
874.644	-19.97
874.817	-19.97
874.99	135.68
875.163	-75.26
875.335	-11.78
875.508	-52.74
875.681	100.86
875.853	-91.65
876.026	-48.64
876.199	68.09
876.371	43.52
876.544	-17.92
876.717	31.23
876.889	-36.35
877.062	12.8
877.234	-128.51
877.407	-11.78
877.579	4.61
877.752	4.61
877.924	82.43
878.097	14.85
878.269	6.66
878.442	25.09
878.614	25.09
878.786	-24.06
878.959	-85.5
879.131	16.9
879.303	-62.98
879.476	-56.83
879.648	-54.78
879.82	-44.54
879.993	8.7
880.165	-42.5
880.337	-71.17
880.509	14.85
880.681	-204.28
880.854	-46.59
881.026	61.95
881.198	141.82
881.37	0.51
881.542	-40.45
881.714	-71.17
881.886	-24.06
882.058	-3.58
882.23	-5.63
882.402	27.14
882.574	-11.78
882.746	12.8
882.918	125.44
883.09	-7.68
883.262	-65.02
883.434	-15.87
883.606	-58.88
883.778	-103.93
883.95	104.96
884.122	-15.87
884.293	51.71
884.465	-65.02
884.637	74.24
884.809	-75.26
884.98	35.33
885.152	29.18
885.324	84.48
885.496	-48.64
885.667	-114.17
885.839	-3.58
886.011	139.77
886.182	-3.58
886.354	27.14
886.525	53.76
886.697	31.23
886.869	-32.26
887.04	-42.5
887.212	80.38
887.383	80.38
887.555	-26.11
887.726	-30.21
887.897	18.94
888.069	18.94
888.24	53.76
888.412	-54.78
888.583	-26.11
888.754	-56.83
888.926	-93.69
889.097	-101.89
889.268	-118.27
889.44	-19.97
889.611	-103.93
889.782	-52.74
889.953	-95.74
890.125	53.76
890.296	-101.89
890.467	-87.55
890.638	-128.51
890.809	-60.93
890.98	8.7
891.151	-17.92
891.323	57.86
891.494	-1.54
891.665	80.38
891.836	-42.5
892.007	12.8
892.178	0.51
892.349	-48.64
892.52	-87.55
892.691	-13.82
892.862	-93.69
893.032	-118.27
893.203	-40.45
893.374	-24.06
893.545	59.9
893.716	-91.65
893.887	78.33
894.057	-69.12
894.228	-36.35
894.399	-77.31
894.57	47.62
894.74	-48.64
894.911	37.38
895.082	-36.35
895.253	12.8
895.423	-75.26
895.594	31.23
895.764	68.09
895.935	-54.78
896.106	18.94
896.276	-58.88
896.447	64
896.617	-130.56
896.788	-65.02
896.958	-87.55
897.129	-13.82
897.299	-73.21
897.47	113.15
897.64	14.85
897.81	-3.58
897.981	20.99
898.151	-110.08
898.322	-3.58
898.492	-11.78
898.662	-67.07
898.832	-24.06
899.003	-22.02
899.173	88.57
899.343	-116.22
899.513	-48.64
