Data from USB4F104151__17__11-24-30-795.txt Node

Date: Wed Feb 26 11:24:30 EST 2025
User: louis
Spectrometer: USB4F10415
Trigger mode: 4
Integration Time (sec): 1.000000E-1
Scans to average: 1
Electric dark correction enabled: true
Nonlinearity correction enabled: false
Boxcar width: 0
XAxis mode: Wavelengths
Number of Pixels in Spectrum: 3648
>>>>>Begin Spectral Data<<<<<
178.204	-394.92
178.424	-394.92
178.644	-394.92
178.864	-388.77
179.084	-360.1
179.304	2.39
179.524	-11.95
179.744	-9.9
179.964	37.2
180.184	6.49
180.404	26.96
180.624	6.49
180.844	-16.04
181.064	-50.86
181.283	2.39
181.503	-11.95
181.723	18.77
181.943	-75.43
182.163	155.99
182.383	-5.8
182.602	45.4
182.822	180.56
183.042	127.32
183.262	-13.99
183.482	-7.85
183.701	45.4
183.921	26.96
184.141	63.83
184.361	14.68
184.58	104.79
184.8	-5.8
185.02	-50.86
185.239	139.6
185.459	145.75
185.679	121.17
185.898	-48.81
186.118	26.96
186.338	72.02
186.557	166.23
186.777	-24.23
186.997	-3.75
187.216	-18.09
187.436	147.8
187.655	67.92
187.875	190.8
188.095	-20.14
188.314	180.56
188.534	186.71
188.753	-124.58
188.973	55.64
189.192	121.17
189.412	0.34
189.631	39.25
189.851	18.77
190.07	176.47
190.29	-16.04
190.509	-54.95
190.729	74.07
190.948	190.8
191.168	297.3
191.387	22.87
191.607	20.82
191.826	2.39
192.045	49.49
192.265	-32.43
192.484	119.12
192.704	49.49
192.923	-20.14
193.142	219.47
193.362	53.59
193.581	82.26
193.8	20.82
194.02	98.64
194.239	104.79
194.458	123.22
194.678	53.59
194.897	31.06
195.116	80.21
195.335	16.73
195.555	63.83
195.774	-24.23
195.993	20.82
196.212	-40.62
196.432	-18.09
196.651	16.73
196.87	69.97
197.089	237.91
197.308	84.31
197.528	82.26
197.747	-40.62
197.966	22.87
198.185	121.17
198.404	31.06
198.623	98.64
198.842	155.99
199.062	143.7
199.281	74.07
199.5	31.06
199.719	74.07
199.938	0.34
200.157	121.17
200.376	90.45
200.595	178.51
200.814	41.3
201.033	26.96
201.252	135.51
201.471	59.73
201.69	55.64
201.909	49.49
202.128	94.55
202.347	125.27
202.566	69.97
202.785	-34.47
203.004	2.39
203.223	268.63
203.442	86.36
203.661	-5.8
203.879	117.08
204.098	51.54
204.317	12.63
204.536	74.07
204.755	49.49
204.974	145.75
205.193	-5.8
205.411	115.03
205.63	74.07
205.849	8.53
206.068	-1.71
206.287	-48.81
206.505	117.08
206.724	35.16
206.943	0.34
207.162	82.26
207.381	143.7
207.599	16.73
207.818	102.74
208.037	-54.95
208.255	57.68
208.474	47.44
208.693	55.64
208.911	-38.57
209.13	96.6
209.349	65.88
209.567	92.5
209.786	47.44
210.005	158.03
210.223	69.97
210.442	-57
210.661	-9.9
210.879	59.73
211.098	61.78
211.316	6.49
211.535	88.4
211.753	86.36
211.972	108.88
212.191	74.07
212.409	-32.43
212.628	39.25
212.846	31.06
213.065	65.88
213.283	102.74
213.502	82.26
213.72	37.2
213.938	78.16
214.157	47.44
214.375	90.45
214.594	-20.14
214.812	51.54
215.031	26.96
215.249	45.4
215.467	74.07
215.686	8.53
215.904	69.97
216.122	90.45
216.341	172.37
216.559	-18.09
216.778	98.64
216.996	94.55
217.214	51.54
217.432	33.11
217.651	-71.34
217.869	74.07
218.087	72.02
218.306	74.07
218.524	65.88
218.742	-26.28
218.96	39.25
219.179	41.3
219.397	-34.47
219.615	268.63
219.833	78.16
220.051	0.34
220.27	112.98
220.488	151.89
220.706	41.3
220.924	-28.33
221.142	-24.23
221.36	137.56
221.578	20.82
221.796	-40.62
222.015	-24.23
222.233	90.45
222.451	158.03
222.669	-44.71
222.887	108.88
223.105	-7.85
223.323	45.4
223.541	0.34
223.759	104.79
223.977	-7.85
224.195	162.13
224.413	80.21
224.631	98.64
224.849	86.36
225.067	209.23
225.285	-34.47
225.503	80.21
225.721	-40.62
225.939	33.11
226.157	80.21
226.375	239.95
226.592	33.11
226.81	4.44
227.028	121.17
227.246	112.98
227.464	98.64
227.682	43.35
227.9	69.97
228.117	69.97
228.335	45.4
228.553	29.01
228.771	12.63
228.989	-36.52
229.206	53.59
229.424	-93.87
229.642	29.01
229.86	6.49
230.077	151.89
230.295	-44.71
230.513	80.21
230.731	112.98
230.948	92.5
231.166	133.46
231.384	2.39
231.601	-16.04
231.819	170.32
232.037	-16.04
232.254	-63.15
232.472	4.44
232.689	84.31
232.907	151.89
233.125	-18.09
233.342	-3.75
233.56	-61.1
233.777	10.58
233.995	39.25
234.213	96.6
234.43	137.56
234.648	108.88
234.865	31.06
235.083	69.97
235.3	112.98
235.518	123.22
235.735	164.18
235.953	29.01
236.17	94.55
236.388	69.97
236.605	51.54
236.822	98.64
237.04	170.32
237.257	31.06
237.475	-44.71
237.692	92.5
237.909	82.26
238.127	47.44
238.344	123.22
238.562	37.2
238.779	-16.04
238.996	-32.43
239.214	110.93
239.431	53.59
239.648	24.92
239.865	96.6
240.083	76.12
240.3	98.64
240.517	29.01
240.735	53.59
240.952	131.41
241.169	104.79
241.386	86.36
241.603	18.77
241.821	-20.14
242.038	47.44
242.255	57.68
242.472	35.16
242.689	61.78
242.907	115.03
243.124	96.6
243.341	67.92
243.558	-40.62
243.775	61.78
243.992	-71.34
244.209	92.5
244.426	102.74
244.643	141.65
244.86	61.78
245.078	65.88
245.295	39.25
245.512	-22.19
245.729	-26.28
245.946	41.3
246.163	-11.95
246.38	6.49
246.597	20.82
246.814	10.58
247.031	20.82
247.248	35.16
247.464	98.64
247.681	55.64
247.898	37.2
248.115	92.5
248.332	10.58
248.549	127.32
248.766	158.03
248.983	86.36
249.2	129.36
249.417	143.7
249.633	35.16
249.85	55.64
250.067	117.08
250.284	37.2
250.501	59.73
250.717	117.08
250.934	20.82
251.151	49.49
251.368	43.35
251.585	102.74
251.801	61.78
252.018	8.53
252.235	86.36
252.451	-20.14
252.668	57.68
252.885	63.83
253.102	65.88
253.318	-11.95
253.535	24.92
253.752	43.35
253.968	-30.38
254.185	-44.71
254.401	82.26
254.618	65.88
254.835	10.58
255.051	135.51
255.268	84.31
255.484	67.92
255.701	18.77
255.917	51.54
256.134	-61.1
256.351	-20.14
256.567	72.02
256.784	18.77
257	-22.19
257.217	119.12
257.433	43.35
257.65	2.39
257.866	192.85
258.082	-59.05
258.299	-59.05
258.515	106.84
258.732	37.2
258.948	18.77
259.165	57.68
259.381	-1.71
259.597	-40.62
259.814	2.39
260.03	59.73
260.246	41.3
260.463	158.03
260.679	98.64
260.895	22.87
261.112	47.44
261.328	-16.04
261.544	-24.23
261.761	155.99
261.977	-11.95
262.193	-28.33
262.409	43.35
262.626	59.73
262.842	-9.9
263.058	49.49
263.274	170.32
263.49	88.4
263.707	96.6
263.923	160.08
264.139	-89.77
264.355	53.59
264.571	119.12
264.787	35.16
265.004	76.12
265.22	33.11
265.436	2.39
265.652	10.58
265.868	84.31
266.084	12.63
266.3	43.35
266.516	45.4
266.732	55.64
266.948	8.53
267.164	33.11
267.38	131.41
267.596	53.59
267.812	86.36
268.028	84.31
268.244	-5.8
268.46	104.79
268.676	12.63
268.892	84.31
269.108	-36.52
269.324	-5.8
269.54	-73.39
269.756	151.89
269.972	-44.71
270.188	10.58
270.403	57.68
270.619	51.54
270.835	149.84
271.051	86.36
271.267	-24.23
271.483	-52.91
271.698	127.32
271.914	108.88
272.13	16.73
272.346	-36.52
272.562	24.92
272.777	51.54
272.993	37.2
273.209	31.06
273.425	84.31
273.64	-7.85
273.856	121.17
274.072	0.34
274.287	4.44
274.503	63.83
274.719	112.98
274.934	37.2
275.15	-30.38
275.366	69.97
275.581	-48.81
275.797	45.4
276.012	39.25
276.228	26.96
276.444	61.78
276.659	168.27
276.875	8.53
277.09	-38.57
277.306	59.73
277.521	84.31
277.737	86.36
277.952	51.54
278.168	-38.57
278.383	86.36
278.599	51.54
278.814	86.36
279.03	82.26
279.245	192.85
279.461	69.97
279.676	119.12
279.892	-61.1
280.107	-13.99
280.322	-18.09
280.538	33.11
280.753	-26.28
280.969	100.69
281.184	104.79
281.399	125.27
281.615	110.93
281.83	20.82
282.045	-46.76
282.26	35.16
282.476	20.82
282.691	-7.85
282.906	47.44
283.122	33.11
283.337	14.68
283.552	123.22
283.767	88.4
283.983	137.56
284.198	96.6
284.413	57.68
284.628	-32.43
284.843	57.68
285.058	121.17
285.274	57.68
285.489	-67.24
285.704	76.12
285.919	-81.58
286.134	-5.8
286.349	31.06
286.564	59.73
286.779	176.47
286.995	37.2
287.21	-89.77
287.425	125.27
287.64	-38.57
287.855	106.84
288.07	-28.33
288.285	158.03
288.5	90.45
288.715	92.5
288.93	55.64
289.145	-24.23
289.36	-38.57
289.575	14.68
289.79	164.18
290.004	14.68
290.219	127.32
290.434	-28.33
290.649	65.88
290.864	55.64
291.079	33.11
291.294	92.5
291.509	49.49
291.724	-20.14
291.938	35.16
292.153	74.07
292.368	35.16
292.583	115.03
292.798	33.11
293.012	82.26
293.227	90.45
293.442	-11.95
293.657	166.23
293.871	141.65
294.086	94.55
294.301	198.99
294.516	133.46
294.73	20.82
294.945	-34.47
295.16	90.45
295.374	196.95
295.589	115.03
295.804	-5.8
296.018	74.07
296.233	168.27
296.447	-20.14
296.662	26.96
296.877	164.18
297.091	119.12
297.306	63.83
297.52	6.49
297.735	31.06
297.949	4.44
298.164	-1.71
298.378	74.07
298.593	-3.75
298.807	-52.91
299.022	22.87
299.236	53.59
299.451	-9.9
299.665	35.16
299.88	51.54
300.094	80.21
300.309	55.64
300.523	55.64
300.737	26.96
300.952	39.25
301.166	98.64
301.381	-20.14
301.595	51.54
301.809	164.18
302.024	12.63
302.238	-26.28
302.452	106.84
302.667	61.78
302.881	137.56
303.095	76.12
303.309	59.73
303.524	-5.8
303.738	22.87
303.952	-5.8
304.166	63.83
304.381	20.82
304.595	221.52
304.809	-9.9
305.023	33.11
305.237	-38.57
305.452	-48.81
305.666	108.88
305.88	29.01
306.094	170.32
306.308	33.11
306.522	141.65
306.736	65.88
306.95	151.89
307.164	12.63
307.379	92.5
307.593	135.51
307.807	78.16
308.021	47.44
308.235	100.69
308.449	-20.14
308.663	74.07
308.877	235.86
309.091	18.77
309.305	133.46
309.519	-32.43
309.733	110.93
309.947	2.39
310.161	86.36
310.374	69.97
310.588	168.27
310.802	-20.14
311.016	6.49
311.23	80.21
311.444	-30.38
311.658	24.92
311.872	127.32
312.085	129.36
312.299	188.75
312.513	127.32
312.727	106.84
312.941	-46.76
313.154	49.49
313.368	108.88
313.582	53.59
313.796	63.83
314.009	-22.19
314.223	158.03
314.437	-3.75
314.651	92.5
314.864	8.53
315.078	24.92
315.292	37.2
315.505	-7.85
315.719	86.36
315.933	74.07
316.146	16.73
316.36	-22.19
316.573	162.13
316.787	94.55
317.001	65.88
317.214	-52.91
317.428	80.21
317.641	-16.04
317.855	74.07
318.068	110.93
318.282	96.6
318.495	160.08
318.709	112.98
318.922	65.88
319.136	182.61
319.349	182.61
319.563	29.01
319.776	133.46
319.99	-24.23
320.203	115.03
320.417	102.74
320.63	106.84
320.843	205.14
321.057	106.84
321.27	80.21
321.483	-11.95
321.697	192.85
321.91	51.54
322.124	37.2
322.337	53.59
322.55	-30.38
322.763	14.68
322.977	-36.52
323.19	20.82
323.403	69.97
323.617	127.32
323.83	92.5
324.043	-9.9
324.256	63.83
324.469	-22.19
324.683	24.92
324.896	49.49
325.109	41.3
325.322	20.82
325.535	162.13
325.748	110.93
325.962	88.4
326.175	22.87
326.388	59.73
326.601	162.13
326.814	18.77
327.027	86.36
327.24	133.46
327.453	-61.1
327.666	121.17
327.879	119.12
328.092	84.31
328.305	106.84
328.518	35.16
328.731	16.73
328.944	-3.75
329.157	69.97
329.37	2.39
329.583	125.27
329.796	141.65
330.009	33.11
330.222	59.73
330.435	51.54
330.648	153.94
330.861	65.88
331.073	35.16
331.286	100.69
331.499	31.06
331.712	-40.62
331.925	65.88
332.138	63.83
332.35	108.88
332.563	12.63
332.776	74.07
332.989	12.63
333.202	-22.19
333.414	84.31
333.627	61.78
333.84	65.88
334.053	104.79
334.265	26.96
334.478	10.58
334.691	41.3
334.903	61.78
335.116	-16.04
335.329	-11.95
335.541	121.17
335.754	160.08
335.966	67.92
336.179	29.01
336.392	90.45
336.604	-11.95
336.817	88.4
337.029	72.02
337.242	125.27
337.454	37.2
337.667	61.78
337.88	151.89
338.092	92.5
338.305	108.88
338.517	49.49
338.729	78.16
338.942	151.89
339.154	-83.63
339.367	-28.33
339.579	151.89
339.792	59.73
340.004	88.4
340.217	39.25
340.429	10.58
340.641	-38.57
340.854	-32.43
341.066	4.44
341.278	170.32
341.491	219.47
341.703	43.35
341.915	-7.85
342.128	133.46
342.34	98.64
342.552	-79.53
342.764	8.53
342.977	59.73
343.189	55.64
343.401	69.97
343.613	-18.09
343.826	166.23
344.038	-46.76
344.25	33.11
344.462	43.35
344.674	6.49
344.886	16.73
345.099	115.03
345.311	106.84
345.523	-3.75
345.735	-100.01
345.947	26.96
346.159	86.36
346.371	51.54
346.583	24.92
346.795	196.95
347.007	37.2
347.219	84.31
347.431	14.68
347.643	127.32
347.855	-81.58
348.067	141.65
348.279	16.73
348.491	43.35
348.703	168.27
348.915	2.39
349.127	82.26
349.339	131.41
349.551	0.34
349.763	100.69
349.975	88.4
350.187	143.7
350.399	88.4
350.61	100.69
350.822	29.01
351.034	72.02
351.246	72.02
351.458	67.92
351.669	119.12
351.881	39.25
352.093	90.45
352.305	100.69
352.517	151.89
352.728	135.51
352.94	65.88
353.152	84.31
353.363	-50.86
353.575	96.6
353.787	184.66
353.999	94.55
354.21	131.41
354.422	39.25
354.633	47.44
354.845	106.84
355.057	100.69
355.268	24.92
355.48	55.64
355.692	-65.19
355.903	117.08
356.115	-52.91
356.326	14.68
356.538	168.27
356.749	86.36
356.961	76.12
357.172	49.49
357.384	-3.75
357.595	231.76
357.807	-75.43
358.018	76.12
358.23	72.02
358.441	207.19
358.653	129.36
358.864	80.21
359.075	53.59
359.287	67.92
359.498	102.74
359.709	53.59
359.921	86.36
360.132	104.79
360.344	108.88
360.555	29.01
360.766	41.3
360.977	-36.52
361.189	106.84
361.4	69.97
361.611	106.84
361.823	143.7
362.034	16.73
362.245	-75.43
362.456	24.92
362.667	151.89
362.879	-71.34
363.09	65.88
363.301	90.45
363.512	12.63
363.723	-30.38
363.935	12.63
364.146	96.6
364.357	37.2
364.568	78.16
364.779	-87.72
364.99	88.4
365.201	-38.57
365.412	192.85
365.623	-30.38
365.834	108.88
366.045	-11.95
366.256	84.31
366.467	119.12
366.678	63.83
366.889	94.55
367.1	-18.09
367.311	82.26
367.522	-24.23
367.733	29.01
367.944	121.17
368.155	43.35
368.366	112.98
368.577	139.6
368.788	141.65
368.999	84.31
369.209	6.49
369.42	248.15
369.631	192.85
369.842	72.02
370.053	-9.9
370.264	153.94
370.474	-38.57
370.685	43.35
370.896	96.6
371.107	119.12
371.317	86.36
371.528	72.02
371.739	72.02
371.95	-61.1
372.16	110.93
372.371	-30.38
372.582	10.58
372.792	74.07
373.003	37.2
373.214	141.65
373.424	94.55
373.635	-9.9
373.846	133.46
374.056	39.25
374.267	67.92
374.477	100.69
374.688	-38.57
374.898	90.45
375.109	76.12
375.319	20.82
375.53	92.5
375.74	112.98
375.951	47.44
376.161	119.12
376.372	160.08
376.582	45.4
376.793	63.83
377.003	53.59
377.214	-30.38
377.424	110.93
377.635	43.35
377.845	24.92
378.055	164.18
378.266	-32.43
378.476	43.35
378.686	41.3
378.897	53.59
379.107	53.59
379.317	131.41
379.528	22.87
379.738	143.7
379.948	14.68
380.158	67.92
380.369	29.01
380.579	53.59
380.789	84.31
380.999	90.45
381.21	125.27
381.42	248.15
381.63	-18.09
381.84	74.07
382.05	117.08
382.261	141.65
382.471	129.36
382.681	84.31
382.891	131.41
383.101	90.45
383.311	-44.71
383.521	53.59
383.731	88.4
383.941	74.07
384.151	67.92
384.361	-9.9
384.571	115.03
384.781	39.25
384.991	176.47
385.201	201.04
385.411	127.32
385.621	43.35
385.831	92.5
386.041	45.4
386.251	51.54
386.461	198.99
386.671	16.73
386.881	108.88
387.091	-9.9
387.301	82.26
387.511	31.06
387.72	80.21
387.93	47.44
388.14	-75.43
388.35	33.11
388.56	155.99
388.769	166.23
388.979	84.31
389.189	72.02
389.399	63.83
389.609	45.4
389.818	-3.75
390.028	72.02
390.238	119.12
390.447	41.3
390.657	53.59
390.867	33.11
391.076	-81.58
391.286	123.22
391.496	-28.33
391.705	-5.8
391.915	108.88
392.125	106.84
392.334	-30.38
392.544	104.79
392.753	55.64
392.963	0.34
393.172	55.64
393.382	57.68
393.591	233.81
393.801	-11.95
394.01	80.21
394.22	61.78
394.429	47.44
394.639	119.12
394.848	65.88
395.058	72.02
395.267	-11.95
395.477	102.74
395.686	170.32
395.895	153.94
396.105	180.56
396.314	180.56
396.524	49.49
396.733	24.92
396.942	180.56
397.152	112.98
397.361	168.27
397.57	47.44
397.78	57.68
397.989	104.79
398.198	198.99
398.407	61.78
398.617	127.32
398.826	76.12
399.035	41.3
399.244	184.66
399.453	69.97
399.663	72.02
399.872	2.39
400.081	26.96
400.29	178.51
400.499	-3.75
400.708	112.98
400.917	51.54
401.127	-40.62
401.336	0.34
401.545	196.95
401.754	162.13
401.963	182.61
402.172	20.82
402.381	-28.33
402.59	110.93
402.799	59.73
403.008	141.65
403.217	112.98
403.426	57.68
403.635	35.16
403.844	67.92
404.053	53.59
404.262	0.34
404.471	180.56
404.68	117.08
404.888	24.92
405.097	41.3
405.306	0.34
405.515	78.16
405.724	121.17
405.933	84.31
406.142	98.64
406.35	196.95
406.559	16.73
406.768	18.77
406.977	166.23
407.185	90.45
407.394	180.56
407.603	-48.81
407.812	16.73
408.02	188.75
408.229	110.93
408.438	65.88
408.646	-69.29
408.855	22.87
409.064	104.79
409.272	78.16
409.481	80.21
409.69	22.87
409.898	29.01
410.107	37.2
410.315	170.32
410.524	67.92
410.733	51.54
410.941	90.45
411.15	151.89
411.358	153.94
411.567	86.36
411.775	80.21
411.984	72.02
412.192	63.83
412.401	65.88
412.609	151.89
412.818	123.22
413.026	92.5
413.234	6.49
413.443	59.73
413.651	92.5
413.86	39.25
414.068	94.55
414.276	223.57
414.485	24.92
414.693	106.84
414.901	147.8
415.11	72.02
415.318	16.73
415.526	16.73
415.734	92.5
415.943	106.84
416.151	129.36
416.359	35.16
416.567	82.26
416.776	69.97
416.984	119.12
417.192	194.9
417.4	57.68
417.608	16.73
417.817	-9.9
418.025	108.88
418.233	225.62
418.441	-34.47
418.649	69.97
418.857	76.12
419.065	149.84
419.273	43.35
419.481	47.44
419.689	51.54
419.897	80.21
420.105	-1.71
420.313	80.21
420.521	164.18
420.729	98.64
420.937	14.68
421.145	-16.04
421.353	139.6
421.561	205.14
421.769	63.83
421.977	-32.43
422.185	221.52
422.393	61.78
422.601	112.98
422.809	139.6
423.017	86.36
423.224	31.06
423.432	119.12
423.64	10.58
423.848	184.66
424.056	45.4
424.263	192.85
424.471	22.87
424.679	135.51
424.887	41.3
425.094	149.84
425.302	119.12
425.51	37.2
425.718	100.69
425.925	53.59
426.133	26.96
426.341	315.73
426.548	37.2
426.756	82.26
426.964	129.36
427.171	59.73
427.379	67.92
427.586	45.4
427.794	80.21
428.001	133.46
428.209	90.45
428.417	168.27
428.624	145.75
428.832	84.31
429.039	96.6
429.247	53.59
429.454	98.64
429.662	170.32
429.869	123.22
430.076	145.75
430.284	133.46
430.491	287.06
430.699	141.65
430.906	176.47
431.114	115.03
431.321	92.5
431.528	125.27
431.736	213.33
431.943	198.99
432.15	182.61
432.358	184.66
432.565	158.03
432.772	-11.95
432.979	260.43
433.187	123.22
433.394	231.76
433.601	229.71
433.808	266.58
434.016	295.25
434.223	248.15
434.43	270.67
434.637	250.19
434.844	282.96
435.052	274.77
435.259	276.82
435.466	323.92
435.673	289.1
435.88	252.24
436.087	336.21
436.294	270.67
436.501	340.3
436.708	252.24
436.915	342.35
437.122	360.78
437.329	233.81
437.537	262.48
437.743	342.35
437.95	393.55
438.157	340.3
438.364	418.13
438.571	344.4
438.778	463.18
438.985	442.7
439.192	411.98
439.399	436.56
439.606	405.84
439.813	528.72
440.02	573.77
440.227	715.08
440.433	559.44
440.64	551.24
440.847	473.42
441.054	694.6
441.261	661.84
441.467	530.77
441.674	688.46
441.881	657.74
442.088	680.27
442.294	807.24
442.501	794.95
442.708	735.56
442.914	696.65
443.121	831.82
443.328	852.3
443.534	901.45
443.741	964.93
443.948	846.15
444.154	999.75
444.361	1102.15
444.568	1032.52
444.774	977.22
444.981	1065.29
445.187	1214.79
445.394	1073.48
445.6	1136.96
445.807	1237.31
446.013	1169.73
446.22	1179.97
446.426	1444.16
446.633	1462.59
446.839	1608
447.046	1302.85
447.252	1573.18
447.459	1636.67
447.665	1499.45
447.871	1861.94
448.078	1945.91
448.284	1943.86
448.491	2017.59
448.697	1931.58
448.903	2070.84
449.11	2197.81
449.316	2148.66
449.522	2265.39
449.728	2283.83
449.935	2539.82
450.141	2523.44
450.347	2699.56
450.553	2525.49
450.76	2713.9
450.966	2830.63
451.172	2920.74
451.378	3197.22
451.584	3176.74
451.791	3383.59
451.997	3500.32
452.203	3420.45
452.409	3707.16
452.615	3877.15
452.821	3709.21
453.027	3594.53
453.233	4352.27
453.44	4215.06
453.646	4426
453.852	4542.74
454.058	4600.08
454.264	4882.7
454.47	5175.56
454.676	5241.09
454.882	5681.41
455.088	5458.18
455.294	5660.93
455.5	6031.61
455.705	6486.26
455.911	6435.06
456.117	6551.79
456.323	6879.47
456.529	6828.27
456.735	7637.22
456.941	7735.52
457.147	8007.9
457.352	8065.24
457.558	8562.9
457.764	8927.44
457.97	9021.64
458.176	9369.8
458.381	9863.36
458.587	10113.21
458.793	10657.97
458.999	10729.65
459.204	11931.81
459.41	12470.42
459.616	12071.07
459.821	12927.12
460.027	13459.59
460.233	14207.1
460.438	14188.67
460.644	14803.06
460.85	14942.32
461.055	15505.51
461.261	16425.05
461.466	15976.55
461.672	16197.73
461.878	18303.04
462.083	18012.23
462.289	18544.7
462.494	19345.45
462.7	19089.46
462.905	19656.75
463.111	20981.78
463.316	22149.12
463.522	22446.08
463.727	22992.89
463.932	24279.01
464.138	25198.55
464.343	25855.95
464.549	25700.3
464.754	28004.27
464.959	28932
465.165	28917.66
465.37	28977.05
465.575	29013.91
465.781	30697.34
465.986	31704.95
466.191	31289.21
466.397	31657.84
466.602	30824.32
466.807	32501.61
467.012	33193.82
467.218	33384.28
467.423	33607.51
467.628	34592.58
467.833	36357.93
468.038	35845.94
468.244	35022.65
468.449	36634.41
468.654	35987.25
468.859	36190
469.064	35794.74
469.269	34887.49
469.474	35292.99
469.679	36251.44
469.885	35313.47
470.09	36226.86
470.295	35800.88
470.5	34842.43
470.705	35295.03
470.91	34563.91
471.115	34002.77
471.32	34623.3
471.525	34252.62
471.73	32907.1
471.935	33068.89
472.139	32065.39
472.344	32024.43
472.549	31778.67
472.754	30941.05
472.959	30398.34
473.164	29249.43
473.369	28870.56
473.574	29777.81
473.778	28729.25
473.983	28620.7
474.188	28098.47
474.393	26755.01
474.598	26632.13
474.802	26109.89
475.007	25808.84
475.212	25751.5
475.417	24362.98
475.621	24129.51
475.826	24137.7
476.031	23392.24
476.235	22687.74
476.44	22919.16
476.645	22114.31
476.849	21997.57
477.054	21776.39
477.259	21096.47
477.463	21012.5
477.668	20731.93
477.872	20795.42
478.077	20244.51
478.282	19392.56
478.486	19367.98
478.691	19327.02
478.895	19204.14
479.1	18997.3
479.304	18843.7
479.509	18053.19
479.713	18409.53
479.918	17915.97
480.122	17682.5
480.326	17758.28
480.531	18010.18
480.735	17766.47
480.94	16937.04
481.144	17858.63
481.348	16883.8
481.553	17154.13
481.757	16410.71
481.961	16812.12
482.166	16808.02
482.37	16453.72
482.574	15943.78
482.778	15986.79
482.983	16316.51
483.187	16078.94
483.391	15851.62
483.595	15415.4
483.8	15351.92
484.004	15548.52
484.208	15294.57
484.412	15177.84
484.616	14973.04
484.821	15157.36
485.025	14583.93
485.229	14682.23
485.433	14223.48
485.637	14370.94
485.841	13944.96
486.045	13820.03
486.249	13672.58
486.453	13473.93
486.657	13088.91
486.861	13027.47
487.065	12431.51
487.269	12667.03
487.473	12349.59
487.677	12386.46
487.881	12355.74
488.085	11841.7
488.289	11829.41
488.493	11583.65
488.697	11532.45
488.901	10975.41
489.105	11022.51
489.309	10778.8
489.512	10479.8
489.716	10385.59
489.92	10399.93
490.124	10037.44
490.328	10066.11
490.531	9615.55
490.735	9781.44
490.939	9433.29
491.143	8929.49
491.346	8798.42
491.55	8972.49
491.754	9019.6
491.958	8716.5
492.161	8390.87
492.365	8210.65
492.569	8194.26
492.772	8235.22
492.976	8229.08
493.18	7848.16
493.383	7852.25
493.587	7813.34
493.79	7715.04
493.994	7557.35
494.197	7426.28
494.401	7676.13
494.605	7446.76
494.808	7368.93
495.012	7192.81
495.215	7338.21
495.419	7364.84
495.622	7080.17
495.825	6981.87
496.029	7006.44
496.232	7262.44
496.436	6940.91
496.639	7196.9
496.843	7016.68
497.046	6865.13
497.249	7258.34
497.453	7047.4
497.656	7229.67
497.859	6930.67
498.063	7170.28
498.266	7102.7
498.469	6738.16
498.673	7043.31
498.876	7184.62
499.079	7172.33
499.282	7119.08
499.485	7432.42
499.689	7403.75
499.892	7327.97
500.095	7332.07
500.298	7495.91
500.501	7385.32
500.705	7635.17
500.908	7696.61
501.111	7680.22
501.314	7799.01
501.517	7829.73
501.72	7985.37
501.923	8016.09
502.126	8108.25
502.329	8288.47
502.532	8327.38
502.735	8282.33
502.938	8681.68
503.141	8427.73
503.344	8667.35
503.547	8835.28
503.75	8898.77
503.953	8849.61
504.156	9244.87
504.359	9189.58
504.562	9328.84
504.765	9720
504.968	9783.49
505.17	9840.83
505.373	9808.06
505.576	10303.67
505.779	10240.19
505.982	10234.04
506.185	10508.47
506.387	10770.61
506.59	11067.56
506.793	11133.1
506.996	11208.87
507.198	11677.86
507.401	11921.57
507.604	12077.21
507.807	12329.11
508.009	12372.12
508.212	12685.46
508.415	12947.6
508.617	13236.36
508.82	13496.46
509.022	13582.47
509.225	14184.57
509.428	14364.79
509.63	14721.14
509.833	14743.67
510.035	15415.4
510.238	15421.55
510.44	16066.66
510.643	16359.52
510.845	16697.43
511.048	16853.08
511.25	17115.22
511.453	17825.86
511.655	18409.53
511.858	18649.14
512.06	18780.21
512.262	19556.39
512.465	19472.43
512.667	20334.62
512.87	20922.39
513.072	21086.23
513.274	21803.02
513.477	21966.85
513.679	22525.95
513.881	23083
514.084	23504.88
514.286	24098.79
514.488	24682.46
514.69	25464.78
514.893	25958.35
515.095	26097.61
515.297	26808.25
515.499	27047.86
515.701	27844.52
515.904	28774.3
516.106	28962.72
516.308	29587.35
516.51	30252.94
516.712	30721.92
516.914	31453.05
517.116	32180.07
517.318	32372.58
517.52	32900.96
517.722	33697.62
517.925	34361.16
518.127	35462.97
518.329	35893.04
518.531	36011.82
518.733	36388.65
518.935	37660.44
519.136	37840.66
519.338	38741.77
519.54	39063.3
519.742	40070.9
519.944	40267.5
520.146	40836.84
520.348	41506.52
520.55	41789.14
520.752	41938.65
520.954	43316.93
521.155	43300.54
521.357	43931.32
521.559	44033.72
521.761	45434.53
521.963	45037.22
522.164	45817.5
522.366	45713.05
522.568	46454.42
522.77	46837.39
522.971	47859.32
523.173	47197.83
523.375	47806.08
523.576	47769.21
523.778	47896.19
523.98	48643.7
524.181	48920.17
524.383	48887.4
524.584	49313.38
524.786	49417.83
524.988	48987.75
525.189	49337.96
525.391	49768.03
525.592	49788.51
525.794	49598.05
525.995	49362.53
526.197	49526.37
526.398	49399.4
526.6	49555.04
526.801	49569.38
527.003	49043.05
527.204	48776.81
527.406	49034.86
527.607	48498.29
527.808	48698.99
528.01	47820.41
528.211	47715.97
528.412	47922.81
528.614	47793.79
528.815	46835.34
529.016	47273.6
529.218	46354.07
529.419	46016.15
529.62	45547.17
529.822	45416.1
530.023	45160.1
530.224	44402.35
530.425	44367.54
530.626	43103.94
530.828	42972.87
531.029	43273.92
531.23	42149.59
531.431	41998.04
531.632	41901.78
531.833	41115.36
532.035	40556.27
532.236	40255.22
532.437	39710.46
532.638	38958.85
532.839	38835.97
533.04	38579.98
533.241	37220.13
533.442	37695.25
533.643	36984.61
533.844	36144.94
534.045	35956.53
534.246	35178.3
534.447	34955.07
534.648	34090.83
534.849	34058.06
535.05	33333.08
535.251	32872.29
535.451	32405.35
535.652	32261.99
535.853	31625.07
536.054	31637.36
536.255	31041.4
536.456	30056.33
536.657	30330.76
536.857	29599.63
537.058	28995.48
537.259	28706.72
537.46	28651.42
537.66	28227.49
537.861	27686.83
538.062	27482.03
538.263	27230.13
538.463	26830.78
538.664	26230.73
538.865	26220.49
539.065	26011.59
539.266	25288.66
539.466	25456.59
539.667	24428.51
539.868	24535.01
540.068	24131.56
540.269	24070.12
540.469	23838.7
540.67	23277.55
540.87	23162.87
541.071	22751.23
541.271	22724.6
541.472	22222.85
541.672	22048.77
541.873	21567.5
542.073	21364.75
542.274	21413.9
542.474	20916.25
542.675	20615.19
542.875	20701.21
543.075	20262.94
543.276	19886.12
543.476	20256.8
543.676	19820.58
543.877	19709.99
544.077	19378.22
544.277	19165.23
544.478	18831.41
544.678	18921.52
544.878	18393.15
545.078	18247.74
545.279	18026.56
545.479	17670.22
545.679	17487.95
545.879	17510.47
546.079	17207.37
546.28	17317.97
546.48	16978
546.68	16818.26
546.88	16578.65
547.08	16287.84
547.28	15927.39
547.48	15509.61
547.68	15704.17
547.88	15419.5
548.081	15360.11
548.281	15093.87
548.481	14876.79
548.681	14858.35
548.881	14612.6
549.081	14196.86
549.28	14084.22
549.48	14092.41
549.68	13658.24
549.88	13885.57
550.08	13093.01
550.28	13158.54
550.48	13310.09
550.68	12931.22
550.88	12597.4
551.08	12449.94
551.279	12415.13
551.479	12146.84
551.679	11974.81
551.879	11657.38
552.079	11522.21
552.278	11495.59
552.478	11362.47
552.678	11210.92
552.878	11229.35
553.077	10764.47
553.277	10502.33
553.477	10588.34
553.676	10442.93
553.876	10432.69
554.076	10033.34
554.275	9834.69
554.475	9509.06
554.674	9638.08
554.874	9599.17
555.074	9220.3
555.273	9101.51
555.473	9091.27
555.672	8605.91
555.872	8796.37
556.071	8587.47
556.271	8558.8
556.47	8239.32
556.67	7764.19
556.869	8106.2
557.068	8038.62
557.268	7801.05
557.467	7782.62
557.667	7534.82
557.866	7364.84
558.065	7219.43
558.265	7094.51
558.464	6869.23
558.663	7012.59
558.863	6906.09
559.062	6877.42
559.261	6451.44
559.461	6607.09
559.66	6203.64
559.859	6113.53
560.058	6158.58
560.258	6054.14
560.457	5994.75
560.656	6265.08
560.855	5669.12
561.054	5783.81
561.253	5638.4
561.453	5593.34
561.652	5462.27
561.851	5404.93
562.05	5163.27
562.249	5218.57
562.448	5114.12
562.647	4917.51
562.846	4796.68
563.045	5009.67
563.244	4747.53
563.443	4894.99
563.642	4600.08
563.841	4602.13
564.04	4444.43
564.239	4538.64
564.438	4524.3
564.637	4323.6
564.836	4313.36
565.035	4268.31
565.234	4112.66
565.432	4118.81
565.631	4159.77
565.83	3957.02
566.029	3692.83
566.228	3772.7
566.427	3948.83
566.625	3721.5
566.824	3682.59
567.023	3698.97
567.222	3506.46
567.42	3686.69
567.619	3645.73
567.818	3477.79
568.016	3520.8
568.215	3385.63
568.414	3377.44
568.612	3340.58
568.811	3268.9
569.01	3072.29
569.208	3006.76
569.407	3103.01
569.605	2986.28
569.804	2984.23
570.002	2951.46
570.201	2758.96
570.4	2892.07
570.598	2844.97
570.797	2818.35
570.995	2703.66
571.193	2847.02
571.392	2664.75
571.59	2607.41
571.789	2617.65
571.987	2652.46
572.186	2470.19
572.384	2480.43
572.582	2402.61
572.781	2502.96
572.979	2193.72
573.177	2378.03
573.376	2326.83
573.574	2218.29
573.772	2220.34
573.971	2189.62
574.169	1986.87
574.367	2031.93
574.565	1982.78
574.763	2009.4
574.962	2009.4
575.16	1911.1
575.358	1937.72
575.556	1900.86
575.754	1927.48
575.952	1835.32
576.151	1845.56
576.349	1796.41
576.547	1589.57
576.745	1739.07
576.943	1851.71
577.141	1702.2
577.339	1593.66
577.537	1640.76
577.735	1728.83
577.933	1616.19
578.131	1425.73
578.329	1614.14
578.527	1411.39
578.725	1599.8
578.923	1321.28
579.121	1462.59
579.319	1335.62
579.516	1298.75
579.714	1700.16
579.912	1329.47
580.11	1222.98
580.308	1268.03
580.506	1331.52
580.704	1116.48
580.901	1186.12
581.099	1399.1
581.297	1186.12
581.495	1253.7
581.692	1083.72
581.89	1325.38
582.088	1073.48
582.285	1225.03
582.483	1175.88
582.681	1108.29
582.878	1153.35
583.076	1151.3
583.274	1093.96
583.471	1098.05
583.669	1067.33
583.866	991.56
584.064	1009.99
584.262	878.92
584.459	895.3
584.657	1030.47
584.854	1001.8
585.052	981.32
585.249	923.98
585.447	921.93
585.644	827.72
585.841	993.61
586.039	856.39
586.236	887.11
586.434	788.81
586.631	684.36
586.828	713.03
587.026	792.91
587.223	710.99
587.42	819.53
587.618	850.25
587.815	860.49
588.012	764.23
588.21	667.98
588.407	813.38
588.604	811.34
588.801	672.08
588.999	690.51
589.196	745.8
589.393	643.4
589.59	792.91
589.787	680.27
589.984	713.03
590.182	624.97
590.379	682.31
590.576	799.05
590.773	788.81
590.97	594.25
591.167	692.55
591.364	719.18
591.561	541.01
591.758	801.1
591.955	792.91
592.152	645.45
592.349	653.64
592.546	618.83
592.743	663.88
592.94	551.24
593.137	753.99
593.334	774.47
593.531	631.12
593.727	721.23
593.924	672.08
594.121	725.32
594.318	663.88
594.515	674.12
594.712	797
594.908	741.71
595.105	579.92
595.302	684.36
595.499	766.28
595.696	817.48
595.892	667.98
596.089	776.52
596.286	680.27
596.482	848.2
596.679	756.04
596.876	827.72
597.072	850.25
597.269	792.91
597.466	909.64
597.662	858.44
597.859	858.44
598.055	991.56
598.252	944.45
598.448	1034.57
598.645	1042.76
598.841	969.03
599.038	1141.06
599.234	1280.32
599.431	1200.45
599.627	1192.26
599.824	1233.22
600.02	1317.19
600.217	1397.06
600.413	1507.65
600.609	1442.11
600.806	1810.75
601.002	1612.09
601.198	1661.24
601.395	1728.83
601.591	1698.11
601.787	1804.6
601.984	1993.01
602.18	2097.46
602.376	2009.4
602.572	2232.63
602.769	2189.62
602.965	2238.77
603.161	2474.29
603.357	2425.14
603.553	2562.35
603.75	2556.21
603.946	2593.07
604.142	2955.56
604.338	3008.81
604.534	3010.86
604.73	3141.93
604.926	3121.45
605.122	3418.4
605.318	3303.71
605.514	3512.61
605.71	3592.48
605.906	3690.78
606.102	3662.11
606.298	4016.41
606.494	4221.2
606.69	4167.96
606.886	4032.79
607.082	4346.13
607.278	4436.24
607.474	4489.49
607.67	4655.37
607.866	4696.33
608.062	5116.17
608.257	5255.43
608.453	5234.95
608.649	5384.45
608.845	5372.16
609.041	5601.54
609.236	5781.76
609.432	6076.66
609.628	6279.41
609.824	6361.33
610.019	6371.57
610.215	6787.31
610.411	6930.67
610.606	7049.45
610.802	7299.3
610.998	7278.82
611.193	7733.47
611.389	7686.37
611.584	8014.04
611.78	8104.15
611.976	8407.25
612.171	8939.72
612.367	8896.72
612.562	9160.91
612.758	9345.22
612.953	9480.39
613.149	9769.15
613.344	9973.95
613.539	10309.82
613.735	10619.06
613.93	10731.7
614.126	11018.41
614.321	11276.46
614.517	11761.83
614.712	11923.62
614.907	12142.75
615.103	12337.31
615.298	12898.45
615.493	13170.83
615.688	13555.85
615.884	14151.81
616.079	14010.5
616.274	14561.4
616.47	15069.3
616.665	15401.07
616.86	15685.73
617.055	16048.22
617.25	16558.17
617.445	16879.7
617.641	17031.25
617.836	17770.57
618.031	17815.62
618.226	18683.96
618.421	18886.71
618.616	19697.7
618.811	19851.3
619.006	20713.5
619.201	20785.18
619.396	21444.62
619.591	21329.94
619.786	22315.01
619.981	22579.2
620.176	23201.78
620.371	23312.37
620.566	23846.89
620.761	24416.22
620.956	25454.54
621.151	25169.88
621.346	26546.11
621.541	26189.77
621.735	26998.71
621.93	27189.17
622.125	27983.79
622.32	28182.44
622.515	28833.69
622.709	29364.12
622.904	30228.36
623.099	30252.94
623.294	31059.84
623.488	30762.88
623.683	31762.29
623.878	32141.16
624.072	33001.31
624.267	33419.1
624.462	33816.4
624.656	33908.56
624.851	34842.43
625.046	35536.7
625.24	35927.86
625.435	36472.62
625.629	36900.64
625.824	37164.83
626.018	37783.32
626.213	37289.76
626.407	38610.7
626.602	38661.9
626.796	39462.65
626.991	39560.95
627.185	40054.51
627.38	39755.51
627.574	40681.19
627.768	40509.16
627.963	40474.35
628.157	40861.41
628.352	41510.62
628.546	40449.77
628.74	41316.06
628.935	40527.59
629.129	41109.22
629.323	40328.94
629.517	40562.41
629.712	39984.88
629.906	40236.78
630.1	39345.92
630.294	38948.61
630.489	38498.06
630.683	38162.19
630.877	36927.27
631.071	37005.09
631.265	36505.38
631.459	35331.9
631.653	34662.21
631.848	34103.12
632.042	33077.08
632.236	32307.05
632.43	31315.83
632.624	30816.13
632.818	29634.45
633.012	28426.15
633.206	27776.94
633.4	27389.88
633.594	26210.25
633.788	25518.03
633.982	24526.82
634.176	23791.59
634.369	22763.51
634.563	21471.25
634.757	20942.87
634.951	20326.43
635.145	19263.54
635.339	18501.69
635.533	17879.11
635.726	17231.95
635.92	16228.45
636.114	15790.18
636.308	15110.25
636.501	14643.32
636.695	14002.3
636.889	13324.43
637.083	12650.64
637.276	12333.21
637.47	11843.74
637.664	11292.84
637.857	10940.59
638.051	10404.02
638.244	9939.13
638.438	9693.38
638.632	9371.85
638.825	8489.17
639.019	8716.5
639.212	8022.23
639.406	7983.32
639.599	7622.88
639.793	7180.52
639.986	6789.36
640.18	6863.08
640.373	6533.36
640.567	6119.67
640.76	6076.66
640.954	5951.74
641.147	5417.22
641.34	5284.1
641.534	5005.58
641.727	4927.75
641.92	4882.7
642.114	4610.32
642.307	4440.34
642.5	4319.51
642.694	3981.59
642.887	3965.21
643.08	3793.18
643.273	3719.45
643.467	3354.91
643.66	3273
643.853	3148.07
644.046	3252.52
644.239	3119.4
644.432	2849.07
644.626	2652.46
644.819	2562.35
645.012	2574.64
645.205	2435.38
645.398	2482.48
645.591	2216.24
645.784	2158.9
645.977	2089.27
646.17	1968.44
646.363	1995.06
646.556	1804.6
646.749	1751.35
646.942	1833.27
647.135	1730.87
647.328	1536.32
647.521	1618.24
647.714	1554.75
647.907	1411.39
648.099	1288.51
648.292	1401.15
648.485	1225.03
648.678	1116.48
648.871	1212.74
649.064	1206.59
649.256	1024.33
649.449	1061.19
649.642	1028.42
649.835	1040.71
650.027	942.41
650.22	1007.94
650.413	901.45
650.605	950.6
650.798	833.86
650.991	715.08
651.183	774.47
651.376	749.9
651.568	831.82
651.761	682.31
651.954	739.66
652.146	731.47
652.339	717.13
652.531	688.46
652.724	555.34
652.916	502.09
653.109	495.95
653.301	614.73
653.494	620.88
653.686	538.96
653.879	610.64
654.071	575.82
654.263	401.74
654.456	491.85
654.648	588.11
654.84	446.8
655.033	475.47
655.225	528.72
655.417	297.3
655.61	514.38
655.802	534.86
655.994	565.58
656.186	395.6
656.379	457.04
656.571	299.34
656.763	338.26
656.955	334.16
657.148	205.14
657.34	426.32
657.532	371.02
657.724	342.35
657.916	358.74
658.108	385.36
658.3	340.3
658.492	299.34
658.684	184.66
658.876	416.08
659.068	262.48
659.26	149.84
659.452	201.04
659.644	307.54
659.836	344.4
660.028	215.38
660.22	209.23
660.412	309.58
660.604	178.51
660.796	219.47
660.988	360.78
661.18	221.52
661.372	321.87
661.563	334.16
661.755	305.49
661.947	166.23
662.139	176.47
662.331	289.1
662.522	174.42
662.714	117.08
662.906	151.89
663.097	131.41
663.289	225.62
663.481	147.8
663.673	198.99
663.864	211.28
664.056	201.04
664.247	123.22
664.439	309.58
664.631	196.95
664.822	198.99
665.014	153.94
665.205	188.75
665.397	162.13
665.588	115.03
665.78	162.13
665.971	219.47
666.163	168.27
666.354	235.86
666.546	117.08
666.737	160.08
666.929	121.17
667.12	141.65
667.311	207.19
667.503	194.9
667.694	176.47
667.885	246.1
668.077	217.43
668.268	51.54
668.459	143.7
668.651	272.72
668.842	184.66
669.033	160.08
669.224	78.16
669.416	338.26
669.607	172.37
669.798	121.17
669.989	270.67
670.18	182.61
670.371	201.04
670.563	137.56
670.754	201.04
670.945	192.85
671.136	258.39
671.327	172.37
671.518	260.43
671.709	244.05
671.9	278.87
672.091	287.06
672.282	229.71
672.473	184.66
672.664	155.99
672.855	248.15
673.046	213.33
673.237	280.91
673.428	145.75
673.619	233.81
673.809	133.46
674	303.44
674.191	313.68
674.382	239.95
674.573	184.66
674.764	264.53
674.954	250.19
675.145	190.8
675.336	123.22
675.527	213.33
675.717	139.6
675.908	170.32
676.099	201.04
676.289	194.9
676.48	149.84
676.671	207.19
676.861	201.04
677.052	250.19
677.243	158.03
677.433	141.65
677.624	352.59
677.814	321.87
678.005	201.04
678.195	330.06
678.386	168.27
678.576	264.53
678.767	155.99
678.957	190.8
679.148	311.63
679.338	323.92
679.529	307.54
679.719	278.87
679.909	209.23
680.1	348.5
680.29	379.22
680.481	125.27
680.671	358.74
680.861	260.43
681.052	276.82
681.242	174.42
681.432	293.2
681.622	379.22
681.813	229.71
682.003	289.1
682.193	239.95
682.383	282.96
682.573	231.76
682.764	342.35
682.954	319.82
683.144	340.3
683.334	301.39
683.524	348.5
683.714	397.65
683.904	371.02
684.094	313.68
684.284	311.63
684.474	436.56
684.664	319.82
684.854	350.54
685.044	272.72
685.234	252.24
685.424	323.92
685.614	309.58
685.804	532.81
685.994	424.27
686.184	291.15
686.374	309.58
686.564	334.16
686.753	295.25
686.943	278.87
687.133	280.91
687.323	309.58
687.513	383.31
687.702	362.83
687.892	287.06
688.082	393.55
688.272	397.65
688.461	373.07
688.651	477.52
688.841	364.88
689.03	305.49
689.22	371.02
689.41	352.59
689.599	348.5
689.789	242
689.979	375.12
690.168	321.87
690.358	414.03
690.547	385.36
690.737	307.54
690.926	264.53
691.116	403.79
691.305	268.63
691.495	366.93
691.684	235.86
691.874	272.72
692.063	266.58
692.252	315.73
692.442	305.49
692.631	272.72
692.82	235.86
693.01	358.74
693.199	252.24
693.388	319.82
693.578	239.95
693.767	362.83
693.956	391.5
694.146	319.82
694.335	381.26
694.524	321.87
694.713	366.93
694.902	293.2
695.092	270.67
695.281	285.01
695.47	299.34
695.659	203.09
695.848	242
696.037	196.95
696.226	352.59
696.415	285.01
696.604	393.55
696.793	348.5
696.982	295.25
697.171	485.71
697.36	293.2
697.549	264.53
697.738	280.91
697.927	246.1
698.116	129.36
698.305	348.5
698.494	239.95
698.683	190.8
698.872	379.22
699.061	311.63
699.25	301.39
699.438	299.34
699.627	219.47
699.816	403.79
700.005	180.56
700.193	328.02
700.382	362.83
700.571	278.87
700.76	315.73
700.948	330.06
701.137	354.64
701.326	319.82
701.514	178.51
701.703	289.1
701.892	301.39
702.08	428.37
702.269	295.25
702.457	207.19
702.646	330.06
702.834	219.47
703.023	299.34
703.212	354.64
703.4	309.58
703.589	346.45
703.777	250.19
703.965	139.6
704.154	166.23
704.342	178.51
704.531	237.91
704.719	246.1
704.907	393.55
705.096	223.57
705.284	203.09
705.472	262.48
705.661	366.93
705.849	315.73
706.037	360.78
706.226	321.87
706.414	248.15
706.602	139.6
706.79	246.1
706.979	201.04
707.167	278.87
707.355	166.23
707.543	299.34
707.731	287.06
707.919	248.15
708.107	303.44
708.296	272.72
708.484	190.8
708.672	340.3
708.86	317.78
709.048	233.81
709.236	303.44
709.424	360.78
709.612	246.1
709.8	219.47
709.988	287.06
710.176	311.63
710.364	463.18
710.551	278.87
710.739	162.13
710.927	256.34
711.115	297.3
711.303	272.72
711.491	440.65
711.679	244.05
711.866	276.82
712.054	209.23
712.242	311.63
712.43	391.5
712.617	262.48
712.805	346.45
712.993	360.78
713.181	137.56
713.368	319.82
713.556	276.82
713.744	242
713.931	377.17
714.119	371.02
714.306	282.96
714.494	285.01
714.682	252.24
714.869	203.09
715.057	262.48
715.244	196.95
715.432	301.39
715.619	340.3
715.807	276.82
715.994	338.26
716.182	309.58
716.369	313.68
716.556	332.11
716.744	151.89
716.931	209.23
717.119	317.78
717.306	307.54
717.493	266.58
717.681	237.91
717.868	266.58
718.055	332.11
718.242	268.63
718.43	278.87
718.617	385.36
718.804	305.49
718.991	368.98
719.179	340.3
719.366	285.01
719.553	323.92
719.74	309.58
719.927	280.91
720.114	346.45
720.301	295.25
720.488	285.01
720.676	184.66
720.863	391.5
721.05	485.71
721.237	360.78
721.424	344.4
721.611	291.15
721.798	239.95
721.985	258.39
722.172	414.03
722.358	303.44
722.545	467.28
722.732	360.78
722.919	422.22
723.106	282.96
723.293	350.54
723.48	321.87
723.667	317.78
723.853	389.46
724.04	350.54
724.227	395.6
724.414	264.53
724.6	313.68
724.787	444.75
724.974	426.32
725.161	366.93
725.347	297.3
725.534	366.93
725.72	289.1
725.907	446.8
726.094	399.7
726.28	360.78
726.467	278.87
726.653	237.91
726.84	477.52
727.027	504.14
727.213	373.07
727.4	391.5
727.586	373.07
727.773	401.74
727.959	414.03
728.145	334.16
728.332	420.17
728.518	383.31
728.705	473.42
728.891	385.36
729.077	352.59
729.264	248.15
729.45	358.74
729.636	432.46
729.823	379.22
730.009	391.5
730.195	342.35
730.382	475.47
730.568	379.22
730.754	266.58
730.94	330.06
731.126	405.84
731.313	471.37
731.499	373.07
731.685	399.7
731.871	409.94
732.057	397.65
732.243	416.08
732.429	485.71
732.615	418.13
732.801	422.22
732.987	350.54
733.173	385.36
733.359	446.8
733.545	424.27
733.731	403.79
733.917	545.1
734.103	414.03
734.289	508.24
734.475	364.88
734.661	526.67
734.847	469.33
735.033	381.26
735.219	469.33
735.404	426.32
735.59	371.02
735.776	438.61
735.962	424.27
736.148	414.03
736.333	446.8
736.519	485.71
736.705	364.88
736.89	352.59
737.076	401.74
737.262	373.07
737.447	332.11
737.633	379.22
737.819	491.85
738.004	463.18
738.19	450.89
738.375	379.22
738.561	469.33
738.747	446.8
738.932	409.94
739.118	579.92
739.303	405.84
739.489	469.33
739.674	473.42
739.859	399.7
740.045	481.61
740.23	489.81
740.416	311.63
740.601	436.56
740.786	401.74
740.972	371.02
741.157	440.65
741.342	346.45
741.528	354.64
741.713	489.81
741.898	405.84
742.084	479.57
742.269	399.7
742.454	360.78
742.639	581.96
742.824	350.54
743.01	528.72
743.195	545.1
743.38	469.33
743.565	467.28
743.75	414.03
743.935	469.33
744.12	538.96
744.305	258.39
744.49	409.94
744.675	463.18
744.86	366.93
745.045	401.74
745.23	418.13
745.415	346.45
745.6	520.53
745.785	395.6
745.97	461.13
746.155	432.46
746.34	422.22
746.525	403.79
746.71	471.37
746.895	293.2
747.079	395.6
747.264	305.49
747.449	424.27
747.634	498
747.819	334.16
748.003	485.71
748.188	311.63
748.373	328.02
748.557	461.13
748.742	344.4
748.927	389.46
749.111	317.78
749.296	348.5
749.481	444.75
749.665	440.65
749.85	340.3
750.034	332.11
750.219	303.44
750.404	280.91
750.588	432.46
750.773	321.87
750.957	350.54
751.141	407.89
751.326	381.26
751.51	233.81
751.695	225.62
751.879	317.78
752.064	409.94
752.248	301.39
752.432	465.23
752.617	325.97
752.801	395.6
752.985	348.5
753.17	442.7
753.354	385.36
753.538	364.88
753.722	276.82
753.907	260.43
754.091	252.24
754.275	391.5
754.459	252.24
754.643	258.39
754.828	229.71
755.012	301.39
755.196	229.71
755.38	297.3
755.564	330.06
755.748	217.43
755.932	303.44
756.116	362.83
756.3	358.74
756.484	258.39
756.668	358.74
756.852	147.8
757.036	207.19
757.22	303.44
757.404	282.96
757.588	299.34
757.772	297.3
757.956	239.95
758.14	282.96
758.323	143.7
758.507	352.59
758.691	246.1
758.875	299.34
759.059	313.68
759.242	188.75
759.426	297.3
759.61	278.87
759.794	233.81
759.977	338.26
760.161	397.65
760.345	358.74
760.528	297.3
760.712	231.76
760.895	248.15
761.079	176.47
761.263	266.58
761.446	149.84
761.63	289.1
761.813	289.1
761.997	160.08
762.18	250.19
762.364	278.87
762.547	135.51
762.731	229.71
762.914	192.85
763.098	211.28
763.281	268.63
763.464	151.89
763.648	178.51
763.831	166.23
764.015	178.51
764.198	256.34
764.381	203.09
764.564	229.71
764.748	217.43
764.931	221.52
765.114	176.47
765.297	332.11
765.481	176.47
765.664	160.08
765.847	102.74
766.03	268.63
766.213	131.41
766.397	203.09
766.58	33.11
766.763	233.81
766.946	57.68
767.129	178.51
767.312	145.75
767.495	90.45
767.678	112.98
767.861	158.03
768.044	172.37
768.227	117.08
768.41	172.37
768.593	225.62
768.776	244.05
768.959	119.12
769.142	282.96
769.324	94.55
769.507	125.27
769.69	155.99
769.873	110.93
770.056	301.39
770.239	125.27
770.421	233.81
770.604	186.71
770.787	135.51
770.97	104.79
771.152	76.12
771.335	239.95
771.518	143.7
771.7	221.52
771.883	299.34
772.066	129.36
772.248	149.84
772.431	176.47
772.613	137.56
772.796	57.68
772.978	213.33
773.161	252.24
773.343	127.32
773.526	82.26
773.708	108.88
773.891	55.64
774.073	139.6
774.256	69.97
774.438	246.1
774.621	110.93
774.803	174.42
774.985	164.18
775.168	149.84
775.35	74.07
775.532	219.47
775.715	67.92
775.897	180.56
776.079	127.32
776.261	112.98
776.444	180.56
776.626	106.84
776.808	74.07
776.99	35.16
777.173	104.79
777.355	133.46
777.537	98.64
777.719	100.69
777.901	123.22
778.083	57.68
778.265	61.78
778.447	133.46
778.629	51.54
778.811	133.46
778.993	176.47
779.175	135.51
779.357	121.17
779.539	26.96
779.721	145.75
779.903	151.89
780.085	39.25
780.267	188.75
780.449	110.93
780.631	143.7
780.812	164.18
780.994	43.35
781.176	119.12
781.358	12.63
781.54	49.49
781.721	151.89
781.903	117.08
782.085	29.01
782.267	143.7
782.448	-18.09
782.63	78.16
782.812	137.56
782.993	125.27
783.175	135.51
783.357	57.68
783.538	106.84
783.72	26.96
783.901	78.16
784.083	112.98
784.264	203.09
784.446	49.49
784.627	4.44
784.809	151.89
784.99	59.73
785.172	141.65
785.353	45.4
785.535	26.96
785.716	82.26
785.897	37.2
786.079	47.44
786.26	100.69
786.441	67.92
786.623	-3.75
786.804	14.68
786.985	104.79
787.167	115.03
787.348	127.32
787.529	86.36
787.71	137.56
787.891	94.55
788.073	-7.85
788.254	-13.99
788.435	219.47
788.616	92.5
788.797	-34.47
788.978	35.16
789.159	22.87
789.34	59.73
789.522	76.12
789.703	6.49
789.884	43.35
790.065	133.46
790.246	227.67
790.427	33.11
790.607	160.08
790.788	104.79
790.969	-20.14
791.15	125.27
791.331	37.2
791.512	-16.04
791.693	12.63
791.874	4.44
792.054	268.63
792.235	82.26
792.416	14.68
792.597	-20.14
792.778	31.06
792.958	127.32
793.139	112.98
793.32	102.74
793.5	-69.29
793.681	117.08
793.862	18.77
794.042	67.92
794.223	29.01
794.404	12.63
794.584	-16.04
794.765	65.88
794.945	143.7
795.126	43.35
795.306	143.7
795.487	53.59
795.667	-3.75
795.848	119.12
796.028	45.4
796.209	24.92
796.389	143.7
796.57	115.03
796.75	-63.15
796.93	20.82
797.111	12.63
797.291	10.58
797.471	35.16
797.652	33.11
797.832	-20.14
798.012	80.21
798.192	-1.71
798.373	-81.58
798.553	45.4
798.733	80.21
798.913	31.06
799.093	41.3
799.274	78.16
799.454	184.66
799.634	74.07
799.814	110.93
799.994	112.98
800.174	108.88
800.354	29.01
800.534	57.68
800.714	4.44
800.894	-42.67
801.074	2.39
801.254	-1.71
801.434	123.22
801.614	18.77
801.794	-13.99
801.974	1573.18
802.154	35.16
802.334	88.4
802.514	-83.63
802.693	-32.43
802.873	-67.24
803.053	82.26
803.233	115.03
803.413	-42.67
803.592	-7.85
803.772	22.87
803.952	-48.81
804.131	-67.24
804.311	162.13
804.491	72.02
804.67	-13.99
804.85	-11.95
805.03	108.88
805.209	72.02
805.389	-46.76
805.568	-63.15
805.748	-30.38
805.928	53.59
806.107	57.68
806.287	53.59
806.466	106.84
806.646	39.25
806.825	-54.95
807.004	-67.24
807.184	133.46
807.363	74.07
807.543	39.25
807.722	-30.38
807.901	88.4
808.081	145.75
808.26	-91.82
808.439	53.59
808.619	47.44
808.798	-36.52
808.977	184.66
809.156	57.68
809.336	88.4
809.515	24.92
809.694	-40.62
809.873	14.68
810.052	82.26
810.231	170.32
810.411	-11.95
810.59	84.31
810.769	0.34
810.948	96.6
811.127	-57
811.306	63.83
811.485	10.58
811.664	211.28
811.843	39.25
812.022	-13.99
812.201	-57
812.38	20.82
812.559	-9.9
812.737	49.49
812.916	-69.29
813.095	6.49
813.274	63.83
813.453	49.49
813.632	67.92
813.811	143.7
813.989	24.92
814.168	-11.95
814.347	-87.72
814.526	-5.8
814.704	82.26
814.883	24.92
815.062	63.83
815.24	76.12
815.419	-40.62
815.598	59.73
815.776	-108.2
815.955	0.34
816.133	-95.91
816.312	16.73
816.49	-48.81
816.669	47.44
816.847	-24.23
817.026	112.98
817.204	4.44
817.383	-1.71
817.561	33.11
817.74	119.12
817.918	55.64
818.097	12.63
818.275	-34.47
818.453	-5.8
818.632	106.84
818.81	39.25
818.988	-22.19
819.167	16.73
819.345	-18.09
819.523	-11.95
819.701	2.39
819.879	78.16
820.058	72.02
820.236	98.64
820.414	55.64
820.592	0.34
820.77	-1.71
820.948	-93.87
821.127	-26.28
821.305	86.36
821.483	-52.91
821.661	96.6
821.839	-7.85
822.017	4.44
822.195	16.73
822.373	55.64
822.551	22.87
822.729	33.11
822.907	-38.57
823.085	33.11
823.262	67.92
823.44	-11.95
823.618	-40.62
823.796	8.53
823.974	-106.15
824.152	-38.57
824.329	-52.91
824.507	0.34
824.685	65.88
824.863	67.92
825.04	-16.04
825.218	112.98
825.396	-61.1
825.574	20.82
825.751	-24.23
825.929	12.63
826.107	-65.19
826.284	-1.71
826.462	65.88
826.639	-54.95
826.817	-73.39
826.994	-11.95
827.172	-108.2
827.349	96.6
827.527	51.54
827.704	53.59
827.882	74.07
828.059	84.31
828.237	-5.8
828.414	51.54
828.591	-100.01
828.769	10.58
828.946	-32.43
829.124	29.01
829.301	117.08
829.478	-3.75
829.655	24.92
829.833	12.63
830.01	-34.47
830.187	45.4
830.364	94.55
830.542	39.25
830.719	65.88
830.896	47.44
831.073	2.39
831.25	6.49
831.427	39.25
831.604	63.83
831.782	18.77
831.959	10.58
832.136	-69.29
832.313	-52.91
832.49	43.35
832.667	-5.8
832.844	-42.67
833.021	160.08
833.198	26.96
833.374	-18.09
833.551	22.87
833.728	72.02
833.905	74.07
834.082	-77.48
834.259	14.68
834.436	143.7
834.612	-77.48
834.789	8.53
834.966	80.21
835.143	12.63
835.319	4.44
835.496	31.06
835.673	-11.95
835.85	-42.67
836.026	31.06
836.203	151.89
836.38	10.58
836.556	-1.71
836.733	-18.09
836.909	215.38
837.086	-9.9
837.262	-42.67
837.439	41.3
837.616	-22.19
837.792	24.92
837.968	51.54
838.145	-50.86
838.321	59.73
838.498	16.73
838.674	176.47
838.851	57.68
839.027	-44.71
839.203	22.87
839.38	69.97
839.556	-7.85
839.732	108.88
839.909	55.64
840.085	8.53
840.261	-36.52
840.437	72.02
840.614	-36.52
840.79	88.4
840.966	55.64
841.142	33.11
841.318	-71.34
841.494	61.78
841.671	55.64
841.847	-44.71
842.023	-32.43
842.199	86.36
842.375	172.37
842.551	-110.25
842.727	-26.28
842.903	106.84
843.079	-30.38
843.255	61.78
843.431	20.82
843.607	78.16
843.783	-126.63
843.959	55.64
844.134	-54.95
844.31	139.6
844.486	74.07
844.662	24.92
844.838	-13.99
845.013	-36.52
845.189	74.07
845.365	61.78
845.541	55.64
845.716	4.44
845.892	108.88
846.068	37.2
846.244	-16.04
846.419	-20.14
846.595	-7.85
846.77	4.44
846.946	151.89
847.122	-36.52
847.297	47.44
847.473	155.99
847.648	-20.14
847.824	16.73
847.999	-171.69
848.175	-67.24
848.35	47.44
848.526	98.64
848.701	59.73
848.876	94.55
849.052	51.54
849.227	-3.75
849.403	39.25
849.578	2.39
849.753	76.12
849.929	102.74
850.104	-44.71
850.279	43.35
850.454	-9.9
850.63	131.41
850.805	-20.14
850.98	31.06
851.155	-16.04
851.33	49.49
851.505	-83.63
851.681	190.8
851.856	-34.47
852.031	14.68
852.206	63.83
852.381	-5.8
852.556	-9.9
852.731	100.69
852.906	74.07
853.081	37.2
853.256	151.89
853.431	-3.75
853.606	-42.67
853.781	-1.71
853.956	-83.63
854.131	29.01
854.305	-73.39
854.48	-89.77
854.655	-42.67
854.83	-145.06
855.005	18.77
855.18	-63.15
855.354	20.82
855.529	12.63
855.704	-42.67
855.879	80.21
856.053	-59.05
856.228	26.96
856.403	-81.58
856.577	24.92
856.752	-93.87
856.926	-22.19
857.101	55.64
857.276	-87.72
857.45	43.35
857.625	110.93
857.799	22.87
857.974	59.73
858.148	-83.63
858.323	108.88
858.497	55.64
858.672	-69.29
858.846	-24.23
859.02	12.63
859.195	-44.71
859.369	-24.23
859.543	-7.85
859.718	20.82
859.892	63.83
860.066	72.02
860.241	-63.15
860.415	20.82
860.589	-34.47
860.763	-26.28
860.938	-73.39
861.112	45.4
861.286	-54.95
861.46	43.35
861.634	20.82
861.808	33.11
861.982	-20.14
862.157	-106.15
862.331	22.87
862.505	-46.76
862.679	-196.26
862.853	-11.95
863.027	-54.95
863.201	201.04
863.375	-11.95
863.549	69.97
863.722	0.34
863.896	65.88
864.07	16.73
864.244	-11.95
864.418	59.73
864.592	20.82
864.766	90.45
864.939	22.87
865.113	-69.29
865.287	51.54
865.461	-7.85
865.634	24.92
865.808	14.68
865.982	-22.19
866.156	-30.38
866.329	-79.53
866.503	-20.14
866.676	18.77
866.85	24.92
867.024	-54.95
867.197	-9.9
867.371	74.07
867.544	35.16
867.718	-114.34
867.891	33.11
868.065	-73.39
868.238	22.87
868.412	117.08
868.585	-11.95
868.759	-59.05
868.932	-26.28
869.105	-87.72
869.279	-83.63
869.452	39.25
869.625	39.25
869.799	-5.8
869.972	-85.67
870.145	-93.87
870.319	22.87
870.492	20.82
870.665	12.63
870.838	-120.49
871.011	-85.67
871.185	-61.1
871.358	-13.99
871.531	-5.8
871.704	-34.47
871.877	-9.9
872.05	-67.24
872.223	-63.15
872.396	78.16
872.569	65.88
872.742	-124.58
872.915	45.4
873.088	8.53
873.261	-50.86
873.434	67.92
873.607	-59.05
873.78	98.64
873.953	-87.72
874.126	6.49
874.299	108.88
874.471	-32.43
874.644	-44.71
874.817	133.46
874.99	112.98
875.163	31.06
875.335	65.88
875.508	-48.81
875.681	108.88
875.853	-100.01
876.026	57.68
876.199	-38.57
876.371	35.16
876.544	29.01
876.717	8.53
876.889	-48.81
877.062	57.68
877.234	-40.62
877.407	-42.67
877.579	0.34
877.752	29.01
877.924	51.54
878.097	47.44
878.269	-1.71
878.442	-9.9
878.614	43.35
878.786	10.58
878.959	-18.09
879.131	43.35
879.303	-97.96
879.476	29.01
879.648	8.53
879.82	29.01
879.993	-71.34
880.165	-13.99
880.337	-91.82
880.509	-22.19
880.681	-61.1
880.854	63.83
881.026	-57
881.198	98.64
881.37	-7.85
881.542	78.16
881.714	84.31
881.886	-26.28
882.058	-46.76
882.23	4.44
882.402	-71.34
882.574	24.92
882.746	37.2
882.918	29.01
883.09	74.07
883.262	57.68
883.434	-5.8
883.606	-91.82
883.778	45.4
883.95	188.75
884.122	-38.57
884.293	108.88
884.465	-26.28
884.637	76.12
884.809	-32.43
884.98	67.92
885.152	37.2
885.324	96.6
885.496	-46.76
885.667	-34.47
885.839	-34.47
886.011	72.02
886.182	14.68
886.354	37.2
886.525	2.39
886.697	12.63
886.869	-16.04
887.04	-122.54
887.212	121.17
887.383	117.08
887.555	-7.85
887.726	-77.48
887.897	-52.91
888.069	29.01
888.24	88.4
888.412	45.4
888.583	4.44
888.754	-5.8
888.926	-77.48
889.097	-40.62
889.268	-132.78
889.44	29.01
889.611	-81.58
889.782	-106.15
889.953	-106.15
890.125	43.35
890.296	-32.43
890.467	-3.75
890.638	-93.87
890.809	-28.33
890.98	-77.48
891.151	-20.14
891.323	121.17
891.494	-9.9
891.665	2.39
891.836	16.73
892.007	-11.95
892.178	39.25
892.349	80.21
892.52	-91.82
892.691	10.58
892.862	-13.99
893.032	-112.3
893.203	10.58
893.374	65.88
893.545	102.74
893.716	-52.91
893.887	88.4
894.057	14.68
894.228	-5.8
894.399	-48.81
894.57	96.6
894.74	-52.91
894.911	104.79
895.082	-32.43
895.253	-40.62
895.423	-1.71
895.594	102.74
895.764	74.07
895.935	-11.95
896.106	37.2
896.276	-13.99
896.447	100.69
896.617	-57
896.788	-28.33
896.958	-16.04
897.129	24.92
897.299	-69.29
897.47	166.23
897.64	-7.85
897.81	-11.95
897.981	8.53
898.151	-34.47
898.322	6.49
898.492	33.11
898.662	-102.06
898.832	-32.43
899.003	-118.44
899.173	-13.99
899.343	-73.39
899.513	-97.96
