Data from USB4F104151__26__10-24-05-543.txt Node

Date: Wed Feb 26 10:24:05 EST 2025
User: louis
Spectrometer: USB4F10415
Trigger mode: 4
Integration Time (sec): 1.000000E-1
Scans to average: 1
Electric dark correction enabled: true
Nonlinearity correction enabled: false
Boxcar width: 0
XAxis mode: Wavelengths
Number of Pixels in Spectrum: 3648
>>>>>Begin Spectral Data<<<<<
178.204	-401.23
178.424	-401.23
178.644	-401.23
178.864	-431.95
179.084	-382.8
179.304	-63.32
179.524	-77.65
179.744	-22.36
179.964	98.47
180.184	39.08
180.404	59.56
180.624	-24.4
180.844	-42.84
181.064	16.55
181.283	14.51
181.503	-57.17
181.723	59.56
181.943	-85.84
182.163	194.73
182.383	22.7
182.602	71.85
182.822	114.86
183.042	12.46
183.262	-57.17
183.482	-10.07
183.701	4.27
183.921	75.95
184.141	-32.6
184.361	-28.5
184.58	110.76
184.8	6.31
185.02	-1.88
185.239	86.19
185.459	127.14
185.679	172.2
185.898	-100.18
186.118	45.23
186.338	75.95
186.557	157.86
186.777	16.55
186.997	53.42
187.216	-16.21
187.436	194.73
187.655	69.8
187.875	45.23
188.095	49.32
188.314	55.47
188.534	114.86
188.753	-65.36
188.973	94.38
189.192	129.19
189.412	43.18
189.631	-38.74
189.851	51.37
190.07	104.62
190.29	-32.6
190.509	39.08
190.729	98.47
190.948	110.76
191.168	176.3
191.387	69.8
191.607	37.03
191.826	-26.45
192.045	-26.45
192.265	6.31
192.484	45.23
192.704	69.8
192.923	-5.97
193.142	192.68
193.362	69.8
193.581	153.77
193.8	86.19
194.02	77.99
194.239	86.19
194.458	6.31
194.678	-40.79
194.897	26.79
195.116	20.65
195.335	106.67
195.555	61.61
195.774	-12.12
195.993	141.48
196.212	63.66
196.432	30.89
196.651	-40.79
196.87	-20.31
197.089	170.15
197.308	80.04
197.528	118.95
197.747	73.9
197.966	22.7
198.185	51.37
198.404	-20.31
198.623	143.53
198.842	39.08
199.062	98.47
199.281	96.43
199.5	-14.17
199.719	51.37
199.938	63.66
200.157	82.09
200.376	92.33
200.595	-5.97
200.814	34.99
201.033	-40.79
201.252	186.54
201.471	92.33
201.69	90.28
201.909	20.65
202.128	151.72
202.347	88.23
202.566	34.99
202.785	-48.98
203.004	-44.88
203.223	262.31
203.442	28.84
203.661	-32.6
203.879	98.47
204.098	12.46
204.317	-59.22
204.536	135.34
204.755	34.99
204.974	118.95
205.193	8.36
205.411	110.76
205.63	53.42
205.849	55.47
206.068	86.19
206.287	96.43
206.505	104.62
206.724	10.41
206.943	2.22
207.162	14.51
207.381	67.75
207.599	39.08
207.818	34.99
208.037	-32.6
208.255	-32.6
208.474	43.18
208.693	20.65
208.911	28.84
209.13	137.38
209.349	118.95
209.567	43.18
209.786	80.04
210.005	123.05
210.223	55.47
210.442	-75.6
210.661	24.75
210.879	47.27
211.098	55.47
211.316	2.22
211.535	47.27
211.753	84.14
211.972	77.99
212.191	24.75
212.409	-8.02
212.628	106.67
212.846	-1.88
213.065	92.33
213.283	110.76
213.502	16.55
213.72	57.51
213.938	71.85
214.157	18.6
214.375	125.1
214.594	20.65
214.812	65.71
215.031	-10.07
215.249	32.94
215.467	75.95
215.686	26.79
215.904	53.42
216.122	73.9
216.341	106.67
216.559	67.75
216.778	90.28
216.996	141.48
217.214	-24.4
217.432	-22.36
217.651	12.46
217.869	37.03
218.087	43.18
218.306	71.85
218.524	-12.12
218.742	20.65
218.96	41.13
219.179	8.36
219.397	65.71
219.615	188.58
219.833	149.67
220.051	47.27
220.27	53.42
220.488	121
220.706	53.42
220.924	-44.88
221.142	-16.21
221.36	4.27
221.578	28.84
221.796	71.85
222.015	2.22
222.233	45.23
222.451	100.52
222.669	-28.5
222.887	84.14
223.105	39.08
223.323	-1.88
223.541	-63.32
223.759	61.61
223.977	30.89
224.195	184.49
224.413	157.86
224.631	63.66
224.849	94.38
225.067	194.73
225.285	-1.88
225.503	4.27
225.721	-73.56
225.939	37.03
226.157	39.08
226.375	286.89
226.592	-51.03
226.81	-1.88
227.028	94.38
227.246	133.29
227.464	75.95
227.682	88.23
227.9	110.76
228.117	106.67
228.335	73.9
228.553	34.99
228.771	28.84
228.989	80.04
229.206	-30.55
229.424	-3.93
229.642	55.47
229.86	-61.27
230.077	92.33
230.295	6.31
230.513	82.09
230.731	41.13
230.948	135.34
231.166	155.82
231.384	-3.93
231.601	28.84
231.819	108.71
232.037	18.6
232.254	-59.22
232.472	-20.31
232.689	-8.02
232.907	69.8
233.125	75.95
233.342	-5.97
233.56	67.75
233.777	-30.55
233.995	37.03
234.213	75.95
234.43	24.75
234.648	-24.4
234.865	26.79
235.083	98.47
235.3	55.47
235.518	67.75
235.735	63.66
235.953	26.79
236.17	110.76
236.388	108.71
236.605	49.32
236.822	86.19
237.04	233.64
237.257	77.99
237.475	-5.97
237.692	34.99
237.909	45.23
238.127	2.22
238.344	118.95
238.562	102.57
238.779	-28.5
238.996	-16.21
239.214	10.41
239.431	55.47
239.648	10.41
239.865	147.62
240.083	69.8
240.3	-30.55
240.517	125.1
240.735	55.47
240.952	108.71
241.169	61.61
241.386	73.9
241.603	77.99
241.821	-65.36
242.038	63.66
242.255	67.75
242.472	-18.26
242.689	16.55
242.907	125.1
243.124	90.28
243.341	69.8
243.558	-55.12
243.775	-30.55
243.992	-36.69
244.209	141.48
244.426	176.3
244.643	-18.26
244.86	45.23
245.078	71.85
245.295	94.38
245.512	20.65
245.729	-8.02
245.946	59.56
246.163	63.66
246.38	45.23
246.597	55.47
246.814	-32.6
247.031	57.51
247.248	26.79
247.464	125.1
247.681	26.79
247.898	57.51
248.115	94.38
248.332	34.99
248.549	139.43
248.766	180.39
248.983	67.75
249.2	18.6
249.417	180.39
249.633	49.32
249.85	77.99
250.067	39.08
250.284	18.6
250.501	82.09
250.717	94.38
250.934	12.46
251.151	0.17
251.368	39.08
251.585	0.17
251.801	129.19
252.018	37.03
252.235	92.33
252.451	-73.56
252.668	80.04
252.885	96.43
253.102	8.36
253.318	75.95
253.535	-14.17
253.752	82.09
253.968	-20.31
254.185	-65.36
254.401	86.19
254.618	30.89
254.835	-12.12
255.051	104.62
255.268	59.56
255.484	41.13
255.701	90.28
255.917	45.23
256.134	4.27
256.351	-10.07
256.567	-91.99
256.784	80.04
257	-81.75
257.217	184.49
257.433	55.47
257.65	26.79
257.866	133.29
258.082	-20.31
258.299	-32.6
258.515	20.65
258.732	-22.36
258.948	-40.79
259.165	125.1
259.381	-38.74
259.597	67.75
259.814	-18.26
260.03	67.75
260.246	30.89
260.463	129.19
260.679	137.38
260.895	-3.93
261.112	84.14
261.328	116.9
261.544	-42.84
261.761	137.38
261.977	4.27
262.193	-32.6
262.409	118.95
262.626	88.23
262.842	63.66
263.058	20.65
263.274	88.23
263.49	30.89
263.707	39.08
263.923	121
264.139	-32.6
264.355	90.28
264.571	194.73
264.787	82.09
265.004	129.19
265.22	67.75
265.436	0.17
265.652	-3.93
265.868	96.43
266.084	-102.23
266.3	67.75
266.516	-30.55
266.732	94.38
266.948	53.42
267.164	-5.97
267.38	106.67
267.596	84.14
267.812	137.38
268.028	75.95
268.244	30.89
268.46	82.09
268.676	-10.07
268.892	53.42
269.108	-57.17
269.324	-20.31
269.54	-85.84
269.756	59.56
269.972	43.18
270.188	55.47
270.403	-42.84
270.619	12.46
270.835	98.47
271.051	10.41
271.267	-10.07
271.483	39.08
271.698	108.71
271.914	100.52
272.13	106.67
272.346	-3.93
272.562	82.09
272.777	59.56
272.993	43.18
273.209	10.41
273.425	77.99
273.64	-8.02
273.856	106.67
274.072	-44.88
274.287	55.47
274.503	94.38
274.719	63.66
274.934	-1.88
275.15	-26.45
275.366	45.23
275.581	-79.7
275.797	-12.12
276.012	6.31
276.228	6.31
276.444	69.8
276.659	166.06
276.875	-69.46
277.09	55.47
277.306	-20.31
277.521	92.33
277.737	8.36
277.952	65.71
278.168	49.32
278.383	8.36
278.599	73.9
278.814	108.71
279.03	24.75
279.245	125.1
279.461	55.47
279.676	90.28
279.892	-91.99
280.107	-40.79
280.322	-46.93
280.538	67.75
280.753	8.36
280.969	77.99
281.184	92.33
281.399	184.49
281.615	-34.64
281.83	57.51
282.045	-130.9
282.26	18.6
282.476	8.36
282.691	114.86
282.906	30.89
283.122	34.99
283.337	-57.17
283.552	80.04
283.767	10.41
283.983	63.66
284.198	77.99
284.413	53.42
284.628	-108.37
284.843	30.89
285.058	65.71
285.274	41.13
285.489	-48.98
285.704	49.32
285.919	-8.02
286.134	-32.6
286.349	-24.4
286.564	2.22
286.779	94.38
286.995	32.94
287.21	-79.7
287.425	30.89
287.64	-1.88
287.855	32.94
288.07	-85.84
288.285	108.71
288.5	98.47
288.715	24.75
288.93	63.66
289.145	39.08
289.36	84.14
289.575	43.18
289.79	159.91
290.004	-32.6
290.219	129.19
290.434	20.65
290.649	-79.7
290.864	61.61
291.079	-28.5
291.294	41.13
291.509	77.99
291.724	20.65
291.938	-30.55
292.153	28.84
292.368	39.08
292.583	30.89
292.798	10.41
293.012	135.34
293.227	45.23
293.442	18.6
293.657	69.8
293.871	110.76
294.086	80.04
294.301	137.38
294.516	116.9
294.73	88.23
294.945	-28.5
295.16	-3.93
295.374	170.15
295.589	92.33
295.804	-24.4
296.018	55.47
296.233	209.06
296.447	6.31
296.662	43.18
296.877	30.89
297.091	102.57
297.306	37.03
297.52	22.7
297.735	37.03
297.949	55.47
298.164	16.55
298.378	73.9
298.593	-91.99
298.807	41.13
299.022	12.46
299.236	145.58
299.451	-1.88
299.665	75.95
299.88	-75.6
300.094	20.65
300.309	26.79
300.523	55.47
300.737	18.6
300.952	118.95
301.166	75.95
301.381	30.89
301.595	28.84
301.809	108.71
302.024	-53.08
302.238	-36.69
302.452	149.67
302.667	-48.98
302.881	61.61
303.095	155.82
303.309	47.27
303.524	0.17
303.738	-3.93
303.952	-26.45
304.166	16.55
304.381	-128.85
304.595	106.67
304.809	47.27
305.023	53.42
305.237	-10.07
305.452	2.22
305.666	-12.12
305.88	104.62
306.094	118.95
306.308	88.23
306.522	12.46
306.736	110.76
306.95	84.14
307.164	-1.88
307.379	22.7
307.593	137.38
307.807	94.38
308.021	22.7
308.235	45.23
308.449	-73.56
308.663	39.08
308.877	184.49
309.091	12.46
309.305	77.99
309.519	-53.08
309.733	104.62
309.947	-22.36
310.161	39.08
310.374	102.57
310.588	104.62
310.802	-20.31
311.016	12.46
311.23	84.14
311.444	-1.88
311.658	0.17
311.872	84.14
312.085	168.1
312.299	82.09
312.513	108.71
312.727	80.04
312.941	-59.22
313.154	43.18
313.368	34.99
313.582	61.61
313.796	41.13
314.009	43.18
314.223	92.33
314.437	61.61
314.651	61.61
314.864	-14.17
315.078	80.04
315.292	-48.98
315.505	114.86
315.719	51.37
315.933	32.94
316.146	18.6
316.36	12.46
316.573	209.06
316.787	100.52
317.001	45.23
317.214	-57.17
317.428	75.95
317.641	-96.08
317.855	-22.36
318.068	104.62
318.282	55.47
318.495	190.63
318.709	61.61
318.922	69.8
319.136	196.78
319.349	151.72
319.563	-3.93
319.776	69.8
319.99	-26.45
320.203	73.9
320.417	30.89
320.63	65.71
320.843	157.86
321.057	63.66
321.27	55.47
321.483	108.71
321.697	127.14
321.91	75.95
322.124	73.9
322.337	118.95
322.55	-5.97
322.763	-8.02
322.977	45.23
323.19	10.41
323.403	28.84
323.617	94.38
323.83	121
324.043	114.86
324.256	22.7
324.469	-38.74
324.683	57.51
324.896	112.81
325.109	22.7
325.322	-10.07
325.535	129.19
325.748	84.14
325.962	-18.26
326.175	127.14
326.388	123.05
326.601	123.05
326.814	51.37
327.027	34.99
327.24	170.15
327.453	-83.8
327.666	114.86
327.879	133.29
328.092	131.24
328.305	34.99
328.518	-20.31
328.731	-22.36
328.944	-22.36
329.157	51.37
329.37	69.8
329.583	202.92
329.796	108.71
330.009	-38.74
330.222	135.34
330.435	151.72
330.648	71.85
330.861	49.32
331.073	-10.07
331.286	123.05
331.499	100.52
331.712	2.22
331.925	104.62
332.138	45.23
332.35	53.42
332.563	-26.45
332.776	182.44
332.989	-14.17
333.202	53.42
333.414	0.17
333.627	82.09
333.84	0.17
334.053	45.23
334.265	-12.12
334.478	-12.12
334.691	61.61
334.903	121
335.116	39.08
335.329	-1.88
335.541	135.34
335.754	155.82
335.966	6.31
336.179	-22.36
336.392	4.27
336.604	6.31
336.817	67.75
337.029	106.67
337.242	39.08
337.454	80.04
337.667	16.55
337.88	151.72
338.092	65.71
338.305	-12.12
338.517	-24.4
338.729	49.32
338.942	147.62
339.154	-5.97
339.367	-71.51
339.579	106.67
339.792	-3.93
340.004	82.09
340.217	-8.02
340.429	149.67
340.641	34.99
340.854	-48.98
341.066	-12.12
341.278	125.1
341.491	241.83
341.703	65.71
341.915	-89.94
342.128	98.47
342.34	26.79
342.552	-30.55
342.764	6.31
342.977	-36.69
343.189	65.71
343.401	139.43
343.613	-85.84
343.826	28.84
344.038	-10.07
344.25	106.67
344.462	6.31
344.674	71.85
344.886	14.51
345.099	57.51
345.311	69.8
345.523	67.75
345.735	-139.09
345.947	22.7
346.159	22.7
346.371	69.8
346.583	-14.17
346.795	155.82
347.007	-3.93
347.219	94.38
347.431	20.65
347.643	116.9
347.855	-5.97
348.067	123.05
348.279	-53.08
348.491	71.85
348.703	86.19
348.915	43.18
349.127	-3.93
349.339	45.23
349.551	41.13
349.763	112.81
349.975	-12.12
350.187	57.51
350.399	133.29
350.61	92.33
350.822	8.36
351.034	114.86
351.246	-20.31
351.458	30.89
351.669	112.81
351.881	155.82
352.093	123.05
352.305	24.75
352.517	32.94
352.728	80.04
352.94	77.99
353.152	75.95
353.363	34.99
353.575	84.14
353.787	182.44
353.999	77.99
354.21	135.34
354.422	-57.17
354.633	-5.97
354.845	71.85
355.057	10.41
355.268	43.18
355.48	112.81
355.692	-98.13
355.903	49.32
356.115	43.18
356.326	-18.26
356.538	209.06
356.749	-3.93
356.961	112.81
357.172	-12.12
357.384	2.22
357.595	221.35
357.807	53.42
358.018	-63.32
358.23	88.23
358.441	147.62
358.653	121
358.864	28.84
359.075	-34.64
359.287	63.66
359.498	96.43
359.709	65.71
359.921	77.99
360.132	135.34
360.344	-24.4
360.555	14.51
360.766	10.41
360.977	-5.97
361.189	88.23
361.4	32.94
361.611	131.24
361.823	73.9
362.034	77.99
362.245	-94.04
362.456	88.23
362.667	92.33
362.879	10.41
363.09	133.29
363.301	77.99
363.512	-18.26
363.723	-12.12
363.935	63.66
364.146	96.43
364.357	-67.41
364.568	51.37
364.779	-116.56
364.99	192.68
365.201	-8.02
365.412	69.8
365.623	-40.79
365.834	80.04
366.045	14.51
366.256	80.04
366.467	125.1
366.678	14.51
366.889	53.42
367.1	-18.26
367.311	98.47
367.522	12.46
367.733	-16.21
367.944	43.18
368.155	127.14
368.366	125.1
368.577	123.05
368.788	137.38
368.999	-75.6
369.209	18.6
369.42	200.87
369.631	209.06
369.842	108.71
370.053	-1.88
370.264	127.14
370.474	-85.84
370.685	73.9
370.896	75.95
371.107	104.62
371.317	94.38
371.528	49.32
371.739	170.15
371.95	77.99
372.16	73.9
372.371	-36.69
372.582	-48.98
372.792	-32.6
373.003	10.41
373.214	86.19
373.424	86.19
373.635	-46.93
373.846	108.71
374.056	-30.55
374.267	92.33
374.477	98.47
374.688	-63.32
374.898	90.28
375.109	-10.07
375.319	65.71
375.53	73.9
375.74	118.95
375.951	-30.55
376.161	49.32
376.372	55.47
376.582	-5.97
376.793	96.43
377.003	8.36
377.214	84.14
377.424	102.57
377.635	63.66
377.845	12.46
378.055	114.86
378.266	-63.32
378.476	45.23
378.686	30.89
378.897	30.89
379.107	43.18
379.317	73.9
379.528	-1.88
379.738	61.61
379.948	-102.23
380.158	73.9
380.369	43.18
380.579	102.57
380.789	14.51
380.999	77.99
381.21	114.86
381.42	227.5
381.63	57.51
381.84	30.89
382.05	75.95
382.261	100.52
382.471	198.82
382.681	-40.79
382.891	121
383.101	22.7
383.311	-40.79
383.521	-14.17
383.731	86.19
383.941	18.6
384.151	20.65
384.361	73.9
384.571	96.43
384.781	96.43
384.991	161.96
385.201	137.38
385.411	30.89
385.621	39.08
385.831	45.23
386.041	45.23
386.251	75.95
386.461	92.33
386.671	-1.88
386.881	-5.97
387.091	24.75
387.301	98.47
387.511	51.37
387.72	108.71
387.93	94.38
388.14	-44.88
388.35	92.33
388.56	110.76
388.769	121
388.979	18.6
389.189	8.36
389.399	61.61
389.609	61.61
389.818	121
390.028	53.42
390.238	37.03
390.447	-20.31
390.657	82.09
390.867	34.99
391.076	-98.13
391.286	86.19
391.496	4.27
391.705	14.51
391.915	114.86
392.125	67.75
392.334	45.23
392.544	143.53
392.753	41.13
392.963	-57.17
393.172	86.19
393.382	114.86
393.591	137.38
393.801	49.32
394.01	121
394.22	112.81
394.429	-26.45
394.639	43.18
394.848	43.18
395.058	61.61
395.267	-51.03
395.477	104.62
395.686	53.42
395.895	129.19
396.105	204.97
396.314	47.27
396.524	84.14
396.733	41.13
396.942	67.75
397.152	49.32
397.361	159.91
397.57	84.14
397.78	-3.93
397.989	-40.79
398.198	102.57
398.407	43.18
398.617	34.99
398.826	37.03
399.035	6.31
399.244	125.1
399.453	53.42
399.663	104.62
399.872	86.19
400.081	-53.08
400.29	123.05
400.499	20.65
400.708	153.77
400.917	10.41
401.127	-34.64
401.336	-44.88
401.545	137.38
401.754	108.71
401.963	125.1
402.172	30.89
402.381	-14.17
402.59	8.36
402.799	45.23
403.008	110.76
403.217	51.37
403.426	153.77
403.635	-24.4
403.844	28.84
404.053	-12.12
404.262	-46.93
404.471	178.34
404.68	12.46
404.888	82.09
405.097	37.03
405.306	63.66
405.515	53.42
405.724	92.33
405.933	139.43
406.142	135.34
406.35	123.05
406.559	-1.88
406.768	96.43
406.977	129.19
407.185	137.38
407.394	102.57
407.603	-18.26
407.812	47.27
408.02	164.01
408.229	8.36
408.438	82.09
408.646	-100.18
408.855	-8.02
409.064	100.52
409.272	-1.88
409.481	133.29
409.69	10.41
409.898	28.84
410.107	63.66
410.315	147.62
410.524	41.13
410.733	30.89
410.941	67.75
411.15	118.95
411.358	34.99
411.567	104.62
411.775	10.41
411.984	77.99
412.192	84.14
412.401	55.47
412.609	166.06
412.818	178.34
413.026	-18.26
413.234	55.47
413.443	45.23
413.651	-16.21
413.86	-96.08
414.068	92.33
414.276	241.83
414.485	-10.07
414.693	153.77
414.901	112.81
415.11	61.61
415.318	67.75
415.526	20.65
415.734	84.14
415.943	96.43
416.151	73.9
416.359	10.41
416.567	133.29
416.776	59.56
416.984	92.33
417.192	207.02
417.4	51.37
417.608	-26.45
417.817	14.51
418.025	45.23
418.233	215.21
418.441	-3.93
418.649	20.65
418.857	92.33
419.065	164.01
419.273	-91.99
419.481	139.43
419.689	-20.31
419.897	-48.98
420.105	-3.93
420.313	51.37
420.521	112.81
420.729	98.47
420.937	39.08
421.145	-8.02
421.353	139.43
421.561	184.49
421.769	67.75
421.977	-46.93
422.185	155.82
422.393	32.94
422.601	121
422.809	86.19
423.017	-12.12
423.224	84.14
423.432	151.72
423.64	-36.69
423.848	114.86
424.056	-20.31
424.263	157.86
424.471	10.41
424.679	51.37
424.887	104.62
425.094	137.38
425.302	102.57
425.51	2.22
425.718	63.66
425.925	73.9
426.133	-3.93
426.341	192.68
426.548	30.89
426.756	65.71
426.964	8.36
427.171	-5.97
427.379	39.08
427.586	59.56
427.794	125.1
428.001	188.58
428.209	98.47
428.417	133.29
428.624	145.58
428.832	49.32
429.039	112.81
429.247	45.23
429.454	147.62
429.662	215.21
429.869	55.47
430.076	82.09
430.284	176.3
430.491	172.2
430.699	164.01
430.906	217.26
431.114	69.8
431.321	157.86
431.528	129.19
431.736	172.2
431.943	147.62
432.15	92.33
432.358	213.16
432.565	247.97
432.772	24.75
432.979	250.02
433.187	155.82
433.394	198.82
433.601	155.82
433.808	215.21
434.016	182.44
434.223	247.97
434.43	196.78
434.637	247.97
434.844	290.98
435.052	321.7
435.259	315.56
435.466	207.02
435.673	221.35
435.88	333.99
436.087	360.61
436.294	258.21
436.501	307.37
436.708	247.97
436.915	245.93
437.122	344.23
437.329	313.51
437.537	338.09
437.743	325.8
437.95	426.15
438.157	387.24
438.364	350.37
438.571	344.23
438.778	397.48
438.985	379.04
439.192	424.1
439.399	411.81
439.606	426.15
439.813	557.22
440.02	534.69
440.227	618.66
440.433	569.51
440.64	518.31
440.847	487.59
441.054	614.56
441.261	710.82
441.467	559.27
441.674	581.79
441.881	719.01
442.088	616.61
442.294	635.04
442.501	768.16
442.708	878.75
442.914	796.83
443.121	802.97
443.328	817.31
443.534	977.05
443.741	886.94
443.948	729.25
444.154	993.44
444.361	1071.26
444.568	979.1
444.774	1038.49
444.981	946.33
445.187	1077.4
445.394	1187.99
445.6	1161.37
445.807	1366.17
446.013	1292.44
446.22	1165.46
446.426	1388.69
446.633	1484.95
446.839	1601.68
447.046	1415.32
447.252	1589.39
447.459	1564.82
447.665	1579.15
447.871	1745.04
448.078	1777.81
448.284	1855.63
448.491	1960.08
448.697	2138.25
448.903	2128.01
449.11	2103.43
449.316	2072.72
449.522	2193.55
449.728	2439.3
449.935	2394.25
450.141	2406.53
450.347	2623.62
450.553	2556.04
450.76	2857.09
450.966	2801.79
451.172	3049.6
451.378	3156.09
451.584	3256.44
451.791	3387.51
451.997	3393.65
452.203	3563.64
452.409	3694.71
452.615	3831.92
452.821	3633.27
453.027	3784.82
453.233	4331.62
453.44	4132.97
453.646	4438.12
453.852	4481.13
454.058	4880.48
454.264	4931.68
454.47	5159
454.676	5077.09
454.882	5890.13
455.088	5527.64
455.294	5650.52
455.5	5996.62
455.705	6342.73
455.911	6561.86
456.117	6488.14
456.323	6875.2
456.529	6834.24
456.735	7516.22
456.941	7520.31
457.147	8099.89
457.352	8251.44
457.558	8388.65
457.764	8966.18
457.97	9191.45
458.176	9558.04
458.381	9984.02
458.587	10225.68
458.793	10594.31
458.999	10782.73
459.204	12017.65
459.41	12318.7
459.616	12206.06
459.821	12836.84
460.027	13473.76
460.233	14004.18
460.438	14131.16
460.644	14671.82
460.85	15196.1
461.055	15581.12
461.261	16560.05
461.466	16150.45
461.672	16551.85
461.878	18343.83
462.083	18110.36
462.289	18323.35
462.494	19326.85
462.7	19388.29
462.905	19451.78
463.111	21079.91
463.316	22259.54
463.522	22402.9
463.727	23385.93
463.932	24479.54
464.138	25192.23
464.343	26205.98
464.549	26527.51
464.754	28030.72
464.959	28821.23
465.165	29617.89
465.37	29224.68
465.575	29130.48
465.781	31192.78
465.986	32132.8
466.191	31801.03
466.397	32114.37
466.602	30963.41
466.807	32757.43
467.012	33619.63
467.218	34143.91
467.423	33971.88
467.628	34832.02
467.833	37133.94
468.038	36073.09
468.244	35657.35
468.449	37236.34
468.654	36605.56
468.859	36824.7
469.064	36867.7
469.269	35884.68
469.474	36079.24
469.679	36890.23
469.885	36058.76
470.09	36535.93
470.295	36968.05
470.5	35671.69
470.705	36302.46
470.91	35010.2
471.115	34672.28
471.32	35577.48
471.525	35174.03
471.73	34115.23
471.935	34244.26
472.139	33007.28
472.344	32870.07
472.549	32573.11
472.754	31629
472.959	31383.24
473.164	30299.87
473.369	29531.88
473.574	30729.94
473.778	29957.86
473.983	29742.82
474.188	28761.84
474.393	27766.53
474.598	27766.53
474.802	27029.26
475.007	26488.6
475.212	26332.95
475.417	25261.87
475.621	24997.68
475.826	24911.66
476.031	24190.78
476.235	23748.42
476.44	23779.14
476.645	23299.91
476.849	22902.61
477.054	22662.99
477.259	22349.65
477.463	22118.23
477.668	21507.94
477.872	21196.65
478.077	20858.73
478.282	20014.97
478.486	19949.43
478.691	19711.87
478.895	19474.31
479.1	19183.49
479.304	19523.46
479.509	18751.37
479.713	18827.15
479.918	18632.59
480.122	18231.19
480.326	18274.2
480.531	18315.16
480.735	17946.52
480.94	17837.98
481.144	18274.2
481.348	17731.48
481.553	17442.72
481.757	16897.96
481.961	17276.84
482.166	17383.33
482.37	17072.04
482.574	16484.27
482.778	16586.67
482.983	16764.84
483.187	16490.42
483.391	16433.07
483.595	16320.43
483.8	15812.54
484.004	15839.16
484.208	15767.48
484.412	15693.76
484.616	15429.57
484.821	15304.64
485.025	14809.03
485.229	15075.27
485.433	14604.24
485.637	14534.6
485.841	14479.31
486.045	14258.13
486.249	14055.38
486.453	13594.59
486.657	13582.3
486.861	13387.74
487.065	12980.2
487.269	13117.41
487.473	12472.3
487.677	12931.05
487.881	12881.89
488.085	12154.87
488.289	12070.9
488.493	11763.7
488.697	11737.08
488.901	11601.91
489.105	11159.55
489.309	10942.47
489.512	10823.69
489.716	10551.31
489.92	10323.98
490.124	10180.62
490.328	10201.1
490.531	9908.24
490.735	9758.74
490.939	9648.15
491.143	9201.69
491.346	9068.58
491.55	9087.01
491.754	9013.28
491.958	8742.95
492.161	8462.38
492.365	8448.04
492.569	8222.77
492.772	8044.59
492.976	8103.98
493.18	7929.91
493.383	7831.6
493.587	7618.61
493.79	7751.73
493.994	7245.88
494.197	7454.78
494.401	7542.84
494.605	7342.14
494.808	7295.04
495.012	7145.53
495.215	6944.83
495.419	7145.53
495.622	6727.75
495.825	6740.04
496.029	6787.14
496.232	6881.35
496.436	6666.31
496.639	6987.84
496.843	6619.21
497.046	6617.16
497.249	6815.81
497.453	6539.33
497.656	6529.1
497.859	6619.21
498.063	6600.77
498.266	6766.66
498.469	6518.86
498.673	6586.44
498.876	6551.62
499.079	6594.63
499.282	6611.01
499.485	6713.41
499.689	6617.16
499.892	6608.97
500.095	6668.36
500.298	6752.32
500.501	6606.92
500.705	6676.55
500.908	6910.02
501.111	6832.19
501.314	7002.18
501.517	7215.16
501.72	7002.18
501.923	7073.85
502.126	6996.03
502.329	7348.28
502.532	7170.11
502.735	7196.73
502.938	7514.17
503.141	7409.72
503.344	7565.37
503.547	7682.1
503.75	7643.19
503.953	7585.85
504.156	7878.71
504.359	7991.34
504.562	7845.94
504.765	8138.8
504.968	8210.48
505.17	8249.39
505.373	8378.41
505.576	8615.98
505.779	8849.44
505.982	8630.31
506.185	8988.71
506.387	8933.41
506.59	9256.99
506.793	9394.2
506.996	9130.02
507.198	9676.82
507.401	9822.23
507.604	9709.59
507.807	9988.11
508.009	10262.54
508.212	10401.8
508.415	10676.23
508.617	10622.98
508.82	10995.71
509.022	10977.28
509.225	11421.69
509.428	11606.01
509.63	12017.65
509.833	12003.32
510.035	12652.52
510.238	12494.83
510.44	12820.46
510.643	13150.18
510.845	13701.08
511.048	13422.56
511.25	13957.08
511.453	14264.27
511.655	14581.71
511.858	14784.46
512.06	15062.98
512.262	15261.63
512.465	15511.49
512.667	16070.58
512.87	16482.22
513.072	16553.9
513.274	17145.77
513.477	17223.59
513.679	17799.07
513.881	17911.71
514.084	18460.56
514.286	18950.03
514.488	19236.74
514.69	19918.71
514.893	20221.81
515.095	20475.76
515.297	21159.78
515.499	21004.14
515.701	21694.3
515.904	22271.83
516.106	22597.46
516.308	23252.81
516.51	23629.63
516.712	23914.3
516.914	24459.06
517.116	24956.72
517.318	25169.71
517.52	25431.85
517.722	25894.69
517.925	26785.55
518.127	27432.71
518.329	27557.64
518.531	27395.85
518.733	28262.14
518.935	28694.26
519.136	28954.35
519.338	29540.07
519.54	30138.08
519.742	30465.75
519.944	30672.6
520.146	31579.85
520.348	31794.89
520.55	32114.37
520.752	31987.39
520.954	33134.26
521.155	33132.21
521.357	33943.2
521.559	34070.18
521.761	34555.55
521.963	34500.25
522.164	34641.56
522.366	34899.61
522.568	35753.61
522.77	35759.75
522.971	36202.11
523.173	35952.26
523.375	36611.71
523.576	36591.23
523.778	36353.66
523.98	37224.05
524.181	36986.49
524.383	37121.65
524.584	37199.48
524.786	37271.15
524.988	37070.45
525.189	37695.08
525.391	37365.36
525.592	37215.86
525.794	37328.5
525.995	37285.49
526.197	37174.9
526.398	37580.4
526.6	37363.31
526.801	37351.02
527.003	37072.5
527.204	36818.55
527.406	37097.08
527.607	36648.57
527.808	36904.57
528.01	36126.34
528.211	36413.06
528.412	36540.03
528.614	36013.7
528.815	35696.27
529.016	35763.85
529.218	34709.15
529.419	34780.82
529.62	34492.06
529.822	34127.52
530.023	33533.61
530.224	33177.26
530.425	33195.7
530.626	32483
530.828	32247.49
531.029	32366.27
531.23	31964.87
531.431	31383.24
531.632	31252.17
531.833	30766.81
532.035	30265.05
532.236	29918.95
532.437	29947.62
532.638	29247.21
532.839	29138.67
533.04	28849.91
533.241	28065.53
533.442	28292.86
533.643	27477.77
533.844	27156.24
534.045	27006.73
534.246	26308.38
534.447	26259.23
534.648	25550.63
534.849	25732.9
535.05	24833.84
535.251	24536.88
535.451	24469.3
535.652	24037.18
535.853	23914.3
536.054	23697.22
536.255	23191.37
536.456	22605.65
536.657	22583.12
536.857	22067.03
537.058	21911.39
537.259	21821.28
537.46	21393.25
537.66	20686.7
537.861	20774.77
538.062	20506.48
538.263	20137.85
538.463	19742.59
538.664	19625.86
538.865	19515.26
539.065	19343.24
539.266	18943.88
539.466	19009.42
539.667	18448.27
539.868	18229.14
540.068	18155.41
540.269	17923.99
540.469	17835.93
540.67	17383.33
540.87	17125.29
541.071	16859.05
541.271	17045.41
541.472	16582.57
541.672	16377.78
541.873	16115.64
542.073	16046.01
542.274	15953.85
542.474	15871.93
542.675	15370.18
542.875	15464.38
543.075	15122.37
543.276	14962.63
543.476	15122.37
543.676	14692.3
543.877	14469.07
544.077	14448.59
544.277	14305.23
544.478	14129.11
544.678	14000.09
544.878	13783
545.078	13629.4
545.279	13410.27
545.479	13289.44
545.679	13293.54
545.879	13006.82
546.079	13060.07
546.28	12607.47
546.48	12337.13
546.68	12525.55
546.88	12167.15
547.08	12212.21
547.28	11806.71
547.48	11681.78
547.68	11819
547.88	11442.17
548.081	11612.15
548.281	11036.67
548.481	11210.75
548.681	11110.4
548.881	10993.67
549.081	10629.13
549.28	10319.89
549.48	10457.1
549.68	10160.14
549.88	10307.6
550.08	9898
550.28	9904.15
550.48	10016.79
550.68	9508.89
550.88	9410.59
551.08	9377.82
551.279	9275.42
551.479	8988.71
551.679	9066.53
551.879	8710.18
552.079	8853.54
552.278	8523.82
552.478	8491.05
552.678	8214.57
552.878	8319.02
553.077	7972.91
553.277	7895.09
553.477	7821.36
553.676	7696.44
553.876	7483.45
554.076	7508.02
554.275	7430.2
554.475	7176.25
554.674	7297.08
554.874	6891.59
555.074	6660.17
555.273	6840.39
555.473	6729.8
555.672	6469.7
555.872	6467.66
556.071	6357.07
556.271	6359.11
556.47	6348.87
556.67	6053.97
556.869	6060.11
557.068	5902.42
557.268	5806.16
557.467	5701.72
557.667	5681.24
557.866	5507.16
558.065	5300.31
558.265	5249.11
558.464	5036.13
558.663	5238.87
558.863	5142.62
559.062	5054.56
559.261	4927.58
559.461	4849.76
559.66	4886.62
559.859	4585.57
560.058	4561
560.258	4380.78
560.457	4624.48
560.656	4536.42
560.855	4257.9
561.054	4403.3
561.253	4280.43
561.453	4391.02
561.652	4063.34
561.851	4061.29
562.05	3807.34
562.249	3876.98
562.448	3838.06
562.647	3711.09
562.846	3719.28
563.045	3911.79
563.244	3743.86
563.443	3661.94
563.642	3545.2
563.841	3487.86
564.04	3430.52
564.239	3346.55
564.438	3285.11
564.637	3147.9
564.836	3364.98
565.035	3086.46
565.234	3149.95
565.432	3119.23
565.631	3133.56
565.83	3143.8
566.029	2875.52
566.228	3014.78
566.427	3031.16
566.625	2781.31
566.824	2846.85
567.023	2885.76
567.222	2662.53
567.42	2793.6
567.619	2617.47
567.818	2584.71
568.016	2754.69
568.215	2551.94
568.414	2568.32
568.612	2515.08
568.811	2470.02
569.01	2445.45
569.208	2361.48
569.407	2390.15
569.605	2302.09
569.804	2140.3
570.002	2285.7
570.201	2248.84
570.4	2242.7
570.598	2259.08
570.797	2099.34
570.995	2052.24
571.193	1980.56
571.392	2166.92
571.59	1880.21
571.789	1974.41
571.987	1958.03
572.186	2015.37
572.384	1904.78
572.582	1798.29
572.781	1968.27
572.979	1747.09
573.177	1814.67
573.376	1783.95
573.574	1757.33
573.772	1638.55
573.971	1611.92
574.169	1556.63
574.367	1683.6
574.565	1577.11
574.763	1585.3
574.962	1493.14
575.16	1673.36
575.358	1425.56
575.556	1470.61
575.754	1495.19
575.952	1472.66
576.151	1427.6
576.349	1487
576.547	1208.47
576.745	1337.49
576.943	1409.17
577.141	1323.16
577.339	1208.47
577.537	1319.06
577.735	1276.06
577.933	1171.61
578.131	1218.71
578.329	1267.86
578.527	1181.85
578.725	1312.92
578.923	1058.97
579.121	1187.99
579.319	882.85
579.516	1083.55
579.714	1339.54
579.912	1040.54
580.11	1005.72
580.308	929.95
580.506	962.72
580.704	870.56
580.901	878.75
581.099	1026.2
581.297	929.95
581.495	1056.92
581.692	913.56
581.89	1075.35
582.088	880.8
582.285	929.95
582.483	825.5
582.681	741.54
582.878	819.36
583.076	858.27
583.274	862.37
583.471	944.28
583.669	772.25
583.866	759.97
584.064	823.45
584.262	684.19
584.459	667.81
584.657	800.93
584.854	780.45
585.052	821.41
585.249	716.96
585.447	671.9
585.644	665.76
585.841	786.59
586.039	702.62
586.236	835.74
586.434	596.13
586.631	661.66
586.828	657.57
587.026	708.77
587.223	587.94
587.42	585.89
587.618	667.81
587.815	688.29
588.012	616.61
588.21	542.88
588.407	630.95
588.604	649.38
588.801	532.64
588.999	495.78
589.196	612.51
589.393	565.41
589.59	571.55
589.787	559.27
589.984	618.66
590.182	608.42
590.379	542.88
590.576	598.18
590.773	518.31
590.97	512.16
591.167	549.03
591.364	602.27
591.561	473.25
591.758	583.84
591.955	524.45
592.152	477.35
592.349	559.27
592.546	417.96
592.743	499.88
592.94	514.21
593.137	583.84
593.334	569.51
593.531	594.08
593.727	553.12
593.924	657.57
594.121	600.23
594.318	485.54
594.515	637.09
594.712	649.38
594.908	694.43
595.105	411.81
595.302	641.18
595.499	549.03
595.696	796.83
595.892	555.17
596.089	678.05
596.286	620.71
596.482	704.67
596.679	708.77
596.876	596.13
597.072	663.71
597.269	651.42
597.466	747.68
597.662	741.54
597.859	731.3
598.055	850.08
598.252	860.32
598.448	915.61
598.645	932
598.841	1009.82
599.038	1091.74
599.234	1112.22
599.431	1077.4
599.627	1099.93
599.824	1114.27
600.02	1136.79
600.217	1204.38
600.413	1261.72
600.609	1210.52
600.806	1550.48
601.002	1452.18
601.198	1347.73
601.395	1573.01
601.591	1540.24
601.787	1503.38
601.984	1691.79
602.18	1790.1
602.376	1865.87
602.572	1845.39
602.769	1992.84
602.965	2042
603.161	2181.26
603.357	2199.69
603.553	2269.32
603.75	2400.39
603.946	2396.29
604.142	2523.27
604.338	2660.48
604.534	2672.77
604.73	2703.49
604.926	2824.32
605.122	3008.64
605.318	2826.37
605.514	3182.71
605.71	3317.88
605.906	3407.99
606.102	3293.3
606.298	3502.2
606.494	3737.71
606.69	3836.02
606.886	3776.63
607.082	3952.75
607.278	4036.72
607.474	4202.6
607.67	4223.08
607.866	4448.36
608.062	4647.01
608.257	4577.38
608.453	4720.74
608.649	4843.62
608.845	5011.55
609.041	5113.95
609.236	5408.86
609.432	5312.6
609.628	5826.64
609.824	5775.44
610.019	5879.89
610.215	6187.08
610.411	6373.45
610.606	6621.25
610.802	6541.38
610.998	6705.22
611.193	6944.83
611.389	7053.38
611.584	7335.99
611.78	7305.28
611.976	7874.61
612.171	8063.02
612.367	8134.7
612.562	8269.87
612.758	8392.75
612.953	8624.17
613.149	9072.67
613.344	9254.94
613.539	9582.62
613.735	9691.16
613.93	9834.52
614.126	10110.99
614.321	10749.96
614.517	10913.8
614.712	11034.63
614.907	11212.8
615.103	11786.23
615.298	11819
615.493	12468.2
615.688	12521.45
615.884	13137.89
616.079	12847.08
616.274	13596.64
616.47	13440.99
616.665	14282.7
616.86	14540.75
617.055	14657.48
617.25	15316.93
617.445	15577.02
617.641	15708.09
617.836	16390.06
618.031	16398.26
618.226	17330.08
618.421	17495.97
618.616	18005.91
618.811	18235.28
619.006	19027.85
619.201	19189.64
619.396	19793.79
619.591	19586.94
619.786	20744.05
619.981	20811.63
620.176	21784.41
620.371	21778.27
620.566	22038.36
620.761	22716.24
620.956	23478.08
621.151	23648.07
621.346	24002.36
621.541	24059.71
621.735	25229.1
621.93	25020.2
622.125	25806.62
622.32	26042.14
622.515	27019.02
622.709	27313.93
622.904	27924.22
623.099	28296.95
623.294	28948.21
623.488	29476.58
623.683	29646.57
623.878	30267.1
624.072	30961.36
624.267	31495.88
624.462	31428.3
624.656	32014.02
624.851	32755.38
625.046	33042.1
625.24	33611.43
625.435	34064.03
625.629	34680.47
625.824	35028.63
626.018	35559.05
626.213	34977.43
626.407	36195.97
626.602	36425.34
626.796	37105.27
626.991	37615.21
627.185	37889.64
627.38	37928.55
627.574	38221.41
627.768	38379.11
627.963	38458.98
628.157	38829.66
628.352	38940.25
628.546	38643.29
628.74	39437.9
628.935	38770.27
629.129	39161.43
629.323	38815.32
629.517	38526.56
629.712	38127.2
629.906	38004.33
630.1	37529.2
630.294	37703.28
630.489	36875.9
630.683	36970.1
630.877	35784.33
631.071	35677.83
631.265	35192.47
631.459	34414.24
631.653	33801.89
631.848	32722.62
632.042	32278.21
632.236	31600.33
632.43	30312.16
632.624	30150.37
632.818	29046.51
633.012	28274.43
633.206	27352.84
633.4	26482.45
633.594	25552.68
633.788	25040.68
633.982	24041.28
634.176	23445.32
634.369	22032.22
634.563	21639.01
634.757	20402.04
634.951	20057.98
635.145	19101.58
635.339	18646.93
635.533	17842.07
635.726	16834.47
635.92	16095.16
636.114	15593.4
636.308	14950.34
636.501	14501.84
636.695	13932.5
636.889	13271.01
637.083	12763.11
637.276	12236.78
637.47	11720.7
637.664	11139.07
637.857	10803.21
638.051	10502.15
638.244	9818.13
638.438	9709.59
638.632	9429.02
638.825	8654.89
639.019	8638.5
639.212	8171.57
639.406	7825.46
639.599	7600.18
639.793	7354.43
639.986	6955.07
640.18	6914.11
640.373	6670.4
640.567	6195.28
640.76	6033.49
640.954	5763.15
641.147	5490.77
641.34	5314.65
641.534	5126.24
641.727	4886.62
641.92	4743.27
642.114	4677.73
642.307	4302.95
642.5	4233.32
642.694	3983.47
642.887	3919.98
643.08	4040.81
643.273	3594.36
643.467	3471.48
643.66	3309.69
643.853	3186.81
644.046	3160.19
644.239	3031.16
644.432	2867.33
644.626	2732.16
644.819	2644.1
645.012	2455.69
645.205	2459.78
645.398	2347.14
645.591	2361.48
645.784	2216.07
645.977	2072.72
646.17	2076.81
646.363	1994.89
646.556	1919.12
646.749	1716.37
646.942	1863.82
647.135	1714.32
647.328	1642.64
647.521	1599.63
647.714	1464.47
647.907	1480.85
648.099	1366.17
648.292	1437.84
648.485	1394.84
648.678	1284.25
648.871	1233.05
649.064	1108.12
649.256	1136.79
649.449	1015.96
649.642	940.19
649.835	934.04
650.027	950.43
650.22	1114.27
650.413	827.55
650.605	878.75
650.798	802.97
650.991	755.87
651.183	766.11
651.376	780.45
651.568	676
651.761	649.38
651.954	708.77
652.146	585.89
652.339	809.12
652.531	669.86
652.724	573.6
652.916	587.94
653.109	417.96
653.301	632.99
653.494	553.12
653.686	520.35
653.879	604.32
654.071	469.16
654.263	444.58
654.456	409.76
654.648	536.74
654.84	473.25
655.033	348.33
655.225	487.59
655.417	389.28
655.61	479.4
655.802	383.14
655.994	510.11
656.186	254.12
656.379	483.49
656.571	280.74
656.763	301.22
656.955	311.46
657.148	276.65
657.34	434.34
657.532	184.49
657.724	260.26
657.916	260.26
658.108	319.65
658.3	358.57
658.492	286.89
658.684	239.78
658.876	323.75
659.068	129.19
659.26	164.01
659.452	194.73
659.644	342.18
659.836	340.13
660.028	196.78
660.22	194.73
660.412	225.45
660.604	131.24
660.796	254.12
660.988	317.61
661.18	221.35
661.372	268.45
661.563	309.41
661.755	190.63
661.947	145.58
662.139	164.01
662.331	204.97
662.522	164.01
662.714	125.1
662.906	57.51
663.097	137.38
663.289	96.43
663.481	59.56
663.673	200.87
663.864	166.06
664.056	233.64
664.247	170.15
664.439	233.64
664.631	188.58
664.822	217.26
665.014	129.19
665.205	104.62
665.397	106.67
665.588	94.38
665.78	157.86
665.971	200.87
666.163	170.15
666.354	192.68
666.546	139.43
666.737	121
666.929	75.95
667.12	-30.55
667.311	176.3
667.503	143.53
667.694	243.88
667.885	106.67
668.077	247.97
668.268	69.8
668.459	92.33
668.651	137.38
668.842	184.49
669.033	45.23
669.224	98.47
669.416	301.22
669.607	141.48
669.798	141.48
669.989	252.07
670.18	110.76
670.371	161.96
670.563	8.36
670.754	219.3
670.945	143.53
671.136	211.11
671.327	149.67
671.518	170.15
671.709	272.55
671.9	127.14
672.091	282.79
672.282	172.2
672.473	188.58
672.664	26.79
672.855	88.23
673.046	161.96
673.237	139.43
673.428	92.33
673.619	198.82
673.809	125.1
674	215.21
674.191	149.67
674.382	30.89
674.573	118.95
674.764	161.96
674.954	180.39
675.145	96.43
675.336	112.81
675.527	94.38
675.717	164.01
675.908	71.85
676.099	90.28
676.289	92.33
676.48	108.71
676.671	104.62
676.861	104.62
677.052	135.34
677.243	121
677.433	159.91
677.624	233.64
677.814	233.64
678.005	184.49
678.195	252.07
678.386	47.27
678.576	153.77
678.767	57.51
678.957	127.14
679.148	182.44
679.338	198.82
679.529	145.58
679.719	143.53
679.909	161.96
680.1	219.3
680.29	139.43
680.481	30.89
680.671	202.92
680.861	151.72
681.052	139.43
681.242	116.9
681.432	262.31
681.622	186.54
681.813	18.6
682.003	186.54
682.193	10.41
682.383	194.73
682.573	80.04
682.764	100.52
682.954	217.26
683.144	266.41
683.334	88.23
683.524	227.5
683.714	178.34
683.904	145.58
684.094	104.62
684.284	155.82
684.474	196.78
684.664	190.63
684.854	188.58
685.044	153.77
685.234	164.01
685.424	131.24
685.614	196.78
685.804	331.94
685.994	137.38
686.184	149.67
686.374	155.82
686.564	153.77
686.753	176.3
686.943	67.75
687.133	100.52
687.323	178.34
687.513	219.3
687.702	149.67
687.892	73.9
688.082	239.78
688.272	239.78
688.461	131.24
688.651	295.08
688.841	299.17
689.03	159.91
689.22	145.58
689.41	184.49
689.599	172.2
689.789	112.81
689.979	270.5
690.168	188.58
690.358	149.67
690.547	186.54
690.737	225.45
690.926	211.11
691.116	223.4
691.305	225.45
691.495	196.78
691.684	172.2
691.874	166.06
692.063	153.77
692.252	299.17
692.442	192.68
692.631	153.77
692.82	168.1
693.01	243.88
693.199	80.04
693.388	180.39
693.578	176.3
693.767	233.64
693.956	151.72
694.146	121
694.335	164.01
694.524	170.15
694.713	190.63
694.902	131.24
695.092	123.05
695.281	225.45
695.47	137.38
695.659	168.1
695.848	149.67
696.037	39.08
696.226	153.77
696.415	125.1
696.604	209.06
696.793	252.07
696.982	114.86
697.171	252.07
697.36	73.9
697.549	141.48
697.738	149.67
697.927	147.62
698.116	43.18
698.305	114.86
698.494	137.38
698.683	137.38
698.872	301.22
699.061	116.9
699.25	114.86
699.438	127.14
699.627	135.34
699.816	284.84
700.005	39.08
700.193	110.76
700.382	252.07
700.571	235.69
700.76	182.44
700.948	290.98
701.137	227.5
701.326	215.21
701.514	55.47
701.703	194.73
701.892	143.53
702.08	323.75
702.269	88.23
702.457	106.67
702.646	200.87
702.834	227.5
703.023	196.78
703.212	200.87
703.4	172.2
703.589	73.9
703.777	127.14
703.965	131.24
704.154	143.53
704.342	90.28
704.531	125.1
704.719	141.48
704.907	207.02
705.096	82.09
705.284	106.67
705.472	90.28
705.661	170.15
705.849	188.58
706.037	252.07
706.226	141.48
706.414	133.29
706.602	57.51
706.79	149.67
706.979	110.76
707.167	188.58
707.355	18.6
707.543	184.49
707.731	139.43
707.919	137.38
708.107	161.96
708.296	133.29
708.484	94.38
708.672	104.62
708.86	147.62
709.048	145.58
709.236	137.38
709.424	172.2
709.612	139.43
709.8	43.18
709.988	86.19
710.176	174.25
710.364	170.15
710.551	147.62
710.739	125.1
710.927	145.58
711.115	153.77
711.303	237.74
711.491	211.11
711.679	51.37
711.866	241.83
712.054	96.43
712.242	260.26
712.43	176.3
712.617	129.19
712.805	297.13
712.993	159.91
713.181	34.99
713.368	223.4
713.556	121
713.744	104.62
713.931	256.17
714.119	116.9
714.306	198.82
714.494	69.8
714.682	196.78
714.869	41.13
715.057	59.56
715.244	135.34
715.432	168.1
715.619	121
715.807	168.1
715.994	168.1
716.182	213.16
716.369	180.39
716.556	209.06
716.744	47.27
716.931	28.84
717.119	170.15
717.306	131.24
717.493	184.49
717.681	170.15
717.868	192.68
718.055	129.19
718.242	61.61
718.43	170.15
718.617	186.54
718.804	155.82
718.991	207.02
719.179	204.97
719.366	180.39
719.553	264.36
719.74	110.76
719.927	198.82
720.114	194.73
720.301	88.23
720.488	176.3
720.676	137.38
720.863	233.64
721.05	252.07
721.237	135.34
721.424	290.98
721.611	213.16
721.798	77.99
721.985	133.29
722.172	118.95
722.358	182.44
722.545	293.03
722.732	194.73
722.919	245.93
723.106	108.71
723.293	221.35
723.48	196.78
723.667	112.81
723.853	256.17
724.04	174.25
724.227	286.89
724.414	139.43
724.6	188.58
724.787	239.78
724.974	338.09
725.161	157.86
725.347	123.05
725.534	266.41
725.72	170.15
725.907	186.54
726.094	245.93
726.28	190.63
726.467	168.1
726.653	182.44
726.84	401.57
727.027	319.65
727.213	137.38
727.4	266.41
727.586	225.45
727.773	225.45
727.959	280.74
728.145	274.6
728.332	237.74
728.518	149.67
728.705	311.46
728.891	282.79
729.077	319.65
729.264	155.82
729.45	270.5
729.636	299.17
729.823	258.21
730.009	303.27
730.195	231.59
730.382	295.08
730.568	153.77
730.754	200.87
730.94	217.26
731.126	333.99
731.313	227.5
731.499	245.93
731.685	409.76
731.871	286.89
732.057	258.21
732.243	346.28
732.429	209.06
732.615	325.8
732.801	370.85
732.987	231.59
733.173	280.74
733.359	168.1
733.545	223.4
733.731	260.26
733.917	317.61
734.103	391.33
734.289	336.04
734.475	278.69
734.661	366.76
734.847	262.31
735.033	307.37
735.219	370.85
735.404	286.89
735.59	213.16
735.776	288.93
735.962	297.13
736.148	311.46
736.333	403.62
736.519	262.31
736.705	288.93
736.89	272.55
737.076	229.54
737.262	227.5
737.447	145.58
737.633	209.06
737.819	327.85
738.004	321.7
738.19	311.46
738.375	237.74
738.561	264.36
738.747	325.8
738.932	202.92
739.118	422.05
739.303	366.76
739.489	260.26
739.674	288.93
739.859	225.45
740.045	346.28
740.23	274.6
740.416	127.14
740.601	319.65
740.786	311.46
740.972	155.82
741.157	290.98
741.342	239.78
741.528	178.34
741.713	364.71
741.898	262.31
742.084	297.13
742.269	202.92
742.454	364.71
742.639	346.28
742.824	247.97
743.01	333.99
743.195	323.75
743.38	282.79
743.565	327.85
743.75	239.78
743.935	239.78
744.12	381.09
744.305	145.58
744.49	264.36
744.675	288.93
744.86	301.22
745.045	305.32
745.23	250.02
745.415	188.58
745.6	395.43
745.785	241.83
745.97	346.28
746.155	327.85
746.34	282.79
746.525	295.08
746.71	356.52
746.895	180.39
747.079	297.13
747.264	284.84
747.449	354.47
747.634	356.52
747.819	299.17
748.003	211.11
748.188	260.26
748.373	288.93
748.557	272.55
748.742	196.78
748.927	340.13
749.111	237.74
749.296	215.21
749.481	295.08
749.665	209.06
749.85	233.64
750.034	272.55
750.219	252.07
750.404	299.17
750.588	284.84
750.773	233.64
750.957	200.87
751.141	174.25
751.326	282.79
751.51	141.48
751.695	202.92
751.879	223.4
752.064	323.75
752.248	211.11
752.432	311.46
752.617	286.89
752.801	389.28
752.985	139.43
753.17	348.33
753.354	293.03
753.538	229.54
753.722	108.71
753.907	168.1
754.091	176.3
754.275	299.17
754.459	118.95
754.643	194.73
754.828	268.45
755.012	223.4
755.196	96.43
755.38	250.02
755.564	155.82
755.748	200.87
755.932	245.93
756.116	243.88
756.3	262.31
756.484	237.74
756.668	295.08
756.852	65.71
757.036	170.15
757.22	157.86
757.404	141.48
757.588	186.54
757.772	168.1
757.956	110.76
758.14	276.65
758.323	118.95
758.507	127.14
758.691	147.62
758.875	143.53
759.059	237.74
759.242	227.5
759.426	137.38
759.61	135.34
759.794	118.95
759.977	196.78
760.161	422.05
760.345	188.58
760.528	227.5
760.712	164.01
760.895	176.3
761.079	172.2
761.263	96.43
761.446	12.46
761.63	247.97
761.813	270.5
761.997	20.65
762.18	116.9
762.364	170.15
762.547	65.71
762.731	194.73
762.914	133.29
763.098	131.24
763.281	157.86
763.464	125.1
763.648	129.19
763.831	155.82
764.015	67.75
764.198	159.91
764.381	225.45
764.564	258.21
764.748	170.15
764.931	174.25
765.114	153.77
765.297	209.06
765.481	102.57
765.664	129.19
765.847	16.55
766.03	258.21
766.213	43.18
766.397	141.48
766.58	30.89
766.763	196.78
766.946	129.19
767.129	127.14
767.312	22.7
767.495	80.04
767.678	4.27
767.861	133.29
768.044	80.04
768.227	84.14
768.41	196.78
768.593	172.2
768.776	139.43
768.959	118.95
769.142	272.55
769.324	67.75
769.507	61.61
769.69	41.13
769.873	100.52
770.056	286.89
770.239	65.71
770.421	178.34
770.604	225.45
770.787	129.19
770.97	172.2
771.152	43.18
771.335	247.97
771.518	106.67
771.7	196.78
771.883	145.58
772.066	168.1
772.248	55.47
772.431	247.97
772.613	164.01
772.796	125.1
772.978	121
773.161	219.3
773.343	112.81
773.526	100.52
773.708	-36.69
773.891	0.17
774.073	69.8
774.256	45.23
774.438	194.73
774.621	145.58
774.803	155.82
774.985	164.01
775.168	190.63
775.35	37.03
775.532	161.96
775.715	127.14
775.897	137.38
776.079	34.99
776.261	127.14
776.444	43.18
776.626	71.85
776.808	65.71
776.99	12.46
777.173	84.14
777.355	63.66
777.537	65.71
777.719	88.23
777.901	51.37
778.083	24.75
778.265	-8.02
778.447	12.46
778.629	37.03
778.811	82.09
778.993	133.29
779.175	153.77
779.357	131.24
779.539	-36.69
779.721	82.09
779.903	135.34
780.085	51.37
780.267	110.76
780.449	28.84
780.631	182.44
780.812	131.24
780.994	84.14
781.176	22.7
781.358	2.22
781.54	22.7
781.721	194.73
781.903	164.01
782.085	106.67
782.267	200.87
782.448	-69.46
782.63	8.36
782.812	121
782.993	141.48
783.175	127.14
783.357	34.99
783.538	71.85
783.72	-24.4
783.901	6.31
784.083	82.09
784.264	71.85
784.446	0.17
784.627	-73.56
784.809	77.99
784.99	-51.03
785.172	30.89
785.353	14.51
785.535	121
785.716	-10.07
785.897	-46.93
786.079	49.32
786.26	6.31
786.441	116.9
786.623	-8.02
786.804	-22.36
786.985	65.71
787.167	125.1
787.348	55.47
787.529	137.38
787.71	168.1
787.891	18.6
788.073	28.84
788.254	-73.56
788.435	63.66
788.616	110.76
788.797	65.71
788.978	22.7
789.159	75.95
789.34	53.42
789.522	61.61
789.703	49.32
789.884	47.27
790.065	59.56
790.246	176.3
790.427	-18.26
790.607	161.96
790.788	102.57
790.969	34.99
791.15	80.04
791.331	-20.31
791.512	2.22
791.693	-10.07
791.874	24.75
792.054	233.64
792.235	49.32
792.416	24.75
792.597	-16.21
792.778	49.32
792.958	43.18
793.139	22.7
793.32	43.18
793.5	-106.32
793.681	59.56
793.862	6.31
794.042	34.99
794.223	-26.45
794.404	20.65
794.584	-102.23
794.765	8.36
794.945	-5.97
795.126	125.1
795.306	43.18
795.487	-24.4
795.667	-38.74
795.848	8.36
796.028	-38.74
796.209	8.36
796.389	-14.17
796.57	65.71
796.75	-46.93
796.93	63.66
797.111	37.03
797.291	-14.17
797.471	129.19
797.652	8.36
797.832	-14.17
798.012	96.43
798.192	-5.97
798.373	-55.12
798.553	16.55
798.733	116.9
798.913	71.85
799.093	2.22
799.274	2.22
799.454	69.8
799.634	22.7
799.814	96.43
799.994	121
800.174	51.37
800.354	-1.88
800.534	-69.46
800.714	92.33
800.894	-12.12
801.074	-73.56
801.254	18.6
801.434	82.09
801.614	-20.31
801.794	-12.12
801.974	2029.71
802.154	20.65
802.334	55.47
802.514	-53.08
802.693	-10.07
802.873	90.28
803.053	186.54
803.233	43.18
803.413	22.7
803.592	80.04
803.772	-8.02
803.952	45.23
804.131	-91.99
804.311	131.24
804.491	112.81
804.67	-120.66
804.85	-24.4
805.03	-26.45
805.209	104.62
805.389	-61.27
805.568	34.99
805.748	22.7
805.928	-5.97
806.107	59.56
806.287	98.47
806.466	94.38
806.646	-12.12
806.825	22.7
807.004	-42.84
807.184	10.41
807.363	92.33
807.543	41.13
807.722	-53.08
807.901	112.81
808.081	57.51
808.26	-108.37
808.439	51.37
808.619	43.18
808.798	8.36
808.977	18.6
809.156	164.01
809.336	6.31
809.515	-24.4
809.694	-57.17
809.873	-18.26
810.052	59.56
810.231	114.86
810.411	37.03
810.59	80.04
810.769	30.89
810.948	63.66
811.127	-157.52
811.306	-10.07
811.485	-18.26
811.664	135.34
811.843	-59.22
812.022	24.75
812.201	4.27
812.38	-16.21
812.559	-36.69
812.737	59.56
812.916	-85.84
813.095	-12.12
813.274	63.66
813.453	82.09
813.632	133.29
813.811	129.19
813.989	-28.5
814.168	10.41
814.347	-75.6
814.526	2.22
814.704	114.86
814.883	131.24
815.062	14.51
815.24	37.03
815.419	-44.88
815.598	39.08
815.776	-57.17
815.955	-63.32
816.133	-81.75
816.312	73.9
816.49	-75.6
816.669	6.31
816.847	-20.31
817.026	69.8
817.204	-65.36
817.383	8.36
817.561	-16.21
817.74	0.17
817.918	-12.12
818.097	-5.97
818.275	-22.36
818.453	51.37
818.632	110.76
818.81	-34.64
818.988	-12.12
819.167	-53.08
819.345	-51.03
819.523	-3.93
819.701	22.7
819.879	43.18
820.058	-16.21
820.236	16.55
820.414	43.18
820.592	92.33
820.77	4.27
820.948	-34.64
821.127	0.17
821.305	30.89
821.483	-38.74
821.661	92.33
821.839	-10.07
822.017	-87.89
822.195	-38.74
822.373	82.09
822.551	43.18
822.729	59.56
822.907	-112.47
823.085	82.09
823.262	39.08
823.44	2.22
823.618	-36.69
823.796	-3.93
823.974	63.66
824.152	-77.65
824.329	-5.97
824.507	0.17
824.685	55.47
824.863	-3.93
825.04	4.27
825.218	-34.64
825.396	-1.88
825.574	-40.79
825.751	-96.08
825.929	61.61
826.107	-87.89
826.284	8.36
826.462	22.7
826.639	20.65
826.817	-38.74
826.994	127.14
827.172	-26.45
827.349	73.9
827.527	41.13
827.704	-3.93
827.882	71.85
828.059	-1.88
828.237	43.18
828.414	71.85
828.591	-94.04
828.769	24.75
828.946	-22.36
829.124	80.04
829.301	202.92
829.478	-30.55
829.655	2.22
829.833	-32.6
830.01	-96.08
830.187	2.22
830.364	-44.88
830.542	53.42
830.719	82.09
830.896	51.37
831.073	-18.26
831.25	16.55
831.427	10.41
831.604	6.31
831.782	-100.18
831.959	18.6
832.136	12.46
832.313	43.18
832.49	-42.84
832.667	24.75
832.844	-108.37
833.021	164.01
833.198	10.41
833.374	-22.36
833.551	24.75
833.728	12.46
833.905	51.37
834.082	-87.89
834.259	59.56
834.436	26.79
834.612	-28.5
834.789	92.33
834.966	-3.93
835.143	75.95
835.319	-69.46
835.496	61.61
835.673	57.51
835.85	77.99
836.026	12.46
836.203	55.47
836.38	-26.45
836.556	-24.4
836.733	-30.55
836.909	211.11
837.086	-71.51
837.262	-155.47
837.439	2.22
837.616	-28.5
837.792	18.6
837.968	-36.69
838.145	-8.02
838.321	-16.21
838.498	53.42
838.674	22.7
838.851	28.84
839.027	-79.7
839.203	8.36
839.38	12.46
839.556	32.94
839.732	65.71
839.909	-30.55
840.085	65.71
840.261	-30.55
840.437	-22.36
840.614	47.27
840.79	55.47
840.966	39.08
841.142	-5.97
841.318	-1.88
841.494	30.89
841.671	69.8
841.847	-53.08
842.023	-28.5
842.199	16.55
842.375	116.9
842.551	-55.12
842.727	-63.32
842.903	164.01
843.079	2.22
843.255	108.71
843.431	0.17
843.607	102.57
843.783	-110.42
843.959	55.47
844.134	-28.5
844.31	61.61
844.486	-36.69
844.662	-89.94
844.838	18.6
845.013	-3.93
845.189	57.51
845.365	-10.07
845.541	77.99
845.716	61.61
845.892	61.61
846.068	-16.21
846.244	-79.7
846.419	28.84
846.595	-22.36
846.77	-61.27
846.946	37.03
847.122	53.42
847.297	-40.79
847.473	131.24
847.648	-20.31
847.824	10.41
847.999	-96.08
848.175	39.08
848.35	32.94
848.526	88.23
848.701	43.18
848.876	28.84
849.052	157.86
849.227	18.6
849.403	20.65
849.578	-38.74
849.753	47.27
849.929	37.03
850.104	-98.13
850.279	43.18
850.454	-30.55
850.63	43.18
850.805	-5.97
850.98	0.17
851.155	30.89
851.33	-24.4
851.505	-65.36
851.681	125.1
851.856	-81.75
852.031	82.09
852.206	55.47
852.381	-79.7
852.556	-77.65
852.731	32.94
852.906	16.55
853.081	14.51
853.256	65.71
853.431	-24.4
853.606	-26.45
853.781	-75.6
853.956	-141.14
854.131	73.9
854.305	-44.88
854.48	24.75
854.655	-46.93
854.83	-38.74
855.005	26.79
855.18	28.84
855.354	-30.55
855.529	69.8
855.704	-8.02
855.879	4.27
856.053	-28.5
856.228	34.99
856.403	-108.37
856.577	14.51
856.752	-61.27
856.926	-16.21
857.101	39.08
857.276	-22.36
857.45	59.56
857.625	94.38
857.799	61.61
857.974	30.89
858.148	-57.17
858.323	6.31
858.497	10.41
858.672	-26.45
858.846	-26.45
859.02	4.27
859.195	-67.41
859.369	6.31
859.543	-10.07
859.718	41.13
859.892	55.47
860.066	71.85
860.241	-94.04
860.415	-12.12
860.589	-106.32
860.763	-34.64
860.938	-63.32
861.112	10.41
861.286	-85.84
861.46	41.13
861.634	41.13
861.808	121
861.982	26.79
862.157	-42.84
862.331	-44.88
862.505	-79.7
862.679	-79.7
862.853	-38.74
863.027	-30.55
863.201	59.56
863.375	-12.12
863.549	90.28
863.722	2.22
863.896	59.56
864.07	-173.91
864.244	20.65
864.418	67.75
864.592	-32.6
864.766	18.6
864.939	-22.36
865.113	-24.4
865.287	34.99
865.461	-48.98
865.634	2.22
865.808	-51.03
865.982	-1.88
866.156	0.17
866.329	-112.47
866.503	20.65
866.676	96.43
866.85	22.7
867.024	-51.03
867.197	12.46
867.371	30.89
867.544	6.31
867.718	-141.14
867.891	102.57
868.065	-61.27
868.238	-12.12
868.412	16.55
868.585	106.67
868.759	-102.23
868.932	-57.17
869.105	-51.03
869.279	8.36
869.452	-100.18
869.625	39.08
869.799	-71.51
869.972	-114.52
870.145	28.84
870.319	34.99
870.492	-44.88
870.665	-3.93
870.838	-65.36
871.011	-100.18
871.185	-22.36
871.358	-44.88
871.531	-5.97
871.704	-67.41
871.877	-1.88
872.05	6.31
872.223	-81.75
872.396	65.71
872.569	57.51
872.742	-75.6
872.915	22.7
873.088	-1.88
873.261	-65.36
873.434	24.75
873.607	-36.69
873.78	59.56
873.953	-83.8
874.126	-63.32
874.299	37.03
874.471	-36.69
874.644	-77.65
874.817	77.99
874.99	80.04
875.163	-3.93
875.335	30.89
875.508	24.75
875.681	55.47
875.853	14.51
876.026	-48.98
876.199	80.04
876.371	2.22
876.544	-34.64
876.717	-10.07
876.889	-91.99
877.062	102.57
877.234	-5.97
877.407	-22.36
877.579	26.79
877.752	16.55
877.924	16.55
878.097	22.7
878.269	22.7
878.442	28.84
878.614	20.65
878.786	10.41
878.959	67.75
879.131	0.17
879.303	-61.27
879.476	14.51
879.648	59.56
879.82	-28.5
879.993	-87.89
880.165	0.17
880.337	-91.99
880.509	-67.41
880.681	-61.27
880.854	-3.93
881.026	10.41
881.198	209.06
881.37	34.99
881.542	-18.26
881.714	-14.17
881.886	-10.07
882.058	59.56
882.23	-28.5
882.402	-57.17
882.574	28.84
882.746	75.95
882.918	92.33
883.09	80.04
883.262	55.47
883.434	22.7
883.606	-124.76
883.778	59.56
883.95	102.57
884.122	-108.37
884.293	-20.31
884.465	-46.93
884.637	88.23
884.809	8.36
884.98	24.75
885.152	-18.26
885.324	-34.64
885.496	-28.5
885.667	-28.5
885.839	-53.08
886.011	114.86
886.182	71.85
886.354	69.8
886.525	-5.97
886.697	37.03
886.869	-83.8
887.04	8.36
887.212	176.3
887.383	182.44
887.555	-12.12
887.726	-24.4
887.897	-24.4
888.069	20.65
888.24	-3.93
888.412	-46.93
888.583	-59.22
888.754	-44.88
888.926	-61.27
889.097	-51.03
889.268	-40.79
889.44	43.18
889.611	-59.22
889.782	-83.8
889.953	-22.36
890.125	94.38
890.296	-91.99
890.467	-61.27
890.638	24.75
890.809	-75.6
890.98	-42.84
891.151	-32.6
891.323	47.27
891.494	32.94
891.665	61.61
891.836	-81.75
892.007	-8.02
892.178	-16.21
892.349	6.31
892.52	-34.64
892.691	6.31
892.862	-30.55
893.032	-128.85
893.203	-44.88
893.374	86.19
893.545	84.14
893.716	12.46
893.887	47.27
894.057	10.41
894.228	-30.55
894.399	-67.41
894.57	102.57
894.74	-30.55
894.911	53.42
895.082	71.85
895.253	-51.03
895.423	-5.97
895.594	112.81
895.764	12.46
895.935	-55.12
896.106	41.13
896.276	-53.08
896.447	4.27
896.617	-51.03
896.788	-40.79
896.958	-73.56
897.129	-65.36
897.299	-24.4
897.47	34.99
897.64	102.57
897.81	-24.4
897.981	84.14
898.151	-20.31
898.322	-32.6
898.492	112.81
898.662	-12.12
898.832	-5.97
899.003	-10.07
899.173	39.08
899.343	-42.84
899.513	-96.08
