Data from USB4F104151__27__10-24-08-843.txt Node

Date: Wed Feb 26 10:24:08 EST 2025
User: louis
Spectrometer: USB4F10415
Trigger mode: 4
Integration Time (sec): 1.000000E-1
Scans to average: 1
Electric dark correction enabled: true
Nonlinearity correction enabled: false
Boxcar width: 0
XAxis mode: Wavelengths
Number of Pixels in Spectrum: 3648
>>>>>Begin Spectral Data<<<<<
178.204	-381.09
178.424	-381.09
178.644	-381.09
178.864	-374.95
179.084	-356.52
179.304	36.69
179.524	14.17
179.744	-22.7
179.964	22.36
180.184	16.21
180.404	14.17
180.624	1.88
180.844	-41.13
181.064	-63.66
181.283	-53.42
181.503	-82.09
181.723	157.52
181.943	-96.43
182.163	196.43
182.383	-28.84
182.602	48.98
182.822	83.8
183.042	73.56
183.262	-6.31
183.482	67.41
183.701	44.88
183.921	100.18
184.141	-57.51
184.361	61.27
184.58	83.8
184.8	65.36
185.02	-10.41
185.239	130.9
185.459	34.64
185.679	77.65
185.898	-112.81
186.118	26.45
186.338	96.08
186.557	149.33
186.777	-53.42
186.997	-49.32
187.216	91.99
187.436	169.81
187.655	42.84
187.875	116.56
188.095	63.32
188.314	149.33
188.534	5.97
188.753	-6.31
188.973	67.41
189.192	210.77
189.412	51.03
189.631	26.45
189.851	53.08
190.07	149.33
190.29	-61.61
190.509	-32.94
190.729	77.65
190.948	139.09
191.168	208.72
191.387	89.94
191.607	20.31
191.826	22.36
192.045	34.64
192.265	12.12
192.484	96.08
192.704	46.93
192.923	-55.47
193.142	204.63
193.362	143.19
193.581	120.66
193.8	104.28
194.02	104.28
194.239	69.46
194.458	141.14
194.678	-6.31
194.897	28.5
195.116	-34.99
195.335	-0.17
195.555	-67.75
195.774	-43.18
195.993	120.66
196.212	98.13
196.432	-2.22
196.651	-26.79
196.87	38.74
197.089	247.63
197.308	120.66
197.528	139.09
197.747	-39.08
197.966	89.94
198.185	75.6
198.404	-26.79
198.623	116.56
198.842	173.91
199.062	-4.27
199.281	120.66
199.5	55.12
199.719	71.51
199.938	26.45
200.157	1.88
200.376	67.41
200.595	77.65
200.814	24.4
201.033	-53.42
201.252	89.94
201.471	55.12
201.69	55.12
201.909	57.17
202.128	149.33
202.347	55.12
202.566	-71.85
202.785	-51.37
203.004	-43.18
203.223	214.87
203.442	20.31
203.661	-10.41
203.879	128.85
204.098	186.19
204.317	-18.6
204.536	112.47
204.755	44.88
204.974	81.75
205.193	18.26
205.411	157.52
205.63	141.14
205.849	3.93
206.068	12.12
206.287	-26.79
206.505	139.09
206.724	16.21
206.943	38.74
207.162	10.07
207.381	112.47
207.599	46.93
207.818	44.88
208.037	26.45
208.255	14.17
208.474	94.04
208.693	-41.13
208.911	-51.37
209.13	87.89
209.349	135
209.567	69.46
209.786	61.27
210.005	114.52
210.223	-0.17
210.442	-110.76
210.661	34.64
210.879	57.17
211.098	69.46
211.316	18.26
211.535	169.81
211.753	71.51
211.972	63.32
212.191	-67.75
212.409	14.17
212.628	75.6
212.846	5.97
213.065	143.19
213.283	42.84
213.502	73.56
213.72	61.27
213.938	96.08
214.157	79.7
214.375	91.99
214.594	-20.65
214.812	24.4
215.031	55.12
215.249	96.08
215.467	18.26
215.686	16.21
215.904	100.18
216.122	30.55
216.341	124.76
216.559	38.74
216.778	77.65
216.996	98.13
217.214	42.84
217.432	10.07
217.651	-22.7
217.869	108.37
218.087	40.79
218.306	40.79
218.524	73.56
218.742	22.36
218.96	120.66
219.179	16.21
219.397	53.08
219.615	227.15
219.833	48.98
220.051	-41.13
220.27	163.67
220.488	94.04
220.706	79.7
220.924	-18.6
221.142	-20.65
221.36	81.75
221.578	94.04
221.796	18.26
222.015	-30.89
222.233	53.08
222.451	178
222.669	-84.14
222.887	106.32
223.105	-16.55
223.323	-24.75
223.541	16.21
223.759	14.17
223.977	59.22
224.195	118.61
224.413	147.28
224.631	71.51
224.849	22.36
225.067	350.03
225.285	3.93
225.503	18.26
225.721	-75.95
225.939	36.69
226.157	20.31
226.375	216.91
226.592	-28.84
226.81	102.23
227.028	118.61
227.246	139.09
227.464	114.52
227.682	96.08
227.9	71.51
228.117	59.22
228.335	83.8
228.553	30.55
228.771	18.26
228.989	100.18
229.206	98.13
229.424	83.8
229.642	3.93
229.86	-16.55
230.077	135
230.295	130.9
230.513	79.7
230.731	36.69
230.948	169.81
231.166	161.62
231.384	75.6
231.601	69.46
231.819	202.58
232.037	-24.75
232.254	-22.7
232.472	12.12
232.689	22.36
232.907	171.86
233.125	1.88
233.342	18.26
233.56	-43.18
233.777	5.97
233.995	-69.8
234.213	141.14
234.43	151.38
234.648	69.46
234.865	-30.89
235.083	73.56
235.3	48.98
235.518	116.56
235.735	159.57
235.953	79.7
236.17	10.07
236.388	-24.75
236.605	83.8
236.822	126.8
237.04	167.76
237.257	18.26
237.475	10.07
237.692	79.7
237.909	149.33
238.127	-24.75
238.344	79.7
238.562	71.51
238.779	-45.23
238.996	5.97
239.214	61.27
239.431	69.46
239.648	12.12
239.865	120.66
240.083	59.22
240.3	51.03
240.517	-30.89
240.735	14.17
240.952	202.58
241.169	122.71
241.386	114.52
241.603	-12.46
241.821	-77.99
242.038	42.84
242.255	110.42
242.472	5.97
242.689	73.56
242.907	116.56
243.124	53.08
243.341	28.5
243.558	79.7
243.775	-96.43
243.992	-22.7
244.209	87.89
244.426	190.29
244.643	104.28
244.86	36.69
245.078	126.8
245.295	139.09
245.512	36.69
245.729	-6.31
245.946	112.47
246.163	73.56
246.38	59.22
246.597	100.18
246.814	81.75
247.031	71.51
247.248	34.64
247.464	104.28
247.681	-45.23
247.898	57.17
248.115	63.32
248.332	16.21
248.549	157.52
248.766	214.87
248.983	59.22
249.2	57.17
249.417	141.14
249.633	-43.18
249.85	59.22
250.067	30.55
250.284	14.17
250.501	118.61
250.717	89.94
250.934	-6.31
251.151	69.46
251.368	40.79
251.585	98.13
251.801	137.04
252.018	-75.95
252.235	155.47
252.451	-88.23
252.668	-14.51
252.885	38.74
253.102	118.61
253.318	89.94
253.535	32.6
253.752	20.31
253.968	-43.18
254.185	-104.62
254.401	26.45
254.618	112.47
254.835	-12.46
255.051	173.91
255.268	100.18
255.484	30.55
255.701	67.41
255.917	67.41
256.134	-0.17
256.351	48.98
256.567	-22.7
256.784	44.88
257	-32.94
257.217	59.22
257.433	175.95
257.65	132.95
257.866	89.94
258.082	-8.36
258.299	-24.75
258.515	79.7
258.732	22.36
258.948	-49.32
259.165	135
259.381	12.12
259.597	135
259.814	48.98
260.03	-37.03
260.246	51.03
260.463	135
260.679	184.15
260.895	26.45
261.112	135
261.328	30.55
261.544	3.93
261.761	132.95
261.977	36.69
262.193	-67.75
262.409	112.47
262.626	63.32
262.842	-2.22
263.058	75.6
263.274	94.04
263.49	89.94
263.707	112.47
263.923	91.99
264.139	-69.8
264.355	145.24
264.571	91.99
264.787	98.13
265.004	171.86
265.22	24.4
265.436	-30.89
265.652	10.07
265.868	16.21
266.084	-39.08
266.3	-55.47
266.516	12.12
266.732	71.51
266.948	-0.17
267.164	57.17
267.38	44.88
267.596	44.88
267.812	190.29
268.028	32.6
268.244	-75.95
268.46	57.17
268.676	-37.03
268.892	16.21
269.108	-2.22
269.324	-6.31
269.54	38.74
269.756	98.13
269.972	-4.27
270.188	18.26
270.403	-65.71
270.619	71.51
270.835	34.64
271.051	3.93
271.267	26.45
271.483	63.32
271.698	46.93
271.914	55.12
272.13	73.56
272.346	30.55
272.562	28.5
272.777	173.91
272.993	-28.84
273.209	16.21
273.425	94.04
273.64	-12.46
273.856	143.19
274.072	-4.27
274.287	12.12
274.503	53.08
274.719	83.8
274.934	32.6
275.15	-43.18
275.366	71.51
275.581	-59.56
275.797	65.36
276.012	-8.36
276.228	-12.46
276.444	24.4
276.659	122.71
276.875	-12.46
277.09	-39.08
277.306	-53.42
277.521	42.84
277.737	73.56
277.952	167.76
278.168	112.47
278.383	-4.27
278.599	32.6
278.814	40.79
279.03	36.69
279.245	89.94
279.461	87.89
279.676	132.95
279.892	14.17
280.107	12.12
280.322	-49.32
280.538	71.51
280.753	-45.23
280.969	114.52
281.184	-18.6
281.399	112.47
281.615	59.22
281.83	137.04
282.045	-14.51
282.26	-43.18
282.476	36.69
282.691	83.8
282.906	-2.22
283.122	128.85
283.337	51.03
283.552	89.94
283.767	-14.51
283.983	24.4
284.198	3.93
284.413	110.42
284.628	-18.6
284.843	79.7
285.058	79.7
285.274	55.12
285.489	-4.27
285.704	137.04
285.919	40.79
286.134	8.02
286.349	26.45
286.564	96.08
286.779	173.91
286.995	-26.79
287.21	-24.75
287.425	42.84
287.64	48.98
287.855	46.93
288.07	-80.04
288.285	126.8
288.5	128.85
288.715	69.46
288.93	3.93
289.145	38.74
289.36	79.7
289.575	-41.13
289.79	137.04
290.004	-18.6
290.219	155.47
290.434	-0.17
290.649	-18.6
290.864	79.7
291.079	89.94
291.294	16.21
291.509	126.8
291.724	48.98
291.938	36.69
292.153	67.41
292.368	34.64
292.583	59.22
292.798	104.28
293.012	96.08
293.227	14.17
293.442	38.74
293.657	106.32
293.871	161.62
294.086	59.22
294.301	192.34
294.516	79.7
294.73	-14.51
294.945	-51.37
295.16	67.41
295.374	112.47
295.589	79.7
295.804	-14.51
296.018	46.93
296.233	157.52
296.447	-2.22
296.662	42.84
296.877	180.05
297.091	91.99
297.306	34.64
297.52	-10.41
297.735	81.75
297.949	36.69
298.164	46.93
298.378	26.45
298.593	69.46
298.807	12.12
299.022	-28.84
299.236	96.08
299.451	-4.27
299.665	-20.65
299.88	83.8
300.094	63.32
300.309	116.56
300.523	-20.65
300.737	12.12
300.952	145.24
301.166	51.03
301.381	-22.7
301.595	26.45
301.809	96.08
302.024	14.17
302.238	-0.17
302.452	132.95
302.667	120.66
302.881	257.87
303.095	100.18
303.309	85.84
303.524	85.84
303.738	22.36
303.952	34.64
304.166	14.17
304.381	-186.54
304.595	157.52
304.809	40.79
305.023	75.6
305.237	26.45
305.452	24.4
305.666	46.93
305.88	67.41
306.094	157.52
306.308	79.7
306.522	12.12
306.736	91.99
306.95	108.37
307.164	53.08
307.379	38.74
307.593	118.61
307.807	163.67
308.021	124.76
308.235	89.94
308.449	-55.47
308.663	32.6
308.877	225.11
309.091	46.93
309.305	91.99
309.519	-10.41
309.733	120.66
309.947	-39.08
310.161	75.6
310.374	106.32
310.588	77.65
310.802	-10.41
311.016	-2.22
311.23	106.32
311.444	30.55
311.658	89.94
311.872	141.14
312.085	130.9
312.299	147.28
312.513	137.04
312.727	67.41
312.941	32.6
313.154	61.27
313.368	55.12
313.582	104.28
313.796	-39.08
314.009	126.8
314.223	32.6
314.437	16.21
314.651	42.84
314.864	14.17
315.078	46.93
315.292	-18.6
315.505	55.12
315.719	46.93
315.933	75.6
316.146	-20.65
316.36	-14.51
316.573	98.13
316.787	32.6
317.001	81.75
317.214	12.12
317.428	-12.46
317.641	55.12
317.855	-63.66
318.068	108.37
318.282	104.28
318.495	145.24
318.709	71.51
318.922	96.08
319.136	155.47
319.349	122.71
319.563	-98.47
319.776	81.75
319.99	-41.13
320.203	151.38
320.417	57.17
320.63	118.61
320.843	178
321.057	120.66
321.27	71.51
321.483	3.93
321.697	118.61
321.91	-22.7
322.124	34.64
322.337	-12.46
322.55	24.4
322.763	40.79
322.977	-16.55
323.19	10.07
323.403	81.75
323.617	73.56
323.83	102.23
324.043	69.46
324.256	63.32
324.469	-65.71
324.683	94.04
324.896	-12.46
325.109	98.13
325.322	-75.95
325.535	87.89
325.748	112.47
325.962	104.28
326.175	8.02
326.388	71.51
326.601	141.14
326.814	42.84
327.027	48.98
327.24	175.95
327.453	-24.75
327.666	51.03
327.879	167.76
328.092	94.04
328.305	38.74
328.518	-43.18
328.731	44.88
328.944	53.08
329.157	91.99
329.37	40.79
329.583	169.81
329.796	100.18
330.009	-10.41
330.222	149.33
330.435	167.76
330.648	48.98
330.861	-2.22
331.073	-0.17
331.286	98.13
331.499	63.32
331.712	-75.95
331.925	22.36
332.138	106.32
332.35	91.99
332.563	8.02
332.776	204.63
332.989	-37.03
333.202	16.21
333.414	-30.89
333.627	71.51
333.84	36.69
334.053	81.75
334.265	8.02
334.478	-14.51
334.691	51.03
334.903	48.98
335.116	20.31
335.329	75.6
335.541	124.76
335.754	192.34
335.966	32.6
336.179	100.18
336.392	53.08
336.604	28.5
336.817	87.89
337.029	108.37
337.242	59.22
337.454	83.8
337.667	-8.36
337.88	137.04
338.092	36.69
338.305	67.41
338.517	-18.6
338.729	169.81
338.942	83.8
339.154	-39.08
339.367	-16.55
339.579	69.46
339.792	-22.7
340.004	46.93
340.217	59.22
340.429	100.18
340.641	-51.37
340.854	-45.23
341.066	-0.17
341.278	147.28
341.491	159.57
341.703	12.12
341.915	14.17
342.128	75.6
342.34	30.55
342.552	36.69
342.764	28.5
342.977	-16.55
343.189	59.22
343.401	69.46
343.613	18.26
343.826	26.45
344.038	-45.23
344.25	16.21
344.462	51.03
344.674	75.6
344.886	-14.51
345.099	34.64
345.311	38.74
345.523	-28.84
345.735	-67.75
345.947	8.02
346.159	85.84
346.371	55.12
346.583	-12.46
346.795	239.44
347.007	55.12
347.219	3.93
347.431	63.32
347.643	149.33
347.855	55.12
348.067	157.52
348.279	-8.36
348.491	42.84
348.703	102.23
348.915	98.13
349.127	53.08
349.339	46.93
349.551	8.02
349.763	147.28
349.975	75.6
350.187	71.51
350.399	149.33
350.61	34.64
350.822	55.12
351.034	85.84
351.246	77.65
351.458	77.65
351.669	38.74
351.881	1.88
352.093	141.14
352.305	128.85
352.517	20.31
352.728	124.76
352.94	89.94
353.152	67.41
353.363	71.51
353.575	53.08
353.787	184.15
353.999	63.32
354.21	91.99
354.422	34.64
354.633	-10.41
354.845	34.64
355.057	155.47
355.268	59.22
355.48	132.95
355.692	16.21
355.903	46.93
356.115	8.02
356.326	-32.94
356.538	116.56
356.749	65.36
356.961	42.84
357.172	-2.22
357.384	30.55
357.595	161.62
357.807	-41.13
358.018	59.22
358.23	61.27
358.441	102.23
358.653	48.98
358.864	-30.89
359.075	22.36
359.287	53.08
359.498	186.19
359.709	53.08
359.921	-12.46
360.132	87.89
360.344	81.75
360.555	59.22
360.766	83.8
360.977	114.52
361.189	75.6
361.4	83.8
361.611	63.32
361.823	96.08
362.034	20.31
362.245	-16.55
362.456	-22.7
362.667	141.14
362.879	-16.55
363.09	51.03
363.301	32.6
363.512	32.6
363.723	18.26
363.935	137.04
364.146	135
364.357	139.09
364.568	67.41
364.779	-69.8
364.99	157.52
365.201	81.75
365.412	147.28
365.623	-22.7
365.834	89.94
366.045	12.12
366.256	59.22
366.467	165.71
366.678	16.21
366.889	14.17
367.1	28.5
367.311	155.47
367.522	-10.41
367.733	46.93
367.944	106.32
368.155	16.21
368.366	122.71
368.577	175.95
368.788	116.56
368.999	-47.27
369.209	55.12
369.42	264.02
369.631	208.72
369.842	126.8
370.053	98.13
370.264	73.56
370.474	-6.31
370.685	63.32
370.896	42.84
371.107	161.62
371.317	59.22
371.528	98.13
371.739	81.75
371.95	55.12
372.16	114.52
372.371	-32.94
372.582	-4.27
372.792	22.36
373.003	137.04
373.214	83.8
373.424	186.19
373.635	-41.13
373.846	116.56
374.056	100.18
374.267	91.99
374.477	24.4
374.688	20.31
374.898	59.22
375.109	83.8
375.319	55.12
375.53	130.9
375.74	55.12
375.951	22.36
376.161	26.45
376.372	137.04
376.582	-26.79
376.793	180.05
377.003	28.5
377.214	36.69
377.424	63.32
377.635	63.32
377.845	40.79
378.055	71.51
378.266	-57.51
378.476	110.42
378.686	120.66
378.897	77.65
379.107	89.94
379.317	100.18
379.528	14.17
379.738	96.08
379.948	-30.89
380.158	112.47
380.369	116.56
380.579	24.4
380.789	3.93
380.999	94.04
381.21	139.09
381.42	223.06
381.63	83.8
381.84	40.79
382.05	63.32
382.261	108.37
382.471	36.69
382.681	42.84
382.891	214.87
383.101	106.32
383.311	-16.55
383.521	-67.75
383.731	163.67
383.941	102.23
384.151	75.6
384.361	57.17
384.571	30.55
384.781	118.61
384.991	155.47
385.201	167.76
385.411	180.05
385.621	120.66
385.831	81.75
386.041	-47.27
386.251	69.46
386.461	118.61
386.671	3.93
386.881	69.46
387.091	10.07
387.301	87.89
387.511	104.28
387.72	-10.41
387.93	120.66
388.14	-41.13
388.35	167.76
388.56	59.22
388.769	122.71
388.979	-14.51
389.189	48.98
389.399	-32.94
389.609	77.65
389.818	114.52
390.028	98.13
390.238	89.94
390.447	-12.46
390.657	44.88
390.867	5.97
391.076	-63.66
391.286	81.75
391.496	116.56
391.705	77.65
391.915	169.81
392.125	159.57
392.334	14.17
392.544	126.8
392.753	59.22
392.963	-55.47
393.172	106.32
393.382	22.36
393.591	175.95
393.801	104.28
394.01	124.76
394.22	110.42
394.429	40.79
394.639	8.02
394.848	186.19
395.058	165.71
395.267	81.75
395.477	128.85
395.686	126.8
395.895	173.91
396.105	210.77
396.314	110.42
396.524	57.17
396.733	28.5
396.942	153.43
397.152	83.8
397.361	149.33
397.57	-20.65
397.78	53.08
397.989	98.13
398.198	200.53
398.407	61.27
398.617	67.41
398.826	65.36
399.035	75.6
399.244	171.86
399.453	22.36
399.663	75.6
399.872	71.51
400.081	-10.41
400.29	126.8
400.499	28.5
400.708	184.15
400.917	40.79
401.127	46.93
401.336	-22.7
401.545	165.71
401.754	204.63
401.963	22.36
402.172	8.02
402.381	-43.18
402.59	46.93
402.799	98.13
403.008	75.6
403.217	-2.22
403.426	89.94
403.635	-39.08
403.844	106.32
404.053	-22.7
404.262	-4.27
404.471	171.86
404.68	149.33
404.888	57.17
405.097	73.56
405.306	67.41
405.515	110.42
405.724	38.74
405.933	63.32
406.142	120.66
406.35	128.85
406.559	10.07
406.768	69.46
406.977	182.1
407.185	116.56
407.394	161.62
407.603	-55.47
407.812	63.32
408.02	12.12
408.229	130.9
408.438	71.51
408.646	-34.99
408.855	55.12
409.064	79.7
409.272	-51.37
409.481	139.09
409.69	36.69
409.898	-49.32
410.107	135
410.315	155.47
410.524	-14.51
410.733	120.66
410.941	55.12
411.15	153.43
411.358	69.46
411.567	85.84
411.775	110.42
411.984	22.36
412.192	53.08
412.401	57.17
412.609	227.15
412.818	161.62
413.026	126.8
413.234	32.6
413.443	30.55
413.651	26.45
413.86	91.99
414.068	173.91
414.276	102.23
414.485	-0.17
414.693	163.67
414.901	190.29
415.11	48.98
415.318	26.45
415.526	51.03
415.734	83.8
415.943	79.7
416.151	98.13
416.359	-10.41
416.567	69.46
416.776	178
416.984	141.14
417.192	184.15
417.4	5.97
417.608	1.88
417.817	5.97
418.025	141.14
418.233	204.63
418.441	-2.22
418.649	-20.65
418.857	98.13
419.065	112.47
419.273	-43.18
419.481	118.61
419.689	161.62
419.897	26.45
420.105	-47.27
420.313	96.08
420.521	137.04
420.729	165.71
420.937	18.26
421.145	79.7
421.353	89.94
421.561	157.52
421.769	61.27
421.977	-24.75
422.185	184.15
422.393	98.13
422.601	96.08
422.809	98.13
423.017	42.84
423.224	42.84
423.432	163.67
423.64	104.28
423.848	118.61
424.056	5.97
424.263	40.79
424.471	24.4
424.679	137.04
424.887	14.17
425.094	169.81
425.302	91.99
425.51	38.74
425.718	221.01
425.925	98.13
426.133	-14.51
426.341	204.63
426.548	24.4
426.756	28.5
426.964	200.53
427.171	79.7
427.379	87.89
427.586	98.13
427.794	126.8
428.001	206.67
428.209	190.29
428.417	202.58
428.624	165.71
428.832	59.22
429.039	128.85
429.247	85.84
429.454	81.75
429.662	171.86
429.869	208.72
430.076	110.42
430.284	124.76
430.491	194.39
430.699	186.19
430.906	161.62
431.114	122.71
431.321	112.47
431.528	198.48
431.736	231.25
431.943	173.91
432.15	202.58
432.358	233.3
432.565	225.11
432.772	75.6
432.979	257.87
433.187	106.32
433.394	200.53
433.601	204.63
433.808	239.44
434.016	399.18
434.223	347.98
434.43	288.59
434.637	304.98
434.844	354.13
435.052	264.02
435.259	294.74
435.466	321.36
435.673	315.22
435.88	436.05
436.087	350.03
436.294	354.13
436.501	401.23
436.708	364.37
436.915	411.47
437.122	462.67
437.329	311.12
437.537	425.81
437.743	425.81
437.95	470.86
438.157	454.48
438.364	472.91
438.571	511.82
438.778	470.86
438.985	550.73
439.192	536.4
439.399	583.5
439.606	587.6
439.813	583.5
440.02	694.09
440.227	788.3
440.433	681.8
440.64	583.5
440.847	558.92
441.054	692.04
441.261	776.01
441.467	796.49
441.674	737.1
441.881	911.18
442.088	757.58
442.294	888.65
442.501	888.65
442.708	993.09
442.914	892.74
443.121	1036.1
443.328	968.52
443.534	1083.2
443.741	1079.11
443.948	913.22
444.154	1281.86
444.361	1195.84
444.568	1240.9
444.774	1251.14
444.981	1226.56
445.187	1349.44
445.394	1398.59
445.6	1380.16
445.807	1691.45
446.013	1546.05
446.22	1421.12
446.426	1668.92
446.633	1771.32
446.839	2019.13
447.046	1777.47
447.252	1949.5
447.459	2010.93
447.665	1933.11
447.871	2185.01
448.078	2322.23
448.284	2207.54
448.491	2359.09
448.697	2582.32
448.903	2705.2
449.11	2518.83
449.316	2674.48
449.522	2883.37
449.728	2785.07
449.935	3100.45
450.141	3188.52
450.347	3278.63
450.553	3159.85
450.76	3370.79
450.966	3581.73
451.172	3792.67
451.378	3815.2
451.584	3766.04
451.791	4159.25
451.997	4138.77
452.203	4278.04
452.409	4560.66
452.615	4665.1
452.821	4531.98
453.027	4646.67
453.233	5013.26
453.44	5064.46
453.646	5439.23
453.852	5580.54
454.058	5875.45
454.264	6051.58
454.47	6309.62
454.676	6358.77
454.882	6919.92
455.088	6831.85
455.294	6977.26
455.5	7640.8
455.705	7907.04
455.911	7800.54
456.117	7964.38
456.323	8414.93
456.529	8351.45
456.735	9227.98
456.941	9580.23
457.147	9678.53
457.352	9893.57
457.558	10153.66
457.764	11118.25
457.97	11327.14
458.176	11628.2
458.381	12269.21
458.587	12361.37
458.793	13065.87
458.999	12965.52
459.204	14597.75
459.41	15382.12
459.616	14943.86
459.821	15670.89
460.027	16543.32
460.233	17024.59
460.438	17126.99
460.644	18529.85
460.85	18259.52
461.055	19277.36
461.261	20147.75
461.466	19770.92
461.672	20061.73
461.878	22590.97
462.083	22281.73
462.289	22470.14
462.494	23643.63
462.7	23768.55
462.905	24061.41
463.111	25886.15
463.316	27291.06
463.522	27813.29
463.727	28589.47
463.932	29867.41
464.138	30610.82
464.343	31837.55
464.549	32085.36
464.754	34475.34
464.959	35235.13
465.165	35788.08
465.37	35874.1
465.575	35562.81
465.781	37973.27
465.986	38944
466.191	38331.66
466.397	38843.65
466.602	37915.92
466.807	39920.88
467.012	40873.19
467.218	41450.72
467.423	41532.64
467.628	42536.14
467.833	44453.04
468.038	43916.47
468.244	43168.96
468.449	45227.17
468.654	44475.57
468.859	44281.01
469.064	44412.08
469.269	43324.61
469.474	44053.69
469.679	44575.92
469.885	43543.74
470.09	44584.11
470.295	44407.98
470.5	43306.18
470.705	43779.26
470.91	42638.54
471.115	41993.43
471.32	42634.44
471.525	42724.55
471.73	41401.57
471.935	41049.31
472.139	39222.53
472.344	39554.3
472.549	39365.88
472.754	38821.12
472.959	37819.67
473.164	36470.06
473.369	35734.84
473.574	36994.34
473.778	36019.5
473.983	35753.27
474.188	35155.26
474.393	33037.66
474.598	33109.34
474.802	32521.57
475.007	31980.91
475.212	31972.72
475.417	30664.07
475.621	30074.25
475.826	30068.11
476.031	29367.7
476.235	28710.3
476.44	28528.03
476.645	27950.51
476.849	27585.97
477.054	27477.43
477.259	26680.77
477.463	26396.1
477.668	25595.34
477.872	25748.94
478.077	25224.66
478.282	24384.99
478.486	24421.86
478.691	23903.72
478.895	23881.19
479.1	23801.32
479.304	23322.1
479.509	22605.31
479.713	22973.94
479.918	22504.96
480.122	22017.54
480.326	22134.28
480.531	22474.24
480.735	21999.11
480.94	21239.31
481.144	22021.64
481.348	20434.46
481.553	21116.44
481.757	20547.1
481.961	20678.17
482.166	20993.56
482.37	20358.69
482.574	19992.1
482.778	20051.49
482.983	20684.31
483.187	19940.9
483.391	20239.9
483.595	19506.73
483.8	19082.8
484.004	19136.05
484.208	19430.96
484.412	19080.75
484.616	18740.79
484.821	18449.98
485.025	17985.09
485.229	18263.61
485.433	17780.29
485.637	17466.95
485.841	17245.77
486.045	17274.45
486.249	17102.42
486.453	16584.28
486.657	16569.94
486.861	16223.84
487.065	15715.94
487.269	15898.21
487.473	15382.12
487.677	15263.34
487.881	15341.16
488.085	14782.07
488.289	14726.77
488.493	14079.61
488.697	14423.67
488.901	13946.5
489.105	13325.96
489.309	13344.39
489.512	13227.66
489.716	12963.47
489.92	12445.34
490.124	12482.2
490.328	12455.58
490.531	11826.85
490.735	11939.49
490.939	11615.91
491.143	11495.08
491.346	11189.93
491.55	11038.38
491.754	10938.03
491.958	10862.26
492.161	10481.33
492.365	10297.02
492.569	10067.64
492.772	10045.12
492.976	9987.77
493.18	9668.29
493.383	9707.2
493.587	9440.97
493.79	9451.21
493.994	9242.31
494.197	9221.83
494.401	8959.69
494.605	8984.27
494.808	9084.62
495.012	8971.98
495.215	8849.1
495.419	8679.12
495.622	8664.79
495.825	8584.91
496.029	8570.58
496.232	8863.44
496.436	8416.98
496.639	8527.57
496.843	8582.87
497.046	8722.13
497.249	8738.51
497.453	8595.15
497.656	8521.43
497.859	8378.07
498.063	8695.5
498.266	8677.07
498.469	8521.43
498.673	8294.1
498.876	8582.87
499.079	8511.19
499.282	8560.34
499.485	8988.36
499.689	8595.15
499.892	8775.38
500.095	8593.11
500.298	8912.59
500.501	8758.99
500.705	9070.28
500.908	9025.23
501.111	9137.87
501.314	9201.35
501.517	9420.49
501.72	9469.64
501.923	9430.73
502.126	9352.9
502.329	9873.09
502.532	9815.74
502.735	9930.43
502.938	10198.71
503.141	10135.23
503.344	10223.29
503.547	10276.54
503.75	10247.86
503.953	10391.22
504.156	10854.06
504.359	10843.82
504.562	10978.99
504.765	11122.35
504.968	11239.08
505.17	11529.89
505.373	11439.78
505.576	11902.62
505.779	11910.82
505.982	12205.72
506.185	12469.91
506.387	12600.98
506.59	12570.26
506.793	12924.56
506.996	13002.38
507.198	13633.16
507.401	13608.58
507.604	14155.39
507.807	14220.92
508.009	14274.17
508.212	14689.91
508.415	15076.98
508.617	15556.2
508.82	15572.58
509.022	15595.11
509.225	16168.54
509.428	16516.7
509.63	16703.06
509.833	16852.56
510.035	17657.42
510.238	17813.06
510.44	18226.75
510.643	18699.83
510.845	19054.13
511.048	19121.71
511.25	19435.05
511.453	20067.88
511.655	20971.03
511.858	21175.83
512.06	21325.33
512.262	21812.74
512.465	22263.3
512.667	22924.79
512.87	23451.12
513.072	23750.12
513.274	24442.34
513.477	24704.48
513.679	25494.99
513.881	26164.68
514.084	26541.5
514.286	26836.41
514.488	27497.91
514.69	28284.33
514.893	28775.84
515.095	29097.37
515.297	29906.32
515.499	30289.29
515.701	31079.8
515.904	31927.66
516.106	32464.23
516.308	32613.73
516.51	33938.77
516.712	33969.49
516.914	34909.5
517.116	35591.48
517.318	36017.46
517.52	36578.6
517.722	37334.3
517.925	37819.67
518.127	38434.06
518.329	39314.69
518.531	39085.31
518.733	40156.4
518.935	41139.43
519.136	41549.02
519.338	42261.71
519.54	42749.13
519.742	43474.11
519.944	43879.61
520.146	44911.78
520.348	44973.22
520.55	45470.88
520.752	45993.11
520.954	46726.28
521.155	46929.03
521.357	47561.86
521.559	47729.79
521.761	49241.19
521.963	48596.08
522.164	49493.09
522.366	49345.64
522.568	50580.56
522.77	50322.52
522.971	50789.45
523.173	50580.56
523.375	51670.08
523.576	51047.5
523.778	51379.27
523.98	51817.53
524.181	52139.07
524.383	51878.97
524.584	52890.67
524.786	52163.64
524.988	52012.09
525.189	52599.86
525.391	52732.98
525.592	52673.59
525.794	52280.38
525.995	52485.17
526.197	52685.87
526.398	52165.69
526.6	52411.45
526.801	51932.22
527.003	51866.69
527.204	51881.02
527.406	51903.55
527.607	51555.39
527.808	51541.06
528.01	50895.95
528.211	50271.32
528.412	50834.51
528.614	50347.09
528.815	49833.05
529.016	49667.17
529.218	48608.37
529.419	48596.08
529.62	48049.27
529.822	47514.75
530.023	47078.53
530.224	46607.5
530.425	46042.26
530.626	45583.52
530.828	44997.8
531.029	45413.54
531.23	44760.23
531.431	43924.66
531.632	43504.83
531.833	43052.23
532.035	42577.1
532.236	41821.4
532.437	41352.41
532.638	41008.36
532.839	40344.81
533.04	40355.05
533.241	39433.47
533.442	39458.04
533.643	38472.97
533.844	37770.52
534.045	37782.8
534.246	36697.38
534.447	36640.04
534.648	35994.93
534.849	35622.2
535.05	34651.46
535.251	34669.89
535.451	33983.82
535.652	33766.74
535.853	33045.85
536.054	32419.17
536.255	32531.81
536.456	31626.61
536.657	31948.14
536.857	30991.74
537.058	30621.06
537.259	30172.55
537.46	30209.42
537.66	29400.47
537.861	29080.99
538.062	28523.94
538.263	28769.69
538.463	27792.81
538.664	27342.26
538.865	27399.6
539.065	27067.83
539.266	26125.77
539.466	26416.58
539.667	25902.54
539.868	25937.35
540.068	25189.84
540.269	24964.57
540.469	25124.31
540.67	24384.99
540.87	24313.31
541.071	23983.59
541.271	23641.58
541.472	23318
541.672	23193.08
541.873	22494.72
542.073	22347.26
542.274	22291.97
542.474	21861.9
542.675	21683.72
542.875	21765.64
543.075	21171.73
543.276	20612.63
543.476	20911.64
543.676	20456.99
543.877	20172.32
544.077	20180.51
544.277	19732.01
544.478	19629.61
544.678	19543.6
544.878	19336.75
545.078	18992.69
545.279	18482.75
545.479	18339.39
545.679	18181.7
545.879	18314.81
546.079	17866.31
546.28	17796.68
546.48	17405.52
546.68	17571.4
546.88	17307.21
547.08	16944.72
547.28	16762.45
547.48	16512.6
547.68	16471.64
547.88	16070.24
548.081	15984.23
548.281	15562.34
548.481	15521.38
548.681	15369.83
548.881	15097.45
549.081	14921.33
549.28	14718.58
549.48	14648.95
549.68	14538.36
549.88	14300.8
550.08	13874.82
550.28	13846.15
550.48	13676.16
550.68	13348.49
550.88	13289.1
551.08	13022.86
551.279	13178.51
551.479	12586.65
551.679	12512.92
551.879	12289.69
552.079	12267.16
552.278	12019.36
552.478	11984.54
552.678	11771.55
552.878	11445.93
553.077	11077.29
553.277	11077.29
553.477	11003.57
553.676	10809.01
553.876	10423.99
554.076	10505.91
554.275	10227.39
554.475	9924.29
554.674	10196.67
554.874	9899.71
555.074	9582.28
555.273	9451.21
555.473	9389.77
555.672	9055.95
555.872	9076.43
556.071	8849.1
556.271	8967.88
556.47	8781.52
556.67	8513.24
556.869	8273.62
557.068	8074.97
557.268	8097.5
557.467	7931.61
557.667	7997.15
557.866	7716.58
558.065	7452.39
558.265	7407.33
558.464	7251.69
558.663	7321.32
558.863	7218.92
559.062	7382.76
559.261	6960.88
559.461	6735.6
559.66	6457.07
559.859	6661.87
560.058	6485.75
560.258	6172.41
560.457	6262.52
560.656	6358.77
560.855	6041.34
561.054	6217.46
561.253	5881.6
561.453	5971.71
561.652	5732.09
561.851	5682.94
562.05	5385.99
562.249	5340.93
562.448	5490.43
562.647	5492.48
562.846	5340.93
563.045	5234.44
563.244	5046.02
563.443	4929.29
563.642	5111.56
563.841	4851.47
564.04	4724.49
564.239	4859.66
564.438	4599.57
564.637	4577.04
564.836	4671.25
565.035	4599.57
565.234	4284.18
565.432	4491.02
565.631	4341.52
565.83	4269.84
566.029	4046.62
566.228	4005.66
566.427	4222.74
566.625	3946.27
566.824	4048.66
567.023	3931.93
567.222	3796.76
567.42	3780.38
567.619	3716.89
567.818	3626.78
568.016	3745.56
568.215	3628.83
568.414	3661.6
568.612	3604.25
568.811	3426.08
569.01	3381.03
569.208	3297.06
569.407	3284.77
569.605	3458.85
569.804	3188.52
570.002	3104.55
570.201	3127.08
570.4	3135.27
570.598	3122.98
570.797	2975.53
570.995	2950.95
571.193	2957.1
571.392	2766.64
571.59	2766.64
571.789	2821.93
571.987	2551.6
572.186	2762.54
572.384	2684.72
572.582	2737.96
572.781	2707.24
572.979	2541.36
573.177	2479.92
573.376	2629.42
573.574	2463.54
573.772	2430.77
573.971	2361.14
574.169	2266.93
574.367	2350.9
574.565	2279.22
574.763	2172.72
574.962	2217.78
575.16	2166.58
575.358	2092.85
575.556	2109.24
575.754	2029.37
575.952	2045.75
576.151	2080.57
576.349	1988.41
576.547	1883.96
576.745	2041.65
576.943	1814.33
577.141	1886.01
577.339	1673.02
577.537	1799.99
577.735	1851.19
577.933	1734.46
578.131	1681.21
578.329	1787.71
578.527	1601.34
578.725	1593.15
578.923	1535.81
579.121	1783.61
579.319	1384.26
579.516	1597.24
579.714	1781.56
579.912	1517.37
580.11	1306.43
580.308	1335.1
580.506	1328.96
580.704	1337.15
580.901	1234.75
581.099	1505.09
581.297	1322.82
581.495	1335.1
581.692	1339.2
581.89	1431.36
582.088	1236.8
582.285	1234.75
582.483	1318.72
582.681	1181.51
582.878	1150.79
583.076	1195.84
583.274	1281.86
583.471	1263.43
583.669	1156.93
583.866	1052.49
584.064	1091.4
584.262	939.85
584.459	1054.53
584.657	1068.87
584.854	1075.01
585.052	1038.15
585.249	1111.88
585.447	1048.39
585.644	941.89
585.841	999.24
586.039	943.94
586.236	1099.59
586.434	948.04
586.631	882.5
586.828	853.83
587.026	915.27
587.223	855.88
587.42	892.74
587.618	986.95
587.815	982.85
588.012	849.74
588.21	810.82
588.407	857.93
588.604	878.41
588.801	712.52
588.999	870.22
589.196	927.56
589.393	694.09
589.59	851.78
589.787	812.87
589.984	749.39
590.182	845.64
590.379	632.65
590.576	778.06
590.773	845.64
590.97	804.68
591.167	755.53
591.364	862.02
591.561	780.11
591.758	825.16
591.955	831.3
592.152	784.2
592.349	632.65
592.546	733
592.743	735.05
592.94	698.19
593.137	786.25
593.334	737.1
593.531	747.34
593.727	763.72
593.924	843.59
594.121	751.43
594.318	706.38
594.515	804.68
594.712	821.06
594.908	937.8
595.105	655.18
595.302	845.64
595.499	855.88
595.696	937.8
595.892	839.5
596.089	855.88
596.286	827.21
596.482	966.47
596.679	874.31
596.876	862.02
597.072	954.18
597.269	1075.01
597.466	1003.33
597.662	943.94
597.859	1021.77
598.055	1070.92
598.252	1054.53
598.448	1193.8
598.645	1195.84
598.841	1314.63
599.038	1478.46
599.234	1455.94
599.431	1345.34
599.627	1382.21
599.824	1519.42
600.02	1417.02
600.217	1513.28
600.413	1623.87
600.609	1658.68
600.806	1953.59
601.002	1883.96
601.198	1765.18
601.395	1941.3
601.591	2029.37
601.787	2031.41
601.984	2221.88
602.18	2342.71
602.376	2273.07
602.572	2311.99
602.769	2512.69
602.965	2766.64
603.161	2744.11
603.357	2795.31
603.553	2953
603.75	2946.86
603.946	3045.16
604.142	3227.43
604.338	3264.29
604.534	3364.64
604.73	3505.95
604.926	3514.14
605.122	3784.48
605.318	3766.04
605.514	4009.75
605.71	4028.18
605.906	4413.2
606.102	4308.76
606.298	4509.46
606.494	4613.9
606.69	4837.13
606.886	4773.64
607.082	4957.96
607.278	5168.9
607.474	5271.3
607.67	5445.38
607.866	5469.95
608.062	5943.03
608.257	5977.85
608.453	6000.38
608.649	6219.51
608.845	6383.35
609.041	6442.74
609.236	6823.66
609.432	6893.29
609.628	7098.09
609.824	7263.97
610.019	7382.76
610.215	7491.3
610.411	7804.64
610.606	8193.75
610.802	8261.34
610.998	8627.92
611.193	8701.65
611.389	8926.93
611.584	9178.83
611.78	9328.33
611.976	9731.78
612.171	10084.03
612.367	10294.97
612.562	10553.01
612.758	10739.38
612.953	10897.07
613.149	11400.87
613.344	11579.04
613.539	12048.03
613.735	12351.13
613.93	12592.79
614.126	13012.62
614.321	13246.09
614.517	13594.25
614.712	13780.61
614.907	14136.96
615.103	14694.01
615.298	14906.99
615.493	15273.58
615.688	15449.71
615.884	16375.39
616.079	16432.73
616.274	17016.4
616.47	17026.64
616.665	17796.68
616.86	18357.82
617.055	18767.41
617.25	19109.43
617.445	19715.62
617.641	19957.28
617.836	20702.75
618.031	20897.3
618.226	21745.16
618.421	22109.7
618.616	22838.78
618.811	22965.75
619.006	23905.77
619.201	23797.23
619.396	24974.81
619.591	24669.66
619.786	25796.04
619.981	26211.78
620.176	27082.17
620.371	27026.87
620.566	27907.5
620.761	28695.97
620.956	29277.59
621.151	29459.86
621.346	30250.38
621.541	30047.63
621.735	31806.83
621.93	31759.73
622.125	32445.8
622.32	32621.92
622.515	33895.76
622.709	34231.63
622.904	35194.17
623.099	35341.63
623.294	36255.02
623.488	36515.11
623.683	37723.41
623.878	37457.18
624.072	38446.35
624.267	39394.56
624.462	39630.07
624.656	39902.45
624.851	40725.74
625.046	41467.1
625.24	41966.8
625.435	42271.95
625.629	43353.28
625.824	43326.66
626.018	44106.93
626.213	43986.1
626.407	45065.38
626.602	45395.1
626.796	45931.67
626.991	46515.34
627.185	46738.57
627.38	46591.12
627.574	47176.84
627.768	47936.63
627.963	47651.97
628.157	47625.34
628.352	48325.75
628.546	47512.7
628.74	48559.22
628.935	47803.52
629.129	48151.67
629.323	47623.29
629.517	47715.45
629.712	47195.27
629.906	46994.57
630.1	46234.77
630.294	45999.26
630.489	45223.08
630.683	44993.7
630.877	44154.04
631.071	43836.6
631.265	43531.45
631.459	42673.35
631.653	41170.15
631.848	40580.33
632.042	39507.19
632.236	38700.29
632.43	37631.26
632.624	36992.29
632.818	35732.79
633.012	34751.81
633.206	33164.64
633.4	32920.93
633.594	31004.03
633.788	30354.82
633.982	29377.94
634.176	28331.43
634.369	27344.31
634.563	26326.47
634.757	25210.32
634.951	24323.55
635.145	23721.45
635.339	22609.4
635.533	21394.96
635.726	21046.8
635.92	19607.08
636.114	19238.45
636.308	18372.16
636.501	17694.28
636.695	17077.84
636.889	16090.72
637.083	15748.71
637.276	14888.56
637.47	14284.41
637.664	13946.5
637.857	13180.56
638.051	12666.52
638.244	12088.99
638.438	11736.74
638.632	11234.99
638.825	10665.65
639.019	10505.91
639.212	9862.85
639.406	9852.61
639.599	9223.88
639.793	9023.18
639.986	8517.33
640.18	8457.94
640.373	7710.43
640.567	7542.5
640.76	7249.64
640.954	6967.02
641.147	6735.6
641.34	6508.27
641.534	6395.64
641.727	5998.33
641.92	5691.13
642.114	5648.13
642.307	5392.13
642.5	5097.22
642.694	4972.3
642.887	4839.18
643.08	4720.4
643.273	4474.64
643.467	4280.08
643.66	4106.01
643.853	3931.93
644.046	3804.96
644.239	3716.89
644.432	3534.62
644.626	3245.86
644.819	3288.87
645.012	3211.04
645.205	3006.25
645.398	2907.94
645.591	2805.55
645.784	2637.61
645.977	2541.36
646.17	2479.92
646.363	2436.91
646.556	2299.7
646.749	2273.07
646.942	2293.55
647.135	2105.14
647.328	1941.3
647.521	1908.54
647.714	1890.1
647.907	1695.55
648.099	1693.5
648.292	1806.14
648.485	1566.53
648.678	1556.29
648.871	1482.56
649.064	1421.12
649.256	1371.97
649.449	1298.24
649.642	1263.43
649.835	1244.99
650.027	1101.64
650.22	1195.84
650.413	1036.1
650.605	1167.17
650.798	950.09
650.991	1032.01
651.183	896.84
651.376	872.26
651.568	974.66
651.761	796.49
651.954	892.74
652.146	878.41
652.339	776.01
652.531	886.6
652.724	669.52
652.916	663.37
653.109	569.16
653.301	810.82
653.494	708.43
653.686	724.81
653.879	700.23
654.071	681.8
654.263	546.64
654.456	503.63
654.648	685.9
654.84	665.42
655.033	434
655.225	517.97
655.417	356.18
655.61	665.42
655.802	565.07
655.994	540.49
656.186	321.36
656.379	610.12
656.571	319.31
656.763	477.01
656.955	368.46
657.148	364.37
657.34	511.82
657.532	327.5
657.724	360.27
657.916	325.46
658.108	450.38
658.3	333.65
658.492	386.9
658.684	317.26
658.876	380.75
659.068	276.31
659.26	239.44
659.452	237.39
659.644	296.78
659.836	454.48
660.028	319.31
660.22	206.67
660.412	216.91
660.604	218.96
660.796	268.11
660.988	438.09
661.18	231.25
661.372	272.21
661.563	210.77
661.755	288.59
661.947	165.71
662.139	272.21
662.331	255.83
662.522	288.59
662.714	128.85
662.906	241.49
663.097	290.64
663.289	163.67
663.481	165.71
663.673	171.86
663.864	223.06
664.056	157.52
664.247	186.19
664.439	255.83
664.631	292.69
664.822	268.11
665.014	268.11
665.205	83.8
665.397	161.62
665.588	202.58
665.78	83.8
665.971	282.45
666.163	120.66
666.354	231.25
666.546	118.61
666.737	73.56
666.929	89.94
667.12	147.28
667.311	188.24
667.503	155.47
667.694	139.09
667.885	180.05
668.077	145.24
668.268	75.6
668.459	94.04
668.651	153.43
668.842	186.19
669.033	87.89
669.224	151.38
669.416	360.27
669.607	214.87
669.798	102.23
669.989	292.69
670.18	61.27
670.371	171.86
670.563	48.98
670.754	200.53
670.945	184.15
671.136	212.82
671.327	42.84
671.518	223.06
671.709	227.15
671.9	196.43
672.091	202.58
672.282	182.1
672.473	161.62
672.664	71.51
672.855	118.61
673.046	149.33
673.237	188.24
673.428	126.8
673.619	190.29
673.809	153.43
674	214.87
674.191	130.9
674.382	178
674.573	59.22
674.764	132.95
674.954	218.96
675.145	196.43
675.336	67.41
675.527	36.69
675.717	87.89
675.908	153.43
676.099	139.09
676.289	218.96
676.48	91.99
676.671	116.56
676.861	114.52
677.052	198.48
677.243	186.19
677.433	163.67
677.624	243.54
677.814	159.57
678.005	169.81
678.195	339.79
678.386	124.76
678.576	155.47
678.767	53.08
678.957	147.28
679.148	239.44
679.338	272.21
679.529	249.68
679.719	79.7
679.909	178
680.1	278.35
680.29	270.16
680.481	46.93
680.671	178
680.861	243.54
681.052	231.25
681.242	98.13
681.432	237.39
681.622	147.28
681.813	137.04
682.003	71.51
682.193	206.67
682.383	122.71
682.573	171.86
682.764	96.08
682.954	218.96
683.144	317.26
683.334	194.39
683.524	124.76
683.714	206.67
683.904	227.15
684.094	208.72
684.284	225.11
684.474	345.94
684.664	241.49
684.854	259.92
685.044	163.67
685.234	171.86
685.424	159.57
685.614	94.04
685.804	325.46
685.994	192.34
686.184	214.87
686.374	175.95
686.564	251.73
686.753	202.58
686.943	139.09
687.133	186.19
687.323	257.87
687.513	190.29
687.702	173.91
687.892	178
688.082	249.68
688.272	296.78
688.461	227.15
688.651	317.26
688.841	141.14
689.03	141.14
689.22	194.39
689.41	227.15
689.599	188.24
689.789	178
689.979	300.88
690.168	241.49
690.358	298.83
690.547	139.09
690.737	247.63
690.926	206.67
691.116	210.77
691.305	204.63
691.495	208.72
691.684	110.42
691.874	173.91
692.063	130.9
692.252	255.83
692.442	239.44
692.631	175.95
692.82	104.28
693.01	245.59
693.199	204.63
693.388	190.29
693.578	208.72
693.767	288.59
693.956	225.11
694.146	173.91
694.335	214.87
694.524	190.29
694.713	278.35
694.902	184.15
695.092	186.19
695.281	268.11
695.47	210.77
695.659	192.34
695.848	192.34
696.037	171.86
696.226	210.77
696.415	225.11
696.604	372.56
696.793	329.55
696.982	73.56
697.171	323.41
697.36	104.28
697.549	206.67
697.738	91.99
697.927	143.19
698.116	98.13
698.305	276.31
698.494	186.19
698.683	79.7
698.872	304.98
699.061	151.38
699.25	173.91
699.438	159.57
699.627	173.91
699.816	364.37
700.005	143.19
700.193	175.95
700.382	239.44
700.571	163.67
700.76	235.35
700.948	202.58
701.137	223.06
701.326	233.3
701.514	145.24
701.703	229.2
701.892	159.57
702.08	325.46
702.269	159.57
702.457	221.01
702.646	139.09
702.834	229.2
703.023	163.67
703.212	233.3
703.4	143.19
703.589	169.81
703.777	175.95
703.965	139.09
704.154	145.24
704.342	85.84
704.531	167.76
704.719	175.95
704.907	218.96
705.096	75.6
705.284	149.33
705.472	153.43
705.661	266.07
705.849	214.87
706.037	210.77
706.226	98.13
706.414	190.29
706.602	194.39
706.79	241.49
706.979	122.71
707.167	165.71
707.355	135
707.543	208.72
707.731	268.11
707.919	200.53
708.107	114.52
708.296	114.52
708.484	135
708.672	237.39
708.86	243.54
709.048	190.29
709.236	79.7
709.424	227.15
709.612	225.11
709.8	153.43
709.988	216.91
710.176	212.82
710.364	259.92
710.551	120.66
710.739	137.04
710.927	198.48
711.115	180.05
711.303	243.54
711.491	264.02
711.679	124.76
711.866	319.31
712.054	63.32
712.242	161.62
712.43	259.92
712.617	132.95
712.805	327.5
712.993	247.63
713.181	46.93
713.368	264.02
713.556	214.87
713.744	171.86
713.931	264.02
714.119	204.63
714.306	194.39
714.494	132.95
714.682	175.95
714.869	91.99
715.057	157.52
715.244	91.99
715.432	151.38
715.619	63.32
715.807	202.58
715.994	161.62
716.182	112.47
716.369	304.98
716.556	255.83
716.744	67.41
716.931	143.19
717.119	264.02
717.306	214.87
717.493	212.82
717.681	108.37
717.868	184.15
718.055	180.05
718.242	139.09
718.43	251.73
718.617	366.42
718.804	225.11
718.991	319.31
719.179	223.06
719.366	225.11
719.553	274.26
719.74	157.52
719.927	175.95
720.114	163.67
720.301	206.67
720.488	196.43
720.676	161.62
720.863	296.78
721.05	370.51
721.237	249.68
721.424	284.5
721.611	216.91
721.798	135
721.985	255.83
722.172	237.39
722.358	237.39
722.545	272.21
722.732	225.11
722.919	331.6
723.106	249.68
723.293	233.3
723.48	255.83
723.667	153.43
723.853	304.98
724.04	304.98
724.227	337.74
724.414	282.45
724.6	268.11
724.787	304.98
724.974	450.38
725.161	304.98
725.347	200.53
725.534	245.59
725.72	290.64
725.907	343.89
726.094	243.54
726.28	229.2
726.467	237.39
726.653	184.15
726.84	413.52
727.027	382.8
727.213	190.29
727.4	186.19
727.586	288.59
727.773	278.35
727.959	282.45
728.145	288.59
728.332	276.31
728.518	231.25
728.705	343.89
728.891	300.88
729.077	278.35
729.264	178
729.45	290.64
729.636	341.84
729.823	286.54
730.009	317.26
730.195	304.98
730.382	364.37
730.568	204.63
730.754	288.59
730.94	290.64
731.126	180.05
731.313	309.07
731.499	317.26
731.685	337.74
731.871	315.22
732.057	309.07
732.243	354.13
732.429	339.79
732.615	427.85
732.801	364.37
732.987	300.88
733.173	290.64
733.359	255.83
733.545	341.84
733.731	292.69
733.917	337.74
734.103	335.7
734.289	372.56
734.475	221.01
734.661	501.58
734.847	350.03
735.033	341.84
735.219	378.7
735.404	257.87
735.59	245.59
735.776	313.17
735.962	350.03
736.148	386.9
736.333	393.04
736.519	278.35
736.705	253.78
736.89	249.68
737.076	358.22
737.262	364.37
737.447	243.54
737.633	300.88
737.819	390.99
738.004	278.35
738.19	372.56
738.375	315.22
738.561	421.71
738.747	393.04
738.932	259.92
739.118	524.11
739.303	386.9
739.489	436.05
739.674	350.03
739.859	243.54
740.045	341.84
740.23	323.41
740.416	163.67
740.601	296.78
740.786	362.32
740.972	290.64
741.157	290.64
741.342	276.31
741.528	288.59
741.713	362.32
741.898	302.93
742.084	327.5
742.269	356.18
742.454	315.22
742.639	358.22
742.824	253.78
743.01	380.75
743.195	456.53
743.38	294.74
743.565	313.17
743.75	317.26
743.935	362.32
744.12	390.99
744.305	221.01
744.49	259.92
744.675	245.59
744.86	333.65
745.045	274.26
745.23	335.7
745.415	239.44
745.6	382.8
745.785	255.83
745.97	366.42
746.155	350.03
746.34	407.38
746.525	376.66
746.71	315.22
746.895	212.82
747.079	255.83
747.264	315.22
747.449	395.09
747.634	440.14
747.819	296.78
748.003	339.79
748.188	264.02
748.373	366.42
748.557	292.69
748.742	294.74
748.927	288.59
749.111	329.55
749.296	243.54
749.481	376.66
749.665	331.6
749.85	264.02
750.034	366.42
750.219	243.54
750.404	268.11
750.588	333.65
750.773	268.11
750.957	270.16
751.141	268.11
751.326	350.03
751.51	165.71
751.695	274.26
751.879	288.59
752.064	319.31
752.248	247.63
752.432	423.76
752.617	331.6
752.801	356.18
752.985	206.67
753.17	364.37
753.354	278.35
753.538	325.46
753.722	198.48
753.907	259.92
754.091	221.01
754.275	362.32
754.459	194.39
754.643	171.86
754.828	243.54
755.012	210.77
755.196	210.77
755.38	212.82
755.564	208.72
755.748	245.59
755.932	261.97
756.116	284.5
756.3	233.3
756.484	186.19
756.668	259.92
756.852	153.43
757.036	235.35
757.22	188.24
757.404	167.76
757.588	202.58
757.772	325.46
757.956	249.68
758.14	376.66
758.323	130.9
758.507	141.14
758.691	149.33
758.875	235.35
759.059	198.48
759.242	161.62
759.426	223.06
759.61	231.25
759.794	112.47
759.977	221.01
760.161	397.14
760.345	182.1
760.528	298.83
760.712	206.67
760.895	208.72
761.079	286.54
761.263	157.52
761.446	155.47
761.63	98.13
761.813	257.87
761.997	87.89
762.18	157.52
762.364	173.91
762.547	89.94
762.731	137.04
762.914	130.9
763.098	188.24
763.281	59.22
763.464	151.38
763.648	237.39
763.831	110.42
764.015	65.36
764.198	264.02
764.381	175.95
764.564	139.09
764.748	151.38
764.931	163.67
765.114	114.52
765.297	218.96
765.481	-28.84
765.664	196.43
765.847	161.62
766.03	237.39
766.213	75.6
766.397	94.04
766.58	55.12
766.763	229.2
766.946	130.9
767.129	114.52
767.312	59.22
767.495	118.61
767.678	73.56
767.861	173.91
768.044	155.47
768.227	112.47
768.41	108.37
768.593	190.29
768.776	210.77
768.959	100.18
769.142	249.68
769.324	155.47
769.507	184.15
769.69	118.61
769.873	73.56
770.056	274.26
770.239	26.45
770.421	165.71
770.604	239.44
770.787	190.29
770.97	169.81
771.152	120.66
771.335	116.56
771.518	77.65
771.7	210.77
771.883	223.06
772.066	79.7
772.248	145.24
772.431	184.15
772.613	210.77
772.796	102.23
772.978	149.33
773.161	229.2
773.343	18.26
773.526	135
773.708	28.5
773.891	20.31
774.073	100.18
774.256	122.71
774.438	223.06
774.621	57.17
774.803	98.13
774.985	51.03
775.168	178
775.35	112.47
775.532	159.57
775.715	5.97
775.897	130.9
776.079	157.52
776.261	173.91
776.444	116.56
776.626	81.75
776.808	91.99
776.99	-12.46
777.173	169.81
777.355	108.37
777.537	67.41
777.719	106.32
777.901	114.52
778.083	67.41
778.265	36.69
778.447	210.77
778.629	61.27
778.811	89.94
778.993	141.14
779.175	145.24
779.357	118.61
779.539	-49.32
779.721	128.85
779.903	137.04
780.085	102.23
780.267	178
780.449	94.04
780.631	149.33
780.812	120.66
780.994	91.99
781.176	63.32
781.358	63.32
781.54	59.22
781.721	108.37
781.903	114.52
782.085	77.65
782.267	206.67
782.448	65.36
782.63	-6.31
782.812	65.36
782.993	126.8
783.175	77.65
783.357	63.32
783.538	112.47
783.72	24.4
783.901	91.99
784.083	108.37
784.264	42.84
784.446	-18.6
784.627	89.94
784.809	167.76
784.99	34.64
785.172	147.28
785.353	51.03
785.535	98.13
785.716	26.45
785.897	-26.79
786.079	89.94
786.26	108.37
786.441	63.32
786.623	-53.42
786.804	38.74
786.985	83.8
787.167	110.42
787.348	38.74
787.529	94.04
787.71	75.6
787.891	124.76
788.073	8.02
788.254	16.21
788.435	200.53
788.616	96.08
788.797	26.45
788.978	73.56
789.159	3.93
789.34	55.12
789.522	71.51
789.703	8.02
789.884	100.18
790.065	65.36
790.246	198.48
790.427	30.55
790.607	151.38
790.788	171.86
790.969	-37.03
791.15	87.89
791.331	-4.27
791.512	-0.17
791.693	-49.32
791.874	-18.6
792.054	200.53
792.235	98.13
792.416	51.03
792.597	12.12
792.778	46.93
792.958	46.93
793.139	40.79
793.32	128.85
793.5	-0.17
793.681	91.99
793.862	69.46
794.042	108.37
794.223	-57.51
794.404	55.12
794.584	-59.56
794.765	-6.31
794.945	1.88
795.126	94.04
795.306	126.8
795.487	-14.51
795.667	22.36
795.848	108.37
796.028	59.22
796.209	26.45
796.389	83.8
796.57	42.84
796.75	16.21
796.93	-6.31
797.111	16.21
797.291	5.97
797.471	112.47
797.652	71.51
797.832	-28.84
798.012	114.52
798.192	22.36
798.373	-57.51
798.553	-18.6
798.733	42.84
798.913	-75.95
799.093	-2.22
799.274	73.56
799.454	65.36
799.634	124.76
799.814	126.8
799.994	75.6
800.174	51.03
800.354	69.46
800.534	-116.9
800.714	104.28
800.894	-20.65
801.074	12.12
801.254	12.12
801.434	188.24
801.614	30.55
801.794	-67.75
801.974	2101.05
802.154	34.64
802.334	114.52
802.514	12.12
802.693	26.45
802.873	55.12
803.053	63.32
803.233	42.84
803.413	-8.36
803.592	-14.51
803.772	12.12
803.952	38.74
804.131	-30.89
804.311	12.12
804.491	114.52
804.67	-37.03
804.85	-8.36
805.03	79.7
805.209	94.04
805.389	-26.79
805.568	-53.42
805.748	1.88
805.928	89.94
806.107	102.23
806.287	112.47
806.466	59.22
806.646	-10.41
806.825	-39.08
807.004	-4.27
807.184	100.18
807.363	128.85
807.543	48.98
807.722	-18.6
807.901	98.13
808.081	83.8
808.26	-129.19
808.439	79.7
808.619	91.99
808.798	40.79
808.977	38.74
809.156	42.84
809.336	46.93
809.515	24.4
809.694	8.02
809.873	46.93
810.052	120.66
810.231	85.84
810.411	48.98
810.59	48.98
810.769	40.79
810.948	65.36
811.127	-108.71
811.306	-63.66
811.485	-55.47
811.664	216.91
811.843	-4.27
812.022	-10.41
812.201	16.21
812.38	34.64
812.559	-0.17
812.737	40.79
812.916	-63.66
813.095	8.02
813.274	-16.55
813.453	-14.51
813.632	48.98
813.811	149.33
813.989	-86.19
814.168	53.08
814.347	-75.95
814.526	-43.18
814.704	53.08
814.883	122.71
815.062	-32.94
815.24	77.65
815.419	-24.75
815.598	83.8
815.776	-71.85
815.955	-8.36
816.133	-135.34
816.312	-32.94
816.49	-39.08
816.669	10.07
816.847	-61.61
817.026	59.22
817.204	53.08
817.383	12.12
817.561	-59.56
817.74	-51.37
817.918	-0.17
818.097	-53.42
818.275	-88.23
818.453	73.56
818.632	126.8
818.81	10.07
818.988	20.31
819.167	-51.37
819.345	77.65
819.523	-104.62
819.701	-26.79
819.879	14.17
820.058	46.93
820.236	53.08
820.414	36.69
820.592	48.98
820.77	16.21
820.948	-139.43
821.127	-20.65
821.305	51.03
821.483	1.88
821.661	159.57
821.839	34.64
822.017	-67.75
822.195	18.26
822.373	141.14
822.551	51.03
822.729	18.26
822.907	-49.32
823.085	83.8
823.262	98.13
823.44	-84.14
823.618	-45.23
823.796	18.26
823.974	-0.17
824.152	46.93
824.329	-10.41
824.507	34.64
824.685	75.6
824.863	-16.55
825.04	-16.55
825.218	3.93
825.396	-45.23
825.574	-6.31
825.751	57.17
825.929	124.76
826.107	-153.77
826.284	48.98
826.462	-37.03
826.639	32.6
826.817	-106.67
826.994	94.04
827.172	-125.1
827.349	175.95
827.527	114.52
827.704	-30.89
827.882	128.85
828.059	-32.94
828.237	34.64
828.414	57.17
828.591	-112.81
828.769	100.18
828.946	-104.62
829.124	28.5
829.301	57.17
829.478	8.02
829.655	87.89
829.833	3.93
830.01	-77.99
830.187	100.18
830.364	-12.46
830.542	53.08
830.719	98.13
830.896	38.74
831.073	12.12
831.25	67.41
831.427	24.4
831.604	-30.89
831.782	-28.84
831.959	57.17
832.136	-0.17
832.313	-26.79
832.49	-26.79
832.667	34.64
832.844	-65.71
833.021	128.85
833.198	36.69
833.374	30.55
833.551	-12.46
833.728	14.17
833.905	87.89
834.082	-51.37
834.259	30.55
834.436	159.57
834.612	-30.89
834.789	46.93
834.966	22.36
835.143	24.4
835.319	-84.14
835.496	44.88
835.673	46.93
835.85	122.71
836.026	-49.32
836.203	94.04
836.38	-53.42
836.556	32.6
836.733	36.69
836.909	147.28
837.086	24.4
837.262	-51.37
837.439	-47.27
837.616	-37.03
837.792	-59.56
837.968	48.98
838.145	-106.67
838.321	102.23
838.498	53.08
838.674	77.65
838.851	53.08
839.027	-51.37
839.203	24.4
839.38	108.37
839.556	-24.75
839.732	100.18
839.909	-16.55
840.085	30.55
840.261	-57.51
840.437	73.56
840.614	30.55
840.79	57.17
840.966	102.23
841.142	26.45
841.318	-71.85
841.494	-30.89
841.671	135
841.847	-65.71
842.023	-55.47
842.199	38.74
842.375	167.76
842.551	-143.53
842.727	-67.75
842.903	135
843.079	-127.14
843.255	104.28
843.431	91.99
843.607	36.69
843.783	-118.95
843.959	141.14
844.134	-22.7
844.31	130.9
844.486	-45.23
844.662	-28.84
844.838	20.31
845.013	-59.56
845.189	22.36
845.365	-12.46
845.541	30.55
845.716	26.45
845.892	69.46
846.068	-8.36
846.244	-47.27
846.419	65.36
846.595	12.12
846.77	-20.65
846.946	87.89
847.122	-10.41
847.297	-24.75
847.473	118.61
847.648	-106.67
847.824	-28.84
847.999	-80.04
848.175	3.93
848.35	-6.31
848.526	135
848.701	1.88
848.876	-10.41
849.052	83.8
849.227	22.36
849.403	-69.8
849.578	-55.47
849.753	59.22
849.929	-4.27
850.104	-53.42
850.279	-12.46
850.454	98.13
850.63	59.22
850.805	46.93
850.98	12.12
851.155	-34.99
851.33	48.98
851.505	-28.84
851.681	132.95
851.856	40.79
852.031	-14.51
852.206	26.45
852.381	-55.47
852.556	-55.47
852.731	-22.7
852.906	55.12
853.081	10.07
853.256	61.27
853.431	-28.84
853.606	20.31
853.781	-41.13
853.956	-86.19
854.131	59.22
854.305	5.97
854.48	14.17
854.655	-63.66
854.83	-69.8
855.005	-18.6
855.18	57.17
855.354	24.4
855.529	34.64
855.704	16.21
855.879	141.14
856.053	-37.03
856.228	10.07
856.403	-98.47
856.577	10.07
856.752	-92.33
856.926	34.64
857.101	-8.36
857.276	-116.9
857.45	71.51
857.625	98.13
857.799	14.17
857.974	-2.22
858.148	-141.48
858.323	10.07
858.497	-18.6
858.672	-47.27
858.846	-55.47
859.02	57.17
859.195	-82.09
859.369	-26.79
859.543	40.79
859.718	8.02
859.892	79.7
860.066	22.36
860.241	-69.8
860.415	-82.09
860.589	-22.7
860.763	-8.36
860.938	-77.99
861.112	34.64
861.286	-51.37
861.46	81.75
861.634	-57.51
861.808	59.22
861.982	-75.95
862.157	-92.33
862.331	-59.56
862.505	-110.76
862.679	-49.32
862.853	-6.31
863.027	-4.27
863.201	151.38
863.375	-26.79
863.549	106.32
863.722	-34.99
863.896	128.85
864.07	-10.41
864.244	-37.03
864.418	94.04
864.592	5.97
864.766	5.97
864.939	-65.71
865.113	-0.17
865.287	42.84
865.461	-59.56
865.634	-2.22
865.808	8.02
865.982	-39.08
866.156	-28.84
866.329	-96.43
866.503	-8.36
866.676	96.08
866.85	75.6
867.024	-61.61
867.197	126.8
867.371	48.98
867.544	42.84
867.718	-98.47
867.891	108.37
868.065	-20.65
868.238	36.69
868.412	83.8
868.585	89.94
868.759	-55.47
868.932	-37.03
869.105	-108.71
869.279	-43.18
869.452	-59.56
869.625	-69.8
869.799	24.4
869.972	-65.71
870.145	-8.36
870.319	91.99
870.492	-49.32
870.665	-26.79
870.838	-55.47
871.011	-16.55
871.185	-51.37
871.358	28.5
871.531	40.79
871.704	-73.9
871.877	126.8
872.05	-2.22
872.223	-161.96
872.396	-18.6
872.569	46.93
872.742	-92.33
872.915	14.17
873.088	40.79
873.261	-96.43
873.434	118.61
873.607	16.21
873.78	141.14
873.953	-63.66
874.126	-14.51
874.299	42.84
874.471	-4.27
874.644	-59.56
874.817	-30.89
874.99	135
875.163	-32.94
875.335	32.6
875.508	10.07
875.681	110.42
875.853	-63.66
876.026	20.31
876.199	77.65
876.371	-10.41
876.544	-24.75
876.717	16.21
876.889	-26.79
877.062	46.93
877.234	-84.14
877.407	-26.79
877.579	24.4
877.752	44.88
877.924	87.89
878.097	22.36
878.269	-49.32
878.442	98.13
878.614	1.88
878.786	22.36
878.959	-2.22
879.131	18.26
879.303	-28.84
879.476	-65.71
879.648	55.12
879.82	-6.31
879.993	-71.85
880.165	-65.71
880.337	-90.28
880.509	69.46
880.681	-149.67
880.854	-55.47
881.026	28.5
881.198	163.67
881.37	-94.38
881.542	53.08
881.714	-20.65
881.886	-80.04
882.058	-6.31
882.23	-45.23
882.402	8.02
882.574	48.98
882.746	116.56
882.918	120.66
883.09	55.12
883.262	-30.89
883.434	51.03
883.606	-137.38
883.778	59.22
883.95	65.36
884.122	-10.41
884.293	40.79
884.465	-39.08
884.637	100.18
884.809	-26.79
884.98	71.51
885.152	28.5
885.324	34.64
885.496	-0.17
885.667	14.17
885.839	-20.65
886.011	110.42
886.182	102.23
886.354	85.84
886.525	32.6
886.697	-6.31
886.869	16.21
887.04	20.31
887.212	143.19
887.383	151.38
887.555	-16.55
887.726	-77.99
887.897	-24.75
888.069	-47.27
888.24	81.75
888.412	-77.99
888.583	10.07
888.754	10.07
888.926	-141.48
889.097	-69.8
889.268	-118.95
889.44	34.64
889.611	-92.33
889.782	-28.84
889.953	-6.31
890.125	106.32
890.296	-16.55
890.467	-4.27
890.638	-80.04
890.809	-12.46
890.98	-61.61
891.151	91.99
891.323	132.95
891.494	-51.37
891.665	42.84
891.836	34.64
892.007	51.03
892.178	24.4
892.349	26.45
892.52	-75.95
892.691	81.75
892.862	10.07
893.032	-61.61
893.203	-32.94
893.374	61.27
893.545	100.18
893.716	-108.71
893.887	71.51
894.057	-26.79
894.228	-0.17
894.399	-22.7
894.57	77.65
894.74	26.45
894.911	20.31
895.082	3.93
895.253	-43.18
895.423	-2.22
895.594	63.32
895.764	16.21
895.935	-88.23
896.106	28.5
896.276	-112.81
896.447	20.31
896.617	-67.75
896.788	-73.9
896.958	3.93
897.129	-47.27
897.299	-98.47
897.47	73.56
897.64	46.93
897.81	40.79
897.981	85.84
898.151	-94.38
898.322	5.97
898.492	32.6
898.662	-94.38
898.832	-100.52
899.003	-94.38
899.173	28.5
899.343	-14.51
899.513	-84.14
