Data from USB4F104151__73__11-31-03-164.txt Node

Date: Wed Feb 26 11:31:03 EST 2025
User: louis
Spectrometer: USB4F10415
Trigger mode: 4
Integration Time (sec): 1.000000E-1
Scans to average: 1
Electric dark correction enabled: true
Nonlinearity correction enabled: false
Boxcar width: 0
XAxis mode: Wavelengths
Number of Pixels in Spectrum: 3648
>>>>>Begin Spectral Data<<<<<
178.204	-344.06
178.424	-344.06
178.644	-344.06
178.864	-391.16
179.084	-356.35
179.304	6.14
179.524	8.19
179.744	-16.38
179.964	14.34
180.184	83.97
180.404	-40.96
180.624	40.96
180.844	6.14
181.064	-61.44
181.283	32.77
181.503	-55.3
181.723	-18.43
181.943	-169.98
182.163	239.61
182.383	-14.34
182.602	98.3
182.822	135.17
183.042	86.01
183.262	-12.29
183.482	55.3
183.701	98.3
183.921	26.62
184.141	-55.3
184.361	30.72
184.58	4.1
184.8	73.73
185.02	-6.14
185.239	100.35
185.459	112.64
185.679	151.55
185.898	-77.82
186.118	92.16
186.338	83.97
186.557	194.56
186.777	-65.53
186.997	-40.96
187.216	88.06
187.436	104.45
187.655	57.34
187.875	200.7
188.095	57.34
188.314	157.69
188.534	155.65
188.753	18.43
188.973	122.88
189.192	163.84
189.412	59.39
189.631	38.91
189.851	131.07
190.07	92.16
190.29	-61.44
190.509	2.05
190.729	139.26
190.948	131.07
191.168	266.24
191.387	129.02
191.607	-18.43
191.826	110.59
192.045	43.01
192.265	-20.48
192.484	-10.24
192.704	-14.34
192.923	-49.15
193.142	184.32
193.362	120.83
193.581	120.83
193.8	88.06
194.02	53.25
194.239	157.69
194.458	120.83
194.678	49.15
194.897	-6.14
195.116	65.54
195.335	32.77
195.555	137.21
195.774	-8.19
195.993	77.82
196.212	30.72
196.432	-40.96
196.651	-8.19
196.87	124.93
197.089	202.75
197.308	59.39
197.528	67.58
197.747	20.48
197.966	77.82
198.185	151.55
198.404	-36.86
198.623	122.88
198.842	67.58
199.062	139.26
199.281	124.93
199.5	79.87
199.719	131.07
199.938	77.82
200.157	77.82
200.376	110.59
200.595	151.55
200.814	126.97
201.033	-20.48
201.252	153.6
201.471	108.54
201.69	77.82
201.909	57.34
202.128	104.45
202.347	129.02
202.566	2.05
202.785	-12.29
203.004	-67.58
203.223	333.82
203.442	8.19
203.661	2.05
203.879	88.06
204.098	114.69
204.317	69.63
204.536	106.49
204.755	73.73
204.974	172.03
205.193	45.06
205.411	149.5
205.63	108.54
205.849	108.54
206.068	51.2
206.287	73.73
206.505	237.56
206.724	-16.38
206.943	-20.48
207.162	10.24
207.381	30.72
207.599	53.25
207.818	38.91
208.037	6.14
208.255	90.11
208.474	47.1
208.693	102.4
208.911	45.06
209.13	129.02
209.349	139.26
209.567	126.97
209.786	83.97
210.005	104.45
210.223	8.19
210.442	-79.87
210.661	61.44
210.879	108.54
211.098	63.49
211.316	120.83
211.535	118.78
211.753	75.77
211.972	6.14
212.191	12.29
212.409	30.72
212.628	167.93
212.846	-8.19
213.065	86.01
213.283	112.64
213.502	102.4
213.72	69.63
213.938	59.39
214.157	18.43
214.375	108.54
214.594	40.96
214.812	108.54
215.031	4.1
215.249	71.68
215.467	108.54
215.686	133.12
215.904	110.59
216.122	34.82
216.341	172.03
216.559	75.77
216.778	137.21
216.996	147.45
217.214	-16.38
217.432	-10.24
217.651	-45.06
217.869	32.77
218.087	63.49
218.306	28.67
218.524	-32.77
218.742	34.82
218.96	202.75
219.179	77.82
219.397	16.38
219.615	290.81
219.833	86.01
220.051	-14.34
220.27	59.39
220.488	149.5
220.706	79.87
220.924	43.01
221.142	12.29
221.36	110.59
221.578	47.1
221.796	10.24
222.015	59.39
222.233	102.4
222.451	157.69
222.669	-53.25
222.887	71.68
223.105	-38.91
223.323	-30.72
223.541	49.15
223.759	75.77
223.977	38.91
224.195	198.65
224.413	86.01
224.631	65.54
224.849	57.34
225.067	256
225.285	-2.05
225.503	-14.34
225.721	-45.06
225.939	63.49
226.157	81.92
226.375	155.65
226.592	36.86
226.81	-59.39
227.028	235.52
227.246	98.3
227.464	67.58
227.682	92.16
227.9	36.86
228.117	126.97
228.335	79.87
228.553	71.68
228.771	53.25
228.989	26.62
229.206	141.31
229.424	-18.43
229.642	94.21
229.86	14.34
230.077	182.27
230.295	51.2
230.513	100.35
230.731	94.21
230.948	153.6
231.166	149.5
231.384	28.67
231.601	51.2
231.819	229.37
232.037	38.91
232.254	-43.01
232.472	57.34
232.689	6.14
232.907	149.5
233.125	-32.77
233.342	-20.48
233.56	40.96
233.777	16.38
233.995	43.01
234.213	163.84
234.43	126.97
234.648	26.62
234.865	34.82
235.083	40.96
235.3	108.54
235.518	92.16
235.735	204.8
235.953	135.17
236.17	8.19
236.388	10.24
236.605	139.26
236.822	104.45
237.04	53.25
237.257	112.64
237.475	-28.67
237.692	53.25
237.909	75.77
238.127	10.24
238.344	176.13
238.562	71.68
238.779	-81.92
238.996	-36.86
239.214	114.69
239.431	40.96
239.648	-16.38
239.865	167.93
240.083	182.27
240.3	-40.96
240.517	65.54
240.735	36.86
240.952	104.45
241.169	20.48
241.386	45.06
241.603	49.15
241.821	-49.15
242.038	98.3
242.255	141.31
242.472	-16.38
242.689	149.5
242.907	79.87
243.124	47.1
243.341	2.05
243.558	-55.3
243.775	-47.1
243.992	24.58
244.209	73.73
244.426	151.55
244.643	71.68
244.86	86.01
245.078	83.97
245.295	79.87
245.512	79.87
245.729	-14.34
245.946	75.77
246.163	79.87
246.38	73.73
246.597	59.39
246.814	65.54
247.031	20.48
247.248	4.1
247.464	116.73
247.681	96.25
247.898	126.97
248.115	104.45
248.332	26.62
248.549	221.18
248.766	188.41
248.983	106.49
249.2	26.62
249.417	73.73
249.633	8.19
249.85	129.02
250.067	88.06
250.284	40.96
250.501	81.92
250.717	57.34
250.934	-43.01
251.151	92.16
251.368	61.44
251.585	59.39
251.801	100.35
252.018	-22.53
252.235	12.29
252.451	-22.53
252.668	-14.34
252.885	190.46
253.102	55.3
253.318	26.62
253.535	55.3
253.752	34.82
253.968	47.1
254.185	-102.4
254.401	36.86
254.618	90.11
254.835	-4.1
255.051	180.22
255.268	75.77
255.484	28.67
255.701	81.92
255.917	55.3
256.134	-10.24
256.351	53.25
256.567	-118.78
256.784	6.14
257	-26.62
257.217	30.72
257.433	65.54
257.65	118.78
257.866	196.61
258.082	4.1
258.299	22.53
258.515	53.25
258.732	108.54
258.948	-65.53
259.165	51.2
259.381	36.86
259.597	94.21
259.814	-8.19
260.03	124.93
260.246	98.3
260.463	102.4
260.679	79.87
260.895	43.01
261.112	81.92
261.328	71.68
261.544	-20.48
261.761	190.46
261.977	-8.19
262.193	18.43
262.409	131.07
262.626	90.11
262.842	45.06
263.058	45.06
263.274	163.84
263.49	73.73
263.707	81.92
263.923	36.86
264.139	-49.15
264.355	34.82
264.571	102.4
264.787	75.77
265.004	182.27
265.22	96.25
265.436	-36.86
265.652	-12.29
265.868	22.53
266.084	20.48
266.3	45.06
266.516	4.1
266.732	69.63
266.948	-2.05
267.164	51.2
267.38	176.13
267.596	67.58
267.812	190.46
268.028	40.96
268.244	20.48
268.46	131.07
268.676	55.3
268.892	73.73
269.108	47.1
269.324	-38.91
269.54	-20.48
269.756	22.53
269.972	2.05
270.188	-10.24
270.403	-65.53
270.619	-12.29
270.835	88.06
271.051	100.35
271.267	57.34
271.483	4.1
271.698	104.45
271.914	106.49
272.13	69.63
272.346	38.91
272.562	-30.72
272.777	116.73
272.993	-22.53
273.209	47.1
273.425	141.31
273.64	-14.34
273.856	71.68
274.072	-34.82
274.287	-57.34
274.503	77.82
274.719	26.62
274.934	59.39
275.15	-90.11
275.366	83.97
275.581	20.48
275.797	53.25
276.012	55.3
276.228	18.43
276.444	34.82
276.659	161.79
276.875	28.67
277.09	-20.48
277.306	26.62
277.521	16.38
277.737	100.35
277.952	131.07
278.168	16.38
278.383	57.34
278.599	61.44
278.814	106.49
279.03	65.54
279.245	118.78
279.461	59.39
279.676	204.8
279.892	-6.14
280.107	0
280.322	47.1
280.538	59.39
280.753	8.19
280.969	118.78
281.184	12.29
281.399	186.37
281.615	-12.29
281.83	102.4
282.045	-73.73
282.26	-24.58
282.476	69.63
282.691	126.97
282.906	102.4
283.122	-26.62
283.337	71.68
283.552	36.86
283.767	45.06
283.983	188.41
284.198	-6.14
284.413	114.69
284.628	-43.01
284.843	81.92
285.058	118.78
285.274	-2.05
285.489	16.38
285.704	153.6
285.919	-32.77
286.134	10.24
286.349	-49.15
286.564	6.14
286.779	108.54
286.995	90.11
287.21	-57.34
287.425	147.45
287.64	-67.58
287.855	79.87
288.07	-14.34
288.285	174.08
288.5	141.31
288.715	112.64
288.93	30.72
289.145	30.72
289.36	55.3
289.575	-2.05
289.79	55.3
290.004	53.25
290.219	188.41
290.434	16.38
290.649	10.24
290.864	83.97
291.079	51.2
291.294	-18.43
291.509	120.83
291.724	-77.82
291.938	83.97
292.153	47.1
292.368	36.86
292.583	69.63
292.798	71.68
293.012	133.12
293.227	61.44
293.442	47.1
293.657	131.07
293.871	149.5
294.086	96.25
294.301	159.74
294.516	61.44
294.73	59.39
294.945	-92.16
295.16	45.06
295.374	235.52
295.589	176.13
295.804	53.25
296.018	47.1
296.233	122.88
296.447	49.15
296.662	-43.01
296.877	94.21
297.091	100.35
297.306	55.3
297.52	30.72
297.735	75.77
297.949	36.86
298.164	43.01
298.378	38.91
298.593	-12.29
298.807	59.39
299.022	12.29
299.236	129.02
299.451	0
299.665	124.93
299.88	4.1
300.094	71.68
300.309	8.19
300.523	-2.05
300.737	36.86
300.952	43.01
301.166	36.86
301.381	-10.24
301.595	26.62
301.809	8.19
302.024	92.16
302.238	57.34
302.452	163.84
302.667	77.82
302.881	110.59
303.095	120.83
303.309	149.5
303.524	-8.19
303.738	-16.38
303.952	-8.19
304.166	71.68
304.381	-22.53
304.595	122.88
304.809	-30.72
305.023	51.2
305.237	8.19
305.452	16.38
305.666	114.69
305.88	67.58
306.094	137.21
306.308	75.77
306.522	133.12
306.736	92.16
306.95	118.78
307.164	-20.48
307.379	-10.24
307.593	163.84
307.807	165.89
308.021	86.01
308.235	124.93
308.449	-77.82
308.663	0
308.877	241.66
309.091	51.2
309.305	110.59
309.519	-77.82
309.733	155.65
309.947	-4.1
310.161	141.31
310.374	157.69
310.588	69.63
310.802	-14.34
311.016	108.54
311.23	43.01
311.444	-4.1
311.658	0
311.872	159.74
312.085	178.17
312.299	114.69
312.513	159.74
312.727	55.3
312.941	22.53
313.154	28.67
313.368	18.43
313.582	8.19
313.796	65.54
314.009	59.39
314.223	98.3
314.437	2.05
314.651	104.45
314.864	2.05
315.078	-2.05
315.292	61.44
315.505	-20.48
315.719	90.11
315.933	77.82
316.146	-30.72
316.36	0
316.573	169.98
316.787	75.77
317.001	28.67
317.214	-90.11
317.428	102.4
317.641	-38.91
317.855	63.49
318.068	47.1
318.282	45.06
318.495	202.75
318.709	71.68
318.922	22.53
319.136	135.17
319.349	110.59
319.563	-28.67
319.776	88.06
319.99	-36.86
320.203	102.4
320.417	75.77
320.63	102.4
320.843	217.08
321.057	55.3
321.27	55.3
321.483	86.01
321.697	131.07
321.91	55.3
322.124	83.97
322.337	40.96
322.55	12.29
322.763	108.54
322.977	8.19
323.19	16.38
323.403	45.06
323.617	38.91
323.83	96.25
324.043	-20.48
324.256	118.78
324.469	-28.67
324.683	79.87
324.896	100.35
325.109	18.43
325.322	-88.06
325.535	104.45
325.748	145.41
325.962	-16.38
326.175	118.78
326.388	155.65
326.601	77.82
326.814	22.53
327.027	73.73
327.24	153.6
327.453	-49.15
327.666	90.11
327.879	178.17
328.092	102.4
328.305	174.08
328.518	4.1
328.731	22.53
328.944	26.62
329.157	112.64
329.37	20.48
329.583	208.89
329.796	167.93
330.009	0
330.222	157.69
330.435	147.45
330.648	79.87
330.861	108.54
331.073	86.01
331.286	92.16
331.499	98.3
331.712	-51.2
331.925	71.68
332.138	53.25
332.35	129.02
332.563	-10.24
332.776	133.12
332.989	18.43
333.202	20.48
333.414	43.01
333.627	51.2
333.84	36.86
334.053	51.2
334.265	71.68
334.478	2.05
334.691	34.82
334.903	55.3
335.116	43.01
335.329	61.44
335.541	108.54
335.754	161.79
335.966	-4.1
336.179	28.67
336.392	116.73
336.604	43.01
336.817	122.88
337.029	98.3
337.242	79.87
337.454	133.12
337.667	96.25
337.88	126.97
338.092	20.48
338.305	90.11
338.517	-38.91
338.729	110.59
338.942	180.22
339.154	-28.67
339.367	-57.34
339.579	139.26
339.792	-4.1
340.004	139.26
340.217	-38.91
340.429	118.78
340.641	-51.2
340.854	34.82
341.066	40.96
341.278	153.6
341.491	188.41
341.703	65.54
341.915	-57.34
342.128	229.37
342.34	98.3
342.552	8.19
342.764	-18.43
342.977	24.58
343.189	135.17
343.401	34.82
343.613	-59.39
343.826	90.11
344.038	28.67
344.25	24.58
344.462	-16.38
344.674	112.64
344.886	30.72
345.099	49.15
345.311	92.16
345.523	-32.77
345.735	-40.96
345.947	59.39
346.159	118.78
346.371	-6.14
346.583	16.38
346.795	200.7
347.007	65.54
347.219	94.21
347.431	38.91
347.643	126.97
347.855	-14.34
348.067	155.65
348.279	-61.44
348.491	47.1
348.703	86.01
348.915	51.2
349.127	-12.29
349.339	6.14
349.551	24.58
349.763	90.11
349.975	40.96
350.187	137.21
350.399	112.64
350.61	75.77
350.822	110.59
351.034	100.35
351.246	-6.14
351.458	167.93
351.669	79.87
351.881	153.6
352.093	172.03
352.305	155.65
352.517	96.25
352.728	102.4
352.94	49.15
353.152	112.64
353.363	14.34
353.575	83.97
353.787	172.03
353.999	55.3
354.21	182.27
354.422	-69.63
354.633	53.25
354.845	34.82
355.057	63.49
355.268	131.07
355.48	81.92
355.692	-40.96
355.903	18.43
356.115	59.39
356.326	-100.35
356.538	100.35
356.749	34.82
356.961	188.41
357.172	32.77
357.384	30.72
357.595	243.71
357.807	-2.05
358.018	-4.1
358.23	-43.01
358.441	157.69
358.653	73.73
358.864	4.1
359.075	2.05
359.287	73.73
359.498	94.21
359.709	57.34
359.921	49.15
360.132	108.54
360.344	57.34
360.555	28.67
360.766	81.92
360.977	16.38
361.189	129.02
361.4	43.01
361.611	131.07
361.823	120.83
362.034	67.58
362.245	-47.1
362.456	8.19
362.667	118.78
362.879	-38.91
363.09	77.82
363.301	100.35
363.512	71.68
363.723	-16.38
363.935	-47.1
364.146	67.58
364.357	53.25
364.568	0
364.779	-20.48
364.99	192.51
365.201	18.43
365.412	114.69
365.623	-55.3
365.834	81.92
366.045	178.17
366.256	133.12
366.467	22.53
366.678	30.72
366.889	133.12
367.1	26.62
367.311	110.59
367.522	45.06
367.733	51.2
367.944	69.63
368.155	-16.38
368.366	106.49
368.577	141.31
368.788	143.36
368.999	-34.82
369.209	112.64
369.42	167.93
369.631	194.56
369.842	126.97
370.053	100.35
370.264	219.13
370.474	-20.48
370.685	79.87
370.896	51.2
371.107	186.37
371.317	-28.67
371.528	-22.53
371.739	100.35
371.95	49.15
372.16	163.84
372.371	73.73
372.582	28.67
372.792	77.82
373.003	2.05
373.214	94.21
373.424	18.43
373.635	-26.62
373.846	135.17
374.056	40.96
374.267	65.54
374.477	20.48
374.688	34.82
374.898	75.77
375.109	90.11
375.319	61.44
375.53	129.02
375.74	104.45
375.951	-30.72
376.161	88.06
376.372	212.99
376.582	28.67
376.793	92.16
377.003	55.3
377.214	-10.24
377.424	81.92
377.635	63.49
377.845	-94.21
378.055	192.51
378.266	-57.34
378.476	81.92
378.686	71.68
378.897	94.21
379.107	98.3
379.317	135.17
379.528	38.91
379.738	147.45
379.948	-65.53
380.158	192.51
380.369	53.25
380.579	120.83
380.789	-59.39
380.999	133.12
381.21	139.26
381.42	245.76
381.63	30.72
381.84	161.79
382.05	-2.05
382.261	169.98
382.471	163.84
382.681	71.68
382.891	165.89
383.101	67.58
383.311	-36.86
383.521	2.05
383.731	77.82
383.941	133.12
384.151	100.35
384.361	63.49
384.571	124.93
384.781	53.25
384.991	188.41
385.201	266.24
385.411	124.93
385.621	77.82
385.831	102.4
386.041	73.73
386.251	38.91
386.461	126.97
386.671	28.67
386.881	151.55
387.091	30.72
387.301	92.16
387.511	65.54
387.72	61.44
387.93	186.37
388.14	-22.53
388.35	61.44
388.56	139.26
388.769	102.4
388.979	26.62
389.189	-18.43
389.399	16.38
389.609	75.77
389.818	73.73
390.028	53.25
390.238	133.12
390.447	-22.53
390.657	83.97
390.867	57.34
391.076	-100.35
391.286	34.82
391.496	14.34
391.705	57.34
391.915	104.45
392.125	184.32
392.334	98.3
392.544	116.73
392.753	81.92
392.963	-18.43
393.172	77.82
393.382	2.05
393.591	204.8
393.801	65.54
394.01	180.22
394.22	114.69
394.429	43.01
394.639	-6.14
394.848	20.48
395.058	133.12
395.267	43.01
395.477	200.7
395.686	122.88
395.895	210.94
396.105	231.42
396.314	71.68
396.524	100.35
396.733	32.77
396.942	51.2
397.152	61.44
397.361	161.79
397.57	12.29
397.78	104.45
397.989	147.45
398.198	145.41
398.407	36.86
398.617	94.21
398.826	100.35
399.035	-2.05
399.244	188.41
399.453	124.93
399.663	47.1
399.872	79.87
400.081	81.92
400.29	184.32
400.499	16.38
400.708	81.92
400.917	124.93
401.127	81.92
401.336	59.39
401.545	141.31
401.754	153.6
401.963	57.34
402.172	65.54
402.381	8.19
402.59	90.11
402.799	14.34
403.008	129.02
403.217	40.96
403.426	114.69
403.635	-30.72
403.844	59.39
404.053	65.54
404.262	67.58
404.471	155.65
404.68	124.93
404.888	30.72
405.097	43.01
405.306	51.2
405.515	75.77
405.724	20.48
405.933	126.97
406.142	59.39
406.35	126.97
406.559	57.34
406.768	69.63
406.977	81.92
407.185	79.87
407.394	77.82
407.603	-30.72
407.812	59.39
408.02	129.02
408.229	-2.05
408.438	104.45
408.646	-67.58
408.855	2.05
409.064	38.91
409.272	67.58
409.481	112.64
409.69	51.2
409.898	-4.1
410.107	112.64
410.315	135.17
410.524	-14.34
410.733	30.72
410.941	120.83
411.15	86.01
411.358	118.78
411.567	94.21
411.775	10.24
411.984	118.78
412.192	143.36
412.401	129.02
412.609	212.99
412.818	174.08
413.026	63.49
413.234	43.01
413.443	92.16
413.651	59.39
413.86	65.54
414.068	174.08
414.276	219.13
414.485	-10.24
414.693	153.6
414.901	270.33
415.11	88.06
415.318	116.73
415.526	20.48
415.734	67.58
415.943	65.54
416.151	108.54
416.359	63.49
416.567	102.4
416.776	116.73
416.984	188.41
417.192	266.24
417.4	14.34
417.608	57.34
417.817	2.05
418.025	167.93
418.233	192.51
418.441	-14.34
418.649	-57.34
418.857	106.49
419.065	131.07
419.273	-40.96
419.481	59.39
419.689	88.06
419.897	65.54
420.105	-2.05
420.313	165.89
420.521	108.54
420.729	149.5
420.937	36.86
421.145	18.43
421.353	88.06
421.561	172.03
421.769	73.73
421.977	16.38
422.185	129.02
422.393	55.3
422.601	106.49
422.809	96.25
423.017	104.45
423.224	116.73
423.432	45.06
423.64	81.92
423.848	155.65
424.056	6.14
424.263	98.3
424.471	100.35
424.679	225.28
424.887	-8.19
425.094	126.97
425.302	151.55
425.51	108.54
425.718	75.77
425.925	86.01
426.133	51.2
426.341	163.84
426.548	110.59
426.756	110.59
426.964	57.34
427.171	30.72
427.379	49.15
427.586	126.97
427.794	47.1
428.001	159.74
428.209	94.21
428.417	139.26
428.624	104.45
428.832	40.96
429.039	98.3
429.247	88.06
429.454	120.83
429.662	202.75
429.869	169.98
430.076	204.8
430.284	151.55
430.491	149.5
430.699	124.93
430.906	157.69
431.114	147.45
431.321	194.56
431.528	124.93
431.736	77.82
431.943	188.41
432.15	120.83
432.358	141.31
432.565	241.66
432.772	0
432.979	149.5
433.187	135.17
433.394	172.03
433.601	178.17
433.808	188.41
434.016	260.09
434.223	270.33
434.43	186.37
434.637	206.84
434.844	286.72
435.052	217.08
435.259	266.24
435.466	249.85
435.673	174.08
435.88	204.8
436.087	290.81
436.294	325.63
436.501	245.76
436.708	208.89
436.915	212.99
437.122	358.39
437.329	208.89
437.537	165.89
437.743	118.78
437.95	413.69
438.157	239.61
438.364	278.52
438.571	243.71
438.778	288.76
438.985	378.87
439.192	387.07
439.399	270.33
439.606	407.55
439.813	401.4
440.02	489.46
440.227	524.28
440.433	509.94
440.64	485.37
440.847	278.52
441.054	466.94
441.261	550.9
441.467	405.5
441.674	493.56
441.881	477.18
442.088	534.52
442.294	530.42
442.501	583.67
442.708	540.66
442.914	497.66
443.121	673.78
443.328	684.02
443.534	677.88
443.741	700.41
443.948	614.39
444.154	733.17
444.361	1023.98
444.568	741.36
444.774	823.28
444.981	815.09
445.187	878.58
445.394	790.52
445.6	919.54
445.807	978.93
446.013	935.92
446.22	905.2
446.426	1046.51
446.633	1089.52
446.839	1239.02
447.046	1030.13
447.252	1169.39
447.459	1222.64
447.665	1148.91
447.871	1310.7
448.078	1486.83
448.284	1427.43
448.491	1429.48
448.697	1499.11
448.903	1554.41
449.11	1644.52
449.316	1558.5
449.522	1611.75
449.728	1675.24
449.935	1783.78
450.141	1896.42
450.347	1972.19
450.553	1867.75
450.76	1937.38
450.966	2127.84
451.172	2199.52
451.378	2250.72
451.584	2332.64
451.791	2414.56
451.997	2629.59
452.203	2656.22
452.409	2723.8
452.615	2863.06
452.821	2795.48
453.027	2799.57
453.233	3260.37
453.44	3078.1
453.646	3362.76
453.852	3420.11
454.058	3438.54
454.264	3508.17
454.47	3971.01
454.676	3817.41
454.882	4147.14
455.088	4042.69
455.294	4394.94
455.5	4433.85
455.705	4806.58
455.911	4851.64
456.117	4868.02
456.323	5021.62
456.529	5152.69
456.735	5543.85
456.941	5799.85
457.147	6059.94
457.352	6014.88
457.558	6289.31
457.764	6760.34
457.97	6858.65
458.176	7034.77
458.381	7438.22
458.587	7532.43
458.793	7933.83
458.999	7960.45
459.204	8865.66
459.41	9203.57
459.616	8984.44
459.821	9688.94
460.027	10002.28
460.233	10497.89
460.438	10389.35
460.644	11128.66
460.85	11126.61
461.055	11611.98
461.261	12345.16
461.466	12033.86
461.672	12220.23
461.878	13743.92
462.083	13618.99
462.289	13803.31
462.494	14305.06
462.7	14612.26
462.905	14855.97
463.111	15843.09
463.316	16738.05
463.522	17161.98
463.727	17489.65
463.932	18226.92
464.138	18685.67
464.343	19314.39
464.549	19519.19
464.754	21196.48
464.959	21419.71
465.165	21849.78
465.37	21954.23
465.575	21896.88
465.781	23277.21
465.986	23987.86
466.191	23471.77
466.397	23651.99
466.602	23453.34
466.807	24792.71
467.012	25120.38
467.218	25538.17
467.423	25351.81
467.628	25953.91
467.833	27432.54
468.038	26662.51
468.244	26365.55
468.449	27721.31
468.654	27295.33
468.859	27223.65
469.064	27082.34
469.269	26599.02
469.474	26680.94
469.679	27807.32
469.885	26846.82
470.09	26875.49
470.295	27315.81
470.5	26725.99
470.705	27063.91
470.91	26099.31
471.115	25777.78
471.32	26197.62
471.525	25869.94
471.73	25153.15
471.935	24997.51
472.139	24018.58
472.344	24041.11
472.549	23746.2
472.754	23395.99
472.959	22896.29
473.164	22316.72
473.369	21966.51
473.574	22613.67
473.778	21759.67
473.983	21548.73
474.188	21173.95
474.393	19971.79
474.598	19988.17
474.802	19646.16
475.007	19420.89
475.212	19185.37
475.417	18433.77
475.621	18302.7
475.826	18087.66
476.031	17829.62
476.235	17344.25
476.44	17471.22
476.645	16975.61
476.849	16645.89
477.054	16631.55
477.259	16107.27
477.463	16086.79
477.668	15537.94
477.872	15331.09
478.077	15275.8
478.282	14802.72
478.486	14858.01
478.691	14577.44
478.895	14292.77
479.1	14456.61
479.304	14354.21
479.509	13774.64
479.713	13819.69
479.918	13760.3
480.122	13074.23
480.326	13449.01
480.531	13233.97
480.735	13066.04
480.94	12904.25
481.144	13432.63
481.348	12625.73
481.553	12793.66
481.757	12386.11
481.961	12769.09
482.166	12746.56
482.37	12625.73
482.574	12310.34
482.778	12119.88
482.983	12599.1
483.187	12322.63
483.391	12109.64
483.595	11622.22
483.8	11640.65
484.004	11747.15
484.208	11786.06
484.412	11544.4
484.616	11433.81
484.821	11398.99
485.025	10887
485.229	11001.69
485.433	10780.51
485.637	10579.81
485.841	10520.42
486.045	10381.15
486.249	10336.1
486.453	10129.25
486.657	9951.08
486.861	9715.56
487.065	9496.43
487.269	9559.92
487.473	9203.57
487.677	9408.37
487.881	9230.2
488.085	9009.01
488.289	8986.49
488.493	8662.91
488.697	8703.87
488.901	8470.4
489.105	8175.49
489.309	8189.83
489.512	8136.58
489.716	7784.33
489.92	7716.75
490.124	7421.84
490.328	7587.72
490.531	7319.44
490.735	7407.5
490.939	7171.99
491.143	6969.24
491.346	6670.23
491.55	6758.3
491.754	6754.2
491.958	6553.5
492.161	6342.56
492.365	6242.21
492.569	6104.99
492.772	5984.16
492.976	6018.98
493.18	5861.29
493.383	5902.25
493.587	5898.15
493.79	5711.78
493.994	5554.09
494.197	5568.43
494.401	5545.9
494.605	5476.27
494.808	5375.92
495.012	5552.04
495.215	5382.06
495.419	5410.73
495.622	5107.63
495.825	5199.79
496.029	5240.75
496.232	5382.06
496.436	5171.12
496.639	5380.01
496.843	5081.01
497.046	5144.5
497.249	5390.25
497.453	5167.03
497.656	5138.35
497.859	5134.26
498.063	5302.19
498.266	5238.7
498.469	5089.2
498.673	5115.83
498.876	5009.33
499.079	5242.8
499.282	5210.03
499.485	5418.93
499.689	5337.01
499.892	5431.21
500.095	5289.9
500.298	5357.49
500.501	5324.72
500.705	5443.5
500.908	5582.76
501.111	5537.71
501.314	5834.66
501.517	5777.32
501.72	5597.1
501.923	5789.61
502.126	5879.72
502.329	5955.49
502.532	5887.91
502.735	6002.6
502.938	6260.64
503.141	6178.72
503.344	6064.04
503.547	6381.47
503.75	6285.22
503.953	6453.15
504.156	6559.64
504.359	6422.43
504.562	6580.12
504.765	6766.49
504.968	6985.62
505.17	6932.37
505.373	7141.27
505.576	7344.02
505.779	7303.06
505.982	7440.27
506.185	7563.15
506.387	7595.92
506.59	7935.88
506.793	7915.4
506.996	8259.46
507.198	8478.59
507.401	8413.06
507.604	8632.19
507.807	8806.27
508.009	9031.54
508.212	9191.28
508.415	9330.55
508.617	9187.19
508.82	9545.58
509.022	9686.89
509.225	10110.82
509.428	10223.46
509.63	10399.59
509.833	10495.84
510.035	10952.54
510.238	11171.67
510.44	11272.02
510.643	11693.9
510.845	11929.42
511.048	11837.26
511.25	12382.02
511.453	12379.97
511.655	13100.86
511.858	13276.98
512.06	13735.73
512.262	13920.04
512.465	14135.08
512.667	14378.79
512.87	14700.32
513.072	14980.89
513.274	15656.72
513.477	15894.29
513.679	16029.45
513.881	16502.53
514.084	16662.27
514.286	17202.94
514.488	17647.35
514.69	18263.79
514.893	18570.98
515.095	18831.07
515.297	19441.37
515.499	19848.91
515.701	19986.13
515.904	20565.7
516.106	20969.15
516.308	21268.16
516.51	21911.22
516.712	22085.3
516.914	22861.48
517.116	23103.14
517.318	23563.93
517.52	23920.28
517.722	24106.64
517.925	24964.74
518.127	25554.55
518.329	25876.09
518.531	26109.55
518.733	26637.93
518.935	27256.42
519.136	27432.54
519.338	27975.25
519.54	28464.72
519.742	28851.78
519.944	29314.62
520.146	30027.32
520.348	30273.07
520.55	30426.67
520.752	31000.1
520.954	31624.73
521.155	31401.5
521.357	32292.37
521.559	32767.5
521.761	33390.08
521.963	33324.55
522.164	33439.23
522.366	33877.5
522.568	34549.23
522.77	34356.72
522.971	35425.76
523.173	35440.1
523.375	35388.9
523.576	35882.46
523.778	35251.69
523.98	36218.33
524.181	36232.66
524.383	36445.65
524.584	36967.88
524.786	36367.83
524.988	36502.99
525.189	37053.9
525.391	37084.62
525.592	37193.16
525.794	37260.74
525.995	36883.92
526.197	36957.64
526.398	37252.55
526.6	37146.06
526.801	37078.47
527.003	37350.85
527.204	36720.08
527.406	36980.17
527.607	36298.2
527.808	36429.27
528.01	35655.14
528.211	36181.46
528.412	36404.69
528.614	36183.51
528.815	35732.96
529.016	36001.24
529.218	34831.85
529.419	34723.31
529.62	34293.24
529.822	34405.88
530.023	34076.15
530.224	33893.88
530.425	33451.52
530.626	32892.43
530.828	32374.29
531.029	33015.3
531.23	31954.46
531.431	31925.78
531.632	31344.16
531.833	31133.22
532.035	30823.98
532.236	30326.32
532.437	30041.65
532.638	29959.73
532.839	29335.1
533.04	29142.6
533.241	28493.39
533.442	28440.14
533.643	28180.05
533.844	27557.47
534.045	27555.42
534.246	26783.34
534.447	26713.7
534.648	25972.34
534.849	25849.46
535.05	25323.13
535.251	25462.4
535.451	24823.43
535.652	24524.43
535.853	24481.42
536.054	24182.42
536.255	23762.58
536.456	23160.48
536.657	22773.41
536.857	22644.39
537.058	22374.06
537.259	22453.93
537.46	21931.7
537.66	21528.25
537.861	21546.68
538.062	20811.46
538.263	20522.69
538.463	20258.51
538.664	20258.51
538.865	19984.08
539.065	20025.04
539.266	19511
539.466	19459.8
539.667	18861.79
539.868	18783.97
540.068	18812.64
540.269	18216.68
540.469	18196.2
540.67	17993.45
540.87	17870.58
541.071	17360.63
541.271	17397.49
541.472	17317.62
541.672	16881.41
541.873	16633.6
542.073	16285.45
542.274	16426.76
542.474	16353.03
542.675	16209.67
542.875	15884.05
543.075	15814.41
543.276	15214.36
543.476	15681.3
543.676	15152.92
543.877	15001.37
544.077	14722.85
544.277	14966.56
544.478	14456.61
544.678	14540.58
544.878	14333.73
545.078	14266.15
545.279	13682.48
545.479	13688.62
545.679	13702.96
545.879	13494.07
546.079	13328.18
546.28	13008.7
546.48	12887.87
546.68	12853.05
546.88	12812.09
547.08	12685.12
547.28	12732.22
547.48	12189.51
547.68	12175.17
547.88	11984.71
548.081	12009.29
548.281	11587.41
548.481	11462.48
548.681	11577.17
548.881	11233.11
549.081	11274.07
549.28	10960.73
549.48	10731.36
549.68	10921.82
549.88	10479.46
550.08	10344.29
550.28	10245.99
550.48	10336.1
550.68	10055.53
550.88	9928.55
551.08	9686.89
551.279	9871.21
551.479	9297.78
551.679	9537.39
551.879	9348.98
552.079	9174.9
552.278	9041.78
552.478	8773.5
552.678	8789.88
552.878	8619.9
553.077	8384.38
553.277	8378.24
553.477	8238.98
553.676	8238.98
553.876	8103.81
554.076	7565.2
554.275	7751.56
554.475	7382.93
554.674	7407.5
554.874	7358.35
555.074	7245.71
555.273	7071.64
555.473	7120.79
555.672	6784.92
555.872	6801.3
556.071	6633.37
556.271	6715.29
556.47	6522.78
556.67	6350.75
556.869	6332.32
557.068	6057.89
557.268	6115.23
557.467	6088.61
557.667	5965.73
557.866	5765.03
558.065	5607.34
558.265	5543.85
558.464	5355.44
558.663	5570.47
558.863	5400.49
559.062	5324.72
559.261	4990.9
559.461	5099.44
559.66	4882.36
559.859	4892.6
560.058	4634.55
560.258	4589.5
560.457	4528.06
560.656	4773.82
560.855	4376.51
561.054	4483
561.253	4474.81
561.453	4263.87
561.652	4442.04
561.851	4104.13
562.05	4169.66
562.249	3856.33
562.448	4186.05
562.647	3989.44
562.846	3860.42
563.045	3846.09
563.244	3659.72
563.443	3690.44
563.642	3502.03
563.841	3647.43
564.04	3469.26
564.239	3555.27
564.438	3358.67
564.637	3299.28
564.836	3227.6
565.035	3223.5
565.234	3024.85
565.432	3016.66
565.631	3196.88
565.83	3006.42
566.029	2947.03
566.228	2926.55
566.427	3051.47
566.625	2877.4
566.824	2867.16
567.023	2805.72
567.222	2762.71
567.42	2779.09
567.619	2695.13
567.818	2576.34
568.016	2783.19
568.215	2488.28
568.414	2691.03
568.612	2611.16
568.811	2467.8
569.01	2363.36
569.208	2449.37
569.407	2463.71
569.605	2394.08
569.804	2250.72
570.002	2346.97
570.201	2326.49
570.4	2197.47
570.598	2156.51
570.797	2115.55
570.995	2189.28
571.193	2025.44
571.392	2074.59
571.59	1904.61
571.789	2131.94
571.987	2027.49
572.186	1959.91
572.384	1814.5
572.582	1781.73
572.781	1871.84
572.979	1728.49
573.177	1660.9
573.376	1609.7
573.574	1834.98
573.772	1626.09
573.971	1540.07
574.169	1613.8
574.367	1662.95
574.565	1597.42
574.763	1511.4
574.962	1521.64
575.16	1560.55
575.358	1513.45
575.556	1482.73
575.754	1521.64
575.952	1409
576.151	1378.28
576.349	1515.5
576.547	1136.62
576.745	1341.42
576.943	1486.83
577.141	1306.6
577.339	1228.78
577.537	1363.95
577.735	1341.42
577.933	1228.78
578.131	1175.53
578.329	1241.07
578.527	1120.24
578.725	1150.96
578.923	1052.66
579.121	1120.24
579.319	1023.98
579.516	960.5
579.714	1208.3
579.912	1105.9
580.11	974.83
580.308	1023.98
580.506	1052.66
580.704	800.76
580.901	829.43
581.099	1079.28
581.297	962.55
581.495	968.69
581.692	907.25
581.89	1021.94
582.088	888.82
582.285	905.2
582.483	894.96
582.681	829.43
582.878	780.28
583.076	892.91
583.274	815.09
583.471	929.78
583.669	767.99
583.866	747.51
584.064	782.32
584.262	686.07
584.459	626.68
584.657	763.89
584.854	733.17
585.052	702.45
585.249	765.94
585.447	761.84
585.644	575.48
585.841	800.76
586.039	720.88
586.236	733.17
586.434	600.05
586.631	591.86
586.828	579.58
587.026	636.92
587.223	534.52
587.42	620.53
587.618	604.15
587.815	669.69
588.012	647.16
588.21	501.75
588.407	653.3
588.604	659.45
588.801	563.19
588.999	569.34
589.196	604.15
589.393	518.14
589.59	595.96
589.787	604.15
589.984	475.13
590.182	591.86
590.379	411.64
590.576	563.19
590.773	503.8
590.97	548.86
591.167	573.43
591.364	487.42
591.561	559.1
591.758	667.64
591.955	595.96
592.152	514.04
592.349	495.61
592.546	507.9
592.743	432.12
592.94	534.52
593.137	598.01
593.334	649.21
593.531	604.15
593.727	501.75
593.924	563.19
594.121	483.32
594.318	487.42
594.515	557.05
594.712	690.17
594.908	620.53
595.105	471.03
595.302	630.77
595.499	581.62
595.696	694.26
595.892	548.86
596.089	753.65
596.286	630.77
596.482	757.75
596.679	720.88
596.876	624.63
597.072	600.05
597.269	731.12
597.466	706.55
597.662	718.84
597.859	661.49
598.055	780.28
598.252	804.85
598.448	858.1
598.645	839.67
598.841	929.78
599.038	970.74
599.234	1042.42
599.431	1058.8
599.627	1005.55
599.824	1122.29
600.02	1085.42
600.217	1105.9
600.413	1105.9
600.609	1220.59
600.806	1464.3
601.002	1294.32
601.198	1273.84
601.395	1402.86
601.591	1499.11
601.787	1607.66
601.984	1566.7
602.18	1587.18
602.376	1751.01
602.572	1669.09
602.769	1785.83
602.965	1882.08
603.161	1970.15
603.357	1992.67
603.553	2285.53
603.75	2133.98
603.946	2187.23
604.142	2377.69
604.338	2494.43
604.534	2363.36
604.73	2471.9
604.926	2516.95
605.122	2691.03
605.318	2666.46
605.514	2850.77
605.71	2863.06
605.906	3096.53
606.102	3086.29
606.298	3305.42
606.494	3254.22
606.69	3485.64
606.886	3534.79
607.082	3499.98
607.278	3680.2
607.474	3698.63
607.67	3868.61
607.866	3923.91
608.062	4145.09
608.257	4364.22
608.453	4243.39
608.649	4362.17
608.845	4435.9
609.041	4573.11
609.236	4951.99
609.432	4814.77
609.628	5021.62
609.824	5277.62
610.019	5248.94
610.215	5447.6
610.411	5724.07
610.606	5853.09
610.802	5912.49
610.998	6141.86
611.193	6264.74
611.389	6129.57
611.584	6594.46
611.78	6766.49
611.976	6825.88
612.171	7188.37
612.367	7233.43
612.562	7376.78
612.758	7544.72
612.953	7554.96
613.149	8071.04
613.344	8081.28
613.539	8501.12
613.735	8785.79
613.93	8910.71
614.126	9045.88
614.321	9373.55
614.517	9793.39
614.712	9946.98
614.907	9977.7
615.103	10375.01
615.298	10571.61
615.493	10807.13
615.688	11028.31
615.884	11652.94
616.079	11585.36
616.274	11884.36
616.47	12304.2
616.665	12644.16
616.86	12937.02
617.055	13086.52
617.25	13428.53
617.445	13899.56
617.641	13903.66
617.836	14616.35
618.031	14671.65
618.226	15263.51
618.421	15537.94
618.616	16135.95
618.811	16168.71
619.006	16932.61
619.201	16938.75
619.396	17565.43
619.591	17594.1
619.786	18482.92
619.981	18372.33
620.176	19001.05
620.371	19242.71
620.566	19758.8
620.761	20278.99
620.956	20885.19
621.151	20913.86
621.346	21229.24
621.541	21536.44
621.735	22232.75
621.93	22341.29
622.125	22904.48
622.32	23254.69
622.515	23641.75
622.709	23930.51
622.904	24811.14
623.099	24958.6
623.294	25460.35
623.488	25654.9
623.683	26459.76
623.878	26336.88
624.072	27242.08
624.267	27596.38
624.462	27975.25
624.656	27924.05
624.851	28884.55
625.046	28972.61
625.24	29290.05
625.435	29754.94
625.629	30142
625.824	30422.58
626.018	31290.91
626.213	30813.74
626.407	31657.5
626.602	31692.32
626.796	32255.51
626.991	32767.5
627.185	33173
627.38	32814.6
627.574	33101.32
627.768	33623.55
627.963	33480.19
628.157	33611.26
628.352	33539.58
628.546	33232.39
628.74	33687.04
628.935	33269.25
629.129	33369.6
629.323	33158.66
629.517	33152.52
629.712	32577.04
629.906	32308.76
630.1	31878.68
630.294	31841.82
630.489	31327.78
630.683	30877.22
630.877	30221.87
631.071	29718.07
631.265	29171.27
631.459	28347.98
631.653	27692.63
631.848	27442.78
632.042	26480.24
632.236	25968.24
632.43	25534.07
632.624	24407.69
632.818	23770.77
633.012	23051.94
633.206	22105.77
633.4	21505.72
633.594	20575.94
633.788	19898.06
633.982	19228.38
634.176	18726.63
634.369	17794.8
634.563	17237.75
634.757	16279.3
634.951	15908.62
635.145	15394.58
635.339	14749.47
635.533	13965.1
635.726	13516.59
635.92	12836.67
636.114	12582.72
636.308	11810.64
636.501	11419.47
636.695	11231.06
636.889	10565.47
637.083	10022.76
637.276	9678.7
637.47	9127.8
637.664	9002.87
637.857	8605.56
638.051	8173.44
638.244	7899.02
638.438	7561.1
638.632	7298.96
638.825	6963.09
639.019	6825.88
639.212	6516.64
639.406	6139.81
639.599	5935.01
639.793	5724.07
639.986	5461.93
640.18	5472.17
640.373	5312.43
640.567	4657.08
640.76	4583.35
640.954	4677.56
641.147	4331.45
641.34	4259.77
641.534	3985.35
641.727	3903.43
641.92	3788.74
642.114	3502.03
642.307	3516.36
642.5	3473.35
642.694	3207.12
642.887	3080.14
643.08	3133.39
643.273	3037.14
643.467	2731.99
643.66	2637.78
643.853	2459.61
644.046	2602.97
644.239	2242.53
644.432	2279.39
644.626	2131.94
644.819	1976.29
645.012	1923.04
645.205	1986.53
645.398	1976.29
645.591	1748.97
645.784	1619.94
645.977	1581.03
646.17	1650.66
646.363	1595.37
646.556	1394.67
646.749	1415.15
646.942	1394.67
647.135	1310.7
647.328	1347.56
647.521	1200.11
647.714	1230.83
647.907	1261.55
648.099	1103.86
648.292	991.22
648.485	1013.74
648.678	948.21
648.871	952.31
649.064	925.68
649.256	892.91
649.449	798.71
649.642	724.98
649.835	776.18
650.027	706.55
650.22	821.24
650.413	735.22
650.605	774.13
650.798	643.06
650.991	653.3
651.183	641.01
651.376	659.45
651.568	673.78
651.761	550.9
651.954	608.25
652.146	462.84
652.339	561.14
652.531	645.11
652.724	528.38
652.916	425.98
653.109	395.26
653.301	471.03
653.494	464.89
653.686	485.37
653.879	487.42
654.071	438.27
654.263	325.63
654.456	450.55
654.648	395.26
654.84	438.27
655.033	305.15
655.225	471.03
655.417	278.52
655.61	438.27
655.802	397.31
655.994	385.02
656.186	286.72
656.379	313.34
656.571	258.04
656.763	290.81
656.955	219.13
657.148	311.29
657.34	354.3
657.532	264.19
657.724	256
657.916	280.57
658.108	362.49
658.3	272.38
658.492	219.13
658.684	241.66
658.876	290.81
659.068	112.64
659.26	161.79
659.452	157.69
659.644	305.15
659.836	358.39
660.028	200.7
660.22	96.25
660.412	192.51
660.604	180.22
660.796	174.08
660.988	243.71
661.18	208.89
661.372	280.57
661.563	219.13
661.755	157.69
661.947	102.4
662.139	126.97
662.331	124.93
662.522	157.69
662.714	147.45
662.906	169.98
663.097	221.18
663.289	151.55
663.481	-10.24
663.673	116.73
663.864	153.6
664.056	268.28
664.247	92.16
664.439	178.17
664.631	174.08
664.822	157.69
665.014	133.12
665.205	65.54
665.397	149.5
665.588	206.84
665.78	122.88
665.971	229.37
666.163	176.13
666.354	190.46
666.546	88.06
666.737	69.63
666.929	167.93
667.12	6.14
667.311	184.32
667.503	104.45
667.694	143.36
667.885	147.45
668.077	161.79
668.268	124.93
668.459	135.17
668.651	182.27
668.842	100.35
669.033	98.3
669.224	102.4
669.416	319.48
669.607	163.84
669.798	67.58
669.989	151.55
670.18	135.17
670.371	182.27
670.563	67.58
670.754	223.23
670.945	149.5
671.136	145.41
671.327	112.64
671.518	184.32
671.709	296.96
671.9	219.13
672.091	176.13
672.282	75.77
672.473	122.88
672.664	49.15
672.855	38.91
673.046	176.13
673.237	258.04
673.428	182.27
673.619	264.19
673.809	131.07
674	178.17
674.191	239.61
674.382	176.13
674.573	65.54
674.764	47.1
674.954	274.43
675.145	83.97
675.336	100.35
675.527	86.01
675.717	106.49
675.908	137.21
676.099	106.49
676.289	163.84
676.48	-30.72
676.671	182.27
676.861	135.17
677.052	139.26
677.243	110.59
677.433	102.4
677.624	200.7
677.814	159.74
678.005	157.69
678.195	274.43
678.386	96.25
678.576	217.08
678.767	-6.14
678.957	153.6
679.148	225.28
679.338	256
679.529	225.28
679.719	131.07
679.909	253.95
680.1	256
680.29	249.85
680.481	110.59
680.671	270.33
680.861	120.83
681.052	169.98
681.242	149.5
681.432	208.89
681.622	96.25
681.813	102.4
682.003	169.98
682.193	108.54
682.383	212.99
682.573	167.93
682.764	147.45
682.954	206.84
683.144	243.71
683.334	188.41
683.524	169.98
683.714	208.89
683.904	268.28
684.094	262.14
684.284	190.46
684.474	274.43
684.664	229.37
684.854	153.6
685.044	188.41
685.234	157.69
685.424	235.52
685.614	163.84
685.804	354.3
685.994	280.57
686.184	219.13
686.374	188.41
686.564	239.61
686.753	227.32
686.943	116.73
687.133	268.28
687.323	153.6
687.513	225.28
687.702	180.22
687.892	210.94
688.082	374.78
688.272	284.67
688.461	161.79
688.651	354.3
688.841	268.28
689.03	215.04
689.22	200.7
689.41	280.57
689.599	329.72
689.789	149.5
689.979	309.24
690.168	227.32
690.358	251.9
690.547	241.66
690.737	229.37
690.926	294.91
691.116	253.95
691.305	299
691.495	303.1
691.684	212.99
691.874	292.86
692.063	288.76
692.252	313.34
692.442	264.19
692.631	221.18
692.82	301.05
693.01	233.47
693.199	182.27
693.388	268.28
693.578	239.61
693.767	282.62
693.956	217.08
694.146	208.89
694.335	190.46
694.524	212.99
694.713	235.52
694.902	221.18
695.092	198.65
695.281	319.48
695.47	159.74
695.659	225.28
695.848	243.71
696.037	180.22
696.226	325.63
696.415	235.52
696.604	296.96
696.793	346.11
696.982	178.17
697.171	380.92
697.36	135.17
697.549	221.18
697.738	104.45
697.927	245.76
698.116	143.36
698.305	284.67
698.494	186.37
698.683	212.99
698.872	317.44
699.061	215.04
699.25	229.37
699.438	196.61
699.627	180.22
699.816	307.2
700.005	198.65
700.193	210.94
700.382	194.56
700.571	163.84
700.76	237.56
700.948	243.71
701.137	233.47
701.326	280.57
701.514	155.65
701.703	278.52
701.892	239.61
702.08	337.91
702.269	233.47
702.457	221.18
702.646	245.76
702.834	272.38
703.023	307.2
703.212	305.15
703.4	206.84
703.589	178.17
703.777	276.48
703.965	172.03
704.154	204.8
704.342	143.36
704.531	153.6
704.719	344.06
704.907	348.15
705.096	215.04
705.284	155.65
705.472	200.7
705.661	223.23
705.849	260.09
706.037	317.44
706.226	194.56
706.414	258.04
706.602	149.5
706.79	235.52
706.979	169.98
707.167	256
707.355	133.12
707.543	192.51
707.731	280.57
707.919	135.17
708.107	221.18
708.296	163.84
708.484	202.75
708.672	172.03
708.86	307.2
709.048	233.47
709.236	141.31
709.424	264.19
709.612	219.13
709.8	139.26
709.988	233.47
710.176	325.63
710.364	344.06
710.551	176.13
710.739	206.84
710.927	200.7
711.115	243.71
711.303	331.77
711.491	411.64
711.679	307.2
711.866	294.91
712.054	247.8
712.242	251.9
712.43	372.73
712.617	233.47
712.805	253.95
712.993	301.05
713.181	149.5
713.368	303.1
713.556	311.29
713.744	270.33
713.931	423.93
714.119	342.01
714.306	231.42
714.494	280.57
714.682	280.57
714.869	165.89
715.057	329.72
715.244	112.64
715.432	249.85
715.619	284.67
715.807	239.61
715.994	266.24
716.182	262.14
716.369	268.28
716.556	272.38
716.744	116.73
716.931	172.03
717.119	223.23
717.306	272.38
717.493	327.68
717.681	114.69
717.868	294.91
718.055	301.05
718.242	202.75
718.43	360.44
718.617	362.49
718.804	243.71
718.991	356.35
719.179	286.72
719.366	374.78
719.553	280.57
719.74	253.95
719.927	256
720.114	264.19
720.301	204.8
720.488	178.17
720.676	253.95
720.863	296.96
721.05	366.59
721.237	256
721.424	282.62
721.611	294.91
721.798	204.8
721.985	251.9
722.172	266.24
722.358	278.52
722.545	266.24
722.732	309.24
722.919	325.63
723.106	294.91
723.293	321.53
723.48	219.13
723.667	208.89
723.853	399.35
724.04	282.62
724.227	309.24
724.414	270.33
724.6	235.52
724.787	409.59
724.974	415.74
725.161	307.2
725.347	284.67
725.534	282.62
725.72	372.73
725.907	319.48
726.094	364.54
726.28	317.44
726.467	278.52
726.653	260.09
726.84	354.3
727.027	460.79
727.213	260.09
727.4	382.97
727.586	299
727.773	364.54
727.959	301.05
728.145	282.62
728.332	278.52
728.518	247.8
728.705	292.86
728.891	378.87
729.077	272.38
729.264	243.71
729.45	290.81
729.636	415.74
729.823	337.91
730.009	391.16
730.195	292.86
730.382	251.9
730.568	262.14
730.754	294.91
730.94	305.15
731.126	350.2
731.313	376.83
731.499	391.16
731.685	372.73
731.871	329.72
732.057	309.24
732.243	294.91
732.429	342.01
732.615	385.02
732.801	321.53
732.987	352.25
733.173	337.91
733.359	270.33
733.545	356.35
733.731	374.78
733.917	387.07
734.103	393.21
734.289	323.58
734.475	266.24
734.661	473.08
734.847	339.96
735.033	278.52
735.219	456.7
735.404	356.35
735.59	260.09
735.776	290.81
735.962	409.59
736.148	423.93
736.333	370.68
736.519	356.35
736.705	342.01
736.89	337.91
737.076	372.73
737.262	360.44
737.447	256
737.633	296.96
737.819	434.17
738.004	368.63
738.19	405.5
738.375	325.63
738.561	473.08
738.747	342.01
738.932	321.53
739.118	491.51
739.303	342.01
739.489	393.21
739.674	317.44
739.859	296.96
740.045	419.83
740.23	368.63
740.416	219.13
740.601	430.07
740.786	399.35
740.972	317.44
741.157	268.28
741.342	251.9
741.528	301.05
741.713	339.96
741.898	296.96
742.084	442.36
742.269	370.68
742.454	374.78
742.639	430.07
742.824	358.39
743.01	370.68
743.195	440.31
743.38	337.91
743.565	387.07
743.75	262.14
743.935	442.36
744.12	378.87
744.305	262.14
744.49	327.68
744.675	350.2
744.86	284.67
745.045	397.31
745.23	268.28
745.415	266.24
745.6	456.7
745.785	270.33
745.97	342.01
746.155	378.87
746.34	362.49
746.525	395.26
746.71	344.06
746.895	204.8
747.079	253.95
747.264	237.56
747.449	378.87
747.634	387.07
747.819	348.15
748.003	311.29
748.188	188.41
748.373	380.92
748.557	249.85
748.742	360.44
748.927	323.58
749.111	217.08
749.296	249.85
749.481	407.55
749.665	315.39
749.85	305.15
750.034	376.83
750.219	362.49
750.404	251.9
750.588	294.91
750.773	290.81
750.957	301.05
751.141	278.52
751.326	288.76
751.51	159.74
751.695	245.76
751.879	227.32
752.064	364.54
752.248	251.9
752.432	364.54
752.617	313.34
752.801	327.68
752.985	239.61
753.17	342.01
753.354	260.09
753.538	239.61
753.722	251.9
753.907	208.89
754.091	161.79
754.275	329.72
754.459	114.69
754.643	210.94
754.828	225.28
755.012	249.85
755.196	86.01
755.38	219.13
755.564	217.08
755.748	260.09
755.932	350.2
756.116	272.38
756.3	364.54
756.484	182.27
756.668	204.8
756.852	135.17
757.036	221.18
757.22	186.37
757.404	223.23
757.588	188.41
757.772	247.8
757.956	215.04
758.14	241.66
758.323	178.17
758.507	182.27
758.691	174.08
758.875	247.8
759.059	235.52
759.242	262.14
759.426	133.12
759.61	194.56
759.794	118.78
759.977	278.52
760.161	397.31
760.345	311.29
760.528	176.13
760.712	176.13
760.895	237.56
761.079	157.69
761.263	118.78
761.446	184.32
761.63	124.93
761.813	294.91
761.997	81.92
762.18	188.41
762.364	286.72
762.547	26.62
762.731	176.13
762.914	169.98
763.098	186.37
763.281	174.08
763.464	114.69
763.648	188.41
763.831	108.54
764.015	145.41
764.198	225.28
764.381	100.35
764.564	151.55
764.748	221.18
764.931	200.7
765.114	69.63
765.297	190.46
765.481	112.64
765.664	92.16
765.847	149.5
766.03	299
766.213	63.49
766.397	159.74
766.58	8.19
766.763	233.47
766.946	180.22
767.129	180.22
767.312	90.11
767.495	190.46
767.678	135.17
767.861	159.74
768.044	178.17
768.227	104.45
768.41	141.31
768.593	122.88
768.776	71.68
768.959	155.65
769.142	215.04
769.324	118.78
769.507	67.58
769.69	157.69
769.873	94.21
770.056	333.82
770.239	135.17
770.421	159.74
770.604	276.48
770.787	169.98
770.97	180.22
771.152	110.59
771.335	114.69
771.518	45.06
771.7	253.95
771.883	233.47
772.066	79.87
772.248	131.07
772.431	153.6
772.613	190.46
772.796	73.73
772.978	174.08
773.161	225.28
773.343	135.17
773.526	157.69
773.708	20.48
773.891	53.25
774.073	102.4
774.256	192.51
774.438	233.47
774.621	34.82
774.803	141.31
774.985	124.93
775.168	165.89
775.35	92.16
775.532	223.23
775.715	16.38
775.897	198.65
776.079	36.86
776.261	137.21
776.444	92.16
776.626	135.17
776.808	219.13
776.99	24.58
777.173	86.01
777.355	145.41
777.537	96.25
777.719	198.65
777.901	40.96
778.083	137.21
778.265	-4.1
778.447	147.45
778.629	53.25
778.811	75.77
778.993	135.17
779.175	163.84
779.357	120.83
779.539	-12.29
779.721	157.69
779.903	159.74
780.085	90.11
780.267	163.84
780.449	77.82
780.631	180.22
780.812	178.17
780.994	153.6
781.176	34.82
781.358	139.26
781.54	112.64
781.721	102.4
781.903	186.37
782.085	20.48
782.267	169.98
782.448	-2.05
782.63	57.34
782.812	94.21
782.993	126.97
783.175	141.31
783.357	63.49
783.538	102.4
783.72	43.01
783.901	143.36
784.083	147.45
784.264	104.45
784.446	-26.62
784.627	-38.91
784.809	83.97
784.99	-12.29
785.172	73.73
785.353	20.48
785.535	40.96
785.716	-32.77
785.897	75.77
786.079	100.35
786.26	55.3
786.441	83.97
786.623	-98.3
786.804	24.58
786.985	131.07
787.167	81.92
787.348	88.06
787.529	102.4
787.71	131.07
787.891	178.17
788.073	8.19
788.254	-32.77
788.435	210.94
788.616	63.49
788.797	-24.58
788.978	100.35
789.159	10.24
789.34	120.83
789.522	-12.29
789.703	67.58
789.884	110.59
790.065	106.49
790.246	225.28
790.427	26.62
790.607	104.45
790.788	161.79
790.969	43.01
791.15	161.79
791.331	0
791.512	-10.24
791.693	-6.14
791.874	16.38
792.054	149.5
792.235	92.16
792.416	-55.3
792.597	55.3
792.778	100.35
792.958	124.93
793.139	122.88
793.32	34.82
793.5	36.86
793.681	16.38
793.862	104.45
794.042	22.53
794.223	-77.82
794.404	-30.72
794.584	-55.3
794.765	51.2
794.945	57.34
795.126	65.54
795.306	126.97
795.487	49.15
795.667	14.34
795.848	102.4
796.028	22.53
796.209	133.12
796.389	73.73
796.57	26.62
796.75	61.44
796.93	34.82
797.111	-59.39
797.291	24.58
797.471	122.88
797.652	49.15
797.832	-26.62
798.012	106.49
798.192	57.34
798.373	-47.1
798.553	-4.1
798.733	104.45
798.913	38.91
799.093	26.62
799.274	57.34
799.454	8.19
799.634	133.12
799.814	145.41
799.994	63.49
800.174	34.82
800.354	30.72
800.534	-34.82
800.714	75.77
800.894	-71.68
801.074	-92.16
801.254	-6.14
801.434	116.73
801.614	32.77
801.794	-83.97
801.974	1798.12
802.154	-12.29
802.334	139.26
802.514	-4.1
802.693	-2.05
802.873	-16.38
803.053	118.78
803.233	143.36
803.413	16.38
803.592	49.15
803.772	-6.14
803.952	18.43
804.131	-10.24
804.311	110.59
804.491	71.68
804.67	-12.29
804.85	-14.34
805.03	45.06
805.209	94.21
805.389	-40.96
805.568	53.25
805.748	30.72
805.928	26.62
806.107	118.78
806.287	38.91
806.466	51.2
806.646	-8.19
806.825	65.54
807.004	-34.82
807.184	88.06
807.363	45.06
807.543	110.59
807.722	14.34
807.901	88.06
808.081	57.34
808.26	-61.44
808.439	0
808.619	36.86
808.798	79.87
808.977	75.77
809.156	129.02
809.336	79.87
809.515	122.88
809.694	-12.29
809.873	12.29
810.052	98.3
810.231	110.59
810.411	159.74
810.59	83.97
810.769	-43.01
810.948	28.67
811.127	-71.68
811.306	-22.53
811.485	-51.2
811.664	133.12
811.843	32.77
812.022	26.62
812.201	-63.49
812.38	-53.25
812.559	32.77
812.737	63.49
812.916	-18.43
813.095	-55.3
813.274	38.91
813.453	34.82
813.632	26.62
813.811	153.6
813.989	-98.3
814.168	65.54
814.347	-28.67
814.526	-4.1
814.704	159.74
814.883	159.74
815.062	-22.53
815.24	55.3
815.419	4.1
815.598	122.88
815.776	-108.54
815.955	-49.15
816.133	-71.68
816.312	-4.1
816.49	-63.49
816.669	61.44
816.847	26.62
817.026	71.68
817.204	38.91
817.383	73.73
817.561	-24.58
817.74	18.43
817.918	-14.34
818.097	65.54
818.275	53.25
818.453	124.93
818.632	94.21
818.81	-63.49
818.988	10.24
819.167	-49.15
819.345	36.86
819.523	-73.73
819.701	51.2
819.879	-40.96
820.058	100.35
820.236	-22.53
820.414	55.3
820.592	-24.58
820.77	-2.05
820.948	-45.06
821.127	38.91
821.305	4.1
821.483	-14.34
821.661	59.39
821.839	43.01
822.017	-67.58
822.195	-8.19
822.373	94.21
822.551	16.38
822.729	65.54
822.907	24.58
823.085	40.96
823.262	104.45
823.44	-40.96
823.618	-49.15
823.796	-8.19
823.974	38.91
824.152	-120.83
824.329	-43.01
824.507	36.86
824.685	77.82
824.863	-4.1
825.04	6.14
825.218	38.91
825.396	-8.19
825.574	83.97
825.751	22.53
825.929	114.69
826.107	-106.49
826.284	47.1
826.462	10.24
826.639	-28.67
826.817	-69.63
826.994	102.4
827.172	-40.96
827.349	165.89
827.527	30.72
827.704	45.06
827.882	69.63
828.059	4.1
828.237	-40.96
828.414	90.11
828.591	-59.39
828.769	-6.14
828.946	-20.48
829.124	135.17
829.301	36.86
829.478	-36.86
829.655	67.58
829.833	83.97
830.01	-34.82
830.187	0
830.364	67.58
830.542	-12.29
830.719	145.41
830.896	26.62
831.073	98.3
831.25	69.63
831.427	71.68
831.604	4.1
831.782	-47.1
831.959	-12.29
832.136	49.15
832.313	20.48
832.49	-61.44
832.667	69.63
832.844	-20.48
833.021	182.27
833.198	86.01
833.374	-22.53
833.551	51.2
833.728	36.86
833.905	96.25
834.082	-147.45
834.259	45.06
834.436	45.06
834.612	-40.96
834.789	22.53
834.966	22.53
835.143	129.02
835.319	30.72
835.496	59.39
835.673	-16.38
835.85	67.58
836.026	108.54
836.203	71.68
836.38	-53.25
836.556	-34.82
836.733	-63.49
836.909	59.39
837.086	-8.19
837.262	-88.06
837.439	0
837.616	8.19
837.792	-2.05
837.968	26.62
838.145	-16.38
838.321	28.67
838.498	124.93
838.674	165.89
838.851	102.4
839.027	-18.43
839.203	32.77
839.38	108.54
839.556	-53.25
839.732	112.64
839.909	-10.24
840.085	51.2
840.261	18.43
840.437	133.12
840.614	-10.24
840.79	124.93
840.966	90.11
841.142	16.38
841.318	61.44
841.494	71.68
841.671	106.49
841.847	-53.25
842.023	-14.34
842.199	28.67
842.375	180.22
842.551	-69.63
842.727	-34.82
842.903	112.64
843.079	-106.49
843.255	100.35
843.431	12.29
843.607	32.77
843.783	-88.06
843.959	-6.14
844.134	-55.3
844.31	124.93
844.486	4.1
844.662	-45.06
844.838	-6.14
845.013	57.34
845.189	102.4
845.365	12.29
845.541	71.68
845.716	-18.43
845.892	98.3
846.068	-59.39
846.244	-38.91
846.419	40.96
846.595	-122.88
846.77	-51.2
846.946	51.2
847.122	43.01
847.297	4.1
847.473	131.07
847.648	-55.3
847.824	6.14
847.999	-157.69
848.175	-18.43
848.35	18.43
848.526	69.63
848.701	69.63
848.876	167.93
849.052	55.3
849.227	-26.62
849.403	8.19
849.578	47.1
849.753	-22.53
849.929	96.25
850.104	-34.82
850.279	-8.19
850.454	71.68
850.63	55.3
850.805	55.3
850.98	-32.77
851.155	79.87
851.33	73.73
851.505	-59.39
851.681	73.73
851.856	-51.2
852.031	69.63
852.206	55.3
852.381	-75.77
852.556	28.67
852.731	-34.82
852.906	75.77
853.081	4.1
853.256	30.72
853.431	18.43
853.606	-71.68
853.781	-43.01
853.956	-79.87
854.131	77.82
854.305	-129.02
854.48	-38.91
854.655	-20.48
854.83	-20.48
855.005	-63.49
855.18	-55.3
855.354	40.96
855.529	10.24
855.704	6.14
855.879	36.86
856.053	-47.1
856.228	28.67
856.403	-49.15
856.577	43.01
856.752	-69.63
856.926	49.15
857.101	118.78
857.276	0
857.45	65.54
857.625	88.06
857.799	36.86
857.974	53.25
858.148	-53.25
858.323	96.25
858.497	36.86
858.672	-43.01
858.846	47.1
859.02	22.53
859.195	-12.29
859.369	12.29
859.543	-49.15
859.718	36.86
859.892	51.2
860.066	88.06
860.241	2.05
860.415	-2.05
860.589	83.97
860.763	-22.53
860.938	-34.82
861.112	55.3
861.286	-38.91
861.46	108.54
861.634	63.49
861.808	14.34
861.982	-57.34
862.157	-147.45
862.331	-8.19
862.505	-122.88
862.679	36.86
862.853	-38.91
863.027	14.34
863.201	186.37
863.375	-32.77
863.549	69.63
863.722	18.43
863.896	24.58
864.07	-20.48
864.244	-43.01
864.418	40.96
864.592	51.2
864.766	30.72
864.939	-2.05
865.113	4.1
865.287	126.97
865.461	-47.1
865.634	-122.88
865.808	-43.01
865.982	-45.06
866.156	-49.15
866.329	-141.31
866.503	61.44
866.676	114.69
866.85	108.54
867.024	2.05
867.197	114.69
867.371	92.16
867.544	51.2
867.718	-92.16
867.891	137.21
868.065	12.29
868.238	38.91
868.412	18.43
868.585	51.2
868.759	-34.82
868.932	-53.25
869.105	-43.01
869.279	-40.96
869.452	-34.82
869.625	69.63
869.799	57.34
869.972	-26.62
870.145	0
870.319	73.73
870.492	-10.24
870.665	14.34
870.838	-38.91
871.011	-104.45
871.185	-30.72
871.358	-141.31
871.531	53.25
871.704	6.14
871.877	12.29
872.05	22.53
872.223	-77.82
872.396	129.02
872.569	104.45
872.742	-10.24
872.915	32.77
873.088	-10.24
873.261	-108.54
873.434	34.82
873.607	-4.1
873.78	159.74
873.953	-32.77
874.126	10.24
874.299	-14.34
874.471	-20.48
874.644	-32.77
874.817	51.2
874.99	133.12
875.163	-75.77
875.335	73.73
875.508	8.19
875.681	108.54
875.853	12.29
876.026	18.43
876.199	45.06
876.371	14.34
876.544	-10.24
876.717	-2.05
876.889	-14.34
877.062	90.11
877.234	-61.44
877.407	-71.68
877.579	-32.77
877.752	34.82
877.924	14.34
878.097	53.25
878.269	-12.29
878.442	-10.24
878.614	38.91
878.786	-10.24
878.959	6.14
879.131	43.01
879.303	-32.77
879.476	-14.34
879.648	47.1
879.82	49.15
879.993	-2.05
880.165	12.29
880.337	-92.16
880.509	-6.14
880.681	-51.2
880.854	-77.82
881.026	34.82
881.198	147.45
881.37	98.3
881.542	59.39
881.714	-47.1
881.886	16.38
882.058	49.15
882.23	6.14
882.402	6.14
882.574	18.43
882.746	147.45
882.918	90.11
883.09	61.44
883.262	32.77
883.434	6.14
883.606	-45.06
883.778	16.38
883.95	176.13
884.122	-8.19
884.293	30.72
884.465	43.01
884.637	73.73
884.809	-38.91
884.98	59.39
885.152	55.3
885.324	28.67
885.496	-57.34
885.667	-61.44
885.839	12.29
886.011	90.11
886.182	0
886.354	104.45
886.525	114.69
886.697	-4.1
886.869	-55.3
887.04	-6.14
887.212	141.31
887.383	122.88
887.555	57.34
887.726	22.53
887.897	-92.16
888.069	16.38
888.24	63.49
888.412	-40.96
888.583	26.62
888.754	-79.87
888.926	-96.25
889.097	-86.01
889.268	2.05
889.44	81.92
889.611	-24.58
889.782	-81.92
889.953	-120.83
890.125	143.36
890.296	-61.44
890.467	10.24
890.638	-104.45
890.809	6.14
890.98	-40.96
891.151	40.96
891.323	102.4
891.494	-6.14
891.665	16.38
891.836	2.05
892.007	-8.19
892.178	59.39
892.349	20.48
892.52	-63.49
892.691	36.86
892.862	16.38
893.032	-32.77
893.203	-90.11
893.374	75.77
893.545	112.64
893.716	-14.34
893.887	61.44
894.057	-8.19
894.228	30.72
894.399	-43.01
894.57	104.45
894.74	63.49
894.911	81.92
895.082	8.19
895.253	-12.29
895.423	112.64
895.594	71.68
895.764	86.01
895.935	-26.62
896.106	-30.72
896.276	4.1
896.447	53.25
896.617	-18.43
896.788	-149.5
896.958	-51.2
897.129	-92.16
897.299	22.53
897.47	153.6
897.64	57.34
897.81	4.1
897.981	75.77
898.151	-40.96
898.322	-14.34
898.492	98.3
898.662	-36.86
898.832	-26.62
899.003	-32.77
899.173	-36.86
899.343	-83.97
899.513	-102.4
