Data from USB4F104151__98__10-35-30-528.txt Node

Date: Wed Feb 26 10:35:30 EST 2025
User: louis
Spectrometer: USB4F10415
Trigger mode: 4
Integration Time (sec): 1.000000E-1
Scans to average: 1
Electric dark correction enabled: true
Nonlinearity correction enabled: false
Boxcar width: 0
XAxis mode: Wavelengths
Number of Pixels in Spectrum: 3648
>>>>>Begin Spectral Data<<<<<
178.204	-399.87
178.424	-399.87
178.644	-399.87
178.864	-365.05
179.084	-383.48
179.304	-51.71
179.524	60.93
179.744	3.58
179.964	58.88
180.184	79.36
180.404	50.69
180.624	-37.38
180.844	15.87
181.064	-100.86
181.283	44.54
181.503	-107.01
181.723	-16.9
181.943	-80.38
182.163	198.14
182.383	-8.7
182.602	110.08
182.822	177.66
183.042	85.5
183.262	-0.51
183.482	26.11
183.701	52.74
183.921	67.07
184.141	-10.75
184.361	65.02
184.58	134.65
184.8	15.87
185.02	-27.14
185.239	50.69
185.459	9.73
185.679	124.41
185.898	-104.96
186.118	54.78
186.338	89.6
186.557	146.94
186.777	17.92
186.997	17.92
187.216	75.26
187.436	138.75
187.655	112.13
187.875	89.6
188.095	44.54
188.314	218.62
188.534	93.69
188.753	-35.33
188.973	89.6
189.192	187.9
189.412	30.21
189.631	58.88
189.851	73.21
190.07	212.48
190.29	-43.52
190.509	32.26
190.729	-12.8
190.948	183.81
191.168	298.49
191.387	60.93
191.607	-45.57
191.826	91.65
192.045	24.06
192.265	1.54
192.484	81.41
192.704	157.18
192.923	54.78
193.142	167.42
193.362	97.79
193.581	140.8
193.8	56.83
194.02	138.75
194.239	97.79
194.458	71.17
194.678	-8.7
194.897	36.35
195.116	132.61
195.335	-2.56
195.555	105.98
195.774	-68.09
195.993	138.75
196.212	9.73
196.432	-20.99
196.651	-35.33
196.87	69.12
197.089	318.97
197.308	81.41
197.528	65.02
197.747	-55.81
197.966	130.56
198.185	122.37
198.404	-45.57
198.623	97.79
198.842	212.48
199.062	134.65
199.281	118.27
199.5	62.98
199.719	71.17
199.938	56.83
200.157	81.41
200.376	54.78
200.595	97.79
200.814	46.59
201.033	-41.47
201.252	187.9
201.471	151.04
201.69	122.37
201.909	56.83
202.128	124.41
202.347	38.4
202.566	48.64
202.785	-33.28
203.004	-8.7
203.223	249.34
203.442	54.78
203.661	-37.38
203.879	144.89
204.098	110.08
204.317	38.4
204.536	110.08
204.755	26.11
204.974	91.65
205.193	7.68
205.411	167.42
205.63	155.13
205.849	108.03
206.068	38.4
206.287	-23.04
206.505	200.19
206.724	65.02
206.943	-0.51
207.162	-23.04
207.381	114.17
207.599	85.5
207.818	9.73
208.037	28.16
208.255	110.08
208.474	93.69
208.693	118.27
208.911	26.11
209.13	30.21
209.349	126.46
209.567	42.5
209.786	130.56
210.005	112.13
210.223	28.16
210.442	-104.96
210.661	32.26
210.879	99.84
211.098	9.73
211.316	24.06
211.535	120.32
211.753	118.27
211.972	142.85
212.191	-43.52
212.409	30.21
212.628	153.09
212.846	13.82
213.065	65.02
213.283	87.55
213.502	-16.9
213.72	19.97
213.938	110.08
214.157	15.87
214.375	142.85
214.594	56.83
214.812	91.65
215.031	44.54
215.249	136.7
215.467	-27.14
215.686	11.78
215.904	85.5
216.122	48.64
216.341	204.28
216.559	28.16
216.778	130.56
216.996	110.08
217.214	11.78
217.432	-78.33
217.651	-6.66
217.869	75.26
218.087	24.06
218.306	50.69
218.524	48.64
218.742	52.74
218.96	105.98
219.179	-10.75
219.397	48.64
219.615	175.61
219.833	91.65
220.051	-72.19
220.27	161.28
220.488	99.84
220.706	132.61
220.924	22.02
221.142	-33.28
221.36	50.69
221.578	40.45
221.796	71.17
222.015	28.16
222.233	34.3
222.451	155.13
222.669	-33.28
222.887	97.79
223.105	30.21
223.323	34.3
223.541	-29.18
223.759	87.55
223.977	65.02
224.195	237.05
224.413	126.46
224.631	19.97
224.849	93.69
225.067	200.19
225.285	-27.14
225.503	-8.7
225.721	-37.38
225.939	-8.7
226.157	93.69
226.375	210.43
226.592	-70.14
226.81	26.11
227.028	151.04
227.246	134.65
227.464	99.84
227.682	110.08
227.9	52.74
228.117	87.55
228.335	79.36
228.553	99.84
228.771	69.12
228.989	73.21
229.206	99.84
229.424	-31.23
229.642	-35.33
229.86	1.54
230.077	65.02
230.295	11.78
230.513	24.06
230.731	146.94
230.948	187.9
231.166	99.84
231.384	28.16
231.601	83.45
231.819	179.71
232.037	81.41
232.254	-14.85
232.472	-18.94
232.689	3.58
232.907	153.09
233.125	28.16
233.342	-76.29
233.56	15.87
233.777	60.93
233.995	69.12
234.213	36.35
234.43	-12.8
234.648	112.13
234.865	-0.51
235.083	97.79
235.3	95.74
235.518	65.02
235.735	116.22
235.953	40.45
236.17	112.13
236.388	38.4
236.605	-12.8
236.822	89.6
237.04	132.61
237.257	-0.51
237.475	-31.23
237.692	116.22
237.909	91.65
238.127	46.59
238.344	65.02
238.562	56.83
238.779	7.68
238.996	-35.33
239.214	75.26
239.431	105.98
239.648	-16.9
239.865	81.41
240.083	26.11
240.3	19.97
240.517	-35.33
240.735	40.45
240.952	167.42
241.169	79.36
241.386	110.08
241.603	-6.66
241.821	30.21
242.038	85.5
242.255	151.04
242.472	-80.38
242.689	40.45
242.907	110.08
243.124	122.37
243.341	13.82
243.558	58.88
243.775	-14.85
243.992	-82.43
244.209	114.17
244.426	181.76
244.643	56.83
244.86	5.63
245.078	167.42
245.295	22.02
245.512	-14.85
245.729	-10.75
245.946	91.65
246.163	71.17
246.38	99.84
246.597	83.45
246.814	15.87
247.031	-12.8
247.248	40.45
247.464	108.03
247.681	103.93
247.898	44.54
248.115	112.13
248.332	15.87
248.549	167.42
248.766	177.66
248.983	167.42
249.2	-4.61
249.417	118.27
249.633	26.11
249.85	62.98
250.067	108.03
250.284	103.93
250.501	128.51
250.717	140.8
250.934	-66.05
251.151	48.64
251.368	-53.76
251.585	112.13
251.801	73.21
252.018	-51.71
252.235	151.04
252.451	-53.76
252.668	-8.7
252.885	120.32
253.102	42.5
253.318	69.12
253.535	26.11
253.752	-78.33
253.968	52.74
254.185	-10.75
254.401	142.85
254.618	77.31
254.835	9.73
255.051	173.57
255.268	118.27
255.484	101.89
255.701	34.3
255.917	71.17
256.134	-33.28
256.351	36.35
256.567	15.87
256.784	38.4
257	9.73
257.217	196.09
257.433	116.22
257.65	112.13
257.866	108.03
258.082	-16.9
258.299	-8.7
258.515	99.84
258.732	15.87
258.948	-4.61
259.165	-10.75
259.381	-51.71
259.597	62.98
259.814	22.02
260.03	-18.94
260.246	75.26
260.463	155.13
260.679	155.13
260.895	11.78
261.112	83.45
261.328	77.31
261.544	34.3
261.761	177.66
261.977	75.26
262.193	-23.04
262.409	153.09
262.626	89.6
262.842	71.17
263.058	30.21
263.274	65.02
263.49	50.69
263.707	54.78
263.923	126.46
264.139	-18.94
264.355	38.4
264.571	52.74
264.787	99.84
265.004	101.89
265.22	7.68
265.436	-6.66
265.652	7.68
265.868	44.54
266.084	-20.99
266.3	38.4
266.516	-49.66
266.732	142.85
266.948	56.83
267.164	-43.52
267.38	138.75
267.596	73.21
267.812	144.89
268.028	5.63
268.244	19.97
268.46	5.63
268.676	81.41
268.892	124.41
269.108	-4.61
269.324	-68.09
269.54	-23.04
269.756	165.37
269.972	-64
270.188	54.78
270.403	-37.38
270.619	71.17
270.835	93.69
271.051	3.58
271.267	-12.8
271.483	19.97
271.698	75.26
271.914	108.03
272.13	44.54
272.346	-29.18
272.562	108.03
272.777	69.12
272.993	13.82
273.209	-0.51
273.425	128.51
273.64	26.11
273.856	159.23
274.072	-27.14
274.287	13.82
274.503	83.45
274.719	83.45
274.934	52.74
275.15	-4.61
275.366	-51.71
275.581	-0.51
275.797	91.65
276.012	105.98
276.228	19.97
276.444	79.36
276.659	108.03
276.875	44.54
277.09	32.26
277.306	17.92
277.521	46.59
277.737	44.54
277.952	36.35
278.168	52.74
278.383	9.73
278.599	34.3
278.814	62.98
279.03	116.22
279.245	169.47
279.461	58.88
279.676	89.6
279.892	-43.52
280.107	-29.18
280.322	-14.85
280.538	114.17
280.753	-23.04
280.969	79.36
281.184	34.3
281.399	185.85
281.615	40.45
281.83	73.21
282.045	-8.7
282.26	52.74
282.476	3.58
282.691	202.24
282.906	50.69
283.122	9.73
283.337	60.93
283.552	56.83
283.767	-23.04
283.983	179.71
284.198	9.73
284.413	65.02
284.628	-57.86
284.843	19.97
285.058	77.31
285.274	-45.57
285.489	13.82
285.704	206.33
285.919	-16.9
286.134	15.87
286.349	-4.61
286.564	-16.9
286.779	171.52
286.995	26.11
287.21	-76.29
287.425	32.26
287.64	13.82
287.855	81.41
288.07	-29.18
288.285	222.72
288.5	105.98
288.715	77.31
288.93	69.12
289.145	15.87
289.36	19.97
289.575	36.35
289.79	148.99
290.004	-37.38
290.219	108.03
290.434	5.63
290.649	-23.04
290.864	9.73
291.079	58.88
291.294	62.98
291.509	46.59
291.724	46.59
291.938	11.78
292.153	42.5
292.368	17.92
292.583	99.84
292.798	118.27
293.012	120.32
293.227	95.74
293.442	13.82
293.657	130.56
293.871	169.47
294.086	112.13
294.301	128.51
294.516	85.5
294.73	13.82
294.945	15.87
295.16	58.88
295.374	177.66
295.589	171.52
295.804	-0.51
296.018	-16.9
296.233	181.76
296.447	28.16
296.662	-12.8
296.877	183.81
297.091	87.55
297.306	103.93
297.52	73.21
297.735	44.54
297.949	-4.61
298.164	24.06
298.378	44.54
298.593	-45.57
298.807	40.45
299.022	38.4
299.236	218.62
299.451	13.82
299.665	36.35
299.88	24.06
300.094	73.21
300.309	44.54
300.523	118.27
300.737	-37.38
300.952	42.5
301.166	79.36
301.381	77.31
301.595	85.5
301.809	91.65
302.024	93.69
302.238	11.78
302.452	54.78
302.667	42.5
302.881	99.84
303.095	108.03
303.309	32.26
303.524	-12.8
303.738	9.73
303.952	52.74
304.166	136.7
304.381	-27.14
304.595	97.79
304.809	13.82
305.023	-49.66
305.237	36.35
305.452	7.68
305.666	65.02
305.88	69.12
306.094	67.07
306.308	73.21
306.522	105.98
306.736	71.17
306.95	5.63
307.164	-10.75
307.379	99.84
307.593	177.66
307.807	97.79
308.021	77.31
308.235	171.52
308.449	-104.96
308.663	65.02
308.877	120.32
309.091	91.65
309.305	32.26
309.519	-10.75
309.733	75.26
309.947	-66.05
310.161	38.4
310.374	99.84
310.588	87.55
310.802	34.3
311.016	-39.42
311.23	44.54
311.444	-6.66
311.658	1.54
311.872	101.89
312.085	108.03
312.299	103.93
312.513	151.04
312.727	69.12
312.941	17.92
313.154	26.11
313.368	60.93
313.582	-10.75
313.796	28.16
314.009	67.07
314.223	169.47
314.437	52.74
314.651	118.27
314.864	-0.51
315.078	-23.04
315.292	-39.42
315.505	-37.38
315.719	67.07
315.933	81.41
316.146	26.11
316.36	44.54
316.573	126.46
316.787	140.8
317.001	44.54
317.214	-0.51
317.428	99.84
317.641	-0.51
317.855	26.11
318.068	75.26
318.282	101.89
318.495	198.14
318.709	58.88
318.922	36.35
319.136	194.05
319.349	114.17
319.563	-76.29
319.776	173.57
319.99	-70.14
320.203	155.13
320.417	54.78
320.63	136.7
320.843	179.71
321.057	34.3
321.27	-14.85
321.483	142.85
321.697	144.89
321.91	116.22
322.124	52.74
322.337	93.69
322.55	-4.61
322.763	30.21
322.977	130.56
323.19	44.54
323.403	50.69
323.617	103.93
323.83	148.99
324.043	116.22
324.256	30.21
324.469	-66.05
324.683	110.08
324.896	36.35
325.109	1.54
325.322	-25.09
325.535	146.94
325.748	116.22
325.962	24.06
326.175	42.5
326.388	44.54
326.601	110.08
326.814	-0.51
327.027	120.32
327.24	177.66
327.453	-27.14
327.666	-8.7
327.879	97.79
328.092	112.13
328.305	108.03
328.518	-27.14
328.731	-31.23
328.944	3.58
329.157	50.69
329.37	101.89
329.583	235
329.796	171.52
330.009	-49.66
330.222	99.84
330.435	144.89
330.648	26.11
330.861	34.3
331.073	114.17
331.286	93.69
331.499	46.59
331.712	24.06
331.925	32.26
332.138	13.82
332.35	56.83
332.563	13.82
332.776	105.98
332.989	26.11
333.202	19.97
333.414	22.02
333.627	73.21
333.84	5.63
334.053	9.73
334.265	-10.75
334.478	-18.94
334.691	56.83
334.903	95.74
335.116	-35.33
335.329	-0.51
335.541	116.22
335.754	249.34
335.966	65.02
336.179	30.21
336.392	42.5
336.604	-0.51
336.817	52.74
337.029	62.98
337.242	13.82
337.454	81.41
337.667	5.63
337.88	130.56
338.092	81.41
338.305	54.78
338.517	-18.94
338.729	124.41
338.942	171.52
339.154	22.02
339.367	-55.81
339.579	116.22
339.792	-78.33
340.004	130.56
340.217	69.12
340.429	71.17
340.641	-53.76
340.854	-6.66
341.066	32.26
341.278	146.94
341.491	200.19
341.703	75.26
341.915	-66.05
342.128	179.71
342.34	118.27
342.552	48.64
342.764	-23.04
342.977	-0.51
343.189	79.36
343.401	17.92
343.613	-27.14
343.826	105.98
344.038	-0.51
344.25	48.64
344.462	9.73
344.674	103.93
344.886	130.56
345.099	140.8
345.311	146.94
345.523	-23.04
345.735	-102.91
345.947	40.45
346.159	97.79
346.371	36.35
346.583	42.5
346.795	144.89
347.007	-64
347.219	95.74
347.431	24.06
347.643	192
347.855	34.3
348.067	183.81
348.279	3.58
348.491	22.02
348.703	62.98
348.915	24.06
349.127	-61.95
349.339	95.74
349.551	-80.38
349.763	122.37
349.975	11.78
350.187	87.55
350.399	124.41
350.61	40.45
350.822	-6.66
351.034	73.21
351.246	75.26
351.458	30.21
351.669	118.27
351.881	79.36
352.093	71.17
352.305	24.06
352.517	103.93
352.728	103.93
352.94	22.02
353.152	34.3
353.363	-18.94
353.575	60.93
353.787	142.85
353.999	81.41
354.21	153.09
354.422	-20.99
354.633	40.45
354.845	7.68
355.057	46.59
355.268	79.36
355.48	46.59
355.692	-31.23
355.903	71.17
356.115	-27.14
356.326	-147.97
356.538	128.51
356.749	52.74
356.961	171.52
357.172	-6.66
357.384	-45.57
357.595	220.67
357.807	-20.99
358.018	58.88
358.23	77.31
358.441	153.09
358.653	46.59
358.864	13.82
359.075	71.17
359.287	71.17
359.498	167.42
359.709	28.16
359.921	30.21
360.132	132.61
360.344	11.78
360.555	71.17
360.766	179.71
360.977	-20.99
361.189	146.94
361.4	36.35
361.611	132.61
361.823	77.31
362.034	24.06
362.245	-29.18
362.456	7.68
362.667	91.65
362.879	-8.7
363.09	128.51
363.301	91.65
363.512	38.4
363.723	69.12
363.935	75.26
364.146	128.51
364.357	-25.09
364.568	62.98
364.779	-25.09
364.99	216.57
365.201	30.21
365.412	118.27
365.623	-45.57
365.834	42.5
366.045	108.03
366.256	146.94
366.467	81.41
366.678	48.64
366.889	9.73
367.1	30.21
367.311	77.31
367.522	-18.94
367.733	89.6
367.944	181.76
368.155	79.36
368.366	148.99
368.577	65.02
368.788	38.4
368.999	-45.57
369.209	87.55
369.42	175.61
369.631	192
369.842	101.89
370.053	38.4
370.264	126.46
370.474	46.59
370.685	77.31
370.896	167.42
371.107	120.32
371.317	48.64
371.528	44.54
371.739	183.81
371.95	101.89
372.16	124.41
372.371	-20.99
372.582	9.73
372.792	95.74
373.003	83.45
373.214	144.89
373.424	132.61
373.635	-10.75
373.846	163.33
374.056	65.02
374.267	105.98
374.477	65.02
374.688	3.58
374.898	93.69
375.109	67.07
375.319	62.98
375.53	179.71
375.74	89.6
375.951	24.06
376.161	52.74
376.372	114.17
376.582	-31.23
376.793	81.41
377.003	3.58
377.214	22.02
377.424	40.45
377.635	54.78
377.845	11.78
378.055	155.13
378.266	-27.14
378.476	7.68
378.686	28.16
378.897	75.26
379.107	173.57
379.317	36.35
379.528	54.78
379.738	124.41
379.948	-74.24
380.158	91.65
380.369	81.41
380.579	75.26
380.789	46.59
380.999	126.46
381.21	110.08
381.42	181.76
381.63	24.06
381.84	124.41
382.05	19.97
382.261	163.33
382.471	165.37
382.681	-4.61
382.891	148.99
383.101	42.5
383.311	32.26
383.521	116.22
383.731	128.51
383.941	97.79
384.151	60.93
384.361	-55.81
384.571	97.79
384.781	97.79
384.991	165.37
385.201	198.14
385.411	151.04
385.621	75.26
385.831	77.31
386.041	110.08
386.251	-27.14
386.461	163.33
386.671	40.45
386.881	-39.42
387.091	58.88
387.301	183.81
387.511	-8.7
387.72	105.98
387.93	32.26
388.14	-74.24
388.35	124.41
388.56	140.8
388.769	108.03
388.979	73.21
389.189	26.11
389.399	75.26
389.609	114.17
389.818	103.93
390.028	38.4
390.238	144.89
390.447	-23.04
390.657	65.02
390.867	58.88
391.076	3.58
391.286	56.83
391.496	79.36
391.705	40.45
391.915	157.18
392.125	99.84
392.334	36.35
392.544	161.28
392.753	112.13
392.963	7.68
393.172	79.36
393.382	15.87
393.591	183.81
393.801	34.3
394.01	179.71
394.22	71.17
394.429	-12.8
394.639	9.73
394.848	112.13
395.058	85.5
395.267	-45.57
395.477	54.78
395.686	120.32
395.895	239.1
396.105	218.62
396.314	13.82
396.524	50.69
396.733	22.02
396.942	22.02
397.152	54.78
397.361	153.09
397.57	38.4
397.78	26.11
397.989	114.17
398.198	300.54
398.407	157.18
398.617	81.41
398.826	110.08
399.035	-23.04
399.244	146.94
399.453	40.45
399.663	116.22
399.872	97.79
400.081	-39.42
400.29	124.41
400.499	-37.38
400.708	206.33
400.917	60.93
401.127	44.54
401.336	32.26
401.545	239.1
401.754	144.89
401.963	44.54
402.172	-4.61
402.381	7.68
402.59	83.45
402.799	69.12
403.008	151.04
403.217	112.13
403.426	140.8
403.635	-27.14
403.844	105.98
404.053	9.73
404.262	81.41
404.471	112.13
404.68	85.5
404.888	19.97
405.097	40.45
405.306	85.5
405.515	132.61
405.724	73.21
405.933	71.17
406.142	148.99
406.35	105.98
406.559	32.26
406.768	85.5
406.977	134.65
407.185	30.21
407.394	151.04
407.603	11.78
407.812	103.93
408.02	159.23
408.229	52.74
408.438	134.65
408.646	-66.05
408.855	85.5
409.064	56.83
409.272	105.98
409.481	85.5
409.69	24.06
409.898	-4.61
410.107	3.58
410.315	218.62
410.524	7.68
410.733	73.21
410.941	46.59
411.15	87.55
411.358	124.41
411.567	222.72
411.775	71.17
411.984	48.64
412.192	103.93
412.401	22.02
412.609	204.28
412.818	136.7
413.026	69.12
413.234	91.65
413.443	67.07
413.651	-25.09
413.86	75.26
414.068	118.27
414.276	235
414.485	-0.51
414.693	177.66
414.901	122.37
415.11	54.78
415.318	116.22
415.526	-8.7
415.734	-10.75
415.943	38.4
416.151	97.79
416.359	32.26
416.567	62.98
416.776	134.65
416.984	144.89
417.192	214.52
417.4	-39.42
417.608	42.5
417.817	-59.9
418.025	-16.9
418.233	169.47
418.441	-37.38
418.649	32.26
418.857	105.98
419.065	146.94
419.273	-29.18
419.481	58.88
419.689	67.07
419.897	58.88
420.105	-43.52
420.313	120.32
420.521	202.24
420.729	187.9
420.937	-12.8
421.145	17.92
421.353	126.46
421.561	187.9
421.769	91.65
421.977	48.64
422.185	122.37
422.393	97.79
422.601	157.18
422.809	146.94
423.017	13.82
423.224	142.85
423.432	118.27
423.64	85.5
423.848	130.56
424.056	60.93
424.263	93.69
424.471	42.5
424.679	200.19
424.887	-20.99
425.094	138.75
425.302	58.88
425.51	67.07
425.718	140.8
425.925	-0.51
426.133	-4.61
426.341	220.67
426.548	93.69
426.756	17.92
426.964	128.51
427.171	83.45
427.379	167.42
427.586	52.74
427.794	89.6
428.001	235
428.209	26.11
428.417	91.65
428.624	159.23
428.832	118.27
429.039	69.12
429.247	3.58
429.454	196.09
429.662	153.09
429.869	130.56
430.076	132.61
430.284	157.18
430.491	267.77
430.699	161.28
430.906	255.48
431.114	202.24
431.321	40.45
431.528	189.95
431.736	165.37
431.943	122.37
432.15	151.04
432.358	192
432.565	237.05
432.772	38.4
432.979	269.82
433.187	153.09
433.394	202.24
433.601	122.37
433.808	261.63
434.016	214.52
434.223	249.34
434.43	204.28
434.637	237.05
434.844	241.15
435.052	216.57
435.259	261.63
435.466	333.31
435.673	284.16
435.88	249.34
436.087	331.26
436.294	392.7
436.501	257.53
436.708	261.63
436.915	341.5
437.122	394.75
437.329	290.3
437.537	310.78
437.743	407.03
437.95	400.89
438.157	419.32
438.364	378.36
438.571	384.51
438.778	409.08
438.985	413.18
439.192	538.1
439.399	462.33
439.606	493.05
439.813	591.35
440.02	675.32
440.227	593.4
440.433	654.84
440.64	585.21
440.847	476.66
441.054	605.69
441.261	675.32
441.467	574.97
441.674	591.35
441.881	703.99
442.088	630.26
442.294	763.38
442.501	736.76
442.708	787.96
442.914	767.48
443.121	806.39
443.328	896.5
443.534	912.88
443.741	929.27
443.948	794.1
444.154	968.18
444.361	1191.41
444.568	996.85
444.774	1097.2
444.981	1068.53
445.187	1332.72
445.394	1181.17
445.6	1224.17
445.807	1342.96
446.013	1361.39
446.22	1289.71
446.426	1562.09
446.633	1480.17
446.839	1723.88
447.046	1494.51
447.252	1650.15
447.459	1625.58
447.665	1730.02
447.871	1824.23
448.078	1932.77
448.284	1889.76
448.491	1977.83
448.697	2141.66
448.903	2139.62
449.11	2135.52
449.316	2168.29
449.522	2426.33
449.728	2442.71
449.935	2637.27
450.141	2522.59
450.347	2760.15
450.553	2723.29
450.76	2901.46
450.966	2930.13
451.172	3032.53
451.378	3167.7
451.584	3245.52
451.791	3517.9
451.997	3544.52
452.203	3526.09
452.409	3812.81
452.615	4097.47
452.821	3876.29
453.027	3775.94
453.233	4388.29
453.44	4265.41
453.646	4376
453.852	4697.53
454.058	4826.55
454.264	5033.4
454.47	5348.78
454.676	5336.49
454.882	5623.21
455.088	5666.22
455.294	5797.29
455.5	6159.78
455.705	6632.86
455.911	6493.6
456.117	6798.74
456.323	7095.7
456.529	6915.48
456.735	7693.71
456.941	7638.41
457.147	8150.4
457.352	8387.97
457.558	8734.07
457.764	9223.54
457.97	9379.18
458.176	10044.77
458.381	10220.9
458.587	10341.73
458.793	10997.08
458.999	10970.46
459.204	12301.64
459.41	12664.13
459.616	12520.77
459.821	13534.51
460.027	13692.21
460.233	14423.33
460.438	14554.4
460.644	15131.93
460.85	15451.41
461.055	16233.74
461.261	16852.22
461.466	16209.16
461.672	16909.57
461.878	18848.99
462.083	18636
462.289	19047.65
462.494	19692.76
462.7	19668.18
462.905	20126.92
463.111	21783.73
463.316	22791.33
463.522	23336.09
463.727	23702.68
463.932	25074.82
464.138	25560.19
464.343	26522.73
464.549	26547.31
464.754	28646.47
464.959	29692.99
465.165	30004.28
465.37	30022.71
465.575	29858.87
465.781	32044.06
465.986	32996.36
466.191	32111.64
466.397	32441.36
466.602	31740.96
466.807	33553.41
467.012	34350.07
467.218	34636.78
467.423	35046.38
467.628	35863.52
467.833	37759.94
468.038	36903.88
468.244	36383.7
468.449	37970.88
468.654	37389.25
468.859	37850.05
469.064	37200.84
469.269	36570.07
469.474	36690.9
469.679	37714.88
469.885	36813.77
470.09	37340.1
470.295	37331.91
470.5	36477.91
470.705	36795.34
470.91	35881.95
471.115	35355.62
471.32	36250.58
471.525	35843.04
471.73	34370.55
471.935	34663.41
472.139	33035.27
472.344	33178.63
472.549	33260.55
472.754	32449.55
472.959	31843.35
473.164	30714.92
473.369	30207.03
473.574	31362.08
473.778	30174.26
473.983	29889.59
474.188	29889.59
474.393	28038.23
474.598	27860.05
474.802	27403.36
475.007	26909.8
475.212	26346.61
475.417	25498.75
475.621	25269.37
475.826	25058.43
476.031	24562.83
476.235	24018.07
476.44	24089.74
476.645	23516.31
476.849	23219.36
477.054	22660.26
477.259	22052.02
477.463	22183.09
477.668	21601.46
477.872	21515.45
478.077	21124.29
478.282	20298.95
478.486	20065.49
478.691	20057.29
478.895	19823.83
479.1	19498.2
479.304	19899.6
479.509	19180.76
479.713	19281.11
479.918	18711.78
480.122	18242.79
480.326	18595.04
480.531	18359.53
480.735	18212.07
480.94	17968.37
481.144	18371.82
481.348	17450.23
481.553	17661.17
481.757	16928
481.961	17476.85
482.166	17247.48
482.37	17054.97
482.574	16694.53
482.778	16598.27
482.983	16770.3
483.187	16702.72
483.391	16366.85
483.595	16258.31
483.8	15969.55
484.004	15942.92
484.208	16217.35
484.412	15781.14
484.616	15535.38
484.821	15586.58
485.025	15299.86
485.229	15250.71
485.433	14945.56
485.637	14687.52
485.841	14345.51
486.045	14279.97
486.249	14298.41
486.453	13743.41
486.657	13589.81
486.861	13686.06
487.065	13081.91
487.269	13178.17
487.473	12660.03
487.677	12834.11
487.881	12678.46
488.085	12287.3
488.289	11951.43
488.493	11822.41
488.697	11785.55
488.901	11558.22
489.105	11431.25
489.309	11076.95
489.512	11007.32
489.716	10911.07
489.92	10610.01
490.124	10284.39
490.328	10417.51
490.531	9938.28
490.735	9735.53
490.939	9882.99
491.143	9614.7
491.346	9155.96
491.55	9266.55
491.754	9102.71
491.958	8953.21
492.161	8777.08
492.365	8674.68
492.569	8433.02
492.772	8422.78
492.976	8377.73
493.18	8383.87
493.383	8187.27
493.587	7918.98
493.79	8035.72
493.994	7724.43
494.197	7734.67
494.401	7662.99
494.605	7574.92
494.808	7761.29
495.012	7468.43
495.215	7546.25
495.419	7415.18
495.622	7259.54
495.825	7243.15
496.029	7062.93
496.232	7388.56
496.436	7099.8
496.639	7142.8
496.843	6999.45
497.046	7064.98
497.249	7333.26
497.453	7271.83
497.656	7218.58
497.859	7257.49
498.063	7155.09
498.266	7392.66
498.469	7005.59
498.673	7200.15
498.876	7280.02
499.079	7206.29
499.282	7187.86
499.485	7527.82
499.689	7323.02
499.892	7462.29
500.095	7392.66
500.298	7703.95
500.501	7404.94
500.705	7736.71
500.908	7753.1
501.111	7796.11
501.314	7767.43
501.517	7959.94
501.72	7935.37
501.923	7982.47
502.126	8072.58
502.329	8342.91
502.532	8394.11
502.735	8220.03
502.938	8627.58
503.141	8719.74
503.344	8480.13
503.547	8859
503.75	8627.58
503.953	9020.79
504.156	9119.09
504.359	9262.45
504.562	9307.51
504.765	9792.87
504.968	9803.11
505.17	9756.01
505.373	9909.61
505.576	10161.51
505.779	10237.28
505.982	10386.79
506.185	10745.18
506.387	10863.96
506.59	11007.32
506.793	11115.86
506.996	11310.42
507.198	11689.29
507.401	11791.69
507.604	12072.26
507.807	12162.37
508.009	12473.67
508.212	12664.13
508.415	12830.01
508.617	13208.89
508.82	13391.16
509.022	13729.07
509.225	14089.51
509.428	14310.69
509.63	14523.68
509.833	14884.12
510.035	15306.01
510.238	15557.91
510.44	15938.83
510.643	16301.32
510.845	16717.06
511.048	16532.74
511.25	17239.29
511.453	17487.09
511.655	18451.69
511.858	18220.27
512.06	18961.63
512.262	19410.14
512.465	19422.42
512.667	19977.42
512.87	20794.56
513.072	20837.57
513.274	21904.56
513.477	21904.56
513.679	22590.63
513.881	22951.07
514.084	23456.92
514.286	23831.7
514.488	24429.71
514.69	25343.1
514.893	25863.29
515.095	25896.05
515.297	26629.23
515.499	27389.02
515.701	27561.05
515.904	28496.97
516.106	28802.12
516.308	29635.64
516.51	30254.13
516.712	30526.51
516.914	31622.17
517.116	32318.48
517.318	32535.57
517.52	33086.47
517.722	33600.51
517.925	34085.88
518.127	35312.61
518.329	35664.86
518.531	36148.18
518.733	36596.69
518.935	37440.45
519.136	38007.74
519.338	38642.61
519.54	39314.34
519.742	39760.8
519.944	40639.38
520.146	41284.49
520.348	41892.74
520.55	41907.07
520.752	42515.32
520.954	43602.79
521.155	43285.36
521.357	44012.38
521.559	44407.64
521.761	45626.18
521.963	45685.57
522.164	45726.53
522.366	46283.58
522.568	46578.49
522.77	46955.32
522.971	47584.04
523.173	47457.07
523.375	48325.41
523.576	48186.14
523.778	47799.08
523.98	49060.63
524.181	49203.99
524.383	49562.38
524.584	49840.9
524.786	49394.45
524.988	49601.29
525.189	49967.88
525.391	50070.28
525.592	50027.27
525.794	49933.06
525.995	49863.43
526.197	49957.64
526.398	49990.41
526.6	49978.12
526.801	50297.6
527.003	49885.96
527.204	49822.47
527.406	49955.59
527.607	49595.15
527.808	49664.78
528.01	48249.63
528.211	48210.72
528.412	48788.25
528.614	48149.28
528.815	47625
529.016	47788.84
529.218	47266.61
529.419	47016.75
529.62	46465.85
529.822	46273.34
530.023	45929.28
530.224	45208.4
530.425	45208.4
530.626	44381.02
530.828	43594.6
531.029	43989.86
531.23	43160.43
531.431	42558.33
531.632	42322.81
531.833	41915.26
532.035	41546.63
532.236	40584.08
532.437	40827.79
532.638	39838.62
532.839	39480.23
533.04	39492.52
533.241	38020.03
533.442	38175.67
533.643	37381.06
533.844	36795.34
534.045	36604.88
534.246	35705.82
534.447	35425.25
534.648	35062.76
534.849	34843.63
535.05	34085.88
535.251	33723.39
535.451	33244.16
535.652	33117.19
535.853	32545.81
536.054	32019.48
536.255	31822.87
536.456	30934.06
536.657	31013.93
536.857	30508.08
537.058	30106.68
537.259	29787.19
537.46	29244.48
537.66	28644.43
537.861	28400.72
538.062	28144.72
538.263	27757.66
538.463	27141.22
538.664	27409.5
538.865	26522.73
539.065	26592.36
539.266	26307.69
539.466	25799.8
539.667	25248.89
539.868	25138.3
540.068	24771.72
540.269	24669.32
540.469	24433.8
540.67	24118.42
540.87	23921.81
541.071	23366.81
541.271	23147.68
541.472	23088.29
541.672	22727.85
541.873	22422.7
542.073	22049.97
542.274	22109.36
542.474	21759.16
542.675	21640.37
542.875	21118.14
543.075	21013.7
543.276	20344.01
543.476	20985.02
543.676	20157.64
543.877	20049.1
544.077	19856.59
544.277	20081.87
544.478	19408.09
544.678	19123.42
544.878	19037.41
545.078	18867.42
545.279	18597.09
545.479	18050.28
545.679	18117.87
545.879	17994.99
546.079	17683.7
546.28	17476.85
546.48	17102.08
546.68	17167.61
546.88	16776.45
547.08	16612.61
547.28	16430.34
547.48	16164.11
547.68	16243.98
547.88	16143.63
548.081	15926.54
548.281	15502.61
548.481	15543.57
548.681	15033.63
548.881	15027.48
549.081	14937.37
549.28	14517.54
549.48	14570.79
549.68	14472.48
549.88	14058.79
550.08	13712.69
550.28	13636.91
550.48	13546.8
550.68	13368.63
550.88	13075.77
551.08	12868.92
551.279	12868.92
551.479	12700.99
551.679	12416.32
551.879	12166.47
552.079	12160.33
552.278	11828.56
552.478	11736.4
552.678	11402.58
552.878	11634
553.077	11279.7
553.277	10980.7
553.477	10997.08
553.676	10661.21
553.876	10526.05
554.076	10354.02
554.275	10268
554.475	9862.51
554.674	10030.44
554.874	9788.78
555.074	9532.78
555.273	9362.8
555.473	9287.03
555.672	9166.2
555.872	9076.09
556.071	8686.97
556.271	8811.9
556.47	8709.5
556.67	8332.67
556.869	8355.2
557.068	8183.17
557.268	7914.89
557.467	7740.81
557.667	7783.82
557.866	7609.74
558.065	7640.46
558.265	7304.59
558.464	7101.84
558.663	7312.78
558.863	7064.98
559.062	7017.88
559.261	6632.86
559.461	6765.98
559.66	6534.56
559.859	6514.08
560.058	6274.46
560.258	6262.18
560.457	6131.11
560.656	6161.83
560.855	5858.73
561.054	5979.56
561.253	6006.18
561.453	5969.32
561.652	5578.15
561.851	5629.35
562.05	5383.6
562.249	5436.85
562.448	5414.32
562.647	5195.18
562.846	5055.92
563.045	5123.51
563.244	5057.97
563.443	5057.97
563.642	4752.82
563.841	4814.26
564.04	4806.07
564.239	4693.43
564.438	4631.99
564.637	4421.05
564.836	4406.72
565.035	4238.78
565.234	4396.48
565.432	4183.49
565.631	4367.81
565.83	4175.3
566.029	3986.88
566.228	3997.12
566.427	4163.01
566.625	3784.13
566.824	3890.63
567.023	3777.99
567.222	3589.58
567.42	3743.17
567.619	3495.37
567.818	3608.01
568.016	3653.06
568.215	3599.82
568.414	3573.19
568.612	3327.44
568.811	3376.59
569.01	3296.72
569.208	3120.59
569.407	3386.83
569.605	3112.4
569.804	3108.3
570.002	2985.43
570.201	3075.54
570.4	3020.24
570.598	3034.58
570.797	2893.27
570.995	2897.36
571.193	2815.45
571.392	2776.53
571.59	2627.03
571.789	2754.01
571.987	2688.47
572.186	2653.66
572.384	2461.15
572.582	2461.15
572.781	2530.78
572.979	2342.36
573.177	2461.15
573.376	2381.28
573.574	2520.54
573.772	2250.21
573.971	2221.53
574.169	2174.43
574.367	2205.15
574.565	2119.14
574.763	2031.07
574.962	2203.1
575.16	2039.26
575.358	1881.57
575.556	2129.38
575.754	2006.5
575.952	1881.57
576.151	1846.76
576.349	1887.72
576.547	1811.94
576.745	1734.12
576.943	1824.23
577.141	1777.12
577.339	1693.16
577.537	1693.16
577.735	1703.4
577.933	1711.59
578.131	1525.22
578.329	1756.65
578.527	1562.09
578.725	1603.05
578.923	1367.53
579.121	1535.46
579.319	1388.01
579.516	1580.52
579.714	1648.1
579.912	1441.26
580.11	1320.43
580.308	1312.24
580.506	1385.96
580.704	1228.27
580.901	1334.76
581.099	1365.48
581.297	1353.2
581.495	1256.94
581.692	1193.45
581.89	1283.56
582.088	1211.89
582.285	1177.07
582.483	1160.69
582.681	1101.3
582.878	1043.95
583.076	1089.01
583.274	1103.34
583.471	1287.66
583.669	1152.49
583.866	947.7
584.064	982.51
584.262	970.23
584.459	916.98
584.657	927.22
584.854	1066.48
585.052	978.42
585.249	951.79
585.447	943.6
585.644	826.87
585.841	1050.1
586.039	1017.33
586.236	1013.23
586.434	802.29
586.631	853.49
586.828	941.55
587.026	833.01
587.223	894.45
587.42	804.34
587.618	843.25
587.815	865.78
588.012	773.62
588.21	820.72
588.407	814.58
588.604	802.29
588.801	820.72
588.999	759.28
589.196	783.86
589.393	716.28
589.59	648.69
589.787	790
589.984	839.16
590.182	660.98
590.379	687.61
590.576	753.14
590.773	699.89
590.97	658.93
591.167	732.66
591.364	757.24
591.561	632.31
591.758	712.18
591.955	736.76
592.152	628.21
592.349	646.65
592.546	650.74
592.743	667.13
592.94	642.55
593.137	667.13
593.334	767.48
593.531	814.58
593.727	693.75
593.924	693.75
594.121	626.17
594.318	675.32
594.515	833.01
594.712	822.77
594.908	785.91
595.105	632.31
595.302	804.34
595.499	724.47
595.696	849.4
595.892	790
596.089	851.44
596.286	720.37
596.482	839.16
596.679	845.3
596.876	767.48
597.072	863.73
597.269	847.35
597.466	908.79
597.662	847.35
597.859	759.28
598.055	892.4
598.252	996.85
598.448	1121.77
598.645	1138.16
598.841	1039.86
599.038	1236.46
599.234	1244.65
599.431	1222.13
599.627	1234.41
599.824	1273.32
600.02	1279.47
600.217	1328.62
600.413	1345
600.609	1494.51
600.806	1803.75
601.002	1592.81
601.198	1519.08
601.395	1809.89
601.591	1838.56
601.787	1811.94
601.984	2006.5
602.18	2076.13
602.376	2035.17
602.572	2190.81
602.769	2266.59
602.965	2299.36
603.161	2352.6
603.357	2385.37
603.553	2690.52
603.75	2522.59
603.946	2588.12
604.142	2751.96
604.338	2962.9
604.534	2915.8
604.73	2942.42
604.926	3079.63
605.122	3530.19
605.318	3415.5
605.514	3513.8
605.71	3546.57
605.906	3653.06
606.102	3722.7
606.298	3900.87
606.494	4142.53
606.69	4376
606.886	4271.55
607.082	4390.33
607.278	4470.2
607.474	4679.1
607.67	4758.97
607.866	4654.52
608.062	5103.03
608.257	5129.65
608.453	5275.06
608.649	5471.66
608.845	5402.03
609.041	5653.93
609.236	6002.08
609.432	5973.41
609.628	6135.2
609.824	6417.82
610.019	6505.88
610.215	6765.98
610.411	6772.12
610.606	7019.92
610.802	7230.87
610.998	7357.84
611.193	7716.23
611.389	7712.14
611.584	8082.82
611.78	8103.3
611.976	8572.29
612.171	8711.55
612.367	8899.96
612.562	8988.02
612.758	9280.88
612.953	9348.47
613.149	9551.21
613.344	10075.49
613.539	10351.97
613.735	10769.76
613.93	11072.86
614.126	10992.98
614.321	11621.71
614.517	11717.97
614.712	11887.95
614.907	12254.53
615.103	12764.48
615.298	12672.32
615.493	13176.12
615.688	13411.64
615.884	14038.31
616.079	14380.32
616.274	14785.82
616.47	14939.42
616.665	15473.94
616.86	15815.95
617.055	16373
617.25	16508.16
617.445	16911.61
617.641	17237.24
617.836	17593.59
618.031	17939.69
618.226	18803.94
618.421	19076.32
618.616	19543.25
618.811	19877.07
619.006	20511.94
619.201	20589.77
619.396	21478.58
619.591	21632.18
619.786	22410.41
619.981	22340.78
620.176	23133.34
620.371	23319.71
620.566	24196.24
620.761	24224.91
620.956	25388.16
621.151	25336.96
621.346	26240.11
621.541	26096.75
621.735	27235.42
621.93	26961
622.125	27853.91
622.32	28165.2
622.515	28853.32
622.709	29275.2
622.904	29850.68
623.099	30297.14
623.294	30882.86
623.488	31214.63
623.683	32279.57
623.878	32375.83
624.072	33094.66
624.267	33412.1
624.462	34096.12
624.656	34092.02
624.851	35234.79
625.046	35404.77
625.24	36072.41
625.435	36426.71
625.629	36830.16
625.824	37123.02
626.018	38036.41
626.213	37696.45
626.407	38572.98
626.602	38847.41
626.796	39582.63
626.991	39984.03
627.185	40518.55
627.38	40518.55
627.574	40313.75
627.768	40608.66
627.963	40639.38
628.157	40625.04
628.352	41085.84
628.546	40776.59
628.74	41616.26
628.935	41087.89
629.129	41325.45
629.323	40897.42
629.517	40752.02
629.712	40235.93
629.906	39977.89
630.1	39635.88
630.294	39420.84
630.489	39177.13
630.683	38964.14
630.877	37659.59
631.071	37221.32
631.265	37381.06
631.459	35927
631.653	35347.43
631.848	34796.53
632.042	33709.05
632.236	33283.08
632.43	32205.84
632.624	31296.55
632.818	29996.09
633.012	29533.25
633.206	28316.75
633.4	27976.79
633.594	26713.19
633.788	26008.69
633.982	25171.07
634.176	24278.16
634.369	23143.58
634.563	22578.34
634.757	21564.6
634.951	21152.96
635.145	19956.94
635.339	19231.96
635.533	18365.67
635.726	17646.83
635.92	16903.42
636.114	16051.47
636.308	15645.97
636.501	14765.34
636.695	14390.56
636.889	13731.12
637.083	13212.98
637.276	12545.34
637.47	12152.13
637.664	11572.56
637.857	11345.23
638.051	10618.21
638.244	10255.72
638.438	9995.62
638.632	9657.71
638.825	8985.97
639.019	8940.92
639.212	8562.05
639.406	7988.61
639.599	7753.1
639.793	7558.54
639.986	7044.5
640.18	6997.4
640.373	6645.15
640.567	6372.77
640.76	6219.17
640.954	5944.74
641.147	5602.73
641.34	5230
641.534	5150.13
641.727	5207.47
641.92	5014.96
642.114	4670.9
642.307	4502.97
642.5	4408.76
642.694	4107.71
642.887	4031.94
643.08	3962.31
643.273	3837.38
643.467	3585.48
643.66	3456.46
643.853	3218.89
644.046	3147.22
644.239	3145.17
644.432	2887.12
644.626	2651.61
644.819	2647.51
645.012	2606.55
645.205	2561.5
645.398	2555.35
645.591	2375.13
645.784	2215.39
645.977	2139.62
646.17	2045.41
646.363	1926.63
646.556	1766.89
646.749	1766.89
646.942	1742.31
647.135	1754.6
647.328	1676.77
647.521	1578.47
647.714	1510.89
647.907	1469.93
648.099	1353.2
648.292	1555.94
648.485	1353.2
648.678	1199.6
648.871	1111.54
649.064	1162.73
649.256	1039.86
649.449	1056.24
649.642	968.18
649.835	1019.38
650.027	912.88
650.22	964.08
650.413	964.08
650.605	865.78
650.798	878.07
650.991	841.2
651.183	771.57
651.376	765.43
651.568	904.69
651.761	673.27
651.954	726.52
652.146	634.36
652.339	691.7
652.531	687.61
652.724	589.3
652.916	544.25
653.109	439.8
653.301	685.56
653.494	585.21
653.686	644.6
653.879	640.5
654.071	605.69
654.263	452.09
654.456	382.46
654.648	574.97
654.84	517.62
655.033	392.7
655.225	458.23
655.417	374.27
655.61	579.06
655.802	386.55
655.994	538.1
656.186	335.35
656.379	407.03
656.571	321.02
656.763	351.74
656.955	353.79
657.148	376.31
657.34	396.79
657.532	327.16
657.724	296.44
657.916	255.48
658.108	497.14
658.3	308.73
658.492	396.79
658.684	312.83
658.876	275.96
659.068	245.24
659.26	175.61
659.452	212.48
659.644	235
659.836	345.59
660.028	261.63
660.22	286.2
660.412	239.1
660.604	216.57
660.796	196.09
660.988	329.21
661.18	171.52
661.372	263.68
661.563	259.58
661.755	189.95
661.947	112.13
662.139	97.79
662.331	245.24
662.522	138.75
662.714	146.94
662.906	161.28
663.097	255.48
663.289	138.75
663.481	110.08
663.673	212.48
663.864	179.71
664.056	247.29
664.247	110.08
664.439	249.34
664.631	155.13
664.822	302.59
665.014	132.61
665.205	146.94
665.397	140.8
665.588	157.18
665.78	126.46
665.971	185.85
666.163	91.65
666.354	220.67
666.546	130.56
666.737	32.26
666.929	155.13
667.12	105.98
667.311	144.89
667.503	210.43
667.694	105.98
667.885	153.09
668.077	222.72
668.268	75.26
668.459	112.13
668.651	208.38
668.842	265.72
669.033	81.41
669.224	-2.56
669.416	413.18
669.607	155.13
669.798	52.74
669.989	275.96
670.18	97.79
670.371	247.29
670.563	126.46
670.754	267.77
670.945	257.53
671.136	269.82
671.327	79.36
671.518	196.09
671.709	237.05
671.9	220.67
672.091	310.78
672.282	171.52
672.473	159.23
672.664	36.35
672.855	177.66
673.046	175.61
673.237	278.01
673.428	224.76
673.619	196.09
673.809	95.74
674	247.29
674.191	173.57
674.382	196.09
674.573	214.52
674.764	120.32
674.954	237.05
675.145	148.99
675.336	148.99
675.527	198.14
675.717	97.79
675.908	85.5
676.099	13.82
676.289	183.81
676.48	36.35
676.671	151.04
676.861	161.28
677.052	214.52
677.243	87.55
677.433	93.69
677.624	204.28
677.814	167.42
678.005	144.89
678.195	323.07
678.386	46.59
678.576	204.28
678.767	110.08
678.957	206.33
679.148	243.2
679.338	376.31
679.529	265.72
679.719	148.99
679.909	259.58
680.1	357.88
680.29	185.85
680.481	116.22
680.671	314.88
680.861	226.81
681.052	194.05
681.242	237.05
681.432	202.24
681.622	196.09
681.813	146.94
682.003	177.66
682.193	196.09
682.383	314.88
682.573	124.41
682.764	196.09
682.954	290.3
683.144	339.45
683.334	132.61
683.524	204.28
683.714	204.28
683.904	241.15
684.094	235
684.284	243.2
684.474	224.76
684.664	263.68
684.854	220.67
685.044	228.86
685.234	228.86
685.424	220.67
685.614	196.09
685.804	404.99
685.994	257.53
686.184	181.76
686.374	232.96
686.564	214.52
686.753	232.96
686.943	224.76
687.133	169.47
687.323	218.62
687.513	220.67
687.702	237.05
687.892	179.71
688.082	204.28
688.272	235
688.461	222.72
688.651	380.41
688.841	251.39
689.03	163.33
689.22	224.76
689.41	261.63
689.599	189.95
689.789	140.8
689.979	323.07
690.168	206.33
690.358	271.87
690.547	255.48
690.737	220.67
690.926	300.54
691.116	312.83
691.305	318.97
691.495	282.11
691.684	140.8
691.874	138.75
692.063	243.2
692.252	241.15
692.442	288.25
692.631	202.24
692.82	239.1
693.01	316.92
693.199	245.24
693.388	218.62
693.578	224.76
693.767	220.67
693.956	261.63
694.146	220.67
694.335	275.96
694.524	185.85
694.713	273.92
694.902	214.52
695.092	175.61
695.281	257.53
695.47	206.33
695.659	226.81
695.848	226.81
696.037	202.24
696.226	359.93
696.415	241.15
696.604	278.01
696.793	261.63
696.982	103.93
697.171	269.82
697.36	144.89
697.549	271.87
697.738	91.65
697.927	177.66
698.116	112.13
698.305	239.1
698.494	249.34
698.683	284.16
698.872	282.11
699.061	181.76
699.25	142.85
699.438	155.13
699.627	153.09
699.816	294.4
700.005	118.27
700.193	118.27
700.382	237.05
700.571	243.2
700.76	224.76
700.948	265.72
701.137	314.88
701.326	357.88
701.514	214.52
701.703	245.24
701.892	194.05
702.08	359.93
702.269	192
702.457	126.46
702.646	142.85
702.834	124.41
703.023	232.96
703.212	265.72
703.4	261.63
703.589	183.81
703.777	97.79
703.965	122.37
704.154	167.42
704.342	177.66
704.531	177.66
704.719	202.24
704.907	232.96
705.096	243.2
705.284	151.04
705.472	185.85
705.661	228.86
705.849	226.81
706.037	267.77
706.226	226.81
706.414	247.29
706.602	130.56
706.79	214.52
706.979	155.13
707.167	204.28
707.355	118.27
707.543	232.96
707.731	255.48
707.919	196.09
708.107	126.46
708.296	112.13
708.484	89.6
708.672	235
708.86	241.15
709.048	259.58
709.236	177.66
709.424	255.48
709.612	187.9
709.8	108.03
709.988	198.14
710.176	263.68
710.364	267.77
710.551	216.57
710.739	173.57
710.927	194.05
711.115	212.48
711.303	177.66
711.491	237.05
711.679	208.38
711.866	202.24
712.054	216.57
712.242	167.42
712.43	294.4
712.617	183.81
712.805	294.4
712.993	181.76
713.181	42.5
713.368	179.71
713.556	151.04
713.744	171.52
713.931	409.08
714.119	263.68
714.306	167.42
714.494	148.99
714.682	239.1
714.869	89.6
715.057	179.71
715.244	124.41
715.432	261.63
715.619	189.95
715.807	114.17
715.994	200.19
716.182	189.95
716.369	212.48
716.556	165.37
716.744	48.64
716.931	163.33
717.119	232.96
717.306	239.1
717.493	179.71
717.681	108.03
717.868	118.27
718.055	171.52
718.242	132.61
718.43	218.62
718.617	343.55
718.804	114.17
718.991	235
719.179	216.57
719.366	271.87
719.553	280.06
719.74	237.05
719.927	198.14
720.114	267.77
720.301	161.28
720.488	165.37
720.676	181.76
720.863	269.82
721.05	290.3
721.237	208.38
721.424	269.82
721.611	235
721.798	110.08
721.985	173.57
722.172	181.76
722.358	245.24
722.545	189.95
722.732	253.44
722.919	280.06
723.106	290.3
723.293	232.96
723.48	235
723.667	202.24
723.853	355.83
724.04	263.68
724.227	280.06
724.414	179.71
724.6	216.57
724.787	366.07
724.974	402.94
725.161	290.3
725.347	167.42
725.534	200.19
725.72	294.4
725.907	298.49
726.094	282.11
726.28	239.1
726.467	206.33
726.653	161.28
726.84	286.2
727.027	361.98
727.213	140.8
727.4	273.92
727.586	253.44
727.773	241.15
727.959	282.11
728.145	235
728.332	271.87
728.518	263.68
728.705	247.29
728.891	185.85
729.077	247.29
729.264	173.57
729.45	181.76
729.636	302.59
729.823	241.15
730.009	321.02
730.195	278.01
730.382	294.4
730.568	187.9
730.754	224.76
730.94	222.72
731.126	249.34
731.313	269.82
731.499	308.73
731.685	290.3
731.871	263.68
732.057	265.72
732.243	282.11
732.429	230.91
732.615	351.74
732.801	331.26
732.987	273.92
733.173	228.86
733.359	177.66
733.545	247.29
733.731	187.9
733.917	294.4
734.103	308.73
734.289	269.82
734.475	157.18
734.661	466.42
734.847	232.96
735.033	310.78
735.219	257.53
735.404	153.09
735.59	192
735.776	249.34
735.962	271.87
736.148	294.4
736.333	339.45
736.519	226.81
736.705	275.96
736.89	222.72
737.076	206.33
737.262	204.28
737.447	232.96
737.633	196.09
737.819	415.23
738.004	265.72
738.19	212.48
738.375	198.14
738.561	310.78
738.747	304.64
738.932	224.76
739.118	482.81
739.303	347.64
739.489	321.02
739.674	212.48
739.859	251.39
740.045	282.11
740.23	300.54
740.416	130.56
740.601	230.91
740.786	261.63
740.972	151.04
741.157	214.52
741.342	226.81
741.528	228.86
741.713	333.31
741.898	298.49
742.084	206.33
742.269	214.52
742.454	302.59
742.639	421.37
742.824	259.58
743.01	374.27
743.195	335.35
743.38	335.35
743.565	230.91
743.75	216.57
743.935	312.83
744.12	402.94
744.305	198.14
744.49	290.3
744.675	314.88
744.86	159.23
745.045	343.55
745.23	286.2
745.415	228.86
745.6	323.07
745.785	224.76
745.97	316.92
746.155	310.78
746.34	339.45
746.525	306.68
746.71	372.22
746.895	165.37
747.079	210.43
747.264	212.48
747.449	310.78
747.634	261.63
747.819	273.92
748.003	275.96
748.188	175.61
748.373	282.11
748.557	239.1
748.742	235
748.927	247.29
749.111	181.76
749.296	222.72
749.481	288.25
749.665	278.01
749.85	220.67
750.034	214.52
750.219	224.76
750.404	237.05
750.588	259.58
750.773	183.81
750.957	194.05
751.141	255.48
751.326	282.11
751.51	101.89
751.695	189.95
751.879	212.48
752.064	359.93
752.248	237.05
752.432	290.3
752.617	294.4
752.801	265.72
752.985	157.18
753.17	269.82
753.354	232.96
753.538	241.15
753.722	153.09
753.907	128.51
754.091	132.61
754.275	261.63
754.459	101.89
754.643	148.99
754.828	200.19
755.012	292.35
755.196	120.32
755.38	235
755.564	93.69
755.748	202.24
755.932	237.05
756.116	200.19
756.3	198.14
756.484	153.09
756.668	183.81
756.852	42.5
757.036	198.14
757.22	241.15
757.404	83.45
757.588	124.41
757.772	230.91
757.956	212.48
758.14	292.35
758.323	136.7
758.507	249.34
758.691	138.75
758.875	187.9
759.059	249.34
759.242	122.37
759.426	120.32
759.61	93.69
759.794	171.52
759.977	235
760.161	388.6
760.345	220.67
760.528	267.77
760.712	228.86
760.895	177.66
761.079	97.79
761.263	3.58
761.446	91.65
761.63	177.66
761.813	210.43
761.997	54.78
762.18	112.13
762.364	222.72
762.547	67.07
762.731	138.75
762.914	60.93
763.098	118.27
763.281	120.32
763.464	136.7
763.648	142.85
763.831	206.33
764.015	79.36
764.198	175.61
764.381	67.07
764.564	163.33
764.748	105.98
764.931	185.85
765.114	110.08
765.297	146.94
765.481	122.37
765.664	134.65
765.847	112.13
766.03	187.9
766.213	101.89
766.397	138.75
766.58	-18.94
766.763	198.14
766.946	-31.23
767.129	71.17
767.312	118.27
767.495	56.83
767.678	13.82
767.861	103.93
768.044	108.03
768.227	13.82
768.41	163.33
768.593	108.03
768.776	71.17
768.959	108.03
769.142	185.85
769.324	122.37
769.507	73.21
769.69	85.5
769.873	189.95
770.056	314.88
770.239	36.35
770.421	196.09
770.604	136.7
770.787	67.07
770.97	144.89
771.152	44.54
771.335	126.46
771.518	3.58
771.7	187.9
771.883	187.9
772.066	19.97
772.248	138.75
772.431	165.37
772.613	155.13
772.796	95.74
772.978	89.6
773.161	189.95
773.343	128.51
773.526	38.4
773.708	-41.47
773.891	-45.57
774.073	124.41
774.256	75.26
774.438	216.57
774.621	110.08
774.803	153.09
774.985	105.98
775.168	128.51
775.35	105.98
775.532	179.71
775.715	65.02
775.897	140.8
776.079	52.74
776.261	192
776.444	89.6
776.626	118.27
776.808	38.4
776.99	48.64
777.173	116.22
777.355	105.98
777.537	67.07
777.719	93.69
777.901	79.36
778.083	67.07
778.265	-18.94
778.447	91.65
778.629	19.97
778.811	89.6
778.993	151.04
779.175	187.9
779.357	67.07
779.539	22.02
779.721	71.17
779.903	114.17
780.085	36.35
780.267	48.64
780.449	134.65
780.631	56.83
780.812	148.99
780.994	89.6
781.176	32.26
781.358	48.64
781.54	75.26
781.721	148.99
781.903	118.27
782.085	9.73
782.267	148.99
782.448	26.11
782.63	-8.7
782.812	95.74
782.993	56.83
783.175	167.42
783.357	28.16
783.538	89.6
783.72	-6.66
783.901	56.83
784.083	110.08
784.264	116.22
784.446	-37.38
784.627	7.68
784.809	73.21
784.99	42.5
785.172	157.18
785.353	75.26
785.535	159.23
785.716	13.82
785.897	-39.42
786.079	87.55
786.26	-33.28
786.441	130.56
786.623	-43.52
786.804	36.35
786.985	73.21
787.167	97.79
787.348	58.88
787.529	38.4
787.71	134.65
787.891	95.74
788.073	9.73
788.254	-96.77
788.435	177.66
788.616	77.31
788.797	11.78
788.978	19.97
789.159	22.02
789.34	128.51
789.522	-23.04
789.703	-18.94
789.884	126.46
790.065	62.98
790.246	200.19
790.427	75.26
790.607	103.93
790.788	155.13
790.969	-18.94
791.15	65.02
791.331	40.45
791.512	5.63
791.693	-6.66
791.874	67.07
792.054	237.05
792.235	60.93
792.416	-57.86
792.597	42.5
792.778	118.27
792.958	110.08
793.139	75.26
793.32	28.16
793.5	-10.75
793.681	202.24
793.862	62.98
794.042	79.36
794.223	-61.95
794.404	28.16
794.584	17.92
794.765	7.68
794.945	26.11
795.126	22.02
795.306	67.07
795.487	69.12
795.667	-61.95
795.848	44.54
796.028	30.21
796.209	97.79
796.389	83.45
796.57	62.98
796.75	-2.56
796.93	60.93
797.111	85.5
797.291	46.59
797.471	83.45
797.652	67.07
797.832	40.45
798.012	79.36
798.192	73.21
798.373	-45.57
798.553	67.07
798.733	79.36
798.913	-43.52
799.093	-0.51
799.274	-0.51
799.454	183.81
799.634	69.12
799.814	124.41
799.994	105.98
800.174	22.02
800.354	56.83
800.534	-72.19
800.714	65.02
800.894	11.78
801.074	-39.42
801.254	-49.66
801.434	95.74
801.614	1.54
801.794	1.54
801.974	2043.36
802.154	-35.33
802.334	73.21
802.514	-27.14
802.693	-31.23
802.873	22.02
803.053	138.75
803.233	138.75
803.413	114.17
803.592	-49.66
803.772	-39.42
803.952	163.33
804.131	-18.94
804.311	44.54
804.491	89.6
804.67	-31.23
804.85	9.73
805.03	30.21
805.209	151.04
805.389	13.82
805.568	32.26
805.748	28.16
805.928	46.59
806.107	89.6
806.287	73.21
806.466	77.31
806.646	34.3
806.825	67.07
807.004	36.35
807.184	1.54
807.363	54.78
807.543	58.88
807.722	-25.09
807.901	122.37
808.081	-10.75
808.26	-76.29
808.439	54.78
808.619	9.73
808.798	1.54
808.977	36.35
809.156	81.41
809.336	-20.99
809.515	105.98
809.694	17.92
809.873	42.5
810.052	56.83
810.231	95.74
810.411	87.55
810.59	120.32
810.769	67.07
810.948	50.69
811.127	-115.2
811.306	38.4
811.485	-16.9
811.664	142.85
811.843	3.58
812.022	22.02
812.201	50.69
812.38	-0.51
812.559	-31.23
812.737	44.54
812.916	-55.81
813.095	9.73
813.274	52.74
813.453	65.02
813.632	42.5
813.811	28.16
813.989	-86.53
814.168	54.78
814.347	-35.33
814.526	77.31
814.704	124.41
814.883	124.41
815.062	-66.05
815.24	77.31
815.419	-43.52
815.598	60.93
815.776	-55.81
815.955	22.02
816.133	-64
816.312	52.74
816.49	-43.52
816.669	30.21
816.847	-49.66
817.026	71.17
817.204	-35.33
817.383	-51.71
817.561	7.68
817.74	95.74
817.918	161.28
818.097	-43.52
818.275	-6.66
818.453	24.06
818.632	-25.09
818.81	83.45
818.988	-47.62
819.167	-20.99
819.345	13.82
819.523	9.73
819.701	40.45
819.879	38.4
820.058	79.36
820.236	69.12
820.414	30.21
820.592	-6.66
820.77	5.63
820.948	19.97
821.127	-82.43
821.305	32.26
821.483	-45.57
821.661	11.78
821.839	19.97
822.017	9.73
822.195	-18.94
822.373	58.88
822.551	65.02
822.729	132.61
822.907	28.16
823.085	93.69
823.262	7.68
823.44	-55.81
823.618	3.58
823.796	-12.8
823.974	-4.61
824.152	-76.29
824.329	-61.95
824.507	11.78
824.685	71.17
824.863	42.5
825.04	3.58
825.218	58.88
825.396	34.3
825.574	42.5
825.751	40.45
825.929	17.92
826.107	36.35
826.284	38.4
826.462	114.17
826.639	24.06
826.817	-64
826.994	36.35
827.172	1.54
827.349	128.51
827.527	50.69
827.704	-16.9
827.882	93.69
828.059	17.92
828.237	5.63
828.414	71.17
828.591	-102.91
828.769	-12.8
828.946	-49.66
829.124	95.74
829.301	103.93
829.478	7.68
829.655	112.13
829.833	-12.8
830.01	-66.05
830.187	192
830.364	34.3
830.542	1.54
830.719	132.61
830.896	60.93
831.073	95.74
831.25	48.64
831.427	52.74
831.604	30.21
831.782	-70.14
831.959	89.6
832.136	46.59
832.313	5.63
832.49	13.82
832.667	11.78
832.844	-12.8
833.021	85.5
833.198	93.69
833.374	-23.04
833.551	17.92
833.728	32.26
833.905	26.11
834.082	-137.73
834.259	7.68
834.436	65.02
834.612	-35.33
834.789	155.13
834.966	5.63
835.143	-25.09
835.319	-123.39
835.496	54.78
835.673	3.58
835.85	81.41
836.026	-25.09
836.203	19.97
836.38	-59.9
836.556	1.54
836.733	-31.23
836.909	179.71
837.086	1.54
837.262	-107.01
837.439	58.88
837.616	-53.76
837.792	7.68
837.968	85.5
838.145	-78.33
838.321	32.26
838.498	3.58
838.674	58.88
838.851	5.63
839.027	-25.09
839.203	87.55
839.38	89.6
839.556	-145.92
839.732	38.4
839.909	19.97
840.085	28.16
840.261	9.73
840.437	7.68
840.614	-0.51
840.79	69.12
840.966	22.02
841.142	71.17
841.318	7.68
841.494	3.58
841.671	60.93
841.847	65.02
842.023	-96.77
842.199	105.98
842.375	67.07
842.551	-109.05
842.727	-64
842.903	159.23
843.079	-33.28
843.255	163.33
843.431	17.92
843.607	95.74
843.783	-125.44
843.959	48.64
844.134	-4.61
844.31	122.37
844.486	-14.85
844.662	38.4
844.838	-72.19
845.013	40.45
845.189	54.78
845.365	30.21
845.541	-61.95
845.716	-4.61
845.892	87.55
846.068	-4.61
846.244	-61.95
846.419	69.12
846.595	-64
846.77	-137.73
846.946	32.26
847.122	-0.51
847.297	5.63
847.473	136.7
847.648	-104.96
847.824	7.68
847.999	-61.95
848.175	-37.38
848.35	112.13
848.526	130.56
848.701	58.88
848.876	15.87
849.052	114.17
849.227	52.74
849.403	-14.85
849.578	-55.81
849.753	97.79
849.929	5.63
850.104	-47.62
850.279	40.45
850.454	30.21
850.63	114.17
850.805	7.68
850.98	-8.7
851.155	56.83
851.33	69.12
851.505	-12.8
851.681	148.99
851.856	-4.61
852.031	44.54
852.206	9.73
852.381	-92.67
852.556	-12.8
852.731	46.59
852.906	60.93
853.081	71.17
853.256	140.8
853.431	-29.18
853.606	-27.14
853.781	-33.28
853.956	-78.33
854.131	83.45
854.305	-0.51
854.48	-23.04
854.655	9.73
854.83	-23.04
855.005	-18.94
855.18	52.74
855.354	-23.04
855.529	7.68
855.704	24.06
855.879	97.79
856.053	-25.09
856.228	7.68
856.403	-16.9
856.577	22.02
856.752	-102.91
856.926	-16.9
857.101	73.21
857.276	-49.66
857.45	38.4
857.625	73.21
857.799	44.54
857.974	17.92
858.148	-119.29
858.323	67.07
858.497	-68.09
858.672	-6.66
858.846	-94.72
859.02	73.21
859.195	-88.57
859.369	36.35
859.543	40.45
859.718	48.64
859.892	-12.8
860.066	81.41
860.241	-20.99
860.415	-25.09
860.589	60.93
860.763	42.5
860.938	36.35
861.112	54.78
861.286	26.11
861.46	22.02
861.634	-37.38
861.808	122.37
861.982	-31.23
862.157	-57.86
862.331	46.59
862.505	-33.28
862.679	-64
862.853	-49.66
863.027	48.64
863.201	148.99
863.375	-64
863.549	77.31
863.722	50.69
863.896	54.78
864.07	15.87
864.244	-8.7
864.418	28.16
864.592	44.54
864.766	-2.56
864.939	34.3
865.113	-53.76
865.287	108.03
865.461	-115.2
865.634	-39.42
865.808	-6.66
865.982	-16.9
866.156	-74.24
866.329	-55.81
866.503	19.97
866.676	128.51
866.85	62.98
867.024	-57.86
867.197	110.08
867.371	-41.47
867.544	1.54
867.718	-76.29
867.891	81.41
868.065	-61.95
868.238	-10.75
868.412	155.13
868.585	52.74
868.759	44.54
868.932	-33.28
869.105	-100.86
869.279	44.54
869.452	-41.47
869.625	50.69
869.799	19.97
869.972	-109.05
870.145	-64
870.319	-8.7
870.492	-8.7
870.665	11.78
870.838	-49.66
871.011	-12.8
871.185	-18.94
871.358	1.54
871.531	-0.51
871.704	-18.94
871.877	75.26
872.05	5.63
872.223	-88.57
872.396	60.93
872.569	71.17
872.742	-59.9
872.915	42.5
873.088	-47.62
873.261	-43.52
873.434	19.97
873.607	-39.42
873.78	71.17
873.953	-37.38
874.126	-23.04
874.299	89.6
874.471	34.3
874.644	-31.23
874.817	52.74
874.99	114.17
875.163	-98.81
875.335	22.02
875.508	-18.94
875.681	62.98
875.853	-27.14
876.026	-0.51
876.199	22.02
876.371	40.45
876.544	9.73
876.717	36.35
876.889	-2.56
877.062	58.88
877.234	11.78
877.407	-18.94
877.579	-41.47
877.752	-2.56
877.924	153.09
878.097	-29.18
878.269	42.5
878.442	-2.56
878.614	-16.9
878.786	-14.85
878.959	40.45
879.131	44.54
879.303	-111.1
879.476	-41.47
879.648	69.12
879.82	19.97
879.993	34.3
880.165	7.68
880.337	-92.67
880.509	34.3
880.681	-29.18
880.854	-98.81
881.026	132.61
881.198	196.09
881.37	-6.66
881.542	-16.9
881.714	3.58
881.886	-35.33
882.058	-8.7
882.23	52.74
882.402	11.78
882.574	79.36
882.746	99.84
882.918	62.98
883.09	108.03
883.262	-8.7
883.434	54.78
883.606	-123.39
883.778	-72.19
883.95	65.02
884.122	-18.94
884.293	28.16
884.465	-82.43
884.637	105.98
884.809	-20.99
884.98	38.4
885.152	116.22
885.324	46.59
885.496	-53.76
885.667	44.54
885.839	81.41
886.011	56.83
886.182	-25.09
886.354	17.92
886.525	50.69
886.697	19.97
886.869	-59.9
887.04	-47.62
887.212	157.18
887.383	142.85
887.555	105.98
887.726	-37.38
887.897	-74.24
888.069	56.83
888.24	69.12
888.412	15.87
888.583	7.68
888.754	24.06
888.926	-72.19
889.097	9.73
889.268	-139.77
889.44	32.26
889.611	-18.94
889.782	-47.62
889.953	-0.51
890.125	194.05
890.296	-59.9
890.467	7.68
890.638	-43.52
890.809	-6.66
890.98	-66.05
891.151	-12.8
891.323	103.93
891.494	3.58
891.665	-78.33
891.836	40.45
892.007	48.64
892.178	30.21
892.349	46.59
892.52	36.35
892.691	-16.9
892.862	-53.76
893.032	-64
893.203	7.68
893.374	17.92
893.545	124.41
893.716	11.78
893.887	11.78
894.057	-102.91
894.228	-47.62
894.399	-20.99
894.57	52.74
894.74	-8.7
894.911	-4.61
895.082	9.73
895.253	-66.05
895.423	24.06
895.594	79.36
895.764	-16.9
895.935	-18.94
896.106	83.45
896.276	-8.7
896.447	-18.94
896.617	-25.09
896.788	-135.68
896.958	5.63
897.129	-2.56
897.299	-78.33
897.47	50.69
897.64	56.83
897.81	-80.38
897.981	-33.28
898.151	-102.91
898.322	54.78
898.492	-18.94
898.662	-68.09
898.832	-107.01
899.003	-12.8
899.173	42.5
899.343	11.78
899.513	-39.42
