Data from USB4F104151__11__11-24-22-108.txt Node

Date: Wed Feb 26 11:24:22 EST 2025
User: louis
Spectrometer: USB4F10415
Trigger mode: 4
Integration Time (sec): 1.000000E-1
Scans to average: 1
Electric dark correction enabled: true
Nonlinearity correction enabled: false
Boxcar width: 0
XAxis mode: Wavelengths
Number of Pixels in Spectrum: 3648
>>>>>Begin Spectral Data<<<<<
178.204	-389.46
178.424	-389.46
178.644	-389.46
178.864	-387.41
179.084	-446.8
179.304	44.71
179.524	-31.06
179.744	32.43
179.964	57
180.184	28.33
180.404	13.99
180.624	-84.31
180.844	-31.06
181.064	-65.88
181.283	40.62
181.503	-63.83
181.723	59.05
181.943	-98.64
182.163	229.03
182.383	3.75
182.602	-88.4
182.822	46.76
183.042	-16.73
183.262	11.95
183.482	42.67
183.701	83.63
183.921	9.9
184.141	-84.31
184.361	34.47
184.58	13.99
184.8	13.99
185.02	-8.53
185.239	40.62
185.459	-0.34
185.679	81.58
185.898	-135.51
186.118	36.52
186.338	-0.34
186.557	48.81
186.777	-65.88
186.997	-47.44
187.216	-96.6
187.436	171.69
187.655	34.47
187.875	44.71
188.095	-65.88
188.314	83.63
188.534	161.45
188.753	-74.07
188.973	44.71
189.192	114.34
189.412	71.34
189.631	-31.06
189.851	20.14
190.07	153.26
190.29	-88.4
190.509	-4.44
190.729	7.85
190.948	71.34
191.168	251.56
191.387	85.67
191.607	-6.49
191.826	83.63
192.045	-16.73
192.265	40.62
192.484	59.05
192.704	26.28
192.923	-88.4
193.142	177.83
193.362	100.01
193.581	95.91
193.8	97.96
194.02	114.34
194.239	32.43
194.458	63.15
194.678	-59.73
194.897	-49.49
195.116	28.33
195.335	32.43
195.555	24.23
195.774	28.33
195.993	57
196.212	5.8
196.432	-47.44
196.651	-24.92
196.87	3.75
197.089	208.55
197.308	28.33
197.528	54.95
197.747	-0.34
197.966	30.38
198.185	71.34
198.404	-47.44
198.623	93.87
198.842	106.15
199.062	102.06
199.281	36.52
199.5	69.29
199.719	59.05
199.938	50.86
200.157	7.85
200.376	167.59
200.595	46.76
200.814	-33.11
201.033	-35.16
201.252	151.21
201.471	138.92
201.69	61.1
201.909	34.47
202.128	97.96
202.347	44.71
202.566	13.99
202.785	-37.2
203.004	-35.16
203.223	278.18
203.442	-72.02
203.661	-43.35
203.879	57
204.098	138.92
204.317	-94.55
204.536	65.19
204.755	87.72
204.974	122.54
205.193	-2.39
205.411	132.78
205.63	26.28
205.849	85.67
206.068	16.04
206.287	-49.49
206.505	77.48
206.724	44.71
206.943	-31.06
207.162	20.14
207.381	44.71
207.599	-18.77
207.818	18.09
208.037	-63.83
208.255	26.28
208.474	69.29
208.693	-0.34
208.911	-29.01
209.13	24.23
209.349	57
209.567	46.76
209.786	65.19
210.005	100.01
210.223	-35.16
210.442	-72.02
210.661	9.9
210.879	44.71
211.098	44.71
211.316	11.95
211.535	81.58
211.753	130.73
211.972	108.2
212.191	11.95
212.409	-24.92
212.628	54.95
212.846	24.23
213.065	9.9
213.283	130.73
213.502	-22.87
213.72	40.62
213.938	44.71
214.157	44.71
214.375	-4.44
214.594	-18.77
214.812	67.24
215.031	24.23
215.249	79.53
215.467	5.8
215.686	-6.49
215.904	-49.49
216.122	28.33
216.341	183.98
216.559	26.28
216.778	132.78
216.996	126.63
217.214	32.43
217.432	16.04
217.651	-80.21
217.869	24.23
218.087	40.62
218.306	-37.2
218.524	30.38
218.742	36.52
218.96	81.58
219.179	-80.21
219.397	36.52
219.615	235.18
219.833	85.67
220.051	-33.11
220.27	89.77
220.488	136.87
220.706	48.81
220.924	-29.01
221.142	-41.3
221.36	28.33
221.578	106.15
221.796	-65.88
222.015	46.76
222.233	93.87
222.451	120.49
222.669	3.75
222.887	-2.39
223.105	-55.64
223.323	57
223.541	-125.27
223.759	-14.68
223.977	44.71
224.195	149.16
224.413	24.23
224.631	61.1
224.849	44.71
225.067	212.65
225.285	-2.39
225.503	-74.07
225.721	-123.22
225.939	11.95
226.157	26.28
226.375	249.51
226.592	-37.2
226.81	-55.64
227.028	57
227.246	108.2
227.464	-14.68
227.682	134.82
227.9	134.82
228.117	16.04
228.335	32.43
228.553	44.71
228.771	28.33
228.989	-0.34
229.206	100.01
229.424	63.15
229.642	-12.63
229.86	-78.16
230.077	153.26
230.295	59.05
230.513	13.99
230.731	59.05
230.948	173.74
231.166	163.5
231.384	-16.73
231.601	-51.54
231.819	235.18
232.037	34.47
232.254	36.52
232.472	20.14
232.689	100.01
232.907	54.95
233.125	1.71
233.342	-18.77
233.56	-65.88
233.777	26.28
233.995	-16.73
234.213	30.38
234.43	169.64
234.648	7.85
234.865	-35.16
235.083	79.53
235.3	46.76
235.518	-20.82
235.735	59.05
235.953	116.39
236.17	48.81
236.388	-8.53
236.605	48.81
236.822	71.34
237.04	97.96
237.257	9.9
237.475	-31.06
237.692	73.39
237.909	106.15
238.127	65.19
238.344	26.28
238.562	69.29
238.779	-14.68
238.996	-76.12
239.214	48.81
239.431	116.39
239.648	13.99
239.865	126.63
240.083	52.91
240.3	13.99
240.517	28.33
240.735	11.95
240.952	104.11
241.169	38.57
241.386	42.67
241.603	24.23
241.821	-14.68
242.038	69.29
242.255	143.02
242.472	-74.07
242.689	20.14
242.907	52.91
243.124	3.75
243.341	7.85
243.558	-67.92
243.775	-59.73
243.992	-65.88
244.209	50.86
244.426	145.06
244.643	147.11
244.86	-12.63
245.078	77.48
245.295	44.71
245.512	69.29
245.729	-33.11
245.946	118.44
246.163	79.53
246.38	-24.92
246.597	16.04
246.814	-41.3
247.031	-29.01
247.248	75.43
247.464	11.95
247.681	67.24
247.898	42.67
248.115	81.58
248.332	3.75
248.549	145.06
248.766	157.35
248.983	36.52
249.2	11.95
249.417	136.87
249.633	-12.63
249.85	75.43
250.067	20.14
250.284	-49.49
250.501	65.19
250.717	65.19
250.934	-65.88
251.151	-8.53
251.368	-59.73
251.585	26.28
251.801	9.9
252.018	7.85
252.235	128.68
252.451	-115.03
252.668	-53.59
252.885	100.01
253.102	9.9
253.318	-37.2
253.535	-41.3
253.752	34.47
253.968	-16.73
254.185	-184.66
254.401	22.19
254.618	54.95
254.835	34.47
255.051	179.88
255.268	48.81
255.484	48.81
255.701	79.53
255.917	54.95
256.134	-57.68
256.351	30.38
256.567	-86.36
256.784	11.95
257	-104.79
257.217	79.53
257.433	122.54
257.65	38.57
257.866	120.49
258.082	-63.83
258.299	-47.44
258.515	69.29
258.732	28.33
258.948	-72.02
259.165	79.53
259.381	-49.49
259.597	73.39
259.814	11.95
260.03	-14.68
260.246	22.19
260.463	114.34
260.679	122.54
260.895	79.53
261.112	65.19
261.328	20.14
261.544	-59.73
261.761	79.53
261.977	-80.21
262.193	-49.49
262.409	95.91
262.626	108.2
262.842	5.8
263.058	20.14
263.274	97.96
263.49	48.81
263.707	46.76
263.923	124.58
264.139	-108.88
264.355	22.19
264.571	61.1
264.787	13.99
265.004	97.96
265.22	65.19
265.436	42.67
265.652	26.28
265.868	40.62
266.084	-31.06
266.3	54.95
266.516	-63.83
266.732	100.01
266.948	-14.68
267.164	-31.06
267.38	102.06
267.596	69.29
267.812	206.5
268.028	28.33
268.244	59.05
268.46	26.28
268.676	100.01
268.892	30.38
269.108	26.28
269.324	-49.49
269.54	-51.54
269.756	38.57
269.972	-106.84
270.188	-41.3
270.403	-53.59
270.619	-59.73
270.835	128.68
271.051	46.76
271.267	-37.2
271.483	38.57
271.698	20.14
271.914	7.85
272.13	63.15
272.346	-35.16
272.562	30.38
272.777	118.44
272.993	-0.34
273.209	22.19
273.425	112.3
273.64	-33.11
273.856	13.99
274.072	-67.92
274.287	-12.63
274.503	13.99
274.719	54.95
274.934	48.81
275.15	-63.83
275.366	-29.01
275.581	-92.5
275.797	46.76
276.012	112.3
276.228	-33.11
276.444	42.67
276.659	151.21
276.875	-61.78
277.09	-0.34
277.306	-37.2
277.521	69.29
277.737	83.63
277.952	81.58
278.168	48.81
278.383	85.67
278.599	46.76
278.814	100.01
279.03	32.43
279.245	77.48
279.461	-20.82
279.676	89.77
279.892	11.95
280.107	-45.4
280.322	-33.11
280.538	81.58
280.753	-8.53
280.969	-37.2
281.184	16.04
281.399	81.58
281.615	108.2
281.83	73.39
282.045	5.8
282.26	-24.92
282.476	52.91
282.691	30.38
282.906	11.95
283.122	24.23
283.337	13.99
283.552	69.29
283.767	7.85
283.983	71.34
284.198	-43.35
284.413	114.34
284.628	-112.98
284.843	116.39
285.058	22.19
285.274	-10.58
285.489	-33.11
285.704	83.63
285.919	-0.34
286.134	48.81
286.349	32.43
286.564	-8.53
286.779	87.72
286.995	-31.06
287.21	7.85
287.425	97.96
287.64	-76.12
287.855	100.01
288.07	-39.25
288.285	116.39
288.5	140.97
288.715	100.01
288.93	124.58
289.145	-55.64
289.36	93.87
289.575	13.99
289.79	161.45
290.004	-41.3
290.219	67.24
290.434	-29.01
290.649	-112.98
290.864	57
291.079	89.77
291.294	50.86
291.509	-55.64
291.724	77.48
291.938	16.04
292.153	75.43
292.368	16.04
292.583	46.76
292.798	97.96
293.012	-49.49
293.227	73.39
293.442	30.38
293.657	75.43
293.871	159.4
294.086	18.09
294.301	165.54
294.516	79.53
294.73	38.57
294.945	-35.16
295.16	-0.34
295.374	104.11
295.589	169.64
295.804	-51.54
296.018	-24.92
296.233	126.63
296.447	46.76
296.662	-24.92
296.877	181.93
297.091	71.34
297.306	-4.44
297.52	-18.77
297.735	67.24
297.949	-10.58
298.164	69.29
298.378	87.72
298.593	-82.26
298.807	-53.59
299.022	24.23
299.236	106.15
299.451	-4.44
299.665	-14.68
299.88	-8.53
300.094	-0.34
300.309	11.95
300.523	48.81
300.737	7.85
300.952	87.72
301.166	153.26
301.381	-41.3
301.595	-67.92
301.809	97.96
302.024	-41.3
302.238	-26.96
302.452	46.76
302.667	16.04
302.881	124.58
303.095	-4.44
303.309	122.54
303.524	-12.63
303.738	26.28
303.952	52.91
304.166	83.63
304.381	-100.69
304.595	126.63
304.809	38.57
305.023	-8.53
305.237	-51.54
305.452	91.82
305.666	134.82
305.88	81.58
306.094	89.77
306.308	83.63
306.522	65.19
306.736	52.91
306.95	83.63
307.164	-65.88
307.379	5.8
307.593	126.63
307.807	71.34
308.021	102.06
308.235	93.87
308.449	-78.16
308.663	61.1
308.877	147.11
309.091	7.85
309.305	52.91
309.519	-86.36
309.733	63.15
309.947	-92.5
310.161	93.87
310.374	97.96
310.588	69.29
310.802	-12.63
311.016	-49.49
311.23	26.28
311.444	-135.51
311.658	1.71
311.872	136.87
312.085	89.77
312.299	65.19
312.513	77.48
312.727	16.04
312.941	46.76
313.154	-26.96
313.368	46.76
313.582	-51.54
313.796	-20.82
314.009	83.63
314.223	71.34
314.437	48.81
314.651	126.63
314.864	-33.11
315.078	-94.55
315.292	-35.16
315.505	-10.58
315.719	114.34
315.933	-41.3
316.146	1.71
316.36	-72.02
316.573	52.91
316.787	95.91
317.001	120.49
317.214	-63.83
317.428	1.71
317.641	-45.4
317.855	-51.54
318.068	26.28
318.282	7.85
318.495	153.26
318.709	5.8
318.922	28.33
319.136	63.15
319.349	81.58
319.563	-51.54
319.776	61.1
319.99	-90.45
320.203	89.77
320.417	-2.39
320.63	106.15
320.843	118.44
321.057	46.76
321.27	-53.59
321.483	65.19
321.697	147.11
321.91	20.14
322.124	-0.34
322.337	36.52
322.55	-4.44
322.763	-12.63
322.977	-31.06
323.19	-8.53
323.403	-24.92
323.617	48.81
323.83	81.58
324.043	9.9
324.256	73.39
324.469	-26.96
324.683	57
324.896	18.09
325.109	-47.44
325.322	-82.26
325.535	157.35
325.748	87.72
325.962	54.95
326.175	11.95
326.388	95.91
326.601	81.58
326.814	18.09
327.027	5.8
327.24	175.78
327.453	-88.4
327.666	7.85
327.879	116.39
328.092	32.43
328.305	28.33
328.518	-45.4
328.731	9.9
328.944	16.04
329.157	81.58
329.37	79.53
329.583	100.01
329.796	132.78
330.009	16.04
330.222	-2.39
330.435	75.43
330.648	38.57
330.861	42.67
331.073	28.33
331.286	126.63
331.499	48.81
331.712	-41.3
331.925	-43.35
332.138	59.05
332.35	75.43
332.563	-16.73
332.776	175.78
332.989	-57.68
333.202	-37.2
333.414	26.28
333.627	-20.82
333.84	-82.26
334.053	-51.54
334.265	57
334.478	3.75
334.691	5.8
334.903	34.47
335.116	-41.3
335.329	22.19
335.541	42.67
335.754	157.35
335.966	-33.11
336.179	5.8
336.392	-12.63
336.604	44.71
336.817	100.01
337.029	16.04
337.242	-55.64
337.454	118.44
337.667	-4.44
337.88	81.58
338.092	-6.49
338.305	11.95
338.517	-18.77
338.729	91.82
338.942	93.87
339.154	-10.58
339.367	-92.5
339.579	69.29
339.792	-63.83
340.004	42.67
340.217	36.52
340.429	40.62
340.641	-4.44
340.854	-139.6
341.066	42.67
341.278	112.3
341.491	157.35
341.703	102.06
341.915	5.8
342.128	102.06
342.34	-39.25
342.552	-151.89
342.764	71.34
342.977	-37.2
343.189	61.1
343.401	3.75
343.613	-47.44
343.826	91.82
344.038	-20.82
344.25	69.29
344.462	-8.53
344.674	7.85
344.886	11.95
345.099	89.77
345.311	110.25
345.523	93.87
345.735	-72.02
345.947	-0.34
346.159	34.47
346.371	95.91
346.583	-33.11
346.795	108.2
347.007	32.43
347.219	122.54
347.431	-41.3
347.643	153.26
347.855	52.91
348.067	106.15
348.279	-24.92
348.491	59.05
348.703	112.3
348.915	-63.83
349.127	18.09
349.339	85.67
349.551	13.99
349.763	71.34
349.975	5.8
350.187	71.34
350.399	73.39
350.61	52.91
350.822	-2.39
351.034	9.9
351.246	81.58
351.458	5.8
351.669	1.71
351.881	114.34
352.093	77.48
352.305	52.91
352.517	26.28
352.728	136.87
352.94	40.62
353.152	73.39
353.363	-41.3
353.575	46.76
353.787	102.06
353.999	22.19
354.21	171.69
354.422	-24.92
354.633	-6.49
354.845	30.38
355.057	-37.2
355.268	48.81
355.48	110.25
355.692	-82.26
355.903	-20.82
356.115	-20.82
356.326	-123.22
356.538	93.87
356.749	91.82
356.961	194.22
357.172	7.85
357.384	-20.82
357.595	229.03
357.807	-14.68
358.018	26.28
358.23	54.95
358.441	171.69
358.653	147.11
358.864	16.04
359.075	-49.49
359.287	18.09
359.498	61.1
359.709	108.2
359.921	69.29
360.132	42.67
360.344	91.82
360.555	38.57
360.766	44.71
360.977	40.62
361.189	93.87
361.4	24.23
361.611	124.58
361.823	118.44
362.034	59.05
362.245	-80.21
362.456	26.28
362.667	126.63
362.879	-57.68
363.09	46.76
363.301	63.15
363.512	59.05
363.723	3.75
363.935	1.71
364.146	44.71
364.357	24.23
364.568	69.29
364.779	-108.88
364.99	63.15
365.201	-6.49
365.412	36.52
365.623	-61.78
365.834	57
366.045	138.92
366.256	85.67
366.467	149.16
366.678	-18.77
366.889	20.14
367.1	-49.49
367.311	40.62
367.522	-39.25
367.733	3.75
367.944	122.54
368.155	-12.63
368.366	87.72
368.577	167.59
368.788	61.1
368.999	-65.88
369.209	7.85
369.42	173.74
369.631	231.08
369.842	48.81
370.053	-12.63
370.264	36.52
370.474	-51.54
370.685	54.95
370.896	38.57
371.107	134.82
371.317	13.99
371.528	-8.53
371.739	95.91
371.95	9.9
372.16	100.01
372.371	-55.64
372.582	-43.35
372.792	54.95
373.003	79.53
373.214	3.75
373.424	36.52
373.635	-2.39
373.846	97.96
374.056	-33.11
374.267	42.67
374.477	73.39
374.688	-39.25
374.898	91.82
375.109	34.47
375.319	7.85
375.53	46.76
375.74	85.67
375.951	9.9
376.161	40.62
376.372	59.05
376.582	-16.73
376.793	9.9
377.003	-37.2
377.214	-18.77
377.424	93.87
377.635	110.25
377.845	-119.12
378.055	192.17
378.266	-84.31
378.476	30.38
378.686	1.71
378.897	38.57
379.107	83.63
379.317	108.2
379.528	13.99
379.738	54.95
379.948	-37.2
380.158	97.96
380.369	46.76
380.579	48.81
380.789	18.09
380.999	122.54
381.21	77.48
381.42	188.07
381.63	-22.87
381.84	57
382.05	22.19
382.261	140.97
382.471	106.15
382.681	28.33
382.891	198.31
383.101	67.24
383.311	1.71
383.521	-57.68
383.731	57
383.941	120.49
384.151	28.33
384.361	-12.63
384.571	-8.53
384.781	87.72
384.991	200.36
385.201	140.97
385.411	85.67
385.621	63.15
385.831	52.91
386.041	67.24
386.251	22.19
386.461	97.96
386.671	50.86
386.881	-12.63
387.091	3.75
387.301	149.16
387.511	22.19
387.72	57
387.93	71.34
388.14	-35.16
388.35	32.43
388.56	106.15
388.769	149.16
388.979	22.19
389.189	-45.4
389.399	26.28
389.609	1.71
389.818	73.39
390.028	106.15
390.238	46.76
390.447	-43.35
390.657	100.01
390.867	40.62
391.076	-24.92
391.286	22.19
391.496	30.38
391.705	85.67
391.915	190.12
392.125	124.58
392.334	-72.02
392.544	257.7
392.753	-16.73
392.963	24.23
393.172	54.95
393.382	-59.73
393.591	210.6
393.801	-20.82
394.01	153.26
394.22	97.96
394.429	-26.96
394.639	28.33
394.848	48.81
395.058	-8.53
395.267	42.67
395.477	100.01
395.686	91.82
395.895	194.22
396.105	149.16
396.314	65.19
396.524	24.23
396.733	34.47
396.942	118.44
397.152	83.63
397.361	138.92
397.57	32.43
397.78	38.57
397.989	48.81
398.198	159.4
398.407	9.9
398.617	-35.16
398.826	63.15
399.035	89.77
399.244	34.47
399.453	22.19
399.663	-16.73
399.872	63.15
400.081	-59.73
400.29	183.98
400.499	-8.53
400.708	110.25
400.917	1.71
401.127	-8.53
401.336	20.14
401.545	87.72
401.754	3.75
401.963	77.48
402.172	-4.44
402.381	-8.53
402.59	-14.68
402.799	-65.88
403.008	140.97
403.217	65.19
403.426	71.34
403.635	-96.6
403.844	77.48
404.053	67.24
404.262	-24.92
404.471	190.12
404.68	13.99
404.888	122.54
405.097	-16.73
405.306	52.91
405.515	71.34
405.724	9.9
405.933	67.24
406.142	114.34
406.35	102.06
406.559	-41.3
406.768	20.14
406.977	110.25
407.185	-37.2
407.394	61.1
407.603	-35.16
407.812	112.3
408.02	104.11
408.229	77.48
408.438	-14.68
408.646	-2.39
408.855	28.33
409.064	-12.63
409.272	-43.35
409.481	-12.63
409.69	16.04
409.898	-94.55
410.107	30.38
410.315	40.62
410.524	-26.96
410.733	61.1
410.941	7.85
411.15	75.43
411.358	104.11
411.567	140.97
411.775	69.29
411.984	26.28
412.192	48.81
412.401	11.95
412.609	122.54
412.818	153.26
413.026	91.82
413.234	63.15
413.443	3.75
413.651	-39.25
413.86	20.14
414.068	179.88
414.276	183.98
414.485	40.62
414.693	204.46
414.901	122.54
415.11	38.57
415.318	69.29
415.526	20.14
415.734	77.48
415.943	-0.34
416.151	63.15
416.359	87.72
416.567	40.62
416.776	120.49
416.984	110.25
417.192	175.78
417.4	11.95
417.608	-8.53
417.817	-35.16
418.025	102.06
418.233	40.62
418.441	22.19
418.649	16.04
418.857	-43.35
419.065	91.82
419.273	-0.34
419.481	-0.34
419.689	-29.01
419.897	-65.88
420.105	-49.49
420.313	93.87
420.521	128.68
420.729	52.91
420.937	9.9
421.145	77.48
421.353	108.2
421.561	114.34
421.769	40.62
421.977	-8.53
422.185	122.54
422.393	11.95
422.601	138.92
422.809	48.81
423.017	32.43
423.224	11.95
423.432	126.63
423.64	54.95
423.848	118.44
424.056	-37.2
424.263	89.77
424.471	-37.2
424.679	126.63
424.887	-26.96
425.094	157.35
425.302	77.48
425.51	26.28
425.718	95.91
425.925	73.39
426.133	63.15
426.341	188.07
426.548	77.48
426.756	-61.78
426.964	77.48
427.171	7.85
427.379	13.99
427.586	52.91
427.794	36.52
428.001	140.97
428.209	54.95
428.417	167.59
428.624	118.44
428.832	65.19
429.039	102.06
429.247	63.15
429.454	100.01
429.662	169.64
429.869	155.3
430.076	30.38
430.284	159.4
430.491	208.55
430.699	134.82
430.906	200.36
431.114	42.67
431.321	79.53
431.528	130.73
431.736	81.58
431.943	87.72
432.15	110.25
432.358	46.76
432.565	212.65
432.772	34.47
432.979	163.5
433.187	81.58
433.394	87.72
433.601	124.58
433.808	145.06
434.016	200.36
434.223	198.31
434.43	181.93
434.637	167.59
434.844	218.79
435.052	116.39
435.259	226.98
435.466	255.65
435.673	235.18
435.88	224.94
436.087	257.7
436.294	196.26
436.501	179.88
436.708	210.6
436.915	188.07
437.122	280.23
437.329	161.45
437.537	280.23
437.743	276.13
437.95	337.57
438.157	206.5
438.364	304.81
438.571	263.85
438.778	401.06
438.985	399.01
439.192	313
439.399	276.13
439.606	329.38
439.813	415.4
440.02	511.65
440.227	634.53
440.433	468.64
440.64	378.53
440.847	403.11
441.054	478.88
441.261	497.32
441.467	493.22
441.674	394.92
441.881	618.15
442.088	577.19
442.294	521.89
442.501	667.3
442.708	612
442.914	681.63
443.121	714.4
443.328	683.68
443.534	650.91
443.741	644.77
443.948	636.58
444.154	796.32
444.361	949.92
444.568	741.02
444.774	822.94
444.981	687.78
445.187	990.88
445.394	878.24
445.6	833.18
445.807	1070.75
446.013	888.48
446.22	994.97
446.426	1136.28
446.633	1113.75
446.839	1390.23
447.046	1154.71
447.252	1281.69
447.459	1185.43
447.665	1259.16
447.871	1412.76
448.078	1521.3
448.284	1474.2
448.491	1562.26
448.697	1523.35
448.903	1828.49
449.11	1670.8
449.316	1707.66
449.522	1808.02
449.728	2006.67
449.935	2111.11
450.141	2037.39
450.347	2076.3
450.553	2199.18
450.76	2211.46
450.966	2279.05
451.172	2418.31
451.378	2489.99
451.584	2629.25
451.791	2819.71
451.997	2657.92
452.203	2748.03
452.409	3006.08
452.615	2991.74
452.821	2948.73
453.027	3079.8
453.233	3554.93
453.44	3464.82
453.646	3497.59
453.852	3741.3
454.058	3829.36
454.264	3942
454.47	4202.09
454.676	4214.38
454.882	4593.25
455.088	4324.97
455.294	4632.16
455.5	4722.27
455.705	5191.26
455.911	5150.3
456.117	5535.32
456.323	5531.22
456.529	5621.33
456.735	5983.82
456.941	6112.85
457.147	6438.47
457.352	6583.88
457.558	6878.79
457.764	7360.06
457.97	7478.84
458.176	7632.44
458.381	8076.85
458.587	8185.39
458.793	8623.66
458.999	8642.09
459.204	9862.68
459.41	10133.01
459.616	9815.57
459.821	10599.94
460.027	10812.93
460.233	11582.97
460.438	11177.47
460.644	11906.55
460.85	12275.18
461.055	12711.4
461.261	13422.05
461.466	13022.69
461.672	13276.64
461.878	15011.27
462.083	14542.28
462.289	14968.26
462.494	15492.54
462.7	15812.03
462.905	16010.68
463.111	17180.07
463.316	18195.86
463.522	18566.54
463.727	19051.91
463.932	19676.54
464.138	20274.55
464.343	21200.23
464.549	21226.85
464.754	22834.51
464.959	23422.28
465.165	24028.48
465.37	23698.75
465.575	23754.05
465.781	25222.44
465.986	25996.57
466.191	25687.33
466.397	25908.51
466.602	25249.07
466.807	26619.16
467.012	26918.16
467.218	27604.23
467.423	28153.09
467.628	28441.85
467.833	29641.96
468.038	29304.04
468.244	28402.94
468.449	30457.05
468.654	29770.98
468.859	29482.22
469.064	29766.88
469.269	28910.83
469.474	29795.56
469.679	29902.05
469.885	29156.59
470.09	29648.1
470.295	29592.81
470.5	29037.81
470.705	28978.42
470.91	28658.93
471.115	28189.95
471.32	28728.56
471.525	28398.84
471.73	27383.05
471.935	27596.04
472.139	26502.42
472.344	26594.58
472.549	26256.67
472.754	25857.31
472.959	25144.62
473.164	24792.37
473.369	24073.53
473.574	24601.91
473.778	24075.58
473.983	23760.19
474.188	23555.4
474.393	22187.35
474.598	22060.38
474.802	21806.43
475.007	21534.05
475.212	21228.9
475.417	20393.33
475.621	19996.03
475.826	20094.33
476.031	19295.62
476.235	18937.23
476.44	19002.76
476.645	18668.94
476.849	18519.44
477.054	18042.26
477.259	17520.03
477.463	17517.98
477.668	17010.09
477.872	17417.63
478.077	16809.39
478.282	16133.56
478.486	16063.93
478.691	15543.74
478.895	15736.25
479.1	15615.42
479.304	15273.41
479.509	15041.99
479.713	15252.93
479.918	14826.95
480.122	14491.09
480.326	14677.45
480.531	14822.86
480.735	14486.99
480.94	14003.67
481.144	14396.88
481.348	13872.6
481.553	14134.74
481.757	13323.74
481.961	13637.08
482.166	13825.5
482.37	13407.71
482.574	13129.19
482.778	13381.09
482.983	13374.94
483.187	12989.92
483.391	13168.1
483.595	12766.7
483.8	12797.42
484.004	12649.96
484.208	12748.26
484.412	12455.4
484.616	12404.21
484.821	12207.6
485.025	11980.28
485.229	11984.37
485.433	11529.72
485.637	11722.23
485.841	11417.08
486.045	11441.66
486.249	11226.62
486.453	11027.97
486.657	10757.64
486.861	10833.41
487.065	10413.58
487.269	10372.62
487.473	9889.3
487.677	10034.71
487.881	10274.32
488.085	9643.54
488.289	9496.09
488.493	9391.64
488.697	9332.25
488.901	9109.02
489.105	8977.95
489.309	8736.29
489.512	8750.63
489.716	8447.53
489.92	8398.38
490.124	8349.23
490.328	8394.28
490.531	7867.95
490.735	7945.78
490.939	7505.46
491.143	7378.49
491.346	7247.42
491.55	7134.78
491.754	7089.73
491.958	6925.89
492.161	6764.1
492.365	6661.7
492.569	6608.45
492.772	6547.01
492.976	6438.47
493.18	6395.47
493.383	6389.32
493.587	6291.02
493.79	6235.72
493.994	5934.67
494.197	5887.57
494.401	5850.71
494.605	5725.78
494.808	5787.22
495.012	5760.59
495.215	5799.51
495.419	5639.76
495.622	5561.94
495.825	5502.55
496.029	5508.69
496.232	5471.83
496.436	5402.2
496.639	5590.61
496.843	5461.59
497.046	5463.64
497.249	5453.4
497.453	5336.67
497.656	5318.23
497.859	5328.47
498.063	5568.09
498.266	5471.83
498.469	5293.66
498.673	5287.51
498.876	5488.21
499.079	5394.01
499.282	5373.53
499.485	5541.46
499.689	5557.85
499.892	5561.94
500.095	5404.25
500.298	5551.7
500.501	5457.5
500.705	5621.33
500.908	5488.21
501.111	5639.76
501.314	5650
501.517	5803.6
501.72	5873.23
501.923	5791.31
502.126	5951.06
502.329	6176.33
502.532	5959.25
502.735	5996.11
502.938	6264.4
503.141	6291.02
503.344	6291.02
503.547	6485.58
503.75	6362.7
503.953	6366.79
504.156	6725.19
504.359	6684.23
504.562	6606.41
504.765	6891.07
504.968	7044.67
505.17	6913.6
505.373	7007.81
505.576	7284.28
505.779	7339.58
505.982	7110.21
506.185	7368.25
506.387	7657.01
506.59	7724.6
506.793	7800.37
506.996	8054.32
507.198	8324.65
507.401	8252.97
507.604	8492.59
507.807	8609.32
508.009	8863.27
508.212	9000.48
508.415	9117.22
508.617	9590.3
508.82	9571.86
509.022	9537.05
509.225	9987.6
509.428	10139.15
509.63	10225.17
509.833	10370.57
510.035	10868.23
510.238	10972.68
510.44	10980.87
510.643	11476.48
510.845	11810.29
511.048	11908.6
511.25	11939.32
511.453	12482.03
511.655	12928.49
511.858	13141.47
512.06	13585.88
512.262	13579.74
512.465	13848.02
512.667	14286.29
512.87	14482.89
513.072	14609.87
513.274	15330.75
513.477	15570.37
513.679	15838.65
513.881	16248.24
514.084	16715.18
514.286	17003.94
514.488	17286.56
514.69	17907.1
514.893	18066.84
515.095	18359.7
515.297	18673.04
515.499	19219.85
515.701	19588.48
515.904	20299.12
516.106	20606.32
516.308	21007.72
516.51	21638.5
516.712	21831.01
516.914	22547.79
517.116	22764.88
517.318	23295.3
517.52	23448.9
517.722	24089.92
517.925	24585.52
518.127	25128.24
518.329	25509.16
518.531	25816.35
518.733	26647.83
518.935	27118.86
519.136	27135.24
519.338	27874.56
519.54	28280.06
519.742	28845.3
519.944	29168.88
520.146	29988.07
520.348	30037.22
520.55	30377.18
520.752	30993.62
520.954	31362.25
521.155	31509.71
521.357	32638.14
521.559	32369.85
521.761	33039.54
521.963	33189.04
522.164	33594.54
522.366	33750.18
522.568	34448.54
522.77	34575.52
522.971	34858.13
523.173	35003.54
523.375	35456.14
523.576	35390.61
523.778	35632.27
523.98	36222.08
524.181	36230.27
524.383	36203.65
524.584	36562.04
524.786	36732.03
524.988	36318.34
525.189	37059.7
525.391	36969.59
525.592	37014.65
525.794	37495.92
525.995	37217.39
526.197	36940.92
526.398	37379.18
526.6	37096.56
526.801	37170.29
527.003	37424.24
527.204	37117.04
527.406	37096.56
527.607	37063.8
527.808	36795.51
528.01	36160.64
528.211	36525.18
528.412	36631.68
528.614	35935.37
528.815	35679.37
529.016	35757.19
529.218	34913.43
529.419	34712.73
529.62	34684.06
529.822	34593.95
530.023	34366.62
530.224	33893.54
530.425	33721.51
530.626	32857.27
530.828	32623.8
531.029	33014.96
531.23	32369.85
531.431	32185.54
531.632	31900.87
531.833	31431.88
532.035	30958.8
532.236	30508.25
532.437	30348.51
532.638	30258.4
532.839	30063.84
533.04	29568.23
533.241	28460.28
533.442	28996.85
533.643	28067.07
533.844	27712.77
534.045	27753.73
534.246	26948.88
534.447	26918.16
534.648	26936.59
534.849	26211.61
535.05	25683.23
535.251	25103.66
535.451	25115.95
535.652	25027.88
535.853	24345.91
536.054	24157.5
536.255	23946.56
536.456	23278.92
536.657	23477.57
536.857	22705.49
537.058	22398.29
537.259	22533.46
537.46	22125.91
537.66	21693.79
537.861	21247.33
538.062	21048.68
538.263	20858.22
538.463	20817.26
538.664	20260.21
538.865	20125.05
539.065	20176.25
539.266	19432.83
539.466	19600.77
539.667	19096.97
539.868	19287.43
540.068	18714
540.269	18558.35
540.469	18466.19
540.67	18021.78
540.87	18044.31
541.071	17583.52
541.271	17655.2
541.472	17503.65
541.672	17046.95
541.873	16899.5
542.073	16483.76
542.274	16682.41
542.474	16328.11
542.675	16039.35
542.875	15957.43
543.075	15945.14
543.276	15590.84
543.476	15416.77
543.676	15117.76
543.877	15175.11
544.077	15015.37
544.277	14775.75
544.478	14521.81
544.678	14489.04
544.878	14382.54
545.078	14319.06
545.279	13942.23
545.479	13813.21
545.679	13655.51
545.879	13360.61
546.079	13278.69
546.28	13209.06
546.48	12817.9
546.68	13137.38
546.88	12852.71
547.08	12953.06
547.28	12555.76
547.48	12228.08
547.68	12148.21
547.88	11824.63
548.081	12092.91
548.281	11574.78
548.481	11677.18
548.681	11595.26
548.881	11187.71
549.081	11097.6
549.28	10917.38
549.48	10886.66
549.68	10821.13
549.88	10577.42
550.08	10393.1
550.28	10337.8
550.48	10112.53
550.68	10046.99
550.88	9758.23
551.08	9623.06
551.279	9760.28
551.479	9451.03
551.679	9236
551.879	8836.64
552.079	9190.94
552.278	9086.5
552.478	8941.09
552.678	8826.4
552.878	8771.11
553.077	8406.57
553.277	8123.95
553.477	8349.23
553.676	8076.85
553.876	7984.69
554.076	7855.67
554.275	7642.68
554.475	7462.46
554.674	7515.7
554.874	7200.32
555.074	7054.91
555.273	6997.57
555.473	7044.67
555.672	6811.2
555.872	6608.45
556.071	6590.02
556.271	6692.42
556.47	6325.83
556.67	6219.34
556.869	6188.62
557.068	6157.9
557.268	5910.1
557.467	5897.81
557.667	5887.57
557.866	5729.88
558.065	5525.08
558.265	5475.93
558.464	5482.07
558.663	5480.02
558.863	5449.3
559.062	5236.31
559.261	4879.97
559.461	5045.85
559.66	4929.12
559.859	4693.6
560.058	4666.98
560.258	4652.64
560.457	4580.96
560.656	4626.02
560.855	4382.31
561.054	4623.97
561.253	4355.69
561.453	4290.15
561.652	4097.64
561.851	4238.95
562.05	4001.39
562.249	3931.76
562.448	4036.21
562.647	3749.49
562.846	3823.22
563.045	3759.73
563.244	3825.26
563.443	3671.67
563.642	3647.09
563.841	3540.6
564.04	3481.21
564.239	3444.34
564.438	3364.47
564.637	3178.11
564.836	3249.79
565.035	3272.31
565.234	3143.29
565.432	3088
565.631	3143.29
565.83	3098.24
566.029	3077.76
566.228	2965.12
566.427	2967.17
566.625	2815.62
566.824	2911.87
567.023	2762.37
567.222	2733.7
567.42	2700.93
567.619	2612.87
567.818	2555.52
568.016	2766.46
568.215	2475.65
568.414	2547.33
568.612	2420.36
568.811	2471.56
569.01	2297.48
569.208	2256.52
569.407	2297.48
569.605	2363.01
569.804	2262.66
570.002	2287.24
570.201	2043.53
570.4	2209.42
570.598	2137.74
570.797	2080.39
570.995	2014.86
571.193	2031.24
571.392	2092.68
571.59	1859.21
571.789	1959.56
571.987	1984.14
572.186	1965.71
572.384	1769.1
572.582	1767.06
572.781	1818.25
572.979	1676.95
573.177	1656.47
573.376	1711.76
573.574	1844.88
573.772	1619.6
573.971	1529.49
574.169	1498.77
574.367	1535.64
574.565	1425.04
574.763	1476.24
574.962	1568.4
575.16	1466
575.358	1451.67
575.556	1345.17
575.754	1375.89
575.952	1316.5
576.151	1365.65
576.349	1384.09
576.547	1187.48
576.745	1277.59
576.943	1275.54
577.141	1191.58
577.339	1226.39
577.537	1273.5
577.735	1250.97
577.933	1183.38
578.131	1128.09
578.329	1154.71
578.527	1072.79
578.725	1146.52
578.923	1025.69
579.121	1240.73
579.319	908.96
579.516	954.01
579.714	1218.2
579.912	1070.75
580.11	913.05
580.308	908.96
580.506	857.76
580.704	802.46
580.901	1011.36
581.099	1054.36
581.297	874.14
581.495	872.09
581.692	915.1
581.89	949.92
582.088	894.62
582.285	820.89
582.483	802.46
582.681	833.18
582.878	810.65
583.076	911
583.274	720.54
583.471	919.2
583.669	702.11
583.866	599.71
584.064	655.01
584.262	612
584.459	591.52
584.657	693.92
584.854	732.83
585.052	673.44
585.249	700.06
585.447	665.25
585.644	626.34
585.841	675.49
586.039	650.91
586.236	646.82
586.434	556.71
586.631	540.32
586.828	632.48
587.026	620.19
587.223	480.93
587.42	495.27
587.618	671.39
587.815	519.84
588.012	485.03
588.21	540.32
588.407	607.91
588.604	603.81
588.801	495.27
588.999	511.65
589.196	568.99
589.393	450.21
589.59	554.66
589.787	552.61
589.984	587.43
590.182	542.37
590.379	415.4
590.576	497.32
590.773	499.36
590.97	499.36
591.167	515.75
591.364	501.41
591.561	474.79
591.758	560.8
591.955	476.84
592.152	538.27
592.349	427.68
592.546	417.44
592.743	421.54
592.94	515.75
593.137	493.22
593.334	530.08
593.531	470.69
593.727	573.09
593.924	429.73
594.121	421.54
594.318	487.08
594.515	548.51
594.712	568.99
594.908	609.95
595.105	345.77
595.302	466.6
595.499	460.45
595.696	630.43
595.892	544.42
596.089	624.29
596.286	552.61
596.482	669.34
596.679	593.57
596.876	560.8
597.072	691.87
597.269	573.09
597.466	663.2
597.662	609.95
597.859	636.58
598.055	646.82
598.252	648.86
598.448	786.08
598.645	814.75
598.841	853.66
599.038	933.53
599.234	966.3
599.431	902.81
599.627	849.57
599.824	997.02
600.02	1019.55
600.217	931.48
600.413	1042.07
600.609	1025.69
600.806	1449.62
601.002	1228.44
601.198	1085.08
601.395	1248.92
601.591	1392.28
601.787	1406.61
601.984	1492.63
602.18	1492.63
602.376	1629.84
602.572	1713.81
602.769	1713.81
602.965	1678.99
603.161	1732.24
603.357	1828.49
603.553	2037.39
603.75	1930.89
603.946	1963.66
604.142	2170.51
604.338	2336.39
604.534	2182.79
604.73	2381.45
604.926	2281.1
605.122	2553.48
605.318	2418.31
605.514	2594.44
605.71	2598.53
605.906	2832
606.102	2809.47
606.298	2973.31
606.494	3096.19
606.69	3190.39
606.886	3237.5
607.082	3284.6
607.278	3307.13
607.474	3309.18
607.67	3591.8
607.866	3651.19
608.062	3939.95
608.257	3948.14
608.453	3954.29
608.649	4124.27
608.845	4030.06
609.041	4144.75
609.236	4357.74
609.432	4605.54
609.628	4871.78
609.824	4826.72
610.019	4693.6
610.215	5045.85
610.411	5252.7
610.606	5371.48
610.802	5422.68
610.998	5611.09
611.193	5828.18
611.389	5840.47
611.584	5936.72
611.78	5938.77
611.976	6315.59
612.171	6641.22
612.367	6850.11
612.562	6921.79
612.758	6929.98
612.953	7067.2
613.149	7446.07
613.344	7493.18
613.539	7992.88
613.735	8103.47
613.93	8212.01
614.126	8451.63
614.321	8664.61
614.517	9025.06
614.712	9117.22
614.907	9270.81
615.103	9518.62
615.298	9649.69
615.493	9938.45
615.688	10176.02
615.884	10726.92
616.079	10653.19
616.274	11200
616.47	11228.67
616.665	11433.47
616.86	11900.41
617.055	12105.2
617.25	12457.45
617.445	12709.35
617.641	12858.85
617.836	13495.77
618.031	13508.06
618.226	14282.19
618.421	14312.91
618.616	14808.52
618.811	14671.31
619.006	15728.06
619.201	15398.34
619.396	15959.48
619.591	15971.77
619.786	16887.21
619.981	16870.83
620.176	17515.94
620.371	17358.24
620.566	18122.13
620.761	18369.94
620.956	18902.41
621.151	18820.49
621.346	19791.23
621.541	19715.45
621.735	20313.46
621.93	20847.98
622.125	20913.52
622.32	20890.99
622.515	21718.37
622.709	22060.38
622.904	22682.96
623.099	22936.91
623.294	23336.26
623.488	23739.71
623.683	24171.83
623.878	23973.18
624.072	24984.88
624.267	24941.87
624.462	25408.81
624.656	25883.94
624.851	26481.94
625.046	26383.64
625.24	27139.34
625.435	27288.84
625.629	28249.34
625.824	28345.59
626.018	28712.18
626.213	28503.29
626.407	29213.93
626.602	29166.83
626.796	29740.26
626.991	30055.65
627.185	30411.99
627.38	30422.23
627.574	30627.03
627.768	30743.77
627.963	30780.63
628.157	30694.61
628.352	31444.17
628.546	30614.74
628.74	31380.68
628.935	31091.92
629.129	31151.31
629.323	30698.71
629.517	30825.68
629.712	30502.11
629.906	30342.36
630.1	30264.54
630.294	29877.47
630.489	29809.89
630.683	29351.15
630.877	28669.17
631.071	28247.29
631.265	27999.49
631.459	27239.69
631.653	26602.77
631.848	26133.79
632.042	25314.6
632.236	25083.18
632.43	24200.51
632.624	23635.27
632.818	22826.32
633.012	22383.96
633.206	21681.5
633.4	21024.11
633.594	19953.02
633.788	19574.14
633.982	18767.24
634.176	18245.01
634.369	17311.14
634.563	16795.05
634.757	16170.42
634.951	15611.32
635.145	15250.88
635.339	14409.17
635.533	13874.65
635.726	13407.71
635.92	12578.28
636.114	12056.05
636.308	11605.5
636.501	11236.86
636.695	10774.02
636.889	10241.55
637.083	9950.74
637.276	9549.34
637.47	9133.6
637.664	8769.06
637.857	8343.08
638.051	8369.71
638.244	7704.12
638.438	7546.42
638.632	7300.67
638.825	6731.33
639.019	6747.72
639.212	6221.39
639.406	6256.2
639.599	5815.89
639.793	5631.57
639.986	5418.58
640.18	5092.96
640.373	4779.62
640.567	4720.23
640.76	4529.77
640.954	4564.58
641.147	4255.34
641.34	3886.7
641.534	3950.19
641.727	3812.98
641.92	3671.67
642.114	3528.31
642.307	3384.95
642.5	3192.44
642.694	3245.69
642.887	3018.36
643.08	2946.69
643.273	2858.62
643.467	2610.82
643.66	2621.06
643.853	2317.96
644.046	2381.45
644.239	2354.82
644.432	2139.79
644.626	1945.23
644.819	1975.95
645.012	1957.52
645.205	2076.3
645.398	1947.28
645.591	1691.28
645.784	1627.79
645.977	1457.81
646.17	1461.91
646.363	1474.2
646.556	1339.03
646.749	1312.41
646.942	1365.65
647.135	1277.59
647.328	1230.49
647.521	1259.16
647.714	1117.85
647.907	1128.09
648.099	1062.55
648.292	1158.81
648.485	927.39
648.678	1060.51
648.871	908.96
649.064	900.76
649.256	802.46
649.449	865.95
649.642	745.12
649.835	767.65
650.027	698.02
650.22	810.65
650.413	671.39
650.605	722.59
650.798	698.02
650.991	568.99
651.183	548.51
651.376	597.67
651.568	564.9
651.761	495.27
651.954	511.65
652.146	417.44
652.339	579.23
652.531	485.03
652.724	425.64
652.916	437.92
653.109	251.56
653.301	456.36
653.494	439.97
653.686	376.48
653.879	489.12
654.071	466.6
654.263	241.32
654.456	308.9
654.648	411.3
654.84	491.17
655.033	304.81
655.225	460.45
655.417	202.41
655.61	433.83
655.802	351.91
655.994	327.33
656.186	237.22
656.379	313
656.571	218.79
656.763	294.57
656.955	269.99
657.148	220.84
657.34	296.61
657.532	159.4
657.724	267.94
657.916	251.56
658.108	263.85
658.3	200.36
658.492	233.13
658.684	192.17
658.876	294.57
659.068	122.54
659.26	110.25
659.452	179.88
659.644	112.3
659.836	220.84
660.028	134.82
660.22	136.87
660.412	192.17
660.604	145.06
660.796	167.59
660.988	272.04
661.18	239.27
661.372	171.69
661.563	175.78
661.755	165.54
661.947	100.01
662.139	120.49
662.331	136.87
662.522	196.26
662.714	57
662.906	124.58
663.097	155.3
663.289	200.36
663.481	44.71
663.673	69.29
663.864	140.97
664.056	169.64
664.247	130.73
664.439	288.42
664.631	95.91
664.822	202.41
665.014	108.2
665.205	48.81
665.397	89.77
665.588	114.34
665.78	153.26
665.971	83.63
666.163	24.23
666.354	91.82
666.546	108.2
666.737	153.26
666.929	97.96
667.12	-0.34
667.311	110.25
667.503	210.6
667.694	153.26
667.885	104.11
668.077	75.43
668.268	-35.16
668.459	128.68
668.651	157.35
668.842	85.67
669.033	63.15
669.224	34.47
669.416	313
669.607	69.29
669.798	50.86
669.989	194.22
670.18	44.71
670.371	138.92
670.563	20.14
670.754	243.37
670.945	59.05
671.136	247.46
671.327	-18.77
671.518	186.02
671.709	165.54
671.9	183.98
672.091	186.02
672.282	128.68
672.473	186.02
672.664	40.62
672.855	145.06
673.046	163.5
673.237	165.54
673.428	114.34
673.619	272.04
673.809	18.09
674	249.51
674.191	204.46
674.382	75.43
674.573	126.63
674.764	159.4
674.954	259.75
675.145	159.4
675.336	145.06
675.527	44.71
675.717	120.49
675.908	65.19
676.099	132.78
676.289	222.89
676.48	97.96
676.671	120.49
676.861	134.82
677.052	128.68
677.243	151.21
677.433	116.39
677.624	161.45
677.814	229.03
678.005	50.86
678.195	298.66
678.386	116.39
678.576	102.06
678.767	120.49
678.957	161.45
679.148	165.54
679.338	282.28
679.529	243.37
679.719	130.73
679.909	200.36
680.1	196.26
680.29	206.5
680.481	93.87
680.671	257.7
680.861	282.28
681.052	190.12
681.242	108.2
681.432	183.98
681.622	186.02
681.813	97.96
682.003	171.69
682.193	87.72
682.383	153.26
682.573	118.44
682.764	145.06
682.954	163.5
683.144	210.6
683.334	171.69
683.524	190.12
683.714	267.94
683.904	284.33
684.094	159.4
684.284	132.78
684.474	284.33
684.664	241.32
684.854	171.69
685.044	243.37
685.234	245.41
685.424	202.41
685.614	179.88
685.804	329.38
685.994	216.74
686.184	132.78
686.374	181.93
686.564	202.41
686.753	235.18
686.943	106.15
687.133	243.37
687.323	110.25
687.513	255.65
687.702	212.65
687.892	120.49
688.082	276.13
688.272	290.47
688.461	183.98
688.651	255.65
688.841	140.97
689.03	153.26
689.22	235.18
689.41	247.46
689.599	206.5
689.789	106.15
689.979	274.09
690.168	212.65
690.358	274.09
690.547	224.94
690.737	251.56
690.926	194.22
691.116	278.18
691.305	267.94
691.495	239.27
691.684	155.3
691.874	157.35
692.063	196.26
692.252	259.75
692.442	202.41
692.631	173.74
692.82	173.74
693.01	269.99
693.199	210.6
693.388	206.5
693.578	136.87
693.767	245.41
693.956	274.09
694.146	212.65
694.335	167.59
694.524	179.88
694.713	257.7
694.902	169.64
695.092	159.4
695.281	269.99
695.47	116.39
695.659	114.34
695.848	149.16
696.037	171.69
696.226	272.04
696.415	186.02
696.604	335.53
696.793	315.05
696.982	169.64
697.171	280.23
697.36	136.87
697.549	181.93
697.738	114.34
697.927	134.82
698.116	71.34
698.305	161.45
698.494	229.03
698.683	188.07
698.872	306.85
699.061	190.12
699.25	171.69
699.438	237.22
699.627	224.94
699.816	329.38
700.005	159.4
700.193	114.34
700.382	265.89
700.571	186.02
700.76	169.64
700.948	261.8
701.137	231.08
701.326	165.54
701.514	151.21
701.703	220.84
701.892	267.94
702.08	407.2
702.269	140.97
702.457	163.5
702.646	163.5
702.834	163.5
703.023	179.88
703.212	261.8
703.4	229.03
703.589	212.65
703.777	136.87
703.965	87.72
704.154	124.58
704.342	118.44
704.531	134.82
704.719	241.32
704.907	265.89
705.096	134.82
705.284	83.63
705.472	204.46
705.661	247.46
705.849	208.55
706.037	298.66
706.226	278.18
706.414	194.22
706.602	110.25
706.79	269.99
706.979	122.54
707.167	165.54
707.355	143.02
707.543	194.22
707.731	255.65
707.919	110.25
708.107	177.83
708.296	114.34
708.484	145.06
708.672	241.32
708.86	194.22
709.048	222.89
709.236	122.54
709.424	177.83
709.612	169.64
709.8	91.82
709.988	286.37
710.176	216.74
710.364	261.8
710.551	202.41
710.739	149.16
710.927	159.4
711.115	224.94
711.303	288.42
711.491	261.8
711.679	134.82
711.866	243.37
712.054	181.93
712.242	192.17
712.43	263.85
712.617	147.11
712.805	206.5
712.993	136.87
713.181	-16.73
713.368	245.41
713.556	216.74
713.744	71.34
713.931	286.37
714.119	278.18
714.306	175.78
714.494	210.6
714.682	276.13
714.869	50.86
715.057	124.58
715.244	50.86
715.432	186.02
715.619	143.02
715.807	108.2
715.994	186.02
716.182	231.08
716.369	257.7
716.556	192.17
716.744	69.29
716.931	95.91
717.119	222.89
717.306	192.17
717.493	265.89
717.681	116.39
717.868	222.89
718.055	192.17
718.242	155.3
718.43	263.85
718.617	251.56
718.804	229.03
718.991	302.76
719.179	206.5
719.366	267.94
719.553	290.47
719.74	155.3
719.927	153.26
720.114	263.85
720.301	147.11
720.488	112.3
720.676	95.91
720.863	331.43
721.05	341.67
721.237	249.51
721.424	198.31
721.611	153.26
721.798	130.73
721.985	136.87
722.172	196.26
722.358	192.17
722.545	272.04
722.732	212.65
722.919	366.25
723.106	243.37
723.293	274.09
723.48	263.85
723.667	147.11
723.853	267.94
724.04	308.9
724.227	339.62
724.414	169.64
724.6	212.65
724.787	429.73
724.974	310.95
725.161	237.22
725.347	120.49
725.534	186.02
725.72	249.51
725.907	345.77
726.094	304.81
726.28	173.74
726.467	212.65
726.653	118.44
726.84	294.57
727.027	419.49
727.213	229.03
727.4	310.95
727.586	206.5
727.773	265.89
727.959	261.8
728.145	233.13
728.332	261.8
728.518	196.26
728.705	278.18
728.891	370.34
729.077	216.74
729.264	173.74
729.45	196.26
729.636	235.18
729.823	220.84
730.009	356.01
730.195	282.28
730.382	296.61
730.568	175.78
730.754	257.7
730.94	226.98
731.126	247.46
731.313	282.28
731.499	300.71
731.685	241.32
731.871	253.61
732.057	251.56
732.243	313
732.429	304.81
732.615	337.57
732.801	339.62
732.987	269.99
733.173	216.74
733.359	286.37
733.545	278.18
733.731	298.66
733.917	343.72
734.103	294.57
734.289	267.94
734.475	202.41
734.661	343.72
734.847	288.42
735.033	200.36
735.219	286.37
735.404	229.03
735.59	190.12
735.776	222.89
735.962	265.89
736.148	370.34
736.333	313
736.519	251.56
736.705	278.18
736.89	259.75
737.076	296.61
737.262	226.98
737.447	192.17
737.633	177.83
737.819	343.72
738.004	300.71
738.19	269.99
738.375	325.29
738.561	368.29
738.747	317.09
738.932	192.17
739.118	399.01
739.303	284.33
739.489	269.99
739.674	198.31
739.859	155.3
740.045	407.2
740.23	255.65
740.416	194.22
740.601	343.72
740.786	315.05
740.972	175.78
741.157	257.7
741.342	143.02
741.528	196.26
741.713	327.33
741.898	239.27
742.084	263.85
742.269	302.76
742.454	337.57
742.639	335.53
742.824	161.45
743.01	353.96
743.195	378.53
743.38	261.8
743.565	274.09
743.75	282.28
743.935	323.24
744.12	374.44
744.305	192.17
744.49	192.17
744.675	298.66
744.86	241.32
745.045	313
745.23	313
745.415	294.57
745.6	253.61
745.785	226.98
745.97	272.04
746.155	257.7
746.34	390.82
746.525	235.18
746.71	331.43
746.895	151.21
747.079	249.51
747.264	253.61
747.449	181.93
747.634	349.86
747.819	327.33
748.003	161.45
748.188	140.97
748.373	245.41
748.557	231.08
748.742	315.05
748.927	222.89
749.111	190.12
749.296	255.65
749.481	333.48
749.665	302.76
749.85	118.44
750.034	247.46
750.219	188.07
750.404	206.5
750.588	226.98
750.773	210.6
750.957	208.55
751.141	163.5
751.326	308.9
751.51	102.06
751.695	143.02
751.879	173.74
752.064	339.62
752.248	165.54
752.432	261.8
752.617	288.42
752.801	315.05
752.985	192.17
753.17	292.52
753.354	216.74
753.538	224.94
753.722	200.36
753.907	171.69
754.091	95.91
754.275	327.33
754.459	126.63
754.643	97.96
754.828	222.89
755.012	247.46
755.196	75.43
755.38	196.26
755.564	212.65
755.748	145.06
755.932	153.26
756.116	233.13
756.3	220.84
756.484	157.35
756.668	294.57
756.852	104.11
757.036	153.26
757.22	239.27
757.404	104.11
757.588	67.24
757.772	202.41
757.956	44.71
758.14	255.65
758.323	104.11
758.507	175.78
758.691	163.5
758.875	208.55
759.059	165.54
759.242	226.98
759.426	120.49
759.61	171.69
759.794	124.58
759.977	208.55
760.161	401.06
760.345	171.69
760.528	190.12
760.712	149.16
760.895	183.98
761.079	165.54
761.263	1.71
761.446	13.99
761.63	81.58
761.813	319.14
761.997	71.34
762.18	136.87
762.364	132.78
762.547	63.15
762.731	116.39
762.914	126.63
763.098	126.63
763.281	136.87
763.464	48.81
763.648	138.92
763.831	93.87
764.015	177.83
764.198	190.12
764.381	65.19
764.564	179.88
764.748	71.34
764.931	147.11
765.114	54.95
765.297	171.69
765.481	34.47
765.664	112.3
765.847	128.68
766.03	204.46
766.213	5.8
766.397	132.78
766.58	93.87
766.763	165.54
766.946	59.05
767.129	93.87
767.312	-10.58
767.495	110.25
767.678	22.19
767.861	177.83
768.044	75.43
768.227	16.04
768.41	26.28
768.593	157.35
768.776	134.82
768.959	106.15
769.142	140.97
769.324	130.73
769.507	173.74
769.69	143.02
769.873	102.06
770.056	269.99
770.239	132.78
770.421	145.06
770.604	124.58
770.787	46.76
770.97	26.28
771.152	16.04
771.335	85.67
771.518	16.04
771.7	198.31
771.883	249.51
772.066	100.01
772.248	87.72
772.431	167.59
772.613	157.35
772.796	81.58
772.978	202.41
773.161	208.55
773.343	48.81
773.526	30.38
773.708	22.19
773.891	9.9
774.073	54.95
774.256	97.96
774.438	167.59
774.621	65.19
774.803	116.39
774.985	106.15
775.168	153.26
775.35	46.76
775.532	130.73
775.715	42.67
775.897	102.06
776.079	1.71
776.261	167.59
776.444	93.87
776.626	134.82
776.808	69.29
776.99	-18.77
777.173	110.25
777.355	85.67
777.537	75.43
777.719	102.06
777.901	40.62
778.083	54.95
778.265	-67.92
778.447	114.34
778.629	-10.58
778.811	132.78
778.993	79.53
779.175	110.25
779.357	63.15
779.539	-39.25
779.721	143.02
779.903	77.48
780.085	-24.92
780.267	85.67
780.449	36.52
780.631	59.05
780.812	134.82
780.994	-86.36
781.176	140.97
781.358	9.9
781.54	-10.58
781.721	48.81
781.903	106.15
782.085	-10.58
782.267	65.19
782.448	-102.74
782.63	-12.63
782.812	69.29
782.993	69.29
783.175	97.96
783.357	32.43
783.538	20.14
783.72	-10.58
783.901	50.86
784.083	83.63
784.264	102.06
784.446	-6.49
784.627	-92.5
784.809	126.63
784.99	11.95
785.172	48.81
785.353	5.8
785.535	77.48
785.716	18.09
785.897	-80.21
786.079	-16.73
786.26	42.67
786.441	118.44
786.623	11.95
786.804	-80.21
786.985	34.47
787.167	59.05
787.348	9.9
787.529	-12.63
787.71	216.74
787.891	44.71
788.073	-53.59
788.254	-29.01
788.435	136.87
788.616	36.52
788.797	-41.3
788.978	73.39
789.159	22.19
789.34	16.04
789.522	46.76
789.703	-37.2
789.884	130.73
790.065	67.24
790.246	190.12
790.427	40.62
790.607	210.6
790.788	7.85
790.969	-10.58
791.15	-2.39
791.331	-57.68
791.512	3.75
791.693	-6.49
791.874	73.39
792.054	130.73
792.235	132.78
792.416	32.43
792.597	-26.96
792.778	22.19
792.958	9.9
793.139	40.62
793.32	22.19
793.5	-53.59
793.681	40.62
793.862	48.81
794.042	-57.68
794.223	-90.45
794.404	20.14
794.584	-67.92
794.765	13.99
794.945	44.71
795.126	46.76
795.306	120.49
795.487	-53.59
795.667	-88.4
795.848	24.23
796.028	-37.2
796.209	63.15
796.389	59.05
796.57	-8.53
796.75	-37.2
796.93	42.67
797.111	-8.53
797.291	11.95
797.471	116.39
797.652	59.05
797.832	-35.16
798.012	120.49
798.192	-53.59
798.373	-78.16
798.553	5.8
798.733	75.43
798.913	3.75
799.093	9.9
799.274	-55.64
799.454	104.11
799.634	26.28
799.814	71.34
799.994	-20.82
800.174	54.95
800.354	-16.73
800.534	-100.69
800.714	52.91
800.894	-8.53
801.074	-82.26
801.254	-65.88
801.434	116.39
801.614	-29.01
801.794	-74.07
801.974	1660.56
802.154	-0.34
802.334	44.71
802.514	-90.45
802.693	-16.73
802.873	7.85
803.053	91.82
803.233	106.15
803.413	-8.53
803.592	-26.96
803.772	48.81
803.952	-69.97
804.131	-35.16
804.311	22.19
804.491	91.82
804.67	-67.92
804.85	-49.49
805.03	50.86
805.209	89.77
805.389	-18.77
805.568	-20.82
805.748	-43.35
805.928	20.14
806.107	-16.73
806.287	42.67
806.466	-4.44
806.646	-39.25
806.825	38.57
807.004	-51.54
807.184	-65.88
807.363	97.96
807.543	26.28
807.722	-84.31
807.901	155.3
808.081	97.96
808.26	-170.32
808.439	5.8
808.619	-18.77
808.798	-35.16
808.977	61.1
809.156	11.95
809.336	-4.44
809.515	-55.64
809.694	-72.02
809.873	36.52
810.052	57
810.231	73.39
810.411	-2.39
810.59	16.04
810.769	-47.44
810.948	73.39
811.127	-72.02
811.306	-39.25
811.485	-43.35
811.664	153.26
811.843	7.85
812.022	36.52
812.201	48.81
812.38	20.14
812.559	16.04
812.737	-33.11
812.916	-65.88
813.095	-57.68
813.274	-16.73
813.453	-8.53
813.632	-10.58
813.811	48.81
813.989	-57.68
814.168	50.86
814.347	-117.08
814.526	-47.44
814.704	179.88
814.883	87.72
815.062	48.81
815.24	48.81
815.419	-74.07
815.598	85.67
815.776	-104.79
815.955	-35.16
816.133	-86.36
816.312	-0.34
816.49	-26.96
816.669	-26.96
816.847	36.52
817.026	-10.58
817.204	-69.97
817.383	11.95
817.561	-127.32
817.74	1.71
817.918	20.14
818.097	-57.68
818.275	-84.31
818.453	-12.63
818.632	7.85
818.81	1.71
818.988	-86.36
819.167	-57.68
819.345	7.85
819.523	-51.54
819.701	54.95
819.879	36.52
820.058	-22.87
820.236	-26.96
820.414	-18.77
820.592	-14.68
820.77	-49.49
820.948	-12.63
821.127	-24.92
821.305	-49.49
821.483	-33.11
821.661	50.86
821.839	-22.87
822.017	-29.01
822.195	-37.2
822.373	89.77
822.551	-47.44
822.729	69.29
822.907	-41.3
823.085	26.28
823.262	-53.59
823.44	-45.4
823.618	-51.54
823.796	-29.01
823.974	-51.54
824.152	38.57
824.329	3.75
824.507	-18.77
824.685	65.19
824.863	-14.68
825.04	-43.35
825.218	20.14
825.396	16.04
825.574	20.14
825.751	-74.07
825.929	-4.44
826.107	-47.44
826.284	54.95
826.462	1.71
826.639	-29.01
826.817	-45.4
826.994	36.52
827.172	-53.59
827.349	128.68
827.527	-31.06
827.704	16.04
827.882	3.75
828.059	-84.31
828.237	-51.54
828.414	11.95
828.591	-127.32
828.769	-33.11
828.946	-47.44
829.124	63.15
829.301	36.52
829.478	-12.63
829.655	59.05
829.833	-4.44
830.01	-80.21
830.187	50.86
830.364	34.47
830.542	28.33
830.719	116.39
830.896	34.47
831.073	-4.44
831.25	-0.34
831.427	28.33
831.604	16.04
831.782	18.09
831.959	63.15
832.136	36.52
832.313	18.09
832.49	-80.21
832.667	42.67
832.844	-35.16
833.021	59.05
833.198	30.38
833.374	-51.54
833.551	5.8
833.728	-35.16
833.905	73.39
834.082	-143.7
834.259	71.34
834.436	26.28
834.612	-76.12
834.789	52.91
834.966	22.19
835.143	-18.77
835.319	-96.6
835.496	63.15
835.673	34.47
835.85	34.47
836.026	108.2
836.203	3.75
836.38	-74.07
836.556	-24.92
836.733	-31.06
836.909	122.54
837.086	9.9
837.262	-49.49
837.439	-22.87
837.616	-0.34
837.792	-53.59
837.968	42.67
838.145	-92.5
838.321	-18.77
838.498	-10.58
838.674	75.43
838.851	28.33
839.027	-33.11
839.203	-24.92
839.38	1.71
839.556	-0.34
839.732	7.85
839.909	-63.83
840.085	87.72
840.261	-69.97
840.437	38.57
840.614	-37.2
840.79	59.05
840.966	30.38
841.142	-8.53
841.318	-121.17
841.494	-0.34
841.671	89.77
841.847	-49.49
842.023	-6.49
842.199	26.28
842.375	89.77
842.551	-102.74
842.727	-112.98
842.903	22.19
843.079	-90.45
843.255	69.29
843.431	-86.36
843.607	-49.49
843.783	-158.03
843.959	34.47
844.134	-82.26
844.31	124.58
844.486	-102.74
844.662	-135.51
844.838	-63.83
845.013	11.95
845.189	13.99
845.365	42.67
845.541	-4.44
845.716	1.71
845.892	75.43
846.068	-24.92
846.244	-18.77
846.419	9.9
846.595	-82.26
846.77	-55.64
846.946	75.43
847.122	-76.12
847.297	-35.16
847.473	85.67
847.648	-160.08
847.824	28.33
847.999	-110.93
848.175	-0.34
848.35	13.99
848.526	114.34
848.701	59.05
848.876	9.9
849.052	104.11
849.227	24.23
849.403	-2.39
849.578	-88.4
849.753	-2.39
849.929	-4.44
850.104	-164.18
850.279	13.99
850.454	-2.39
850.63	38.57
850.805	28.33
850.98	1.71
851.155	-20.82
851.33	38.57
851.505	-117.08
851.681	143.02
851.856	-166.23
852.031	-4.44
852.206	42.67
852.381	-59.73
852.556	-84.31
852.731	-16.73
852.906	61.1
853.081	42.67
853.256	106.15
853.431	-24.92
853.606	-8.53
853.781	-41.3
853.956	-170.32
854.131	7.85
854.305	44.71
854.48	-88.4
854.655	-82.26
854.83	-47.44
855.005	-61.78
855.18	-78.16
855.354	-139.6
855.529	16.04
855.704	-41.3
855.879	20.14
856.053	-72.02
856.228	28.33
856.403	-110.93
856.577	28.33
856.752	-102.74
856.926	16.04
857.101	-24.92
857.276	-112.98
857.45	32.43
857.625	97.96
857.799	48.81
857.974	-61.78
858.148	-78.16
858.323	57
858.497	-55.64
858.672	-39.25
858.846	-51.54
859.02	52.91
859.195	-47.44
859.369	3.75
859.543	-37.2
859.718	-41.3
859.892	-29.01
860.066	-33.11
860.241	-16.73
860.415	9.9
860.589	20.14
860.763	-29.01
860.938	59.05
861.112	-26.96
861.286	-49.49
861.46	-18.77
861.634	-74.07
861.808	57
861.982	-110.93
862.157	-84.31
862.331	-26.96
862.505	-53.59
862.679	-53.59
862.853	-74.07
863.027	-100.69
863.201	120.49
863.375	-24.92
863.549	67.24
863.722	5.8
863.896	65.19
864.07	18.09
864.244	-59.73
864.418	-39.25
864.592	28.33
864.766	-65.88
864.939	59.05
865.113	-74.07
865.287	73.39
865.461	-80.21
865.634	-41.3
865.808	20.14
865.982	-72.02
866.156	-82.26
866.329	-67.92
866.503	-18.77
866.676	-4.44
866.85	44.71
867.024	3.75
867.197	-45.4
867.371	-22.87
867.544	9.9
867.718	-2.39
867.891	87.72
868.065	-133.46
868.238	-6.49
868.412	77.48
868.585	87.72
868.759	-88.4
868.932	-16.73
869.105	-59.73
869.279	-55.64
869.452	-110.93
869.625	13.99
869.799	-59.73
869.972	-125.27
870.145	-33.11
870.319	85.67
870.492	-69.97
870.665	-67.92
870.838	-98.64
871.011	-166.23
871.185	-55.64
871.358	-86.36
871.531	22.19
871.704	-100.69
871.877	-31.06
872.05	-82.26
872.223	-88.4
872.396	81.58
872.569	-2.39
872.742	-135.51
872.915	24.23
873.088	22.19
873.261	-133.46
873.434	52.91
873.607	13.99
873.78	9.9
873.953	-67.92
874.126	52.91
874.299	26.28
874.471	-51.54
874.644	-24.92
874.817	20.14
874.99	79.53
875.163	16.04
875.335	57
875.508	-43.35
875.681	44.71
875.853	-41.3
876.026	-4.44
876.199	-6.49
876.371	-18.77
876.544	-69.97
876.717	-18.77
876.889	-24.92
877.062	-14.68
877.234	-59.73
877.407	-47.44
877.579	-8.53
877.752	-0.34
877.924	9.9
878.097	-33.11
878.269	-12.63
878.442	32.43
878.614	7.85
878.786	-43.35
878.959	-2.39
879.131	-18.77
879.303	-108.88
879.476	-72.02
879.648	44.71
879.82	-49.49
879.993	-86.36
880.165	-123.22
880.337	-125.27
880.509	16.04
880.681	-131.41
880.854	-67.92
881.026	85.67
881.198	181.93
881.37	48.81
881.542	26.28
881.714	-24.92
881.886	-78.16
882.058	16.04
882.23	34.47
882.402	-41.3
882.574	-26.96
882.746	77.48
882.918	85.67
883.09	22.19
883.262	-92.5
883.434	-53.59
883.606	-143.7
883.778	20.14
883.95	102.06
884.122	-63.83
884.293	54.95
884.465	-33.11
884.637	-20.82
884.809	-67.92
884.98	44.71
885.152	-0.34
885.324	24.23
885.496	-119.12
885.667	-35.16
885.839	-41.3
886.011	46.76
886.182	110.25
886.354	59.05
886.525	54.95
886.697	-0.34
886.869	-63.83
887.04	-86.36
887.212	46.76
887.383	140.97
887.555	108.2
887.726	-119.12
887.897	9.9
888.069	-0.34
888.24	54.95
888.412	-16.73
888.583	-29.01
888.754	5.8
888.926	-149.84
889.097	-4.44
889.268	-137.56
889.44	-14.68
889.611	-110.93
889.782	-67.92
889.953	-88.4
890.125	54.95
890.296	-125.27
890.467	-102.74
890.638	-35.16
890.809	-18.77
890.98	-86.36
891.151	48.81
891.323	67.24
891.494	-43.35
891.665	-88.4
891.836	-10.58
892.007	11.95
892.178	77.48
892.349	1.71
892.52	-84.31
892.691	-55.64
892.862	-47.44
893.032	-166.23
893.203	-47.44
893.374	13.99
893.545	3.75
893.716	9.9
893.887	9.9
894.057	-43.35
894.228	-115.03
894.399	-31.06
894.57	65.19
894.74	1.71
894.911	69.29
895.082	-69.97
895.253	-115.03
895.423	5.8
895.594	95.91
895.764	26.28
895.935	-127.32
896.106	28.33
896.276	-98.64
896.447	-33.11
896.617	-106.84
896.788	-22.87
896.958	32.43
897.129	-31.06
897.299	-76.12
897.47	48.81
897.64	-26.96
897.81	7.85
897.981	95.91
898.151	-90.45
898.322	-33.11
898.492	48.81
898.662	-39.25
898.832	-104.79
899.003	-37.2
899.173	89.77
899.343	-104.79
899.513	-131.41
