Data from USB4F104151__59__09-28-52-599.txt Node

Date: Wed Feb 26 09:28:52 EST 2025
User: louis
Spectrometer: USB4F10415
Trigger mode: 4
Integration Time (sec): 1.000000E-1
Scans to average: 1
Electric dark correction enabled: true
Nonlinearity correction enabled: false
Boxcar width: 0
XAxis mode: Wavelengths
Number of Pixels in Spectrum: 3648
>>>>>Begin Spectral Data<<<<<
178.204	-336.21
178.424	-336.21
178.644	-336.21
178.864	-397.65
179.084	-340.3
179.304	-20.82
179.524	40.62
179.744	-78.16
179.964	81.58
180.184	-35.16
180.404	42.67
180.624	30.38
180.844	-43.35
181.064	-26.96
181.283	-18.77
181.503	-12.63
181.723	40.62
181.943	-110.93
182.163	163.5
182.383	-33.11
182.602	-20.82
182.822	126.63
183.042	65.19
183.262	-63.83
183.482	3.75
183.701	3.75
183.921	44.71
184.141	-10.58
184.361	106.15
184.58	1.71
184.8	40.62
185.02	48.81
185.239	110.25
185.459	71.34
185.679	136.87
185.898	-69.97
186.118	134.82
186.338	69.29
186.557	81.58
186.777	-45.4
186.997	52.91
187.216	1.71
187.436	194.22
187.655	-22.87
187.875	-4.44
188.095	-16.73
188.314	114.34
188.534	79.53
188.753	-22.87
188.973	132.78
189.192	210.6
189.412	69.29
189.631	-0.34
189.851	-12.63
190.07	124.58
190.29	-0.34
190.509	3.75
190.729	-20.82
190.948	108.2
191.168	177.83
191.387	71.34
191.607	28.33
191.826	61.1
192.045	7.85
192.265	-41.3
192.484	44.71
192.704	36.52
192.923	-110.93
193.142	208.55
193.362	28.33
193.581	186.02
193.8	-0.34
194.02	73.39
194.239	42.67
194.458	73.39
194.678	-22.87
194.897	61.1
195.116	-20.82
195.335	-4.44
195.555	20.14
195.774	3.75
195.993	87.72
196.212	9.9
196.432	-57.68
196.651	-55.64
196.87	-12.63
197.089	171.69
197.308	3.75
197.528	-8.53
197.747	-12.63
197.966	71.34
198.185	85.67
198.404	-80.21
198.623	97.96
198.842	130.73
199.062	65.19
199.281	67.24
199.5	36.52
199.719	134.82
199.938	122.54
200.157	48.81
200.376	85.67
200.595	79.53
200.814	65.19
201.033	-8.53
201.252	149.16
201.471	-12.63
201.69	57
201.909	42.67
202.128	89.77
202.347	100.01
202.566	44.71
202.785	-20.82
203.004	-37.2
203.223	190.12
203.442	18.09
203.661	-88.4
203.879	1.71
204.098	65.19
204.317	40.62
204.536	89.77
204.755	181.93
204.974	143.02
205.193	48.81
205.411	116.39
205.63	95.91
205.849	79.53
206.068	-33.11
206.287	-53.59
206.505	91.82
206.724	-2.39
206.943	7.85
207.162	-39.25
207.381	85.67
207.599	-33.11
207.818	-45.4
208.037	-24.92
208.255	9.9
208.474	85.67
208.693	69.29
208.911	-29.01
209.13	65.19
209.349	71.34
209.567	42.67
209.786	18.09
210.005	161.45
210.223	-0.34
210.442	-53.59
210.661	50.86
210.879	48.81
211.098	30.38
211.316	-24.92
211.535	77.48
211.753	-20.82
211.972	32.43
212.191	-31.06
212.409	-57.68
212.628	18.09
212.846	7.85
213.065	16.04
213.283	134.82
213.502	46.76
213.72	110.25
213.938	46.76
214.157	-16.73
214.375	130.73
214.594	22.19
214.812	30.38
215.031	-16.73
215.249	-92.5
215.467	77.48
215.686	61.1
215.904	69.29
216.122	-29.01
216.341	102.06
216.559	24.23
216.778	77.48
216.996	118.44
217.214	44.71
217.432	-6.49
217.651	-131.41
217.869	16.04
218.087	85.67
218.306	36.52
218.524	159.4
218.742	13.99
218.96	22.19
219.179	38.57
219.397	20.14
219.615	165.54
219.833	63.15
220.051	-53.59
220.27	69.29
220.488	77.48
220.706	95.91
220.924	9.9
221.142	69.29
221.36	20.14
221.578	67.24
221.796	7.85
222.015	69.29
222.233	77.48
222.451	89.77
222.669	-86.36
222.887	93.87
223.105	18.09
223.323	-63.83
223.541	-39.25
223.759	85.67
223.977	69.29
224.195	167.59
224.413	108.2
224.631	69.29
224.849	48.81
225.067	218.79
225.285	-18.77
225.503	34.47
225.721	-141.65
225.939	-55.64
226.157	57
226.375	194.22
226.592	-86.36
226.81	-6.49
227.028	46.76
227.246	155.3
227.464	28.33
227.682	171.69
227.9	95.91
228.117	54.95
228.335	77.48
228.553	50.86
228.771	59.05
228.989	65.19
229.206	61.1
229.424	32.43
229.642	-31.06
229.86	-14.68
230.077	87.72
230.295	-4.44
230.513	91.82
230.731	44.71
230.948	48.81
231.166	91.82
231.384	22.19
231.601	-84.31
231.819	145.06
232.037	-45.4
232.254	-106.84
232.472	-0.34
232.689	40.62
232.907	67.24
233.125	-6.49
233.342	-51.54
233.56	16.04
233.777	-24.92
233.995	20.14
234.213	79.53
234.43	155.3
234.648	16.04
234.865	38.57
235.083	54.95
235.3	32.43
235.518	151.21
235.735	85.67
235.953	89.77
236.17	54.95
236.388	-22.87
236.605	36.52
236.822	95.91
237.04	81.58
237.257	16.04
237.475	-53.59
237.692	71.34
237.909	71.34
238.127	48.81
238.344	26.28
238.562	20.14
238.779	-20.82
238.996	-61.78
239.214	83.63
239.431	124.58
239.648	-18.77
239.865	147.11
240.083	83.63
240.3	-8.53
240.517	-72.02
240.735	-37.2
240.952	3.75
241.169	61.1
241.386	71.34
241.603	5.8
241.821	-6.49
242.038	155.3
242.255	54.95
242.472	-104.79
242.689	16.04
242.907	100.01
243.124	-20.82
243.341	22.19
243.558	-20.82
243.775	-102.74
243.992	-55.64
244.209	42.67
244.426	194.22
244.643	40.62
244.86	24.23
245.078	95.91
245.295	36.52
245.512	-2.39
245.729	61.1
245.946	52.91
246.163	-8.53
246.38	-37.2
246.597	61.1
246.814	65.19
247.031	-43.35
247.248	-26.96
247.464	32.43
247.681	1.71
247.898	130.73
248.115	50.86
248.332	22.19
248.549	179.88
248.766	151.21
248.983	93.87
249.2	73.39
249.417	95.91
249.633	-47.44
249.85	57
250.067	32.43
250.284	73.39
250.501	34.47
250.717	102.06
250.934	13.99
251.151	46.76
251.368	44.71
251.585	143.02
251.801	102.06
252.018	-39.25
252.235	83.63
252.451	18.09
252.668	-49.49
252.885	122.54
253.102	75.43
253.318	26.28
253.535	89.77
253.752	32.43
253.968	38.57
254.185	-74.07
254.401	-29.01
254.618	24.23
254.835	20.14
255.051	155.3
255.268	65.19
255.484	32.43
255.701	3.75
255.917	118.44
256.134	-45.4
256.351	-24.92
256.567	16.04
256.784	26.28
257	5.8
257.217	93.87
257.433	59.05
257.65	93.87
257.866	61.1
258.082	-0.34
258.299	24.23
258.515	20.14
258.732	-8.53
258.948	16.04
259.165	44.71
259.381	18.09
259.597	89.77
259.814	-26.96
260.03	-0.34
260.246	44.71
260.463	77.48
260.679	124.58
260.895	26.28
261.112	59.05
261.328	24.23
261.544	-18.77
261.761	149.16
261.977	-72.02
262.193	13.99
262.409	28.33
262.626	91.82
262.842	22.19
263.058	-33.11
263.274	16.04
263.49	48.81
263.707	110.25
263.923	124.58
264.139	-47.44
264.355	48.81
264.571	134.82
264.787	3.75
265.004	28.33
265.22	40.62
265.436	-12.63
265.652	-16.73
265.868	7.85
266.084	-10.58
266.3	140.97
266.516	-6.49
266.732	38.57
266.948	71.34
267.164	1.71
267.38	32.43
267.596	93.87
267.812	163.5
268.028	18.09
268.244	-4.44
268.46	18.09
268.676	36.52
268.892	11.95
269.108	-37.2
269.324	65.19
269.54	-12.63
269.756	124.58
269.972	-78.16
270.188	-20.82
270.403	-63.83
270.619	-8.53
270.835	69.29
271.051	-0.34
271.267	-26.96
271.483	34.47
271.698	57
271.914	89.77
272.13	-29.01
272.346	75.43
272.562	-12.63
272.777	81.58
272.993	-12.63
273.209	22.19
273.425	40.62
273.64	5.8
273.856	145.06
274.072	32.43
274.287	-45.4
274.503	71.34
274.719	20.14
274.934	57
275.15	32.43
275.366	54.95
275.581	20.14
275.797	85.67
276.012	34.47
276.228	26.28
276.444	20.14
276.659	102.06
276.875	-55.64
277.09	32.43
277.306	32.43
277.521	-12.63
277.737	18.09
277.952	48.81
278.168	-26.96
278.383	46.76
278.599	-4.44
278.814	93.87
279.03	77.48
279.245	104.11
279.461	-12.63
279.676	85.67
279.892	-55.64
280.107	-37.2
280.322	-22.87
280.538	42.67
280.753	-12.63
280.969	61.1
281.184	-37.2
281.399	95.91
281.615	52.91
281.83	46.76
282.045	-117.08
282.26	36.52
282.476	122.54
282.691	54.95
282.906	54.95
283.122	-22.87
283.337	-33.11
283.552	77.48
283.767	-61.78
283.983	175.78
284.198	-41.3
284.413	42.67
284.628	11.95
284.843	13.99
285.058	79.53
285.274	69.29
285.489	-37.2
285.704	-2.39
285.919	-37.2
286.134	-4.44
286.349	34.47
286.564	-4.44
286.779	140.97
286.995	11.95
287.21	-88.4
287.425	28.33
287.64	28.33
287.855	73.39
288.07	-16.73
288.285	202.41
288.5	190.12
288.715	73.39
288.93	26.28
289.145	32.43
289.36	-4.44
289.575	-90.45
289.79	93.87
290.004	5.8
290.219	44.71
290.434	3.75
290.649	16.04
290.864	-72.02
291.079	22.19
291.294	59.05
291.509	65.19
291.724	7.85
291.938	-29.01
292.153	-31.06
292.368	-33.11
292.583	16.04
292.798	122.54
293.012	26.28
293.227	65.19
293.442	44.71
293.657	-16.73
293.871	116.39
294.086	57
294.301	116.39
294.516	112.3
294.73	79.53
294.945	24.23
295.16	-2.39
295.374	79.53
295.589	85.67
295.804	-4.44
296.018	16.04
296.233	153.26
296.447	22.19
296.662	-39.25
296.877	100.01
297.091	69.29
297.306	32.43
297.52	13.99
297.735	59.05
297.949	44.71
298.164	46.76
298.378	5.8
298.593	-22.87
298.807	-43.35
299.022	59.05
299.236	173.74
299.451	-69.97
299.665	3.75
299.88	-4.44
300.094	26.28
300.309	5.8
300.523	46.76
300.737	-14.68
300.952	26.28
301.166	100.01
301.381	-33.11
301.595	-29.01
301.809	3.75
302.024	13.99
302.238	-14.68
302.452	71.34
302.667	1.71
302.881	79.53
303.095	48.81
303.309	50.86
303.524	50.86
303.738	34.47
303.952	11.95
304.166	16.04
304.381	-94.55
304.595	91.82
304.809	11.95
305.023	118.44
305.237	-18.77
305.452	46.76
305.666	-37.2
305.88	73.39
306.094	81.58
306.308	59.05
306.522	40.62
306.736	73.39
306.95	46.76
307.164	-92.5
307.379	3.75
307.593	126.63
307.807	100.01
308.021	108.2
308.235	85.67
308.449	-129.36
308.663	75.43
308.877	157.35
309.091	44.71
309.305	130.73
309.519	-168.27
309.733	85.67
309.947	-61.78
310.161	102.06
310.374	40.62
310.588	42.67
310.802	-29.01
311.016	-41.3
311.23	102.06
311.444	-45.4
311.658	44.71
311.872	140.97
312.085	13.99
312.299	116.39
312.513	83.63
312.727	48.81
312.941	-18.77
313.154	63.15
313.368	18.09
313.582	57
313.796	-16.73
314.009	-8.53
314.223	102.06
314.437	95.91
314.651	130.73
314.864	-37.2
315.078	-37.2
315.292	-39.25
315.505	-24.92
315.719	-0.34
315.933	57
316.146	-24.92
316.36	20.14
316.573	124.58
316.787	-45.4
317.001	93.87
317.214	7.85
317.428	11.95
317.641	-80.21
317.855	-8.53
318.068	61.1
318.282	85.67
318.495	83.63
318.709	42.67
318.922	-45.4
319.136	159.4
319.349	130.73
319.563	-20.82
319.776	18.09
319.99	-84.31
320.203	57
320.417	-14.68
320.63	44.71
320.843	171.69
321.057	36.52
321.27	-18.77
321.483	-16.73
321.697	36.52
321.91	46.76
322.124	40.62
322.337	20.14
322.55	-18.77
322.763	118.44
322.977	26.28
323.19	1.71
323.403	71.34
323.617	52.91
323.83	28.33
324.043	75.43
324.256	18.09
324.469	-78.16
324.683	108.2
324.896	-59.73
325.109	-6.49
325.322	-29.01
325.535	102.06
325.748	77.48
325.962	112.3
326.175	-12.63
326.388	-6.49
326.601	87.72
326.814	-4.44
327.027	79.53
327.24	143.02
327.453	-14.68
327.666	57
327.879	118.44
328.092	26.28
328.305	57
328.518	-162.13
328.731	-24.92
328.944	11.95
329.157	28.33
329.37	-35.16
329.583	153.26
329.796	77.48
330.009	-24.92
330.222	61.1
330.435	83.63
330.648	-29.01
330.861	13.99
331.073	65.19
331.286	69.29
331.499	38.57
331.712	28.33
331.925	40.62
332.138	44.71
332.35	59.05
332.563	-45.4
332.776	106.15
332.989	22.19
333.202	50.86
333.414	65.19
333.627	48.81
333.84	-43.35
334.053	97.96
334.265	9.9
334.478	104.11
334.691	-6.49
334.903	9.9
335.116	36.52
335.329	-10.58
335.541	61.1
335.754	97.96
335.966	-22.87
336.179	22.19
336.392	-0.34
336.604	-41.3
336.817	77.48
337.029	-12.63
337.242	9.9
337.454	-29.01
337.667	40.62
337.88	124.58
338.092	11.95
338.305	9.9
338.517	-0.34
338.729	100.01
338.942	81.58
339.154	-80.21
339.367	-59.73
339.579	81.58
339.792	13.99
340.004	100.01
340.217	9.9
340.429	-22.87
340.641	-20.82
340.854	-78.16
341.066	-4.44
341.278	110.25
341.491	161.45
341.703	-8.53
341.915	-29.01
342.128	79.53
342.34	153.26
342.552	-37.2
342.764	61.1
342.977	-2.39
343.189	77.48
343.401	26.28
343.613	-65.88
343.826	16.04
344.038	9.9
344.25	20.14
344.462	11.95
344.674	69.29
344.886	11.95
345.099	32.43
345.311	11.95
345.523	-90.45
345.735	-88.4
345.947	11.95
346.159	24.23
346.371	34.47
346.583	-18.77
346.795	200.36
347.007	71.34
347.219	5.8
347.431	40.62
347.643	63.15
347.855	-8.53
348.067	192.17
348.279	-59.73
348.491	36.52
348.703	48.81
348.915	9.9
349.127	-4.44
349.339	30.38
349.551	-4.44
349.763	34.47
349.975	16.04
350.187	93.87
350.399	75.43
350.61	30.38
350.822	-22.87
351.034	81.58
351.246	42.67
351.458	-6.49
351.669	100.01
351.881	-45.4
352.093	110.25
352.305	77.48
352.517	61.1
352.728	59.05
352.94	-31.06
353.152	48.81
353.363	36.52
353.575	57
353.787	173.74
353.999	20.14
354.21	50.86
354.422	-12.63
354.633	38.57
354.845	61.1
355.057	9.9
355.268	93.87
355.48	57
355.692	-80.21
355.903	-33.11
356.115	-80.21
356.326	-88.4
356.538	112.3
356.749	73.39
356.961	118.44
357.172	20.14
357.384	11.95
357.595	155.3
357.807	-18.77
358.018	16.04
358.23	16.04
358.441	118.44
358.653	28.33
358.864	20.14
359.075	20.14
359.287	85.67
359.498	85.67
359.709	100.01
359.921	11.95
360.132	52.91
360.344	73.39
360.555	-16.73
360.766	20.14
360.977	-43.35
361.189	93.87
361.4	89.77
361.611	100.01
361.823	102.06
362.034	7.85
362.245	-74.07
362.456	52.91
362.667	36.52
362.879	32.43
363.09	57
363.301	26.28
363.512	-4.44
363.723	-53.59
363.935	-29.01
364.146	124.58
364.357	7.85
364.568	36.52
364.779	-53.59
364.99	57
365.201	46.76
365.412	54.95
365.623	-74.07
365.834	46.76
366.045	71.34
366.256	50.86
366.467	48.81
366.678	26.28
366.889	32.43
367.1	-49.49
367.311	69.29
367.522	1.71
367.733	28.33
367.944	97.96
368.155	24.23
368.366	61.1
368.577	112.3
368.788	85.67
368.999	-6.49
369.209	40.62
369.42	212.65
369.631	132.78
369.842	61.1
370.053	11.95
370.264	54.95
370.474	-72.02
370.685	34.47
370.896	18.09
371.107	149.16
371.317	16.04
371.528	87.72
371.739	126.63
371.95	48.81
372.16	24.23
372.371	-35.16
372.582	-22.87
372.792	61.1
373.003	61.1
373.214	-0.34
373.424	126.63
373.635	-49.49
373.846	36.52
374.056	1.71
374.267	83.63
374.477	63.15
374.688	36.52
374.898	67.24
375.109	67.24
375.319	48.81
375.53	106.15
375.74	112.3
375.951	-8.53
376.161	147.11
376.372	63.15
376.582	20.14
376.793	71.34
377.003	-74.07
377.214	-43.35
377.424	73.39
377.635	13.99
377.845	-47.44
378.055	126.63
378.266	-0.34
378.476	50.86
378.686	42.67
378.897	44.71
379.107	102.06
379.317	65.19
379.528	18.09
379.738	44.71
379.948	-41.3
380.158	116.39
380.369	73.39
380.579	18.09
380.789	100.01
380.999	-24.92
381.21	34.47
381.42	222.89
381.63	-53.59
381.84	112.3
382.05	69.29
382.261	9.9
382.471	89.77
382.681	46.76
382.891	124.58
383.101	114.34
383.311	-6.49
383.521	-12.63
383.731	36.52
383.941	71.34
384.151	54.95
384.361	24.23
384.571	77.48
384.781	1.71
384.991	116.39
385.201	140.97
385.411	26.28
385.621	-0.34
385.831	-22.87
386.041	59.05
386.251	42.67
386.461	87.72
386.671	13.99
386.881	30.38
387.091	52.91
387.301	77.48
387.511	85.67
387.72	69.29
387.93	61.1
388.14	-127.32
388.35	26.28
388.56	132.78
388.769	67.24
388.979	5.8
389.189	-29.01
389.399	7.85
389.609	69.29
389.818	102.06
390.028	-18.77
390.238	73.39
390.447	-0.34
390.657	73.39
390.867	-47.44
391.076	-53.59
391.286	48.81
391.496	-20.82
391.705	-22.87
391.915	61.1
392.125	79.53
392.334	-10.58
392.544	91.82
392.753	5.8
392.963	-4.44
393.172	110.25
393.382	5.8
393.591	163.5
393.801	13.99
394.01	126.63
394.22	11.95
394.429	85.67
394.639	75.43
394.848	7.85
395.058	61.1
395.267	34.47
395.477	61.1
395.686	57
395.895	161.45
396.105	130.73
396.314	73.39
396.524	57
396.733	9.9
396.942	143.02
397.152	75.43
397.361	61.1
397.57	11.95
397.78	9.9
397.989	57
398.198	122.54
398.407	20.14
398.617	16.04
398.826	48.81
399.035	59.05
399.244	114.34
399.453	57
399.663	24.23
399.872	-0.34
400.081	9.9
400.29	159.4
400.499	44.71
400.708	32.43
400.917	-29.01
401.127	24.23
401.336	3.75
401.545	104.11
401.754	91.82
401.963	46.76
402.172	3.75
402.381	-24.92
402.59	32.43
402.799	18.09
403.008	143.02
403.217	75.43
403.426	34.47
403.635	-12.63
403.844	3.75
404.053	16.04
404.262	44.71
404.471	114.34
404.68	97.96
404.888	85.67
405.097	46.76
405.306	42.67
405.515	132.78
405.724	26.28
405.933	112.3
406.142	44.71
406.35	93.87
406.559	26.28
406.768	44.71
406.977	181.93
407.185	57
407.394	34.47
407.603	-69.97
407.812	95.91
408.02	100.01
408.229	81.58
408.438	87.72
408.646	5.8
408.855	-16.73
409.064	-18.77
409.272	9.9
409.481	63.15
409.69	-39.25
409.898	-8.53
410.107	89.77
410.315	59.05
410.524	-33.11
410.733	1.71
410.941	20.14
411.15	126.63
411.358	108.2
411.567	102.06
411.775	3.75
411.984	22.19
412.192	34.47
412.401	26.28
412.609	50.86
412.818	134.82
413.026	18.09
413.234	-2.39
413.443	-16.73
413.651	-41.3
413.86	1.71
414.068	116.39
414.276	171.69
414.485	-29.01
414.693	167.59
414.901	149.16
415.11	40.62
415.318	18.09
415.526	52.91
415.734	54.95
415.943	11.95
416.151	167.59
416.359	-0.34
416.567	42.67
416.776	81.58
416.984	46.76
417.192	192.17
417.4	-35.16
417.608	-16.73
417.817	9.9
418.025	65.19
418.233	153.26
418.441	-59.73
418.649	36.52
418.857	149.16
419.065	183.98
419.273	28.33
419.481	59.05
419.689	1.71
419.897	22.19
420.105	-98.64
420.313	118.44
420.521	151.21
420.729	102.06
420.937	-16.73
421.145	61.1
421.353	11.95
421.561	173.74
421.769	52.91
421.977	22.19
422.185	93.87
422.393	34.47
422.601	89.77
422.809	-12.63
423.017	11.95
423.224	91.82
423.432	75.43
423.64	36.52
423.848	106.15
424.056	-33.11
424.263	128.68
424.471	-24.92
424.679	110.25
424.887	-33.11
425.094	171.69
425.302	83.63
425.51	-76.12
425.718	169.64
425.925	-41.3
426.133	18.09
426.341	183.98
426.548	24.23
426.756	83.63
426.964	20.14
427.171	-39.25
427.379	59.05
427.586	38.57
427.794	48.81
428.001	130.73
428.209	57
428.417	77.48
428.624	20.14
428.832	63.15
429.039	-10.58
429.247	13.99
429.454	75.43
429.662	200.36
429.869	106.15
430.076	102.06
430.284	138.92
430.491	186.02
430.699	136.87
430.906	165.54
431.114	110.25
431.321	100.01
431.528	97.96
431.736	77.48
431.943	126.63
432.15	138.92
432.358	200.36
432.565	226.98
432.772	-53.59
432.979	132.78
433.187	102.06
433.394	153.26
433.601	87.72
433.808	134.82
434.016	222.89
434.223	181.93
434.43	155.3
434.637	177.83
434.844	169.64
435.052	233.13
435.259	173.74
435.466	216.74
435.673	229.03
435.88	335.53
436.087	226.98
436.294	282.28
436.501	274.09
436.708	186.02
436.915	196.26
437.122	259.75
437.329	196.26
437.537	335.53
437.743	231.08
437.95	372.39
438.157	272.04
438.364	282.28
438.571	239.27
438.778	360.1
438.985	325.29
439.192	331.43
439.399	331.43
439.606	482.98
439.813	419.49
440.02	503.46
440.227	568.99
440.433	509.6
440.64	495.27
440.847	407.2
441.054	503.46
441.261	618.15
441.467	556.71
441.674	497.32
441.881	628.39
442.088	544.42
442.294	636.58
442.501	718.5
442.708	655.01
442.914	577.19
443.121	786.08
443.328	724.64
443.534	773.79
443.741	765.6
443.948	683.68
444.154	829.09
444.361	880.29
444.568	915.1
444.774	888.48
444.981	878.24
445.187	906.91
445.394	917.15
445.6	966.3
445.807	1130.14
446.013	1089.18
446.22	1207.96
446.426	1224.34
446.633	1269.4
446.839	1343.13
447.046	1142.43
447.252	1388.18
447.459	1322.65
447.665	1423
447.871	1537.68
448.078	1732.24
448.284	1576.59
448.491	1726.1
448.697	1752.72
448.903	1787.54
449.11	1894.03
449.316	1889.93
449.522	1982.09
449.728	2078.35
449.935	2252.42
450.141	2137.74
450.347	2244.23
450.553	2442.89
450.76	2277
450.966	2465.41
451.172	2584.2
451.378	2707.07
451.584	2901.63
451.791	2850.43
451.997	2985.6
452.203	2938.49
452.409	3208.83
452.615	3391.09
452.821	3245.69
453.027	3221.11
453.233	3761.78
453.44	3567.22
453.646	3874.42
453.852	3933.81
454.058	4130.41
454.264	4206.19
454.47	4628.07
454.676	4562.53
454.882	4849.25
455.088	4572.77
455.294	4871.78
455.5	5232.22
455.705	5631.57
455.911	5475.93
456.117	5779.03
456.323	5834.32
456.529	5811.79
456.735	6506.06
456.941	6567.49
457.147	6919.75
457.352	7124.54
457.558	7224.89
457.764	7798.32
457.97	7931.44
458.176	8148.53
458.381	8637.99
458.587	8859.17
458.793	9068.06
458.999	9385.5
459.204	10423.82
459.41	10626.57
459.616	10501.64
459.821	11283.97
460.027	11959.8
460.233	12406.25
460.438	12314.09
460.644	12959.2
460.85	13278.69
461.055	13411.81
461.261	14282.19
461.466	14028.24
461.672	14136.79
461.878	16008.63
462.083	15627.71
462.289	16010.68
462.494	16563.63
462.7	16854.44
462.905	17008.04
463.111	18412.95
463.316	19387.78
463.522	19649.92
463.727	20041.08
463.932	21267.81
464.138	21611.87
464.343	22598.99
464.549	22699.34
464.754	24544.56
464.959	24927.53
465.165	25226.54
465.37	25052.46
465.575	25232.68
465.781	26987.79
465.986	27929.86
466.191	27317.51
466.397	27553.03
466.602	26748.18
466.807	28441.85
467.012	29175.02
467.218	29289.71
467.423	29514.98
467.628	30319.84
467.833	31743.17
468.038	31235.28
468.244	30553.3
468.449	32095.42
468.654	31538.38
468.859	31433.93
469.064	31429.84
469.269	30657.75
469.474	31143.12
469.679	32099.52
469.885	31120.59
470.09	31562.95
470.295	31583.43
470.5	30469.34
470.705	30770.39
470.91	30221.53
471.115	30168.29
471.32	30731.48
471.525	30352.6
471.73	29330.67
471.935	29074.67
472.139	27933.95
472.344	27989.25
472.549	28228.86
472.754	27454.73
472.959	26793.23
473.164	25842.98
473.369	25292.07
473.574	26268.95
473.778	25943.33
473.983	25382.18
474.188	24880.43
474.393	23381.32
474.598	23651.65
474.802	23053.64
475.007	22691.15
475.212	22672.72
475.417	21716.32
475.621	21673.31
475.826	21249.38
476.031	20931.95
476.235	20190.58
476.44	20385.14
476.645	19615.1
476.849	19502.47
477.054	19047.82
477.259	18922.89
477.463	18857.35
477.668	18148.76
477.872	18331.03
478.077	17812.89
478.282	17208.74
478.486	17208.74
478.691	16971.18
478.895	16737.71
479.1	16633.26
479.304	16752.04
479.509	15783.35
479.713	16231.86
479.918	15988.15
480.122	15449.53
480.326	15611.32
480.531	15627.71
480.735	15220.16
480.94	15156.68
481.144	15535.55
481.348	14855.62
481.553	14984.65
481.757	14441.93
481.961	14761.42
482.166	14489.04
482.37	14599.63
482.574	14167.51
482.778	14116.31
482.983	14575.05
483.187	14157.27
483.391	13919.7
483.595	13784.54
483.8	13385.18
484.004	13647.32
484.208	13651.42
484.412	13374.94
484.616	13172.19
484.821	13139.43
485.025	12656.11
485.229	12813.8
485.433	12522.99
485.637	12324.33
485.841	12238.32
486.045	12011
486.249	12121.59
486.453	11582.97
486.657	11767.29
486.861	11488.76
487.065	11087.36
487.269	11048.45
487.473	10821.13
487.677	10765.83
487.881	10907.14
488.085	10331.66
488.289	10298.89
488.493	9989.65
488.697	10057.23
488.901	9743.89
489.105	9506.33
489.309	9545.24
489.512	9219.61
489.716	9059.87
489.92	9002.53
490.124	8781.35
490.328	8844.84
490.531	8283.69
490.735	8324.65
490.939	8107.57
491.143	7923.25
491.346	7851.57
491.55	7917.11
491.754	7683.64
491.958	7614.01
492.161	7444.03
492.365	7235.13
492.569	7249.47
492.772	6968.9
492.976	7083.58
493.18	6956.61
493.383	6684.23
493.587	6680.13
493.79	6573.64
493.994	6501.96
494.197	6301.26
494.401	6555.21
494.605	6207.05
494.808	6391.37
495.012	6327.88
495.215	6448.71
495.419	6288.97
495.622	5924.43
495.825	6104.65
496.029	6061.65
496.232	6073.93
496.436	5975.63
496.639	6231.63
496.843	5957.2
497.046	5938.77
497.249	6092.37
497.453	6047.31
497.656	5920.34
497.859	5834.32
498.063	5951.06
498.266	6051.41
498.469	5822.03
498.673	5875.28
498.876	5949.01
499.079	6098.51
499.282	6010.45
499.485	6278.73
499.689	5955.15
499.892	6366.79
500.095	6016.59
500.298	6209.1
500.501	6213.2
500.705	6331.98
500.908	6399.56
501.111	6348.36
501.314	6360.65
501.517	6583.88
501.72	6557.25
501.923	6579.78
502.126	6684.23
502.329	6938.18
502.532	6936.13
502.735	6741.57
502.938	7040.58
503.141	6856.26
503.344	6932.03
503.547	7218.75
503.75	7093.82
503.953	7351.87
504.156	7587.38
504.359	7466.55
504.562	7765.56
504.765	7900.72
504.968	7849.52
505.17	7880.24
505.373	8025.65
505.576	8252.97
505.779	8226.35
505.982	8472.11
506.185	8683.05
506.387	8672.81
506.59	8674.85
506.793	8699.43
506.996	8953.38
507.198	9586.2
507.401	9451.03
507.604	9764.37
507.807	9762.33
508.009	10092.05
508.212	10276.37
508.415	10257.93
508.617	10540.55
508.82	10759.69
509.022	10677.77
509.225	11286.01
509.428	11419.13
509.63	11556.35
509.833	11851.25
510.035	12088.82
510.238	12221.94
510.44	12471.79
510.643	12789.22
510.845	13309.41
511.048	13524.44
511.25	13563.36
511.453	13979.09
511.655	14689.74
511.858	14513.61
512.06	14900.68
512.262	15193.54
512.465	15707.58
512.667	16051.64
512.87	16266.67
513.072	16510.38
513.274	17012.14
513.477	17282.47
513.679	17868.19
513.881	17896.86
514.084	18312.6
514.286	18740.62
514.488	19217.8
514.69	20059.51
514.893	20077.94
515.095	20600.18
515.297	21005.67
515.499	21364.07
515.701	21724.51
515.904	22203.74
516.106	22590.8
516.308	23182.66
516.51	23729.47
516.712	23604.55
516.914	24315.19
517.116	25058.6
517.318	25242.92
517.52	25883.94
517.722	26078.49
517.925	26832.15
518.127	27022.61
518.329	27456.78
518.531	27917.57
518.733	28079.36
518.935	29064.43
519.136	28964.08
519.338	29908.19
519.54	30184.67
519.742	30547.16
519.944	31114.45
520.146	31534.28
520.348	31571.14
520.55	32257.21
520.752	32328.89
520.954	33189.04
521.155	33318.06
521.357	33744.04
521.559	34215.07
521.761	34931.86
521.963	34763.93
522.164	35077.27
522.366	35259.54
522.568	35935.37
522.77	35970.18
522.971	36805.75
523.173	36197.51
523.375	36701.31
523.576	36525.18
523.778	36918.39
523.98	37196.92
524.181	37737.58
524.383	37358.7
524.584	37821.55
524.786	37663.85
524.988	37471.34
525.189	38286.43
525.391	38034.53
525.592	38202.47
525.794	38204.52
525.995	37862.5
526.197	37739.63
526.398	37850.22
526.6	37762.15
526.801	37893.22
527.003	37248.11
527.204	37411.95
527.406	37917.8
527.607	37235.83
527.808	36959.35
528.01	36340.86
528.211	36195.46
528.412	36863.1
528.614	36410.5
528.815	35722.38
529.016	35939.46
529.218	35234.96
529.419	35093.65
529.62	34778.26
529.822	34356.38
530.023	34403.49
530.224	33828.01
530.425	33539.24
530.626	32875.7
530.828	32994.48
531.029	32871.61
531.23	32302.27
531.431	31556.81
531.632	31642.82
531.833	31184.08
532.035	30999.76
532.236	30469.34
532.437	30295.26
532.638	29437.16
532.839	29557.99
533.04	28996.85
533.241	28617.97
533.442	28671.22
533.643	28175.61
533.844	27653.38
534.045	27168.01
534.246	26739.99
534.447	26938.64
534.648	26072.35
534.849	25816.35
535.05	25578.79
535.251	25083.18
535.451	24909.1
535.652	24307
535.853	24239.42
536.054	23967.04
536.255	23708.99
536.456	22789.45
536.657	23131.47
536.857	22668.62
537.058	21990.75
537.259	22064.47
537.46	21611.87
537.66	21484.9
537.861	20929.9
538.062	20819.31
538.263	20331.89
538.463	20321.65
538.664	20069.75
538.865	19574.14
539.065	19432.83
539.266	19078.54
539.466	19010.95
539.667	18695.57
539.868	18767.24
540.068	18187.67
540.269	18392.47
540.469	17884.57
540.67	17790.36
540.87	17546.65
541.071	17073.57
541.271	17098.15
541.472	16729.52
541.672	16817.58
541.873	16502.19
542.073	16295.35
542.274	16070.07
542.474	16100.79
542.675	15705.53
542.875	15576.51
543.075	15424.96
543.276	15138.24
543.476	15287.75
543.676	14775.75
543.877	14702.03
544.077	14421.45
544.277	14525.9
544.478	14306.77
544.678	14089.68
544.878	13864.41
545.078	13641.18
545.279	13526.49
545.479	13329.89
545.679	13565.4
545.879	13114.85
546.079	13067.75
546.28	12824.04
546.48	12707.3
546.68	12692.97
546.88	12482.03
547.08	12484.08
547.28	11990.52
547.48	11916.79
547.68	12142.07
547.88	11744.76
548.081	11492.86
548.281	11496.96
548.481	11324.93
548.681	11259.39
548.881	11038.21
549.081	10909.19
549.28	10540.55
549.48	10518.03
549.68	10423.82
549.88	10462.73
550.08	10042.9
550.28	9926.16
550.48	9866.77
550.68	9760.28
550.88	9496.09
551.08	9256.48
551.279	9348.64
551.479	9217.57
551.679	9174.56
551.879	8818.21
552.079	8707.62
552.278	8750.63
552.478	8549.93
552.678	8373.8
552.878	8427.05
553.077	8132.14
553.277	7974.45
553.477	8089.14
553.676	7730.74
553.876	7571
554.076	7542.33
554.275	7333.43
554.475	7095.87
554.674	7237.18
554.874	7011.9
555.074	6835.78
555.273	6868.55
555.473	6843.97
555.672	6579.78
555.872	6348.36
556.071	6551.11
556.271	6258.25
556.47	6129.23
556.67	6067.79
556.869	5946.96
557.068	5992.02
557.268	5713.49
557.467	5645.91
557.667	5875.28
557.866	5578.33
558.065	5412.44
558.265	5398.1
558.464	5135.96
558.663	5279.32
558.863	5187.16
559.062	5164.64
559.261	4910.69
559.461	4931.17
559.66	4707.94
559.859	4642.4
560.058	4628.07
560.258	4626.02
560.457	4398.7
560.656	4523.62
560.855	4232.81
561.054	4415.08
561.253	4128.36
561.453	4038.25
561.652	4154.99
561.851	4116.08
562.05	3876.46
562.249	3778.16
562.448	3919.47
562.647	3667.57
562.846	3692.15
563.045	3729.01
563.244	3628.66
563.443	3698.29
563.642	3458.68
563.841	3536.5
564.04	3374.71
564.239	3391.09
564.438	3387
564.637	3206.78
564.836	3112.57
565.035	3221.11
565.234	3085.95
565.432	3088
565.631	3069.56
565.83	2924.16
566.029	2897.53
566.228	2842.24
566.427	3040.89
566.625	2832
566.824	2821.76
567.023	2770.56
567.222	2647.68
567.42	2586.24
567.619	2653.83
567.818	2641.54
568.016	2686.59
568.215	2434.69
568.414	2608.77
568.612	2373.25
568.811	2412.17
569.01	2295.43
569.208	2434.69
569.407	2360.97
569.605	2305.67
569.804	2246.28
570.002	2186.89
570.201	2027.15
570.4	2139.79
570.598	2156.17
570.797	2047.63
570.995	2010.76
571.193	2074.25
571.392	2000.52
571.59	1838.73
571.789	1992.33
571.987	2107.02
572.186	1838.73
572.384	1861.26
572.582	1879.69
572.781	1855.12
572.979	1564.31
573.177	1717.9
573.376	1678.99
573.574	1740.43
573.772	1658.51
573.971	1638.03
574.169	1486.48
574.367	1713.81
574.565	1490.58
574.763	1525.4
574.962	1488.53
575.16	1466
575.358	1382.04
575.556	1453.72
575.754	1392.28
575.952	1437.33
576.151	1382.04
576.349	1359.51
576.547	1150.62
576.745	1306.26
576.943	1283.74
577.141	1218.2
577.339	1169.05
577.537	1203.86
577.735	1236.63
577.933	1216.15
578.131	1195.67
578.329	1199.77
578.527	1117.85
578.725	1203.86
578.923	951.96
579.121	1107.61
579.319	1023.64
579.516	1066.65
579.714	1152.67
579.912	1033.88
580.11	911
580.308	970.4
580.506	880.29
580.704	849.57
580.901	937.63
581.099	921.24
581.297	878.24
581.495	894.62
581.692	814.75
581.89	892.57
582.088	951.96
582.285	833.18
582.483	773.79
582.681	751.26
582.878	849.57
583.076	841.37
583.274	722.59
583.471	831.13
583.669	763.55
583.866	659.1
584.064	755.36
584.262	712.35
584.459	657.06
584.657	691.87
584.854	855.71
585.052	761.5
585.249	759.46
585.447	700.06
585.644	540.32
585.841	824.99
586.039	679.58
586.236	714.4
586.434	597.67
586.631	601.76
586.828	575.14
587.026	618.15
587.223	515.75
587.42	503.46
587.618	620.19
587.815	663.2
588.012	632.48
588.21	513.7
588.407	616.1
588.604	513.7
588.801	497.32
588.999	542.37
589.196	581.28
589.393	409.25
589.59	525.99
589.787	573.09
589.984	525.99
590.182	618.15
590.379	456.36
590.576	544.42
590.773	429.73
590.97	505.51
591.167	501.41
591.364	501.41
591.561	372.39
591.758	622.24
591.955	540.32
592.152	437.92
592.349	390.82
592.546	491.17
592.743	448.16
592.94	456.36
593.137	493.22
593.334	530.08
593.531	489.12
593.727	556.71
593.924	503.46
594.121	452.26
594.318	523.94
594.515	605.86
594.712	609.95
594.908	622.24
595.105	429.73
595.302	552.61
595.499	509.6
595.696	624.29
595.892	493.22
596.089	618.15
596.286	542.37
596.482	681.63
596.679	552.61
596.876	566.95
597.072	691.87
597.269	525.99
597.466	683.68
597.662	650.91
597.859	556.71
598.055	659.1
598.252	704.16
598.448	829.09
598.645	790.17
598.841	757.41
599.038	927.39
599.234	929.44
599.431	847.52
599.627	943.77
599.824	988.83
600.02	978.59
600.217	1011.36
600.413	1167
600.609	994.97
600.806	1261.21
601.002	1171.1
601.198	1115.8
601.395	1310.36
601.591	1275.54
601.787	1351.32
601.984	1414.81
602.18	1517.2
602.376	1478.29
602.572	1543.83
602.769	1609.36
602.965	1717.9
603.161	1765.01
603.357	1937.04
603.553	1982.09
603.75	1902.22
603.946	1961.61
604.142	2152.07
604.338	2203.27
604.534	2281.1
604.73	2203.27
604.926	2422.41
605.122	2670.21
605.318	2492.04
605.514	2674.31
605.71	2576
605.906	2737.79
606.102	2897.53
606.298	3014.27
606.494	3024.51
606.69	3094.14
606.886	3157.63
607.082	3313.27
607.278	3337.85
607.474	3421.81
607.67	3612.28
607.866	3397.24
608.062	3798.64
608.257	3868.27
608.453	3978.86
608.649	4154.99
608.845	4140.65
609.041	4200.04
609.236	4370.02
609.432	4699.75
609.628	4501.09
609.824	4738.66
610.019	4879.97
610.215	5023.33
610.411	5211.74
610.606	5416.54
610.802	5334.62
610.998	5615.19
611.193	5832.27
611.389	5674.58
611.584	6123.09
611.78	5922.38
611.976	5973.58
612.171	6661.7
612.367	6663.75
612.562	6749.76
612.758	6886.98
612.953	7059.01
613.149	7237.18
613.344	7579.19
613.539	7740.98
613.735	7966.26
613.93	8144.43
614.126	8252.97
614.321	8783.4
614.517	9139.74
614.712	8918.56
614.907	9227.81
615.103	9307.68
615.298	9674.26
615.493	10003.99
615.688	10038.8
615.884	10567.18
616.079	10638.86
616.274	11204.1
616.47	11206.14
616.665	11482.62
616.86	11687.42
617.055	11832.82
617.25	12463.6
617.445	12916.2
617.641	12963.3
617.836	13352.41
618.031	13397.47
618.226	14222.8
618.421	14302.67
618.616	14892.49
618.811	15015.37
619.006	15291.84
619.201	15576.51
619.396	16025.01
619.591	16258.48
619.786	16682.41
619.981	16905.64
620.176	17241.51
620.371	17538.46
620.566	18279.83
620.761	18431.38
620.956	19135.88
621.151	19209.61
621.346	19654.01
621.541	19934.59
621.735	20616.56
621.93	20465.01
622.125	20864.36
622.32	20991.34
622.515	22080.86
622.709	22136.15
622.904	22566.23
623.099	22836.56
623.294	23618.88
623.488	23399.75
623.683	24436.02
623.878	24485.17
624.072	25015.6
624.267	25451.81
624.462	25765.15
624.656	25765.15
624.851	26301.72
625.046	26760.47
625.24	27030.8
625.435	27444.49
625.629	27849.99
625.824	28327.16
626.018	28673.27
626.213	28511.48
626.407	29119.73
626.602	29330.67
626.796	29736.16
626.991	30049.5
627.185	30287.07
627.38	30409.95
627.574	30782.68
627.768	30647.51
627.963	30651.61
628.157	31302.86
628.352	31134.93
628.546	31202.51
628.74	31509.71
628.935	31106.26
629.129	31339.72
629.323	31098.06
629.517	30962.9
629.712	30422.23
629.906	30567.64
630.1	29979.87
630.294	30137.57
630.489	29512.94
630.683	29508.84
630.877	28822.77
631.071	28245.24
631.265	28298.49
631.459	27454.73
631.653	26735.89
631.848	26516.76
632.042	25441.57
632.236	25343.27
632.43	24608.05
632.624	23848.25
632.818	23188.81
633.012	22414.68
633.206	21681.5
633.4	21091.69
633.594	20405.62
633.788	19672.45
633.982	18947.47
634.176	18347.41
634.369	17704.35
634.563	16971.18
634.757	16285.11
634.951	15947.19
635.145	15381.95
635.339	14347.73
635.533	14022.1
635.726	13475.29
635.92	12744.17
636.114	12465.64
636.308	11777.53
636.501	11357.69
636.695	11128.32
636.889	10429.96
637.083	10155.54
637.276	9504.28
637.47	9336.35
637.664	8797.73
637.857	8535.59
638.051	8361.52
638.244	7898.67
638.438	7415.35
638.632	7384.63
638.825	6921.79
639.019	6821.44
639.212	6397.51
639.406	6194.76
639.599	5946.96
639.793	5590.61
639.986	5451.35
640.18	5383.77
640.373	5080.67
640.567	4705.89
640.76	4673.12
640.954	4556.39
641.147	4525.67
641.34	4165.23
641.534	4060.78
641.727	3903.09
641.92	3812.98
642.114	3556.98
642.307	3499.64
642.5	3423.86
642.694	3186.3
642.887	3167.87
643.08	3018.36
643.273	3051.13
643.467	2799.23
643.66	2604.67
643.853	2571.91
644.046	2545.28
644.239	2477.7
644.432	2201.23
644.626	2121.35
644.819	2141.83
645.012	2008.72
645.205	1912.46
645.398	1996.43
645.591	1883.79
645.784	1670.8
645.977	1633.94
646.17	1539.73
646.363	1504.92
646.556	1502.87
646.749	1367.7
646.942	1429.14
647.135	1318.55
647.328	1285.78
647.521	1224.34
647.714	1167
647.907	1126.04
648.099	1044.12
648.292	1140.38
648.485	1019.55
648.678	962.2
648.871	896.67
649.064	859.81
649.256	896.67
649.449	794.27
649.642	693.92
649.835	773.79
650.027	716.45
650.22	786.08
650.413	781.98
650.605	691.87
650.798	728.74
650.991	622.24
651.183	632.48
651.376	605.86
651.568	575.14
651.761	503.46
651.954	532.13
652.146	626.34
652.339	534.18
652.531	560.8
652.724	532.13
652.916	454.31
653.109	360.1
653.301	446.12
653.494	474.79
653.686	409.25
653.879	462.5
654.071	446.12
654.263	296.61
654.456	274.09
654.648	435.88
654.84	319.14
655.033	288.42
655.225	417.44
655.417	253.61
655.61	437.92
655.802	345.77
655.994	290.47
656.186	261.8
656.379	351.91
656.571	253.61
656.763	243.37
656.955	216.74
657.148	188.07
657.34	384.68
657.532	239.27
657.724	347.81
657.916	321.19
658.108	388.77
658.3	274.09
658.492	290.47
658.684	134.82
658.876	300.71
659.068	192.17
659.26	134.82
659.452	85.67
659.644	188.07
659.836	278.18
660.028	204.46
660.22	165.54
660.412	163.5
660.604	175.78
660.796	206.5
660.988	241.32
661.18	200.36
661.372	269.99
661.563	208.55
661.755	192.17
661.947	102.06
662.139	65.19
662.331	177.83
662.522	85.67
662.714	28.33
662.906	188.07
663.097	128.68
663.289	120.49
663.481	81.58
663.673	140.97
663.864	140.97
664.056	138.92
664.247	110.25
664.439	226.98
664.631	149.16
664.822	104.11
665.014	130.73
665.205	81.58
665.397	124.58
665.588	100.01
665.78	100.01
665.971	97.96
666.163	16.04
666.354	163.5
666.546	-31.06
666.737	65.19
666.929	44.71
667.12	65.19
667.311	95.91
667.503	85.67
667.694	102.06
667.885	97.96
668.077	167.59
668.268	57
668.459	89.77
668.651	167.59
668.842	97.96
669.033	61.1
669.224	-2.39
669.416	241.32
669.607	65.19
669.798	102.06
669.989	163.5
670.18	106.15
670.371	269.99
670.563	3.75
670.754	249.51
670.945	145.06
671.136	126.63
671.327	61.1
671.518	196.26
671.709	257.7
671.9	134.82
672.091	222.89
672.282	93.87
672.473	122.54
672.664	114.34
672.855	112.3
673.046	149.16
673.237	222.89
673.428	128.68
673.619	183.98
673.809	151.21
674	204.46
674.191	159.4
674.382	54.95
674.573	151.21
674.764	169.64
674.954	194.22
675.145	85.67
675.336	69.29
675.527	134.82
675.717	110.25
675.908	183.98
676.099	143.02
676.289	200.36
676.48	48.81
676.671	175.78
676.861	200.36
677.052	155.3
677.243	231.08
677.433	104.11
677.624	210.6
677.814	124.58
678.005	61.1
678.195	251.56
678.386	175.78
678.576	216.74
678.767	151.21
678.957	276.13
679.148	253.61
679.338	292.52
679.529	173.74
679.719	140.97
679.909	175.78
680.1	251.56
680.29	196.26
680.481	177.83
680.671	253.61
680.861	216.74
681.052	212.65
681.242	138.92
681.432	216.74
681.622	206.5
681.813	100.01
682.003	175.78
682.193	173.74
682.383	259.75
682.573	190.12
682.764	136.87
682.954	188.07
683.144	265.89
683.334	173.74
683.524	204.46
683.714	188.07
683.904	222.89
684.094	253.61
684.284	216.74
684.474	206.5
684.664	298.66
684.854	265.89
685.044	157.35
685.234	181.93
685.424	274.09
685.614	198.31
685.804	351.91
685.994	298.66
686.184	226.98
686.374	226.98
686.564	237.22
686.753	216.74
686.943	210.6
687.133	274.09
687.323	290.47
687.513	333.48
687.702	278.18
687.892	208.55
688.082	308.9
688.272	177.83
688.461	175.78
688.651	327.33
688.841	247.46
689.03	159.4
689.22	192.17
689.41	265.89
689.599	278.18
689.789	167.59
689.979	306.85
690.168	224.94
690.358	224.94
690.547	249.51
690.737	233.13
690.926	157.35
691.116	251.56
691.305	282.28
691.495	278.18
691.684	134.82
691.874	192.17
692.063	224.94
692.252	282.28
692.442	265.89
692.631	247.46
692.82	235.18
693.01	216.74
693.199	257.7
693.388	253.61
693.578	229.03
693.767	267.94
693.956	218.79
694.146	204.46
694.335	183.98
694.524	290.47
694.713	261.8
694.902	151.21
695.092	134.82
695.281	251.56
695.47	165.54
695.659	192.17
695.848	200.36
696.037	206.5
696.226	298.66
696.415	296.61
696.604	306.85
696.793	245.41
696.982	157.35
697.171	302.76
697.36	93.87
697.549	110.25
697.738	100.01
697.927	186.02
698.116	95.91
698.305	165.54
698.494	140.97
698.683	136.87
698.872	257.7
699.061	261.8
699.25	157.35
699.438	149.16
699.627	169.64
699.816	323.24
700.005	81.58
700.193	124.58
700.382	226.98
700.571	181.93
700.76	233.13
700.948	269.99
701.137	259.75
701.326	208.55
701.514	134.82
701.703	204.46
701.892	147.11
702.08	282.28
702.269	192.17
702.457	110.25
702.646	233.13
702.834	116.39
703.023	255.65
703.212	229.03
703.4	175.78
703.589	179.88
703.777	48.81
703.965	112.3
704.154	173.74
704.342	73.39
704.531	138.92
704.719	163.5
704.907	212.65
705.096	112.3
705.284	159.4
705.472	212.65
705.661	167.59
705.849	218.79
706.037	253.61
706.226	181.93
706.414	206.5
706.602	216.74
706.79	218.79
706.979	167.59
707.167	216.74
707.355	57
707.543	243.37
707.731	153.26
707.919	143.02
708.107	122.54
708.296	167.59
708.484	81.58
708.672	255.65
708.86	306.85
709.048	163.5
709.236	97.96
709.424	130.73
709.612	165.54
709.8	61.1
709.988	157.35
710.176	226.98
710.364	319.14
710.551	161.45
710.739	208.55
710.927	149.16
711.115	206.5
711.303	261.8
711.491	327.33
711.679	140.97
711.866	274.09
712.054	167.59
712.242	253.61
712.43	243.37
712.617	210.6
712.805	214.7
712.993	181.93
713.181	116.39
713.368	278.18
713.556	165.54
713.744	210.6
713.931	321.19
714.119	202.41
714.306	169.64
714.494	177.83
714.682	167.59
714.869	151.21
715.057	134.82
715.244	106.15
715.432	255.65
715.619	173.74
715.807	114.34
715.994	202.41
716.182	212.65
716.369	325.29
716.556	265.89
716.744	140.97
716.931	175.78
717.119	313
717.306	134.82
717.493	280.23
717.681	181.93
717.868	130.73
718.055	265.89
718.242	161.45
718.43	179.88
718.617	179.88
718.804	253.61
718.991	313
719.179	315.05
719.366	233.13
719.553	237.22
719.74	157.35
719.927	175.78
720.114	284.33
720.301	169.64
720.488	85.67
720.676	167.59
720.863	288.42
721.05	364.2
721.237	323.24
721.424	351.91
721.611	212.65
721.798	196.26
721.985	233.13
722.172	200.36
722.358	198.31
722.545	284.33
722.732	251.56
722.919	378.53
723.106	245.41
723.293	116.39
723.48	278.18
723.667	183.98
723.853	274.09
724.04	274.09
724.227	315.05
724.414	216.74
724.6	241.32
724.787	315.05
724.974	294.57
725.161	206.5
725.347	192.17
725.534	241.32
725.72	308.9
725.907	370.34
726.094	347.81
726.28	192.17
726.467	261.8
726.653	157.35
726.84	329.38
727.027	405.16
727.213	321.19
727.4	263.85
727.586	269.99
727.773	306.85
727.959	274.09
728.145	290.47
728.332	249.51
728.518	286.37
728.705	313
728.891	292.52
729.077	233.13
729.264	224.94
729.45	323.24
729.636	288.42
729.823	310.95
730.009	392.87
730.195	265.89
730.382	257.7
730.568	251.56
730.754	257.7
730.94	175.78
731.126	308.9
731.313	315.05
731.499	251.56
731.685	333.48
731.871	356.01
732.057	331.43
732.243	378.53
732.429	323.24
732.615	399.01
732.801	204.46
732.987	286.37
733.173	288.42
733.359	327.33
733.545	362.15
733.731	302.76
733.917	433.83
734.103	323.24
734.289	345.77
734.475	302.76
734.661	466.6
734.847	296.61
735.033	280.23
735.219	292.52
735.404	302.76
735.59	321.19
735.776	339.62
735.962	353.96
736.148	274.09
736.333	396.96
736.519	300.71
736.705	368.29
736.89	302.76
737.076	351.91
737.262	253.61
737.447	280.23
737.633	364.2
737.819	405.16
738.004	351.91
738.19	337.57
738.375	376.48
738.561	403.11
738.747	341.67
738.932	286.37
739.118	372.39
739.303	349.86
739.489	374.44
739.674	212.65
739.859	310.95
740.045	384.68
740.23	263.85
740.416	218.79
740.601	347.81
740.786	331.43
740.972	315.05
741.157	360.1
741.342	188.07
741.528	294.57
741.713	380.58
741.898	267.94
742.084	304.81
742.269	327.33
742.454	349.86
742.639	388.77
742.824	282.28
743.01	421.54
743.195	442.02
743.38	345.77
743.565	368.29
743.75	353.96
743.935	339.62
744.12	448.16
744.305	247.46
744.49	296.61
744.675	257.7
744.86	399.01
745.045	356.01
745.23	290.47
745.415	343.72
745.6	435.88
745.785	280.23
745.97	356.01
746.155	392.87
746.34	331.43
746.525	259.75
746.71	360.1
746.895	274.09
747.079	247.46
747.264	286.37
747.449	296.61
747.634	368.29
747.819	343.72
748.003	321.19
748.188	272.04
748.373	384.68
748.557	380.58
748.742	315.05
748.927	216.74
749.111	218.79
749.296	202.41
749.481	358.05
749.665	231.08
749.85	130.73
750.034	356.01
750.219	325.29
750.404	272.04
750.588	267.94
750.773	171.69
750.957	308.9
751.141	329.38
751.326	308.9
751.51	304.81
751.695	198.31
751.879	186.02
752.064	421.54
752.248	229.03
752.432	292.52
752.617	347.81
752.801	251.56
752.985	310.95
753.17	257.7
753.354	253.61
753.538	241.32
753.722	179.88
753.907	175.78
754.091	147.11
754.275	296.61
754.459	175.78
754.643	241.32
754.828	179.88
755.012	233.13
755.196	181.93
755.38	300.71
755.564	151.21
755.748	224.94
755.932	313
756.116	288.42
756.3	290.47
756.484	290.47
756.668	306.85
756.852	196.26
757.036	222.89
757.22	259.75
757.404	138.92
757.588	93.87
757.772	233.13
757.956	181.93
758.14	274.09
758.323	149.16
758.507	231.08
758.691	190.12
758.875	200.36
759.059	310.95
759.242	171.69
759.426	235.18
759.61	188.07
759.794	114.34
759.977	253.61
760.161	413.35
760.345	249.51
760.528	226.98
760.712	206.5
760.895	200.36
761.079	198.31
761.263	48.81
761.446	89.77
761.63	208.55
761.813	235.18
761.997	42.67
762.18	143.02
762.364	206.5
762.547	73.39
762.731	175.78
762.914	157.35
763.098	128.68
763.281	134.82
763.464	110.25
763.648	206.5
763.831	200.36
764.015	95.91
764.198	87.72
764.381	122.54
764.564	97.96
764.748	163.5
764.931	175.78
765.114	59.05
765.297	188.07
765.481	59.05
765.664	161.45
765.847	79.53
766.03	243.37
766.213	77.48
766.397	163.5
766.58	-37.2
766.763	167.59
766.946	93.87
767.129	97.96
767.312	97.96
767.495	106.15
767.678	52.91
767.861	110.25
768.044	222.89
768.227	138.92
768.41	108.2
768.593	179.88
768.776	167.59
768.959	36.52
769.142	169.64
769.324	134.82
769.507	134.82
769.69	36.52
769.873	122.54
770.056	175.78
770.239	196.26
770.421	140.97
770.604	192.17
770.787	169.64
770.97	102.06
771.152	32.43
771.335	110.25
771.518	11.95
771.7	216.74
771.883	175.78
772.066	11.95
772.248	93.87
772.431	267.94
772.613	157.35
772.796	140.97
772.978	206.5
773.161	124.58
773.343	50.86
773.526	-49.49
773.708	48.81
773.891	7.85
774.073	-20.82
774.256	42.67
774.438	192.17
774.621	40.62
774.803	71.34
774.985	61.1
775.168	65.19
775.35	22.19
775.532	110.25
775.715	-4.44
775.897	216.74
776.079	-8.53
776.261	89.77
776.444	67.24
776.626	87.72
776.808	50.86
776.99	-33.11
777.173	108.2
777.355	61.1
777.537	28.33
777.719	65.19
777.901	-4.44
778.083	85.67
778.265	-0.34
778.447	26.28
778.629	52.91
778.811	79.53
778.993	175.78
779.175	102.06
779.357	114.34
779.539	40.62
779.721	73.39
779.903	104.11
780.085	48.81
780.267	34.47
780.449	61.1
780.631	89.77
780.812	143.02
780.994	22.19
781.176	116.39
781.358	32.43
781.54	85.67
781.721	91.82
781.903	97.96
782.085	36.52
782.267	130.73
782.448	-14.68
782.63	-33.11
782.812	34.47
782.993	126.63
783.175	122.54
783.357	-12.63
783.538	130.73
783.72	-33.11
783.901	75.43
784.083	71.34
784.264	100.01
784.446	7.85
784.627	26.28
784.809	118.44
784.99	34.47
785.172	73.39
785.353	20.14
785.535	71.34
785.716	-2.39
785.897	11.95
786.079	20.14
786.26	-10.58
786.441	93.87
786.623	-20.82
786.804	-63.83
786.985	67.24
787.167	85.67
787.348	26.28
787.529	16.04
787.71	143.02
787.891	59.05
788.073	3.75
788.254	-72.02
788.435	97.96
788.616	50.86
788.797	-86.36
788.978	44.71
789.159	1.71
789.34	79.53
789.522	18.09
789.703	22.19
789.884	77.48
790.065	22.19
790.246	167.59
790.427	34.47
790.607	147.11
790.788	118.44
790.969	-0.34
791.15	32.43
791.331	-22.87
791.512	91.82
791.693	-22.87
791.874	40.62
792.054	188.07
792.235	151.21
792.416	7.85
792.597	-16.73
792.778	83.63
792.958	30.38
793.139	20.14
793.32	34.47
793.5	-57.68
793.681	116.39
793.862	65.19
794.042	5.8
794.223	-47.44
794.404	-24.92
794.584	-86.36
794.765	-14.68
794.945	-22.87
795.126	79.53
795.306	71.34
795.487	-29.01
795.667	73.39
795.848	42.67
796.028	108.2
796.209	34.47
796.389	20.14
796.57	52.91
796.75	-96.6
796.93	65.19
797.111	-29.01
797.291	-39.25
797.471	28.33
797.652	1.71
797.832	-16.73
798.012	100.01
798.192	36.52
798.373	-33.11
798.553	26.28
798.733	16.04
798.913	3.75
799.093	-8.53
799.274	-6.49
799.454	75.43
799.634	52.91
799.814	63.15
799.994	9.9
800.174	100.01
800.354	112.3
800.534	-37.2
800.714	-8.53
800.894	-41.3
801.074	-158.03
801.254	-72.02
801.434	32.43
801.614	-14.68
801.794	-18.77
801.974	1683.09
802.154	67.24
802.334	-2.39
802.514	-69.97
802.693	28.33
802.873	28.33
803.053	69.29
803.233	24.23
803.413	48.81
803.592	-49.49
803.772	-65.88
803.952	42.67
804.131	-88.4
804.311	-4.44
804.491	69.29
804.67	-45.4
804.85	-49.49
805.03	30.38
805.209	65.19
805.389	-12.63
805.568	18.09
805.748	11.95
805.928	-0.34
806.107	73.39
806.287	-16.73
806.466	36.52
806.646	57
806.825	32.43
807.004	36.52
807.184	7.85
807.363	106.15
807.543	7.85
807.722	-29.01
807.901	136.87
808.081	32.43
808.26	-123.22
808.439	9.9
808.619	-12.63
808.798	-49.49
808.977	63.15
809.156	18.09
809.336	46.76
809.515	77.48
809.694	-59.73
809.873	3.75
810.052	20.14
810.231	79.53
810.411	93.87
810.59	9.9
810.769	-8.53
810.948	26.28
811.127	-65.88
811.306	38.57
811.485	-74.07
811.664	91.82
811.843	50.86
812.022	-22.87
812.201	11.95
812.38	36.52
812.559	-45.4
812.737	-26.96
812.916	-78.16
813.095	-33.11
813.274	-43.35
813.453	50.86
813.632	-4.44
813.811	89.77
813.989	-74.07
814.168	-24.92
814.347	-63.83
814.526	-43.35
814.704	46.76
814.883	38.57
815.062	-8.53
815.24	40.62
815.419	7.85
815.598	106.15
815.776	-69.97
815.955	44.71
816.133	-53.59
816.312	44.71
816.49	-26.96
816.669	3.75
816.847	-49.49
817.026	-69.97
817.204	-2.39
817.383	-51.54
817.561	-24.92
817.74	71.34
817.918	-0.34
818.097	-4.44
818.275	-55.64
818.453	11.95
818.632	11.95
818.81	-10.58
818.988	-6.49
819.167	-67.92
819.345	-49.49
819.523	-102.74
819.701	9.9
819.879	38.57
820.058	-12.63
820.236	26.28
820.414	28.33
820.592	-59.73
820.77	61.1
820.948	-69.97
821.127	5.8
821.305	-4.44
821.483	-82.26
821.661	-8.53
821.839	18.09
822.017	-26.96
822.195	9.9
822.373	52.91
822.551	36.52
822.729	100.01
822.907	-37.2
823.085	38.57
823.262	3.75
823.44	32.43
823.618	-67.92
823.796	20.14
823.974	-20.82
824.152	-69.97
824.329	-10.58
824.507	-22.87
824.685	-16.73
824.863	-22.87
825.04	50.86
825.218	36.52
825.396	16.04
825.574	-0.34
825.751	-4.44
825.929	59.05
826.107	11.95
826.284	7.85
826.462	59.05
826.639	-69.97
826.817	-76.12
826.994	-20.82
827.172	-51.54
827.349	136.87
827.527	54.95
827.704	-0.34
827.882	7.85
828.059	-37.2
828.237	9.9
828.414	71.34
828.591	-106.84
828.769	65.19
828.946	-51.54
829.124	104.11
829.301	91.82
829.478	-51.54
829.655	3.75
829.833	-53.59
830.01	-108.88
830.187	-12.63
830.364	13.99
830.542	-65.88
830.719	140.97
830.896	26.28
831.073	59.05
831.25	13.99
831.427	24.23
831.604	-33.11
831.782	-61.78
831.959	-16.73
832.136	18.09
832.313	28.33
832.49	30.38
832.667	75.43
832.844	-96.6
833.021	110.25
833.198	61.1
833.374	46.76
833.551	46.76
833.728	9.9
833.905	69.29
834.082	-137.56
834.259	16.04
834.436	71.34
834.612	-55.64
834.789	61.1
834.966	5.8
835.143	-31.06
835.319	-12.63
835.496	85.67
835.673	11.95
835.85	67.24
836.026	83.63
836.203	20.14
836.38	-6.49
836.556	-16.73
836.733	-123.22
836.909	95.91
837.086	-110.93
837.262	-49.49
837.439	-37.2
837.616	13.99
837.792	-8.53
837.968	-86.36
838.145	-129.36
838.321	65.19
838.498	34.47
838.674	48.81
838.851	-4.44
839.027	-6.49
839.203	-8.53
839.38	16.04
839.556	-76.12
839.732	-4.44
839.909	11.95
840.085	5.8
840.261	-37.2
840.437	-39.25
840.614	-37.2
840.79	46.76
840.966	93.87
841.142	-45.4
841.318	-12.63
841.494	44.71
841.671	40.62
841.847	-45.4
842.023	-112.98
842.199	-16.73
842.375	42.67
842.551	-106.84
842.727	-61.78
842.903	93.87
843.079	-12.63
843.255	102.06
843.431	-41.3
843.607	-0.34
843.783	-135.51
843.959	44.71
844.134	-45.4
844.31	57
844.486	-86.36
844.662	-69.97
844.838	-61.78
845.013	18.09
845.189	67.24
845.365	-18.77
845.541	-14.68
845.716	-33.11
845.892	181.93
846.068	-22.87
846.244	-31.06
846.419	28.33
846.595	-178.51
846.77	-45.4
846.946	32.43
847.122	-61.78
847.297	-59.73
847.473	38.57
847.648	-127.32
847.824	26.28
847.999	-104.79
848.175	-24.92
848.35	-37.2
848.526	155.3
848.701	36.52
848.876	87.72
849.052	9.9
849.227	-24.92
849.403	-61.78
849.578	-35.16
849.753	-14.68
849.929	71.34
850.104	-51.54
850.279	71.34
850.454	20.14
850.63	-14.68
850.805	11.95
850.98	40.62
851.155	1.71
851.33	32.43
851.505	-29.01
851.681	110.25
851.856	-86.36
852.031	18.09
852.206	48.81
852.381	-55.64
852.556	7.85
852.731	9.9
852.906	22.19
853.081	-4.44
853.256	71.34
853.431	11.95
853.606	-98.64
853.781	-49.49
853.956	-100.69
854.131	3.75
854.305	-26.96
854.48	-18.77
854.655	7.85
854.83	-22.87
855.005	-20.82
855.18	24.23
855.354	-22.87
855.529	11.95
855.704	-82.26
855.879	-8.53
856.053	-63.83
856.228	28.33
856.403	-24.92
856.577	13.99
856.752	-94.55
856.926	-20.82
857.101	3.75
857.276	-117.08
857.45	5.8
857.625	73.39
857.799	-16.73
857.974	-16.73
858.148	-84.31
858.323	34.47
858.497	-22.87
858.672	-43.35
858.846	-47.44
859.02	52.91
859.195	-92.5
859.369	-69.97
859.543	-12.63
859.718	36.52
859.892	16.04
860.066	-35.16
860.241	-63.83
860.415	-18.77
860.589	18.09
860.763	-41.3
860.938	-20.82
861.112	-18.77
861.286	-72.02
861.46	-37.2
861.634	44.71
861.808	52.91
861.982	3.75
862.157	-35.16
862.331	11.95
862.505	-63.83
862.679	-47.44
862.853	5.8
863.027	-55.64
863.201	138.92
863.375	-20.82
863.549	30.38
863.722	28.33
863.896	3.75
864.07	-49.49
864.244	-12.63
864.418	52.91
864.592	50.86
864.766	61.1
864.939	-59.73
865.113	-51.54
865.287	85.67
865.461	-45.4
865.634	3.75
865.808	11.95
865.982	-14.68
866.156	-121.17
866.329	-53.59
866.503	7.85
866.676	52.91
866.85	75.43
867.024	18.09
867.197	91.82
867.371	57
867.544	-16.73
867.718	-37.2
867.891	13.99
868.065	-102.74
868.238	24.23
868.412	91.82
868.585	-31.06
868.759	-14.68
868.932	11.95
869.105	-106.84
869.279	36.52
869.452	-72.02
869.625	34.47
869.799	-98.64
869.972	-43.35
870.145	-18.77
870.319	48.81
870.492	-72.02
870.665	-82.26
870.838	9.9
871.011	-82.26
871.185	-18.77
871.358	-37.2
871.531	63.15
871.704	-12.63
871.877	20.14
872.05	-51.54
872.223	-67.92
872.396	-0.34
872.569	44.71
872.742	-16.73
872.915	-45.4
873.088	-41.3
873.261	-65.88
873.434	16.04
873.607	-45.4
873.78	112.3
873.953	-92.5
874.126	-2.39
874.299	42.67
874.471	-29.01
874.644	16.04
874.817	-76.12
874.99	120.49
875.163	20.14
875.335	83.63
875.508	-24.92
875.681	20.14
875.853	3.75
876.026	30.38
876.199	48.81
876.371	-16.73
876.544	-67.92
876.717	67.24
876.889	-74.07
877.062	28.33
877.234	-35.16
877.407	-47.44
877.579	-24.92
877.752	81.58
877.924	30.38
878.097	11.95
878.269	36.52
878.442	-6.49
878.614	57
878.786	-39.25
878.959	7.85
879.131	24.23
879.303	-82.26
879.476	9.9
879.648	-8.53
879.82	-8.53
879.993	-12.63
880.165	-86.36
880.337	-86.36
880.509	-4.44
880.681	-110.93
880.854	-63.83
881.026	-6.49
881.198	132.78
881.37	-31.06
881.542	-29.01
881.714	-82.26
881.886	-82.26
882.058	1.71
882.23	54.95
882.402	24.23
882.574	32.43
882.746	30.38
882.918	46.76
883.09	44.71
883.262	11.95
883.434	-35.16
883.606	-72.02
883.778	44.71
883.95	54.95
884.122	-72.02
884.293	9.9
884.465	-37.2
884.637	16.04
884.809	-22.87
884.98	-57.68
885.152	11.95
885.324	83.63
885.496	-80.21
885.667	-35.16
885.839	-84.31
886.011	73.39
886.182	38.57
886.354	11.95
886.525	61.1
886.697	28.33
886.869	-45.4
887.04	13.99
887.212	9.9
887.383	85.67
887.555	16.04
887.726	-43.35
887.897	-8.53
888.069	-6.49
888.24	28.33
888.412	-26.96
888.583	-84.31
888.754	-18.77
888.926	-69.97
889.097	-86.36
889.268	-84.31
889.44	-57.68
889.611	-39.25
889.782	-61.78
889.953	-55.64
890.125	89.77
890.296	-55.64
890.467	-16.73
890.638	-94.55
890.809	-59.73
890.98	-86.36
891.151	11.95
891.323	3.75
891.494	-51.54
891.665	1.71
891.836	-2.39
892.007	-110.93
892.178	16.04
892.349	-86.36
892.52	-74.07
892.691	-53.59
892.862	-37.2
893.032	-172.37
893.203	-72.02
893.374	-20.82
893.545	28.33
893.716	-31.06
893.887	48.81
894.057	24.23
894.228	-94.55
894.399	-8.53
894.57	81.58
894.74	-41.3
894.911	11.95
895.082	-45.4
895.253	-57.68
895.423	-12.63
895.594	22.19
895.764	32.43
895.935	-37.2
896.106	40.62
896.276	73.39
896.447	-59.73
896.617	-43.35
896.788	-145.75
896.958	-12.63
897.129	-43.35
897.299	-53.59
897.47	138.92
897.64	-8.53
897.81	16.04
897.981	30.38
898.151	-29.01
898.322	-31.06
898.492	26.28
898.662	-74.07
898.832	-47.44
899.003	-45.4
899.173	28.33
899.343	-49.49
899.513	20.14
