Data from USB4F104151__50__09-28-12-503.txt Node

Date: Wed Feb 26 09:28:12 EST 2025
User: louis
Spectrometer: USB4F10415
Trigger mode: 4
Integration Time (sec): 1.000000E-1
Scans to average: 1
Electric dark correction enabled: true
Nonlinearity correction enabled: false
Boxcar width: 0
XAxis mode: Wavelengths
Number of Pixels in Spectrum: 3648
>>>>>Begin Spectral Data<<<<<
178.204	-337.91
178.424	-337.91
178.644	-337.91
178.864	-321.53
179.084	-337.91
179.304	-10.24
179.524	4.1
179.744	51.2
179.964	81.92
180.184	-2.05
180.404	-43.01
180.624	-26.62
180.844	-26.62
181.064	-38.91
181.283	38.91
181.503	-51.2
181.723	22.53
181.943	-108.54
182.163	135.17
182.383	0
182.602	77.82
182.822	206.84
183.042	122.88
183.262	-51.2
183.482	-53.25
183.701	28.67
183.921	69.63
184.141	-16.38
184.361	81.92
184.58	8.19
184.8	-10.24
185.02	53.25
185.239	118.78
185.459	8.19
185.679	135.17
185.898	-45.06
186.118	96.25
186.338	61.44
186.557	120.83
186.777	-26.62
186.997	88.06
187.216	83.97
187.436	69.63
187.655	53.25
187.875	137.21
188.095	4.1
188.314	106.49
188.534	178.17
188.753	-45.06
188.973	98.3
189.192	247.8
189.412	53.25
189.631	63.49
189.851	67.58
190.07	145.41
190.29	18.43
190.509	61.44
190.729	14.34
190.948	167.93
191.168	307.2
191.387	47.1
191.607	6.14
191.826	57.34
192.045	98.3
192.265	-63.49
192.484	129.02
192.704	43.01
192.923	-69.63
193.142	139.26
193.362	88.06
193.581	172.03
193.8	45.06
194.02	96.25
194.239	104.45
194.458	59.39
194.678	59.39
194.897	20.48
195.116	69.63
195.335	75.77
195.555	53.25
195.774	16.38
195.993	147.45
196.212	-32.77
196.432	30.72
196.651	61.44
196.87	-12.29
197.089	212.99
197.308	129.02
197.528	118.78
197.747	-2.05
197.966	12.29
198.185	129.02
198.404	-20.48
198.623	47.1
198.842	94.21
199.062	124.93
199.281	67.58
199.5	71.68
199.719	83.97
199.938	-12.29
200.157	143.36
200.376	45.06
200.595	145.41
200.814	118.78
201.033	-53.25
201.252	120.83
201.471	90.11
201.69	83.97
201.909	79.87
202.128	114.69
202.347	26.62
202.566	8.19
202.785	4.1
203.004	4.1
203.223	198.65
203.442	67.58
203.661	-20.48
203.879	79.87
204.098	212.99
204.317	59.39
204.536	137.21
204.755	69.63
204.974	81.92
205.193	20.48
205.411	112.64
205.63	135.17
205.849	100.35
206.068	14.34
206.287	59.39
206.505	137.21
206.724	-2.05
206.943	-16.38
207.162	0
207.381	88.06
207.599	38.91
207.818	71.68
208.037	16.38
208.255	55.3
208.474	63.49
208.693	120.83
208.911	-67.58
209.13	178.17
209.349	116.73
209.567	116.73
209.786	120.83
210.005	53.25
210.223	28.67
210.442	-28.67
210.661	18.43
210.879	63.49
211.098	106.49
211.316	79.87
211.535	129.02
211.753	45.06
211.972	112.64
212.191	120.83
212.409	55.3
212.628	145.41
212.846	-69.63
213.065	88.06
213.283	116.73
213.502	-26.62
213.72	10.24
213.938	2.05
214.157	83.97
214.375	139.26
214.594	49.15
214.812	43.01
215.031	12.29
215.249	67.58
215.467	-10.24
215.686	43.01
215.904	94.21
216.122	69.63
216.341	102.4
216.559	47.1
216.778	153.6
216.996	90.11
217.214	-18.43
217.432	38.91
217.651	-59.39
217.869	108.54
218.087	-16.38
218.306	-10.24
218.524	55.3
218.742	6.14
218.96	110.59
219.179	14.34
219.397	30.72
219.615	153.6
219.833	143.36
220.051	-32.77
220.27	118.78
220.488	116.73
220.706	131.07
220.924	30.72
221.142	43.01
221.36	18.43
221.578	53.25
221.796	71.68
222.015	2.05
222.233	51.2
222.451	90.11
222.669	-14.34
222.887	24.58
223.105	-6.14
223.323	55.3
223.541	-18.43
223.759	59.39
223.977	53.25
224.195	176.13
224.413	40.96
224.631	79.87
224.849	106.49
225.067	196.61
225.285	51.2
225.503	51.2
225.721	-120.83
225.939	-2.05
226.157	55.3
226.375	178.17
226.592	30.72
226.81	24.58
227.028	77.82
227.246	98.3
227.464	79.87
227.682	88.06
227.9	108.54
228.117	83.97
228.335	18.43
228.553	100.35
228.771	38.91
228.989	165.89
229.206	28.67
229.424	38.91
229.642	-2.05
229.86	-55.3
230.077	120.83
230.295	8.19
230.513	104.45
230.731	120.83
230.948	155.65
231.166	124.93
231.384	83.97
231.601	-10.24
231.819	112.64
232.037	-10.24
232.254	-4.1
232.472	112.64
232.689	-26.62
232.907	43.01
233.125	34.82
233.342	-26.62
233.56	55.3
233.777	34.82
233.995	22.53
234.213	141.31
234.43	108.54
234.648	-2.05
234.865	-38.91
235.083	108.54
235.3	51.2
235.518	57.34
235.735	110.59
235.953	86.01
236.17	-4.1
236.388	67.58
236.605	51.2
236.822	120.83
237.04	120.83
237.257	22.53
237.475	4.1
237.692	77.82
237.909	176.13
238.127	-24.58
238.344	34.82
238.562	67.58
238.779	-59.39
238.996	-16.38
239.214	2.05
239.431	75.77
239.648	-8.19
239.865	83.97
240.083	-14.34
240.3	-32.77
240.517	-8.19
240.735	120.83
240.952	106.49
241.169	73.73
241.386	-22.53
241.603	8.19
241.821	-16.38
242.038	59.39
242.255	135.17
242.472	14.34
242.689	30.72
242.907	51.2
243.124	-28.67
243.341	79.87
243.558	-12.29
243.775	-2.05
243.992	-67.58
244.209	45.06
244.426	206.84
244.643	88.06
244.86	22.53
245.078	102.4
245.295	79.87
245.512	81.92
245.729	-34.82
245.946	98.3
246.163	-49.15
246.38	90.11
246.597	63.49
246.814	36.86
247.031	10.24
247.248	100.35
247.464	137.21
247.681	10.24
247.898	129.02
248.115	43.01
248.332	45.06
248.549	131.07
248.766	118.78
248.983	112.64
249.2	129.02
249.417	65.54
249.633	-4.1
249.85	45.06
250.067	53.25
250.284	67.58
250.501	88.06
250.717	135.17
250.934	-16.38
251.151	-2.05
251.368	102.4
251.585	79.87
251.801	-18.43
252.018	32.77
252.235	141.31
252.451	-47.1
252.668	-10.24
252.885	124.93
253.102	2.05
253.318	10.24
253.535	24.58
253.752	67.58
253.968	61.44
254.185	40.96
254.401	49.15
254.618	22.53
254.835	-67.58
255.051	120.83
255.268	10.24
255.484	88.06
255.701	-18.43
255.917	92.16
256.134	-47.1
256.351	16.38
256.567	-65.53
256.784	43.01
257	38.91
257.217	92.16
257.433	55.3
257.65	114.69
257.866	118.78
258.082	-75.77
258.299	18.43
258.515	30.72
258.732	71.68
258.948	22.53
259.165	36.86
259.381	16.38
259.597	116.73
259.814	94.21
260.03	-24.58
260.246	22.53
260.463	135.17
260.679	67.58
260.895	112.64
261.112	116.73
261.328	57.34
261.544	51.2
261.761	239.61
261.977	36.86
262.193	-79.87
262.409	63.49
262.626	110.59
262.842	77.82
263.058	18.43
263.274	81.92
263.49	90.11
263.707	18.43
263.923	88.06
264.139	-8.19
264.355	20.48
264.571	120.83
264.787	51.2
265.004	208.89
265.22	81.92
265.436	12.29
265.652	-22.53
265.868	69.63
266.084	-24.58
266.3	-16.38
266.516	20.48
266.732	73.73
266.948	55.3
267.164	83.97
267.38	157.69
267.596	100.35
267.812	131.07
268.028	32.77
268.244	18.43
268.46	71.68
268.676	28.67
268.892	110.59
269.108	20.48
269.324	-59.39
269.54	4.1
269.756	118.78
269.972	-26.62
270.188	34.82
270.403	67.58
270.619	77.82
270.835	129.02
271.051	22.53
271.267	22.53
271.483	24.58
271.698	14.34
271.914	0
272.13	71.68
272.346	32.77
272.562	38.91
272.777	100.35
272.993	30.72
273.209	-16.38
273.425	112.64
273.64	-116.73
273.856	139.26
274.072	12.29
274.287	14.34
274.503	36.86
274.719	71.68
274.934	73.73
275.15	-45.06
275.366	106.49
275.581	71.68
275.797	88.06
276.012	-51.2
276.228	63.49
276.444	36.86
276.659	149.5
276.875	55.3
277.09	16.38
277.306	30.72
277.521	63.49
277.737	38.91
277.952	47.1
278.168	30.72
278.383	65.54
278.599	126.97
278.814	63.49
279.03	30.72
279.245	194.56
279.461	69.63
279.676	88.06
279.892	30.72
280.107	30.72
280.322	43.01
280.538	24.58
280.753	14.34
280.969	65.54
281.184	53.25
281.399	155.65
281.615	157.69
281.83	-6.14
282.045	-34.82
282.26	18.43
282.476	63.49
282.691	139.26
282.906	100.35
283.122	43.01
283.337	-2.05
283.552	88.06
283.767	-2.05
283.983	94.21
284.198	55.3
284.413	90.11
284.628	-10.24
284.843	49.15
285.058	63.49
285.274	47.1
285.489	-59.39
285.704	129.02
285.919	71.68
286.134	30.72
286.349	67.58
286.564	-30.72
286.779	149.5
286.995	16.38
287.21	30.72
287.425	57.34
287.64	55.3
287.855	106.49
288.07	-24.58
288.285	126.97
288.5	86.01
288.715	30.72
288.93	36.86
289.145	-83.97
289.36	86.01
289.575	40.96
289.79	59.39
290.004	12.29
290.219	38.91
290.434	-47.1
290.649	59.39
290.864	10.24
291.079	12.29
291.294	98.3
291.509	51.2
291.724	-53.25
291.938	-8.19
292.153	157.69
292.368	4.1
292.583	20.48
292.798	159.74
293.012	100.35
293.227	45.06
293.442	59.39
293.657	116.73
293.871	98.3
294.086	116.73
294.301	153.6
294.516	71.68
294.73	71.68
294.945	-28.67
295.16	63.49
295.374	137.21
295.589	94.21
295.804	6.14
296.018	65.54
296.233	167.93
296.447	0
296.662	20.48
296.877	104.45
297.091	102.4
297.306	-26.62
297.52	43.01
297.735	120.83
297.949	61.44
298.164	57.34
298.378	-4.1
298.593	30.72
298.807	38.91
299.022	36.86
299.236	118.78
299.451	-32.77
299.665	-20.48
299.88	38.91
300.094	81.92
300.309	61.44
300.523	6.14
300.737	6.14
300.952	71.68
301.166	81.92
301.381	20.48
301.595	-51.2
301.809	55.3
302.024	2.05
302.238	-22.53
302.452	165.89
302.667	30.72
302.881	71.68
303.095	137.21
303.309	10.24
303.524	0
303.738	81.92
303.952	-12.29
304.166	28.67
304.381	-16.38
304.595	141.31
304.809	45.06
305.023	96.25
305.237	45.06
305.452	45.06
305.666	51.2
305.88	145.41
306.094	118.78
306.308	73.73
306.522	79.87
306.736	79.87
306.95	151.55
307.164	92.16
307.379	-53.25
307.593	178.17
307.807	169.98
308.021	28.67
308.235	-18.43
308.449	-65.53
308.663	4.1
308.877	284.67
309.091	104.45
309.305	47.1
309.519	-34.82
309.733	55.3
309.947	-24.58
310.161	139.26
310.374	159.74
310.588	22.53
310.802	-16.38
311.016	-116.73
311.23	81.92
311.444	-116.73
311.658	6.14
311.872	145.41
312.085	104.45
312.299	206.84
312.513	96.25
312.727	55.3
312.941	-14.34
313.154	53.25
313.368	18.43
313.582	55.3
313.796	81.92
314.009	104.45
314.223	63.49
314.437	90.11
314.651	34.82
314.864	6.14
315.078	79.87
315.292	-18.43
315.505	36.86
315.719	20.48
315.933	53.25
316.146	-2.05
316.36	2.05
316.573	83.97
316.787	10.24
317.001	8.19
317.214	-8.19
317.428	71.68
317.641	67.58
317.855	-45.06
318.068	96.25
318.282	116.73
318.495	75.77
318.709	73.73
318.922	22.53
319.136	256
319.349	129.02
319.563	6.14
319.776	88.06
319.99	-38.91
320.203	14.34
320.417	26.62
320.63	108.54
320.843	210.94
321.057	47.1
321.27	98.3
321.483	100.35
321.697	182.27
321.91	83.97
322.124	34.82
322.337	18.43
322.55	18.43
322.763	92.16
322.977	77.82
323.19	-8.19
323.403	38.91
323.617	102.4
323.83	79.87
324.043	100.35
324.256	-2.05
324.469	-10.24
324.683	145.41
324.896	6.14
325.109	67.58
325.322	-6.14
325.535	149.5
325.748	65.54
325.962	45.06
326.175	81.92
326.388	110.59
326.601	79.87
326.814	-30.72
327.027	108.54
327.24	143.36
327.453	-59.39
327.666	71.68
327.879	120.83
328.092	104.45
328.305	100.35
328.518	69.63
328.731	-63.49
328.944	-4.1
329.157	112.64
329.37	59.39
329.583	208.89
329.796	129.02
330.009	-4.1
330.222	81.92
330.435	104.45
330.648	38.91
330.861	2.05
331.073	59.39
331.286	24.58
331.499	20.48
331.712	-10.24
331.925	86.01
332.138	32.77
332.35	96.25
332.563	8.19
332.776	120.83
332.989	-32.77
333.202	-51.2
333.414	34.82
333.627	63.49
333.84	92.16
334.053	-26.62
334.265	32.77
334.478	55.3
334.691	73.73
334.903	43.01
335.116	-92.16
335.329	55.3
335.541	94.21
335.754	73.73
335.966	-12.29
336.179	110.59
336.392	40.96
336.604	12.29
336.817	129.02
337.029	20.48
337.242	-40.96
337.454	108.54
337.667	20.48
337.88	174.08
338.092	94.21
338.305	83.97
338.517	26.62
338.729	10.24
338.942	194.56
339.154	73.73
339.367	-57.34
339.579	63.49
339.792	6.14
340.004	59.39
340.217	98.3
340.429	86.01
340.641	-28.67
340.854	59.39
341.066	2.05
341.278	124.93
341.491	137.21
341.703	10.24
341.915	-12.29
342.128	34.82
342.34	34.82
342.552	-40.96
342.764	86.01
342.977	45.06
343.189	28.67
343.401	45.06
343.613	-47.1
343.826	22.53
344.038	-53.25
344.25	59.39
344.462	34.82
344.674	69.63
344.886	67.58
345.099	100.35
345.311	47.1
345.523	65.54
345.735	-69.63
345.947	24.58
346.159	26.62
346.371	24.58
346.583	16.38
346.795	215.04
347.007	14.34
347.219	28.67
347.431	28.67
347.643	120.83
347.855	67.58
348.067	126.97
348.279	-53.25
348.491	59.39
348.703	20.48
348.915	-32.77
349.127	2.05
349.339	43.01
349.551	-2.05
349.763	55.3
349.975	16.38
350.187	120.83
350.399	83.97
350.61	71.68
350.822	77.82
351.034	-45.06
351.246	22.53
351.458	26.62
351.669	79.87
351.881	71.68
352.093	155.65
352.305	135.17
352.517	69.63
352.728	118.78
352.94	38.91
353.152	79.87
353.363	-32.77
353.575	88.06
353.787	104.45
353.999	145.41
354.21	120.83
354.422	-14.34
354.633	43.01
354.845	43.01
355.057	63.49
355.268	47.1
355.48	176.13
355.692	-34.82
355.903	4.1
356.115	34.82
356.326	-51.2
356.538	137.21
356.749	47.1
356.961	169.98
357.172	8.19
357.384	-10.24
357.595	221.18
357.807	2.05
358.018	14.34
358.23	36.86
358.441	163.84
358.653	100.35
358.864	2.05
359.075	-24.58
359.287	53.25
359.498	88.06
359.709	112.64
359.921	45.06
360.132	102.4
360.344	26.62
360.555	-22.53
360.766	10.24
360.977	34.82
361.189	104.45
361.4	-2.05
361.611	165.89
361.823	178.17
362.034	36.86
362.245	-59.39
362.456	-10.24
362.667	120.83
362.879	-30.72
363.09	22.53
363.301	114.69
363.512	40.96
363.723	10.24
363.935	4.1
364.146	83.97
364.357	32.77
364.568	100.35
364.779	-73.73
364.99	112.64
365.201	-45.06
365.412	167.93
365.623	-75.77
365.834	59.39
366.045	79.87
366.256	79.87
366.467	92.16
366.678	30.72
366.889	122.88
367.1	24.58
367.311	104.45
367.522	-20.48
367.733	73.73
367.944	102.4
368.155	30.72
368.366	133.12
368.577	120.83
368.788	129.02
368.999	34.82
369.209	112.64
369.42	219.13
369.631	151.55
369.842	120.83
370.053	63.49
370.264	153.6
370.474	26.62
370.685	86.01
370.896	-36.86
371.107	126.97
371.317	34.82
371.528	-22.53
371.739	94.21
371.95	104.45
372.16	71.68
372.371	-8.19
372.582	2.05
372.792	67.58
373.003	63.49
373.214	63.49
373.424	92.16
373.635	-18.43
373.846	147.45
374.056	69.63
374.267	124.93
374.477	77.82
374.688	-73.73
374.898	36.86
375.109	34.82
375.319	10.24
375.53	120.83
375.74	141.31
375.951	12.29
376.161	43.01
376.372	124.93
376.582	-36.86
376.793	77.82
377.003	-2.05
377.214	22.53
377.424	92.16
377.635	51.2
377.845	30.72
378.055	200.7
378.266	-26.62
378.476	32.77
378.686	71.68
378.897	36.86
379.107	145.41
379.317	59.39
379.528	6.14
379.738	116.73
379.948	-40.96
380.158	110.59
380.369	102.4
380.579	-30.72
380.789	135.17
380.999	149.5
381.21	53.25
381.42	184.32
381.63	16.38
381.84	98.3
382.05	57.34
382.261	104.45
382.471	126.97
382.681	32.77
382.891	194.56
383.101	104.45
383.311	-65.53
383.521	-53.25
383.731	96.25
383.941	51.2
384.151	-30.72
384.361	38.91
384.571	100.35
384.781	14.34
384.991	172.03
385.201	100.35
385.411	143.36
385.621	38.91
385.831	43.01
386.041	30.72
386.251	75.77
386.461	153.6
386.671	61.44
386.881	65.54
387.091	38.91
387.301	100.35
387.511	18.43
387.72	124.93
387.93	96.25
388.14	-61.44
388.35	96.25
388.56	147.45
388.769	131.07
388.979	36.86
389.189	-8.19
389.399	59.39
389.609	122.88
389.818	55.3
390.028	92.16
390.238	63.49
390.447	43.01
390.657	71.68
390.867	26.62
391.076	6.14
391.286	38.91
391.496	53.25
391.705	75.77
391.915	73.73
392.125	112.64
392.334	30.72
392.544	155.65
392.753	112.64
392.963	-36.86
393.172	126.97
393.382	126.97
393.591	129.02
393.801	92.16
394.01	208.89
394.22	120.83
394.429	-20.48
394.639	-6.14
394.848	88.06
395.058	88.06
395.267	79.87
395.477	110.59
395.686	94.21
395.895	104.45
396.105	143.36
396.314	55.3
396.524	-6.14
396.733	38.91
396.942	122.88
397.152	24.58
397.361	131.07
397.57	145.41
397.78	88.06
397.989	116.73
398.198	133.12
398.407	10.24
398.617	57.34
398.826	-8.19
399.035	96.25
399.244	102.4
399.453	40.96
399.663	-2.05
399.872	65.54
400.081	20.48
400.29	141.31
400.499	49.15
400.708	71.68
400.917	-2.05
401.127	-16.38
401.336	12.29
401.545	157.69
401.754	126.97
401.963	96.25
402.172	45.06
402.381	-53.25
402.59	-67.58
402.799	32.77
403.008	145.41
403.217	30.72
403.426	30.72
403.635	-12.29
403.844	51.2
404.053	20.48
404.262	-36.86
404.471	174.08
404.68	67.58
404.888	61.44
405.097	79.87
405.306	71.68
405.515	6.14
405.724	86.01
405.933	81.92
406.142	110.59
406.35	88.06
406.559	59.39
406.768	77.82
406.977	137.21
407.185	104.45
407.394	63.49
407.603	-32.77
407.812	75.77
408.02	110.59
408.229	32.77
408.438	88.06
408.646	10.24
408.855	135.17
409.064	120.83
409.272	79.87
409.481	12.29
409.69	34.82
409.898	10.24
410.107	94.21
410.315	106.49
410.524	-4.1
410.733	110.59
410.941	49.15
411.15	67.58
411.358	141.31
411.567	227.32
411.775	96.25
411.984	65.54
412.192	161.79
412.401	59.39
412.609	147.45
412.818	100.35
413.026	51.2
413.234	79.87
413.443	38.91
413.651	45.06
413.86	10.24
414.068	176.13
414.276	110.59
414.485	59.39
414.693	124.93
414.901	174.08
415.11	71.68
415.318	86.01
415.526	67.58
415.734	122.88
415.943	59.39
416.151	90.11
416.359	47.1
416.567	83.97
416.776	40.96
416.984	169.98
417.192	135.17
417.4	79.87
417.608	-18.43
417.817	-6.14
418.025	79.87
418.233	225.28
418.441	-12.29
418.649	28.67
418.857	143.36
419.065	129.02
419.273	-79.87
419.481	71.68
419.689	81.92
419.897	-2.05
420.105	34.82
420.313	43.01
420.521	165.89
420.729	114.69
420.937	22.53
421.145	18.43
421.353	83.97
421.561	133.12
421.769	122.88
421.977	43.01
422.185	129.02
422.393	57.34
422.601	176.13
422.809	163.84
423.017	45.06
423.224	77.82
423.432	112.64
423.64	94.21
423.848	202.75
424.056	26.62
424.263	106.49
424.471	47.1
424.679	153.6
424.887	-14.34
425.094	157.69
425.302	141.31
425.51	24.58
425.718	77.82
425.925	114.69
426.133	-6.14
426.341	188.41
426.548	24.58
426.756	100.35
426.964	129.02
427.171	106.49
427.379	96.25
427.586	75.77
427.794	102.4
428.001	137.21
428.209	65.54
428.417	229.37
428.624	139.26
428.832	92.16
429.039	126.97
429.247	77.82
429.454	190.46
429.662	190.46
429.869	118.78
430.076	169.98
430.284	120.83
430.491	196.61
430.699	145.41
430.906	174.08
431.114	120.83
431.321	194.56
431.528	149.5
431.736	163.84
431.943	219.13
432.15	120.83
432.358	266.24
432.565	282.62
432.772	55.3
432.979	262.14
433.187	143.36
433.394	192.51
433.601	176.13
433.808	229.37
434.016	282.62
434.223	194.56
434.43	245.76
434.637	237.56
434.844	284.67
435.052	233.47
435.259	301.05
435.466	286.72
435.673	260.09
435.88	315.39
436.087	362.49
436.294	337.91
436.501	339.96
436.708	342.01
436.915	415.74
437.122	430.07
437.329	419.83
437.537	309.24
437.743	407.55
437.95	477.18
438.157	503.8
438.364	452.6
438.571	497.66
438.778	495.61
438.985	520.18
439.192	511.99
439.399	542.71
439.606	522.23
439.813	645.11
440.02	669.69
440.227	786.42
440.433	645.11
440.64	657.4
440.847	587.77
441.054	714.74
441.261	851.95
441.467	686.07
441.674	641.01
441.881	831.48
442.088	759.8
442.294	784.37
442.501	931.83
442.708	993.26
442.914	999.41
443.121	976.88
443.328	1097.71
443.534	1077.23
443.741	1187.82
443.948	1042.42
444.154	1177.58
444.361	1429.48
444.568	1120.24
444.774	1169.39
444.981	1132.53
445.187	1294.32
445.394	1343.47
445.6	1345.52
445.807	1533.93
446.013	1556.46
446.22	1445.87
446.426	1705.96
446.633	1617.9
446.839	1804.26
447.046	1755.11
447.252	1861.6
447.459	1839.08
447.665	1927.14
447.871	2052.06
448.078	2289.63
448.284	2127.84
448.491	2435.03
448.697	2396.12
448.903	2549.72
449.11	2539.48
449.316	2609.11
449.522	2822.1
449.728	2969.55
449.935	2914.26
450.141	2975.7
450.347	3364.81
450.553	3074
450.76	3266.51
450.966	3385.29
451.172	3526.6
451.378	3768.26
451.584	3813.32
451.791	4016.07
451.997	4009.92
452.203	4177.86
452.409	4343.74
452.615	4638.65
452.821	4442.04
453.027	4683.7
453.233	5218.22
453.44	4962.23
453.646	5269.42
453.852	5564.33
454.058	5664.68
454.264	5912.49
454.47	6090.66
454.676	6295.46
454.882	6772.63
455.088	6565.79
455.294	6862.74
455.5	7303.06
455.705	7739.27
455.911	7731.08
456.117	7960.45
456.323	8245.12
456.529	8200.07
456.735	9000.82
456.941	9256.82
457.147	9543.53
457.352	9705.32
457.558	10155.88
457.764	10858.33
457.97	10901.34
458.176	11425.62
458.381	11777.87
458.587	12267.33
458.793	12885.82
458.999	12840.76
459.204	14346.02
459.41	14663.46
459.616	14735.14
459.821	15367.96
460.027	16185.1
460.233	16961.28
460.438	17039.1
460.644	17876.72
460.85	18124.52
461.055	18755.3
461.261	19687.12
461.466	19224.28
461.672	19781.33
461.878	22107.82
462.083	21743.28
462.289	22279.85
462.494	23236.25
462.7	23246.49
462.905	23627.42
463.111	25691.77
463.316	26373.74
463.522	27209.31
463.727	28030.55
463.932	29077.06
464.138	30101.04
464.343	31460.9
464.549	31591.97
464.754	33388.03
464.959	34473.46
465.165	35147.24
465.37	34526.71
465.575	34887.15
465.781	37127.63
465.986	38567.35
466.191	37723.58
466.397	38071.74
466.602	36894.16
466.807	39409.06
467.012	40115.61
467.218	40607.12
467.423	40979.85
467.628	41575.81
467.833	43996.51
468.038	42788.21
468.244	42460.54
468.449	44627.29
468.654	43523.43
468.859	43662.69
469.064	43515.24
469.269	43048.3
469.474	43058.54
469.679	44440.92
469.885	43165.04
470.09	43408.75
470.295	44121.44
470.5	42710.39
470.705	42982.77
470.91	41678.21
471.115	41303.43
471.32	41581.96
471.525	41901.44
471.73	40770.96
471.935	40041.89
472.139	38722.99
472.344	38944.17
472.549	38886.83
472.754	38073.79
472.959	36978.12
473.164	36134.36
473.369	35255.78
473.574	36314.58
473.778	35644.9
473.983	35028.46
474.188	34569.71
474.393	32673.29
474.598	32636.43
474.802	32007.7
475.007	31729.18
475.212	31278.63
475.417	29978.17
475.621	29826.62
475.826	29949.49
476.031	28724.81
476.235	28280.4
476.44	28368.46
476.645	27344.48
476.849	27176.55
477.054	26783.34
477.259	25867.89
477.463	26101.36
477.668	25269.89
477.872	25249.41
478.077	24508.04
478.282	23910.04
478.486	23729.81
478.691	23719.57
478.895	23424.67
479.1	23238.3
479.304	23043.74
479.509	22283.95
479.713	22564.52
479.918	21884.59
480.122	21573.3
480.326	21745.33
480.531	21558.97
480.735	21325.5
480.94	21089.98
481.144	22005.42
481.348	20432.58
481.553	20526.79
481.757	20166.35
481.961	20360.91
482.166	20504.26
482.37	20342.47
482.574	19859.15
482.778	19732.18
482.983	19824.34
483.187	19263.19
483.391	19099.36
483.595	19140.32
483.8	18839.26
484.004	19070.69
484.208	18968.29
484.412	18527.97
484.616	18304.74
484.821	18353.9
485.025	17592.05
485.229	17850.1
485.433	17520.37
485.637	17381.11
485.841	16897.79
486.045	16723.71
486.249	16879.36
486.453	16367.37
486.657	16037.64
486.861	15959.82
487.065	15484.69
487.269	15591.19
487.473	14950.17
487.677	15007.51
487.881	14774.05
488.085	14415.65
488.289	14526.24
488.493	13739.82
488.697	13883.18
488.901	13709.1
489.105	13225.78
489.309	13113.14
489.512	12887.87
489.716	12812.09
489.92	12527.42
490.124	12179.27
490.328	12285.76
490.531	11890.51
490.735	11693.9
490.939	11509.58
491.143	10884.95
491.346	10899.29
491.55	10776.41
491.754	10698.59
491.958	10749.79
492.161	10415.97
492.365	10317.67
492.569	9942.89
492.772	9772.91
492.976	9783.15
493.18	9545.58
493.383	9580.4
493.587	9391.98
493.79	9561.97
493.994	9310.07
494.197	9131.89
494.401	8959.86
494.605	8882.04
494.808	8753.02
495.012	8767.35
495.215	8957.82
495.419	8730.49
495.622	8476.54
495.825	8537.98
496.029	8327.04
496.232	8761.21
496.436	8406.91
496.639	8494.97
496.843	8279.94
497.046	8368
497.249	8576.89
497.453	8288.13
497.656	8259.46
497.859	8439.68
498.063	8499.07
498.266	8593.28
498.469	8355.71
498.673	8302.47
498.876	8472.45
499.079	8318.85
499.282	8368
499.485	8857.46
499.689	8664.96
499.892	8658.81
500.095	8597.37
500.298	8793.98
500.501	8554.37
500.705	9004.92
500.908	9025.4
501.111	8834.94
501.314	9242.48
501.517	9301.87
501.72	9295.73
501.923	9267.06
502.126	9422.7
502.329	9746.28
502.532	9623.41
502.735	9596.78
502.938	10026.85
503.141	9938.79
503.344	10084.2
503.547	10202.98
503.75	10438.5
503.953	10243.94
504.156	10651.49
504.359	10512.22
504.562	10909.53
504.765	11003.74
504.968	11439.95
505.17	11464.53
505.373	11491.15
505.576	11720.53
505.779	11900.75
505.982	11872.07
506.185	12248.9
506.387	12519.23
506.59	12564.29
506.793	13006.65
506.996	13078.33
507.198	13164.34
507.401	13393.72
507.604	13627.18
507.807	14278.44
508.009	14063.4
508.212	14616.35
508.415	14882.59
508.617	15234.84
508.82	15595.28
509.022	15499.03
509.225	16381.7
509.428	16381.7
509.63	16772.86
509.833	17035
510.035	17573.62
510.238	17602.29
510.44	18067.18
510.643	18642.66
510.845	19140.32
511.048	19201.76
511.25	19803.86
511.453	20039.37
511.655	21128.89
511.858	21202.62
512.06	21460.66
512.262	21843.63
512.465	22441.64
512.667	23187.1
512.87	23451.29
513.072	23934.61
513.274	24555.15
513.477	25132.67
513.679	25482.88
513.881	26195.57
514.084	26592.87
514.286	27076.19
514.488	27608.67
514.69	28622.41
514.893	29152.84
515.095	29378.11
515.297	30203.44
515.499	31006.25
515.701	31571.49
515.904	32175.64
516.106	32890.38
516.308	33431.04
516.51	34172.41
516.712	34504.18
516.914	35018.22
517.116	36187.61
517.318	36224.47
517.52	37125.58
517.722	37420.49
517.925	38469.04
518.127	39611.81
518.329	40340.89
518.531	39978.4
518.733	41106.83
518.935	41829.76
519.136	42366.33
519.338	43048.3
519.54	43773.28
519.742	44283.23
519.944	45145.42
520.146	45643.08
520.348	46140.74
520.55	46697.78
520.752	47154.48
520.954	47988
521.155	47697.19
521.357	49032.47
521.559	49462.54
521.761	49954.05
521.963	50310.4
522.164	50822.39
522.366	50998.52
522.568	51637.48
522.77	51930.34
522.971	52903.13
523.173	52600.03
523.375	52853.98
523.576	53044.44
523.778	53454.03
523.98	53529.81
524.181	53976.26
524.383	54037.7
524.584	54348.99
524.786	54566.08
524.988	53714.12
525.189	54615.23
525.391	54545.6
525.592	54740.16
525.794	54926.52
525.995	54797.5
526.197	54582.46
526.398	54641.85
526.6	54590.65
526.801	54668.48
527.003	54238.4
527.204	53939.4
527.406	54475.97
527.607	53636.3
527.808	53785.8
528.01	52987.1
528.211	53124.31
528.412	53607.63
528.614	52370.66
528.815	52260.07
529.016	51829.99
529.218	51086.58
529.419	51004.66
529.62	50797.82
529.822	50011.4
530.023	49454.35
530.224	49300.75
530.425	48899.35
530.626	48084.26
530.828	47967.52
531.029	47852.84
531.23	47004.98
531.431	46333.24
531.632	45763.91
531.833	45522.25
532.035	44793.17
532.236	43867.49
532.437	44211.55
532.638	43191.66
532.839	42847.6
533.04	42143.1
533.241	41473.42
533.442	42012.03
533.643	40889.74
533.844	40019.36
534.045	39841.18
534.246	38602.16
534.447	38581.68
534.648	38022.59
534.849	37465.54
535.05	36773.33
535.251	36216.28
535.451	35919.32
535.652	35880.41
535.853	35122.66
536.054	34788.85
536.255	34344.44
536.456	33385.99
536.657	33834.49
536.857	32681.49
537.058	32036.38
537.259	32185.88
537.46	31710.75
537.66	31137.32
537.861	30625.32
538.062	30395.95
538.263	29914.68
538.463	29638.2
538.664	29601.34
538.865	28911.17
539.065	29003.33
539.266	27956.82
539.466	28108.37
539.667	27336.29
539.868	27291.23
540.068	27035.24
540.269	26304.11
540.469	26287.73
540.67	25896.56
540.87	25554.55
541.071	25218.69
541.271	25007.75
541.472	24960.64
541.672	24129.17
541.873	24094.35
542.073	23615.13
542.274	23654.04
542.474	23307.93
542.675	22902.43
542.875	23195.29
543.075	22623.91
543.276	22113.97
543.476	22320.81
543.676	21796.53
543.877	21595.83
544.077	21538.49
544.277	21135.04
544.478	20909.76
544.678	20524.74
544.878	20223.69
545.078	20281.03
545.279	19914.45
545.479	19439.32
545.679	19402.46
545.879	19109.6
546.079	19001.05
546.28	18695.91
546.48	18591.46
546.68	18325.22
546.88	18190.06
547.08	18157.29
547.28	17729.27
547.48	17307.38
547.68	17381.11
547.88	16977.66
548.081	17006.33
548.281	16486.15
548.481	16332.55
548.681	16504.58
548.881	16162.57
549.081	15931.15
549.28	15503.12
549.48	15345.43
549.68	15089.43
549.88	15175.45
550.08	14483.24
550.28	14624.54
550.48	14468.9
550.68	14389.03
550.88	13948.72
551.08	13899.56
551.279	13731.63
551.479	13307.7
551.679	13287.22
551.879	13119.29
552.079	12994.36
552.278	12566.34
552.478	12588.86
552.678	12287.81
552.878	12185.41
553.077	11851.6
553.277	11724.62
553.477	11605.84
553.676	11376.47
553.876	11290.45
554.076	10970.97
554.275	10913.63
554.475	10540.9
554.674	10561.37
554.874	10284.9
555.074	10139.49
555.273	9951.08
555.473	9871.21
555.672	9740.14
555.872	9686.89
556.071	9463.66
556.271	9680.75
556.47	9236.34
556.67	8845.18
556.869	8740.73
557.068	8656.76
557.268	8351.62
557.467	8372.1
557.667	8454.01
557.866	8114.05
558.065	8025.99
558.265	7778.19
558.464	7692.17
558.663	7735.18
558.863	7475.09
559.062	7520.14
559.261	7020.44
559.461	7313.3
559.66	6883.22
559.859	6752.15
560.058	6862.74
560.258	6774.68
560.457	6510.49
560.656	6610.84
560.855	6174.63
561.054	6291.36
561.253	6207.39
561.453	6098.85
561.652	5834.66
561.851	6100.9
562.05	5900.2
562.249	5756.84
562.448	5617.58
562.647	5431.21
562.846	5341.1
563.045	5490.6
563.244	5453.74
563.443	5298.1
563.642	5169.07
563.841	5189.55
564.04	5021.62
564.239	4941.75
564.438	5015.48
564.637	4573.11
564.836	4634.55
565.035	4650.94
565.234	4540.35
565.432	4575.16
565.631	4591.55
565.83	4429.76
566.029	4321.21
566.228	4276.16
566.427	4282.3
566.625	4089.79
566.824	4128.7
567.023	3913.67
567.222	3946.44
567.42	3846.09
567.619	3948.48
567.818	3674.06
568.016	3874.76
568.215	3704.78
568.414	3704.78
568.612	3483.59
568.811	3518.41
569.01	3526.6
569.208	3366.86
569.407	3422.16
569.605	3389.39
569.804	3268.56
570.002	3379.15
570.201	3231.69
570.4	3168.21
570.598	3125.2
570.797	3092.43
570.995	2942.93
571.193	3010.51
571.392	3053.52
571.59	2727.89
571.789	2873.3
571.987	2889.68
572.186	2858.96
572.384	2666.46
572.582	2637.78
572.781	2617.3
572.979	2504.67
573.177	2514.91
573.376	2602.97
573.574	2580.44
573.772	2422.75
573.971	2426.84
574.169	2258.91
574.367	2310.11
574.565	2242.53
574.763	2148.32
574.962	2176.99
575.16	2019.3
575.358	2074.59
575.556	2033.63
575.754	2119.65
575.952	2140.13
576.151	2105.31
576.349	2174.94
576.547	1986.53
576.745	1935.33
576.943	2009.06
577.141	1859.56
577.339	1771.49
577.537	1804.26
577.735	1832.93
577.933	1712.1
578.131	1705.96
578.329	1773.54
578.527	1660.9
578.725	1818.6
578.923	1531.88
579.121	1724.39
579.319	1435.63
579.516	1570.79
579.714	1763.3
579.912	1515.5
580.11	1464.3
580.308	1468.39
580.506	1470.44
580.704	1406.95
580.901	1300.46
581.099	1468.39
581.297	1273.84
581.495	1318.89
581.692	1267.69
581.89	1355.76
582.088	1308.65
582.285	1320.94
582.483	1153.01
582.681	1247.21
582.878	1083.38
583.076	1304.56
583.274	1267.69
583.471	1318.89
583.669	1112.05
583.866	1019.89
584.064	1112.05
584.262	1087.47
584.459	1046.51
584.657	972.79
584.854	1017.84
585.052	1077.23
585.249	1124.33
585.447	1126.38
585.644	839.67
585.841	1026.03
586.039	1034.22
586.236	1083.38
586.434	995.31
586.631	950.26
586.828	878.58
587.026	894.96
587.223	806.9
587.42	739.32
587.618	913.39
587.815	927.73
588.012	851.95
588.21	858.1
588.407	882.67
588.604	823.28
588.801	843.76
588.999	772.08
589.196	880.63
589.393	751.6
589.59	722.93
589.787	882.67
589.984	811
590.182	806.9
590.379	722.93
590.576	716.79
590.773	735.22
590.97	759.8
591.167	821.24
591.364	784.37
591.561	782.32
591.758	806.9
591.955	727.03
592.152	747.51
592.349	675.83
592.546	741.36
592.743	776.18
592.94	710.65
593.137	677.88
593.334	774.13
593.531	862.19
593.727	849.91
593.924	772.08
594.121	704.5
594.318	747.51
594.515	759.8
594.712	854
594.908	866.29
595.105	698.36
595.302	722.93
595.499	692.21
595.696	851.95
595.892	727.03
596.089	847.86
596.286	749.56
596.482	884.72
596.679	837.62
596.876	819.19
597.072	956.4
597.269	870.39
597.466	950.26
597.662	964.59
597.859	966.64
598.055	925.68
598.252	1069.04
598.448	1159.15
598.645	1095.66
598.841	1249.26
599.038	1267.69
599.234	1353.71
599.431	1304.56
599.627	1392.62
599.824	1480.68
600.02	1429.48
600.217	1480.68
600.413	1495.02
600.609	1667.05
600.806	1738.73
601.002	1742.82
601.198	1800.16
601.395	1937.38
601.591	1920.99
601.787	2103.26
601.984	2101.22
602.18	2125.79
602.376	2150.37
602.572	2283.49
602.769	2484.19
602.965	2387.93
603.161	2656.22
603.357	2564.06
603.553	2867.16
603.75	2664.41
603.946	2930.64
604.142	3020.75
604.338	3229.65
604.534	3110.86
604.73	3280.85
604.926	3362.76
605.122	3637.19
605.318	3665.86
605.514	3692.49
605.71	3903.43
605.906	3954.63
606.102	4130.75
606.298	4310.97
606.494	4499.39
606.69	4732.86
606.886	4607.93
607.082	4677.56
607.278	4988.85
607.474	5105.59
607.67	5068.72
607.866	5265.33
608.062	5584.81
608.257	5711.78
608.453	5857.19
608.649	5877.67
608.845	5975.97
609.041	6244.26
609.236	6512.54
609.432	6684.57
609.628	6653.85
609.824	7073.68
610.019	7155.6
610.215	7253.91
610.411	7446.41
610.606	7804.81
610.802	7892.87
610.998	8392.58
611.193	8339.33
611.389	8365.95
611.584	8918.9
611.78	8793.98
611.976	9260.91
612.171	9703.28
612.367	9736.04
612.562	9957.22
612.758	10014.57
612.953	10338.15
613.149	10768.22
613.344	11013.98
613.539	11433.81
613.735	11738.96
613.93	12207.94
614.126	12056.39
614.321	12640.06
614.517	13041.47
614.712	13256.5
614.907	13487.92
615.103	13905.71
615.298	14300.97
615.493	14851.87
615.688	14858.01
615.884	15642.39
616.079	15795.98
616.274	16412.42
616.47	16537.35
616.665	17127.16
616.86	17434.36
617.055	17727.22
617.25	18396.9
617.445	18765.54
617.641	18972.38
617.836	19896.02
618.031	19885.78
618.226	20868.8
618.421	21126.85
618.616	21745.33
618.811	21868.21
619.006	23025.31
619.201	23099.04
619.396	23588.5
619.591	23752.34
619.786	24837.76
619.981	24796.81
620.176	25867.89
620.371	26074.74
620.566	26769
620.761	27276.9
620.956	27790.94
621.151	28032.6
621.346	29081.16
621.541	29027.91
621.735	30072.37
621.93	30602.8
622.125	31157.8
622.32	30803.5
622.515	32415.25
622.709	32613.9
622.904	33308.16
623.099	33846.78
623.294	34328.05
623.488	34729.45
623.683	35468.77
623.878	35872.22
624.072	36726.22
624.267	37060.04
624.462	37694.91
624.656	37946.81
624.851	38960.56
625.046	39355.82
625.24	39738.79
625.435	40123.8
625.629	40885.65
625.824	41303.43
626.018	42073.47
626.213	42034.56
626.407	43040.11
626.602	42618.23
626.796	43410.79
626.991	44498.26
627.185	44582.23
627.38	44793.17
627.574	44817.75
627.768	45088.08
627.963	45264.21
628.157	45442.38
628.352	45946.18
628.546	45385.04
628.74	46177.6
628.935	45704.52
629.129	46134.59
629.323	45303.12
629.517	45516.11
629.712	45206.86
629.906	44660.05
630.1	43998.56
630.294	43996.51
630.489	43859.3
630.683	43568.49
630.877	42167.68
631.071	41837.95
631.265	41432.46
631.459	40267.16
631.653	39390.63
631.848	39148.97
632.042	37731.78
632.236	37782.98
632.43	35599.84
632.624	35227.11
632.818	34080.25
633.012	33197.57
633.206	32136.73
633.4	31587.87
633.594	29943.35
633.788	29492.8
633.982	28724.81
634.176	27483.74
634.369	26109.55
634.563	25382.52
634.757	24004.24
634.951	23637.66
635.145	22453.93
635.339	21665.46
635.533	20797.12
635.726	20315.85
635.92	18923.23
636.114	18519.78
636.308	17561.33
636.501	16883.45
636.695	16367.37
636.889	15623.95
637.083	14759.71
637.276	14563.11
637.47	13688.62
637.664	13258.55
637.857	12928.83
638.051	12332.87
638.244	11714.38
638.438	11202.39
638.632	10811.23
638.825	10418.02
639.019	10112.87
639.212	9613.17
639.406	9371.51
639.599	8736.63
639.793	8687.48
639.986	8157.06
640.18	8095.62
640.373	7620.49
640.567	7286.67
640.76	7067.54
640.954	6674.33
641.147	6490.01
641.34	6274.98
641.534	6066.08
641.727	5975.97
641.92	5674.92
642.114	5353.39
642.307	4986.8
642.5	5058.48
642.694	4749.24
642.887	4609.98
643.08	4503.48
643.273	4380.61
643.467	4026.31
643.66	3925.96
643.853	3751.88
644.046	3491.79
644.239	3545.03
644.432	3315.66
644.626	3215.31
644.819	3098.58
645.012	3006.42
645.205	3033.04
645.398	2944.98
645.591	2607.06
645.784	2582.49
645.977	2381.79
646.17	2502.62
646.363	2310.11
646.556	2078.69
646.749	2168.8
646.942	2099.17
647.135	2009.06
647.328	1857.51
647.521	1865.7
647.714	1710.05
647.907	1621.99
648.099	1505.26
648.292	1595.37
648.485	1572.84
648.678	1501.16
648.871	1417.19
649.064	1396.71
649.256	1247.21
649.449	1318.89
649.642	1142.77
649.835	1159.15
650.027	1110
650.22	1030.13
650.413	1060.85
650.605	1042.42
650.798	978.93
650.991	935.92
651.183	843.76
651.376	919.54
651.568	874.48
651.761	745.46
651.954	937.97
652.146	794.61
652.339	856.05
652.531	806.9
652.724	563.19
652.916	690.17
653.109	561.14
653.301	632.82
653.494	751.6
653.686	542.71
653.879	614.39
654.071	581.62
654.263	550.9
654.456	485.37
654.648	655.35
654.84	600.05
655.033	409.59
655.225	659.45
655.417	325.63
655.61	522.23
655.802	464.89
655.994	501.75
656.186	391.16
656.379	446.46
656.571	387.07
656.763	374.78
656.955	432.12
657.148	471.03
657.34	503.8
657.532	372.73
657.724	342.01
657.916	327.68
658.108	446.46
658.3	452.6
658.492	315.39
658.684	305.15
658.876	491.51
659.068	202.75
659.26	217.08
659.452	227.32
659.644	307.2
659.836	495.61
660.028	270.33
660.22	256
660.412	309.24
660.604	227.32
660.796	350.2
660.988	284.67
661.18	167.93
661.372	264.19
661.563	215.04
661.755	198.65
661.947	206.84
662.139	133.12
662.331	194.56
662.522	129.02
662.714	161.79
662.906	165.89
663.097	227.32
663.289	149.5
663.481	135.17
663.673	258.04
663.864	172.03
664.056	186.37
664.247	120.83
664.439	253.95
664.631	200.7
664.822	243.71
665.014	235.52
665.205	96.25
665.397	145.41
665.588	184.32
665.78	190.46
665.971	190.46
666.163	153.6
666.354	137.21
666.546	169.98
666.737	172.03
666.929	163.84
667.12	102.4
667.311	223.23
667.503	221.18
667.694	98.3
667.885	149.5
668.077	112.64
668.268	83.97
668.459	178.17
668.651	108.54
668.842	245.76
669.033	-4.1
669.224	49.15
669.416	327.68
669.607	88.06
669.798	88.06
669.989	206.84
670.18	145.41
670.371	169.98
670.563	18.43
670.754	180.22
670.945	157.69
671.136	151.55
671.327	135.17
671.518	202.75
671.709	225.28
671.9	133.12
672.091	260.09
672.282	94.21
672.473	153.6
672.664	98.3
672.855	182.27
673.046	167.93
673.237	131.07
673.428	100.35
673.619	196.61
673.809	47.1
674	174.08
674.191	192.51
674.382	182.27
674.573	96.25
674.764	137.21
674.954	176.13
675.145	135.17
675.336	55.3
675.527	149.5
675.717	61.44
675.908	67.58
676.099	65.54
676.289	210.94
676.48	-26.62
676.671	145.41
676.861	114.69
677.052	137.21
677.243	159.74
677.433	100.35
677.624	212.99
677.814	167.93
678.005	104.45
678.195	280.57
678.386	75.77
678.576	139.26
678.767	63.49
678.957	153.6
679.148	92.16
679.338	264.19
679.529	131.07
679.719	227.32
679.909	286.72
680.1	182.27
680.29	210.94
680.481	73.73
680.671	192.51
680.861	227.32
681.052	122.88
681.242	149.5
681.432	208.89
681.622	174.08
681.813	129.02
682.003	104.45
682.193	139.26
682.383	129.02
682.573	155.65
682.764	161.79
682.954	219.13
683.144	231.42
683.334	133.12
683.524	165.89
683.714	167.93
683.904	233.47
684.094	190.46
684.284	233.47
684.474	260.09
684.664	268.28
684.854	200.7
685.044	176.13
685.234	208.89
685.424	223.23
685.614	165.89
685.804	325.63
685.994	188.41
686.184	184.32
686.374	194.56
686.564	210.94
686.753	172.03
686.943	100.35
687.133	176.13
687.323	157.69
687.513	176.13
687.702	192.51
687.892	190.46
688.082	192.51
688.272	311.29
688.461	194.56
688.651	282.62
688.841	210.94
689.03	212.99
689.22	178.17
689.41	221.18
689.599	239.61
689.789	112.64
689.979	303.1
690.168	219.13
690.358	247.8
690.547	120.83
690.737	202.75
690.926	221.18
691.116	165.89
691.305	208.89
691.495	200.7
691.684	112.64
691.874	139.26
692.063	153.6
692.252	260.09
692.442	217.08
692.631	202.75
692.82	153.6
693.01	178.17
693.199	169.98
693.388	110.59
693.578	159.74
693.767	182.27
693.956	241.66
694.146	180.22
694.335	260.09
694.524	180.22
694.713	233.47
694.902	102.4
695.092	104.45
695.281	149.5
695.47	251.9
695.659	131.07
695.848	135.17
696.037	129.02
696.226	249.85
696.415	202.75
696.604	241.66
696.793	188.41
696.982	174.08
697.171	268.28
697.36	108.54
697.549	153.6
697.738	63.49
697.927	206.84
698.116	108.54
698.305	247.8
698.494	157.69
698.683	223.23
698.872	327.68
699.061	96.25
699.25	65.54
699.438	284.67
699.627	108.54
699.816	268.28
700.005	124.93
700.193	116.73
700.382	219.13
700.571	227.32
700.76	225.28
700.948	256
701.137	253.95
701.326	178.17
701.514	106.49
701.703	223.23
701.892	135.17
702.08	243.71
702.269	135.17
702.457	75.77
702.646	153.6
702.834	194.56
703.023	274.43
703.212	190.46
703.4	137.21
703.589	110.59
703.777	151.55
703.965	86.01
704.154	204.8
704.342	149.5
704.531	157.69
704.719	188.41
704.907	268.28
705.096	120.83
705.284	120.83
705.472	159.74
705.661	219.13
705.849	264.19
706.037	219.13
706.226	206.84
706.414	118.78
706.602	133.12
706.79	223.23
706.979	141.31
707.167	182.27
707.355	49.15
707.543	215.04
707.731	153.6
707.919	143.36
708.107	202.75
708.296	192.51
708.484	161.79
708.672	69.63
708.86	133.12
709.048	61.44
709.236	47.1
709.424	118.78
709.612	190.46
709.8	32.77
709.988	116.73
710.176	180.22
710.364	301.05
710.551	176.13
710.739	219.13
710.927	143.36
711.115	143.36
711.303	258.04
711.491	161.79
711.679	100.35
711.866	264.19
712.054	208.89
712.242	141.31
712.43	165.89
712.617	172.03
712.805	219.13
712.993	137.21
713.181	36.86
713.368	210.94
713.556	126.97
713.744	120.83
713.931	348.15
714.119	251.9
714.306	186.37
714.494	94.21
714.682	210.94
714.869	116.73
715.057	153.6
715.244	100.35
715.432	286.72
715.619	188.41
715.807	233.47
715.994	149.5
716.182	251.9
716.369	229.37
716.556	178.17
716.744	92.16
716.931	18.43
717.119	227.32
717.306	186.37
717.493	239.61
717.681	118.78
717.868	112.64
718.055	190.46
718.242	186.37
718.43	174.08
718.617	235.52
718.804	233.47
718.991	223.23
719.179	256
719.366	225.28
719.553	227.32
719.74	233.47
719.927	88.06
720.114	227.32
720.301	116.73
720.488	129.02
720.676	188.41
720.863	251.9
721.05	292.86
721.237	212.99
721.424	194.56
721.611	258.04
721.798	145.41
721.985	180.22
722.172	163.84
722.358	194.56
722.545	215.04
722.732	235.52
722.919	278.52
723.106	219.13
723.293	182.27
723.48	280.57
723.667	182.27
723.853	294.91
724.04	212.99
724.227	266.24
724.414	153.6
724.6	215.04
724.787	231.42
724.974	309.24
725.161	206.84
725.347	215.04
725.534	145.41
725.72	180.22
725.907	260.09
726.094	249.85
726.28	141.31
726.467	251.9
726.653	260.09
726.84	354.3
727.027	425.98
727.213	282.62
727.4	260.09
727.586	215.04
727.773	243.71
727.959	282.62
728.145	235.52
728.332	282.62
728.518	112.64
728.705	247.8
728.891	270.33
729.077	292.86
729.264	243.71
729.45	239.61
729.636	266.24
729.823	301.05
730.009	262.14
730.195	303.1
730.382	270.33
730.568	161.79
730.754	301.05
730.94	237.56
731.126	227.32
731.313	315.39
731.499	286.72
731.685	321.53
731.871	360.44
732.057	333.82
732.243	296.96
732.429	315.39
732.615	376.83
732.801	325.63
732.987	231.42
733.173	270.33
733.359	227.32
733.545	268.28
733.731	204.8
733.917	348.15
734.103	413.69
734.289	212.99
734.475	260.09
734.661	423.93
734.847	258.04
735.033	292.86
735.219	393.21
735.404	270.33
735.59	196.61
735.776	288.76
735.962	215.04
736.148	356.35
736.333	290.81
736.519	278.52
736.705	215.04
736.89	233.47
737.076	249.85
737.262	251.9
737.447	225.28
737.633	303.1
737.819	290.81
738.004	270.33
738.19	325.63
738.375	239.61
738.561	395.26
738.747	325.63
738.932	194.56
739.118	325.63
739.303	307.2
739.489	268.28
739.674	249.85
739.859	137.21
740.045	264.19
740.23	251.9
740.416	145.41
740.601	266.24
740.786	305.15
740.972	235.52
741.157	206.84
741.342	305.15
741.528	167.93
741.713	360.44
741.898	219.13
742.084	233.47
742.269	290.81
742.454	385.02
742.639	360.44
742.824	286.72
743.01	247.8
743.195	378.87
743.38	274.43
743.565	260.09
743.75	262.14
743.935	317.44
744.12	290.81
744.305	256
744.49	225.28
744.675	174.08
744.86	301.05
745.045	270.33
745.23	241.66
745.415	260.09
745.6	307.2
745.785	172.03
745.97	315.39
746.155	256
746.34	296.96
746.525	247.8
746.71	307.2
746.895	190.46
747.079	174.08
747.264	362.49
747.449	333.82
747.634	282.62
747.819	241.66
748.003	180.22
748.188	182.27
748.373	282.62
748.557	305.15
748.742	231.42
748.927	135.17
749.111	133.12
749.296	172.03
749.481	288.76
749.665	219.13
749.85	186.37
750.034	342.01
750.219	276.48
750.404	231.42
750.588	327.68
750.773	192.51
750.957	292.86
751.141	212.99
751.326	206.84
751.51	106.49
751.695	137.21
751.879	174.08
752.064	354.3
752.248	247.8
752.432	296.96
752.617	309.24
752.801	280.57
752.985	135.17
753.17	227.32
753.354	253.95
753.538	260.09
753.722	192.51
753.907	174.08
754.091	126.97
754.275	186.37
754.459	210.94
754.643	225.28
754.828	208.89
755.012	342.01
755.196	161.79
755.38	165.89
755.564	116.73
755.748	253.95
755.932	251.9
756.116	210.94
756.3	260.09
756.484	157.69
756.668	151.55
756.852	114.69
757.036	206.84
757.22	202.75
757.404	178.17
757.588	227.32
757.772	202.75
757.956	135.17
758.14	210.94
758.323	77.82
758.507	262.14
758.691	188.41
758.875	190.46
759.059	260.09
759.242	133.12
759.426	215.04
759.61	102.4
759.794	28.67
759.977	169.98
760.161	368.63
760.345	223.23
760.528	301.05
760.712	153.6
760.895	215.04
761.079	219.13
761.263	110.59
761.446	100.35
761.63	159.74
761.813	251.9
761.997	116.73
762.18	137.21
762.364	217.08
762.547	88.06
762.731	73.73
762.914	145.41
763.098	139.26
763.281	161.79
763.464	59.39
763.648	182.27
763.831	172.03
764.015	22.53
764.198	253.95
764.381	112.64
764.564	120.83
764.748	126.97
764.931	141.31
765.114	116.73
765.297	112.64
765.481	112.64
765.664	112.64
765.847	40.96
766.03	204.8
766.213	61.44
766.397	145.41
766.58	2.05
766.763	186.37
766.946	63.49
767.129	100.35
767.312	104.45
767.495	157.69
767.678	24.58
767.861	98.3
768.044	86.01
768.227	51.2
768.41	149.5
768.593	100.35
768.776	135.17
768.959	36.86
769.142	137.21
769.324	112.64
769.507	79.87
769.69	65.54
769.873	88.06
770.056	262.14
770.239	71.68
770.421	176.13
770.604	167.93
770.787	18.43
770.97	102.4
771.152	96.25
771.335	157.69
771.518	92.16
771.7	96.25
771.883	163.84
772.066	75.77
772.248	137.21
772.431	237.56
772.613	163.84
772.796	75.77
772.978	204.8
773.161	122.88
773.343	104.45
773.526	-10.24
773.708	20.48
773.891	-4.1
774.073	-14.34
774.256	57.34
774.438	264.19
774.621	53.25
774.803	122.88
774.985	-18.43
775.168	36.86
775.35	77.82
775.532	129.02
775.715	-18.43
775.897	116.73
776.079	112.64
776.261	145.41
776.444	108.54
776.626	49.15
776.808	104.45
776.99	24.58
777.173	159.74
777.355	43.01
777.537	145.41
777.719	63.49
777.901	26.62
778.083	63.49
778.265	59.39
778.447	118.78
778.629	71.68
778.811	71.68
778.993	53.25
779.175	102.4
779.357	38.91
779.539	-79.87
779.721	135.17
779.903	165.89
780.085	71.68
780.267	96.25
780.449	36.86
780.631	86.01
780.812	126.97
780.994	24.58
781.176	22.53
781.358	86.01
781.54	8.19
781.721	131.07
781.903	126.97
782.085	16.38
782.267	157.69
782.448	77.82
782.63	38.91
782.812	63.49
782.993	12.29
783.175	122.88
783.357	53.25
783.538	61.44
783.72	-10.24
783.901	34.82
784.083	124.93
784.264	122.88
784.446	-4.1
784.627	-24.58
784.809	149.5
784.99	36.86
785.172	71.68
785.353	-2.05
785.535	104.45
785.716	28.67
785.897	28.67
786.079	79.87
786.26	-2.05
786.441	161.79
786.623	-81.92
786.804	30.72
786.985	83.97
787.167	24.58
787.348	59.39
787.529	61.44
787.71	137.21
787.891	51.2
788.073	61.44
788.254	-20.48
788.435	120.83
788.616	53.25
788.797	-24.58
788.978	22.53
789.159	-18.43
789.34	112.64
789.522	92.16
789.703	12.29
789.884	122.88
790.065	30.72
790.246	159.74
790.427	98.3
790.607	94.21
790.788	129.02
790.969	6.14
791.15	79.87
791.331	6.14
791.512	-6.14
791.693	108.54
791.874	-20.48
792.054	169.98
792.235	55.3
792.416	6.14
792.597	67.58
792.778	51.2
792.958	45.06
793.139	73.73
793.32	69.63
793.5	45.06
793.681	102.4
793.862	6.14
794.042	6.14
794.223	-24.58
794.404	-65.53
794.584	-36.86
794.765	-16.38
794.945	43.01
795.126	116.73
795.306	90.11
795.487	-10.24
795.667	6.14
795.848	96.25
796.028	-4.1
796.209	26.62
796.389	45.06
796.57	-59.39
796.75	-4.1
796.93	38.91
797.111	69.63
797.291	-34.82
797.471	83.97
797.652	-14.34
797.832	51.2
798.012	104.45
798.192	30.72
798.373	-106.49
798.553	16.38
798.733	69.63
798.913	-20.48
799.093	30.72
799.274	2.05
799.454	100.35
799.634	71.68
799.814	47.1
799.994	98.3
800.174	32.77
800.354	57.34
800.534	-108.54
800.714	112.64
800.894	-8.19
801.074	16.38
801.254	16.38
801.434	112.64
801.614	-20.48
801.794	-45.06
801.974	1714.15
802.154	36.86
802.334	153.6
802.514	-24.58
802.693	-6.14
802.873	30.72
803.053	229.37
803.233	6.14
803.413	-20.48
803.592	-69.63
803.772	30.72
803.952	-6.14
804.131	12.29
804.311	59.39
804.491	79.87
804.67	-4.1
804.85	10.24
805.03	20.48
805.209	122.88
805.389	55.3
805.568	14.34
805.748	10.24
805.928	28.67
806.107	57.34
806.287	69.63
806.466	16.38
806.646	32.77
806.825	0
807.004	20.48
807.184	12.29
807.363	47.1
807.543	81.92
807.722	-2.05
807.901	137.21
808.081	32.77
808.26	-161.79
808.439	-4.1
808.619	61.44
808.798	2.05
808.977	51.2
809.156	100.35
809.336	47.1
809.515	59.39
809.694	-10.24
809.873	40.96
810.052	-16.38
810.231	110.59
810.411	77.82
810.59	63.49
810.769	22.53
810.948	38.91
811.127	-55.3
811.306	28.67
811.485	-61.44
811.664	129.02
811.843	18.43
812.022	38.91
812.201	43.01
812.38	-10.24
812.559	-18.43
812.737	75.77
812.916	-77.82
813.095	14.34
813.274	71.68
813.453	34.82
813.632	61.44
813.811	59.39
813.989	-92.16
814.168	98.3
814.347	26.62
814.526	-43.01
814.704	137.21
814.883	137.21
815.062	-20.48
815.24	79.87
815.419	-53.25
815.598	-10.24
815.776	-102.4
815.955	36.86
816.133	-135.17
816.312	32.77
816.49	-4.1
816.669	-18.43
816.847	-10.24
817.026	135.17
817.204	-6.14
817.383	36.86
817.561	-2.05
817.74	14.34
817.918	2.05
818.097	12.29
818.275	-12.29
818.453	118.78
818.632	40.96
818.81	57.34
818.988	-65.53
819.167	-34.82
819.345	61.44
819.523	2.05
819.701	6.14
819.879	28.67
820.058	49.15
820.236	4.1
820.414	59.39
820.592	-20.48
820.77	6.14
820.948	43.01
821.127	-18.43
821.305	-12.29
821.483	43.01
821.661	108.54
821.839	10.24
822.017	-53.25
822.195	55.3
822.373	92.16
822.551	-14.34
822.729	40.96
822.907	-63.49
823.085	79.87
823.262	-4.1
823.44	-55.3
823.618	14.34
823.796	102.4
823.974	14.34
824.152	-79.87
824.329	-22.53
824.507	65.54
824.685	102.4
824.863	-26.62
825.04	-6.14
825.218	26.62
825.396	32.77
825.574	6.14
825.751	4.1
825.929	77.82
826.107	-34.82
826.284	-22.53
826.462	32.77
826.639	-24.58
826.817	-106.49
826.994	-2.05
827.172	-59.39
827.349	147.45
827.527	67.58
827.704	69.63
827.882	92.16
828.059	100.35
828.237	6.14
828.414	112.64
828.591	-86.01
828.769	59.39
828.946	14.34
829.124	12.29
829.301	38.91
829.478	18.43
829.655	79.87
829.833	18.43
830.01	-26.62
830.187	83.97
830.364	10.24
830.542	6.14
830.719	79.87
830.896	43.01
831.073	-32.77
831.25	28.67
831.427	71.68
831.604	28.67
831.782	-118.78
831.959	94.21
832.136	-28.67
832.313	16.38
832.49	0
832.667	-2.05
832.844	-69.63
833.021	30.72
833.198	47.1
833.374	-8.19
833.551	14.34
833.728	-59.39
833.905	-38.91
834.082	-38.91
834.259	63.49
834.436	59.39
834.612	-36.86
834.789	100.35
834.966	28.67
835.143	38.91
835.319	-116.73
835.496	92.16
835.673	30.72
835.85	112.64
836.026	71.68
836.203	36.86
836.38	14.34
836.556	4.1
836.733	-22.53
836.909	178.17
837.086	4.1
837.262	-47.1
837.439	-24.58
837.616	12.29
837.792	55.3
837.968	55.3
838.145	-141.31
838.321	-8.19
838.498	67.58
838.674	88.06
838.851	-16.38
839.027	-14.34
839.203	-22.53
839.38	65.54
839.556	-26.62
839.732	38.91
839.909	-10.24
840.085	112.64
840.261	-10.24
840.437	71.68
840.614	96.25
840.79	-34.82
840.966	96.25
841.142	0
841.318	30.72
841.494	-14.34
841.671	53.25
841.847	-38.91
842.023	-28.67
842.199	10.24
842.375	63.49
842.551	-98.3
842.727	-28.67
842.903	96.25
843.079	-104.45
843.255	59.39
843.431	22.53
843.607	79.87
843.783	-143.36
843.959	-8.19
844.134	8.19
844.31	-16.38
844.486	12.29
844.662	-53.25
844.838	-2.05
845.013	-14.34
845.189	94.21
845.365	45.06
845.541	8.19
845.716	45.06
845.892	108.54
846.068	12.29
846.244	-18.43
846.419	40.96
846.595	-98.3
846.77	-6.14
846.946	57.34
847.122	-18.43
847.297	-4.1
847.473	147.45
847.648	-94.21
847.824	-24.58
847.999	-67.58
848.175	-2.05
848.35	79.87
848.526	67.58
848.701	133.12
848.876	124.93
849.052	86.01
849.227	30.72
849.403	-10.24
849.578	59.39
849.753	63.49
849.929	-24.58
850.104	-30.72
850.279	-24.58
850.454	10.24
850.63	43.01
850.805	30.72
850.98	-57.34
851.155	-18.43
851.33	47.1
851.505	-112.64
851.681	126.97
851.856	-36.86
852.031	34.82
852.206	4.1
852.381	-34.82
852.556	-22.53
852.731	10.24
852.906	106.49
853.081	28.67
853.256	104.45
853.431	8.19
853.606	-20.48
853.781	-34.82
853.956	-114.69
854.131	24.58
854.305	14.34
854.48	-75.77
854.655	-53.25
854.83	-28.67
855.005	-10.24
855.18	-34.82
855.354	-36.86
855.529	-20.48
855.704	-100.35
855.879	51.2
856.053	-100.35
856.228	-43.01
856.403	-67.58
856.577	69.63
856.752	-71.68
856.926	-34.82
857.101	20.48
857.276	-104.45
857.45	100.35
857.625	83.97
857.799	-2.05
857.974	10.24
858.148	-94.21
858.323	-18.43
858.497	6.14
858.672	-28.67
858.846	-59.39
859.02	45.06
859.195	24.58
859.369	-83.97
859.543	-2.05
859.718	18.43
859.892	71.68
860.066	4.1
860.241	-18.43
860.415	-22.53
860.589	36.86
860.763	-28.67
860.938	-6.14
861.112	26.62
861.286	-51.2
861.46	22.53
861.634	32.77
861.808	55.3
861.982	-65.53
862.157	-18.43
862.331	38.91
862.505	-55.3
862.679	-98.3
862.853	24.58
863.027	-6.14
863.201	155.65
863.375	-12.29
863.549	30.72
863.722	36.86
863.896	81.92
864.07	-57.34
864.244	32.77
864.418	32.77
864.592	14.34
864.766	-75.77
864.939	-14.34
865.113	-43.01
865.287	38.91
865.461	-73.73
865.634	63.49
865.808	-49.15
865.982	-51.2
866.156	-61.44
866.329	-55.3
866.503	61.44
866.676	110.59
866.85	20.48
867.024	-30.72
867.197	49.15
867.371	-53.25
867.544	24.58
867.718	-157.69
867.891	137.21
868.065	-108.54
868.238	30.72
868.412	22.53
868.585	40.96
868.759	-79.87
868.932	-22.53
869.105	-34.82
869.279	-20.48
869.452	-88.06
869.625	-36.86
869.799	-43.01
869.972	-30.72
870.145	-12.29
870.319	14.34
870.492	43.01
870.665	-55.3
870.838	-36.86
871.011	-102.4
871.185	-14.34
871.358	-34.82
871.531	67.58
871.704	-34.82
871.877	-20.48
872.05	0
872.223	-43.01
872.396	22.53
872.569	88.06
872.742	-108.54
872.915	-10.24
873.088	-63.49
873.261	-71.68
873.434	14.34
873.607	26.62
873.78	8.19
873.953	-69.63
874.126	12.29
874.299	59.39
874.471	-8.19
874.644	-20.48
874.817	73.73
874.99	106.49
875.163	-10.24
875.335	12.29
875.508	-10.24
875.681	34.82
875.853	-57.34
876.026	10.24
876.199	51.2
876.371	12.29
876.544	30.72
876.717	10.24
876.889	-16.38
877.062	-4.1
877.234	-45.06
877.407	8.19
877.579	34.82
877.752	63.49
877.924	94.21
878.097	110.59
878.269	20.48
878.442	61.44
878.614	94.21
878.786	-20.48
878.959	22.53
879.131	79.87
879.303	-118.78
879.476	43.01
879.648	32.77
879.82	18.43
879.993	-47.1
880.165	2.05
880.337	-92.16
880.509	-16.38
880.681	4.1
880.854	-2.05
881.026	18.43
881.198	161.79
881.37	-26.62
881.542	-22.53
881.714	0
881.886	-24.58
882.058	36.86
882.23	-34.82
882.402	-45.06
882.574	2.05
882.746	120.83
882.918	133.12
883.09	24.58
883.262	-32.77
883.434	-59.39
883.606	-90.11
883.778	-22.53
883.95	92.16
884.122	-73.73
884.293	51.2
884.465	49.15
884.637	45.06
884.809	-79.87
884.98	14.34
885.152	24.58
885.324	45.06
885.496	-55.3
885.667	10.24
885.839	-26.62
886.011	88.06
886.182	51.2
886.354	57.34
886.525	-67.58
886.697	63.49
886.869	-81.92
887.04	-49.15
887.212	100.35
887.383	120.83
887.555	26.62
887.726	-16.38
887.897	-51.2
888.069	38.91
888.24	69.63
888.412	-14.34
888.583	-141.31
888.754	-12.29
888.926	-90.11
889.097	-69.63
889.268	-122.88
889.44	32.77
889.611	-83.97
889.782	-94.21
889.953	-71.68
890.125	116.73
890.296	-32.77
890.467	14.34
890.638	-67.58
890.809	4.1
890.98	-73.73
891.151	55.3
891.323	24.58
891.494	63.49
891.665	2.05
891.836	-8.19
892.007	4.1
892.178	73.73
892.349	34.82
892.52	-53.25
892.691	-22.53
892.862	30.72
893.032	-124.93
893.203	-26.62
893.374	-2.05
893.545	88.06
893.716	-102.4
893.887	32.77
894.057	47.1
894.228	26.62
894.399	-14.34
894.57	79.87
894.74	28.67
894.911	129.02
895.082	-49.15
895.253	-63.49
895.423	2.05
895.594	53.25
895.764	-28.67
895.935	-20.48
896.106	2.05
896.276	-47.1
896.447	28.67
896.617	-22.53
896.788	-20.48
896.958	-73.73
897.129	-22.53
897.299	18.43
897.47	75.77
897.64	30.72
897.81	-4.1
897.981	45.06
898.151	-104.45
898.322	67.58
898.492	-10.24
898.662	-94.21
898.832	-108.54
899.003	6.14
899.173	38.91
899.343	-67.58
899.513	0
