Data from USB4F104151__34__10-24-34-639.txt Node

Date: Wed Feb 26 10:24:34 EST 2025
User: louis
Spectrometer: USB4F10415
Trigger mode: 4
Integration Time (sec): 1.000000E-1
Scans to average: 1
Electric dark correction enabled: true
Nonlinearity correction enabled: false
Boxcar width: 0
XAxis mode: Wavelengths
Number of Pixels in Spectrum: 3648
>>>>>Begin Spectral Data<<<<<
178.204	-391.5
178.424	-391.5
178.644	-391.5
178.864	-475.47
179.084	-383.31
179.304	-14.68
179.524	-29.01
179.744	26.28
179.964	145.06
180.184	-49.49
180.404	77.48
180.624	-53.59
180.844	48.81
181.064	-47.44
181.283	-18.77
181.503	-82.26
181.723	-2.39
181.943	-88.4
182.163	229.03
182.383	-0.34
182.602	-57.68
182.822	122.54
183.042	40.62
183.262	-12.63
183.482	20.14
183.701	20.14
183.921	18.09
184.141	-84.31
184.361	120.49
184.58	-14.68
184.8	-16.73
185.02	-57.68
185.239	36.52
185.459	44.71
185.679	114.34
185.898	-55.64
186.118	54.95
186.338	40.62
186.557	106.15
186.777	-43.35
186.997	-6.49
187.216	-55.64
187.436	143.02
187.655	57
187.875	108.2
188.095	-39.25
188.314	122.54
188.534	108.2
188.753	-14.68
188.973	122.54
189.192	114.34
189.412	36.52
189.631	32.43
189.851	20.14
190.07	161.45
190.29	-106.84
190.509	-33.11
190.729	7.85
190.948	138.92
191.168	173.74
191.387	73.39
191.607	-4.44
191.826	-74.07
192.045	-12.63
192.265	-0.34
192.484	18.09
192.704	16.04
192.923	-174.42
193.142	138.92
193.362	163.5
193.581	104.11
193.8	81.58
194.02	77.48
194.239	-35.16
194.458	63.15
194.678	-8.53
194.897	-47.44
195.116	20.14
195.335	44.71
195.555	75.43
195.774	-57.68
195.993	52.91
196.212	81.58
196.432	-51.54
196.651	7.85
196.87	-43.35
197.089	179.88
197.308	3.75
197.528	-2.39
197.747	-16.73
197.966	3.75
198.185	26.28
198.404	-47.44
198.623	-39.25
198.842	71.34
199.062	48.81
199.281	104.11
199.5	79.53
199.719	57
199.938	32.43
200.157	79.53
200.376	79.53
200.595	59.05
200.814	36.52
201.033	-76.12
201.252	57
201.471	36.52
201.69	95.91
201.909	-33.11
202.128	95.91
202.347	57
202.566	-47.44
202.785	-110.93
203.004	-61.78
203.223	206.5
203.442	-47.44
203.661	-43.35
203.879	42.67
204.098	95.91
204.317	-69.97
204.536	114.34
204.755	5.8
204.974	34.47
205.193	22.19
205.411	140.97
205.63	48.81
205.849	79.53
206.068	-16.73
206.287	-49.49
206.505	77.48
206.724	-4.44
206.943	-47.44
207.162	-12.63
207.381	63.15
207.599	-24.92
207.818	5.8
208.037	-31.06
208.255	-26.96
208.474	50.86
208.693	9.9
208.911	-22.87
209.13	65.19
209.349	67.24
209.567	24.23
209.786	102.06
210.005	54.95
210.223	46.76
210.442	-94.55
210.661	48.81
210.879	-35.16
211.098	-47.44
211.316	52.91
211.535	71.34
211.753	40.62
211.972	44.71
212.191	20.14
212.409	106.15
212.628	147.11
212.846	-22.87
213.065	1.71
213.283	122.54
213.502	-8.53
213.72	-10.58
213.938	9.9
214.157	-31.06
214.375	126.63
214.594	11.95
214.812	63.15
215.031	13.99
215.249	-78.16
215.467	50.86
215.686	9.9
215.904	77.48
216.122	-65.88
216.341	85.67
216.559	-4.44
216.778	118.44
216.996	122.54
217.214	-49.49
217.432	54.95
217.651	-88.4
217.869	28.33
218.087	3.75
218.306	-2.39
218.524	71.34
218.742	7.85
218.96	57
219.179	26.28
219.397	-0.34
219.615	155.3
219.833	114.34
220.051	-2.39
220.27	26.28
220.488	71.34
220.706	85.67
220.924	-14.68
221.142	-31.06
221.36	75.43
221.578	9.9
221.796	-29.01
222.015	-16.73
222.233	20.14
222.451	73.39
222.669	-59.73
222.887	95.91
223.105	-22.87
223.323	-18.77
223.541	-151.89
223.759	11.95
223.977	-41.3
224.195	157.35
224.413	155.3
224.631	38.57
224.849	73.39
225.067	132.78
225.285	-88.4
225.503	-16.73
225.721	-74.07
225.939	-2.39
226.157	-39.25
226.375	298.66
226.592	-49.49
226.81	13.99
227.028	124.58
227.246	81.58
227.464	13.99
227.682	97.96
227.9	40.62
228.117	48.81
228.335	46.76
228.553	57
228.771	54.95
228.989	48.81
229.206	-8.53
229.424	18.09
229.642	20.14
229.86	-74.07
230.077	134.82
230.295	-59.73
230.513	104.11
230.731	-0.34
230.948	132.78
231.166	128.68
231.384	16.04
231.601	-53.59
231.819	155.3
232.037	-29.01
232.254	-74.07
232.472	40.62
232.689	-29.01
232.907	83.63
233.125	-61.78
233.342	-29.01
233.56	-12.63
233.777	7.85
233.995	1.71
234.213	91.82
234.43	-4.44
234.648	11.95
234.865	-55.64
235.083	79.53
235.3	124.58
235.518	44.71
235.735	79.53
235.953	24.23
236.17	22.19
236.388	-41.3
236.605	61.1
236.822	65.19
237.04	122.54
237.257	95.91
237.475	-59.73
237.692	-4.44
237.909	36.52
238.127	5.8
238.344	-0.34
238.562	13.99
238.779	5.8
238.996	-65.88
239.214	44.71
239.431	20.14
239.648	9.9
239.865	28.33
240.083	9.9
240.3	-57.68
240.517	-16.73
240.735	-24.92
240.952	134.82
241.169	38.57
241.386	13.99
241.603	-63.83
241.821	-55.64
242.038	104.11
242.255	126.63
242.472	-24.92
242.689	38.57
242.907	73.39
243.124	67.24
243.341	42.67
243.558	-14.68
243.775	-129.36
243.992	-74.07
244.209	42.67
244.426	151.21
244.643	97.96
244.86	63.15
245.078	159.4
245.295	18.09
245.512	11.95
245.729	-90.45
245.946	42.67
246.163	-18.77
246.38	-57.68
246.597	36.52
246.814	13.99
247.031	34.47
247.248	46.76
247.464	93.87
247.681	-2.39
247.898	52.91
248.115	50.86
248.332	-20.82
248.549	177.83
248.766	87.72
248.983	9.9
249.2	69.29
249.417	151.21
249.633	-37.2
249.85	159.4
250.067	-16.73
250.284	7.85
250.501	46.76
250.717	44.71
250.934	-67.92
251.151	-33.11
251.368	9.9
251.585	26.28
251.801	18.09
252.018	-45.4
252.235	97.96
252.451	-96.6
252.668	20.14
252.885	30.38
253.102	11.95
253.318	1.71
253.535	3.75
253.752	-74.07
253.968	-53.59
254.185	-127.32
254.401	97.96
254.618	91.82
254.835	-14.68
255.051	95.91
255.268	-6.49
255.484	102.06
255.701	13.99
255.917	30.38
256.134	26.28
256.351	-6.49
256.567	-137.56
256.784	24.23
257	-112.98
257.217	11.95
257.433	-20.82
257.65	91.82
257.866	100.01
258.082	-82.26
258.299	-33.11
258.515	36.52
258.732	-35.16
258.948	5.8
259.165	32.43
259.381	-20.82
259.597	46.76
259.814	46.76
260.03	-4.44
260.246	-57.68
260.463	38.57
260.679	97.96
260.895	69.29
261.112	93.87
261.328	48.81
261.544	61.1
261.761	145.06
261.977	-121.17
262.193	-53.59
262.409	-6.49
262.626	-43.35
262.842	46.76
263.058	-16.73
263.274	106.15
263.49	32.43
263.707	13.99
263.923	57
264.139	-43.35
264.355	65.19
264.571	77.48
264.787	26.28
265.004	128.68
265.22	40.62
265.436	-82.26
265.652	16.04
265.868	87.72
266.084	-57.68
266.3	5.8
266.516	-2.39
266.732	50.86
266.948	65.19
267.164	-37.2
267.38	110.25
267.596	26.28
267.812	208.55
268.028	-59.73
268.244	-20.82
268.46	13.99
268.676	18.09
268.892	-20.82
269.108	-10.58
269.324	-86.36
269.54	-98.64
269.756	108.2
269.972	-82.26
270.188	46.76
270.403	-37.2
270.619	-47.44
270.835	112.3
271.051	-20.82
271.267	18.09
271.483	-41.3
271.698	59.05
271.914	32.43
272.13	11.95
272.346	-18.77
272.562	-12.63
272.777	57
272.993	50.86
273.209	-41.3
273.425	52.91
273.64	-141.65
273.856	87.72
274.072	-14.68
274.287	-92.5
274.503	104.11
274.719	118.44
274.934	-6.49
275.15	-86.36
275.366	40.62
275.581	-24.92
275.797	26.28
276.012	-16.73
276.228	-22.87
276.444	36.52
276.659	91.82
276.875	-65.88
277.09	-16.73
277.306	20.14
277.521	44.71
277.737	13.99
277.952	85.67
278.168	40.62
278.383	34.47
278.599	-43.35
278.814	77.48
279.03	44.71
279.245	128.68
279.461	9.9
279.676	81.58
279.892	-55.64
280.107	-78.16
280.322	-4.44
280.538	-10.58
280.753	-8.53
280.969	63.15
281.184	22.19
281.399	198.31
281.615	75.43
281.83	69.29
282.045	-63.83
282.26	3.75
282.476	57
282.691	104.11
282.906	54.95
283.122	85.67
283.337	-47.44
283.552	30.38
283.767	-8.53
283.983	149.16
284.198	26.28
284.413	9.9
284.628	-45.4
284.843	44.71
285.058	65.19
285.274	-8.53
285.489	5.8
285.704	61.1
285.919	-55.64
286.134	-10.58
286.349	24.23
286.564	54.95
286.779	69.29
286.995	-35.16
287.21	-35.16
287.425	100.01
287.64	-72.02
287.855	-26.96
288.07	-84.31
288.285	130.73
288.5	93.87
288.715	32.43
288.93	-8.53
289.145	-10.58
289.36	24.23
289.575	-20.82
289.79	-37.2
290.004	-35.16
290.219	95.91
290.434	-10.58
290.649	7.85
290.864	-57.68
291.079	75.43
291.294	18.09
291.509	38.57
291.724	5.8
291.938	16.04
292.153	71.34
292.368	36.52
292.583	24.23
292.798	-0.34
293.012	54.95
293.227	20.14
293.442	-61.78
293.657	18.09
293.871	85.67
294.086	-37.2
294.301	108.2
294.516	132.78
294.73	16.04
294.945	-20.82
295.16	28.33
295.374	91.82
295.589	95.91
295.804	20.14
296.018	-16.73
296.233	114.34
296.447	59.05
296.662	5.8
296.877	50.86
297.091	11.95
297.306	-24.92
297.52	-16.73
297.735	69.29
297.949	38.57
298.164	1.71
298.378	81.58
298.593	-33.11
298.807	1.71
299.022	24.23
299.236	128.68
299.451	-24.92
299.665	-22.87
299.88	-8.53
300.094	-10.58
300.309	75.43
300.523	28.33
300.737	-53.59
300.952	-22.87
301.166	73.39
301.381	-45.4
301.595	11.95
301.809	54.95
302.024	-8.53
302.238	-92.5
302.452	50.86
302.667	54.95
302.881	69.29
303.095	147.11
303.309	7.85
303.524	54.95
303.738	-6.49
303.952	-74.07
304.166	81.58
304.381	-125.27
304.595	153.26
304.809	-35.16
305.023	32.43
305.237	-10.58
305.452	38.57
305.666	102.06
305.88	79.53
306.094	85.67
306.308	40.62
306.522	83.63
306.736	83.63
306.95	-2.39
307.164	1.71
307.379	-2.39
307.593	155.3
307.807	134.82
308.021	5.8
308.235	61.1
308.449	-41.3
308.663	-76.12
308.877	183.98
309.091	73.39
309.305	52.91
309.519	-110.93
309.733	69.29
309.947	-39.25
310.161	22.19
310.374	57
310.588	44.71
310.802	-61.78
311.016	5.8
311.23	34.47
311.444	46.76
311.658	-0.34
311.872	32.43
312.085	87.72
312.299	54.95
312.513	89.77
312.727	20.14
312.941	-43.35
313.154	28.33
313.368	81.58
313.582	-55.64
313.796	-2.39
314.009	16.04
314.223	54.95
314.437	71.34
314.651	75.43
314.864	22.19
315.078	-45.4
315.292	79.53
315.505	-45.4
315.719	65.19
315.933	95.91
316.146	-86.36
316.36	-78.16
316.573	54.95
316.787	-35.16
317.001	89.77
317.214	-112.98
317.428	13.99
317.641	-37.2
317.855	26.28
318.068	-18.77
318.282	7.85
318.495	233.13
318.709	89.77
318.922	42.67
319.136	79.53
319.349	34.47
319.563	-22.87
319.776	48.81
319.99	-20.82
320.203	38.57
320.417	5.8
320.63	81.58
320.843	175.78
321.057	81.58
321.27	26.28
321.483	79.53
321.697	163.5
321.91	20.14
322.124	-45.4
322.337	18.09
322.55	-18.77
322.763	7.85
322.977	-20.82
323.19	-82.26
323.403	32.43
323.617	28.33
323.83	42.67
324.043	-69.97
324.256	20.14
324.469	-43.35
324.683	57
324.896	-4.44
325.109	7.85
325.322	-106.84
325.535	13.99
325.748	28.33
325.962	-51.54
326.175	5.8
326.388	26.28
326.601	5.8
326.814	-26.96
327.027	42.67
327.24	130.73
327.453	-86.36
327.666	75.43
327.879	65.19
328.092	73.39
328.305	97.96
328.518	-26.96
328.731	-2.39
328.944	3.75
329.157	77.48
329.37	13.99
329.583	120.49
329.796	163.5
330.009	-43.35
330.222	50.86
330.435	114.34
330.648	18.09
330.861	28.33
331.073	-65.88
331.286	149.16
331.499	-55.64
331.712	-29.01
331.925	20.14
332.138	-39.25
332.35	65.19
332.563	-20.82
332.776	128.68
332.989	-20.82
333.202	32.43
333.414	18.09
333.627	1.71
333.84	-43.35
334.053	34.47
334.265	-4.44
334.478	7.85
334.691	-18.77
334.903	-41.3
335.116	-39.25
335.329	-20.82
335.541	85.67
335.754	120.49
335.966	-53.59
336.179	5.8
336.392	-10.58
336.604	5.8
336.817	171.69
337.029	7.85
337.242	7.85
337.454	106.15
337.667	-29.01
337.88	81.58
338.092	120.49
338.305	40.62
338.517	-33.11
338.729	50.86
338.942	104.11
339.154	-86.36
339.367	-53.59
339.579	-18.77
339.792	-86.36
340.004	87.72
340.217	-67.92
340.429	11.95
340.641	-29.01
340.854	-37.2
341.066	63.15
341.278	120.49
341.491	155.3
341.703	32.43
341.915	-49.49
342.128	73.39
342.34	-43.35
342.552	-33.11
342.764	22.19
342.977	44.71
343.189	73.39
343.401	75.43
343.613	-98.64
343.826	-98.64
344.038	-67.92
344.25	69.29
344.462	-37.2
344.674	52.91
344.886	-6.49
345.099	81.58
345.311	-24.92
345.523	-92.5
345.735	-106.84
345.947	-53.59
346.159	83.63
346.371	-0.34
346.583	9.9
346.795	147.11
347.007	-0.34
347.219	-0.34
347.431	-18.77
347.643	36.52
347.855	65.19
348.067	134.82
348.279	-72.02
348.491	48.81
348.703	75.43
348.915	32.43
349.127	-22.87
349.339	75.43
349.551	34.47
349.763	40.62
349.975	-49.49
350.187	104.11
350.399	132.78
350.61	22.19
350.822	-8.53
351.034	75.43
351.246	95.91
351.458	95.91
351.669	13.99
351.881	91.82
352.093	130.73
352.305	198.31
352.517	143.02
352.728	77.48
352.94	48.81
353.152	46.76
353.363	-100.69
353.575	69.29
353.787	108.2
353.999	-69.97
354.21	91.82
354.422	-2.39
354.633	-37.2
354.845	-67.92
355.057	11.95
355.268	-2.39
355.48	71.34
355.692	-51.54
355.903	24.23
356.115	-41.3
356.326	-49.49
356.538	173.74
356.749	104.11
356.961	89.77
357.172	-2.39
357.384	-53.59
357.595	177.83
357.807	34.47
358.018	-24.92
358.23	-26.96
358.441	157.35
358.653	91.82
358.864	-78.16
359.075	13.99
359.287	65.19
359.498	100.01
359.709	22.19
359.921	16.04
360.132	3.75
360.344	18.09
360.555	-67.92
360.766	-16.73
360.977	-2.39
361.189	-8.53
361.4	-26.96
361.611	71.34
361.823	93.87
362.034	-33.11
362.245	-33.11
362.456	-24.92
362.667	124.58
362.879	18.09
363.09	-49.49
363.301	18.09
363.512	1.71
363.723	-65.88
363.935	-55.64
364.146	87.72
364.357	89.77
364.568	71.34
364.779	-43.35
364.99	126.63
365.201	-51.54
365.412	9.9
365.623	-82.26
365.834	28.33
366.045	26.28
366.256	36.52
366.467	85.67
366.678	7.85
366.889	-53.59
367.1	-92.5
367.311	87.72
367.522	-53.59
367.733	106.15
367.944	20.14
368.155	16.04
368.366	175.78
368.577	22.19
368.788	52.91
368.999	-39.25
369.209	44.71
369.42	175.78
369.631	243.37
369.842	73.39
370.053	-33.11
370.264	149.16
370.474	-53.59
370.685	42.67
370.896	-90.45
371.107	165.54
371.317	32.43
371.528	-2.39
371.739	126.63
371.95	69.29
372.16	87.72
372.371	-112.98
372.582	32.43
372.792	24.23
373.003	34.47
373.214	-0.34
373.424	-16.73
373.635	-49.49
373.846	149.16
374.056	18.09
374.267	-16.73
374.477	83.63
374.688	-2.39
374.898	50.86
375.109	9.9
375.319	50.86
375.53	59.05
375.74	91.82
375.951	11.95
376.161	9.9
376.372	-8.53
376.582	48.81
376.793	57
377.003	57
377.214	-74.07
377.424	71.34
377.635	-4.44
377.845	-41.3
378.055	71.34
378.266	-82.26
378.476	38.57
378.686	28.33
378.897	-20.82
379.107	40.62
379.317	122.54
379.528	1.71
379.738	54.95
379.948	-82.26
380.158	106.15
380.369	38.57
380.579	65.19
380.789	-69.97
380.999	36.52
381.21	108.2
381.42	149.16
381.63	40.62
381.84	75.43
382.05	-18.77
382.261	110.25
382.471	61.1
382.681	3.75
382.891	118.44
383.101	46.76
383.311	-98.64
383.521	3.75
383.731	93.87
383.941	67.24
384.151	16.04
384.361	22.19
384.571	1.71
384.781	106.15
384.991	200.36
385.201	173.74
385.411	175.78
385.621	48.81
385.831	-4.44
386.041	-2.39
386.251	-10.58
386.461	93.87
386.671	-59.73
386.881	112.3
387.091	-24.92
387.301	65.19
387.511	143.02
387.72	-4.44
387.93	42.67
388.14	-26.96
388.35	73.39
388.56	48.81
388.769	63.15
388.979	5.8
389.189	30.38
389.399	22.19
389.609	59.05
389.818	52.91
390.028	-31.06
390.238	-24.92
390.447	-29.01
390.657	69.29
390.867	22.19
391.076	-53.59
391.286	89.77
391.496	36.52
391.705	48.81
391.915	59.05
392.125	36.52
392.334	-35.16
392.544	106.15
392.753	-18.77
392.963	-102.74
393.172	36.52
393.382	-49.49
393.591	229.03
393.801	-2.39
394.01	114.34
394.22	54.95
394.429	44.71
394.639	-18.77
394.848	18.09
395.058	42.67
395.267	24.23
395.477	59.05
395.686	-12.63
395.895	159.4
396.105	210.6
396.314	40.62
396.524	89.77
396.733	-10.58
396.942	71.34
397.152	85.67
397.361	108.2
397.57	71.34
397.78	-6.49
397.989	65.19
398.198	231.08
398.407	16.04
398.617	-94.55
398.826	-22.87
399.035	16.04
399.244	89.77
399.453	3.75
399.663	34.47
399.872	3.75
400.081	-31.06
400.29	181.93
400.499	-0.34
400.708	71.34
400.917	-8.53
401.127	-80.21
401.336	3.75
401.545	165.54
401.754	114.34
401.963	50.86
402.172	22.19
402.381	-26.96
402.59	18.09
402.799	28.33
403.008	169.64
403.217	116.39
403.426	153.26
403.635	-49.49
403.844	-26.96
404.053	28.33
404.262	24.23
404.471	61.1
404.68	46.76
404.888	-6.49
405.097	46.76
405.306	69.29
405.515	61.1
405.724	20.14
405.933	95.91
406.142	87.72
406.35	75.43
406.559	7.85
406.768	77.48
406.977	118.44
407.185	48.81
407.394	24.23
407.603	-29.01
407.812	120.49
408.02	81.58
408.229	134.82
408.438	65.19
408.646	-41.3
408.855	-55.64
409.064	71.34
409.272	46.76
409.481	114.34
409.69	-82.26
409.898	-37.2
410.107	-0.34
410.315	46.76
410.524	-43.35
410.733	-10.58
410.941	-57.68
411.15	104.11
411.358	61.1
411.567	116.39
411.775	32.43
411.984	-14.68
412.192	67.24
412.401	5.8
412.609	153.26
412.818	110.25
413.026	34.47
413.234	-67.92
413.443	67.24
413.651	-47.44
413.86	26.28
414.068	136.87
414.276	124.58
414.485	-29.01
414.693	71.34
414.901	128.68
415.11	48.81
415.318	40.62
415.526	11.95
415.734	116.39
415.943	18.09
416.151	149.16
416.359	-0.34
416.567	52.91
416.776	46.76
416.984	75.43
417.192	181.93
417.4	-4.44
417.608	32.43
417.817	-98.64
418.025	30.38
418.233	128.68
418.441	-29.01
418.649	3.75
418.857	42.67
419.065	83.63
419.273	34.47
419.481	5.8
419.689	22.19
419.897	7.85
420.105	-59.73
420.313	128.68
420.521	52.91
420.729	130.73
420.937	42.67
421.145	-65.88
421.353	48.81
421.561	151.21
421.769	73.39
421.977	-31.06
422.185	122.54
422.393	46.76
422.601	163.5
422.809	42.67
423.017	22.19
423.224	44.71
423.432	138.92
423.64	83.63
423.848	93.87
424.056	-41.3
424.263	52.91
424.471	1.71
424.679	136.87
424.887	-82.26
425.094	108.2
425.302	24.23
425.51	16.04
425.718	97.96
425.925	46.76
426.133	-0.34
426.341	114.34
426.548	30.38
426.756	16.04
426.964	52.91
427.171	-0.34
427.379	61.1
427.586	57
427.794	89.77
428.001	122.54
428.209	54.95
428.417	116.39
428.624	89.77
428.832	65.19
429.039	91.82
429.247	63.15
429.454	13.99
429.662	229.03
429.869	54.95
430.076	30.38
430.284	130.73
430.491	171.69
430.699	145.06
430.906	132.78
431.114	106.15
431.321	147.11
431.528	52.91
431.736	161.45
431.943	85.67
432.15	138.92
432.358	136.87
432.565	233.13
432.772	-63.83
432.979	122.54
433.187	106.15
433.394	149.16
433.601	114.34
433.808	179.88
434.016	218.79
434.223	108.2
434.43	73.39
434.637	196.26
434.844	247.46
435.052	130.73
435.259	218.79
435.466	282.28
435.673	171.69
435.88	237.22
436.087	181.93
436.294	253.61
436.501	337.57
436.708	171.69
436.915	290.47
437.122	249.51
437.329	147.11
437.537	253.61
437.743	231.08
437.95	450.21
438.157	327.33
438.364	272.04
438.571	347.81
438.778	304.81
438.985	368.29
439.192	368.29
439.399	394.92
439.606	435.88
439.813	433.83
440.02	505.51
440.227	525.99
440.433	536.23
440.64	442.02
440.847	442.02
441.054	466.6
441.261	503.46
441.467	556.71
441.674	442.02
441.881	562.85
442.088	513.7
442.294	630.43
442.501	634.53
442.708	681.63
442.914	573.09
443.121	730.78
443.328	767.65
443.534	812.7
443.741	767.65
443.948	642.72
444.154	822.94
444.361	1003.16
444.568	917.15
444.774	906.91
444.981	829.09
445.187	1040.03
445.394	1025.69
445.6	892.57
445.807	1101.47
446.013	1066.65
446.22	1080.99
446.426	1089.18
446.633	1212.06
446.839	1408.66
447.046	1232.54
447.252	1386.13
447.459	1435.28
447.665	1386.13
447.871	1584.79
448.078	1613.46
448.284	1590.93
448.491	1748.62
448.697	1717.9
448.903	1816.21
449.11	1857.17
449.316	1838.73
449.522	2057.87
449.728	2205.32
449.935	2119.31
450.141	2215.56
450.347	2348.68
450.553	2156.17
450.76	2283.14
450.966	2500.23
451.172	2623.11
451.378	2670.21
451.584	2672.26
451.791	2940.54
451.997	2993.79
452.203	3006.08
452.409	3219.07
452.615	3253.88
452.821	3184.25
453.027	3276.41
453.233	3745.39
453.44	3591.8
453.646	3665.52
453.852	3946.09
454.058	4011.63
454.264	4005.49
454.47	4406.89
454.676	4515.43
454.882	4703.84
455.088	4761.19
455.294	4918.88
455.5	5162.59
455.705	5629.52
455.911	5525.08
456.117	5803.6
456.323	5631.57
456.529	5973.58
456.735	6444.62
456.941	6610.5
457.147	6792.77
457.352	6825.54
457.558	7142.97
457.764	7740.98
457.97	7820.85
458.176	8169.01
458.381	8758.82
458.587	8754.73
458.793	9133.6
458.999	9254.43
459.204	10204.69
459.41	10561.03
459.616	10587.66
459.821	10999.3
460.027	11476.48
460.233	12221.94
460.438	12076.53
460.644	12918.25
460.85	12596.71
461.055	13495.77
461.261	14261.71
461.466	13938.13
461.672	14022.1
461.878	15580.6
462.083	15756.73
462.289	16088.5
462.494	16479.66
462.7	16729.52
462.905	16938.41
463.111	18390.42
463.316	19111.3
463.522	19514.75
463.727	20088.18
463.932	21044.59
464.138	21609.82
464.343	22345.05
464.549	22433.11
464.754	24114.49
464.959	25195.82
465.165	25406.76
465.37	25355.56
465.575	25103.66
465.781	27018.51
465.986	27731.2
466.191	27337.99
466.397	27481.35
466.602	26828.05
466.807	28400.89
467.012	28710.13
467.218	29400.3
467.423	29332.72
467.628	30242.01
467.833	31915.2
468.038	31302.86
468.244	30637.27
468.449	32140.48
468.654	31493.32
468.859	31435.98
469.064	31806.66
469.269	30690.52
469.474	31190.22
469.679	31872.2
469.885	31085.78
470.09	31696.07
470.295	31653.06
470.5	30938.32
470.705	31401.16
470.91	30094.56
471.115	29916.39
471.32	30422.23
471.525	30207.2
471.73	29177.07
471.935	29449.45
472.139	28071.17
472.344	28112.13
472.549	27970.82
472.754	27364.62
472.959	26946.83
473.164	26144.03
473.369	25736.48
473.574	26588.44
473.778	25666.85
473.983	25593.12
474.188	25036.08
474.393	23590.21
474.598	23870.78
474.802	22844.75
475.007	22863.18
475.212	22998.35
475.417	22084.95
475.621	21708.13
475.826	21282.15
476.031	20784.49
476.235	20424.05
476.44	20575.6
476.645	19926.39
476.849	19813.76
477.054	19486.08
477.259	18978.19
477.463	19240.33
477.668	18226.58
477.872	18396.56
478.077	17833.37
478.282	17413.54
478.486	17315.23
478.691	17212.84
478.895	16721.32
479.1	16831.91
479.304	16575.92
479.509	16203.19
479.713	16326.07
479.918	15869.37
480.122	15689.15
480.326	15642.04
480.531	15621.56
480.735	15562.17
480.94	15250.88
481.144	15801.79
481.348	14988.74
481.553	15183.3
481.757	14593.48
481.961	14953.93
482.166	14863.82
482.37	14470.61
482.574	14284.24
482.778	14263.76
482.983	14245.33
483.187	14001.62
483.391	14087.64
483.595	13610.46
483.8	13786.58
484.004	13858.26
484.208	13886.93
484.412	13432.29
484.616	13309.41
484.821	13139.43
485.025	12795.37
485.229	12854.76
485.433	12701.16
485.637	12334.57
485.841	12281.33
486.045	12338.67
486.249	12195.31
486.453	11838.97
486.657	11871.73
486.861	11548.15
487.065	11085.31
487.269	11257.34
487.473	10823.17
487.677	11156.99
487.881	10894.85
488.085	10432.01
488.289	10497.55
488.493	10124.82
488.697	10151.44
488.901	9852.44
489.105	9811.48
489.309	9506.33
489.512	9457.18
489.716	9305.63
489.92	8908.32
490.124	8865.32
490.328	8810.02
490.531	8486.44
490.735	8347.18
490.939	8334.89
491.143	8005.17
491.346	8001.07
491.55	7915.06
491.754	7845.43
491.958	7677.49
492.161	7552.57
492.365	7360.06
492.569	7185.98
492.772	7216.7
492.976	6972.99
493.18	6934.08
493.383	6745.67
493.587	6805.06
493.79	6708.8
493.994	6604.36
494.197	6557.25
494.401	6446.66
494.605	6426.18
494.808	6280.78
495.012	6301.26
495.215	6309.45
495.419	6319.69
495.622	6069.84
495.825	6248.01
496.029	5957.2
496.232	6217.29
496.436	5926.48
496.639	6078.03
496.843	6096.46
497.046	5979.73
497.249	6145.61
497.453	5969.49
497.656	5928.53
497.859	5957.2
498.063	6108.75
498.266	6190.67
498.469	6022.73
498.673	6057.55
498.876	6178.38
499.079	6139.47
499.282	6143.56
499.485	6432.33
499.689	6162
499.892	6264.4
500.095	6205
500.298	6125.13
500.501	6299.21
500.705	6323.79
500.908	6516.3
501.111	6284.87
501.314	6571.59
501.517	6520.39
501.72	6770.24
501.923	6628.93
502.126	6682.18
502.329	6952.51
502.532	6886.98
502.735	7106.11
502.938	7110.21
503.141	7210.56
503.344	7073.34
503.547	7489.08
503.75	7409.21
503.953	7368.25
504.156	7554.62
504.359	7695.93
504.562	7734.84
504.765	8031.79
504.968	8064.56
505.17	8064.56
505.373	8146.48
505.576	8459.82
505.779	8500.78
505.982	8584.74
506.185	8812.07
506.387	9117.22
506.59	8977.95
506.793	9209.37
506.996	9199.13
507.198	9885.2
507.401	9713.17
507.604	10063.38
507.807	10169.87
508.009	10110.48
508.212	10599.94
508.415	10634.76
508.617	10790.41
508.82	10974.72
509.022	10927.62
509.225	11501.05
509.428	11666.94
509.63	11886.07
509.833	11890.17
510.035	12686.83
510.238	12408.3
510.44	12887.53
510.643	13258.21
510.845	13370.85
511.048	13796.82
511.25	14063.06
511.453	14110.16
511.655	14935.49
511.858	15091.14
512.06	15408.58
512.262	15664.57
512.465	15809.98
512.667	16297.39
512.87	16639.4
513.072	16827.82
513.274	17509.79
513.477	17507.74
513.679	17933.72
513.881	18658.7
514.084	18935.18
514.286	19336.58
514.488	19565.95
514.69	20419.96
514.893	20542.83
515.095	21087.59
515.297	20956.52
515.499	21646.69
515.701	22437.2
515.904	22799.69
516.106	23309.64
516.308	23383.37
516.51	24171.83
516.712	24255.8
516.914	24864.05
517.116	25410.85
517.318	25589.03
517.52	26166.56
517.722	26527
517.925	27258.12
518.127	27888.9
518.329	28374.27
518.531	28308.73
518.733	29136.11
518.935	29390.06
519.136	29914.34
519.338	30446.81
519.54	30852.31
519.742	31483.08
519.944	31691.98
520.146	32322.75
520.348	32748.73
520.55	33060.02
520.752	33365.17
520.954	34247.84
521.155	33897.64
521.357	34602.14
521.559	35380.37
521.761	35701.9
521.963	35861.64
522.164	36093.06
522.366	36402.3
522.568	36664.44
522.77	36650.11
522.971	37389.42
523.173	37131.38
523.375	37823.59
523.576	37543.02
523.778	37958.76
523.98	38036.58
524.181	38311.01
524.383	38509.66
524.584	38392.93
524.786	38693.98
524.988	38419.55
525.189	38691.93
525.391	39191.64
525.592	38997.08
525.794	39255.12
525.995	38820.95
526.197	38810.71
526.398	38716.51
526.6	38765.66
526.801	38782.04
527.003	38206.56
527.204	38233.19
527.406	38407.26
527.607	38143.08
527.808	38122.6
528.01	37356.66
528.211	37614.7
528.412	37930.09
528.614	37393.52
528.815	36971.64
529.016	36842.62
529.218	36459.65
529.419	36131.97
529.62	35677.32
529.822	35986.57
530.023	34981.01
530.224	34624.67
530.425	34804.89
530.626	33801.38
530.828	33119.41
531.029	33615.02
531.23	32834.74
531.431	32644.28
531.632	32447.68
531.833	32281.79
532.035	31571.14
532.236	31093.97
532.437	30934.23
532.638	30364.89
532.839	30594.26
533.04	29660.39
533.241	28841.2
533.442	29369.58
533.643	28886.26
533.844	28050.69
534.045	28050.69
534.246	27266.31
534.447	27256.07
534.648	26797.33
534.849	26500.37
535.05	25937.18
535.251	25648.42
535.451	25163.05
535.652	25009.45
535.853	24710.45
536.054	24606
536.255	24208.7
536.456	23477.57
536.657	23864.64
536.857	23149.9
537.058	22603.09
537.259	22541.65
537.46	22271.32
537.66	21714.27
537.861	21517.67
538.062	21136.74
538.263	20974.95
538.463	20817.26
538.664	20534.64
538.865	20264.31
539.065	20075.9
539.266	19660.16
539.466	19453.31
539.667	19176.84
539.868	19246.47
540.068	18701.71
540.269	18742.67
540.469	18308.5
540.67	18095.51
540.87	17837.47
541.071	17745.31
541.271	17644.96
541.472	17202.6
541.672	16997.8
541.873	16702.89
542.073	16420.27
542.274	16567.73
542.474	16471.47
542.675	16205.24
542.875	16078.26
543.075	15691.2
543.276	15361.47
543.476	15510.97
543.676	15181.25
543.877	15152.58
544.077	15019.46
544.277	14724.55
544.478	14689.74
544.678	14390.74
544.878	14335.44
545.078	14310.86
545.279	13929.94
545.479	13626.84
545.679	13790.68
545.879	13397.47
546.079	13376.99
546.28	12938.73
546.48	12973.54
546.68	12867.05
546.88	12768.74
547.08	12858.85
547.28	12484.08
547.48	11992.56
547.68	12269.04
547.88	11910.64
548.081	11818.49
548.281	11546.11
548.481	11439.61
548.681	11402.75
548.881	11152.9
549.081	11167.23
549.28	10907.14
549.48	10860.04
549.68	10788.36
549.88	10751.49
550.08	10212.88
550.28	10302.99
550.48	10202.64
550.68	10030.61
550.88	9903.64
551.08	9608.73
551.279	9496.09
551.479	9408.03
551.679	9346.59
551.879	9100.83
552.079	9174.56
552.278	8926.75
552.478	8810.02
552.678	8834.6
552.878	8556.07
553.077	8371.75
553.277	8160.81
553.477	8302.12
553.676	7972.4
553.876	7867.95
554.076	7630.39
554.275	7609.91
554.475	7513.66
554.674	7519.8
554.874	7188.03
555.074	6919.75
555.273	7061.05
555.473	6854.21
555.672	6717
555.872	6551.11
556.071	6717
556.271	6487.62
556.47	6561.35
556.67	6235.72
556.869	6043.21
557.068	6225.48
557.268	6006.35
557.467	5848.66
557.667	5807.7
557.866	5746.26
558.065	5840.47
558.265	5627.48
558.464	5445.21
558.663	5369.43
558.863	5183.07
559.062	5295.71
559.261	4963.93
559.461	5166.68
559.66	4783.71
559.859	4949.6
560.058	4783.71
560.258	4701.79
560.457	4648.55
560.656	4798.05
560.855	4402.79
561.054	4435.56
561.253	4445.8
561.453	4279.91
561.652	4253.29
561.851	4222.57
562.05	4093.55
562.249	3942
562.448	4040.3
562.647	3905.14
562.846	3909.23
563.045	3798.64
563.244	3776.11
563.443	3718.77
563.642	3634.8
563.841	3571.32
564.04	3466.87
564.239	3538.55
564.438	3329.66
564.637	3343.99
564.836	3307.13
565.035	3094.14
565.234	3290.74
565.432	3180.15
565.631	3214.97
565.83	3217.02
566.029	3126.91
566.228	2952.83
566.427	3028.6
566.625	2834.05
566.824	2954.88
567.023	2842.24
567.222	2862.72
567.42	2555.52
567.619	2745.98
567.818	2662.02
568.016	2905.73
568.215	2670.21
568.414	2733.7
568.612	2604.67
568.811	2461.32
569.01	2487.94
569.208	2348.68
569.407	2512.52
569.605	2342.53
569.804	2184.84
570.002	2330.25
570.201	2272.9
570.4	2344.58
570.598	2225.8
570.797	2203.27
570.995	2035.34
571.193	2072.2
571.392	2123.4
571.59	1894.03
571.789	2010.76
571.987	2031.24
572.186	2076.3
572.384	1920.65
572.582	1914.51
572.781	1998.48
572.979	1801.87
573.177	1779.34
573.376	1844.88
573.574	1814.16
573.772	1724.05
573.971	1578.64
574.169	1519.25
574.367	1621.65
574.565	1586.83
574.763	1568.4
574.962	1552.02
575.16	1590.93
575.358	1404.57
575.556	1439.38
575.754	1480.34
575.952	1359.51
576.151	1486.48
576.349	1443.48
576.547	1363.61
576.745	1425.04
576.943	1427.09
577.141	1306.26
577.339	1255.06
577.537	1341.08
577.735	1367.7
577.933	1265.3
578.131	1109.66
578.329	1310.36
578.527	1167
578.725	1265.3
578.923	1076.89
579.121	1234.58
579.319	958.11
579.516	1044.12
579.714	1357.46
579.912	1015.45
580.11	990.88
580.308	1091.23
580.506	919.2
580.704	960.16
580.901	931.48
581.099	1105.56
581.297	843.42
581.495	954.01
581.692	988.83
581.89	1046.17
582.088	988.83
582.285	974.49
582.483	870.05
582.681	816.8
582.878	915.1
583.076	771.74
583.274	943.77
583.471	939.68
583.669	841.37
583.866	679.58
584.064	788.13
584.262	667.3
584.459	749.22
584.657	745.12
584.854	796.32
585.052	738.98
585.249	734.88
585.447	720.54
585.644	614.05
585.841	720.54
586.039	683.68
586.236	736.93
586.434	671.39
586.631	616.1
586.828	624.29
587.026	640.67
587.223	517.79
587.42	564.9
587.618	669.34
587.815	679.58
588.012	607.91
588.21	521.89
588.407	710.3
588.604	605.86
588.801	497.32
588.999	558.75
589.196	585.38
589.393	442.02
589.59	571.04
589.787	546.47
589.984	568.99
590.182	577.19
590.379	542.37
590.576	515.75
590.773	507.55
590.97	482.98
591.167	519.84
591.364	589.47
591.561	487.08
591.758	620.19
591.955	499.36
592.152	435.88
592.349	439.97
592.546	415.4
592.743	446.12
592.94	552.61
593.137	616.1
593.334	515.75
593.531	525.99
593.727	472.74
593.924	562.85
594.121	575.14
594.318	468.64
594.515	562.85
594.712	601.76
594.908	638.62
595.105	474.79
595.302	620.19
595.499	636.58
595.696	659.1
595.892	528.03
596.089	706.21
596.286	509.6
596.482	612
596.679	599.71
596.876	712.35
597.072	716.45
597.269	642.72
597.466	671.39
597.662	702.11
597.859	638.62
598.055	687.78
598.252	736.93
598.448	806.56
598.645	902.81
598.841	839.33
599.038	966.3
599.234	1021.6
599.431	974.49
599.627	1005.21
599.824	954.01
600.02	1046.17
600.217	1029.79
600.413	1164.95
600.609	1193.62
600.806	1478.29
601.002	1283.74
601.198	1205.91
601.395	1379.99
601.591	1427.09
601.787	1461.91
601.984	1568.4
602.18	1537.68
602.376	1676.95
602.572	1705.62
602.769	1773.2
602.965	1773.2
603.161	1746.58
603.357	1867.41
603.553	2051.72
603.75	2055.82
603.946	1998.48
604.142	2182.79
604.338	2330.25
604.534	2401.93
604.73	2375.3
604.926	2487.94
605.122	2567.81
605.318	2637.44
605.514	2797.18
605.71	2709.12
605.906	2913.92
606.102	2938.49
606.298	3071.61
606.494	3376.76
606.69	3380.86
606.886	3378.81
607.082	3466.87
607.278	3573.36
607.474	3722.87
607.67	3817.07
607.866	3729.01
608.062	4040.3
608.257	4071.02
608.453	4116.08
608.649	4355.69
608.845	4413.03
609.041	4449.89
609.236	4945.5
609.432	4933.22
609.628	4914.78
609.824	5191.26
610.019	5195.36
610.215	5303.9
610.411	5531.22
610.606	5637.72
610.802	5844.56
610.998	6114.89
611.193	6303.31
611.389	6364.75
611.584	6600.26
611.78	6661.7
611.976	6850.11
612.171	6921.79
612.367	7169.6
612.562	7319.1
612.758	7595.57
612.953	7431.74
613.149	7994.93
613.344	8080.94
613.539	8476.2
613.735	8767.01
613.93	8934.95
614.126	9098.78
614.321	9332.25
614.517	9606.68
614.712	9879.06
614.907	9700.89
615.103	10255.89
615.298	10395.15
615.493	10683.91
615.688	10884.61
615.884	11572.73
616.079	11353.6
616.274	11976.18
616.47	12086.77
616.665	12559.85
616.86	12692.97
617.055	13155.81
617.25	13458.91
617.445	13690.33
617.641	13880.79
617.836	14736.84
618.031	14515.66
618.226	15209.92
618.421	15435.2
618.616	15949.24
618.811	16170.42
619.006	16676.27
619.201	16725.42
619.396	17442.21
619.591	17569.18
619.786	18212.24
619.981	18167.19
620.176	19176.84
620.371	19146.12
620.566	19559.81
620.761	20022.65
620.956	20413.81
621.151	20477.3
621.346	21138.79
621.541	21511.52
621.735	22023.51
621.93	22320.47
622.125	22875.47
622.32	23006.54
622.515	23706.94
622.709	23909.69
622.904	24628.53
623.099	25064.75
623.294	25451.81
623.488	25595.17
623.683	26330.39
623.878	26420.5
624.072	26961.17
624.267	27804.93
624.462	27852.03
624.656	28210.43
624.851	29068.53
625.046	29107.44
625.24	29871.33
625.435	29963.49
625.629	30571.74
625.824	30612.7
626.018	31155.41
626.213	31112.4
626.407	31782.09
626.602	31872.2
626.796	32634.04
626.991	32769.21
627.185	33270.96
627.38	33447.08
627.574	33303.73
627.768	33449.13
627.963	33703.08
628.157	33909.93
628.352	34292.9
628.546	33948.84
628.74	34639
628.935	34026.66
629.129	34503.84
629.323	34065.57
629.517	33701.03
629.712	33791.14
629.906	33809.57
630.1	32869.56
630.294	33266.86
630.489	32529.59
630.683	32541.88
630.877	31728.84
631.071	31255.76
631.265	31165.65
631.459	30280.92
631.653	29353.19
631.848	28976.37
632.042	28220.67
632.236	27985.15
632.43	27108.62
632.624	26381.59
632.818	25445.67
633.012	24440.12
633.206	24329.53
633.4	23280.97
633.594	22289.75
633.788	21972.32
633.982	21237.09
634.176	20460.91
634.369	19543.42
634.563	18865.55
634.757	18075.03
634.951	17604
635.145	17087.91
635.339	16227.76
635.533	15498.69
635.726	14894.54
635.92	14482.89
636.114	13610.46
636.308	13207.01
636.501	12735.98
636.695	12258.8
636.889	11681.27
637.083	11238.91
637.276	10579.47
637.47	10245.65
637.664	10075.66
637.857	9467.42
638.051	9096.74
638.244	8826.4
638.438	8381.99
638.632	8304.17
638.825	7747.12
639.019	7444.03
639.212	6975.04
639.406	7018.05
639.599	6549.06
639.793	6403.66
639.986	6078.03
640.18	5815.89
640.373	5625.43
640.567	5508.69
640.76	5336.67
640.954	4978.27
641.147	4869.73
641.34	4709.99
641.534	4609.64
641.727	4251.24
641.92	4372.07
642.114	4052.59
642.307	3831.41
642.5	3829.36
642.694	3382.9
642.887	3446.39
643.08	3415.67
643.273	3266.17
643.467	3124.86
643.66	2909.82
643.853	2856.58
644.046	2733.7
644.239	2559.62
644.432	2545.28
644.626	2334.34
644.819	2238.09
645.012	2264.71
645.205	2254.47
645.398	2051.72
645.591	1965.71
645.784	1889.93
645.977	1834.64
646.17	1842.83
646.363	1754.77
646.556	1648.27
646.749	1447.57
646.942	1597.07
647.135	1515.16
647.328	1250.97
647.521	1476.24
647.714	1275.54
647.907	1425.04
648.099	1210.01
648.292	1146.52
648.485	1199.77
648.678	1064.6
648.871	1044.12
649.064	943.77
649.256	880.29
649.449	865.95
649.642	790.17
649.835	743.07
650.027	802.46
650.22	806.56
650.413	759.46
650.605	812.7
650.798	700.06
650.991	724.64
651.183	652.96
651.376	695.97
651.568	679.58
651.761	573.09
651.954	652.96
652.146	507.55
652.339	657.06
652.531	665.25
652.724	446.12
652.916	474.79
653.109	392.87
653.301	515.75
653.494	507.55
653.686	431.78
653.879	470.69
654.071	433.83
654.263	358.05
654.456	366.25
654.648	523.94
654.84	368.29
655.033	366.25
655.225	470.69
655.417	183.98
655.61	401.06
655.802	392.87
655.994	470.69
656.186	192.17
656.379	331.43
656.571	259.75
656.763	247.46
656.955	229.03
657.148	259.75
657.34	274.09
657.532	153.26
657.724	206.5
657.916	261.8
658.108	292.52
658.3	306.85
658.492	241.32
658.684	175.78
658.876	310.95
659.068	145.06
659.26	116.39
659.452	163.5
659.644	253.61
659.836	310.95
660.028	169.64
660.22	116.39
660.412	296.61
660.604	218.79
660.796	167.59
660.988	210.6
661.18	212.65
661.372	192.17
661.563	136.87
661.755	200.36
661.947	-10.58
662.139	130.73
662.331	106.15
662.522	226.98
662.714	149.16
662.906	134.82
663.097	159.4
663.289	122.54
663.481	79.53
663.673	245.41
663.864	40.62
664.056	214.7
664.247	13.99
664.439	202.41
664.631	79.53
664.822	124.58
665.014	120.49
665.205	91.82
665.397	59.05
665.588	196.26
665.78	24.23
665.971	165.54
666.163	38.57
666.354	155.3
666.546	114.34
666.737	140.97
666.929	61.1
667.12	-12.63
667.311	118.44
667.503	32.43
667.694	192.17
667.885	179.88
668.077	159.4
668.268	-59.73
668.459	52.91
668.651	97.96
668.842	181.93
669.033	22.19
669.224	112.3
669.416	259.75
669.607	-20.82
669.798	13.99
669.989	181.93
670.18	50.86
670.371	126.63
670.563	57
670.754	286.37
670.945	116.39
671.136	173.74
671.327	36.52
671.518	145.06
671.709	204.46
671.9	161.45
672.091	276.13
672.282	89.77
672.473	71.34
672.664	108.2
672.855	22.19
673.046	159.4
673.237	212.65
673.428	177.83
673.619	206.5
673.809	73.39
674	169.64
674.191	173.74
674.382	124.58
674.573	52.91
674.764	75.43
674.954	183.98
675.145	77.48
675.336	40.62
675.527	46.76
675.717	112.3
675.908	102.06
676.099	32.43
676.289	136.87
676.48	22.19
676.671	63.15
676.861	48.81
677.052	44.71
677.243	155.3
677.433	67.24
677.624	118.44
677.814	130.73
678.005	44.71
678.195	147.11
678.386	11.95
678.576	108.2
678.767	16.04
678.957	71.34
679.148	218.79
679.338	222.89
679.529	212.65
679.719	67.24
679.909	208.55
680.1	138.92
680.29	183.98
680.481	57
680.671	208.55
680.861	91.82
681.052	243.37
681.242	128.68
681.432	91.82
681.622	151.21
681.813	57
682.003	163.5
682.193	13.99
682.383	93.87
682.573	136.87
682.764	132.78
682.954	140.97
683.144	214.7
683.334	42.67
683.524	157.35
683.714	198.31
683.904	136.87
684.094	79.53
684.284	126.63
684.474	317.09
684.664	261.8
684.854	222.89
685.044	100.01
685.234	157.35
685.424	159.4
685.614	163.5
685.804	274.09
685.994	251.56
686.184	165.54
686.374	179.88
686.564	163.5
686.753	132.78
686.943	132.78
687.133	161.45
687.323	179.88
687.513	173.74
687.702	237.22
687.892	147.11
688.082	192.17
688.272	239.27
688.461	102.06
688.651	181.93
688.841	222.89
689.03	102.06
689.22	124.58
689.41	159.4
689.599	186.02
689.789	110.25
689.979	269.99
690.168	274.09
690.358	245.41
690.547	140.97
690.737	229.03
690.926	188.07
691.116	175.78
691.305	237.22
691.495	147.11
691.684	130.73
691.874	69.29
692.063	114.34
692.252	239.27
692.442	157.35
692.631	44.71
692.82	79.53
693.01	128.68
693.199	122.54
693.388	167.59
693.578	167.59
693.767	210.6
693.956	145.06
694.146	132.78
694.335	143.02
694.524	100.01
694.713	220.84
694.902	100.01
695.092	30.38
695.281	247.46
695.47	85.67
695.659	95.91
695.848	57
696.037	65.19
696.226	157.35
696.415	46.76
696.604	198.31
696.793	194.22
696.982	143.02
697.171	286.37
697.36	177.83
697.549	122.54
697.738	9.9
697.927	67.24
698.116	65.19
698.305	192.17
698.494	93.87
698.683	77.48
698.872	294.57
699.061	177.83
699.25	102.06
699.438	132.78
699.627	93.87
699.816	261.8
700.005	75.43
700.193	13.99
700.382	165.54
700.571	257.7
700.76	198.31
700.948	208.55
701.137	155.3
701.326	226.98
701.514	79.53
701.703	147.11
701.892	173.74
702.08	323.24
702.269	214.7
702.457	83.63
702.646	126.63
702.834	67.24
703.023	259.75
703.212	229.03
703.4	204.46
703.589	130.73
703.777	143.02
703.965	118.44
704.154	52.91
704.342	69.29
704.531	104.11
704.719	157.35
704.907	222.89
705.096	38.57
705.284	1.71
705.472	165.54
705.661	147.11
705.849	206.5
706.037	229.03
706.226	181.93
706.414	114.34
706.602	-18.77
706.79	255.65
706.979	24.23
707.167	169.64
707.355	97.96
707.543	167.59
707.731	169.64
707.919	85.67
708.107	204.46
708.296	73.39
708.484	67.24
708.672	124.58
708.86	114.34
709.048	100.01
709.236	67.24
709.424	124.58
709.612	136.87
709.8	16.04
709.988	100.01
710.176	265.89
710.364	190.12
710.551	118.44
710.739	118.44
710.927	61.1
711.115	114.34
711.303	239.27
711.491	175.78
711.679	40.62
711.866	161.45
712.054	114.34
712.242	196.26
712.43	194.22
712.617	100.01
712.805	231.08
712.993	130.73
713.181	26.28
713.368	175.78
713.556	173.74
713.744	106.15
713.931	251.56
714.119	272.04
714.306	179.88
714.494	132.78
714.682	151.21
714.869	120.49
715.057	151.21
715.244	67.24
715.432	93.87
715.619	104.11
715.807	157.35
715.994	214.7
716.182	224.94
716.369	196.26
716.556	255.65
716.744	69.29
716.931	46.76
717.119	216.74
717.306	124.58
717.493	206.5
717.681	112.3
717.868	59.05
718.055	183.98
718.242	165.54
718.43	231.08
718.617	226.98
718.804	114.34
718.991	157.35
719.179	112.3
719.366	194.22
719.553	171.69
719.74	97.96
719.927	149.16
720.114	145.06
720.301	69.29
720.488	89.77
720.676	132.78
720.863	261.8
721.05	374.44
721.237	200.36
721.424	181.93
721.611	188.07
721.798	112.3
721.985	190.12
722.172	151.21
722.358	210.6
722.545	313
722.732	181.93
722.919	325.29
723.106	194.22
723.293	204.46
723.48	190.12
723.667	116.39
723.853	220.84
724.04	233.13
724.227	196.26
724.414	220.84
724.6	288.42
724.787	331.43
724.974	269.99
725.161	198.31
725.347	81.58
725.534	233.13
725.72	315.05
725.907	364.2
726.094	175.78
726.28	165.54
726.467	235.18
726.653	122.54
726.84	282.28
727.027	247.46
727.213	278.18
727.4	280.23
727.586	216.74
727.773	204.46
727.959	249.51
728.145	198.31
728.332	274.09
728.518	167.59
728.705	216.74
728.891	233.13
729.077	210.6
729.264	208.55
729.45	292.52
729.636	347.81
729.823	265.89
730.009	347.81
730.195	315.05
730.382	327.33
730.568	245.41
730.754	237.22
730.94	177.83
731.126	214.7
731.313	308.9
731.499	138.92
731.685	243.37
731.871	269.99
732.057	108.2
732.243	288.42
732.429	233.13
732.615	274.09
732.801	251.56
732.987	206.5
733.173	188.07
733.359	255.65
733.545	204.46
733.731	278.18
733.917	347.81
734.103	310.95
734.289	259.75
734.475	202.41
734.661	405.16
734.847	278.18
735.033	274.09
735.219	421.54
735.404	214.7
735.59	175.78
735.776	157.35
735.962	196.26
736.148	272.04
736.333	323.24
736.519	210.6
736.705	249.51
736.89	290.47
737.076	218.79
737.262	192.17
737.447	233.13
737.633	245.41
737.819	274.09
738.004	302.76
738.19	274.09
738.375	356.01
738.561	298.66
738.747	253.61
738.932	163.5
739.118	384.68
739.303	382.63
739.489	284.33
739.674	188.07
739.859	204.46
740.045	243.37
740.23	317.09
740.416	229.03
740.601	276.13
740.786	245.41
740.972	272.04
741.157	286.37
741.342	169.64
741.528	222.89
741.713	413.35
741.898	235.18
742.084	245.41
742.269	288.42
742.454	325.29
742.639	343.72
742.824	331.43
743.01	310.95
743.195	399.01
743.38	290.47
743.565	212.65
743.75	288.42
743.935	216.74
744.12	388.77
744.305	237.22
744.49	276.13
744.675	253.61
744.86	210.6
745.045	327.33
745.23	313
745.415	216.74
745.6	376.48
745.785	278.18
745.97	231.08
746.155	282.28
746.34	286.37
746.525	269.99
746.71	388.77
746.895	290.47
747.079	167.59
747.264	188.07
747.449	323.24
747.634	337.57
747.819	302.76
748.003	198.31
748.188	253.61
748.373	286.37
748.557	294.57
748.742	259.75
748.927	181.93
749.111	251.56
749.296	216.74
749.481	327.33
749.665	222.89
749.85	233.13
750.034	323.24
750.219	306.85
750.404	163.5
750.588	292.52
750.773	151.21
750.957	255.65
751.141	194.22
751.326	284.33
751.51	153.26
751.695	147.11
751.879	190.12
752.064	333.48
752.248	253.61
752.432	353.96
752.617	276.13
752.801	241.32
752.985	186.02
753.17	304.81
753.354	253.61
753.538	278.18
753.722	112.3
753.907	140.97
754.091	143.02
754.275	243.37
754.459	126.63
754.643	179.88
754.828	202.41
755.012	278.18
755.196	155.3
755.38	200.36
755.564	200.36
755.748	218.79
755.932	226.98
756.116	214.7
756.3	214.7
756.484	85.67
756.668	259.75
756.852	157.35
757.036	100.01
757.22	173.74
757.404	91.82
757.588	73.39
757.772	175.78
757.956	229.03
758.14	280.23
758.323	136.87
758.507	188.07
758.691	159.4
758.875	220.84
759.059	269.99
759.242	57
759.426	269.99
759.61	87.72
759.794	155.3
759.977	165.54
760.161	374.44
760.345	229.03
760.528	181.93
760.712	118.44
760.895	181.93
761.079	91.82
761.263	161.45
761.446	179.88
761.63	134.82
761.813	245.41
761.997	81.58
762.18	143.02
762.364	77.48
762.547	-16.73
762.731	128.68
762.914	85.67
763.098	59.05
763.281	91.82
763.464	57
763.648	171.69
763.831	122.54
764.015	44.71
764.198	140.97
764.381	73.39
764.564	163.5
764.748	167.59
764.931	177.83
765.114	112.3
765.297	157.35
765.481	149.16
765.664	26.28
765.847	44.71
766.03	175.78
766.213	-4.44
766.397	91.82
766.58	63.15
766.763	222.89
766.946	44.71
767.129	69.29
767.312	40.62
767.495	36.52
767.678	177.83
767.861	145.06
768.044	147.11
768.227	42.67
768.41	34.47
768.593	91.82
768.776	149.16
768.959	50.86
769.142	300.71
769.324	100.01
769.507	108.2
769.69	140.97
769.873	46.76
770.056	261.8
770.239	97.96
770.421	265.89
770.604	159.4
770.787	155.3
770.97	85.67
771.152	75.43
771.335	192.17
771.518	44.71
771.7	118.44
771.883	210.6
772.066	93.87
772.248	83.63
772.431	208.55
772.613	157.35
772.796	16.04
772.978	136.87
773.161	206.5
773.343	138.92
773.526	65.19
773.708	30.38
773.891	11.95
774.073	138.92
774.256	108.2
774.438	192.17
774.621	-59.73
774.803	102.06
774.985	69.29
775.168	77.48
775.35	83.63
775.532	75.43
775.715	36.52
775.897	48.81
776.079	44.71
776.261	110.25
776.444	65.19
776.626	143.02
776.808	87.72
776.99	40.62
777.173	46.76
777.355	63.15
777.537	69.29
777.719	89.77
777.901	79.53
778.083	63.15
778.265	-51.54
778.447	75.43
778.629	11.95
778.811	40.62
778.993	104.11
779.175	138.92
779.357	73.39
779.539	9.9
779.721	22.19
779.903	77.48
780.085	44.71
780.267	91.82
780.449	11.95
780.631	102.06
780.812	145.06
780.994	77.48
781.176	20.14
781.358	5.8
781.54	24.23
781.721	118.44
781.903	165.54
782.085	46.76
782.267	208.55
782.448	-24.92
782.63	-0.34
782.812	46.76
782.993	110.25
783.175	40.62
783.357	16.04
783.538	11.95
783.72	-4.44
783.901	48.81
784.083	132.78
784.264	120.49
784.446	-24.92
784.627	-51.54
784.809	57
784.99	-12.63
785.172	36.52
785.353	42.67
785.535	1.71
785.716	18.09
785.897	11.95
786.079	26.28
786.26	48.81
786.441	30.38
786.623	-112.98
786.804	-37.2
786.985	54.95
787.167	73.39
787.348	59.05
787.529	16.04
787.71	122.54
787.891	-12.63
788.073	3.75
788.254	-57.68
788.435	59.05
788.616	36.52
788.797	-84.31
788.978	-90.45
789.159	-12.63
789.34	67.24
789.522	-26.96
789.703	-69.97
789.884	28.33
790.065	36.52
790.246	106.15
790.427	-29.01
790.607	87.72
790.788	110.25
790.969	11.95
791.15	77.48
791.331	-31.06
791.512	34.47
791.693	-22.87
791.874	-18.77
792.054	128.68
792.235	124.58
792.416	-39.25
792.597	-2.39
792.778	40.62
792.958	-37.2
793.139	30.38
793.32	57
793.5	-67.92
793.681	145.06
793.862	59.05
794.042	40.62
794.223	-61.78
794.404	65.19
794.584	5.8
794.765	-8.53
794.945	-41.3
795.126	65.19
795.306	79.53
795.487	-0.34
795.667	-59.73
795.848	34.47
796.028	50.86
796.209	-0.34
796.389	7.85
796.57	42.67
796.75	-49.49
796.93	38.57
797.111	-57.68
797.291	-8.53
797.471	65.19
797.652	7.85
797.832	-31.06
798.012	57
798.192	38.57
798.373	-121.17
798.553	36.52
798.733	26.28
798.913	-72.02
799.093	-8.53
799.274	67.24
799.454	7.85
799.634	102.06
799.814	149.16
799.994	50.86
800.174	89.77
800.354	18.09
800.534	-92.5
800.714	63.15
800.894	-59.73
801.074	-129.36
801.254	-84.31
801.434	44.71
801.614	-22.87
801.794	18.09
801.974	1883.79
802.154	-53.59
802.334	69.29
802.514	-53.59
802.693	-43.35
802.873	-8.53
803.053	116.39
803.233	40.62
803.413	7.85
803.592	-63.83
803.772	-90.45
803.952	-16.73
804.131	-143.7
804.311	46.76
804.491	67.24
804.67	-59.73
804.85	-45.4
805.03	-0.34
805.209	118.44
805.389	-51.54
805.568	3.75
805.748	18.09
805.928	1.71
806.107	110.25
806.287	18.09
806.466	-12.63
806.646	-0.34
806.825	18.09
807.004	-20.82
807.184	-20.82
807.363	132.78
807.543	48.81
807.722	-153.94
807.901	3.75
808.081	18.09
808.26	-131.41
808.439	-72.02
808.619	-22.87
808.798	46.76
808.977	26.28
809.156	157.35
809.336	106.15
809.515	42.67
809.694	-182.61
809.873	36.52
810.052	65.19
810.231	87.72
810.411	11.95
810.59	104.11
810.769	-8.53
810.948	30.38
811.127	-158.03
811.306	-65.88
811.485	-86.36
811.664	108.2
811.843	-16.73
812.022	-8.53
812.201	-33.11
812.38	-6.49
812.559	-29.01
812.737	-49.49
812.916	-84.31
813.095	-110.93
813.274	-37.2
813.453	-14.68
813.632	13.99
813.811	-24.92
813.989	-90.45
814.168	32.43
814.347	-39.25
814.526	-16.73
814.704	59.05
814.883	93.87
815.062	-63.83
815.24	91.82
815.419	-63.83
815.598	50.86
815.776	-67.92
815.955	52.91
816.133	-96.6
816.312	81.58
816.49	-82.26
816.669	-35.16
816.847	-20.82
817.026	13.99
817.204	-31.06
817.383	5.8
817.561	-69.97
817.74	-22.87
817.918	-24.92
818.097	-43.35
818.275	-76.12
818.453	1.71
818.632	32.43
818.81	-4.44
818.988	-57.68
819.167	-88.4
819.345	-14.68
819.523	-33.11
819.701	34.47
819.879	61.1
820.058	-49.49
820.236	30.38
820.414	9.9
820.592	-16.73
820.77	-69.97
820.948	-4.44
821.127	5.8
821.305	-20.82
821.483	13.99
821.661	9.9
821.839	-26.96
822.017	-88.4
822.195	-18.77
822.373	71.34
822.551	-10.58
822.729	18.09
822.907	-78.16
823.085	34.47
823.262	-45.4
823.44	-125.27
823.618	-72.02
823.796	-24.92
823.974	-57.68
824.152	-26.96
824.329	-55.64
824.507	38.57
824.685	44.71
824.863	-8.53
825.04	-0.34
825.218	54.95
825.396	-78.16
825.574	-33.11
825.751	-16.73
825.929	32.43
826.107	-98.64
826.284	-37.2
826.462	-26.96
826.639	-112.98
826.817	-139.6
826.994	-33.11
827.172	-166.23
827.349	-22.87
827.527	-76.12
827.704	-16.73
827.882	16.04
828.059	50.86
828.237	-0.34
828.414	30.38
828.591	-100.69
828.769	-41.3
828.946	-127.32
829.124	26.28
829.301	-6.49
829.478	-123.22
829.655	71.34
829.833	-39.25
830.01	-127.32
830.187	-45.4
830.364	-98.64
830.542	1.71
830.719	106.15
830.896	65.19
831.073	-43.35
831.25	36.52
831.427	5.8
831.604	32.43
831.782	-74.07
831.959	30.38
832.136	-37.2
832.313	57
832.49	-6.49
832.667	-18.77
832.844	-92.5
833.021	48.81
833.198	-8.53
833.374	-104.79
833.551	-10.58
833.728	-45.4
833.905	100.01
834.082	-127.32
834.259	13.99
834.436	71.34
834.612	-94.55
834.789	-41.3
834.966	-55.64
835.143	3.75
835.319	-117.08
835.496	-39.25
835.673	-8.53
835.85	61.1
836.026	-8.53
836.203	20.14
836.38	-78.16
836.556	-84.31
836.733	16.04
836.909	149.16
837.086	-67.92
837.262	-82.26
837.439	1.71
837.616	-41.3
837.792	44.71
837.968	-37.2
838.145	-59.73
838.321	-72.02
838.498	42.67
838.674	-29.01
838.851	48.81
839.027	-53.59
839.203	-72.02
839.38	11.95
839.556	-74.07
839.732	126.63
839.909	11.95
840.085	26.28
840.261	-18.77
840.437	36.52
840.614	-31.06
840.79	40.62
840.966	32.43
841.142	-57.68
841.318	-33.11
841.494	-26.96
841.671	52.91
841.847	-4.44
842.023	-80.21
842.199	-49.49
842.375	122.54
842.551	-145.75
842.727	-76.12
842.903	30.38
843.079	-72.02
843.255	83.63
843.431	-10.58
843.607	26.28
843.783	-90.45
843.959	-35.16
844.134	-51.54
844.31	50.86
844.486	-96.6
844.662	-72.02
844.838	30.38
845.013	-37.2
845.189	50.86
845.365	38.57
845.541	-65.88
845.716	-6.49
845.892	91.82
846.068	-24.92
846.244	-80.21
846.419	36.52
846.595	-29.01
846.77	-63.83
846.946	-8.53
847.122	-121.17
847.297	54.95
847.473	85.67
847.648	-139.6
847.824	-14.68
847.999	-102.74
848.175	30.38
848.35	-31.06
848.526	26.28
848.701	52.91
848.876	91.82
849.052	42.67
849.227	-39.25
849.403	-24.92
849.578	-14.68
849.753	-57.68
849.929	-41.3
850.104	-82.26
850.279	-8.53
850.454	-43.35
850.63	63.15
850.805	46.76
850.98	5.8
851.155	-4.44
851.33	7.85
851.505	-123.22
851.681	153.26
851.856	-69.97
852.031	42.67
852.206	-18.77
852.381	-96.6
852.556	-69.97
852.731	-31.06
852.906	1.71
853.081	65.19
853.256	118.44
853.431	-18.77
853.606	-78.16
853.781	-45.4
853.956	-106.84
854.131	-49.49
854.305	-110.93
854.48	-47.44
854.655	-100.69
854.83	-104.79
855.005	-35.16
855.18	16.04
855.354	-43.35
855.529	-37.2
855.704	-90.45
855.879	85.67
856.053	-110.93
856.228	-8.53
856.403	-108.88
856.577	5.8
856.752	-129.36
856.926	-45.4
857.101	134.82
857.276	-69.97
857.45	-65.88
857.625	-6.49
857.799	9.9
857.974	-51.54
858.148	-112.98
858.323	20.14
858.497	9.9
858.672	-143.7
858.846	-47.44
859.02	44.71
859.195	-39.25
859.369	-49.49
859.543	-67.92
859.718	-0.34
859.892	-33.11
860.066	7.85
860.241	-45.4
860.415	-65.88
860.589	-37.2
860.763	-12.63
860.938	-76.12
861.112	22.19
861.286	-76.12
861.46	73.39
861.634	-65.88
861.808	24.23
861.982	-82.26
862.157	-137.56
862.331	-35.16
862.505	-133.46
862.679	-80.21
862.853	-29.01
863.027	-55.64
863.201	61.1
863.375	-51.54
863.549	26.28
863.722	-76.12
863.896	106.15
864.07	-84.31
864.244	-33.11
864.418	32.43
864.592	-65.88
864.766	26.28
864.939	-12.63
865.113	-43.35
865.287	40.62
865.461	-35.16
865.634	-57.68
865.808	-65.88
865.982	-86.36
866.156	-61.78
866.329	-88.4
866.503	36.52
866.676	-29.01
866.85	11.95
867.024	-61.78
867.197	106.15
867.371	16.04
867.544	32.43
867.718	-59.73
867.891	91.82
868.065	-92.5
868.238	-74.07
868.412	116.39
868.585	18.09
868.759	-104.79
868.932	-69.97
869.105	-33.11
869.279	65.19
869.452	-153.94
869.625	-4.44
869.799	-49.49
869.972	-96.6
870.145	-26.96
870.319	-10.58
870.492	3.75
870.665	-76.12
870.838	-84.31
871.011	-135.51
871.185	18.09
871.358	-78.16
871.531	28.33
871.704	-35.16
871.877	54.95
872.05	-88.4
872.223	-135.51
872.396	73.39
872.569	-6.49
872.742	-106.84
872.915	-82.26
873.088	-51.54
873.261	-147.8
873.434	65.19
873.607	-43.35
873.78	18.09
873.953	-86.36
874.126	-0.34
874.299	-6.49
874.471	-86.36
874.644	-123.22
874.817	36.52
874.99	91.82
875.163	-55.64
875.335	1.71
875.508	-47.44
875.681	65.19
875.853	-88.4
876.026	-24.92
876.199	-41.3
876.371	-61.78
876.544	-100.69
876.717	-12.63
876.889	-43.35
877.062	-33.11
877.234	-80.21
877.407	-88.4
877.579	3.75
877.752	22.19
877.924	42.67
878.097	-65.88
878.269	-61.78
878.442	-14.68
878.614	20.14
878.786	44.71
878.959	-14.68
879.131	18.09
879.303	-92.5
879.476	-4.44
879.648	59.05
879.82	-49.49
879.993	-125.27
880.165	-92.5
880.337	-153.94
880.509	1.71
880.681	-153.94
880.854	-94.55
881.026	1.71
881.198	93.87
881.37	-31.06
881.542	-12.63
881.714	-76.12
881.886	-2.39
882.058	-69.97
882.23	-84.31
882.402	-10.58
882.574	5.8
882.746	-29.01
882.918	106.15
883.09	5.8
883.262	-2.39
883.434	65.19
883.606	-76.12
883.778	-127.32
883.95	52.91
884.122	-88.4
884.293	73.39
884.465	-39.25
884.637	42.67
884.809	-0.34
884.98	-18.77
885.152	24.23
885.324	-10.58
885.496	-37.2
885.667	-84.31
885.839	13.99
886.011	-6.49
886.182	-35.16
886.354	54.95
886.525	-18.77
886.697	16.04
886.869	-82.26
887.04	-98.64
887.212	61.1
887.383	112.3
887.555	-4.44
887.726	-18.77
887.897	24.23
888.069	-16.73
888.24	38.57
888.412	-14.68
888.583	-35.16
888.754	-2.39
888.926	-121.17
889.097	-53.59
889.268	-160.08
889.44	-18.77
889.611	-127.32
889.782	-82.26
889.953	-137.56
890.125	40.62
890.296	-74.07
890.467	-49.49
890.638	-33.11
890.809	-35.16
890.98	-158.03
891.151	46.76
891.323	67.24
891.494	-51.54
891.665	-108.88
891.836	-102.74
892.007	-24.92
892.178	-24.92
892.349	-8.53
892.52	-127.32
892.691	28.33
892.862	-69.97
893.032	-125.27
893.203	-106.84
893.374	-6.49
893.545	9.9
893.716	-119.12
893.887	91.82
894.057	-53.59
894.228	-53.59
894.399	-119.12
894.57	40.62
894.74	-72.02
894.911	32.43
895.082	-37.2
895.253	-121.17
895.423	-10.58
895.594	59.05
895.764	3.75
895.935	-100.69
896.106	-14.68
896.276	-98.64
896.447	-31.06
896.617	-55.64
896.788	-129.36
896.958	-35.16
897.129	-123.22
897.299	-61.78
897.47	112.3
897.64	3.75
897.81	-49.49
897.981	32.43
898.151	-110.93
898.322	-2.39
898.492	-37.2
898.662	-39.25
898.832	-61.78
899.003	-33.11
899.173	-8.53
899.343	-92.5
899.513	-69.97
