Data from USB4F104151__43__09-27-49-906.txt Node

Date: Wed Feb 26 09:27:49 EST 2025
User: louis
Spectrometer: USB4F10415
Trigger mode: 4
Integration Time (sec): 1.000000E-1
Scans to average: 1
Electric dark correction enabled: true
Nonlinearity correction enabled: false
Boxcar width: 0
XAxis mode: Wavelengths
Number of Pixels in Spectrum: 3648
>>>>>Begin Spectral Data<<<<<
178.204	-383.14
178.424	-383.14
178.644	-383.14
178.864	-372.9
179.084	-409.76
179.304	75.6
179.524	-47.27
179.744	10.07
179.964	59.22
180.184	67.41
180.404	-30.89
180.624	24.4
180.844	1.88
181.064	-63.66
181.283	32.6
181.503	-80.04
181.723	-49.32
181.943	-178.34
182.163	161.62
182.383	-49.32
182.602	67.41
182.822	124.76
183.042	22.36
183.262	-63.66
183.482	12.12
183.701	1.88
183.921	26.45
184.141	-55.47
184.361	130.9
184.58	-30.89
184.8	44.88
185.02	-26.79
185.239	38.74
185.459	42.84
185.679	87.89
185.898	-88.23
186.118	10.07
186.338	153.43
186.557	42.84
186.777	-10.41
186.997	-6.31
187.216	-14.51
187.436	96.08
187.655	87.89
187.875	34.64
188.095	-41.13
188.314	100.18
188.534	102.23
188.753	-102.57
188.973	116.56
189.192	91.99
189.412	32.6
189.631	48.98
189.851	18.26
190.07	91.99
190.29	-22.7
190.509	-6.31
190.729	8.02
190.948	94.04
191.168	161.62
191.387	124.76
191.607	8.02
191.826	24.4
192.045	-6.31
192.265	-30.89
192.484	91.99
192.704	38.74
192.923	-45.23
193.142	151.38
193.362	135
193.581	100.18
193.8	57.17
194.02	34.64
194.239	-12.46
194.458	32.6
194.678	-14.51
194.897	-24.75
195.116	46.93
195.335	32.6
195.555	34.64
195.774	12.12
195.993	38.74
196.212	48.98
196.432	12.12
196.651	-39.08
196.87	57.17
197.089	120.66
197.308	46.93
197.528	-20.65
197.747	-18.6
197.966	36.69
198.185	124.76
198.404	-18.6
198.623	104.28
198.842	57.17
199.062	227.15
199.281	149.33
199.5	-47.27
199.719	57.17
199.938	124.76
200.157	75.6
200.376	28.5
200.595	63.32
200.814	89.94
201.033	-0.17
201.252	153.43
201.471	75.6
201.69	18.26
201.909	22.36
202.128	124.76
202.347	44.88
202.566	-22.7
202.785	-104.62
203.004	-41.13
203.223	161.62
203.442	55.12
203.661	-49.32
203.879	10.07
204.098	59.22
204.317	-14.51
204.536	51.03
204.755	46.93
204.974	81.75
205.193	10.07
205.411	135
205.63	141.14
205.849	91.99
206.068	-10.41
206.287	-30.89
206.505	34.64
206.724	34.64
206.943	18.26
207.162	16.21
207.381	24.4
207.599	-82.09
207.818	12.12
208.037	-6.31
208.255	30.55
208.474	-20.65
208.693	67.41
208.911	30.55
209.13	51.03
209.349	100.18
209.567	59.22
209.786	55.12
210.005	-6.31
210.223	42.84
210.442	-112.81
210.661	48.98
210.879	30.55
211.098	-4.27
211.316	100.18
211.535	87.89
211.753	71.51
211.972	65.36
212.191	-16.55
212.409	34.64
212.628	59.22
212.846	-94.38
213.065	55.12
213.283	38.74
213.502	48.98
213.72	-16.55
213.938	22.36
214.157	-73.9
214.375	108.37
214.594	-10.41
214.812	110.42
215.031	14.17
215.249	40.79
215.467	-0.17
215.686	28.5
215.904	71.51
216.122	69.46
216.341	112.47
216.559	12.12
216.778	85.84
216.996	67.41
217.214	-18.6
217.432	-10.41
217.651	-16.55
217.869	89.94
218.087	-22.7
218.306	-22.7
218.524	59.22
218.742	59.22
218.96	112.47
219.179	-0.17
219.397	100.18
219.615	204.63
219.833	75.6
220.051	-47.27
220.27	69.46
220.488	69.46
220.706	46.93
220.924	-61.61
221.142	1.88
221.36	42.84
221.578	85.84
221.796	-57.51
222.015	42.84
222.233	-12.46
222.451	130.9
222.669	-6.31
222.887	85.84
223.105	32.6
223.323	40.79
223.541	12.12
223.759	44.88
223.977	5.97
224.195	141.14
224.413	51.03
224.631	42.84
224.849	-14.51
225.067	114.52
225.285	-57.51
225.503	-30.89
225.721	-121
225.939	75.6
226.157	10.07
226.375	247.63
226.592	-102.57
226.81	91.99
227.028	108.37
227.246	1.88
227.464	-0.17
227.682	65.36
227.9	18.26
228.117	87.89
228.335	83.8
228.553	-16.55
228.771	-75.95
228.989	36.69
229.206	79.7
229.424	24.4
229.642	36.69
229.86	-43.18
230.077	135
230.295	20.31
230.513	110.42
230.731	-30.89
230.948	151.38
231.166	116.56
231.384	-6.31
231.601	-49.32
231.819	184.15
232.037	-18.6
232.254	-10.41
232.472	51.03
232.689	-47.27
232.907	18.26
233.125	67.41
233.342	-39.08
233.56	-10.41
233.777	-63.66
233.995	-96.43
234.213	67.41
234.43	69.46
234.648	-20.65
234.865	53.08
235.083	75.6
235.3	-10.41
235.518	100.18
235.735	143.19
235.953	89.94
236.17	59.22
236.388	1.88
236.605	48.98
236.822	8.02
237.04	51.03
237.257	30.55
237.475	-18.6
237.692	12.12
237.909	87.89
238.127	-39.08
238.344	-41.13
238.562	98.13
238.779	-53.42
238.996	-39.08
239.214	-37.03
239.431	153.43
239.648	1.88
239.865	34.64
240.083	71.51
240.3	-6.31
240.517	-10.41
240.735	71.51
240.952	87.89
241.169	-22.7
241.386	59.22
241.603	-55.47
241.821	-118.95
242.038	85.84
242.255	36.69
242.472	-92.33
242.689	38.74
242.907	63.32
243.124	104.28
243.341	67.41
243.558	26.45
243.775	-123.05
243.992	-24.75
244.209	108.37
244.426	116.56
244.643	106.32
244.86	-51.37
245.078	79.7
245.295	-59.56
245.512	48.98
245.729	-49.32
245.946	98.13
246.163	83.8
246.38	-6.31
246.597	112.47
246.814	24.4
247.031	69.46
247.248	26.45
247.464	89.94
247.681	-45.23
247.898	53.08
248.115	63.32
248.332	20.31
248.549	122.71
248.766	190.29
248.983	-30.89
249.2	75.6
249.417	132.95
249.633	-6.31
249.85	-2.22
250.067	5.97
250.284	67.41
250.501	59.22
250.717	143.19
250.934	-16.55
251.151	22.36
251.368	-18.6
251.585	46.93
251.801	79.7
252.018	24.4
252.235	71.51
252.451	-18.6
252.668	48.98
252.885	104.28
253.102	48.98
253.318	-18.6
253.535	-26.79
253.752	8.02
253.968	-14.51
254.185	-16.55
254.401	40.79
254.618	8.02
254.835	-67.75
255.051	114.52
255.268	40.79
255.484	18.26
255.701	53.08
255.917	34.64
256.134	-39.08
256.351	-14.51
256.567	-39.08
256.784	12.12
257	-24.75
257.217	34.64
257.433	63.32
257.65	38.74
257.866	100.18
258.082	-67.75
258.299	77.65
258.515	96.08
258.732	-4.27
258.948	-65.71
259.165	-8.36
259.381	-71.85
259.597	114.52
259.814	-73.9
260.03	30.55
260.246	-41.13
260.463	139.09
260.679	186.19
260.895	28.5
261.112	67.41
261.328	-6.31
261.544	10.07
261.761	178
261.977	8.02
262.193	22.36
262.409	30.55
262.626	28.5
262.842	67.41
263.058	22.36
263.274	108.37
263.49	65.36
263.707	85.84
263.923	67.41
264.139	-102.57
264.355	34.64
264.571	165.71
264.787	22.36
265.004	157.52
265.22	22.36
265.436	-18.6
265.652	14.17
265.868	51.03
266.084	-16.55
266.3	26.45
266.516	-4.27
266.732	-0.17
266.948	-8.36
267.164	67.41
267.38	71.51
267.596	3.93
267.812	94.04
268.028	-37.03
268.244	-0.17
268.46	22.36
268.676	-28.84
268.892	51.03
269.108	-39.08
269.324	18.26
269.54	-71.85
269.756	89.94
269.972	-147.62
270.188	81.75
270.403	-20.65
270.619	-30.89
270.835	30.55
271.051	10.07
271.267	18.26
271.483	-88.23
271.698	51.03
271.914	85.84
272.13	-88.23
272.346	59.22
272.562	-6.31
272.777	143.19
272.993	63.32
273.209	-2.22
273.425	5.97
273.64	-59.56
273.856	77.65
274.072	61.27
274.287	-10.41
274.503	12.12
274.719	53.08
274.934	-47.27
275.15	-65.71
275.366	-90.28
275.581	-63.66
275.797	24.4
276.012	-37.03
276.228	-24.75
276.444	36.69
276.659	46.93
276.875	-26.79
277.09	3.93
277.306	-14.51
277.521	94.04
277.737	46.93
277.952	-8.36
278.168	-14.51
278.383	8.02
278.599	63.32
278.814	94.04
279.03	46.93
279.245	61.27
279.461	-10.41
279.676	55.12
279.892	-22.7
280.107	71.51
280.322	34.64
280.538	12.12
280.753	-18.6
280.969	63.32
281.184	8.02
281.399	83.8
281.615	-34.99
281.83	-20.65
282.045	-75.95
282.26	-32.94
282.476	10.07
282.691	16.21
282.906	-32.94
283.122	32.6
283.337	-55.47
283.552	98.13
283.767	14.17
283.983	69.46
284.198	-22.7
284.413	96.08
284.628	-73.9
284.843	24.4
285.058	102.23
285.274	42.84
285.489	1.88
285.704	61.27
285.919	-16.55
286.134	-24.75
286.349	-10.41
286.564	-57.51
286.779	71.51
286.995	40.79
287.21	-43.18
287.425	59.22
287.64	8.02
287.855	61.27
288.07	-41.13
288.285	102.23
288.5	73.56
288.715	89.94
288.93	-28.84
289.145	-32.94
289.36	51.03
289.575	5.97
289.79	75.6
290.004	-22.7
290.219	83.8
290.434	10.07
290.649	30.55
290.864	-12.46
291.079	-43.18
291.294	18.26
291.509	-26.79
291.724	18.26
291.938	-14.51
292.153	79.7
292.368	5.97
292.583	73.56
292.798	75.6
293.012	-22.7
293.227	51.03
293.442	-22.7
293.657	30.55
293.871	141.14
294.086	24.4
294.301	122.71
294.516	83.8
294.73	30.55
294.945	-57.51
295.16	18.26
295.374	87.89
295.589	106.32
295.804	10.07
296.018	8.02
296.233	135
296.447	132.95
296.662	-26.79
296.877	77.65
297.091	44.88
297.306	18.26
297.52	18.26
297.735	-24.75
297.949	42.84
298.164	18.26
298.378	20.31
298.593	18.26
298.807	34.64
299.022	-0.17
299.236	194.39
299.451	57.17
299.665	22.36
299.88	42.84
300.094	28.5
300.309	22.36
300.523	59.22
300.737	-26.79
300.952	65.36
301.166	-24.75
301.381	-112.81
301.595	-18.6
301.809	-51.37
302.024	14.17
302.238	-53.42
302.452	122.71
302.667	3.93
302.881	145.24
303.095	75.6
303.309	51.03
303.524	-49.32
303.738	73.56
303.952	-14.51
304.166	42.84
304.381	-149.67
304.595	180.05
304.809	-45.23
305.023	40.79
305.237	-26.79
305.452	10.07
305.666	16.21
305.88	75.6
306.094	30.55
306.308	24.4
306.522	108.37
306.736	73.56
306.95	67.41
307.164	-26.79
307.379	-51.37
307.593	96.08
307.807	98.13
308.021	149.33
308.235	34.64
308.449	-88.23
308.663	12.12
308.877	157.52
309.091	100.18
309.305	55.12
309.519	-123.05
309.733	22.36
309.947	-20.65
310.161	-22.7
310.374	110.42
310.588	67.41
310.802	-39.08
311.016	34.64
311.23	34.64
311.444	-47.27
311.658	-6.31
311.872	128.85
312.085	128.85
312.299	75.6
312.513	98.13
312.727	71.51
312.941	-24.75
313.154	73.56
313.368	-6.31
313.582	-20.65
313.796	73.56
314.009	-0.17
314.223	106.32
314.437	53.08
314.651	44.88
314.864	8.02
315.078	-10.41
315.292	-147.62
315.505	-65.71
315.719	24.4
315.933	69.46
316.146	18.26
316.36	-98.47
316.573	98.13
316.787	22.36
317.001	12.12
317.214	-26.79
317.428	14.17
317.641	-98.47
317.855	26.45
318.068	48.98
318.282	34.64
318.495	128.85
318.709	67.41
318.922	24.4
319.136	122.71
319.349	98.13
319.563	-96.43
319.776	10.07
319.99	-84.14
320.203	63.32
320.417	1.88
320.63	122.71
320.843	137.04
321.057	16.21
321.27	53.08
321.483	104.28
321.697	141.14
321.91	-30.89
322.124	59.22
322.337	67.41
322.55	-102.57
322.763	40.79
322.977	26.45
323.19	-49.32
323.403	12.12
323.617	-18.6
323.83	153.43
324.043	-18.6
324.256	-28.84
324.469	-123.05
324.683	116.56
324.896	-71.85
325.109	73.56
325.322	-12.46
325.535	116.56
325.748	51.03
325.962	-0.17
326.175	8.02
326.388	-2.22
326.601	55.12
326.814	-10.41
327.027	57.17
327.24	85.84
327.453	-65.71
327.666	63.32
327.879	87.89
328.092	57.17
328.305	14.17
328.518	-47.27
328.731	24.4
328.944	-22.7
329.157	10.07
329.37	-55.47
329.583	118.61
329.796	87.89
330.009	-92.33
330.222	67.41
330.435	173.91
330.648	100.18
330.861	38.74
331.073	91.99
331.286	26.45
331.499	12.12
331.712	10.07
331.925	38.74
332.138	3.93
332.35	81.75
332.563	-22.7
332.776	98.13
332.989	-24.75
333.202	24.4
333.414	-49.32
333.627	30.55
333.84	-30.89
334.053	-26.79
334.265	46.93
334.478	-63.66
334.691	40.79
334.903	30.55
335.116	14.17
335.329	59.22
335.541	57.17
335.754	151.38
335.966	-37.03
336.179	59.22
336.392	-39.08
336.604	26.45
336.817	67.41
337.029	91.99
337.242	38.74
337.454	48.98
337.667	16.21
337.88	5.97
338.092	34.64
338.305	18.26
338.517	-39.08
338.729	63.32
338.942	114.52
339.154	-80.04
339.367	-135.34
339.579	135
339.792	-61.61
340.004	55.12
340.217	-26.79
340.429	87.89
340.641	-24.75
340.854	-30.89
341.066	1.88
341.278	132.95
341.491	165.71
341.703	8.02
341.915	20.31
342.128	100.18
342.34	26.45
342.552	-112.81
342.764	24.4
342.977	40.79
343.189	67.41
343.401	42.84
343.613	12.12
343.826	3.93
344.038	34.64
344.25	42.84
344.462	32.6
344.674	48.98
344.886	16.21
345.099	18.26
345.311	169.81
345.523	-20.65
345.735	34.64
345.947	-24.75
346.159	51.03
346.371	40.79
346.583	-12.46
346.795	114.52
347.007	8.02
347.219	96.08
347.431	14.17
347.643	161.62
347.855	-41.13
348.067	34.64
348.279	-65.71
348.491	40.79
348.703	18.26
348.915	-16.55
349.127	-82.09
349.339	-26.79
349.551	-10.41
349.763	71.51
349.975	3.93
350.187	34.64
350.399	63.32
350.61	-0.17
350.822	-30.89
351.034	73.56
351.246	18.26
351.458	77.65
351.669	30.55
351.881	79.7
352.093	51.03
352.305	87.89
352.517	77.65
352.728	57.17
352.94	108.37
353.152	14.17
353.363	1.88
353.575	128.85
353.787	120.66
353.999	10.07
354.21	130.9
354.422	-67.75
354.633	-45.23
354.845	32.6
355.057	-2.22
355.268	34.64
355.48	36.69
355.692	51.03
355.903	51.03
356.115	-63.66
356.326	-69.8
356.538	57.17
356.749	32.6
356.961	79.7
357.172	-41.13
357.384	48.98
357.595	96.08
357.807	-45.23
358.018	-41.13
358.23	-12.46
358.441	223.06
358.653	48.98
358.864	1.88
359.075	3.93
359.287	48.98
359.498	96.08
359.709	-0.17
359.921	-18.6
360.132	-22.7
360.344	16.21
360.555	-84.14
360.766	75.6
360.977	-55.47
361.189	51.03
361.4	-43.18
361.611	51.03
361.823	135
362.034	22.36
362.245	-112.81
362.456	48.98
362.667	51.03
362.879	-55.47
363.09	40.79
363.301	59.22
363.512	24.4
363.723	34.64
363.935	102.23
364.146	83.8
364.357	-0.17
364.568	63.32
364.779	-24.75
364.99	73.56
365.201	-51.37
365.412	79.7
365.623	-20.65
365.834	87.89
366.045	30.55
366.256	128.85
366.467	65.36
366.678	-18.6
366.889	63.32
367.1	-71.85
367.311	65.36
367.522	-24.75
367.733	3.93
367.944	5.97
368.155	65.36
368.366	1.88
368.577	147.28
368.788	149.33
368.999	-32.94
369.209	91.99
369.42	188.24
369.631	182.1
369.842	100.18
370.053	-43.18
370.264	106.32
370.474	-63.66
370.685	16.21
370.896	53.08
371.107	91.99
371.317	-10.41
371.528	24.4
371.739	108.37
371.95	55.12
372.16	63.32
372.371	-59.56
372.582	16.21
372.792	85.84
373.003	55.12
373.214	16.21
373.424	94.04
373.635	-12.46
373.846	116.56
374.056	59.22
374.267	75.6
374.477	8.02
374.688	-73.9
374.898	12.12
375.109	28.5
375.319	42.84
375.53	100.18
375.74	34.64
375.951	67.41
376.161	16.21
376.372	87.89
376.582	40.79
376.793	63.32
377.003	-2.22
377.214	48.98
377.424	67.41
377.635	14.17
377.845	-24.75
378.055	85.84
378.266	-63.66
378.476	51.03
378.686	65.36
378.897	-16.55
379.107	40.79
379.317	1.88
379.528	-22.7
379.738	46.93
379.948	-55.47
380.158	116.56
380.369	-16.55
380.579	20.31
380.789	8.02
380.999	36.69
381.21	40.79
381.42	132.95
381.63	40.79
381.84	10.07
382.05	-12.46
382.261	67.41
382.471	157.52
382.681	67.41
382.891	120.66
383.101	5.97
383.311	-22.7
383.521	-71.85
383.731	71.51
383.941	69.46
384.151	40.79
384.361	32.6
384.571	65.36
384.781	53.08
384.991	128.85
385.201	79.7
385.411	42.84
385.621	51.03
385.831	16.21
386.041	57.17
386.251	40.79
386.461	61.27
386.671	28.5
386.881	75.6
387.091	-18.6
387.301	128.85
387.511	71.51
387.72	-47.27
387.93	122.71
388.14	-28.84
388.35	3.93
388.56	14.17
388.769	104.28
388.979	-20.65
389.189	-0.17
389.399	24.4
389.609	83.8
389.818	126.8
390.028	34.64
390.238	83.8
390.447	-49.32
390.657	-43.18
390.867	-26.79
391.076	5.97
391.286	42.84
391.496	61.27
391.705	-57.51
391.915	157.52
392.125	91.99
392.334	55.12
392.544	38.74
392.753	48.98
392.963	22.36
393.172	51.03
393.382	-57.51
393.591	149.33
393.801	71.51
394.01	157.52
394.22	-67.75
394.429	-39.08
394.639	-28.84
394.848	-14.51
395.058	67.41
395.267	-2.22
395.477	22.36
395.686	-6.31
395.895	114.52
396.105	157.52
396.314	1.88
396.524	30.55
396.733	46.93
396.942	91.99
397.152	48.98
397.361	55.12
397.57	89.94
397.78	118.61
397.989	112.47
398.198	98.13
398.407	-2.22
398.617	46.93
398.826	42.84
399.035	24.4
399.244	132.95
399.453	38.74
399.663	46.93
399.872	67.41
400.081	-22.7
400.29	75.6
400.499	-61.61
400.708	22.36
400.917	10.07
401.127	55.12
401.336	-55.47
401.545	104.28
401.754	100.18
401.963	30.55
402.172	65.36
402.381	-155.82
402.59	5.97
402.799	-18.6
403.008	55.12
403.217	96.08
403.426	63.32
403.635	-57.51
403.844	3.93
404.053	38.74
404.262	34.64
404.471	169.81
404.68	55.12
404.888	3.93
405.097	-24.75
405.306	48.98
405.515	94.04
405.724	-0.17
405.933	65.36
406.142	8.02
406.35	135
406.559	-18.6
406.768	71.51
406.977	94.04
407.185	8.02
407.394	71.51
407.603	-80.04
407.812	83.8
408.02	118.61
408.229	46.93
408.438	-49.32
408.646	-129.19
408.855	30.55
409.064	34.64
409.272	18.26
409.481	22.36
409.69	18.26
409.898	-55.47
410.107	75.6
410.315	102.23
410.524	79.7
410.733	34.64
410.941	67.41
411.15	30.55
411.358	87.89
411.567	57.17
411.775	-18.6
411.984	-18.6
412.192	-0.17
412.401	-12.46
412.609	149.33
412.818	161.62
413.026	98.13
413.234	-20.65
413.443	89.94
413.651	16.21
413.86	-55.47
414.068	143.19
414.276	192.34
414.485	-32.94
414.693	198.48
414.901	147.28
415.11	24.4
415.318	83.8
415.526	32.6
415.734	75.6
415.943	14.17
416.151	71.51
416.359	-6.31
416.567	32.6
416.776	59.22
416.984	14.17
417.192	124.76
417.4	-26.79
417.608	-47.27
417.817	1.88
418.025	87.89
418.233	178
418.441	-34.99
418.649	87.89
418.857	65.36
419.065	38.74
419.273	22.36
419.481	57.17
419.689	-0.17
419.897	-57.51
420.105	-59.56
420.313	67.41
420.521	67.41
420.729	120.66
420.937	-34.99
421.145	14.17
421.353	67.41
421.561	75.6
421.769	147.28
421.977	1.88
422.185	188.24
422.393	42.84
422.601	110.42
422.809	180.05
423.017	-34.99
423.224	44.88
423.432	34.64
423.64	51.03
423.848	46.93
424.056	-34.99
424.263	57.17
424.471	30.55
424.679	169.81
424.887	5.97
425.094	102.23
425.302	24.4
425.51	83.8
425.718	44.88
425.925	59.22
426.133	10.07
426.341	182.1
426.548	18.26
426.756	83.8
426.964	63.32
427.171	36.69
427.379	110.42
427.586	10.07
427.794	10.07
428.001	165.71
428.209	63.32
428.417	106.32
428.624	8.02
428.832	110.42
429.039	1.88
429.247	104.28
429.454	151.38
429.662	165.71
429.869	16.21
430.076	83.8
430.284	94.04
430.491	153.43
430.699	59.22
430.906	118.61
431.114	87.89
431.321	100.18
431.528	108.37
431.736	51.03
431.943	122.71
432.15	118.61
432.358	100.18
432.565	196.43
432.772	-37.03
432.979	184.15
433.187	94.04
433.394	110.42
433.601	106.32
433.808	173.91
434.016	192.34
434.223	196.43
434.43	186.19
434.637	116.56
434.844	163.67
435.052	178
435.259	147.28
435.466	169.81
435.673	194.39
435.88	221.01
436.087	192.34
436.294	345.94
436.501	241.49
436.708	163.67
436.915	284.5
437.122	266.07
437.329	276.31
437.537	272.21
437.743	286.54
437.95	354.13
438.157	327.5
438.364	333.65
438.571	339.79
438.778	362.32
438.985	356.18
439.192	425.81
439.399	341.84
439.606	386.9
439.813	456.53
440.02	493.39
440.227	558.92
440.433	474.96
440.64	403.28
440.847	390.99
441.054	436.05
441.261	612.17
441.467	608.08
441.674	448.33
441.881	612.17
442.088	558.92
442.294	632.65
442.501	585.55
442.708	694.09
442.914	689.99
443.121	665.42
443.328	780.11
443.534	874.31
443.741	694.09
443.948	626.51
444.154	833.35
444.361	972.61
444.568	825.16
444.774	814.92
444.981	886.6
445.187	984.9
445.394	1015.62
445.6	1023.81
445.807	1146.69
446.013	1128.26
446.22	1064.77
446.426	1099.59
446.633	1214.27
446.839	1455.94
447.046	1238.85
447.252	1402.69
447.459	1312.58
447.665	1468.22
447.871	1597.24
448.078	1666.88
448.284	1756.99
448.491	1750.84
448.697	1728.31
448.903	1820.47
449.11	1990.45
449.316	1965.88
449.522	2000.69
449.728	2189.11
449.935	2131.76
450.141	2234.16
450.347	2361.14
450.553	2238.26
450.76	2406.19
450.966	2516.78
451.172	2649.9
451.378	2735.92
451.584	2842.41
451.791	2979.62
451.997	3188.52
452.203	3110.69
452.409	3270.44
452.615	3350.31
452.821	3237.67
453.027	3362.59
453.233	3735.32
453.44	3489.57
453.646	3843.87
453.852	4126.49
454.058	4167.45
454.264	4357.91
454.47	4540.18
454.676	4544.27
454.882	5007.11
455.088	4785.93
455.294	4990.73
455.5	5267.2
455.705	5617.41
455.911	5711.61
456.117	5805.82
456.323	6041.34
456.529	5998.33
456.735	6571.76
456.941	6661.87
457.147	6989.55
457.352	7192.3
457.558	7380.71
457.764	7866.08
457.97	7964.38
458.176	8378.07
458.381	8892.11
458.587	9035.47
458.793	9565.89
458.999	9492.16
459.204	10565.3
459.41	10831.54
459.616	10610.36
459.821	11417.26
460.027	11816.61
460.233	12426.9
460.438	12627.6
460.644	13160.08
460.85	13352.59
461.055	13872.77
461.261	14444.15
461.466	14349.95
461.672	14933.62
461.878	16004.71
462.083	15730.28
462.289	16455.26
462.494	17170
462.7	17350.22
462.905	17479.24
463.111	18794.04
463.316	19689
463.522	20153.89
463.727	20610.59
463.932	21458.45
464.138	22011.4
464.343	23174.64
464.549	23262.71
464.754	24921.56
464.959	25462.22
465.165	26084.81
465.37	25705.93
465.575	25816.52
465.781	27504.05
465.986	28253.61
466.191	28016.04
466.397	28335.52
466.602	27657.65
466.807	29111.71
467.012	29355.41
467.218	30242.18
467.423	30215.56
467.628	31038.84
467.833	32666.98
468.038	32144.75
468.244	31470.97
468.449	33199.45
468.654	32716.13
468.859	32351.59
469.064	32435.56
469.269	31466.87
469.474	31907.18
469.679	32845.15
469.885	31909.23
470.09	32204.14
470.295	32836.96
470.5	31659.38
470.705	31808.88
470.91	31233.4
471.115	30766.46
471.32	31319.42
471.525	31198.59
471.73	30203.27
471.935	29666.7
472.139	29201.82
472.344	28906.91
472.549	28859.8
472.754	28407.2
472.959	27778.48
473.164	26545.6
473.369	26308.04
473.574	27102.65
473.778	26248.64
473.983	25875.91
474.188	25578.96
474.393	24045.03
474.598	24407.52
474.802	23655.92
475.007	23533.04
475.212	23471.6
475.417	22377.98
475.621	21886.47
475.826	21853.7
476.031	21534.22
476.235	20860.44
476.44	21116.44
476.645	20123.17
476.849	20063.78
477.054	19908.13
477.259	19252.78
477.463	19433
477.668	18734.65
477.872	18753.08
478.077	18382.4
478.282	17475.15
478.486	17692.23
478.691	17499.72
478.895	17129.04
479.1	16991.83
479.304	17069.65
479.509	16459.35
479.713	16682.58
479.918	16236.13
480.122	16082.53
480.326	15988.32
480.531	16057.95
480.735	15484.52
480.94	15529.58
481.144	15955.55
481.348	15498.86
481.553	15052.4
481.757	15033.97
481.961	14919.28
482.166	15183.47
482.37	14726.77
482.574	14446.2
482.778	14341.75
482.983	14718.58
483.187	14313.08
483.391	14313.08
483.595	13964.93
483.8	13960.83
484.004	13743.75
484.208	14024.32
484.412	13706.88
484.616	13436.55
484.821	13528.71
485.025	13100.69
485.229	13147.79
485.433	13018.77
485.637	12621.46
485.841	12517.01
486.045	12662.42
486.249	12406.42
486.453	11988.64
486.657	11826.85
486.861	11769.51
487.065	11400.87
487.269	11464.36
487.473	10806.96
487.677	11237.03
487.881	10925.74
488.085	10694.32
488.289	10536.63
488.493	10380.98
488.697	10436.28
488.901	9905.85
489.105	9666.24
489.309	9836.22
489.512	9408.2
489.716	9434.82
489.92	9096.91
490.124	8965.84
490.328	8826.57
490.531	8580.82
490.735	8457.94
490.939	8249.05
491.143	8152.79
491.346	8029.91
491.55	7999.2
491.754	7794.4
491.958	7659.23
492.161	7522.02
492.365	7368.42
492.569	7395.04
492.772	7231.21
492.976	7198.44
493.18	7255.78
493.383	6985.45
493.587	6891.24
493.79	6821.61
493.994	6588.14
494.197	6545.14
494.401	6563.57
494.605	6532.85
494.808	6448.88
495.012	6301.43
495.215	6160.12
495.419	6225.65
495.622	6147.83
495.825	6153.98
496.029	5977.85
496.232	6207.22
496.436	6014.71
496.639	6047.48
496.843	6125.3
497.046	5981.95
497.249	6094.58
497.453	6016.76
497.656	5908.22
497.859	5832.44
498.063	6006.52
498.266	6024.95
498.469	5893.88
498.673	5908.22
498.876	5990.14
499.079	6074.1
499.282	6016.76
499.485	6205.17
499.689	6260.47
499.892	6037.24
500.095	6106.87
500.298	6348.53
500.501	6194.93
500.705	6317.81
500.908	6377.2
501.111	6248.18
501.314	6571.76
501.517	6547.19
501.72	6536.95
501.923	6522.61
502.126	6598.38
502.329	6674.16
502.532	6815.47
502.735	6801.13
502.938	7067.37
503.141	7012.07
503.344	7003.88
503.547	7184.1
503.75	6909.68
503.953	7315.17
504.156	7554.79
504.359	7497.44
504.562	7507.68
504.765	7706.34
504.968	8050.39
505.17	7925.47
505.373	8050.39
505.576	8341.21
505.779	8408.79
505.982	8373.97
506.185	8726.22
506.387	8742.61
506.59	8787.66
506.793	9002.7
506.996	9076.43
507.198	9260.74
507.401	9545.41
507.604	9758.4
507.807	9795.26
508.009	10069.69
508.212	10266.3
508.415	10397.37
508.617	10743.47
508.82	10995.37
509.022	10753.71
509.225	11298.47
509.428	11509.41
509.63	11574.95
509.833	12021.41
510.035	12232.35
510.238	12318.36
510.44	12590.74
510.643	13082.25
510.845	12977.81
511.048	13250.19
511.25	13897.35
511.453	13981.31
511.655	15029.87
511.858	15009.39
512.06	14997.1
512.262	15597.16
512.465	15652.45
512.667	16111.2
512.87	16518.75
513.072	16563.8
513.274	17450.57
513.477	17579.59
513.679	18120.26
513.881	18439.74
514.084	18818.61
514.286	19052.08
514.488	19564.07
514.69	20076.07
514.893	20870.68
515.095	20958.74
515.297	21239.31
515.499	21784.07
515.701	22476.29
515.904	22795.77
516.106	23426.54
516.308	23696.88
516.51	23932.39
516.712	24561.12
516.914	24833.5
517.116	25365.97
517.318	26097.1
517.52	26633.66
517.722	26873.28
517.925	27538.87
518.127	28169.64
518.329	28835.23
518.531	28390.82
518.733	29515.15
518.935	29879.69
519.136	30268.81
519.338	30821.76
519.54	31061.37
519.742	32021.87
519.944	32437.61
520.146	33459.54
520.348	33473.88
520.55	33940.82
520.752	34209.1
520.954	34712.9
521.155	34837.83
521.357	35652.92
521.559	36015.41
521.761	36474.15
521.963	36633.89
522.164	37094.69
522.366	37227.81
522.568	37956.88
522.77	37825.81
522.971	38706.44
523.173	38788.36
523.375	38948.1
523.576	38917.38
523.778	39079.17
523.98	39783.67
524.181	39834.87
524.383	39789.81
524.584	40316.14
524.786	40391.92
524.988	40246.51
525.189	40533.23
525.391	40461.55
525.592	40420.59
525.794	40785.13
525.995	40611.05
526.197	40899.81
526.398	40621.29
526.6	40520.94
526.801	40580.33
527.003	40742.12
527.204	40054
527.406	40422.64
527.607	40080.63
527.808	40361.2
528.01	39449.85
528.211	39523.58
528.412	39458.04
528.614	39298.3
528.815	39118.08
529.016	38987.01
529.218	38204.69
529.419	38161.68
529.62	37516.57
529.822	37532.95
530.023	36992.29
530.224	36941.09
530.425	36564.26
530.626	35806.51
530.828	35724.6
531.029	35841.33
531.23	35286.33
531.431	34557.25
531.632	34479.43
531.833	34137.42
532.035	33596.76
532.236	33908.05
532.437	33080.67
532.638	32378.22
532.839	32443.75
533.04	32009.58
533.241	31120.76
533.442	31573.36
533.643	31118.71
533.844	30453.12
534.045	29765.01
534.246	29478.29
534.447	28933.53
534.648	28736.93
534.849	28437.92
535.05	27798.96
535.251	27674.03
535.451	27184.57
535.652	27237.81
535.853	26490.31
536.054	26387.91
536.255	25918.92
536.456	25163.22
536.657	25421.27
536.857	24473.06
537.058	24294.88
537.259	24323.55
537.46	23829.99
537.66	23287.28
537.861	23270.9
538.062	22863.35
538.263	22320.64
538.463	22277.63
538.664	22136.32
538.865	21882.38
539.065	21706.25
539.266	21050.9
539.466	21098
539.667	20516.38
539.868	20776.47
540.068	20264.48
540.269	19908.13
540.469	19877.41
540.67	19645.99
540.87	19455.53
541.071	19058.23
541.271	18884.15
541.472	18499.13
541.672	18441.79
541.873	18140.74
542.073	17913.41
542.274	18050.63
542.474	17735.24
542.675	17460.81
542.875	17776.2
543.075	16914
543.276	16522.84
543.476	16844.37
543.676	16289.37
543.877	16336.48
544.077	16109.15
544.277	15785.57
544.478	16084.58
544.678	15847.01
544.878	15355.5
545.078	15265.39
545.279	14782.07
545.479	14906.99
545.679	14593.65
545.879	14360.19
546.079	14444.15
546.28	14098.05
546.48	14014.08
546.68	13969.02
546.88	13770.37
547.08	13561.48
547.28	13434.5
547.48	13182.6
547.68	13104.78
547.88	12969.62
548.081	12867.22
548.281	12533.4
548.481	12400.28
548.681	12404.38
548.881	12103.32
549.081	11886.24
549.28	11673.25
549.48	11679.4
549.68	11495.08
549.88	11501.22
550.08	10987.18
550.28	11079.34
550.48	11030.19
550.68	10915.5
550.88	10542.77
551.08	10294.97
551.279	10438.33
551.479	10206.91
551.679	10419.89
551.879	9725.63
552.079	9752.26
552.278	9459.4
552.478	9434.82
552.678	9469.64
552.878	9148.11
553.077	8804.05
553.277	8976.08
553.477	8670.93
553.676	8773.33
553.876	8517.33
554.076	8414.93
554.275	8341.21
554.475	8046.3
554.674	8171.22
554.874	7866.08
555.074	7732.96
555.273	7603.94
555.473	7585.51
555.672	7253.73
555.872	7204.58
556.071	7149.29
556.271	7175.91
556.47	6924.01
556.67	6764.27
556.869	6749.93
557.068	6616.82
557.268	6366.96
557.467	6321.91
557.667	6326
557.866	6086.39
558.065	5969.66
558.265	5940.99
558.464	5809.92
558.663	5824.25
558.863	5758.72
559.062	5707.52
559.261	5396.23
559.461	5474.05
559.66	5252.87
559.859	5168.9
560.058	4972.3
560.258	4986.63
560.457	4851.47
560.656	4927.24
560.855	4751.12
561.054	4814.6
561.253	4615.95
561.453	4624.14
561.652	4603.66
561.851	4589.33
562.05	4439.83
562.249	4112.15
562.448	4407.06
562.647	4101.91
562.846	4071.19
563.045	4265.75
563.244	3909.4
563.443	3886.87
563.642	3813.15
563.841	3757.85
564.04	3888.92
564.239	3712.8
564.438	3641.12
564.637	3450.66
564.836	3669.79
565.035	3464.99
565.234	3475.23
565.432	3510.05
565.631	3421.99
565.83	3319.59
566.029	3145.51
566.228	3133.22
566.427	3170.08
566.625	3020.58
566.824	3106.6
567.023	2944.81
567.222	2875.18
567.42	2899.75
567.619	2920.23
567.818	2903.85
568.016	2914.09
568.215	2746.16
568.414	2776.87
568.612	2668.33
568.811	2733.87
569.01	2758.44
569.208	2541.36
569.407	2537.26
569.605	2541.36
569.804	2500.4
570.002	2492.21
570.201	2266.93
570.4	2303.79
570.598	2213.68
570.797	2316.08
570.995	2271.03
571.193	2225.97
571.392	2234.16
571.59	2039.61
571.789	2072.37
571.987	2135.86
572.186	2123.57
572.384	1986.36
572.582	1986.36
572.781	2086.71
572.979	1886.01
573.177	1771.32
573.376	1818.43
573.574	1922.87
573.772	1756.99
573.971	1693.5
574.169	1582.91
574.367	1713.98
574.565	1730.36
574.763	1722.17
574.962	1640.25
575.16	1632.06
575.358	1468.22
575.556	1498.94
575.754	1589.05
575.952	1550.14
576.151	1484.61
576.349	1503.04
576.547	1253.19
576.745	1533.76
576.943	1474.37
577.141	1394.5
577.339	1249.09
577.537	1236.8
577.735	1251.14
577.933	1312.58
578.131	1230.66
578.329	1392.45
578.527	1222.47
578.725	1224.51
578.923	1140.55
579.121	1279.81
579.319	1091.4
579.516	1177.41
579.714	1242.95
579.912	1066.82
580.11	1013.57
580.308	1062.73
580.506	1007.43
580.704	882.5
580.901	972.61
581.099	1158.98
581.297	1138.5
581.495	989
581.692	997.19
581.89	1054.53
582.088	933.7
582.285	935.75
582.483	802.63
582.681	866.12
582.878	812.87
583.076	859.98
583.274	835.4
583.471	962.37
583.669	771.91
583.866	784.2
584.064	747.34
584.262	665.42
584.459	722.76
584.657	833.35
584.854	714.57
585.052	751.43
585.249	810.82
585.447	759.63
585.644	640.84
585.841	816.97
586.039	714.57
586.236	753.48
586.434	681.8
586.631	612.17
586.828	567.12
587.026	632.65
587.223	624.46
587.42	614.22
587.618	606.03
587.815	606.03
588.012	642.89
588.21	599.88
588.407	616.27
588.604	657.23
588.801	593.74
588.999	622.41
589.196	614.22
589.393	485.2
589.59	548.68
589.787	522.06
589.984	599.88
590.182	597.84
590.379	483.15
590.576	558.92
590.773	542.54
590.97	429.9
591.167	556.88
591.364	589.64
591.561	454.48
591.758	649.04
591.955	567.12
592.152	468.81
592.349	460.62
592.546	417.61
592.743	345.94
592.94	436.05
593.137	542.54
593.334	550.73
593.531	520.01
593.727	554.83
593.924	546.64
594.121	503.63
594.318	468.81
594.515	485.2
594.712	603.98
594.908	667.47
595.105	501.58
595.302	599.88
595.499	552.78
595.696	638.8
595.892	499.53
596.089	603.98
596.286	560.97
596.482	698.19
596.679	601.93
596.876	487.25
597.072	710.47
597.269	651.08
597.466	673.61
597.662	651.08
597.859	673.61
598.055	751.43
598.252	706.38
598.448	829.26
598.645	798.54
598.841	831.3
599.038	984.9
599.234	943.94
599.431	923.46
599.627	1023.81
599.824	900.94
600.02	1001.29
600.217	999.24
600.413	1158.98
600.609	1115.97
600.806	1451.84
601.002	1294.15
601.198	1134.4
601.395	1314.63
601.591	1328.96
601.787	1488.7
601.984	1664.83
602.18	1472.32
602.376	1552.19
602.572	1756.99
602.769	1812.28
602.965	1806.14
603.161	1808.19
603.357	1881.91
603.553	2101.05
603.75	1922.87
603.946	2168.63
604.142	2189.11
604.338	2416.43
604.534	2373.43
604.73	2393.9
604.926	2408.24
605.122	2688.81
605.318	2617.13
605.514	2744.11
605.71	2680.62
605.906	3010.34
606.102	2909.99
606.298	3133.22
606.494	3180.32
606.69	3346.21
606.886	3499.81
607.082	3454.75
607.278	3534.62
607.474	3823.39
607.67	3807
607.866	3868.44
608.062	4052.76
608.257	4224.79
608.453	4175.64
608.649	4325.14
608.845	4450.07
609.041	4611.85
609.236	4749.07
609.432	4798.22
609.628	4978.44
609.824	5097.22
610.019	5125.9
610.215	5408.51
610.411	5631.74
610.606	5592.83
610.802	5805.82
610.998	5830.4
611.193	6063.86
611.389	6176.5
611.584	6569.71
611.78	6424.31
611.976	6661.87
612.171	7040.75
612.367	7124.71
612.562	7194.34
612.758	7393
612.953	7638.75
613.149	7907.04
613.344	7798.49
613.539	8337.11
613.735	8464.08
613.93	8611.54
614.126	8724.18
614.321	9236.17
614.517	9514.69
614.712	9592.51
614.907	9807.55
615.103	10145.47
615.298	10198.71
615.493	10550.96
615.688	10823.34
615.884	11146.92
616.079	11333.29
616.274	11658.92
616.47	11972.25
616.665	12177.05
616.86	12441.24
617.055	12803.73
617.25	13248.14
617.445	13653.64
617.641	13604.49
617.836	14237.31
618.031	14382.71
618.226	15074.93
618.421	15119.98
618.616	15515.24
618.811	15617.64
619.006	16416.35
619.201	16465.5
619.396	17047.12
619.591	17102.42
619.786	17985.09
619.981	17952.32
620.176	18568.76
620.371	18601.53
620.566	19035.7
620.761	19768.87
620.956	20125.22
621.151	20205.09
621.346	20727.32
621.541	21020.18
621.735	21720.59
621.93	21923.33
622.125	22224.39
622.32	22334.98
622.515	23221.75
622.709	23627.24
622.904	24088.04
623.099	24116.71
623.294	24970.71
623.488	24780.25
623.683	25959.88
623.878	25939.4
624.072	26271.17
624.267	26934.71
624.462	27198.9
624.656	27340.21
624.851	28294.57
625.046	28612
625.24	28962.2
625.435	28878.24
625.629	29816.21
625.824	29658.51
626.018	30309.77
626.213	30102.92
626.407	31255.93
626.602	30944.64
626.796	31655.28
626.991	31874.41
627.185	32056.68
627.38	32480.61
627.574	32492.9
627.768	32466.28
627.963	32929.12
628.157	32787.81
628.352	33525.08
628.546	32632.16
628.74	33547.61
628.935	33183.07
629.129	33465.69
629.323	32972.13
629.517	33172.83
629.712	32421.22
629.906	32546.15
630.1	31925.61
630.294	32329.06
630.489	31452.53
630.683	31632.75
630.877	30651.78
631.071	30051.72
631.265	29984.14
631.459	29472.15
631.653	28855.71
631.848	28118.44
632.042	27549.1
632.236	27106.74
632.43	26090.95
632.624	26060.23
632.818	24950.23
633.012	23823.85
633.206	23490.03
633.4	22869.5
633.594	21822.98
633.788	21302.8
633.982	20534.81
634.176	19719.72
634.369	19093.04
634.563	18419.26
634.757	17458.76
634.951	17182.29
635.145	16563.8
635.339	15715.94
635.533	15242.86
635.726	14452.34
635.92	13901.44
636.114	13440.65
636.308	12822.16
636.501	12478.1
636.695	11867.81
636.889	11333.29
637.083	10778.29
637.276	10569.4
637.47	9955.01
637.664	9414.34
637.857	9246.41
638.051	8939.21
638.244	8265.43
638.438	8132.31
638.632	7808.73
638.825	7325.41
639.019	7519.97
639.212	6741.74
639.406	6538.99
639.599	6416.12
639.793	6063.86
639.986	5852.92
640.18	5822.2
640.373	5623.55
640.567	5347.08
640.76	4931.34
640.954	4779.79
641.147	4443.92
641.34	4405.01
641.534	4290.32
641.727	4130.58
641.92	4063
642.114	3833.63
642.307	3680.03
642.5	3528.48
642.694	3387.17
642.887	3256.1
643.08	3270.44
643.273	3145.51
643.467	2903.85
643.66	2846.51
643.853	2621.23
644.046	2582.32
644.239	2469.68
644.432	2287.41
644.626	2228.02
644.819	2203.44
645.012	2037.56
645.205	2084.66
645.398	2021.17
645.591	1926.97
645.784	1785.66
645.977	1754.94
646.17	1734.46
646.363	1584.96
646.556	1558.33
646.749	1390.4
646.942	1468.22
647.135	1386.3
647.328	1298.24
647.521	1271.62
647.714	1158.98
647.907	1230.66
648.099	1251.14
648.292	1220.42
648.485	1146.69
648.678	1001.29
648.871	1015.62
649.064	974.66
649.256	886.6
649.449	802.63
649.642	747.34
649.835	800.59
650.027	710.47
650.22	892.74
650.413	689.99
650.605	730.95
650.798	630.6
650.991	563.02
651.183	565.07
651.376	589.64
651.568	640.84
651.761	558.92
651.954	640.84
652.146	579.4
652.339	616.27
652.531	649.04
652.724	474.96
652.916	448.33
653.109	386.9
653.301	517.97
653.494	477.01
653.686	413.52
653.879	511.82
654.071	477.01
654.263	333.65
654.456	347.98
654.648	378.7
654.84	450.38
655.033	241.49
655.225	427.85
655.417	141.14
655.61	323.41
655.802	335.7
655.994	415.57
656.186	200.53
656.379	417.61
656.571	249.68
656.763	245.59
656.955	218.96
657.148	200.53
657.34	307.02
657.532	221.01
657.724	235.35
657.916	317.26
658.108	313.17
658.3	255.83
658.492	233.3
658.684	225.11
658.876	91.99
659.068	157.52
659.26	100.18
659.452	169.81
659.644	204.63
659.836	337.74
660.028	188.24
660.22	196.43
660.412	100.18
660.604	132.95
660.796	186.19
660.988	280.4
661.18	206.67
661.372	218.96
661.563	116.56
661.755	231.25
661.947	151.38
662.139	8.02
662.331	100.18
662.522	147.28
662.714	116.56
662.906	46.93
663.097	163.67
663.289	91.99
663.481	34.64
663.673	135
663.864	118.61
664.056	143.19
664.247	22.36
664.439	137.04
664.631	69.46
664.822	184.15
665.014	135
665.205	79.7
665.397	69.46
665.588	124.76
665.78	40.79
665.971	155.47
666.163	87.89
666.354	110.42
666.546	42.84
666.737	46.93
666.929	104.28
667.12	26.45
667.311	106.32
667.503	67.41
667.694	151.38
667.885	155.47
668.077	116.56
668.268	5.97
668.459	110.42
668.651	36.69
668.842	116.56
669.033	55.12
669.224	42.84
669.416	208.72
669.607	30.55
669.798	-55.47
669.989	141.14
670.18	30.55
670.371	112.47
670.563	-32.94
670.754	143.19
670.945	182.1
671.136	153.43
671.327	55.12
671.518	145.24
671.709	155.47
671.9	118.61
672.091	157.52
672.282	141.14
672.473	171.86
672.664	28.5
672.855	137.04
673.046	114.52
673.237	223.06
673.428	153.43
673.619	141.14
673.809	67.41
674	135
674.191	110.42
674.382	110.42
674.573	73.56
674.764	112.47
674.954	241.49
675.145	108.37
675.336	182.1
675.527	106.32
675.717	73.56
675.908	83.8
676.099	55.12
676.289	77.65
676.48	10.07
676.671	100.18
676.861	96.08
677.052	151.38
677.243	38.74
677.433	8.02
677.624	98.13
677.814	102.23
678.005	108.37
678.195	132.95
678.386	137.04
678.576	155.47
678.767	38.74
678.957	112.47
679.148	186.19
679.338	182.1
679.529	157.52
679.719	96.08
679.909	190.29
680.1	178
680.29	163.67
680.481	40.79
680.671	173.91
680.861	153.43
681.052	116.56
681.242	83.8
681.432	141.14
681.622	149.33
681.813	100.18
682.003	122.71
682.193	40.79
682.383	120.66
682.573	173.91
682.764	96.08
682.954	106.32
683.144	180.05
683.334	130.9
683.524	89.94
683.714	180.05
683.904	100.18
684.094	173.91
684.284	100.18
684.474	147.28
684.664	147.28
684.854	126.8
685.044	145.24
685.234	106.32
685.424	221.01
685.614	122.71
685.804	255.83
685.994	182.1
686.184	116.56
686.374	165.71
686.564	153.43
686.753	38.74
686.943	128.85
687.133	114.52
687.323	112.47
687.513	196.43
687.702	165.71
687.892	112.47
688.082	124.76
688.272	139.09
688.461	114.52
688.651	253.78
688.841	196.43
689.03	124.76
689.22	98.13
689.41	235.35
689.599	192.34
689.789	169.81
689.979	274.26
690.168	114.52
690.358	180.05
690.547	147.28
690.737	132.95
690.926	132.95
691.116	165.71
691.305	231.25
691.495	135
691.684	153.43
691.874	167.76
692.063	180.05
692.252	192.34
692.442	157.52
692.631	-2.22
692.82	163.67
693.01	145.24
693.199	57.17
693.388	165.71
693.578	114.52
693.767	208.72
693.956	182.1
694.146	141.14
694.335	190.29
694.524	116.56
694.713	165.71
694.902	75.6
695.092	122.71
695.281	153.43
695.47	130.9
695.659	83.8
695.848	83.8
696.037	94.04
696.226	214.87
696.415	151.38
696.604	247.63
696.793	153.43
696.982	73.56
697.171	173.91
697.36	81.75
697.549	104.28
697.738	18.26
697.927	151.38
698.116	55.12
698.305	223.06
698.494	145.24
698.683	87.89
698.872	210.77
699.061	53.08
699.25	137.04
699.438	81.75
699.627	106.32
699.816	173.91
700.005	57.17
700.193	91.99
700.382	180.05
700.571	157.52
700.76	204.63
700.948	145.24
701.137	223.06
701.326	192.34
701.514	132.95
701.703	112.47
701.892	130.9
702.08	323.41
702.269	87.89
702.457	102.23
702.646	132.95
702.834	77.65
703.023	120.66
703.212	116.56
703.4	143.19
703.589	96.08
703.777	73.56
703.965	108.37
704.154	188.24
704.342	67.41
704.531	53.08
704.719	149.33
704.907	139.09
705.096	91.99
705.284	132.95
705.472	137.04
705.661	157.52
705.849	169.81
706.037	214.87
706.226	169.81
706.414	221.01
706.602	65.36
706.79	188.24
706.979	169.81
707.167	132.95
707.355	55.12
707.543	100.18
707.731	83.8
707.919	198.48
708.107	116.56
708.296	44.88
708.484	26.45
708.672	157.52
708.86	147.28
709.048	77.65
709.236	57.17
709.424	147.28
709.612	167.76
709.8	71.51
709.988	145.24
710.176	206.67
710.364	231.25
710.551	83.8
710.739	178
710.927	51.03
711.115	145.24
711.303	221.01
711.491	235.35
711.679	106.32
711.866	157.52
712.054	32.6
712.242	157.52
712.43	130.9
712.617	194.39
712.805	204.63
712.993	132.95
713.181	-12.46
713.368	180.05
713.556	100.18
713.744	75.6
713.931	270.16
714.119	153.43
714.306	163.67
714.494	114.52
714.682	169.81
714.869	128.85
715.057	71.51
715.244	30.55
715.432	147.28
715.619	124.76
715.807	190.29
715.994	42.84
716.182	91.99
716.369	141.14
716.556	223.06
716.744	51.03
716.931	139.09
717.119	223.06
717.306	73.56
717.493	231.25
717.681	108.37
717.868	98.13
718.055	128.85
718.242	104.28
718.43	98.13
718.617	214.87
718.804	75.6
718.991	141.14
719.179	165.71
719.366	225.11
719.553	180.05
719.74	110.42
719.927	96.08
720.114	79.7
720.301	100.18
720.488	32.6
720.676	120.66
720.863	165.71
721.05	212.82
721.237	149.33
721.424	274.26
721.611	161.62
721.798	53.08
721.985	79.7
722.172	112.47
722.358	91.99
722.545	280.4
722.732	178
722.919	225.11
723.106	210.77
723.293	194.39
723.48	161.62
723.667	91.99
723.853	243.54
724.04	182.1
724.227	165.71
724.414	161.62
724.6	243.54
724.787	304.98
724.974	198.48
725.161	141.14
725.347	81.75
725.534	194.39
725.72	124.76
725.907	280.4
726.094	208.72
726.28	126.8
726.467	204.63
726.653	149.33
726.84	221.01
727.027	288.59
727.213	173.91
727.4	233.3
727.586	214.87
727.773	204.63
727.959	206.67
728.145	98.13
728.332	104.28
728.518	139.09
728.705	268.11
728.891	200.53
729.077	227.15
729.264	85.84
729.45	169.81
729.636	210.77
729.823	157.52
730.009	292.69
730.195	184.15
730.382	253.78
730.568	77.65
730.754	221.01
730.94	161.62
731.126	225.11
731.313	194.39
731.499	157.52
731.685	249.68
731.871	200.53
732.057	223.06
732.243	171.86
732.429	151.38
732.615	343.89
732.801	284.5
732.987	194.39
733.173	214.87
733.359	223.06
733.545	165.71
733.731	155.47
733.917	286.54
734.103	165.71
734.289	255.83
734.475	135
734.661	354.13
734.847	223.06
735.033	196.43
735.219	266.07
735.404	223.06
735.59	178
735.776	124.76
735.962	253.78
736.148	253.78
736.333	368.46
736.519	206.67
736.705	210.77
736.89	286.54
737.076	157.52
737.262	157.52
737.447	208.72
737.633	200.53
737.819	288.59
738.004	165.71
738.19	173.91
738.375	221.01
738.561	214.87
738.747	298.83
738.932	157.52
739.118	368.46
739.303	266.07
739.489	247.63
739.674	165.71
739.859	108.37
740.045	253.78
740.23	227.15
740.416	81.75
740.601	188.24
740.786	214.87
740.972	167.76
741.157	257.87
741.342	130.9
741.528	112.47
741.713	247.63
741.898	231.25
742.084	182.1
742.269	218.96
742.454	259.92
742.639	335.7
742.824	237.39
743.01	210.77
743.195	337.74
743.38	276.31
743.565	198.48
743.75	206.67
743.935	323.41
744.12	307.02
744.305	171.86
744.49	223.06
744.675	137.04
744.86	241.49
745.045	259.92
745.23	212.82
745.415	147.28
745.6	282.45
745.785	79.7
745.97	218.96
746.155	137.04
746.34	249.68
746.525	202.58
746.71	200.53
746.895	100.18
747.079	108.37
747.264	196.43
747.449	159.57
747.634	208.72
747.819	155.47
748.003	96.08
748.188	135
748.373	294.74
748.557	239.44
748.742	206.67
748.927	118.61
749.111	157.52
749.296	163.67
749.481	149.33
749.665	200.53
749.85	128.85
750.034	223.06
750.219	186.19
750.404	132.95
750.588	196.43
750.773	57.17
750.957	139.09
751.141	128.85
751.326	173.91
751.51	116.56
751.695	167.76
751.879	139.09
752.064	237.39
752.248	268.11
752.432	292.69
752.617	218.96
752.801	268.11
752.985	120.66
753.17	261.97
753.354	155.47
753.538	214.87
753.722	157.52
753.907	153.43
754.091	53.08
754.275	214.87
754.459	44.88
754.643	106.32
754.828	145.24
755.012	218.96
755.196	102.23
755.38	214.87
755.564	141.14
755.748	87.89
755.932	212.82
756.116	139.09
756.3	163.67
756.484	147.28
756.668	128.85
756.852	34.64
757.036	141.14
757.22	132.95
757.404	102.23
757.588	81.75
757.772	202.58
757.956	116.56
758.14	257.87
758.323	51.03
758.507	173.91
758.691	91.99
758.875	149.33
759.059	253.78
759.242	161.62
759.426	149.33
759.61	141.14
759.794	63.32
759.977	204.63
760.161	276.31
760.345	255.83
760.528	137.04
760.712	91.99
760.895	137.04
761.079	100.18
761.263	-28.84
761.446	96.08
761.63	118.61
761.813	192.34
761.997	46.93
762.18	46.93
762.364	132.95
762.547	57.17
762.731	137.04
762.914	91.99
763.098	51.03
763.281	85.84
763.464	55.12
763.648	79.7
763.831	112.47
764.015	67.41
764.198	112.47
764.381	32.6
764.564	59.22
764.748	139.09
764.931	114.52
765.114	46.93
765.297	87.89
765.481	-10.41
765.664	48.98
765.847	59.22
766.03	137.04
766.213	5.97
766.397	57.17
766.58	89.94
766.763	180.05
766.946	42.84
767.129	81.75
767.312	1.88
767.495	10.07
767.678	94.04
767.861	51.03
768.044	98.13
768.227	18.26
768.41	81.75
768.593	178
768.776	75.6
768.959	85.84
769.142	171.86
769.324	38.74
769.507	87.89
769.69	1.88
769.873	87.89
770.056	194.39
770.239	30.55
770.421	67.41
770.604	83.8
770.787	59.22
770.97	149.33
771.152	42.84
771.335	126.8
771.518	75.6
771.7	98.13
771.883	198.48
772.066	-32.94
772.248	34.64
772.431	188.24
772.613	94.04
772.796	10.07
772.978	85.84
773.161	212.82
773.343	18.26
773.526	1.88
773.708	-2.22
773.891	8.02
774.073	59.22
774.256	-10.41
774.438	114.52
774.621	96.08
774.803	51.03
774.985	46.93
775.168	145.24
775.35	67.41
775.532	51.03
775.715	65.36
775.897	89.94
776.079	3.93
776.261	71.51
776.444	112.47
776.626	77.65
776.808	55.12
776.99	32.6
777.173	87.89
777.355	-6.31
777.537	106.32
777.719	94.04
777.901	44.88
778.083	1.88
778.265	-12.46
778.447	81.75
778.629	-14.51
778.811	-6.31
778.993	106.32
779.175	55.12
779.357	67.41
779.539	18.26
779.721	81.75
779.903	63.32
780.085	3.93
780.267	24.4
780.449	34.64
780.631	112.47
780.812	85.84
780.994	34.64
781.176	53.08
781.358	40.79
781.54	12.12
781.721	137.04
781.903	89.94
782.085	32.6
782.267	83.8
782.448	24.4
782.63	59.22
782.812	59.22
782.993	-6.31
783.175	98.13
783.357	34.64
783.538	122.71
783.72	-26.79
783.901	75.6
784.083	75.6
784.264	69.46
784.446	-39.08
784.627	-55.47
784.809	46.93
784.99	18.26
785.172	65.36
785.353	-22.7
785.535	34.64
785.716	-8.36
785.897	59.22
786.079	44.88
786.26	83.8
786.441	-14.51
786.623	-55.47
786.804	26.45
786.985	8.02
787.167	34.64
787.348	-51.37
787.529	30.55
787.71	83.8
787.891	3.93
788.073	-26.79
788.254	-45.23
788.435	145.24
788.616	14.17
788.797	-53.42
788.978	-84.14
789.159	-10.41
789.34	1.88
789.522	-0.17
789.703	-84.14
789.884	14.17
790.065	22.36
790.246	81.75
790.427	-8.36
790.607	102.23
790.788	65.36
790.969	18.26
791.15	24.4
791.331	-43.18
791.512	30.55
791.693	-82.09
791.874	-12.46
792.054	108.37
792.235	55.12
792.416	-104.62
792.597	-49.32
792.778	14.17
792.958	79.7
793.139	34.64
793.32	-51.37
793.5	-41.13
793.681	57.17
793.862	22.36
794.042	-51.37
794.223	-30.89
794.404	-8.36
794.584	-47.27
794.765	14.17
794.945	42.84
795.126	-28.84
795.306	57.17
795.487	32.6
795.667	14.17
795.848	91.99
796.028	34.64
796.209	67.41
796.389	-45.23
796.57	-49.32
796.75	-30.89
796.93	30.55
797.111	-39.08
797.291	10.07
797.471	10.07
797.652	-55.47
797.832	-20.65
798.012	22.36
798.192	-26.79
798.373	-100.52
798.553	-59.56
798.733	59.22
798.913	-100.52
799.093	-34.99
799.274	-59.56
799.454	30.55
799.634	-32.94
799.814	96.08
799.994	87.89
800.174	77.65
800.354	-16.55
800.534	-133.29
800.714	141.14
800.894	-55.47
801.074	-41.13
801.254	20.31
801.434	75.6
801.614	-22.7
801.794	-10.41
801.974	1707.84
802.154	-22.7
802.334	32.6
802.514	-47.27
802.693	32.6
802.873	-49.32
803.053	108.37
803.233	3.93
803.413	-30.89
803.592	-22.7
803.772	-90.28
803.952	1.88
804.131	-28.84
804.311	87.89
804.491	124.76
804.67	-30.89
804.85	-63.66
805.03	-4.27
805.209	59.22
805.389	-57.51
805.568	-10.41
805.748	-102.57
805.928	69.46
806.107	53.08
806.287	91.99
806.466	-14.51
806.646	16.21
806.825	75.6
807.004	57.17
807.184	5.97
807.363	24.4
807.543	87.89
807.722	-121
807.901	89.94
808.081	71.51
808.26	-178.34
808.439	-30.89
808.619	18.26
808.798	-51.37
808.977	-26.79
809.156	87.89
809.336	-82.09
809.515	59.22
809.694	-75.95
809.873	-39.08
810.052	-30.89
810.231	-0.17
810.411	-43.18
810.59	26.45
810.769	-45.23
810.948	67.41
811.127	-147.62
811.306	-39.08
811.485	-2.22
811.664	79.7
811.843	-82.09
812.022	16.21
812.201	-22.7
812.38	-55.47
812.559	-39.08
812.737	-32.94
812.916	-96.43
813.095	-32.94
813.274	63.32
813.453	34.64
813.632	40.79
813.811	81.75
813.989	-43.18
814.168	73.56
814.347	-94.38
814.526	10.07
814.704	132.95
814.883	61.27
815.062	-90.28
815.24	3.93
815.419	-80.04
815.598	-32.94
815.776	-57.51
815.955	3.93
816.133	-18.6
816.312	-14.51
816.49	-141.48
816.669	-16.55
816.847	-49.32
817.026	63.32
817.204	-47.27
817.383	-82.09
817.561	-92.33
817.74	-0.17
817.918	57.17
818.097	-51.37
818.275	-88.23
818.453	1.88
818.632	81.75
818.81	-0.17
818.988	-71.85
819.167	-37.03
819.345	-49.32
819.523	-32.94
819.701	24.4
819.879	-41.13
820.058	18.26
820.236	14.17
820.414	63.32
820.592	-88.23
820.77	34.64
820.948	-8.36
821.127	-24.75
821.305	18.26
821.483	-49.32
821.661	57.17
821.839	-22.7
822.017	-88.23
822.195	59.22
822.373	53.08
822.551	65.36
822.729	18.26
822.907	44.88
823.085	-22.7
823.262	3.93
823.44	-88.23
823.618	1.88
823.796	-51.37
823.974	18.26
824.152	-43.18
824.329	34.64
824.507	-0.17
824.685	36.69
824.863	-51.37
825.04	-22.7
825.218	57.17
825.396	3.93
825.574	10.07
825.751	12.12
825.929	75.6
826.107	-75.95
826.284	5.97
826.462	85.84
826.639	-71.85
826.817	-135.34
826.994	5.97
827.172	-51.37
827.349	85.84
827.527	10.07
827.704	-12.46
827.882	63.32
828.059	26.45
828.237	-30.89
828.414	57.17
828.591	-92.33
828.769	-22.7
828.946	-22.7
829.124	-2.22
829.301	59.22
829.478	-18.6
829.655	61.27
829.833	-18.6
830.01	-92.33
830.187	-12.46
830.364	-65.71
830.542	22.36
830.719	100.18
830.896	-10.41
831.073	-47.27
831.25	14.17
831.427	34.64
831.604	-51.37
831.782	-49.32
831.959	42.84
832.136	-14.51
832.313	46.93
832.49	3.93
832.667	87.89
832.844	-67.75
833.021	16.21
833.198	-55.47
833.374	-43.18
833.551	59.22
833.728	36.69
833.905	59.22
834.082	-121
834.259	5.97
834.436	59.22
834.612	-10.41
834.789	71.51
834.966	-49.32
835.143	-45.23
835.319	-98.47
835.496	83.8
835.673	-24.75
835.85	12.12
836.026	1.88
836.203	89.94
836.38	-14.51
836.556	-55.47
836.733	-34.99
836.909	116.56
837.086	8.02
837.262	-16.55
837.439	-84.14
837.616	-63.66
837.792	-39.08
837.968	24.4
838.145	-131.24
838.321	28.5
838.498	-18.6
838.674	71.51
838.851	-6.31
839.027	-94.38
839.203	55.12
839.38	-16.55
839.556	-57.51
839.732	96.08
839.909	-4.27
840.085	44.88
840.261	-71.85
840.437	-14.51
840.614	-57.51
840.79	16.21
840.966	38.74
841.142	-14.51
841.318	8.02
841.494	14.17
841.671	34.64
841.847	-43.18
842.023	-98.47
842.199	32.6
842.375	-2.22
842.551	-98.47
842.727	-28.84
842.903	91.99
843.079	-88.23
843.255	42.84
843.431	34.64
843.607	65.36
843.783	-123.05
843.959	22.36
844.134	-63.66
844.31	16.21
844.486	-6.31
844.662	8.02
844.838	-69.8
845.013	18.26
845.189	94.04
845.365	53.08
845.541	40.79
845.716	22.36
845.892	48.98
846.068	-102.57
846.244	-108.71
846.419	-121
846.595	-96.43
846.77	-14.51
846.946	22.36
847.122	34.64
847.297	-14.51
847.473	130.9
847.648	5.97
847.824	-0.17
847.999	-125.1
848.175	-51.37
848.35	-16.55
848.526	55.12
848.701	18.26
848.876	57.17
849.052	46.93
849.227	-100.52
849.403	18.26
849.578	-102.57
849.753	-30.89
849.929	-28.84
850.104	-141.48
850.279	36.69
850.454	30.55
850.63	53.08
850.805	-69.8
850.98	-26.79
851.155	26.45
851.33	-20.65
851.505	-71.85
851.681	79.7
851.856	-82.09
852.031	-32.94
852.206	3.93
852.381	-71.85
852.556	-22.7
852.731	53.08
852.906	57.17
853.081	14.17
853.256	102.23
853.431	-41.13
853.606	-67.75
853.781	-114.86
853.956	-32.94
854.131	75.6
854.305	-61.61
854.48	-55.47
854.655	-67.75
854.83	-88.23
855.005	-34.99
855.18	10.07
855.354	-47.27
855.529	61.27
855.704	-14.51
855.879	59.22
856.053	-100.52
856.228	18.26
856.403	-18.6
856.577	-30.89
856.752	-116.9
856.926	-32.94
857.101	-26.79
857.276	-30.89
857.45	-20.65
857.625	59.22
857.799	96.08
857.974	57.17
858.148	-104.62
858.323	-4.27
858.497	-0.17
858.672	-71.85
858.846	-75.95
859.02	65.36
859.195	-63.66
859.369	-6.31
859.543	26.45
859.718	75.6
859.892	3.93
860.066	34.64
860.241	-30.89
860.415	-80.04
860.589	-106.67
860.763	-2.22
860.938	-90.28
861.112	67.41
861.286	-96.43
861.46	67.41
861.634	-92.33
861.808	-22.7
861.982	-55.47
862.157	-12.46
862.331	-47.27
862.505	-92.33
862.679	-65.71
862.853	-59.56
863.027	-45.23
863.201	34.64
863.375	-116.9
863.549	22.36
863.722	-12.46
863.896	63.32
864.07	-71.85
864.244	-80.04
864.418	34.64
864.592	-32.94
864.766	1.88
864.939	-12.46
865.113	-6.31
865.287	85.84
865.461	-65.71
865.634	34.64
865.808	-90.28
865.982	-125.1
866.156	-104.62
866.329	-80.04
866.503	-59.56
866.676	42.84
866.85	48.98
867.024	-104.62
867.197	24.4
867.371	42.84
867.544	-6.31
867.718	-49.32
867.891	130.9
868.065	-59.56
868.238	-63.66
868.412	71.51
868.585	26.45
868.759	-55.47
868.932	-69.8
869.105	-143.53
869.279	24.4
869.452	-8.36
869.625	8.02
869.799	-51.37
869.972	-92.33
870.145	-28.84
870.319	26.45
870.492	-14.51
870.665	-98.47
870.838	-43.18
871.011	-84.14
871.185	-96.43
871.358	-53.42
871.531	20.31
871.704	34.64
871.877	26.45
872.05	-32.94
872.223	-94.38
872.396	-8.36
872.569	34.64
872.742	-129.19
872.915	10.07
873.088	-47.27
873.261	-39.08
873.434	12.12
873.607	-0.17
873.78	44.88
873.953	-82.09
874.126	-49.32
874.299	-0.17
874.471	-59.56
874.644	-65.71
874.817	67.41
874.99	135
875.163	16.21
875.335	67.41
875.508	-45.23
875.681	42.84
875.853	-37.03
876.026	24.4
876.199	63.32
876.371	-16.55
876.544	-30.89
876.717	8.02
876.889	26.45
877.062	-8.36
877.234	-24.75
877.407	-2.22
877.579	8.02
877.752	-26.79
877.924	-18.6
878.097	46.93
878.269	8.02
878.442	-14.51
878.614	-67.75
878.786	44.88
878.959	24.4
879.131	-84.14
879.303	-57.51
879.476	-59.56
879.648	28.5
879.82	-8.36
879.993	-129.19
880.165	-59.56
880.337	-73.9
880.509	-2.22
880.681	-73.9
880.854	-121
881.026	161.62
881.198	89.94
881.37	-32.94
881.542	8.02
881.714	20.31
881.886	-34.99
882.058	-67.75
882.23	-88.23
882.402	16.21
882.574	-43.18
882.746	-30.89
882.918	59.22
883.09	51.03
883.262	-20.65
883.434	-14.51
883.606	-164.01
883.778	-8.36
883.95	71.51
884.122	-39.08
884.293	75.6
884.465	-24.75
884.637	34.64
884.809	-67.75
884.98	-2.22
885.152	75.6
885.324	5.97
885.496	-22.7
885.667	-8.36
885.839	-53.42
886.011	59.22
886.182	-34.99
886.354	30.55
886.525	18.26
886.697	-73.9
886.869	-43.18
887.04	-77.99
887.212	22.36
887.383	12.12
887.555	46.93
887.726	-18.6
887.897	-57.51
888.069	-59.56
888.24	67.41
888.412	-20.65
888.583	10.07
888.754	18.26
888.926	-104.62
889.097	-73.9
889.268	-112.81
889.44	51.03
889.611	-112.81
889.782	-77.99
889.953	-55.47
890.125	98.13
890.296	-80.04
890.467	-71.85
890.638	3.93
890.809	46.93
890.98	-59.56
891.151	51.03
891.323	38.74
891.494	-18.6
891.665	-14.51
891.836	16.21
892.007	-41.13
892.178	83.8
892.349	-75.95
892.52	-88.23
892.691	-92.33
892.862	-43.18
893.032	-192.68
893.203	-112.81
893.374	-18.6
893.545	14.17
893.716	-6.31
893.887	59.22
894.057	-47.27
894.228	-114.86
894.399	-49.32
894.57	73.56
894.74	-0.17
894.911	-18.6
895.082	-26.79
895.253	-88.23
895.423	-16.55
895.594	87.89
895.764	32.6
895.935	-71.85
896.106	26.45
896.276	-26.79
896.447	-71.85
896.617	-127.14
896.788	-106.67
896.958	-69.8
897.129	-112.81
897.299	-84.14
897.47	67.41
897.64	75.6
897.81	-16.55
897.981	24.4
898.151	8.02
898.322	-10.41
898.492	-8.36
898.662	-102.57
898.832	-22.7
899.003	-88.23
899.173	61.27
899.343	-8.36
899.513	-61.61
