Data from USB4F104151__115__10-36-30-022.txt Node

Date: Wed Feb 26 10:36:30 EST 2025
User: louis
Spectrometer: USB4F10415
Trigger mode: 4
Integration Time (sec): 1.000000E-1
Scans to average: 1
Electric dark correction enabled: true
Nonlinearity correction enabled: false
Boxcar width: 0
XAxis mode: Wavelengths
Number of Pixels in Spectrum: 3648
>>>>>Begin Spectral Data<<<<<
178.204	-337.4
178.424	-337.4
178.644	-337.4
178.864	-396.79
179.084	-386.55
179.304	33.28
179.524	-7.68
179.744	2.56
179.964	-24.06
180.184	35.33
180.404	-11.78
180.624	-5.63
180.844	-13.82
181.064	-62.98
181.283	27.14
181.503	-17.92
181.723	45.57
181.943	-3.58
182.163	174.59
182.383	43.52
182.602	45.57
182.822	154.11
183.042	53.76
183.262	-22.02
183.482	-15.87
183.701	55.81
183.921	-15.87
184.141	20.99
184.361	25.09
184.58	115.2
184.8	86.53
185.02	59.9
185.239	125.44
185.459	33.28
185.679	156.16
185.898	-79.36
186.118	37.38
186.338	80.38
186.557	193.02
186.777	-44.54
186.997	90.62
187.216	41.47
187.436	207.36
187.655	59.9
187.875	33.28
188.095	61.95
188.314	182.78
188.534	147.97
188.753	-46.59
188.973	150.01
189.192	86.53
189.412	33.28
189.631	14.85
189.851	29.18
190.07	115.2
190.29	6.66
190.509	2.56
190.729	43.52
190.948	121.34
191.168	299.52
191.387	84.48
191.607	39.42
191.826	18.94
192.045	86.53
192.265	6.66
192.484	70.14
192.704	-40.45
192.923	-32.26
193.142	156.16
193.362	55.81
193.581	180.73
193.8	86.53
194.02	76.29
194.239	29.18
194.458	76.29
194.678	125.44
194.897	57.86
195.116	57.86
195.335	127.49
195.555	88.57
195.774	27.14
195.993	174.59
196.212	49.66
196.432	45.57
196.651	-7.68
196.87	29.18
197.089	236.03
197.308	117.25
197.528	47.62
197.747	-46.59
197.966	55.81
198.185	193.02
198.404	66.05
198.623	150.01
198.842	123.39
199.062	113.15
199.281	119.29
199.5	96.77
199.719	102.91
199.938	125.44
200.157	111.1
200.376	111.1
200.595	94.72
200.814	61.95
201.033	20.99
201.252	176.64
201.471	66.05
201.69	143.87
201.909	70.14
202.128	49.66
202.347	14.85
202.566	-5.63
202.785	-97.79
203.004	-108.03
203.223	309.76
203.442	57.86
203.661	14.85
203.879	88.57
204.098	137.73
204.317	41.47
204.536	133.63
204.755	80.38
204.974	96.77
205.193	53.76
205.411	131.58
205.63	168.45
205.849	152.06
206.068	53.76
206.287	2.56
206.505	170.49
206.724	86.53
206.943	66.05
207.162	20.99
207.381	113.15
207.599	31.23
207.818	55.81
208.037	-13.82
208.255	80.38
208.474	68.09
208.693	133.63
208.911	57.86
209.13	168.45
209.349	113.15
209.567	102.91
209.786	147.97
210.005	76.29
210.223	-13.82
210.442	-93.69
210.661	59.9
210.879	14.85
211.098	113.15
211.316	64
211.535	61.95
211.753	27.14
211.972	111.1
212.191	35.33
212.409	-1.54
212.628	94.72
212.846	64
213.065	57.86
213.283	119.29
213.502	33.28
213.72	10.75
213.938	-22.02
214.157	39.42
214.375	170.49
214.594	68.09
214.812	57.86
215.031	25.09
215.249	37.38
215.467	117.25
215.686	6.66
215.904	86.53
216.122	78.33
216.341	184.83
216.559	31.23
216.778	203.26
216.996	182.78
217.214	12.8
217.432	45.57
217.651	-71.17
217.869	127.49
218.087	31.23
218.306	90.62
218.524	72.19
218.742	-30.21
218.96	78.33
219.179	-77.31
219.397	86.53
219.615	170.49
219.833	55.81
220.051	43.52
220.27	45.57
220.488	178.69
220.706	94.72
220.924	31.23
221.142	-19.97
221.36	150.01
221.578	29.18
221.796	72.19
222.015	70.14
222.233	90.62
222.451	158.21
222.669	-50.69
222.887	119.29
223.105	84.48
223.323	57.86
223.541	-36.35
223.759	0.51
223.977	39.42
224.195	123.39
224.413	92.67
224.631	76.29
224.849	51.71
225.067	246.27
225.285	53.76
225.503	-54.78
225.721	-32.26
225.939	100.86
226.157	37.38
226.375	217.6
226.592	-3.58
226.81	84.48
227.028	154.11
227.246	154.11
227.464	66.05
227.682	141.82
227.9	74.24
228.117	123.39
228.335	180.73
228.553	61.95
228.771	86.53
228.989	121.34
229.206	41.47
229.424	-3.58
229.642	107.01
229.86	33.28
230.077	104.96
230.295	31.23
230.513	66.05
230.731	104.96
230.948	190.97
231.166	168.45
231.384	64
231.601	-46.59
231.819	168.45
232.037	0.51
232.254	-71.17
232.472	201.21
232.689	43.52
232.907	145.92
233.125	39.42
233.342	-9.73
233.56	53.76
233.777	61.95
233.995	43.52
234.213	72.19
234.43	92.67
234.648	25.09
234.865	20.99
235.083	66.05
235.3	117.25
235.518	117.25
235.735	117.25
235.953	45.57
236.17	-40.45
236.388	102.91
236.605	102.91
236.822	154.11
237.04	135.68
237.257	123.39
237.475	-5.63
237.692	39.42
237.909	53.76
238.127	-38.4
238.344	64
238.562	70.14
238.779	-26.11
238.996	57.86
239.214	57.86
239.431	109.05
239.648	16.9
239.865	133.63
240.083	107.01
240.3	14.85
240.517	-32.26
240.735	158.21
240.952	193.02
241.169	80.38
241.386	135.68
241.603	64
241.821	-26.11
242.038	80.38
242.255	166.4
242.472	-1.54
242.689	59.9
242.907	96.77
243.124	90.62
243.341	20.99
243.558	80.38
243.775	-19.97
243.992	47.62
244.209	121.34
244.426	158.21
244.643	84.48
244.86	20.99
245.078	131.58
245.295	25.09
245.512	43.52
245.729	49.66
245.946	53.76
246.163	2.56
246.38	39.42
246.597	-36.35
246.814	129.53
247.031	31.23
247.248	68.09
247.464	66.05
247.681	-32.26
247.898	90.62
248.115	129.53
248.332	-56.83
248.549	147.97
248.766	209.4
248.983	23.04
249.2	100.86
249.417	102.91
249.633	55.81
249.85	39.42
250.067	94.72
250.284	25.09
250.501	-13.82
250.717	86.53
250.934	-69.12
251.151	-5.63
251.368	49.66
251.585	49.66
251.801	23.04
252.018	-75.26
252.235	84.48
252.451	10.75
252.668	70.14
252.885	119.29
253.102	57.86
253.318	98.81
253.535	20.99
253.752	35.33
253.968	33.28
254.185	-26.11
254.401	-1.54
254.618	98.81
254.835	-38.4
255.051	178.69
255.268	55.81
255.484	90.62
255.701	92.67
255.917	119.29
256.134	-15.87
256.351	80.38
256.567	-60.93
256.784	27.14
257	-71.17
257.217	186.88
257.433	96.77
257.65	86.53
257.866	113.15
258.082	-11.78
258.299	41.47
258.515	20.99
258.732	31.23
258.948	20.99
259.165	64
259.381	12.8
259.597	117.25
259.814	61.95
260.03	10.75
260.246	61.95
260.463	119.29
260.679	49.66
260.895	-17.92
261.112	86.53
261.328	35.33
261.544	-19.97
261.761	244.22
261.977	43.52
262.193	-36.35
262.409	104.96
262.626	37.38
262.842	90.62
263.058	23.04
263.274	102.91
263.49	23.04
263.707	68.09
263.923	139.77
264.139	27.14
264.355	20.99
264.571	86.53
264.787	111.1
265.004	47.62
265.22	53.76
265.436	29.18
265.652	43.52
265.868	35.33
266.084	-46.59
266.3	2.56
266.516	37.38
266.732	61.95
266.948	59.9
267.164	53.76
267.38	115.2
267.596	92.67
267.812	205.31
268.028	78.33
268.244	61.95
268.46	70.14
268.676	88.57
268.892	64
269.108	-58.88
269.324	12.8
269.54	-54.78
269.756	174.59
269.972	-26.11
270.188	49.66
270.403	-75.26
270.619	27.14
270.835	43.52
271.051	59.9
271.267	-7.68
271.483	119.29
271.698	109.05
271.914	86.53
272.13	86.53
272.346	68.09
272.562	76.29
272.777	137.73
272.993	47.62
273.209	76.29
273.425	104.96
273.64	-34.3
273.856	160.25
274.072	45.57
274.287	-28.16
274.503	129.53
274.719	33.28
274.934	72.19
275.15	-46.59
275.366	-9.73
275.581	-26.11
275.797	59.9
276.012	25.09
276.228	6.66
276.444	0.51
276.659	92.67
276.875	-7.68
277.09	96.77
277.306	-22.02
277.521	43.52
277.737	37.38
277.952	27.14
278.168	117.25
278.383	68.09
278.599	70.14
278.814	68.09
279.03	-13.82
279.245	197.12
279.461	86.53
279.676	102.91
279.892	-7.68
280.107	-48.64
280.322	27.14
280.538	59.9
280.753	-17.92
280.969	70.14
281.184	55.81
281.399	111.1
281.615	111.1
281.83	127.49
282.045	-11.78
282.26	37.38
282.476	102.91
282.691	113.15
282.906	78.33
283.122	-13.82
283.337	-73.21
283.552	90.62
283.767	33.28
283.983	111.1
284.198	129.53
284.413	111.1
284.628	-77.31
284.843	41.47
285.058	90.62
285.274	-38.4
285.489	-62.98
285.704	96.77
285.919	12.8
286.134	45.57
286.349	29.18
286.564	94.72
286.779	117.25
286.995	-28.16
287.21	-44.54
287.425	137.73
287.64	29.18
287.855	37.38
288.07	2.56
288.285	92.67
288.5	96.77
288.715	131.58
288.93	41.47
289.145	-52.74
289.36	150.01
289.575	-54.78
289.79	221.69
290.004	6.66
290.219	107.01
290.434	31.23
290.649	10.75
290.864	14.85
291.079	59.9
291.294	176.64
291.509	90.62
291.724	31.23
291.938	70.14
292.153	94.72
292.368	4.61
292.583	129.53
292.798	64
293.012	57.86
293.227	43.52
293.442	-48.64
293.657	47.62
293.871	143.87
294.086	33.28
294.301	129.53
294.516	238.08
294.73	53.76
294.945	-32.26
295.16	-15.87
295.374	172.54
295.589	127.49
295.804	-24.06
296.018	6.66
296.233	72.19
296.447	135.68
296.662	-48.64
296.877	174.59
297.091	86.53
297.306	37.38
297.52	25.09
297.735	96.77
297.949	39.42
298.164	-9.73
298.378	41.47
298.593	4.61
298.807	90.62
299.022	82.43
299.236	248.32
299.451	10.75
299.665	41.47
299.88	31.23
300.094	49.66
300.309	12.8
300.523	72.19
300.737	31.23
300.952	100.86
301.166	88.57
301.381	-34.3
301.595	16.9
301.809	115.2
302.024	72.19
302.238	6.66
302.452	145.92
302.667	-24.06
302.881	201.21
303.095	98.81
303.309	49.66
303.524	-34.3
303.738	-13.82
303.952	23.04
304.166	51.71
304.381	-120.32
304.595	156.16
304.809	45.57
305.023	29.18
305.237	12.8
305.452	18.94
305.666	70.14
305.88	82.43
306.094	55.81
306.308	55.81
306.522	133.63
306.736	68.09
306.95	72.19
307.164	2.56
307.379	27.14
307.593	164.35
307.807	176.64
308.021	64
308.235	76.29
308.449	-13.82
308.663	-5.63
308.877	254.46
309.091	121.34
309.305	96.77
309.519	-93.69
309.733	115.2
309.947	-126.46
310.161	59.9
310.374	166.4
310.588	82.43
310.802	-11.78
311.016	31.23
311.23	68.09
311.444	-30.21
311.658	2.56
311.872	98.81
312.085	168.45
312.299	178.69
312.513	111.1
312.727	64
312.941	-24.06
313.154	178.69
313.368	80.38
313.582	-15.87
313.796	43.52
314.009	51.71
314.223	117.25
314.437	68.09
314.651	111.1
314.864	33.28
315.078	80.38
315.292	0.51
315.505	41.47
315.719	117.25
315.933	57.86
316.146	4.61
316.36	-3.58
316.573	141.82
316.787	45.57
317.001	96.77
317.214	10.75
317.428	160.25
317.641	-24.06
317.855	74.24
318.068	47.62
318.282	84.48
318.495	186.88
318.709	80.38
318.922	31.23
319.136	186.88
319.349	190.97
319.563	0.51
319.776	117.25
319.99	-48.64
320.203	121.34
320.417	147.97
320.63	82.43
320.843	197.12
321.057	113.15
321.27	39.42
321.483	127.49
321.697	182.78
321.91	64
322.124	80.38
322.337	29.18
322.55	-9.73
322.763	35.33
322.977	55.81
323.19	18.94
323.403	125.44
323.617	49.66
323.83	104.96
324.043	39.42
324.256	88.57
324.469	-75.26
324.683	133.63
324.896	45.57
325.109	78.33
325.322	-9.73
325.535	94.72
325.748	59.9
325.962	45.57
326.175	100.86
326.388	137.73
326.601	160.25
326.814	23.04
327.027	41.47
327.24	145.92
327.453	-1.54
327.666	102.91
327.879	186.88
328.092	92.67
328.305	84.48
328.518	33.28
328.731	25.09
328.944	29.18
329.157	125.44
329.37	25.09
329.583	229.88
329.796	64
330.009	-5.63
330.222	125.44
330.435	123.39
330.648	59.9
330.861	113.15
331.073	221.69
331.286	109.05
331.499	92.67
331.712	14.85
331.925	23.04
332.138	18.94
332.35	107.01
332.563	29.18
332.776	168.45
332.989	-5.63
333.202	-34.3
333.414	74.24
333.627	47.62
333.84	29.18
334.053	150.01
334.265	64
334.478	-1.54
334.691	123.39
334.903	-17.92
335.116	55.81
335.329	47.62
335.541	70.14
335.754	217.6
335.966	-3.58
336.179	-3.58
336.392	-7.68
336.604	-5.63
336.817	109.05
337.029	102.91
337.242	-7.68
337.454	143.87
337.667	27.14
337.88	209.4
338.092	174.59
338.305	61.95
338.517	-13.82
338.729	135.68
338.942	213.5
339.154	45.57
339.367	41.47
339.579	66.05
339.792	-19.97
340.004	131.58
340.217	29.18
340.429	-11.78
340.641	-3.58
340.854	8.7
341.066	49.66
341.278	166.4
341.491	166.4
341.703	66.05
341.915	-46.59
342.128	123.39
342.34	8.7
342.552	18.94
342.764	23.04
342.977	4.61
343.189	41.47
343.401	47.62
343.613	-22.02
343.826	59.9
344.038	51.71
344.25	156.16
344.462	78.33
344.674	14.85
344.886	20.99
345.099	115.2
345.311	78.33
345.523	74.24
345.735	-11.78
345.947	66.05
346.159	59.9
346.371	68.09
346.583	47.62
346.795	221.69
347.007	41.47
347.219	115.2
347.431	59.9
347.643	162.3
347.855	-32.26
348.067	59.9
348.279	-36.35
348.491	66.05
348.703	90.62
348.915	35.33
349.127	4.61
349.339	20.99
349.551	-7.68
349.763	43.52
349.975	96.77
350.187	135.68
350.399	145.92
350.61	64
350.822	18.94
351.034	78.33
351.246	115.2
351.458	6.66
351.669	72.19
351.881	131.58
352.093	94.72
352.305	162.3
352.517	45.57
352.728	135.68
352.94	55.81
353.152	96.77
353.363	12.8
353.575	35.33
353.787	195.07
353.999	2.56
354.21	174.59
354.422	-5.63
354.633	84.48
354.845	-24.06
355.057	115.2
355.268	84.48
355.48	92.67
355.692	-118.27
355.903	141.82
356.115	-30.21
356.326	-155.13
356.538	184.83
356.749	92.67
356.961	143.87
357.172	57.86
357.384	12.8
357.595	236.03
357.807	109.05
358.018	-15.87
358.23	96.77
358.441	125.44
358.653	72.19
358.864	16.9
359.075	12.8
359.287	86.53
359.498	100.86
359.709	117.25
359.921	100.86
360.132	74.24
360.344	37.38
360.555	-3.58
360.766	59.9
360.977	61.95
361.189	90.62
361.4	117.25
361.611	123.39
361.823	102.91
362.034	158.21
362.245	-40.45
362.456	-36.35
362.667	107.01
362.879	-56.83
363.09	29.18
363.301	55.81
363.512	145.92
363.723	18.94
363.935	4.61
364.146	80.38
364.357	31.23
364.568	113.15
364.779	16.9
364.99	186.88
365.201	33.28
365.412	160.25
365.623	18.94
365.834	61.95
366.045	78.33
366.256	98.81
366.467	102.91
366.678	-22.02
366.889	102.91
367.1	20.99
367.311	244.22
367.522	4.61
367.733	35.33
367.944	53.76
368.155	70.14
368.366	61.95
368.577	117.25
368.788	186.88
368.999	51.71
369.209	8.7
369.42	197.12
369.631	215.55
369.842	102.91
370.053	76.29
370.264	102.91
370.474	2.56
370.685	92.67
370.896	53.76
371.107	100.86
371.317	182.78
371.528	66.05
371.739	123.39
371.95	117.25
372.16	66.05
372.371	-87.55
372.582	12.8
372.792	80.38
373.003	86.53
373.214	92.67
373.424	74.24
373.635	23.04
373.846	178.69
374.056	68.09
374.267	0.51
374.477	133.63
374.688	0.51
374.898	49.66
375.109	57.86
375.319	92.67
375.53	170.49
375.74	145.92
375.951	14.85
376.161	96.77
376.372	168.45
376.582	27.14
376.793	113.15
377.003	45.57
377.214	31.23
377.424	98.81
377.635	59.9
377.845	4.61
378.055	113.15
378.266	-3.58
378.476	37.38
378.686	119.29
378.897	68.09
379.107	125.44
379.317	223.74
379.528	33.28
379.738	74.24
379.948	-83.45
380.158	76.29
380.369	86.53
380.579	115.2
380.789	64
380.999	152.06
381.21	102.91
381.42	211.45
381.63	51.71
381.84	109.05
382.05	143.87
382.261	117.25
382.471	182.78
382.681	-17.92
382.891	231.93
383.101	35.33
383.311	-22.02
383.521	-7.68
383.731	72.19
383.941	94.72
384.151	104.96
384.361	88.57
384.571	100.86
384.781	74.24
384.991	160.25
385.201	164.35
385.411	113.15
385.621	96.77
385.831	61.95
386.041	127.49
386.251	45.57
386.461	78.33
386.671	20.99
386.881	117.25
387.091	96.77
387.301	98.81
387.511	23.04
387.72	129.53
387.93	41.47
388.14	-85.5
388.35	111.1
388.56	102.91
388.769	162.3
388.979	41.47
389.189	-7.68
389.399	41.47
389.609	102.91
389.818	102.91
390.028	141.82
390.238	51.71
390.447	-30.21
390.657	49.66
390.867	29.18
391.076	53.76
391.286	129.53
391.496	86.53
391.705	25.09
391.915	156.16
392.125	147.97
392.334	80.38
392.544	84.48
392.753	-1.54
392.963	-13.82
393.172	68.09
393.382	12.8
393.591	250.36
393.801	-42.5
394.01	272.89
394.22	131.58
394.429	90.62
394.639	88.57
394.848	94.72
395.058	92.67
395.267	29.18
395.477	176.64
395.686	39.42
395.895	217.6
396.105	299.52
396.314	74.24
396.524	57.86
396.733	88.57
396.942	178.69
397.152	96.77
397.361	72.19
397.57	4.61
397.78	0.51
397.989	45.57
398.198	197.12
398.407	31.23
398.617	129.53
398.826	20.99
399.035	72.19
399.244	129.53
399.453	117.25
399.663	98.81
399.872	127.49
400.081	-5.63
400.29	158.21
400.499	-93.69
400.708	135.68
400.917	78.33
401.127	74.24
401.336	10.75
401.545	225.79
401.754	207.36
401.963	90.62
402.172	33.28
402.381	4.61
402.59	-17.92
402.799	80.38
403.008	125.44
403.217	90.62
403.426	86.53
403.635	-7.68
403.844	84.48
404.053	-13.82
404.262	25.09
404.471	264.7
404.68	121.34
404.888	88.57
405.097	72.19
405.306	119.29
405.515	57.86
405.724	16.9
405.933	131.58
406.142	141.82
406.35	172.54
406.559	43.52
406.768	127.49
406.977	168.45
407.185	74.24
407.394	129.53
407.603	41.47
407.812	96.77
408.02	160.25
408.229	29.18
408.438	86.53
408.646	-15.87
408.855	55.81
409.064	64
409.272	41.47
409.481	143.87
409.69	4.61
409.898	78.33
410.107	141.82
410.315	129.53
410.524	82.43
410.733	2.56
410.941	74.24
411.15	90.62
411.358	125.44
411.567	193.02
411.775	-17.92
411.984	74.24
412.192	68.09
412.401	45.57
412.609	152.06
412.818	139.77
413.026	115.2
413.234	39.42
413.443	45.57
413.651	33.28
413.86	6.66
414.068	195.07
414.276	201.21
414.485	47.62
414.693	178.69
414.901	190.97
415.11	84.48
415.318	59.9
415.526	20.99
415.734	45.57
415.943	111.1
416.151	219.64
416.359	70.14
416.567	109.05
416.776	84.48
416.984	129.53
417.192	160.25
417.4	-69.12
417.608	23.04
417.817	61.95
418.025	131.58
418.233	164.35
418.441	-17.92
418.649	4.61
418.857	88.57
419.065	104.96
419.273	66.05
419.481	94.72
419.689	57.86
419.897	-40.45
420.105	-34.3
420.313	135.68
420.521	158.21
420.729	190.97
420.937	0.51
421.145	20.99
421.353	94.72
421.561	215.55
421.769	127.49
421.977	86.53
422.185	102.91
422.393	41.47
422.601	203.26
422.809	78.33
423.017	92.67
423.224	109.05
423.432	162.3
423.64	20.99
423.848	174.59
424.056	61.95
424.263	180.73
424.471	104.96
424.679	145.92
424.887	-32.26
425.094	117.25
425.302	197.12
425.51	72.19
425.718	113.15
425.925	76.29
426.133	53.76
426.341	233.98
426.548	102.91
426.756	49.66
426.964	135.68
427.171	145.92
427.379	12.8
427.586	104.96
427.794	92.67
428.001	279.04
428.209	113.15
428.417	174.59
428.624	90.62
428.832	246.27
429.039	141.82
429.247	82.43
429.454	133.63
429.662	250.36
429.869	182.78
430.076	176.64
430.284	125.44
430.491	276.99
430.699	162.3
430.906	252.41
431.114	164.35
431.321	182.78
431.528	229.88
431.736	258.56
431.943	188.93
432.15	227.84
432.358	266.75
432.565	365.05
432.772	102.91
432.979	328.19
433.187	51.71
433.394	279.04
433.601	190.97
433.808	270.84
434.016	328.19
434.223	229.88
434.43	258.56
434.637	324.09
434.844	297.47
435.052	332.28
435.259	322.04
435.466	344.57
435.673	346.62
435.88	406.01
436.087	449.02
436.294	436.73
436.501	444.92
436.708	389.63
436.915	422.39
437.122	530.94
437.329	381.43
437.537	365.05
437.743	467.45
437.95	512.5
438.157	518.65
438.364	530.94
438.571	512.5
438.778	657.91
438.985	604.66
439.192	584.18
439.399	567.8
439.606	645.62
439.813	702.97
440.02	752.12
440.227	821.75
440.433	752.12
440.64	809.46
440.847	745.97
441.054	752.12
441.261	952.82
441.467	977.39
441.674	834.04
441.881	1026.54
442.088	899.57
442.294	940.53
442.501	1018.35
442.708	1073.65
442.914	1042.93
443.121	1157.61
443.328	1135.09
443.534	1243.63
443.741	1282.54
443.948	1077.74
444.154	1380.84
444.361	1497.58
444.568	1391.08
444.774	1382.89
444.981	1444.33
445.187	1692.13
445.394	1655.27
445.6	1511.91
445.807	1819.11
446.013	1636.84
446.22	1681.89
446.426	1884.64
446.633	1950.18
446.839	2142.69
447.046	1976.8
447.252	2245.09
447.459	2216.41
447.665	2144.74
447.871	2353.63
448.078	2572.76
448.284	2535.9
448.491	2695.64
448.697	2755.03
448.903	2922.96
449.11	2959.83
449.316	3111.38
449.522	3203.54
449.728	3281.36
449.935	3461.58
450.141	3463.63
450.347	3533.26
450.553	3580.36
450.76	3715.53
450.966	3920.32
451.172	3998.15
451.378	4356.54
451.584	4325.82
451.791	4481.47
451.997	4766.14
452.203	4706.74
452.409	5077.43
452.615	5278.13
452.821	5140.91
453.027	5140.91
453.233	5843.37
453.44	5757.35
453.646	5927.33
453.852	6418.85
454.058	6529.44
454.264	6695.32
454.47	7154.07
454.676	7311.76
454.882	7852.42
455.088	7596.43
455.294	8065.41
455.5	8259.97
455.705	8851.83
455.911	8741.24
456.117	9019.77
456.323	9546.09
456.529	9462.13
456.735	10156.39
456.941	10631.52
457.147	10864.99
457.352	11223.38
457.558	11501.9
457.764	12095.82
457.97	12720.45
458.176	13080.89
458.381	13705.52
458.587	13719.85
458.793	14739.74
458.999	14686.5
459.204	16484.61
459.41	16916.73
459.616	16703.75
459.821	17780.98
460.027	18546.92
460.233	19343.58
460.438	19507.41
460.644	20687.04
460.85	20756.68
461.055	21547.19
461.261	22692.01
461.466	22024.37
461.672	22517.93
461.878	25299.07
462.083	24893.57
462.289	25536.63
462.494	26384.49
462.7	26763.37
462.905	27250.78
463.111	29452.35
463.316	30644.27
463.522	31103.01
463.727	32088.09
463.932	33257.48
464.138	34332.66
464.343	36261.85
464.549	36134.87
464.754	38565.81
464.959	39616.42
465.165	40439.7
465.37	40128.41
465.575	39778.21
465.781	42471.29
465.986	43738.98
466.191	43253.61
466.397	43511.66
466.602	42448.76
466.807	44889.94
467.012	45856.58
467.218	46266.17
467.423	46640.95
467.628	47714.09
467.833	50093.83
468.038	49311.5
468.244	48308
468.449	50775.8
468.654	49977.09
468.859	49563.4
469.064	50095.88
469.269	48690.97
469.474	48711.45
469.679	50558.72
469.885	49020.69
470.09	49884.93
470.295	50188.03
470.5	48873.24
470.705	49176.34
470.91	47820.58
471.115	47415.08
471.32	48129.83
471.525	47755.05
471.73	46778.17
471.935	46171.97
472.139	44597.08
472.344	44367.71
472.549	44515.16
472.754	43452.26
472.959	42565.49
473.164	41144.2
473.369	40892.3
473.574	41836.42
473.778	40542.1
473.983	39989.15
474.188	39845.79
474.393	37687.23
474.598	37427.14
474.802	36741.07
475.007	36368.34
475.212	35954.65
475.417	34265.08
475.621	34179.06
475.826	33779.71
476.031	32985.1
476.235	32266.26
476.44	32337.94
476.645	31612.96
476.849	31305.76
477.054	30556.21
477.259	30271.54
477.463	29794.36
477.668	29317.18
477.872	29050.95
478.077	28309.58
478.282	27299.94
478.486	27621.47
478.691	27224.16
478.895	26884.2
479.1	26642.54
479.304	26443.88
479.509	25608.31
479.713	26093.68
479.918	25487.48
480.122	24907.91
480.326	25200.77
480.531	24899.72
480.735	24830.09
480.94	24449.16
481.144	25077.89
481.348	23840.92
481.553	23781.53
481.757	23244.96
481.961	23367.84
482.166	23763.09
482.37	23249.05
482.574	22915.23
482.778	22642.85
482.983	23003.3
483.187	22624.42
483.391	22517.93
483.595	22147.25
483.8	21831.86
484.004	21653.69
484.208	21962.93
484.412	21428.41
484.616	21127.36
484.821	21057.73
485.025	20349.13
485.229	20644.04
485.433	20398.28
485.637	20058.32
485.841	19828.95
486.045	19362.01
486.249	19106.01
486.453	18921.7
486.657	18684.13
486.861	18397.42
487.065	17889.52
487.269	17895.66
487.473	17352.95
487.677	17492.21
487.881	17299.7
488.085	16869.63
488.289	16623.87
488.493	16599.3
488.697	16132.36
488.901	15868.17
489.105	15456.53
489.309	15268.12
489.512	14938.4
489.716	14827.81
489.92	14354.72
490.124	14178.6
490.328	14178.6
490.531	13549.87
490.735	13588.78
490.939	13214.01
491.143	12962.11
491.346	12790.08
491.55	12869.95
491.754	12435.78
491.958	12415.3
492.161	12095.82
492.365	11833.68
492.569	11546.96
492.772	11723.09
492.976	11506
493.18	11114.84
493.383	11178.33
493.587	11057.5
493.79	11010.39
493.994	10514.78
494.197	10522.98
494.401	10664.29
494.605	10223.97
494.808	10486.11
495.012	10355.04
495.215	10363.23
495.419	10269.03
495.622	10135.91
495.825	9898.34
496.029	9888.11
496.232	9906.54
496.436	9877.87
496.639	9931.11
496.843	9648.49
497.046	9853.29
497.249	10084.71
497.453	10053.99
497.656	9595.25
497.859	9687.4
498.063	9972.07
498.266	10201.44
498.469	9814.38
498.673	9912.68
498.876	9963.88
499.079	10152.29
499.282	9777.51
499.485	10500.45
499.689	10205.54
499.892	10301.79
500.095	10236.26
500.298	10623.33
500.501	10402.15
500.705	10568.03
500.908	10772.83
501.111	10699.1
501.314	10998.1
501.517	10905.95
501.72	10826.07
501.923	10875.23
502.126	11207
502.329	11438.42
502.532	11233.62
502.735	11338.07
502.938	12138.82
503.141	11835.72
503.344	11878.73
503.547	12026.18
503.75	12216.65
503.953	12405.06
504.156	12724.54
504.359	12790.08
504.562	12998.97
504.765	13343.03
504.968	13336.88
505.17	13441.33
505.373	13832.49
505.576	14201.13
505.779	14170.41
505.982	14354.72
506.185	14618.91
506.387	14661.92
506.59	14977.31
506.793	15405.33
506.996	15733.01
507.198	16208.14
507.401	16320.77
507.604	16396.55
507.807	16740.61
508.009	17314.04
508.212	17662.19
508.415	17832.18
508.617	17932.53
508.82	18450.66
509.022	18540.77
509.225	19329.24
509.428	19765.46
509.63	19779.79
509.833	20385.99
510.035	21119.17
510.238	21153.98
510.44	21786.8
510.643	22210.73
510.845	22767.78
511.048	23120.03
511.25	23531.67
511.453	24154.26
511.655	25032.83
511.858	25026.69
512.06	25690.23
512.262	26146.93
512.465	26388.59
512.667	27385.95
512.87	27742.3
513.072	28188.75
513.274	29177.92
513.477	29810.75
513.679	30367.79
513.881	31268.9
514.084	31512.61
514.286	32086.04
514.488	32882.7
514.69	34385.91
514.893	34344.95
515.095	34791.41
515.297	35747.81
515.499	36450.26
515.701	37273.54
515.904	38043.58
516.106	38582.2
516.308	39272.36
516.51	40441.75
516.712	40578.96
516.914	41600.9
517.116	42739.57
517.318	42880.88
517.52	43808.61
517.722	44400.47
517.925	45352.78
518.127	46585.66
518.329	47066.93
518.531	46903.09
518.733	48561.95
518.935	48316.19
519.136	48996.12
519.338	50321.15
519.54	50487.04
519.742	51535.6
519.944	52109.03
520.146	53139.16
520.348	53618.38
520.55	54148.81
520.752	54474.43
520.954	55529.14
521.155	55815.85
521.357	56207.01
521.559	57550.48
521.761	57984.65
521.963	57990.8
522.164	58787.45
522.366	58715.78
522.568	59553.4
522.77	59743.86
522.971	60411.49
523.173	60264.04
523.375	60878.43
523.576	61017.69
523.778	60870.24
523.98	61455.96
524.181	61630.04
524.383	61746.77
524.584	62322.25
524.786	61965.9
524.988	61865.55
525.189	62117.45
525.391	62398.02
525.592	62205.51
525.794	62348.87
525.995	62058.06
526.197	61722.19
526.398	62209.61
526.6	61779.54
526.801	61929.04
527.003	61765.2
527.204	61759.06
527.406	61705.81
527.607	61095.52
527.808	61156.95
528.01	59463.28
528.211	60135.02
528.412	60378.73
528.614	59940.46
528.815	59338.36
529.016	59174.52
529.218	58068.62
529.419	57960.08
529.62	57446.04
529.822	56665.76
530.023	56127.14
530.224	55924.39
530.425	55242.42
530.626	54808.25
530.828	53610.19
531.029	54240.96
531.23	53282.51
531.431	52326.11
531.632	52160.23
531.833	51289.84
532.035	51015.41
532.236	50472.7
532.437	49899.27
532.638	48901.91
532.839	48922.39
533.04	48459.55
533.241	46890.8
533.442	47071.03
533.643	46159.68
533.844	45510.47
534.045	45289.29
534.246	43917.15
534.447	43937.63
534.648	43063.15
534.849	42364.79
535.05	41860.99
535.251	41672.58
535.451	40927.12
535.652	40738.71
535.853	39833.5
536.054	39573.41
536.255	38768.56
536.456	38205.37
536.657	38068.16
536.857	37425.09
537.058	36599.76
537.259	36456.4
537.46	35796.96
537.66	35588.06
537.861	35057.64
538.062	34582.51
538.263	33978.36
538.463	33249.28
538.664	33118.21
538.865	32649.23
539.065	32458.77
539.266	31862.81
539.466	31707.16
539.667	30781.48
539.868	31084.58
540.068	30251.06
540.269	29937.72
540.469	30093.36
540.67	29311.04
540.87	28860.49
541.071	28344.4
541.271	28833.86
541.472	28250.19
541.672	27600.99
541.873	27369.57
542.073	26706.02
542.274	26738.79
542.474	26439.79
542.675	26189.94
542.875	26278
543.075	25262.21
543.276	25036.93
543.476	25450.62
543.676	24674.44
543.877	24752.26
544.077	24187.02
544.277	23916.69
544.478	23832.72
544.678	23691.41
544.878	23249.05
545.078	23070.88
545.279	22331.56
545.479	21909.68
545.679	22182.06
545.879	21948.59
546.079	21876.91
546.28	21485.75
546.48	21135.55
546.68	20822.21
546.88	20861.12
547.08	20488.39
547.28	20195.53
547.48	19597.52
547.68	19630.29
547.88	19351.77
548.081	19409.11
548.281	18768.1
548.481	18860.26
548.681	18784.48
548.881	18434.28
549.081	17993.97
549.28	17639.67
549.48	17805.55
549.68	17348.86
549.88	17496.31
550.08	16771.33
550.28	16646.4
550.48	16492.8
550.68	16392.45
550.88	15911.18
551.08	15773.97
551.279	15673.62
551.479	15163.67
551.679	15372.57
551.879	14991.64
552.079	14655.78
552.278	14285.09
552.478	14182.7
552.678	14096.68
552.878	14018.86
553.077	13459.76
553.277	13234.49
553.477	13392.18
553.676	13070.65
553.876	12814.65
554.076	12618.05
554.275	12509.51
554.475	12032.33
554.674	12046.66
554.874	11833.68
555.074	11495.76
555.273	11581.78
555.473	11528.53
555.672	11049.3
555.872	11182.42
556.071	10592.61
556.271	10742.11
556.47	10430.82
556.67	10197.35
556.869	10273.12
557.068	9939.3
557.268	9873.77
557.467	9568.62
557.667	9623.92
557.866	9337.2
558.065	9277.81
558.265	9124.21
558.464	8817.02
558.663	8888.7
558.863	8712.57
559.062	8481.15
559.261	8311.17
559.461	8456.57
559.66	7993.73
559.859	7913.86
560.058	7680.39
560.258	7676.3
560.457	7635.34
560.656	7621
560.855	7338.38
561.054	7264.66
561.253	7051.67
561.453	7365.01
561.652	7086.48
561.851	7125.4
562.05	6646.17
562.249	6474.14
562.448	6601.12
562.647	6334.88
562.846	6511
563.045	6394.27
563.244	6234.53
563.443	6154.66
563.642	5884.33
563.841	5958.05
564.04	5720.49
564.239	5771.69
564.438	5654.95
564.637	5564.84
564.836	5654.95
565.035	5466.54
565.234	5245.36
565.432	5319.09
565.631	5355.95
565.83	5116.34
566.029	4901.3
566.228	4917.68
566.427	4950.45
566.625	4708.79
566.824	4837.81
567.023	5013.94
567.222	4585.91
567.42	4573.63
567.619	4512.19
567.818	4481.47
568.016	4483.52
568.215	4389.31
568.414	4395.45
568.612	4159.94
568.811	4168.13
569.01	4227.52
569.208	4071.87
569.407	4051.39
569.605	4088.26
569.804	3836.36
570.002	3756.49
570.201	3824.07
570.4	3895.75
570.598	3686.86
570.797	3502.54
570.995	3576.27
571.193	3582.41
571.392	3545.55
571.59	3437
571.789	3369.42
571.987	3410.38
572.186	3332.56
572.384	3230.16
572.582	3234.25
572.781	3303.89
572.979	3000.79
573.177	2988.5
573.376	2982.35
573.574	3054.03
573.772	2804.18
573.971	2826.71
574.169	2820.56
574.367	2902.48
574.565	2742.74
574.763	2793.94
574.962	2746.84
575.16	2515.42
575.358	2447.83
575.556	2517.47
575.754	2570.71
575.952	2560.47
576.151	2435.55
576.349	2441.69
576.547	2296.28
576.745	2263.52
576.943	2462.17
577.141	2353.63
577.339	2253.28
577.537	2210.27
577.735	2263.52
577.933	2152.93
578.131	2003.43
578.329	2226.65
578.527	2017.76
578.725	2130.4
578.923	1855.97
579.121	1927.65
579.319	1800.68
579.516	1978.85
579.714	2089.44
579.912	1767.91
580.11	1821.16
580.308	1784.29
580.506	1786.34
580.704	1559.02
580.901	1569.26
581.099	1745.38
581.297	1683.94
581.495	1657.32
581.692	1552.87
581.89	1776.1
582.088	1571.3
582.285	1593.83
582.483	1538.54
582.681	1540.58
582.878	1438.19
583.076	1491.43
583.274	1427.95
583.471	1522.15
583.669	1530.34
583.866	1257.96
584.064	1335.79
584.262	1266.16
584.459	1296.88
584.657	1317.36
584.854	1401.32
585.052	1323.5
585.249	1397.23
585.447	1257.96
585.644	1217.01
585.841	1319.4
586.039	1272.3
586.236	1284.59
586.434	1128.94
586.631	1077.74
586.828	1159.66
587.026	1114.61
587.223	1063.41
587.42	1104.37
587.618	1153.52
587.815	1169.9
588.012	1112.56
588.21	1018.35
588.407	1163.76
588.604	1130.99
588.801	973.3
588.999	1020.4
589.196	995.82
589.393	989.68
589.59	1001.97
589.787	979.44
589.984	915.95
590.182	954.87
590.379	934.39
590.576	1006.06
590.773	985.58
590.97	877.04
591.167	1022.45
591.364	928.24
591.561	846.32
591.758	997.87
591.955	977.39
592.152	821.75
592.349	874.99
592.546	834.04
592.743	829.94
592.94	897.52
593.137	872.95
593.334	967.15
593.531	993.78
593.727	944.63
593.924	1016.3
594.121	989.68
594.318	846.32
594.515	918
594.712	1034.74
594.908	1026.54
595.105	854.51
595.302	1020.4
595.499	887.28
595.696	1012.21
595.892	1055.22
596.089	1120.75
596.286	952.82
596.482	1149.42
596.679	1122.8
596.876	993.78
597.072	1139.18
597.269	1112.56
597.466	1210.86
597.662	1167.85
597.859	1208.81
598.055	1178.09
598.252	1364.46
598.448	1382.89
598.645	1520.1
598.841	1382.89
599.038	1530.34
599.234	1722.85
599.431	1626.6
599.627	1632.74
599.824	1772
600.02	1845.73
600.217	1745.38
600.413	1905.12
600.609	2019.81
600.806	2300.38
601.002	2212.32
601.198	2130.4
601.395	2269.66
601.591	2380.25
601.787	2496.99
601.984	2611.67
602.18	2693.59
602.376	2828.76
602.572	2896.34
602.769	3133.9
602.965	2996.69
603.161	3346.89
603.357	3303.89
603.553	3516.87
603.75	3563.98
603.946	3736.01
604.142	3760.58
604.338	4030.91
604.534	4049.35
604.73	4303.29
604.926	4219.33
605.122	4600.25
605.318	4442.56
605.514	4661.69
605.71	4788.66
605.906	5110.19
606.102	4954.55
606.298	5271.98
606.494	5509.55
606.69	5722.54
606.886	5833.13
607.082	5831.08
607.278	6105.51
607.474	6246.82
607.67	6494.62
607.866	6424.99
608.062	7063.96
608.257	6994.33
608.453	7231.89
608.649	7500.17
608.845	7627.15
609.041	7680.39
609.236	8116.61
609.432	7989.64
609.628	8393.09
609.824	8608.12
610.019	8956.28
610.215	8997.24
610.411	9585.01
610.606	9716.08
610.802	9734.51
610.998	10092.9
611.193	10396
611.389	10631.52
611.584	11051.35
611.78	11094.36
611.976	11581.78
612.171	11854.16
612.367	12306.76
612.562	12392.77
612.758	12736.83
612.953	12996.92
613.149	13281.59
613.344	13590.83
613.539	14383.4
613.735	14571.81
613.93	14819.61
614.126	15255.83
614.321	15835.41
614.517	16101.64
614.712	16668.93
614.907	16838.91
615.103	17393.91
615.298	17774.83
615.493	18145.52
615.688	18471.14
615.884	19669.2
616.079	19579.09
616.274	20101.33
616.47	20369.61
616.665	21512.38
616.86	21672.12
617.055	22120.62
617.25	22784.16
617.445	23355.55
617.641	23576.73
617.836	24721.54
618.031	24955.01
618.226	25866.36
618.421	26099.83
618.616	27101.28
618.811	27404.38
619.006	28268.62
619.201	28440.65
619.396	29595.71
619.591	29687.87
619.786	31035.43
619.981	30857.26
620.176	32043.03
620.371	32319.51
620.566	33679.36
620.761	34103.29
620.956	34586.61
621.151	35045.35
621.346	36188.12
621.541	36212.7
621.735	37539.78
621.93	38037.44
622.125	38561.72
622.32	38784.94
622.515	39878.56
622.709	40550.29
622.904	41295.75
623.099	41908.1
623.294	42878.83
623.488	43347.82
623.683	44142.43
623.878	44334.94
624.072	45356.88
624.267	46436.16
624.462	46987.06
624.656	47513.39
624.851	48873.24
625.046	48930.58
625.24	49936.13
625.435	49823.5
625.629	51175.16
625.824	51701.48
626.018	51783.4
626.213	51961.58
626.407	53155.54
626.602	53055.19
626.796	54865.59
626.991	54851.26
627.185	54953.66
627.38	55453.36
627.574	56180.39
627.768	55744.17
627.963	55946.92
628.157	55635.63
628.352	56559.26
628.546	56073.9
628.74	57259.67
628.935	56311.46
629.129	56823.45
629.323	55959.21
629.517	56082.09
629.712	55975.59
629.906	55520.94
630.1	54619.84
630.294	54765.24
630.489	53554.89
630.683	53814.99
630.877	52006.63
631.071	51402.48
631.265	50740.99
631.459	50003.72
631.653	48733.98
631.848	47722.28
632.042	46968.63
632.236	46063.43
632.43	44357.47
632.624	43476.84
632.818	42358.65
633.012	40714.13
633.206	39667.62
633.4	38940.59
633.594	37017.55
633.788	36034.52
633.982	34830.32
634.176	33959.93
634.369	32127
634.563	31182.88
634.757	29583.42
634.951	29296.7
635.145	27875.41
635.339	26978.4
635.533	25692.28
635.726	24907.91
635.92	23615.64
636.114	22671.53
636.308	21797.04
636.501	21192.89
636.695	20295.88
636.889	19380.44
637.083	18520.29
637.276	17813.74
637.47	16855.29
637.664	16152.84
637.857	15577.36
638.051	15071.51
638.244	14364.96
638.438	13924.65
638.632	13297.97
638.825	12646.72
639.019	12366.15
639.212	11669.84
639.406	11356.5
639.599	10832.22
639.793	10584.41
639.986	10166.63
640.18	9845.1
640.373	9404.78
640.567	9027.96
640.76	8663.42
640.954	8436.1
641.147	7903.62
641.34	7756.17
641.534	7561.61
641.727	7147.92
641.92	6965.65
642.114	6582.68
642.307	6418.85
642.5	6042.02
642.694	5804.46
642.887	5816.74
643.08	5646.76
643.273	5325.23
643.467	4968.88
643.66	4716.98
643.853	4579.77
644.046	4487.61
644.239	4520.38
644.432	4118.98
644.626	3916.23
644.819	3801.54
645.012	3645.9
645.205	3586.51
645.398	3545.55
645.591	3248.59
645.784	3080.66
645.977	2851.28
646.17	3011.03
646.363	2914.77
646.556	2701.78
646.749	2499.03
646.942	2539.99
647.135	2517.47
647.328	2288.09
647.521	2322.91
647.714	2148.83
647.907	2015.71
648.099	1886.69
648.292	2015.71
648.485	1913.31
648.678	1751.53
648.871	1655.27
649.064	1763.81
649.256	1513.96
649.449	1432.04
649.642	1425.9
649.835	1429.99
650.027	1393.13
650.22	1413.61
650.413	1315.31
650.605	1298.92
650.798	1180.14
650.991	1090.03
651.183	1092.08
651.376	1188.33
651.568	1047.02
651.761	1004.02
651.954	1055.22
652.146	938.48
652.339	1028.59
652.531	934.39
652.724	881.14
652.916	895.47
653.109	696.82
653.301	827.89
653.494	860.66
653.686	723.44
653.879	856.56
654.071	805.36
654.263	692.73
654.456	584.18
654.648	780.79
654.84	680.44
655.033	637.43
655.225	725.49
655.417	573.94
655.61	606.71
655.802	592.37
655.994	612.85
656.186	489.98
656.379	616.95
656.571	522.74
656.763	422.39
656.955	475.64
657.148	489.98
657.34	475.64
657.532	412.15
657.724	365.05
657.916	465.4
658.108	449.02
658.3	444.92
658.492	477.69
658.684	369.15
658.876	467.45
659.068	281.08
659.26	299.52
659.452	289.28
659.644	350.71
659.836	440.83
660.028	412.15
660.22	285.18
660.412	424.44
660.604	385.53
660.796	365.05
660.988	412.15
661.18	297.47
661.372	346.62
661.563	260.6
661.755	268.8
661.947	274.94
662.139	213.5
662.331	190.97
662.522	215.55
662.714	215.55
662.906	150.01
663.097	236.03
663.289	227.84
663.481	102.91
663.673	207.36
663.864	219.64
664.056	240.12
664.247	221.69
664.439	330.23
664.631	219.64
664.822	244.22
665.014	168.45
665.205	215.55
665.397	190.97
665.588	250.36
665.78	211.45
665.971	256.51
666.163	168.45
666.354	233.98
666.546	182.78
666.737	178.69
666.929	131.58
667.12	178.69
667.311	172.54
667.503	182.78
667.694	209.4
667.885	166.4
668.077	231.93
668.268	25.09
668.459	137.73
668.651	162.3
668.842	139.77
669.033	64
669.224	113.15
669.416	279.04
669.607	57.86
669.798	143.87
669.989	260.6
670.18	209.4
670.371	156.16
670.563	168.45
670.754	133.63
670.945	217.6
671.136	178.69
671.327	107.01
671.518	147.97
671.709	276.99
671.9	227.84
672.091	172.54
672.282	135.68
672.473	164.35
672.664	59.9
672.855	119.29
673.046	145.92
673.237	317.95
673.428	135.68
673.619	244.22
673.809	141.82
674	231.93
674.191	281.08
674.382	190.97
674.573	205.31
674.764	203.26
674.954	162.3
675.145	72.19
675.336	98.81
675.527	86.53
675.717	150.01
675.908	88.57
676.099	121.34
676.289	96.77
676.48	4.61
676.671	162.3
676.861	135.68
677.052	188.93
677.243	131.58
677.433	117.25
677.624	207.36
677.814	246.27
678.005	82.43
678.195	217.6
678.386	94.72
678.576	199.16
678.767	86.53
678.957	162.3
679.148	178.69
679.338	168.45
679.529	152.06
679.719	176.64
679.909	156.16
680.1	193.02
680.29	213.5
680.481	55.81
680.671	264.7
680.861	190.97
681.052	211.45
681.242	152.06
681.432	223.74
681.622	170.49
681.813	131.58
682.003	166.4
682.193	29.18
682.383	223.74
682.573	139.77
682.764	143.87
682.954	141.82
683.144	188.93
683.334	160.25
683.524	184.83
683.714	113.15
683.904	213.5
684.094	162.3
684.284	129.53
684.474	270.84
684.664	213.5
684.854	256.51
685.044	156.16
685.234	195.07
685.424	156.16
685.614	121.34
685.804	360.95
685.994	242.17
686.184	270.84
686.374	182.78
686.564	176.64
686.753	172.54
686.943	113.15
687.133	199.16
687.323	76.29
687.513	131.58
687.702	141.82
687.892	207.36
688.082	190.97
688.272	338.43
688.461	190.97
688.651	293.37
688.841	250.36
689.03	174.59
689.22	166.4
689.41	233.98
689.599	240.12
689.789	213.5
689.979	309.76
690.168	197.12
690.358	276.99
690.547	182.78
690.737	203.26
690.926	268.8
691.116	238.08
691.305	262.65
691.495	221.69
691.684	104.96
691.874	205.31
692.063	227.84
692.252	205.31
692.442	279.04
692.631	64
692.82	201.21
693.01	193.02
693.199	162.3
693.388	250.36
693.578	219.64
693.767	225.79
693.956	211.45
694.146	164.35
694.335	190.97
694.524	193.02
694.713	260.6
694.902	168.45
695.092	86.53
695.281	303.61
695.47	145.92
695.659	152.06
695.848	150.01
696.037	66.05
696.226	217.6
696.415	119.29
696.604	317.95
696.793	258.56
696.982	178.69
697.171	236.03
697.36	127.49
697.549	258.56
697.738	88.57
697.927	86.53
698.116	72.19
698.305	225.79
698.494	147.97
698.683	190.97
698.872	389.63
699.061	158.21
699.25	127.49
699.438	143.87
699.627	72.19
699.816	199.16
700.005	162.3
700.193	66.05
700.382	242.17
700.571	174.59
700.76	182.78
700.948	246.27
701.137	186.88
701.326	199.16
701.514	78.33
701.703	236.03
701.892	143.87
702.08	350.71
702.269	184.83
702.457	145.92
702.646	168.45
702.834	162.3
703.023	158.21
703.212	182.78
703.4	209.4
703.589	158.21
703.777	147.97
703.965	135.68
704.154	150.01
704.342	104.96
704.531	174.59
704.719	236.03
704.907	240.12
705.096	92.67
705.284	123.39
705.472	195.07
705.661	268.8
705.849	141.82
706.037	184.83
706.226	127.49
706.414	143.87
706.602	43.52
706.79	244.22
706.979	141.82
707.167	174.59
707.355	57.86
707.543	166.4
707.731	84.48
707.919	141.82
708.107	186.88
708.296	96.77
708.484	147.97
708.672	168.45
708.86	197.12
709.048	102.91
709.236	104.96
709.424	197.12
709.612	137.73
709.8	88.57
709.988	107.01
710.176	293.37
710.364	258.56
710.551	119.29
710.739	260.6
710.927	162.3
711.115	227.84
711.303	236.03
711.491	279.04
711.679	102.91
711.866	231.93
712.054	127.49
712.242	141.82
712.43	229.88
712.617	141.82
712.805	172.54
712.993	176.64
713.181	12.8
713.368	186.88
713.556	178.69
713.744	127.49
713.931	410.11
714.119	233.98
714.306	182.78
714.494	111.1
714.682	229.88
714.869	76.29
715.057	229.88
715.244	31.23
715.432	205.31
715.619	152.06
715.807	127.49
715.994	92.67
716.182	158.21
716.369	293.37
716.556	281.08
716.744	141.82
716.931	168.45
717.119	272.89
717.306	145.92
717.493	217.6
717.681	219.64
717.868	162.3
718.055	270.84
718.242	137.73
718.43	156.16
718.617	254.46
718.804	129.53
718.991	276.99
719.179	244.22
719.366	272.89
719.553	219.64
719.74	154.11
719.927	244.22
720.114	211.45
720.301	107.01
720.488	150.01
720.676	72.19
720.863	283.13
721.05	334.33
721.237	260.6
721.424	186.88
721.611	188.93
721.798	199.16
721.985	164.35
722.172	160.25
722.358	168.45
722.545	203.26
722.732	229.88
722.919	289.28
723.106	248.32
723.293	182.78
723.48	168.45
723.667	154.11
723.853	231.93
724.04	276.99
724.227	231.93
724.414	113.15
724.6	244.22
724.787	293.37
724.974	438.78
725.161	193.02
725.347	125.44
725.534	250.36
725.72	262.65
725.907	231.93
726.094	262.65
726.28	223.74
726.467	223.74
726.653	186.88
726.84	346.62
727.027	369.15
727.213	197.12
727.4	334.33
727.586	276.99
727.773	244.22
727.959	266.75
728.145	250.36
728.332	227.84
728.518	154.11
728.705	297.47
728.891	285.18
729.077	301.56
729.264	164.35
729.45	293.37
729.636	279.04
729.823	309.76
730.009	360.95
730.195	217.6
730.382	324.09
730.568	213.5
730.754	233.98
730.94	238.08
731.126	195.07
731.313	279.04
731.499	164.35
731.685	180.73
731.871	371.19
732.057	215.55
732.243	363
732.429	285.18
732.615	424.44
732.801	356.86
732.987	236.03
733.173	281.08
733.359	193.02
733.545	225.79
733.731	264.7
733.917	287.23
734.103	307.71
734.289	293.37
734.475	254.46
734.661	365.05
734.847	276.99
735.033	291.32
735.219	330.23
735.404	131.58
735.59	221.69
735.776	178.69
735.962	311.8
736.148	309.76
736.333	317.95
736.519	254.46
736.705	365.05
736.89	186.88
737.076	299.52
737.262	207.36
737.447	172.54
737.633	305.66
737.819	391.67
738.004	305.66
738.19	252.41
738.375	383.48
738.561	336.38
738.747	291.32
738.932	158.21
739.118	465.4
739.303	285.18
739.489	389.63
739.674	281.08
739.859	252.41
740.045	342.52
740.23	358.91
740.416	145.92
740.601	236.03
740.786	309.76
740.972	332.28
741.157	279.04
741.342	272.89
741.528	285.18
741.713	317.95
741.898	266.75
742.084	135.68
742.269	285.18
742.454	328.19
742.639	322.04
742.824	336.38
743.01	328.19
743.195	395.77
743.38	211.45
743.565	297.47
743.75	338.43
743.935	256.51
744.12	365.05
744.305	233.98
744.49	215.55
744.675	307.71
744.86	289.28
745.045	354.81
745.23	303.61
745.415	315.9
745.6	369.15
745.785	221.69
745.97	367.1
746.155	289.28
746.34	389.63
746.525	293.37
746.71	449.02
746.895	164.35
747.079	268.8
747.264	250.36
747.449	414.2
747.634	418.3
747.819	315.9
748.003	256.51
748.188	172.54
748.373	299.52
748.557	283.13
748.742	289.28
748.927	150.01
749.111	268.8
749.296	264.7
749.481	260.6
749.665	231.93
749.85	190.97
750.034	313.85
750.219	283.13
750.404	256.51
750.588	258.56
750.773	219.64
750.957	279.04
751.141	201.21
751.326	260.6
751.51	135.68
751.695	233.98
751.879	207.36
752.064	391.67
752.248	270.84
752.432	383.48
752.617	320
752.801	330.23
752.985	188.93
753.17	317.95
753.354	227.84
753.538	285.18
753.722	184.83
753.907	215.55
754.091	125.44
754.275	266.75
754.459	162.3
754.643	246.27
754.828	203.26
755.012	236.03
755.196	178.69
755.38	195.07
755.564	193.02
755.748	199.16
755.932	293.37
756.116	221.69
756.3	238.08
756.484	178.69
756.668	264.7
756.852	125.44
757.036	160.25
757.22	201.21
757.404	207.36
757.588	199.16
757.772	227.84
757.956	135.68
758.14	330.23
758.323	150.01
758.507	209.4
758.691	209.4
758.875	270.84
759.059	307.71
759.242	115.2
759.426	221.69
759.61	182.78
759.794	156.16
759.977	211.45
760.161	299.52
760.345	236.03
760.528	225.79
760.712	242.17
760.895	205.31
761.079	238.08
761.263	137.73
761.446	186.88
761.63	119.29
761.813	205.31
761.997	64
762.18	178.69
762.364	211.45
762.547	53.76
762.731	107.01
762.914	221.69
763.098	47.62
763.281	156.16
763.464	125.44
763.648	225.79
763.831	193.02
764.015	113.15
764.198	162.3
764.381	178.69
764.564	109.05
764.748	117.25
764.931	248.32
765.114	166.4
765.297	203.26
765.481	47.62
765.664	107.01
765.847	92.67
766.03	285.18
766.213	74.24
766.397	145.92
766.58	129.53
766.763	254.46
766.946	90.62
767.129	201.21
767.312	66.05
767.495	125.44
767.678	98.81
767.861	176.64
768.044	137.73
768.227	133.63
768.41	160.25
768.593	139.77
768.776	129.53
768.959	170.49
769.142	330.23
769.324	76.29
769.507	23.04
769.69	66.05
769.873	141.82
770.056	297.47
770.239	123.39
770.421	221.69
770.604	127.49
770.787	131.58
770.97	78.33
771.152	109.05
771.335	131.58
771.518	70.14
771.7	88.57
771.883	268.8
772.066	94.72
772.248	135.68
772.431	166.4
772.613	119.29
772.796	68.09
772.978	127.49
773.161	180.73
773.343	137.73
773.526	113.15
773.708	-9.73
773.891	41.47
774.073	115.2
774.256	61.95
774.438	207.36
774.621	61.95
774.803	123.39
774.985	123.39
775.168	193.02
775.35	86.53
775.532	164.35
775.715	-9.73
775.897	137.73
776.079	96.77
776.261	121.34
776.444	164.35
776.626	70.14
776.808	20.99
776.99	33.28
777.173	64
777.355	53.76
777.537	43.52
777.719	127.49
777.901	51.71
778.083	-1.54
778.265	-3.58
778.447	66.05
778.629	18.94
778.811	147.97
778.993	141.82
779.175	150.01
779.357	51.71
779.539	-26.11
779.721	55.81
779.903	129.53
780.085	51.71
780.267	53.76
780.449	61.95
780.631	176.64
780.812	248.32
780.994	27.14
781.176	61.95
781.358	12.8
781.54	90.62
781.721	107.01
781.903	141.82
782.085	20.99
782.267	170.49
782.448	41.47
782.63	98.81
782.812	86.53
782.993	141.82
783.175	47.62
783.357	84.48
783.538	100.86
783.72	27.14
783.901	123.39
784.083	88.57
784.264	70.14
784.446	-44.54
784.627	0.51
784.809	107.01
784.99	8.7
785.172	47.62
785.353	88.57
785.535	53.76
785.716	68.09
785.897	4.61
786.079	20.99
786.26	8.7
786.441	223.74
786.623	27.14
786.804	70.14
786.985	23.04
787.167	72.19
787.348	117.25
787.529	80.38
787.71	231.93
787.891	107.01
788.073	45.57
788.254	49.66
788.435	219.64
788.616	41.47
788.797	-1.54
788.978	41.47
789.159	2.56
789.34	86.53
789.522	39.42
789.703	31.23
789.884	96.77
790.065	98.81
790.246	139.77
790.427	-93.69
790.607	195.07
790.788	102.91
790.969	-5.63
791.15	100.86
791.331	35.33
791.512	51.71
791.693	-7.68
791.874	6.66
792.054	141.82
792.235	127.49
792.416	-7.68
792.597	-42.5
792.778	86.53
792.958	74.24
793.139	76.29
793.32	76.29
793.5	25.09
793.681	221.69
793.862	51.71
794.042	53.76
794.223	-60.93
794.404	2.56
794.584	8.7
794.765	27.14
794.945	41.47
795.126	150.01
795.306	74.24
795.487	74.24
795.667	18.94
795.848	94.72
796.028	49.66
796.209	70.14
796.389	76.29
796.57	53.76
796.75	14.85
796.93	59.9
797.111	20.99
797.291	-38.4
797.471	43.52
797.652	0.51
797.832	-77.31
798.012	66.05
798.192	70.14
798.373	-85.5
798.553	84.48
798.733	47.62
798.913	-87.55
799.093	125.44
799.274	-30.21
799.454	39.42
799.634	27.14
799.814	86.53
799.994	-26.11
800.174	115.2
800.354	57.86
800.534	-36.35
800.714	107.01
800.894	-5.63
801.074	-13.82
801.254	-46.59
801.434	-11.78
801.614	-32.26
801.794	18.94
801.974	1905.12
802.154	2.56
802.334	72.19
802.514	10.75
802.693	72.19
802.873	59.9
803.053	109.05
803.233	29.18
803.413	35.33
803.592	-44.54
803.772	20.99
803.952	35.33
804.131	-19.97
804.311	88.57
804.491	145.92
804.67	23.04
804.85	-26.11
805.03	86.53
805.209	123.39
805.389	-26.11
805.568	-9.73
805.748	-26.11
805.928	12.8
806.107	59.9
806.287	82.43
806.466	125.44
806.646	6.66
806.825	35.33
807.004	4.61
807.184	18.94
807.363	150.01
807.543	-26.11
807.722	6.66
807.901	68.09
808.081	-15.87
808.26	-177.66
808.439	59.9
808.619	41.47
808.798	37.38
808.977	154.11
809.156	109.05
809.336	119.29
809.515	125.44
809.694	-38.4
809.873	-5.63
810.052	92.67
810.231	76.29
810.411	94.72
810.59	121.34
810.769	0.51
810.948	137.73
811.127	8.7
811.306	14.85
811.485	-17.92
811.664	147.97
811.843	45.57
812.022	33.28
812.201	-60.93
812.38	31.23
812.559	-15.87
812.737	14.85
812.916	-30.21
813.095	-26.11
813.274	10.75
813.453	45.57
813.632	20.99
813.811	70.14
813.989	-67.07
814.168	74.24
814.347	-13.82
814.526	49.66
814.704	193.02
814.883	209.4
815.062	-44.54
815.24	96.77
815.419	-75.26
815.598	37.38
815.776	-7.68
815.955	29.18
816.133	-36.35
816.312	35.33
816.49	-50.69
816.669	59.9
816.847	-1.54
817.026	-15.87
817.204	-54.78
817.383	59.9
817.561	35.33
817.74	-30.21
817.918	49.66
818.097	-1.54
818.275	18.94
818.453	39.42
818.632	43.52
818.81	43.52
818.988	-17.92
819.167	-32.26
819.345	102.91
819.523	8.7
819.701	-7.68
819.879	41.47
820.058	14.85
820.236	92.67
820.414	64
820.592	-44.54
820.77	25.09
820.948	-1.54
821.127	-5.63
821.305	43.52
821.483	-79.36
821.661	88.57
821.839	20.99
822.017	23.04
822.195	-1.54
822.373	59.9
822.551	88.57
822.729	6.66
822.907	123.39
823.085	51.71
823.262	18.94
823.44	-42.5
823.618	-17.92
823.796	57.86
823.974	18.94
824.152	31.23
824.329	78.33
824.507	88.57
824.685	29.18
824.863	-5.63
825.04	-30.21
825.218	41.47
825.396	51.71
825.574	18.94
825.751	23.04
825.929	131.58
826.107	-95.74
826.284	31.23
826.462	90.62
826.639	-1.54
826.817	-67.07
826.994	90.62
827.172	-19.97
827.349	139.77
827.527	20.99
827.704	25.09
827.882	135.68
828.059	10.75
828.237	51.71
828.414	109.05
828.591	-46.59
828.769	66.05
828.946	-30.21
829.124	68.09
829.301	80.38
829.478	-30.21
829.655	23.04
829.833	27.14
830.01	-75.26
830.187	6.66
830.364	6.66
830.542	-13.82
830.719	137.73
830.896	39.42
831.073	53.76
831.25	51.71
831.427	29.18
831.604	14.85
831.782	-52.74
831.959	70.14
832.136	27.14
832.313	-1.54
832.49	27.14
832.667	8.7
832.844	-17.92
833.021	55.81
833.198	2.56
833.374	70.14
833.551	90.62
833.728	-48.64
833.905	61.95
834.082	-161.28
834.259	2.56
834.436	72.19
834.612	-69.12
834.789	39.42
834.966	59.9
835.143	39.42
835.319	-65.02
835.496	25.09
835.673	41.47
835.85	80.38
836.026	37.38
836.203	43.52
836.38	6.66
836.556	14.85
836.733	-105.98
836.909	197.12
837.086	-46.59
837.262	-11.78
837.439	23.04
837.616	-40.45
837.792	10.75
837.968	41.47
838.145	-93.69
838.321	-58.88
838.498	0.51
838.674	43.52
838.851	16.9
839.027	-42.5
839.203	-24.06
839.38	82.43
839.556	-38.4
839.732	78.33
839.909	-54.78
840.085	51.71
840.261	-32.26
840.437	-38.4
840.614	-17.92
840.79	127.49
840.966	88.57
841.142	100.86
841.318	20.99
841.494	64
841.671	115.2
841.847	-67.07
842.023	-24.06
842.199	39.42
842.375	100.86
842.551	-71.17
842.727	-71.17
842.903	119.29
843.079	-3.58
843.255	117.25
843.431	10.75
843.607	37.38
843.783	-124.41
843.959	61.95
844.134	-44.54
844.31	113.15
844.486	12.8
844.662	35.33
844.838	-22.02
845.013	-9.73
845.189	45.57
845.365	45.57
845.541	25.09
845.716	0.51
845.892	12.8
846.068	16.9
846.244	-81.41
846.419	94.72
846.595	23.04
846.77	-97.79
846.946	137.73
847.122	2.56
847.297	-52.74
847.473	129.53
847.648	-93.69
847.824	66.05
847.999	-22.02
848.175	6.66
848.35	23.04
848.526	98.81
848.701	64
848.876	80.38
849.052	43.52
849.227	100.86
849.403	-32.26
849.578	-7.68
849.753	23.04
849.929	92.67
850.104	-56.83
850.279	20.99
850.454	0.51
850.63	137.73
850.805	8.7
850.98	90.62
851.155	64
851.33	27.14
851.505	-48.64
851.681	43.52
851.856	-30.21
852.031	31.23
852.206	66.05
852.381	-67.07
852.556	-13.82
852.731	-7.68
852.906	53.76
853.081	78.33
853.256	211.45
853.431	6.66
853.606	37.38
853.781	-93.69
853.956	-138.75
854.131	-7.68
854.305	-75.26
854.48	80.38
854.655	-26.11
854.83	-71.17
855.005	45.57
855.18	-13.82
855.354	2.56
855.529	-5.63
855.704	33.28
855.879	47.62
856.053	-46.59
856.228	68.09
856.403	-112.13
856.577	90.62
856.752	-99.84
856.926	18.94
857.101	51.71
857.276	-36.35
857.45	-26.11
857.625	80.38
857.799	119.29
857.974	-26.11
858.148	-79.36
858.323	107.01
858.497	18.94
858.672	-9.73
858.846	-32.26
859.02	72.19
859.195	20.99
859.369	53.76
859.543	23.04
859.718	57.86
859.892	8.7
860.066	31.23
860.241	-26.11
860.415	-50.69
860.589	-46.59
860.763	43.52
860.938	-11.78
861.112	53.76
861.286	-30.21
861.46	-60.93
861.634	4.61
861.808	39.42
861.982	-81.41
862.157	-73.21
862.331	-65.02
862.505	-108.03
862.679	-79.36
862.853	2.56
863.027	-3.58
863.201	176.64
863.375	-54.78
863.549	55.81
863.722	59.9
863.896	152.06
864.07	29.18
864.244	-24.06
864.418	57.86
864.592	-11.78
864.766	20.99
864.939	-52.74
865.113	-42.5
865.287	45.57
865.461	-40.45
865.634	-50.69
865.808	-32.26
865.982	-1.54
866.156	12.8
866.329	-19.97
866.503	-11.78
866.676	129.53
866.85	20.99
867.024	-42.5
867.197	84.48
867.371	98.81
867.544	-7.68
867.718	-146.94
867.891	90.62
868.065	-67.07
868.238	74.24
868.412	113.15
868.585	-19.97
868.759	57.86
868.932	-34.3
869.105	-40.45
869.279	57.86
869.452	-56.83
869.625	-1.54
869.799	-1.54
869.972	-101.89
870.145	-30.21
870.319	123.39
870.492	-36.35
870.665	-62.98
870.838	-13.82
871.011	-161.28
871.185	-5.63
871.358	45.57
871.531	33.28
871.704	-11.78
871.877	-7.68
872.05	-24.06
872.223	-95.74
872.396	176.64
872.569	45.57
872.742	-79.36
872.915	37.38
873.088	14.85
873.261	-1.54
873.434	-28.16
873.607	-11.78
873.78	111.1
873.953	-42.5
874.126	84.48
874.299	2.56
874.471	-40.45
874.644	-15.87
874.817	100.86
874.99	121.34
875.163	-1.54
875.335	37.38
875.508	-32.26
875.681	92.67
875.853	68.09
876.026	-56.83
876.199	86.53
876.371	20.99
876.544	31.23
876.717	25.09
876.889	55.81
877.062	16.9
877.234	-3.58
877.407	45.57
877.579	94.72
877.752	-1.54
877.924	-5.63
878.097	31.23
878.269	25.09
878.442	43.52
878.614	-32.26
878.786	16.9
878.959	2.56
879.131	-15.87
879.303	-89.6
879.476	4.61
879.648	80.38
879.82	33.28
879.993	-67.07
880.165	14.85
880.337	-75.26
880.509	-26.11
880.681	-75.26
880.854	2.56
881.026	107.01
881.198	137.73
881.37	16.9
881.542	-19.97
881.714	23.04
881.886	-32.26
882.058	-62.98
882.23	-7.68
882.402	-99.84
882.574	27.14
882.746	102.91
882.918	96.77
883.09	35.33
883.262	-22.02
883.434	8.7
883.606	-17.92
883.778	-11.78
883.95	150.01
884.122	-91.65
884.293	90.62
884.465	33.28
884.637	107.01
884.809	-13.82
884.98	-11.78
885.152	51.71
885.324	64
885.496	0.51
885.667	-9.73
885.839	0.51
886.011	135.68
886.182	109.05
886.354	125.44
886.525	47.62
886.697	-28.16
886.869	0.51
887.04	0.51
887.212	47.62
887.383	131.58
887.555	51.71
887.726	-69.12
887.897	-95.74
888.069	-28.16
888.24	66.05
888.412	31.23
888.583	4.61
888.754	6.66
888.926	-62.98
889.097	-15.87
889.268	-118.27
889.44	-1.54
889.611	-130.56
889.782	-54.78
889.953	-5.63
890.125	70.14
890.296	-58.88
890.467	57.86
890.638	-60.93
890.809	53.76
890.98	8.7
891.151	31.23
891.323	92.67
891.494	12.8
891.665	2.56
891.836	6.66
892.007	-56.83
892.178	25.09
892.349	-15.87
892.52	-30.21
892.691	2.56
892.862	-24.06
893.032	-112.13
893.203	39.42
893.374	-50.69
893.545	70.14
893.716	-83.45
893.887	80.38
894.057	-65.02
894.228	55.81
894.399	-1.54
894.57	160.25
894.74	-11.78
894.911	84.48
895.082	-38.4
895.253	-56.83
895.423	47.62
895.594	102.91
895.764	31.23
895.935	-73.21
896.106	-1.54
896.276	51.71
896.447	16.9
896.617	-65.02
896.788	-54.78
896.958	-32.26
897.129	-34.3
897.299	-81.41
897.47	0.51
897.64	43.52
897.81	-5.63
897.981	55.81
898.151	-30.21
898.322	37.38
898.492	61.95
898.662	-50.69
898.832	-28.16
899.003	-54.78
899.173	86.53
899.343	-28.16
899.513	-52.74
