Data from USB4F104151__2__11-24-09-509.txt Node

Date: Wed Feb 26 11:24:09 EST 2025
User: louis
Spectrometer: USB4F10415
Trigger mode: 4
Integration Time (sec): 1.000000E-1
Scans to average: 1
Electric dark correction enabled: true
Nonlinearity correction enabled: false
Boxcar width: 0
XAxis mode: Wavelengths
Number of Pixels in Spectrum: 3648
>>>>>Begin Spectral Data<<<<<
178.204	-426.66
178.424	-426.66
178.644	-426.66
178.864	-377.51
179.084	-436.9
179.304	42.32
179.524	-19.11
179.744	27.99
179.964	17.75
180.184	-6.83
180.404	34.13
180.624	-6.83
180.844	-82.6
181.064	-17.07
181.283	32.08
181.503	-60.07
181.723	38.23
181.943	-109.22
182.163	228.69
182.383	5.46
182.602	23.89
182.822	87.38
183.042	56.66
183.262	-51.88
183.482	-39.59
183.701	66.9
183.921	50.52
184.141	-131.75
184.361	99.67
184.58	81.24
184.8	40.28
185.02	-27.31
185.239	36.18
185.459	44.37
185.679	97.62
185.898	-72.36
186.118	11.61
186.338	19.8
186.557	124.24
186.777	-80.55
186.997	5.46
187.216	50.52
187.436	197.97
187.655	75.09
187.875	107.86
188.095	9.56
188.314	169.3
188.534	177.49
188.753	32.08
188.973	50.52
189.192	128.34
189.412	11.61
189.631	91.48
189.851	1.37
190.07	128.34
190.29	-4.78
190.509	-33.45
190.729	9.56
190.948	181.59
191.168	236.88
191.387	52.56
191.607	15.7
191.826	17.75
192.045	-8.87
192.265	40.28
192.484	-6.83
192.704	-31.4
192.923	-51.88
193.142	91.48
193.362	173.39
193.581	116.05
193.8	38.23
194.02	75.09
194.239	66.9
194.458	50.52
194.678	-17.07
194.897	-45.74
195.116	46.42
195.335	23.89
195.555	58.71
195.774	-8.87
195.993	120.15
196.212	-66.22
196.432	25.94
196.651	-6.83
196.87	25.94
197.089	197.97
197.308	71
197.528	73.04
197.747	48.47
197.966	3.41
198.185	101.72
198.404	-23.21
198.623	118.1
198.842	5.46
199.062	128.34
199.281	58.71
199.5	13.65
199.719	60.76
199.938	77.14
200.157	103.76
200.376	85.33
200.595	181.59
200.814	68.95
201.033	44.37
201.252	167.25
201.471	42.32
201.69	36.18
201.909	83.28
202.128	107.86
202.347	52.56
202.566	17.75
202.785	-49.83
203.004	-51.88
203.223	302.42
203.442	27.99
203.661	-51.88
203.879	85.33
204.098	118.1
204.317	21.85
204.536	136.53
204.755	81.24
204.974	114
205.193	48.47
205.411	167.25
205.63	132.44
205.849	103.76
206.068	68.95
206.287	-55.98
206.505	165.2
206.724	11.61
206.943	32.08
207.162	-55.98
207.381	25.94
207.599	62.8
207.818	46.42
208.037	-35.5
208.255	-4.78
208.474	111.96
208.693	32.08
208.911	73.04
209.13	79.19
209.349	54.61
209.567	30.04
209.786	44.37
210.005	140.63
210.223	62.8
210.442	-82.6
210.661	58.71
210.879	48.47
211.098	-4.78
211.316	13.65
211.535	62.8
211.753	17.75
211.972	99.67
212.191	13.65
212.409	87.38
212.628	85.33
212.846	-60.07
213.065	77.14
213.283	111.96
213.502	30.04
213.72	85.33
213.938	48.47
214.157	36.18
214.375	105.81
214.594	56.66
214.812	58.71
215.031	38.23
215.249	44.37
215.467	83.28
215.686	-10.92
215.904	-0.68
216.122	89.43
216.341	134.48
216.559	97.62
216.778	120.15
216.996	105.81
217.214	5.46
217.432	68.95
217.651	-17.07
217.869	58.71
218.087	38.23
218.306	-55.98
218.524	71
218.742	46.42
218.96	91.48
219.179	77.14
219.397	64.85
219.615	179.54
219.833	154.96
220.051	46.42
220.27	116.05
220.488	75.09
220.706	99.67
220.924	-2.73
221.142	-29.35
221.36	52.56
221.578	56.66
221.796	91.48
222.015	105.81
222.233	-21.16
222.451	124.24
222.669	9.56
222.887	64.85
223.105	15.7
223.323	7.51
223.541	-27.31
223.759	23.89
223.977	11.61
224.195	181.59
224.413	27.99
224.631	40.28
224.849	-41.64
225.067	195.92
225.285	-64.17
225.503	-55.98
225.721	-47.79
225.939	54.61
226.157	-15.02
226.375	179.54
226.592	-0.68
226.81	-31.4
227.028	116.05
227.246	71
227.464	25.94
227.682	54.61
227.9	54.61
228.117	77.14
228.335	79.19
228.553	30.04
228.771	9.56
228.989	36.18
229.206	66.9
229.424	-17.07
229.642	48.47
229.86	-49.83
230.077	189.78
230.295	30.04
230.513	116.05
230.731	27.99
230.948	159.06
231.166	81.24
231.384	60.76
231.601	27.99
231.819	154.96
232.037	-60.07
232.254	5.46
232.472	60.76
232.689	-27.31
232.907	83.28
233.125	19.8
233.342	9.56
233.56	-33.45
233.777	48.47
233.995	23.89
234.213	34.13
234.43	118.1
234.648	34.13
234.865	-29.35
235.083	107.86
235.3	17.75
235.518	44.37
235.735	144.72
235.953	60.76
236.17	50.52
236.388	79.19
236.605	75.09
236.822	109.91
237.04	134.48
237.257	95.57
237.475	-66.22
237.692	75.09
237.909	124.24
238.127	17.75
238.344	73.04
238.562	85.33
238.779	-6.83
238.996	-90.79
239.214	-17.07
239.431	148.82
239.648	-33.45
239.865	23.89
240.083	54.61
240.3	23.89
240.517	-2.73
240.735	13.65
240.952	167.25
241.169	75.09
241.386	44.37
241.603	58.71
241.821	-29.35
242.038	46.42
242.255	138.58
242.472	27.99
242.689	93.52
242.907	87.38
243.124	36.18
243.341	46.42
243.558	-8.87
243.775	-49.83
243.992	-25.26
244.209	66.9
244.426	208.21
244.643	-23.21
244.86	9.56
245.078	71
245.295	68.95
245.512	-15.02
245.729	-4.78
245.946	9.56
246.163	36.18
246.38	15.7
246.597	48.47
246.814	9.56
247.031	40.28
247.248	64.85
247.464	83.28
247.681	-35.5
247.898	50.52
248.115	25.94
248.332	-4.78
248.549	79.19
248.766	185.68
248.983	163.15
249.2	105.81
249.417	124.24
249.633	93.52
249.85	68.95
250.067	52.56
250.284	25.94
250.501	68.95
250.717	36.18
250.934	7.51
251.151	73.04
251.368	-41.64
251.585	101.72
251.801	1.37
252.018	-39.59
252.235	197.97
252.451	-84.65
252.668	-2.73
252.885	99.67
253.102	3.41
253.318	85.33
253.535	30.04
253.752	-2.73
253.968	-15.02
254.185	-0.68
254.401	27.99
254.618	9.56
254.835	-25.26
255.051	140.63
255.268	64.85
255.484	95.57
255.701	-10.92
255.917	134.48
256.134	-8.87
256.351	-35.5
256.567	-10.92
256.784	-55.98
257	-39.59
257.217	83.28
257.433	95.57
257.65	23.89
257.866	177.49
258.082	-12.97
258.299	-23.21
258.515	83.28
258.732	-19.11
258.948	7.51
259.165	21.85
259.381	5.46
259.597	105.81
259.814	54.61
260.03	-4.78
260.246	19.8
260.463	142.68
260.679	101.72
260.895	56.66
261.112	64.85
261.328	-8.87
261.544	-25.26
261.761	148.82
261.977	5.46
262.193	-37.55
262.409	-10.92
262.626	58.71
262.842	50.52
263.058	-86.7
263.274	30.04
263.49	75.09
263.707	183.63
263.923	107.86
264.139	-84.65
264.355	15.7
264.571	93.52
264.787	116.05
265.004	118.1
265.22	50.52
265.436	19.8
265.652	-8.87
265.868	40.28
266.084	-25.26
266.3	75.09
266.516	-21.16
266.732	99.67
266.948	21.85
267.164	64.85
267.38	71
267.596	89.43
267.812	152.91
268.028	64.85
268.244	75.09
268.46	60.76
268.676	27.99
268.892	85.33
269.108	-39.59
269.324	3.41
269.54	-2.73
269.756	118.1
269.972	-33.45
270.188	50.52
270.403	-17.07
270.619	7.51
270.835	107.86
271.051	1.37
271.267	-55.98
271.483	50.52
271.698	130.39
271.914	89.43
272.13	124.24
272.346	3.41
272.562	-37.55
272.777	134.48
272.993	5.46
273.209	-2.73
273.425	66.9
273.64	-51.88
273.856	7.51
274.072	-23.21
274.287	-12.97
274.503	89.43
274.719	85.33
274.934	-23.21
275.15	19.8
275.366	9.56
275.581	-10.92
275.797	-29.35
276.012	50.52
276.228	-27.31
276.444	30.04
276.659	116.05
276.875	-35.5
277.09	-43.69
277.306	36.18
277.521	79.19
277.737	11.61
277.952	130.39
278.168	77.14
278.383	73.04
278.599	34.13
278.814	75.09
279.03	-17.07
279.245	171.35
279.461	118.1
279.676	97.62
279.892	-10.92
280.107	-68.27
280.322	-12.97
280.538	87.38
280.753	-53.93
280.969	79.19
281.184	-21.16
281.399	195.92
281.615	19.8
281.83	50.52
282.045	-19.11
282.26	-27.31
282.476	9.56
282.691	7.51
282.906	75.09
283.122	68.95
283.337	-78.51
283.552	95.57
283.767	46.42
283.983	130.39
284.198	64.85
284.413	77.14
284.628	-103.08
284.843	17.75
285.058	56.66
285.274	85.33
285.489	-70.31
285.704	140.63
285.919	-8.87
286.134	42.32
286.349	3.41
286.564	-25.26
286.779	128.34
286.995	32.08
287.21	-66.22
287.425	95.57
287.64	40.28
287.855	1.37
288.07	-144.04
288.285	89.43
288.5	122.2
288.715	50.52
288.93	19.8
289.145	-31.4
289.36	124.24
289.575	-4.78
289.79	99.67
290.004	15.7
290.219	93.52
290.434	-17.07
290.649	42.32
290.864	54.61
291.079	-43.69
291.294	66.9
291.509	68.95
291.724	46.42
291.938	-2.73
292.153	3.41
292.368	-15.02
292.583	101.72
292.798	75.09
293.012	79.19
293.227	62.8
293.442	58.71
293.657	91.48
293.871	128.34
294.086	40.28
294.301	118.1
294.516	202.07
294.73	52.56
294.945	-0.68
295.16	-33.45
295.374	91.48
295.589	54.61
295.804	54.61
296.018	116.05
296.233	101.72
296.447	114
296.662	83.28
296.877	101.72
297.091	56.66
297.306	3.41
297.52	64.85
297.735	97.62
297.949	-12.97
298.164	-19.11
298.378	21.85
298.593	5.46
298.807	30.04
299.022	66.9
299.236	157.01
299.451	105.81
299.665	-43.69
299.88	-33.45
300.094	103.76
300.309	-0.68
300.523	58.71
300.737	17.75
300.952	114
301.166	58.71
301.381	-41.64
301.595	27.99
301.809	75.09
302.024	15.7
302.238	-53.93
302.452	134.48
302.667	9.56
302.881	200.02
303.095	79.19
303.309	23.89
303.524	-60.07
303.738	-19.11
303.952	15.7
304.166	107.86
304.381	-121.51
304.595	126.29
304.809	-43.69
305.023	44.37
305.237	44.37
305.452	-33.45
305.666	75.09
305.88	128.34
306.094	40.28
306.308	60.76
306.522	60.76
306.736	25.94
306.95	46.42
307.164	-31.4
307.379	27.99
307.593	161.11
307.807	48.47
308.021	124.24
308.235	-10.92
308.449	-62.12
308.663	73.04
308.877	185.68
309.091	23.89
309.305	144.72
309.519	-135.85
309.733	60.76
309.947	-84.65
310.161	91.48
310.374	114
310.588	73.04
310.802	-43.69
311.016	-10.92
311.23	-12.97
311.444	-90.79
311.658	17.75
311.872	107.86
312.085	75.09
312.299	124.24
312.513	152.91
312.727	52.56
312.941	13.65
313.154	75.09
313.368	54.61
313.582	7.51
313.796	34.13
314.009	-12.97
314.223	171.35
314.437	66.9
314.651	105.81
314.864	3.41
315.078	-60.07
315.292	-10.92
315.505	3.41
315.719	42.32
315.933	73.04
316.146	50.52
316.36	-127.66
316.573	56.66
316.787	64.85
317.001	52.56
317.214	-12.97
317.428	105.81
317.641	-33.45
317.855	-86.7
318.068	48.47
318.282	36.18
318.495	87.38
318.709	140.63
318.922	15.7
319.136	154.96
319.349	128.34
319.563	83.28
319.776	122.2
319.99	-27.31
320.203	71
320.417	128.34
320.63	1.37
320.843	165.2
321.057	23.89
321.27	-8.87
321.483	132.44
321.697	83.28
321.91	25.94
322.124	62.8
322.337	150.87
322.55	27.99
322.763	101.72
322.977	15.7
323.19	21.85
323.403	-76.46
323.617	107.86
323.83	118.1
324.043	-6.83
324.256	64.85
324.469	-103.08
324.683	120.15
324.896	46.42
325.109	7.51
325.322	-60.07
325.535	64.85
325.748	77.14
325.962	27.99
326.175	68.95
326.388	-10.92
326.601	124.24
326.814	34.13
327.027	103.76
327.24	251.22
327.453	-90.79
327.666	75.09
327.879	138.58
328.092	124.24
328.305	58.71
328.518	54.61
328.731	23.89
328.944	107.86
329.157	36.18
329.37	13.65
329.583	152.91
329.796	189.78
330.009	-76.46
330.222	116.05
330.435	97.62
330.648	62.8
330.861	-8.87
331.073	124.24
331.286	103.76
331.499	-15.02
331.712	9.56
331.925	25.94
332.138	27.99
332.35	71
332.563	13.65
332.776	91.48
332.989	44.37
333.202	-39.59
333.414	-6.83
333.627	-12.97
333.84	-64.17
334.053	1.37
334.265	-84.65
334.478	-49.83
334.691	7.51
334.903	30.04
335.116	-17.07
335.329	9.56
335.541	11.61
335.754	89.43
335.966	1.37
336.179	62.8
336.392	30.04
336.604	34.13
336.817	126.29
337.029	124.24
337.242	42.32
337.454	161.11
337.667	-23.21
337.88	167.25
338.092	101.72
338.305	19.8
338.517	58.71
338.729	93.52
338.942	138.58
339.154	-45.74
339.367	-101.03
339.579	21.85
339.792	-33.45
340.004	103.76
340.217	-2.73
340.429	-25.26
340.641	-15.02
340.854	-33.45
341.066	21.85
341.278	116.05
341.491	175.44
341.703	58.71
341.915	-6.83
342.128	130.39
342.34	15.7
342.552	50.52
342.764	73.04
342.977	-6.83
343.189	32.08
343.401	83.28
343.613	-41.64
343.826	32.08
344.038	-55.98
344.25	105.81
344.462	-12.97
344.674	109.91
344.886	79.19
345.099	-0.68
345.311	73.04
345.523	27.99
345.735	-8.87
345.947	97.62
346.159	42.32
346.371	95.57
346.583	62.8
346.795	234.83
347.007	11.61
347.219	77.14
347.431	-86.7
347.643	79.19
347.855	11.61
348.067	130.39
348.279	-105.13
348.491	3.41
348.703	165.2
348.915	-105.13
349.127	-82.6
349.339	-8.87
349.551	15.7
349.763	75.09
349.975	-33.45
350.187	118.1
350.399	111.96
350.61	64.85
350.822	32.08
351.034	-8.87
351.246	154.96
351.458	109.91
351.669	64.85
351.881	111.96
352.093	40.28
352.305	99.67
352.517	68.95
352.728	42.32
352.94	120.15
353.152	83.28
353.363	-41.64
353.575	89.43
353.787	120.15
353.999	91.48
354.21	195.92
354.422	-6.83
354.633	-39.59
354.845	42.32
355.057	79.19
355.268	89.43
355.48	157.01
355.692	-15.02
355.903	87.38
356.115	-103.08
356.326	-41.64
356.538	95.57
356.749	25.94
356.961	136.53
357.172	97.62
357.384	-6.83
357.595	202.07
357.807	23.89
358.018	-27.31
358.23	-72.36
358.441	206.16
358.653	101.72
358.864	54.61
359.075	-8.87
359.287	58.71
359.498	142.68
359.709	109.91
359.921	81.24
360.132	75.09
360.344	-31.4
360.555	58.71
360.766	23.89
360.977	-0.68
361.189	167.25
361.4	-39.59
361.611	46.42
361.823	93.52
362.034	116.05
362.245	-8.87
362.456	3.41
362.667	25.94
362.879	-62.12
363.09	71
363.301	99.67
363.512	27.99
363.723	-31.4
363.935	25.94
364.146	120.15
364.357	42.32
364.568	64.85
364.779	-4.78
364.99	120.15
365.201	-8.87
365.412	87.38
365.623	85.33
365.834	79.19
366.045	91.48
366.256	71
366.467	126.29
366.678	7.51
366.889	60.76
367.1	-35.5
367.311	122.2
367.522	17.75
367.733	91.48
367.944	42.32
368.155	19.8
368.366	91.48
368.577	103.76
368.788	136.53
368.999	-78.51
369.209	54.61
369.42	234.83
369.631	200.02
369.842	128.34
370.053	-37.55
370.264	50.52
370.474	-2.73
370.685	118.1
370.896	13.65
371.107	161.11
371.317	79.19
371.528	60.76
371.739	128.34
371.95	77.14
372.16	142.68
372.371	9.56
372.582	17.75
372.792	116.05
373.003	3.41
373.214	40.28
373.424	85.33
373.635	-15.02
373.846	83.28
374.056	97.62
374.267	73.04
374.477	85.33
374.688	-47.79
374.898	23.89
375.109	101.72
375.319	54.61
375.53	107.86
375.74	81.24
375.951	75.09
376.161	118.1
376.372	161.11
376.582	32.08
376.793	32.08
377.003	-8.87
377.214	75.09
377.424	95.57
377.635	36.18
377.845	-17.07
378.055	111.96
378.266	-98.99
378.476	103.76
378.686	32.08
378.897	52.56
379.107	89.43
379.317	87.38
379.528	-17.07
379.738	144.72
379.948	5.46
380.158	173.39
380.369	11.61
380.579	77.14
380.789	44.37
380.999	111.96
381.21	101.72
381.42	148.82
381.63	-6.83
381.84	146.77
382.05	75.09
382.261	27.99
382.471	97.62
382.681	23.89
382.891	177.49
383.101	134.48
383.311	-6.83
383.521	-23.21
383.731	124.24
383.941	97.62
384.151	15.7
384.361	9.56
384.571	56.66
384.781	73.04
384.991	249.17
385.201	238.93
385.411	124.24
385.621	54.61
385.831	64.85
386.041	111.96
386.251	114
386.461	83.28
386.671	25.94
386.881	40.28
387.091	42.32
387.301	157.01
387.511	73.04
387.72	130.39
387.93	5.46
388.14	-23.21
388.35	38.23
388.56	64.85
388.769	87.38
388.979	30.04
389.189	9.56
389.399	-39.59
389.609	93.52
389.818	130.39
390.028	79.19
390.238	62.8
390.447	-4.78
390.657	81.24
390.867	-0.68
391.076	-35.5
391.286	79.19
391.496	23.89
391.705	30.04
391.915	204.11
392.125	58.71
392.334	58.71
392.544	109.91
392.753	114
392.963	-39.59
393.172	128.34
393.382	9.56
393.591	138.58
393.801	54.61
394.01	140.63
394.22	83.28
394.429	25.94
394.639	34.13
394.848	42.32
395.058	73.04
395.267	99.67
395.477	75.09
395.686	58.71
395.895	220.5
396.105	181.59
396.314	81.24
396.524	52.56
396.733	42.32
396.942	50.52
397.152	136.53
397.361	93.52
397.57	30.04
397.78	5.46
397.989	116.05
398.198	60.76
398.407	62.8
398.617	79.19
398.826	34.13
399.035	34.13
399.244	87.38
399.453	3.41
399.663	40.28
399.872	42.32
400.081	-12.97
400.29	25.94
400.499	-72.36
400.708	134.48
400.917	40.28
401.127	83.28
401.336	30.04
401.545	189.78
401.754	58.71
401.963	87.38
402.172	-19.11
402.381	19.8
402.59	-6.83
402.799	81.24
403.008	52.56
403.217	30.04
403.426	130.39
403.635	-64.17
403.844	-4.78
404.053	58.71
404.262	13.65
404.471	146.77
404.68	5.46
404.888	-19.11
405.097	64.85
405.306	81.24
405.515	-2.73
405.724	3.41
405.933	132.44
406.142	38.23
406.35	95.57
406.559	17.75
406.768	60.76
406.977	189.78
407.185	56.66
407.394	116.05
407.603	-43.69
407.812	189.78
408.02	148.82
408.229	64.85
408.438	23.89
408.646	-33.45
408.855	-33.45
409.064	103.76
409.272	-6.83
409.481	44.37
409.69	-27.31
409.898	-15.02
410.107	132.44
410.315	134.48
410.524	11.61
410.733	56.66
410.941	25.94
411.15	79.19
411.358	93.52
411.567	154.96
411.775	103.76
411.984	91.48
412.192	128.34
412.401	23.89
412.609	136.53
412.818	130.39
413.026	60.76
413.234	56.66
413.443	34.13
413.651	-17.07
413.86	32.08
414.068	152.91
414.276	187.73
414.485	-64.17
414.693	116.05
414.901	130.39
415.11	30.04
415.318	60.76
415.526	-15.02
415.734	107.86
415.943	73.04
416.151	83.28
416.359	50.52
416.567	44.37
416.776	83.28
416.984	85.33
417.192	181.59
417.4	11.61
417.608	36.18
417.817	-60.07
418.025	116.05
418.233	185.68
418.441	-58.03
418.649	-31.4
418.857	42.32
419.065	128.34
419.273	46.42
419.481	56.66
419.689	54.61
419.897	64.85
420.105	-72.36
420.313	122.2
420.521	161.11
420.729	236.88
420.937	19.8
421.145	1.37
421.353	56.66
421.561	138.58
421.769	-15.02
421.977	21.85
422.185	136.53
422.393	87.38
422.601	111.96
422.809	83.28
423.017	71
423.224	25.94
423.432	105.81
423.64	56.66
423.848	185.68
424.056	15.7
424.263	189.78
424.471	-4.78
424.679	238.93
424.887	23.89
425.094	169.3
425.302	128.34
425.51	27.99
425.718	95.57
425.925	79.19
426.133	9.56
426.341	179.54
426.548	62.8
426.756	17.75
426.964	118.1
427.171	42.32
427.379	105.81
427.586	30.04
427.794	130.39
428.001	114
428.209	95.57
428.417	136.53
428.624	132.44
428.832	40.28
429.039	132.44
429.247	126.29
429.454	185.68
429.662	204.11
429.869	99.67
430.076	103.76
430.284	85.33
430.491	191.83
430.699	116.05
430.906	265.55
431.114	19.8
431.321	185.68
431.528	204.11
431.736	52.56
431.943	111.96
432.15	169.3
432.358	159.06
432.565	275.79
432.772	3.41
432.979	253.27
433.187	111.96
433.394	152.91
433.601	93.52
433.808	275.79
434.016	224.59
434.223	167.25
434.43	173.39
434.637	109.91
434.844	300.37
435.052	167.25
435.259	255.31
435.466	228.69
435.673	200.02
435.88	245.07
436.087	286.03
436.294	378.19
436.501	318.8
436.708	275.79
436.915	290.13
437.122	390.48
437.329	240.98
437.537	339.28
437.743	267.6
437.95	478.54
438.157	329.04
438.364	316.75
438.571	349.52
438.778	443.73
438.985	384.34
439.192	374.1
439.399	384.34
439.606	431.44
439.813	484.69
440.02	517.45
440.227	589.13
440.433	523.6
440.64	499.02
440.847	374.1
441.054	572.75
441.261	722.25
441.467	621.9
441.674	542.03
441.881	705.87
442.088	591.18
442.294	742.73
442.501	779.59
442.708	783.69
442.914	681.29
443.121	699.72
443.328	871.75
443.534	965.96
443.741	875.85
443.948	853.32
444.154	990.53
444.361	1041.73
444.568	1000.77
444.774	968.01
444.981	951.62
445.187	1193.28
445.394	1140.04
445.6	1099.08
445.807	1287.49
446.013	1174.85
446.22	1264.96
446.426	1396.03
446.633	1428.8
446.839	1596.73
447.046	1350.98
447.252	1537.34
447.459	1500.48
447.665	1678.65
447.871	1680.7
448.078	1910.07
448.284	1744.19
448.491	1926.46
448.697	2043.19
448.903	2069.81
449.11	2127.16
449.316	2018.61
449.522	2303.28
449.728	2340.15
449.935	2407.73
450.141	2405.68
450.347	2628.91
450.553	2620.72
450.76	2620.72
450.966	2798.89
451.172	2911.53
451.378	3015.98
451.584	3061.03
451.791	3392.8
451.997	3390.75
452.203	3464.48
452.409	3656.99
452.615	3763.48
452.821	3638.56
453.027	3714.33
453.233	4177.17
453.44	4025.62
453.646	4154.65
453.852	4400.4
454.058	4592.91
454.264	4697.36
454.47	5102.86
454.676	5221.64
454.882	5459.2
455.088	5225.73
455.294	5473.54
455.5	5993.72
455.705	6319.35
455.911	6229.24
456.117	6427.89
456.323	6751.47
456.529	6558.96
456.735	7376.1
456.941	7460.07
457.147	7767.26
457.352	7845.09
457.558	8074.46
457.764	8729.81
457.97	8969.42
458.176	9395.4
458.381	9645.25
458.587	10101.95
458.793	10243.26
458.999	10210.49
459.204	11566.24
459.41	12090.52
459.616	11979.93
459.821	12532.89
460.027	13057.17
460.233	13599.88
460.438	13800.58
460.644	14595.19
460.85	14802.04
461.055	15285.36
461.261	15813.73
461.466	15666.28
461.672	15934.56
461.878	17783.88
462.083	17617.99
462.289	17988.67
462.494	18861.11
462.7	18781.24
462.905	18949.17
463.111	20812.82
463.316	21652.49
463.522	21838.86
463.727	22436.86
463.932	23608.3
464.138	24439.78
464.343	25283.54
464.549	25430.99
464.754	27777.97
464.959	28244.9
465.165	28369.83
465.37	28275.62
465.575	28486.56
465.781	30522.24
465.986	31009.66
466.191	30571.39
466.397	31148.92
466.602	30399.37
466.807	31978.35
467.012	32559.97
467.218	33391.45
467.423	33389.4
467.628	34413.38
467.833	36025.14
468.038	34884.42
468.244	34212.68
468.449	36354.86
468.654	35433.27
468.859	35672.88
469.064	35496.76
469.269	34712.39
469.474	34911.04
469.679	36004.66
469.885	34634.56
470.09	35703.6
470.295	35797.81
470.5	34921.28
470.705	34921.28
470.91	34024.27
471.115	33921.87
471.32	34155.34
471.525	34196.3
471.73	33090.4
471.935	33039.2
472.139	31581.04
472.344	31961.97
472.549	31607.67
472.754	30905.21
472.959	30133.13
473.164	29170.58
473.369	28591.01
473.574	29332.37
473.778	28933.02
473.983	28677.02
474.188	27868.08
474.393	26629.06
474.598	26680.25
474.802	25861.07
475.007	25764.81
475.212	25492.43
475.417	24427.49
475.621	23897.06
475.826	23925.74
476.031	23223.28
476.235	22660.09
476.44	22916.09
476.645	22414.34
476.849	21869.58
477.054	21785.61
477.259	21019.67
477.463	21263.38
477.668	20667.42
477.872	20671.51
478.077	19837.99
478.282	19375.15
478.486	19491.88
478.691	19076.15
478.895	18838.58
479.1	18953.27
479.304	18658.36
479.509	17830.98
479.713	18152.51
479.918	18009.15
480.122	17288.27
480.326	17640.52
480.531	17562.7
480.735	17288.27
480.94	16962.64
481.144	17609.8
481.348	16929.88
481.553	16907.35
481.757	16303.2
481.961	16426.07
482.166	16553.05
482.37	16567.38
482.574	15840.36
482.778	16051.3
482.983	16104.54
483.187	15697
483.391	15627.37
483.595	15535.21
483.8	15207.53
484.004	15250.54
484.208	15377.51
484.412	15111.28
484.616	14722.16
484.821	14773.36
485.025	14451.83
485.229	14328.95
485.433	13999.23
485.637	14068.86
485.841	13976.7
486.045	13440.14
486.249	13200.52
486.453	13059.21
486.657	13153.42
486.861	13046.93
487.065	12551.32
487.269	12539.03
487.473	12070.05
487.677	12246.17
487.881	12231.83
488.085	11642.02
488.289	11406.5
488.493	11277.48
488.697	11484.33
488.901	11023.53
489.105	10710.19
489.309	10599.6
489.512	10685.62
489.716	10241.21
489.92	10259.64
490.124	9858.24
490.328	9901.25
490.531	9553.09
490.735	9424.07
490.939	9209.03
491.143	9170.12
491.346	8711.38
491.55	8948.94
491.754	8885.45
491.958	8529.11
492.161	8451.28
492.365	8107.23
492.569	8228.06
492.772	8031.45
492.976	8043.74
493.18	8043.74
493.383	7687.39
493.587	7806.17
493.79	7591.14
493.994	7210.22
494.197	7421.16
494.401	7392.48
494.605	7124.2
494.808	7298.28
495.012	7210.22
495.215	7191.78
495.419	7136.49
495.622	6903.02
495.825	6894.83
496.029	6878.44
496.232	7042.28
496.436	6839.53
496.639	6888.68
496.843	6763.76
497.046	6845.68
497.249	6950.12
497.453	7159.02
497.656	6929.64
497.859	6780.14
498.063	7124.2
498.266	6853.87
498.469	6544.63
498.673	6962.41
498.876	7183.59
499.079	6845.68
499.282	7124.2
499.485	7296.23
499.689	7189.74
499.892	7116.01
500.095	7202.02
500.298	7341.29
500.501	7103.72
500.705	7562.47
500.908	7525.6
501.111	7451.88
501.314	7611.62
501.517	7683.3
501.72	7857.37
501.923	7709.92
502.126	7697.63
502.329	8037.59
502.532	7951.58
502.735	8056.03
502.938	8185.05
503.141	8277.21
503.344	8361.17
503.547	8694.99
503.75	8402.13
503.953	8322.26
504.156	8672.47
504.359	8953.04
504.562	8967.37
504.765	9067.72
504.968	9440.45
505.17	9718.98
505.373	9442.5
505.576	9927.87
505.779	9946.3
505.982	9942.21
506.185	10220.73
506.387	10276.02
506.59	10687.67
506.793	10900.65
506.996	10820.78
507.198	11191.47
507.401	11381.93
507.604	11678.88
507.807	11912.35
508.009	12014.75
508.212	12145.82
508.415	12518.55
508.617	12786.83
508.82	12915.86
509.022	13071.5
509.225	13718.66
509.428	13708.42
509.63	14212.22
509.833	14421.11
510.035	14980.21
510.238	15008.88
510.44	15361.13
510.643	15572.07
510.845	16229.47
511.048	16288.86
511.25	16876.63
511.453	17062.99
511.655	17800.26
511.858	17912.9
512.06	18326.59
512.262	18613.31
512.465	18893.88
512.667	19547.18
512.87	19971.11
513.072	20223.01
513.274	21275.66
513.477	21505.04
513.679	21990.41
513.881	22404.1
514.084	22918.14
514.286	23233.52
514.488	23888.87
514.69	24734.68
514.893	24996.82
515.095	25478.1
515.297	26006.47
515.499	26448.83
515.701	27126.71
515.904	27556.78
516.106	28205.99
516.308	28746.65
516.51	29445.01
516.712	29649.81
516.914	30458.76
517.116	31310.71
517.318	31640.43
517.52	32371.56
517.722	32693.09
517.925	33571.67
518.127	34308.94
518.329	34728.77
518.531	34929.47
518.733	35806
518.935	36586.28
519.136	36784.93
519.338	37614.36
519.54	38331.15
519.742	38877.96
519.944	39357.18
520.146	40260.33
520.348	40717.03
520.55	41388.77
520.752	41542.36
520.954	42332.88
521.155	42382.03
521.357	43543.23
521.559	43895.48
521.761	44688.04
521.963	44554.93
522.164	45058.73
522.366	45548.19
522.568	46025.37
522.77	46101.14
522.971	47118.98
523.173	46525.07
523.375	47350.4
523.576	47262.34
523.778	47786.62
523.98	48562.8
524.181	48579.18
524.383	48677.49
524.584	49193.57
524.786	49183.33
524.988	48577.14
525.189	49697.37
525.391	49332.84
525.592	49541.73
525.794	49568.35
525.995	49719.9
526.197	49265.25
526.398	49437.28
526.6	49259.11
526.801	49103.46
527.003	48798.32
527.204	49029.74
527.406	49367.65
527.607	48685.68
527.808	48884.33
528.01	48093.82
528.211	48161.4
528.412	48097.91
528.614	47647.36
528.815	47637.12
529.016	47585.92
529.218	46463.63
529.419	46527.12
529.62	45795.99
529.822	45609.63
530.023	45271.71
530.224	44968.62
530.425	44311.22
530.626	43780.79
530.828	43145.92
531.029	44042.93
531.23	42867.4
531.431	42220.24
531.632	42283.73
531.833	41892.57
532.035	41226.98
532.236	40401.64
532.437	40295.15
532.638	39699.19
532.839	39226.11
533.04	39062.27
533.241	37683.99
533.442	38398.73
533.643	37434.14
533.844	36897.57
534.045	37077.79
534.246	35726.13
534.447	35742.52
534.648	35017.53
534.849	34614.09
535.05	34114.38
535.251	33649.49
535.451	32836.45
535.652	32869.22
535.853	32406.37
536.054	32428.9
536.255	31615.86
536.456	30845.82
536.657	31009.66
536.857	30104.46
537.058	29565.84
537.259	29612.95
537.46	29098.91
537.66	28550.05
537.861	28416.93
538.062	27730.86
538.263	27503.54
538.463	27044.79
538.664	27186.1
538.865	26651.58
539.065	26442.69
539.266	25627.6
539.466	25820.11
539.667	25301.97
539.868	25449.42
540.068	24742.88
540.269	24546.27
540.469	24390.63
540.67	24110.05
540.87	23462.9
541.071	23372.78
541.271	23067.64
541.472	22948.86
541.672	22598.65
541.873	22301.7
542.073	21998.6
542.274	22010.89
542.474	21509.13
542.675	21279.76
542.875	21316.62
543.075	20745.24
543.276	20407.33
543.476	20681.75
543.676	20143.14
543.877	19936.29
544.077	19797.03
544.277	19321.9
544.478	19422.25
544.678	18945.08
544.878	18785.33
545.078	18457.66
545.279	18435.13
545.479	17978.43
545.679	17925.19
545.879	17722.44
546.079	17742.92
546.28	17482.83
546.48	16874.58
546.68	16960.59
546.88	16903.25
547.08	16618.58
547.28	16510.04
547.48	16487.51
547.68	16227.42
547.88	16079.97
548.081	16014.43
548.281	15596.65
548.481	15191.15
548.681	15447.15
548.881	15213.68
549.081	14716.02
549.28	14691.45
549.48	14361.72
549.68	13995.14
549.88	13925.5
550.08	13468.81
550.28	13685.89
550.48	13472.9
550.68	13612.17
550.88	12999.82
551.08	13085.84
551.279	12993.68
551.479	12469.4
551.679	12418.2
551.879	11979.93
552.079	12018.85
552.278	11762.85
552.478	11672.74
552.678	11443.37
552.878	11365.54
553.077	11138.22
553.277	10953.9
553.477	10855.6
553.676	10898.61
553.876	10527.92
554.076	10196.15
554.275	10120.38
554.475	9772.22
554.674	9970.88
554.874	9708.74
555.074	9467.08
555.273	9360.58
555.473	9178.31
555.672	8848.59
555.872	9002.19
556.071	9000.14
556.271	8903.89
556.47	8439
556.67	8238.3
556.869	8293.59
557.068	7951.58
557.268	7834.85
557.467	7937.24
557.667	7675.1
557.866	7607.52
558.065	7298.28
558.265	7324.9
558.464	7081.19
558.663	7023.85
558.863	6839.53
559.062	6966.51
559.261	6794.48
559.461	6747.37
559.66	6511.86
559.859	6405.36
560.058	6292.73
560.258	6175.99
560.457	6106.36
560.656	6135.03
560.855	5874.94
561.054	5670.14
561.253	5735.68
561.453	5739.77
561.652	5711.1
561.851	5633.28
562.05	5295.36
562.249	5270.79
562.448	5365
562.647	5111.05
562.846	5070.09
563.045	5006.6
563.244	4871.43
563.443	4898.06
563.642	4666.64
563.841	4699.41
564.04	4654.35
564.239	4554
564.438	4631.82
564.637	4293.91
564.836	4246.8
565.035	4406.55
565.234	4152.6
565.432	4087.06
565.631	4195.61
565.83	4027.67
566.029	3939.61
566.228	3964.18
566.427	3976.47
566.625	3792.16
566.824	3779.87
567.023	3679.52
567.222	3644.7
567.42	3644.7
567.619	3642.65
567.818	3661.09
568.016	3671.33
568.215	3462.43
568.414	3450.14
568.612	3400.99
568.811	3151.14
569.01	3204.39
569.208	3130.66
569.407	3351.84
569.605	3120.42
569.804	2940.2
570.002	3065.13
570.201	2868.52
570.4	2966.82
570.598	2727.21
570.797	2786.6
570.995	2778.41
571.193	2714.92
571.392	2749.74
571.59	2643.24
571.789	2622.77
571.987	2618.67
572.186	2592.05
572.384	2420.02
572.582	2399.54
572.781	2473.26
572.979	2293.04
573.177	2262.32
573.376	2239.8
573.574	2395.44
573.772	2106.68
573.971	2139.44
574.169	2131.25
574.367	2123.06
574.565	2157.88
574.763	2024.76
574.962	2075.96
575.16	1920.31
575.358	1887.54
575.556	1969.46
575.754	1961.27
575.952	1842.49
576.151	1934.65
576.349	1871.16
576.547	1643.84
576.745	1760.57
576.943	1776.95
577.141	1695.04
577.339	1572.16
577.537	1666.36
577.735	1727.8
577.933	1738.04
578.131	1459.52
578.329	1619.26
578.527	1490.24
578.725	1647.93
578.923	1461.57
579.121	1518.91
579.319	1426.75
579.516	1318.21
579.714	1465.66
579.912	1443.14
580.11	1187.14
580.308	1355.07
580.506	1328.45
580.704	1226.05
580.901	1166.66
581.099	1355.07
581.297	1226.05
581.495	1197.38
581.692	1176.9
581.89	1340.74
582.088	1189.19
582.285	1103.17
582.483	1154.37
582.681	1152.32
582.878	1101.12
583.076	1062.21
583.274	1137.99
583.471	1160.52
583.669	1027.4
583.866	863.56
584.064	1033.54
584.262	918.86
584.459	847.18
584.657	1006.92
584.854	963.91
585.052	927.05
585.249	982.34
585.447	892.23
585.644	843.08
585.841	963.91
586.039	927.05
586.236	961.86
586.434	732.49
586.631	705.87
586.828	845.13
587.026	836.94
587.223	673.1
587.42	750.92
587.618	816.46
587.815	843.08
588.012	771.4
588.21	664.91
588.407	834.89
588.604	777.55
588.801	734.54
588.999	697.67
589.196	789.83
589.393	636.24
589.59	664.91
589.787	722.25
589.984	693.58
590.182	705.87
590.379	550.22
590.576	646.48
590.773	669
590.97	617.8
591.167	744.78
591.364	687.43
591.561	644.43
591.758	767.31
591.955	746.83
592.152	593.23
592.349	617.8
592.546	566.6
592.743	591.18
592.94	587.08
593.137	574.8
593.334	718.15
593.531	644.43
593.727	650.57
593.924	666.96
594.121	597.32
594.318	593.23
594.515	646.48
594.712	765.26
594.908	771.4
595.105	617.8
595.302	716.11
595.499	683.34
595.696	793.93
595.892	707.91
596.089	800.07
596.286	656.72
596.482	881.99
596.679	771.4
596.876	759.11
597.072	812.36
597.269	820.55
597.466	922.95
597.662	859.46
597.859	806.22
598.055	892.23
598.252	955.72
598.448	1033.54
598.645	1062.21
598.841	1037.64
599.038	1226.05
599.234	1207.62
599.431	1207.62
599.627	1262.91
599.824	1168.71
600.02	1389.89
600.217	1346.88
600.413	1377.6
600.609	1492.29
600.806	1750.33
601.002	1518.91
601.198	1678.65
601.395	1602.88
601.591	1774.91
601.787	1830.2
601.984	1967.42
602.18	1887.54
602.376	1981.75
602.572	2090.29
602.769	2207.03
602.965	2352.43
603.161	2438.45
603.357	2389.3
603.553	2481.46
603.75	2440.5
603.946	2741.55
604.142	2692.4
604.338	2995.5
604.534	3028.26
604.73	3075.37
604.926	3046.69
605.122	3245.35
605.318	3265.83
605.514	3482.91
605.71	3509.54
605.906	3544.35
606.102	3726.62
606.298	3841.31
606.494	3953.94
606.69	4189.46
606.886	4142.36
607.082	4361.49
607.278	4424.98
607.474	4535.57
607.67	4777.23
607.866	4564.24
608.062	4930.83
608.257	4896.01
608.453	5039.37
608.649	5238.02
608.845	5281.03
609.041	5438.72
609.236	5702.91
609.432	5739.77
609.628	6032.63
609.824	6141.18
610.019	6352.12
610.215	6413.56
610.411	6687.98
610.606	6839.53
610.802	6860.01
610.998	7240.93
611.193	7494.88
611.389	7396.58
611.584	7847.13
611.78	7812.32
611.976	8219.86
612.171	8568.02
612.367	8527.06
612.562	8946.89
612.758	8991.95
612.953	9000.14
613.149	9512.13
613.344	9483.46
613.539	9993.4
613.735	10355.9
613.93	10775.73
614.126	10527.92
614.321	11234.47
614.517	11404.46
614.712	11744.42
614.907	11644.07
615.103	12489.88
615.298	12473.49
615.493	12756.11
615.688	13153.42
615.884	13712.52
616.079	13839.49
616.274	14136.45
616.47	14460.02
616.665	14906.48
616.86	15338.6
617.055	15760.48
617.25	15889.51
617.445	16639.06
617.641	16639.06
617.836	17267.79
618.031	17210.45
618.226	18162.75
618.421	18035.78
618.616	19186.74
618.811	19000.37
619.006	19766.31
619.201	20005.92
619.396	20593.69
619.591	21072.92
619.786	22008.84
619.981	21695.5
620.176	22426.62
620.371	22645.76
620.566	23559.15
620.761	23684.08
620.956	24343.52
621.151	24337.38
621.346	25338.83
621.541	25304.02
621.735	26278.85
621.93	26373.06
622.125	27229.11
622.32	27216.82
622.515	27773.87
622.709	28566.43
622.904	29012.89
623.099	29481.88
623.294	30043.02
623.488	30423.94
623.683	31333.24
623.878	31363.96
624.072	32224.11
624.267	32402.28
624.462	33084.25
624.656	33532.76
624.851	34038.61
625.046	34237.26
625.24	35003.2
625.435	35212.09
625.629	36072.24
625.824	36201.26
626.018	36739.88
626.213	36672.29
626.407	37081.89
626.602	37454.62
626.796	38509.32
626.991	38599.43
627.185	38849.28
627.38	38748.93
627.574	39242.49
627.768	39275.26
627.963	39688.95
628.157	39607.03
628.352	40137.46
628.546	39555.83
628.74	40405.74
628.935	39871.22
629.129	39895.8
629.323	39410.43
629.517	39500.54
629.712	39381.76
629.906	39187.2
630.1	38435.59
630.294	38456.07
630.489	37577.5
630.683	37616.41
630.877	36612.9
631.071	36559.66
631.265	36047.66
631.459	35167.04
631.653	34224.97
631.848	33989.45
632.042	32701.28
632.236	32389.99
632.43	31003.52
632.624	30761.86
632.818	29571.99
633.012	28732.32
633.206	27538.35
633.4	26829.76
633.594	25928.65
633.788	25299.92
633.982	24499.17
634.176	23565.29
634.369	22582.27
634.563	21660.68
634.757	20661.27
634.951	20282.4
635.145	19635.24
635.339	18707.51
635.533	17562.7
635.726	17478.73
635.92	16430.17
636.114	15719.53
636.308	14994.54
636.501	14574.71
636.695	14085.25
636.889	13307.02
637.083	12862.61
637.276	12248.22
637.47	11592.87
637.664	11383.98
637.857	10900.65
638.051	10429.62
638.244	10271.93
638.438	9610.43
638.632	9403.59
638.825	8768.72
639.019	8639.7
639.212	8086.75
639.406	7871.71
639.599	7552.23
639.793	7185.64
639.986	7073
640.18	6812.91
640.373	6522.1
640.567	6143.22
640.76	5977.34
640.954	5780.73
641.147	5375.24
641.34	5266.69
641.534	5076.23
641.727	4947.21
641.92	4797.71
642.114	4623.63
642.307	4277.52
642.5	4261.14
642.694	3958.04
642.887	3906.84
643.08	3841.31
643.273	3511.58
643.467	3427.62
643.66	3274.02
643.853	3128.61
644.046	3196.2
644.239	2850.09
644.432	2817.32
644.626	2700.59
644.819	2565.42
645.012	2579.76
645.205	2540.85
645.398	2413.87
645.591	2172.21
645.784	2010.42
645.977	2065.72
646.17	1979.7
646.363	1985.85
646.556	1809.72
646.749	1742.14
646.942	1834.3
647.135	1731.9
647.328	1541.44
647.521	1629.5
647.714	1576.25
647.907	1432.9
648.099	1310.02
648.292	1346.88
648.485	1330.5
648.678	1221.95
648.871	1101.12
649.064	1310.02
649.256	994.63
649.449	978.25
649.642	951.62
649.835	1017.16
650.027	939.34
650.22	1015.11
650.413	943.43
650.605	853.32
650.798	738.63
650.991	783.69
651.183	773.45
651.376	693.58
651.568	763.21
651.761	587.08
651.954	757.07
652.146	664.91
652.339	666.96
652.531	662.86
652.724	585.04
652.916	593.23
653.109	427.34
653.301	623.95
653.494	640.33
653.686	601.42
653.879	587.08
654.071	623.95
654.263	419.15
654.456	433.49
654.648	474.45
654.84	486.73
655.033	357.71
655.225	476.49
655.417	257.36
655.61	456.01
655.802	390.48
655.994	439.63
656.186	345.42
656.379	374.1
656.571	304.46
656.763	288.08
656.955	290.13
657.148	370
657.34	374.1
657.532	216.4
657.724	245.07
657.916	367.95
658.108	421.2
658.3	415.05
658.492	290.13
658.684	283.99
658.876	304.46
659.068	169.3
659.26	150.87
659.452	189.78
659.644	249.17
659.836	374.1
660.028	257.36
660.22	177.49
660.412	259.41
660.604	234.83
660.796	288.08
660.988	337.23
661.18	236.88
661.372	263.51
661.563	163.15
661.755	177.49
661.947	60.76
662.139	193.87
662.331	175.44
662.522	251.22
662.714	193.87
662.906	148.82
663.097	204.11
663.289	120.15
663.481	85.33
663.673	240.98
663.864	183.63
664.056	132.44
664.247	118.1
664.439	240.98
664.631	116.05
664.822	257.36
665.014	210.26
665.205	15.7
665.397	114
665.588	222.55
665.78	163.15
665.971	251.22
666.163	97.62
666.354	146.77
666.546	124.24
666.737	150.87
666.929	114
667.12	54.61
667.311	195.92
667.503	54.61
667.694	56.66
667.885	228.69
668.077	171.35
668.268	17.75
668.459	134.48
668.651	157.01
668.842	173.39
669.033	38.23
669.224	99.67
669.416	281.94
669.607	95.57
669.798	13.65
669.989	226.64
670.18	208.21
670.371	179.54
670.563	-10.92
670.754	159.06
670.945	189.78
671.136	253.27
671.327	-8.87
671.518	200.02
671.709	283.99
671.9	189.78
672.091	286.03
672.282	202.07
672.473	169.3
672.664	23.89
672.855	171.35
673.046	122.2
673.237	179.54
673.428	114
673.619	128.34
673.809	189.78
674	308.56
674.191	238.93
674.382	93.52
674.573	157.01
674.764	148.82
674.954	222.55
675.145	99.67
675.336	50.52
675.527	73.04
675.717	150.87
675.908	150.87
676.099	144.72
676.289	134.48
676.48	71
676.671	116.05
676.861	130.39
677.052	185.68
677.243	128.34
677.433	122.2
677.624	177.49
677.814	238.93
678.005	140.63
678.195	308.56
678.386	83.28
678.576	118.1
678.767	103.76
678.957	224.59
679.148	197.97
679.338	265.55
679.529	171.35
679.719	111.96
679.909	216.4
680.1	232.79
680.29	171.35
680.481	177.49
680.671	212.31
680.861	240.98
681.052	238.93
681.242	150.87
681.432	238.93
681.622	175.44
681.813	202.07
682.003	218.45
682.193	107.86
682.383	236.88
682.573	208.21
682.764	83.28
682.954	193.87
683.144	310.61
683.334	146.77
683.524	212.31
683.714	240.98
683.904	173.39
684.094	255.31
684.284	200.02
684.474	361.81
684.664	290.13
684.854	271.7
685.044	189.78
685.234	195.92
685.424	216.4
685.614	189.78
685.804	326.99
685.994	253.27
686.184	214.35
686.374	236.88
686.564	335.18
686.753	189.78
686.943	118.1
687.133	204.11
687.323	136.53
687.513	222.55
687.702	171.35
687.892	179.54
688.082	304.46
688.272	273.75
688.461	189.78
688.651	310.61
688.841	220.5
689.03	163.15
689.22	183.63
689.41	304.46
689.599	236.88
689.789	236.88
689.979	386.38
690.168	283.99
690.358	265.55
690.547	243.03
690.737	236.88
690.926	218.45
691.116	214.35
691.305	322.9
691.495	253.27
691.684	181.59
691.874	185.68
692.063	275.79
692.252	269.65
692.442	230.74
692.631	183.63
692.82	89.43
693.01	224.59
693.199	202.07
693.388	267.6
693.578	146.77
693.767	259.41
693.956	318.8
694.146	173.39
694.335	236.88
694.524	189.78
694.713	294.22
694.902	181.59
695.092	177.49
695.281	251.22
695.47	216.4
695.659	181.59
695.848	247.12
696.037	167.25
696.226	298.32
696.415	204.11
696.604	245.07
696.793	310.61
696.982	189.78
697.171	316.75
697.36	173.39
697.549	177.49
697.738	189.78
697.927	234.83
698.116	89.43
698.305	304.46
698.494	275.79
698.683	204.11
698.872	386.38
699.061	204.11
699.25	222.55
699.438	152.91
699.627	150.87
699.816	261.46
700.005	204.11
700.193	134.48
700.382	214.35
700.571	259.41
700.76	224.59
700.948	245.07
701.137	210.26
701.326	290.13
701.514	89.43
701.703	197.97
701.892	255.31
702.08	390.48
702.269	128.34
702.457	150.87
702.646	202.07
702.834	204.11
703.023	316.75
703.212	269.65
703.4	253.27
703.589	173.39
703.777	163.15
703.965	159.06
704.154	212.31
704.342	111.96
704.531	212.31
704.719	318.8
704.907	279.89
705.096	89.43
705.284	161.11
705.472	185.68
705.661	283.99
705.849	249.17
706.037	261.46
706.226	245.07
706.414	363.86
706.602	114
706.79	324.94
706.979	185.68
707.167	197.97
707.355	159.06
707.543	210.26
707.731	208.21
707.919	214.35
708.107	210.26
708.296	187.73
708.484	161.11
708.672	197.97
708.86	232.79
709.048	212.31
709.236	179.54
709.424	206.16
709.612	226.64
709.8	132.44
709.988	183.63
710.176	269.65
710.364	341.33
710.551	236.88
710.739	193.87
710.927	169.3
711.115	234.83
711.303	349.52
711.491	333.14
711.679	116.05
711.866	265.55
712.054	142.68
712.242	230.74
712.43	238.93
712.617	179.54
712.805	308.56
712.993	206.16
713.181	200.02
713.368	245.07
713.556	200.02
713.744	161.11
713.931	345.42
714.119	370
714.306	191.83
714.494	120.15
714.682	212.31
714.869	161.11
715.057	157.01
715.244	136.53
715.432	308.56
715.619	195.92
715.807	218.45
715.994	173.39
716.182	197.97
716.369	347.47
716.556	202.07
716.744	204.11
716.931	73.04
717.119	318.8
717.306	263.51
717.493	245.07
717.681	208.21
717.868	103.76
718.055	251.22
718.242	177.49
718.43	253.27
718.617	298.32
718.804	93.52
718.991	343.38
719.179	316.75
719.366	208.21
719.553	181.59
719.74	271.7
719.927	187.73
720.114	165.2
720.301	126.29
720.488	148.82
720.676	134.48
720.863	302.42
721.05	316.75
721.237	306.51
721.424	288.08
721.611	288.08
721.798	161.11
721.985	177.49
722.172	136.53
722.358	288.08
722.545	273.75
722.732	234.83
722.919	367.95
723.106	290.13
723.293	146.77
723.48	204.11
723.667	161.11
723.853	318.8
724.04	210.26
724.227	355.66
724.414	253.27
724.6	298.32
724.787	398.67
724.974	394.58
725.161	279.89
725.347	302.42
725.534	277.84
725.72	226.64
725.907	333.14
726.094	378.19
726.28	165.2
726.467	249.17
726.653	206.16
726.84	394.58
727.027	363.86
727.213	271.7
727.4	308.56
727.586	302.42
727.773	347.47
727.959	281.94
728.145	275.79
728.332	341.33
728.518	222.55
728.705	374.1
728.891	253.27
729.077	337.23
729.264	212.31
729.45	275.79
729.636	341.33
729.823	302.42
730.009	337.23
730.195	298.32
730.382	435.53
730.568	216.4
730.754	388.43
730.94	202.07
731.126	316.75
731.313	462.16
731.499	261.46
731.685	320.85
731.871	390.48
732.057	288.08
732.243	341.33
732.429	341.33
732.615	435.53
732.801	316.75
732.987	341.33
733.173	290.13
733.359	218.45
733.545	365.9
733.731	279.89
733.917	396.62
734.103	288.08
734.289	306.51
734.475	249.17
734.661	419.15
734.847	333.14
735.033	265.55
735.219	335.18
735.404	236.88
735.59	230.74
735.776	228.69
735.962	322.9
736.148	345.42
736.333	435.53
736.519	374.1
736.705	300.37
736.89	353.62
737.076	329.04
737.262	232.79
737.447	318.8
737.633	261.46
737.819	402.77
738.004	359.76
738.19	271.7
738.375	408.91
738.561	376.14
738.747	316.75
738.932	283.99
739.118	458.06
739.303	361.81
739.489	341.33
739.674	261.46
739.859	189.78
740.045	341.33
740.23	310.61
740.416	101.72
740.601	392.53
740.786	347.47
740.972	208.21
741.157	273.75
741.342	238.93
741.528	228.69
741.713	353.62
741.898	329.04
742.084	296.27
742.269	351.57
742.454	351.57
742.639	470.35
742.824	275.79
743.01	460.11
743.195	370
743.38	333.14
743.565	292.18
743.75	275.79
743.935	345.42
744.12	437.58
744.305	163.15
744.49	331.09
744.675	300.37
744.86	290.13
745.045	343.38
745.23	279.89
745.415	257.36
745.6	329.04
745.785	286.03
745.97	417.1
746.155	357.71
746.34	421.2
746.525	294.22
746.71	382.29
746.895	232.79
747.079	228.69
747.264	257.36
747.449	318.8
747.634	406.86
747.819	322.9
748.003	304.46
748.188	200.02
748.373	310.61
748.557	251.22
748.742	236.88
748.927	279.89
749.111	240.98
749.296	308.56
749.481	320.85
749.665	277.84
749.85	220.5
750.034	333.14
750.219	273.75
750.404	257.36
750.588	273.75
750.773	140.63
750.957	345.42
751.141	240.98
751.326	341.33
751.51	171.35
751.695	222.55
751.879	210.26
752.064	359.76
752.248	265.55
752.432	347.47
752.617	314.7
752.801	283.99
752.985	265.55
753.17	312.66
753.354	288.08
753.538	261.46
753.722	189.78
753.907	222.55
754.091	179.54
754.275	216.4
754.459	157.01
754.643	187.73
754.828	193.87
755.012	177.49
755.196	236.88
755.38	255.31
755.564	292.18
755.748	154.96
755.932	302.42
756.116	189.78
756.3	267.6
756.484	157.01
756.668	296.27
756.852	54.61
757.036	163.15
757.22	251.22
757.404	134.48
757.588	163.15
757.772	265.55
757.956	220.5
758.14	343.38
758.323	175.44
758.507	247.12
758.691	234.83
758.875	337.23
759.059	267.6
759.242	253.27
759.426	257.36
759.61	185.68
759.794	79.19
759.977	263.51
760.161	378.19
760.345	216.4
760.528	185.68
760.712	259.41
760.895	245.07
761.079	208.21
761.263	128.34
761.446	120.15
761.63	175.44
761.813	273.75
761.997	107.86
762.18	187.73
762.364	175.44
762.547	13.65
762.731	173.39
762.914	183.63
763.098	128.34
763.281	165.2
763.464	118.1
763.648	122.2
763.831	177.49
764.015	122.2
764.198	286.03
764.381	152.91
764.564	68.95
764.748	116.05
764.931	204.11
765.114	154.96
765.297	263.51
765.481	42.32
765.664	240.98
765.847	142.68
766.03	183.63
766.213	109.91
766.397	99.67
766.58	68.95
766.763	169.3
766.946	126.29
767.129	159.06
767.312	46.42
767.495	138.58
767.678	85.33
767.861	146.77
768.044	73.04
768.227	109.91
768.41	68.95
768.593	169.3
768.776	54.61
768.959	77.14
769.142	202.07
769.324	89.43
769.507	130.39
769.69	103.76
769.873	150.87
770.056	288.08
770.239	114
770.421	206.16
770.604	167.25
770.787	109.91
770.97	132.44
771.152	11.61
771.335	218.45
771.518	105.81
771.7	150.87
771.883	183.63
772.066	124.24
772.248	177.49
772.431	238.93
772.613	107.86
772.796	116.05
772.978	91.48
773.161	271.7
773.343	105.81
773.526	64.85
773.708	-17.07
773.891	13.65
774.073	93.52
774.256	71
774.438	175.44
774.621	122.2
774.803	85.33
774.985	64.85
775.168	146.77
775.35	116.05
775.532	173.39
775.715	136.53
775.897	144.72
776.079	118.1
776.261	193.87
776.444	85.33
776.626	83.28
776.808	34.13
776.99	-2.73
777.173	130.39
777.355	62.8
777.537	75.09
777.719	114
777.901	34.13
778.083	3.41
778.265	-4.78
778.447	152.91
778.629	62.8
778.811	93.52
778.993	111.96
779.175	101.72
779.357	109.91
779.539	5.46
779.721	159.06
779.903	87.38
780.085	27.99
780.267	99.67
780.449	17.75
780.631	152.91
780.812	197.97
780.994	48.47
781.176	87.38
781.358	9.56
781.54	19.8
781.721	126.29
781.903	132.44
782.085	75.09
782.267	126.29
782.448	-17.07
782.63	97.62
782.812	77.14
782.993	89.43
783.175	81.24
783.357	1.37
783.538	73.04
783.72	-0.68
783.901	126.29
784.083	93.52
784.264	91.48
784.446	-41.64
784.627	-12.97
784.809	122.2
784.99	42.32
785.172	48.47
785.353	79.19
785.535	38.23
785.716	19.8
785.897	-37.55
786.079	15.7
786.26	46.42
786.441	171.35
786.623	-27.31
786.804	1.37
786.985	66.9
787.167	93.52
787.348	-4.78
787.529	-23.21
787.71	148.82
787.891	128.34
788.073	32.08
788.254	-15.02
788.435	167.25
788.616	38.23
788.797	7.51
788.978	46.42
789.159	-4.78
789.34	25.94
789.522	-23.21
789.703	-68.27
789.884	87.38
790.065	99.67
790.246	56.66
790.427	60.76
790.607	120.15
790.788	169.3
790.969	-76.46
791.15	30.04
791.331	23.89
791.512	40.28
791.693	-41.64
791.874	13.65
792.054	234.83
792.235	50.52
792.416	-0.68
792.597	-84.65
792.778	126.29
792.958	116.05
793.139	30.04
793.32	7.51
793.5	17.75
793.681	154.96
793.862	111.96
794.042	1.37
794.223	-47.79
794.404	-72.36
794.584	-88.75
794.765	99.67
794.945	97.62
795.126	97.62
795.306	124.24
795.487	-45.74
795.667	32.08
795.848	138.58
796.028	73.04
796.209	46.42
796.389	42.32
796.57	36.18
796.75	-60.07
796.93	44.37
797.111	-0.68
797.291	-27.31
797.471	105.81
797.652	-10.92
797.832	-0.68
798.012	13.65
798.192	-45.74
798.373	-43.69
798.553	-6.83
798.733	79.19
798.913	-49.83
799.093	-33.45
799.274	99.67
799.454	56.66
799.634	25.94
799.814	87.38
799.994	5.46
800.174	62.8
800.354	-6.83
800.534	-35.5
800.714	32.08
800.894	-6.83
801.074	-45.74
801.254	25.94
801.434	50.52
801.614	-58.03
801.794	21.85
801.974	1785.15
802.154	-55.98
802.334	161.11
802.514	-49.83
802.693	-43.69
802.873	13.65
803.053	56.66
803.233	71
803.413	32.08
803.592	42.32
803.772	-33.45
803.952	107.86
804.131	-58.03
804.311	93.52
804.491	91.48
804.67	38.23
804.85	60.76
805.03	-31.4
805.209	122.2
805.389	-37.55
805.568	-60.07
805.748	21.85
805.928	27.99
806.107	132.44
806.287	19.8
806.466	34.13
806.646	32.08
806.825	-51.88
807.004	-0.68
807.184	85.33
807.363	118.1
807.543	150.87
807.722	-119.46
807.901	89.43
808.081	30.04
808.26	-101.03
808.439	-19.11
808.619	-0.68
808.798	-51.88
808.977	60.76
809.156	64.85
809.336	40.28
809.515	56.66
809.694	-103.08
809.873	46.42
810.052	58.71
810.231	91.48
810.411	11.61
810.59	101.72
810.769	-12.97
810.948	118.1
811.127	-101.03
811.306	38.23
811.485	97.62
811.664	103.76
811.843	95.57
812.022	32.08
812.201	-4.78
812.38	-19.11
812.559	-2.73
812.737	-6.83
812.916	-39.59
813.095	-31.4
813.274	38.23
813.453	54.61
813.632	11.61
813.811	32.08
813.989	-78.51
814.168	48.47
814.347	30.04
814.526	30.04
814.704	111.96
814.883	136.53
815.062	-78.51
815.24	122.2
815.419	-74.41
815.598	7.51
815.776	-49.83
815.955	-62.12
816.133	-96.94
816.312	48.47
816.49	-98.99
816.669	99.67
816.847	54.61
817.026	21.85
817.204	-2.73
817.383	44.37
817.561	-88.75
817.74	71
817.918	23.89
818.097	62.8
818.275	-47.79
818.453	77.14
818.632	122.2
818.81	-0.68
818.988	30.04
819.167	-66.22
819.345	23.89
819.523	-80.55
819.701	3.41
819.879	60.76
820.058	23.89
820.236	17.75
820.414	-21.16
820.592	-41.64
820.77	25.94
820.948	-23.21
821.127	-45.74
821.305	42.32
821.483	-23.21
821.661	124.24
821.839	11.61
822.017	-15.02
822.195	-58.03
822.373	25.94
822.551	3.41
822.729	68.95
822.907	-51.88
823.085	95.57
823.262	19.8
823.44	-19.11
823.618	-25.26
823.796	11.61
823.974	3.41
824.152	-19.11
824.329	25.94
824.507	48.47
824.685	21.85
824.863	38.23
825.04	21.85
825.218	38.23
825.396	-10.92
825.574	54.61
825.751	-33.45
825.929	-25.26
826.107	-82.6
826.284	25.94
826.462	15.7
826.639	-78.51
826.817	-35.5
826.994	66.9
827.172	-53.93
827.349	120.15
827.527	-12.97
827.704	7.51
827.882	42.32
828.059	9.56
828.237	1.37
828.414	128.34
828.591	-43.69
828.769	120.15
828.946	-10.92
829.124	111.96
829.301	75.09
829.478	-27.31
829.655	30.04
829.833	21.85
830.01	-117.42
830.187	116.05
830.364	-8.87
830.542	48.47
830.719	103.76
830.896	15.7
831.073	7.51
831.25	19.8
831.427	56.66
831.604	58.71
831.782	-29.35
831.959	32.08
832.136	-51.88
832.313	-2.73
832.49	-55.98
832.667	3.41
832.844	-47.79
833.021	154.96
833.198	30.04
833.374	-41.64
833.551	56.66
833.728	-41.64
833.905	75.09
834.082	-109.22
834.259	42.32
834.436	87.38
834.612	-94.89
834.789	-33.45
834.966	-80.55
835.143	126.29
835.319	-74.41
835.496	-19.11
835.673	27.99
835.85	91.48
836.026	11.61
836.203	95.57
836.38	-31.4
836.556	-31.4
836.733	-60.07
836.909	73.04
837.086	27.99
837.262	-70.31
837.439	-45.74
837.616	-43.69
837.792	-37.55
837.968	64.85
838.145	-109.22
838.321	3.41
838.498	42.32
838.674	23.89
838.851	9.56
839.027	-47.79
839.203	-23.21
839.38	50.52
839.556	60.76
839.732	103.76
839.909	-37.55
840.085	-21.16
840.261	-80.55
840.437	-17.07
840.614	1.37
840.79	116.05
840.966	27.99
841.142	3.41
841.318	-39.59
841.494	58.71
841.671	15.7
841.847	-2.73
842.023	-76.46
842.199	13.65
842.375	105.81
842.551	-47.79
842.727	-60.07
842.903	75.09
843.079	-131.75
843.255	87.38
843.431	32.08
843.607	11.61
843.783	-170.66
843.959	87.38
844.134	-137.9
844.31	71
844.486	3.41
844.662	-88.75
844.838	-74.41
845.013	50.52
845.189	85.33
845.365	25.94
845.541	-37.55
845.716	-6.83
845.892	114
846.068	-68.27
846.244	-64.17
846.419	5.46
846.595	-0.68
846.77	-88.75
846.946	11.61
847.122	-51.88
847.297	-64.17
847.473	118.1
847.648	-76.46
847.824	-25.26
847.999	-96.94
848.175	-62.12
848.35	77.14
848.526	118.1
848.701	-25.26
848.876	3.41
849.052	42.32
849.227	38.23
849.403	-6.83
849.578	-17.07
849.753	-33.45
849.929	30.04
850.104	-68.27
850.279	-27.31
850.454	11.61
850.63	1.37
850.805	30.04
850.98	-33.45
851.155	-35.5
851.33	101.72
851.505	-103.08
851.681	103.76
851.856	-84.65
852.031	128.34
852.206	-76.46
852.381	-23.21
852.556	-27.31
852.731	52.56
852.906	95.57
853.081	-6.83
853.256	177.49
853.431	-41.64
853.606	-35.5
853.781	1.37
853.956	-211.62
854.131	-17.07
854.305	-27.31
854.48	-43.69
854.655	-37.55
854.83	-17.07
855.005	-58.03
855.18	-25.26
855.354	-12.97
855.529	73.04
855.704	-33.45
855.879	15.7
856.053	-0.68
856.228	-2.73
856.403	-84.65
856.577	50.52
856.752	-148.14
856.926	-45.74
857.101	-8.87
857.276	-117.42
857.45	27.99
857.625	62.8
857.799	56.66
857.974	15.7
858.148	-74.41
858.323	48.47
858.497	-58.03
858.672	-37.55
858.846	-31.4
859.02	95.57
859.195	-88.75
859.369	52.56
859.543	-2.73
859.718	32.08
859.892	-6.83
860.066	17.75
860.241	-66.22
860.415	-68.27
860.589	58.71
860.763	5.46
860.938	-45.74
861.112	85.33
861.286	-35.5
861.46	34.13
861.634	-43.69
861.808	-23.21
861.982	-137.9
862.157	-64.17
862.331	5.46
862.505	-98.99
862.679	-154.28
862.853	9.56
863.027	-19.11
863.201	118.1
863.375	-133.8
863.549	36.18
863.722	3.41
863.896	81.24
864.07	-76.46
864.244	19.8
864.418	5.46
864.592	-41.64
864.766	25.94
864.939	3.41
865.113	-17.07
865.287	66.9
865.461	-31.4
865.634	3.41
865.808	-64.17
865.982	-29.35
866.156	-21.16
866.329	-164.52
866.503	68.95
866.676	34.13
866.85	75.09
867.024	-35.5
867.197	157.01
867.371	23.89
867.544	9.56
867.718	-117.42
867.891	71
868.065	-98.99
868.238	34.13
868.412	36.18
868.585	-23.21
868.759	-101.03
868.932	-82.6
869.105	-74.41
869.279	-29.35
869.452	-35.5
869.625	-37.55
869.799	-43.69
869.972	-92.84
870.145	23.89
870.319	64.85
870.492	-39.59
870.665	-17.07
870.838	-8.87
871.011	-129.7
871.185	-51.88
871.358	-125.61
871.531	-2.73
871.704	-53.93
871.877	7.51
872.05	-0.68
872.223	-96.94
872.396	99.67
872.569	58.71
872.742	-158.38
872.915	9.56
873.088	-37.55
873.261	-68.27
873.434	7.51
873.607	-33.45
873.78	36.18
873.953	-15.02
874.126	36.18
874.299	27.99
874.471	-55.98
874.644	-8.87
874.817	52.56
874.99	148.82
875.163	-80.55
875.335	-17.07
875.508	23.89
875.681	52.56
875.853	-41.64
876.026	-15.02
876.199	36.18
876.371	1.37
876.544	1.37
876.717	-2.73
876.889	-119.46
877.062	17.75
877.234	-6.83
877.407	34.13
877.579	-47.79
877.752	-6.83
877.924	30.04
878.097	-43.69
878.269	-55.98
878.442	73.04
878.614	25.94
878.786	-12.97
878.959	32.08
879.131	17.75
879.303	-141.99
879.476	-33.45
879.648	91.48
879.82	75.09
879.993	-60.07
880.165	-49.83
880.337	-31.4
880.509	5.46
880.681	-133.8
880.854	-103.08
881.026	99.67
881.198	148.82
881.37	9.56
881.542	-8.87
881.714	5.46
881.886	-58.03
882.058	27.99
882.23	66.9
882.402	-84.65
882.574	7.51
882.746	44.37
882.918	7.51
883.09	19.8
883.262	-66.22
883.434	13.65
883.606	23.89
883.778	36.18
883.95	116.05
884.122	-43.69
884.293	42.32
884.465	-21.16
884.637	25.94
884.809	-51.88
884.98	5.46
885.152	32.08
885.324	27.99
885.496	-29.35
885.667	-80.55
885.839	-109.22
886.011	124.24
886.182	21.85
886.354	42.32
886.525	-15.02
886.697	23.89
886.869	-109.22
887.04	-4.78
887.212	179.54
887.383	146.77
887.555	5.46
887.726	-53.93
887.897	-17.07
888.069	-47.79
888.24	79.19
888.412	-25.26
888.583	-23.21
888.754	-25.26
888.926	-103.08
889.097	13.65
889.268	-72.36
889.44	-15.02
889.611	-101.03
889.782	-27.31
889.953	-127.66
890.125	30.04
890.296	-74.41
890.467	-76.46
890.638	-105.13
890.809	-82.6
890.98	-19.11
891.151	124.24
891.323	138.58
891.494	13.65
891.665	-66.22
891.836	1.37
892.007	-43.69
892.178	75.09
892.349	81.24
892.52	-62.12
892.691	-33.45
892.862	1.37
893.032	-101.03
893.203	-39.59
893.374	-47.79
893.545	17.75
893.716	-17.07
893.887	42.32
894.057	-105.13
894.228	-33.45
894.399	-27.31
894.57	126.29
894.74	-66.22
894.911	5.46
895.082	-29.35
895.253	-98.99
895.423	-29.35
895.594	-23.21
895.764	-31.4
895.935	-107.18
896.106	5.46
896.276	-84.65
896.447	-27.31
896.617	-74.41
896.788	-66.22
896.958	-113.32
897.129	34.13
897.299	-90.79
897.47	68.95
897.64	56.66
897.81	-8.87
897.981	52.56
898.151	-4.78
898.322	42.32
898.492	50.52
898.662	-103.08
898.832	-121.51
899.003	-103.08
899.173	-4.78
899.343	-135.85
899.513	-45.74
