Data from USB4F104151__68__11-30-58-264.txt Node

Date: Wed Feb 26 11:30:58 EST 2025
User: louis
Spectrometer: USB4F10415
Trigger mode: 4
Integration Time (sec): 1.000000E-1
Scans to average: 1
Electric dark correction enabled: true
Nonlinearity correction enabled: false
Boxcar width: 0
XAxis mode: Wavelengths
Number of Pixels in Spectrum: 3648
>>>>>Begin Spectral Data<<<<<
178.204	-420
178.424	-420
178.644	-420
178.864	-448.68
179.084	-362.66
179.304	63.32
179.524	-51.37
179.744	-6.31
179.964	96.08
180.184	1.88
180.404	28.5
180.624	-86.19
180.844	34.64
181.064	-55.47
181.283	34.64
181.503	-110.76
181.723	51.03
181.943	-118.95
182.163	161.62
182.383	-69.8
182.602	8.02
182.822	171.86
183.042	22.36
183.262	-45.23
183.482	-4.27
183.701	-18.6
183.921	38.74
184.141	-14.51
184.361	120.66
184.58	96.08
184.8	18.26
185.02	-37.03
185.239	110.42
185.459	-20.65
185.679	116.56
185.898	-67.75
186.118	81.75
186.338	55.12
186.557	98.13
186.777	-69.8
186.997	-104.62
187.216	55.12
187.436	229.2
187.655	3.93
187.875	75.6
188.095	59.22
188.314	94.04
188.534	65.36
188.753	-88.23
188.973	96.08
189.192	169.81
189.412	1.88
189.631	73.56
189.851	34.64
190.07	94.04
190.29	-57.51
190.509	32.6
190.729	20.31
190.948	118.61
191.168	218.96
191.387	8.02
191.607	44.88
191.826	48.98
192.045	53.08
192.265	3.93
192.484	1.88
192.704	-6.31
192.923	-0.17
193.142	171.86
193.362	71.51
193.581	235.35
193.8	51.03
194.02	89.94
194.239	34.64
194.458	16.21
194.678	-32.94
194.897	81.75
195.116	44.88
195.335	85.84
195.555	63.32
195.774	-49.32
195.993	120.66
196.212	1.88
196.432	30.55
196.651	-114.86
196.87	-10.41
197.089	223.06
197.308	32.6
197.528	89.94
197.747	42.84
197.966	48.98
198.185	137.04
198.404	-6.31
198.623	108.37
198.842	108.37
199.062	71.51
199.281	30.55
199.5	77.65
199.719	-32.94
199.938	-22.7
200.157	42.84
200.376	87.89
200.595	165.71
200.814	5.97
201.033	-82.09
201.252	157.52
201.471	77.65
201.69	22.36
201.909	53.08
202.128	83.8
202.347	110.42
202.566	46.93
202.785	-59.56
203.004	36.69
203.223	243.54
203.442	42.84
203.661	10.07
203.879	81.75
204.098	139.09
204.317	-47.27
204.536	98.13
204.755	75.6
204.974	81.75
205.193	42.84
205.411	75.6
205.63	96.08
205.849	59.22
206.068	-26.79
206.287	-32.94
206.505	182.1
206.724	26.45
206.943	-8.36
207.162	-16.55
207.381	28.5
207.599	24.4
207.818	18.26
208.037	44.88
208.255	-30.89
208.474	122.71
208.693	20.31
208.911	-2.22
209.13	57.17
209.349	87.89
209.567	24.4
209.786	112.47
210.005	112.47
210.223	14.17
210.442	-131.24
210.661	-57.51
210.879	40.79
211.098	16.21
211.316	-92.33
211.535	67.41
211.753	48.98
211.972	28.5
212.191	-88.23
212.409	10.07
212.628	159.57
212.846	5.97
213.065	32.6
213.283	98.13
213.502	48.98
213.72	-55.47
213.938	40.79
214.157	26.45
214.375	24.4
214.594	-18.6
214.812	36.69
215.031	38.74
215.249	26.45
215.467	-12.46
215.686	24.4
215.904	32.6
216.122	-80.04
216.341	149.33
216.559	83.8
216.778	44.88
216.996	169.81
217.214	83.8
217.432	-8.36
217.651	14.17
217.869	10.07
218.087	-84.14
218.306	-53.42
218.524	73.56
218.742	26.45
218.96	69.46
219.179	61.27
219.397	65.36
219.615	143.19
219.833	38.74
220.051	-16.55
220.27	116.56
220.488	198.48
220.706	106.32
220.924	55.12
221.142	16.21
221.36	8.02
221.578	30.55
221.796	-28.84
222.015	30.55
222.233	57.17
222.451	139.09
222.669	-39.08
222.887	102.23
223.105	-94.38
223.323	20.31
223.541	-51.37
223.759	110.42
223.977	26.45
224.195	178
224.413	38.74
224.631	69.46
224.849	112.47
225.067	122.71
225.285	-0.17
225.503	-10.41
225.721	-20.65
225.939	38.74
226.157	89.94
226.375	153.43
226.592	-34.99
226.81	-22.7
227.028	73.56
227.246	91.99
227.464	65.36
227.682	59.22
227.9	46.93
228.117	81.75
228.335	-6.31
228.553	-53.42
228.771	-10.41
228.989	122.71
229.206	40.79
229.424	16.21
229.642	-37.03
229.86	-49.32
230.077	151.38
230.295	44.88
230.513	51.03
230.731	-49.32
230.948	147.28
231.166	65.36
231.384	1.88
231.601	-41.13
231.819	143.19
232.037	-4.27
232.254	-69.8
232.472	38.74
232.689	-12.46
232.907	104.28
233.125	-30.89
233.342	-0.17
233.56	-20.65
233.777	1.88
233.995	-80.04
234.213	91.99
234.43	-0.17
234.648	57.17
234.865	-16.55
235.083	26.45
235.3	32.6
235.518	171.86
235.735	112.47
235.953	48.98
236.17	26.45
236.388	-10.41
236.605	-32.94
236.822	87.89
237.04	94.04
237.257	135
237.475	-39.08
237.692	42.84
237.909	32.6
238.127	81.75
238.344	73.56
238.562	91.99
238.779	-86.19
238.996	-0.17
239.214	8.02
239.431	81.75
239.648	-53.42
239.865	67.41
240.083	128.85
240.3	-2.22
240.517	-53.42
240.735	18.26
240.952	87.89
241.169	28.5
241.386	44.88
241.603	-22.7
241.821	-121
242.038	44.88
242.255	94.04
242.472	-84.14
242.689	61.27
242.907	34.64
243.124	51.03
243.341	-8.36
243.558	-41.13
243.775	-63.66
243.992	-39.08
244.209	75.6
244.426	120.66
244.643	57.17
244.86	28.5
245.078	102.23
245.295	110.42
245.512	67.41
245.729	-2.22
245.946	42.84
246.163	8.02
246.38	40.79
246.597	40.79
246.814	24.4
247.031	28.5
247.248	110.42
247.464	57.17
247.681	-18.6
247.898	75.6
248.115	75.6
248.332	-0.17
248.549	100.18
248.766	114.52
248.983	110.42
249.2	110.42
249.417	1.88
249.633	-0.17
249.85	59.22
250.067	1.88
250.284	20.31
250.501	42.84
250.717	3.93
250.934	-30.89
251.151	-26.79
251.368	69.46
251.585	46.93
251.801	94.04
252.018	14.17
252.235	91.99
252.451	-24.75
252.668	-2.22
252.885	124.76
253.102	112.47
253.318	-16.55
253.535	-18.6
253.752	3.93
253.968	-22.7
254.185	-34.99
254.401	57.17
254.618	36.69
254.835	-51.37
255.051	122.71
255.268	42.84
255.484	30.55
255.701	-67.75
255.917	65.36
256.134	-18.6
256.351	-37.03
256.567	-67.75
256.784	18.26
257	-110.76
257.217	126.8
257.433	94.04
257.65	83.8
257.866	102.23
258.082	-20.65
258.299	-71.85
258.515	53.08
258.732	24.4
258.948	-28.84
259.165	42.84
259.381	-16.55
259.597	34.64
259.814	-26.79
260.03	28.5
260.246	40.79
260.463	77.65
260.679	75.6
260.895	65.36
261.112	71.51
261.328	124.76
261.544	5.97
261.761	89.94
261.977	-16.55
262.193	-45.23
262.409	53.08
262.626	-16.55
262.842	57.17
263.058	-65.71
263.274	114.52
263.49	53.08
263.707	-2.22
263.923	137.04
264.139	-39.08
264.355	16.21
264.571	106.32
264.787	87.89
265.004	169.81
265.22	-39.08
265.436	14.17
265.652	-34.99
265.868	126.8
266.084	5.97
266.3	18.26
266.516	-34.99
266.732	42.84
266.948	-4.27
267.164	-59.56
267.38	8.02
267.596	22.36
267.812	157.52
268.028	5.97
268.244	-16.55
268.46	-32.94
268.676	-34.99
268.892	24.4
269.108	1.88
269.324	-59.56
269.54	-102.57
269.756	114.52
269.972	-67.75
270.188	48.98
270.403	-37.03
270.619	-47.27
270.835	61.27
271.051	67.41
271.267	-59.56
271.483	-82.09
271.698	112.47
271.914	32.6
272.13	22.36
272.346	-28.84
272.562	51.03
272.777	186.19
272.993	32.6
273.209	-28.84
273.425	65.36
273.64	-133.29
273.856	51.03
274.072	24.4
274.287	-2.22
274.503	114.52
274.719	96.08
274.934	59.22
275.15	-22.7
275.366	-57.51
275.581	-18.6
275.797	-6.31
276.012	98.13
276.228	-53.42
276.444	55.12
276.659	75.6
276.875	-6.31
277.09	-22.7
277.306	94.04
277.521	61.27
277.737	3.93
277.952	110.42
278.168	-16.55
278.383	14.17
278.599	22.36
278.814	137.04
279.03	-16.55
279.245	112.47
279.461	67.41
279.676	167.76
279.892	-82.09
280.107	-96.43
280.322	-49.32
280.538	126.8
280.753	-4.27
280.969	5.97
281.184	40.79
281.399	157.52
281.615	-53.42
281.83	69.46
282.045	-18.6
282.26	-24.75
282.476	-53.42
282.691	161.62
282.906	69.46
283.122	18.26
283.337	-65.71
283.552	130.9
283.767	-32.94
283.983	100.18
284.198	12.12
284.413	85.84
284.628	-65.71
284.843	40.79
285.058	126.8
285.274	-24.75
285.489	22.36
285.704	51.03
285.919	-39.08
286.134	-49.32
286.349	10.07
286.564	10.07
286.779	46.93
286.995	5.97
287.21	-84.14
287.425	83.8
287.64	16.21
287.855	106.32
288.07	34.64
288.285	98.13
288.5	145.24
288.715	83.8
288.93	24.4
289.145	-106.67
289.36	73.56
289.575	-26.79
289.79	137.04
290.004	32.6
290.219	77.65
290.434	26.45
290.649	46.93
290.864	-28.84
291.079	-4.27
291.294	-20.65
291.509	10.07
291.724	-16.55
291.938	-73.9
292.153	112.47
292.368	18.26
292.583	20.31
292.798	124.76
293.012	57.17
293.227	85.84
293.442	-39.08
293.657	22.36
293.871	91.99
294.086	32.6
294.301	214.87
294.516	173.91
294.73	46.93
294.945	-30.89
295.16	-6.31
295.374	87.89
295.589	26.45
295.804	-18.6
296.018	5.97
296.233	34.64
296.447	85.84
296.662	-24.75
296.877	-6.31
297.091	24.4
297.306	-37.03
297.52	-65.71
297.735	-28.84
297.949	46.93
298.164	48.98
298.378	38.74
298.593	14.17
298.807	-22.7
299.022	-39.08
299.236	110.42
299.451	-53.42
299.665	38.74
299.88	-32.94
300.094	32.6
300.309	3.93
300.523	42.84
300.737	46.93
300.952	102.23
301.166	28.5
301.381	-20.65
301.595	18.26
301.809	53.08
302.024	61.27
302.238	-37.03
302.452	26.45
302.667	51.03
302.881	40.79
303.095	104.28
303.309	28.5
303.524	-47.27
303.738	-39.08
303.952	-47.27
304.166	61.27
304.381	-82.09
304.595	65.36
304.809	-75.95
305.023	51.03
305.237	-28.84
305.452	24.4
305.666	57.17
305.88	48.98
306.094	108.37
306.308	55.12
306.522	87.89
306.736	-100.52
306.95	71.51
307.164	20.31
307.379	-82.09
307.593	139.09
307.807	108.37
308.021	81.75
308.235	100.18
308.449	30.55
308.663	-12.46
308.877	163.67
309.091	-18.6
309.305	135
309.519	-112.81
309.733	81.75
309.947	-45.23
310.161	77.65
310.374	67.41
310.588	182.1
310.802	-67.75
311.016	-116.9
311.23	71.51
311.444	-8.36
311.658	38.74
311.872	116.56
312.085	155.47
312.299	61.27
312.513	73.56
312.727	71.51
312.941	44.88
313.154	100.18
313.368	124.76
313.582	-8.36
313.796	67.41
314.009	20.31
314.223	79.7
314.437	108.37
314.651	130.9
314.864	1.88
315.078	-24.75
315.292	5.97
315.505	-51.37
315.719	85.84
315.933	73.56
316.146	-22.7
316.36	-80.04
316.573	145.24
316.787	73.56
317.001	18.26
317.214	-59.56
317.428	16.21
317.641	-26.79
317.855	-20.65
318.068	53.08
318.282	36.69
318.495	151.38
318.709	34.64
318.922	81.75
319.136	149.33
319.349	112.47
319.563	-2.22
319.776	51.03
319.99	-14.51
320.203	71.51
320.417	18.26
320.63	67.41
320.843	132.95
321.057	81.75
321.27	5.97
321.483	67.41
321.697	87.89
321.91	63.32
322.124	51.03
322.337	102.23
322.55	3.93
322.763	40.79
322.977	-24.75
323.19	-61.61
323.403	28.5
323.617	34.64
323.83	122.71
324.043	-37.03
324.256	85.84
324.469	-153.77
324.683	112.47
324.896	24.4
325.109	61.27
325.322	-61.61
325.535	32.6
325.748	96.08
325.962	16.21
326.175	8.02
326.388	61.27
326.601	75.6
326.814	10.07
327.027	18.26
327.24	206.67
327.453	-84.14
327.666	40.79
327.879	124.76
328.092	87.89
328.305	42.84
328.518	48.98
328.731	-43.18
328.944	-53.42
329.157	98.13
329.37	-12.46
329.583	124.76
329.796	190.29
330.009	-41.13
330.222	161.62
330.435	44.88
330.648	57.17
330.861	79.7
331.073	26.45
331.286	36.69
331.499	46.93
331.712	-84.14
331.925	55.12
332.138	48.98
332.35	73.56
332.563	-4.27
332.776	79.7
332.989	-69.8
333.202	-12.46
333.414	-94.38
333.627	-45.23
333.84	-8.36
334.053	89.94
334.265	-10.41
334.478	-4.27
334.691	57.17
334.903	-59.56
335.116	24.4
335.329	38.74
335.541	61.27
335.754	130.9
335.966	16.21
336.179	40.79
336.392	18.26
336.604	-26.79
336.817	112.47
337.029	36.69
337.242	20.31
337.454	85.84
337.667	100.18
337.88	114.52
338.092	91.99
338.305	73.56
338.517	-53.42
338.729	63.32
338.942	102.23
339.154	48.98
339.367	12.12
339.579	59.22
339.792	-39.08
340.004	81.75
340.217	16.21
340.429	38.74
340.641	-45.23
340.854	-71.85
341.066	8.02
341.278	104.28
341.491	145.24
341.703	-32.94
341.915	20.31
342.128	151.38
342.34	42.84
342.552	14.17
342.764	102.23
342.977	20.31
343.189	65.36
343.401	67.41
343.613	-30.89
343.826	5.97
344.038	-73.9
344.25	61.27
344.462	1.88
344.674	-0.17
344.886	12.12
345.099	46.93
345.311	124.76
345.523	-4.27
345.735	-49.32
345.947	28.5
346.159	69.46
346.371	-30.89
346.583	-43.18
346.795	192.34
347.007	28.5
347.219	5.97
347.431	-32.94
347.643	89.94
347.855	-8.36
348.067	130.9
348.279	-67.75
348.491	98.13
348.703	-32.94
348.915	1.88
349.127	-41.13
349.339	57.17
349.551	-22.7
349.763	69.46
349.975	16.21
350.187	100.18
350.399	57.17
350.61	46.93
350.822	65.36
351.034	14.17
351.246	98.13
351.458	61.27
351.669	79.7
351.881	96.08
352.093	69.46
352.305	163.67
352.517	71.51
352.728	96.08
352.94	-32.94
353.152	106.32
353.363	-30.89
353.575	69.46
353.787	135
353.999	63.32
354.21	202.58
354.422	-96.43
354.633	-6.31
354.845	42.84
355.057	67.41
355.268	5.97
355.48	48.98
355.692	-34.99
355.903	44.88
356.115	-69.8
356.326	-108.71
356.538	157.52
356.749	67.41
356.961	180.05
357.172	8.02
357.384	-63.66
357.595	165.71
357.807	-6.31
358.018	-110.76
358.23	-24.75
358.441	137.04
358.653	108.37
358.864	18.26
359.075	-55.47
359.287	-14.51
359.498	61.27
359.709	83.8
359.921	-10.41
360.132	114.52
360.344	-61.61
360.555	-8.36
360.766	30.55
360.977	26.45
361.189	143.19
361.4	1.88
361.611	96.08
361.823	79.7
362.034	5.97
362.245	-102.57
362.456	-12.46
362.667	3.93
362.879	-100.52
363.09	-0.17
363.301	30.55
363.512	59.22
363.723	-96.43
363.935	-39.08
364.146	149.33
364.357	40.79
364.568	-41.13
364.779	-49.32
364.99	55.12
365.201	-10.41
365.412	122.71
365.623	-8.36
365.834	81.75
366.045	-4.27
366.256	48.98
366.467	30.55
366.678	-18.6
366.889	112.47
367.1	-10.41
367.311	75.6
367.522	10.07
367.733	83.8
367.944	46.93
368.155	28.5
368.366	26.45
368.577	81.75
368.788	67.41
368.999	-18.6
369.209	42.84
369.42	204.63
369.631	241.49
369.842	67.41
370.053	-12.46
370.264	145.24
370.474	-47.27
370.685	79.7
370.896	51.03
371.107	120.66
371.317	18.26
371.528	63.32
371.739	89.94
371.95	51.03
372.16	-34.99
372.371	-2.22
372.582	1.88
372.792	46.93
373.003	53.08
373.214	65.36
373.424	48.98
373.635	-77.99
373.846	118.61
374.056	42.84
374.267	48.98
374.477	108.37
374.688	79.7
374.898	71.51
375.109	-0.17
375.319	102.23
375.53	-16.55
375.74	59.22
375.951	-4.27
376.161	14.17
376.372	51.03
376.582	-59.56
376.793	34.64
377.003	-57.51
377.214	-16.55
377.424	112.47
377.635	-102.57
377.845	-73.9
378.055	83.8
378.266	-24.75
378.476	30.55
378.686	65.36
378.897	28.5
379.107	155.47
379.317	67.41
379.528	-71.85
379.738	38.74
379.948	20.31
380.158	98.13
380.369	40.79
380.579	36.69
380.789	-20.65
380.999	145.24
381.21	100.18
381.42	159.57
381.63	-69.8
381.84	110.42
382.05	5.97
382.261	96.08
382.471	163.67
382.681	-24.75
382.891	194.39
383.101	34.64
383.311	-45.23
383.521	44.88
383.731	83.8
383.941	71.51
384.151	75.6
384.361	-53.42
384.571	79.7
384.781	67.41
384.991	223.06
385.201	163.67
385.411	53.08
385.621	69.46
385.831	71.51
386.041	73.56
386.251	12.12
386.461	120.66
386.671	-0.17
386.881	42.84
387.091	61.27
387.301	89.94
387.511	61.27
387.72	48.98
387.93	48.98
388.14	-51.37
388.35	51.03
388.56	139.09
388.769	128.85
388.979	79.7
389.189	55.12
389.399	-20.65
389.609	77.65
389.818	118.61
390.028	38.74
390.238	65.36
390.447	-45.23
390.657	122.71
390.867	59.22
391.076	-67.75
391.286	48.98
391.496	20.31
391.705	59.22
391.915	130.9
392.125	30.55
392.334	91.99
392.544	112.47
392.753	12.12
392.963	-12.46
393.172	55.12
393.382	-20.65
393.591	180.05
393.801	-26.79
394.01	48.98
394.22	46.93
394.429	32.6
394.639	-71.85
394.848	22.36
395.058	42.84
395.267	10.07
395.477	91.99
395.686	46.93
395.895	221.01
396.105	214.87
396.314	114.52
396.524	-4.27
396.733	20.31
396.942	-20.65
397.152	67.41
397.361	135
397.57	30.55
397.78	77.65
397.989	63.32
398.198	171.86
398.407	-26.79
398.617	67.41
398.826	46.93
399.035	10.07
399.244	175.95
399.453	71.51
399.663	59.22
399.872	135
400.081	-8.36
400.29	128.85
400.499	-41.13
400.708	114.52
400.917	75.6
401.127	-8.36
401.336	69.46
401.545	173.91
401.754	167.76
401.963	44.88
402.172	94.04
402.381	-8.36
402.59	44.88
402.799	-63.66
403.008	75.6
403.217	48.98
403.426	71.51
403.635	-88.23
403.844	81.75
404.053	26.45
404.262	77.65
404.471	190.29
404.68	36.69
404.888	75.6
405.097	42.84
405.306	48.98
405.515	137.04
405.724	-39.08
405.933	71.51
406.142	-0.17
406.35	85.84
406.559	79.7
406.768	22.36
406.977	202.58
407.185	51.03
407.394	61.27
407.603	14.17
407.812	28.5
408.02	135
408.229	51.03
408.438	36.69
408.646	-75.95
408.855	24.4
409.064	65.36
409.272	38.74
409.481	153.43
409.69	-53.42
409.898	-6.31
410.107	81.75
410.315	100.18
410.524	-77.99
410.733	18.26
410.941	44.88
411.15	96.08
411.358	-59.56
411.567	126.8
411.775	1.88
411.984	51.03
412.192	77.65
412.401	-22.7
412.609	159.57
412.818	112.47
413.026	75.6
413.234	36.69
413.443	118.61
413.651	-49.32
413.86	14.17
414.068	120.66
414.276	130.9
414.485	46.93
414.693	202.58
414.901	132.95
415.11	57.17
415.318	-26.79
415.526	83.8
415.734	51.03
415.943	87.89
416.151	32.6
416.359	-0.17
416.567	71.51
416.776	87.89
416.984	135
417.192	190.29
417.4	40.79
417.608	57.17
417.817	32.6
418.025	141.14
418.233	198.48
418.441	12.12
418.649	18.26
418.857	38.74
419.065	106.32
419.273	40.79
419.481	112.47
419.689	40.79
419.897	48.98
420.105	-55.47
420.313	46.93
420.521	116.56
420.729	81.75
420.937	-108.71
421.145	57.17
421.353	24.4
421.561	225.11
421.769	12.12
421.977	-69.8
422.185	124.76
422.393	65.36
422.601	118.61
422.809	77.65
423.017	26.45
423.224	53.08
423.432	135
423.64	38.74
423.848	153.43
424.056	32.6
424.263	132.95
424.471	-51.37
424.679	83.8
424.887	51.03
425.094	94.04
425.302	98.13
425.51	79.7
425.718	89.94
425.925	85.84
426.133	3.93
426.341	122.71
426.548	-6.31
426.756	30.55
426.964	-0.17
427.171	81.75
427.379	89.94
427.586	81.75
427.794	100.18
428.001	106.32
428.209	40.79
428.417	159.57
428.624	116.56
428.832	147.28
429.039	118.61
429.247	32.6
429.454	110.42
429.662	274.26
429.869	85.84
430.076	167.76
430.284	116.56
430.491	178
430.699	171.86
430.906	233.3
431.114	137.04
431.321	169.81
431.528	48.98
431.736	120.66
431.943	147.28
432.15	225.11
432.358	202.58
432.565	235.35
432.772	20.31
432.979	241.49
433.187	112.47
433.394	253.78
433.601	71.51
433.808	292.69
434.016	270.16
434.223	175.95
434.43	237.39
434.637	341.84
434.844	278.35
435.052	278.35
435.259	300.88
435.466	327.5
435.673	245.59
435.88	313.17
436.087	300.88
436.294	323.41
436.501	309.07
436.708	270.16
436.915	304.98
437.122	352.08
437.329	237.39
437.537	225.11
437.743	366.42
437.95	452.43
438.157	413.52
438.364	337.74
438.571	446.29
438.778	454.48
438.985	485.2
439.192	477.01
439.399	511.82
439.606	538.45
439.813	540.49
440.02	579.4
440.227	790.35
440.433	546.64
440.64	483.15
440.847	489.29
441.054	585.55
441.261	665.42
441.467	683.85
441.674	689.99
441.881	761.67
442.088	632.65
442.294	773.96
442.501	859.98
442.708	808.78
442.914	829.26
443.121	997.19
443.328	929.61
443.534	991.05
443.741	927.56
443.948	884.55
444.154	976.71
444.361	1165.12
444.568	1034.05
444.774	1144.64
444.981	1042.25
445.187	1310.53
445.394	1259.33
445.6	1216.32
445.807	1335.1
446.013	1392.45
446.22	1304.39
446.426	1535.81
446.633	1537.85
446.839	1713.98
447.046	1455.94
447.252	1797.95
447.459	1711.93
447.665	1824.57
447.871	2045.75
448.078	2115.38
448.284	2019.13
448.491	2256.69
448.697	2164.53
448.903	2324.27
449.11	2338.61
449.316	2207.54
449.522	2608.94
449.728	2672.43
449.935	2723.63
450.141	2774.83
450.347	2985.77
450.553	2860.84
450.76	2987.82
450.966	3209
451.172	3225.38
451.378	3309.35
451.584	3489.57
451.791	3759.9
451.997	3903.26
452.203	3983.13
452.409	4101.91
452.615	4198.17
452.821	4161.3
453.027	4151.06
453.233	4683.53
453.44	4525.84
453.646	4830.99
453.852	5105.42
454.058	5177.09
454.264	5275.4
454.47	5654.27
454.676	5738.24
454.882	6407.92
455.088	6020.86
455.294	6434.55
455.5	6684.4
455.705	6971.11
455.911	7116.52
456.117	7356.13
456.323	7694.05
456.529	7657.18
456.735	8318.68
456.941	8427.22
457.147	8902.35
457.352	9205.45
457.558	9410.25
457.764	9848.51
457.97	10167.99
458.176	10602.16
458.381	11054.76
458.587	11488.93
458.793	11919.01
458.999	11919.01
459.204	13366.92
459.41	13844.1
459.616	13602.44
459.821	14321.27
460.027	14886.51
460.233	15773.28
460.438	15816.29
460.644	16750.17
460.85	16842.32
461.055	17538.63
461.261	18470.46
461.466	18175.55
461.672	18542.14
461.878	20487.71
462.083	20477.47
462.289	20659.74
462.494	21720.59
462.7	21769.74
462.905	22388.22
463.111	24045.03
463.316	25314.77
463.522	25759.18
463.727	26539.46
463.932	27407.8
464.138	28294.57
464.343	29365.65
464.549	29742.48
464.754	31378.81
464.959	32501.09
465.165	32992.61
465.37	32697.7
465.575	32824.67
465.781	34962.75
465.986	36183.34
466.191	35458.36
466.397	35859.76
466.602	34665.8
466.807	37041.44
467.012	37776.66
467.218	37922.07
467.423	38190.35
467.628	39507.19
467.833	41465.05
468.038	40613.1
468.244	39507.19
468.449	41886.93
468.654	41059.55
468.859	40961.25
469.064	41073.89
469.269	39984.37
469.474	40742.12
469.679	41663.71
469.885	40328.43
470.09	40707.3
470.295	41405.66
470.5	40678.63
470.705	40525.03
470.91	39515.39
471.115	39113.98
471.32	39822.58
471.525	39283.97
471.73	38368.52
471.935	37903.63
472.139	36572.46
472.344	36816.16
472.549	36447.53
472.754	35657.01
472.959	34839.87
473.164	33385.82
473.369	33178.97
473.574	33750.35
473.778	33256.79
473.983	32595.3
474.188	32468.33
474.393	31155.58
474.598	30797.18
474.802	29961.61
475.007	29617.55
475.212	29080.99
475.417	27891.12
475.621	27819.44
475.826	27807.15
476.031	26926.52
476.235	26514.88
476.44	26529.22
476.645	25417.17
476.849	25538
477.054	25312.72
477.259	24462.82
477.463	24622.56
477.668	23487.98
477.872	23813.61
478.077	23268.85
478.282	22529.53
478.486	22093.32
478.691	21837.32
478.895	21671.43
479.1	21397.01
479.304	21433.87
479.509	20921.88
479.713	21194.26
479.918	20661.79
480.122	20375.07
480.326	20588.06
480.531	20301.34
480.735	19957.28
480.94	19973.67
481.144	20338.21
481.348	19338.8
481.553	19590.7
481.757	19117.62
481.961	18886.2
482.166	19273.26
482.37	19119.67
482.574	18585.15
482.778	18411.07
482.983	18789.94
483.187	18568.76
483.391	18351.68
483.595	17825.35
483.8	17626.7
484.004	17665.61
484.208	17917.51
484.412	17405.52
484.616	17702.47
484.821	16909.91
485.025	16498.27
485.229	16701.01
485.433	16590.42
485.637	16516.7
485.841	16176.73
486.045	15820.39
486.249	15601.26
486.453	15335.02
486.657	15187.57
486.861	14962.29
487.065	14585.46
487.269	14595.7
487.473	14050.94
487.677	14311.03
487.881	14272.12
488.085	13745.8
488.289	13438.6
488.493	13282.95
488.697	13168.27
488.901	12885.65
489.105	12379.8
489.309	12457.62
489.512	12357.27
489.716	11974.3
489.92	11687.59
490.124	11417.26
490.328	11673.25
490.531	11179.69
490.735	11019.95
490.939	10673.84
491.143	10538.68
491.346	10450.61
491.55	10350.26
491.754	10079.93
491.958	9942.72
492.161	9754.3
492.365	9576.13
492.569	9430.73
492.772	8992.46
492.976	9164.49
493.18	8947.4
493.383	9027.28
493.587	8906.45
493.79	8783.57
493.994	8423.12
494.197	8462.04
494.401	8271.58
494.605	8337.11
494.808	8242.9
495.012	8238.81
495.215	8142.55
495.419	8156.89
495.622	7847.65
495.825	7896.8
496.029	7962.33
496.232	8031.96
496.436	7743.2
496.639	7945.95
496.843	7616.23
497.046	7737.06
497.249	7874.27
497.453	7853.79
497.656	7741.15
497.859	7802.59
498.063	7763.68
498.266	7763.68
498.469	7698.14
498.673	7792.35
498.876	7898.84
499.079	7763.68
499.282	7669.47
499.485	8187.61
499.689	7972.57
499.892	8218.33
500.095	8017.63
500.298	8181.46
500.501	8070.87
500.705	8414.93
500.908	8269.53
501.111	8384.21
501.314	8435.41
501.517	8629.97
501.72	8662.74
501.923	8480.47
502.126	8715.98
502.329	8883.92
502.532	9092.81
502.735	9078.47
502.938	9293.51
503.141	9094.86
503.344	9332.42
503.547	9281.22
503.75	9508.55
503.953	9715.39
504.156	10088.12
504.359	10053.31
504.562	9770.69
504.765	10206.91
504.968	10333.88
505.17	10622.64
505.373	10745.52
505.576	10845.87
505.779	11091.63
505.982	11241.13
506.185	11466.41
506.387	11478.69
506.59	11802.27
506.793	12132
506.996	12160.67
507.198	12846.74
507.401	12654.23
507.604	13092.49
507.807	12930.7
508.009	13280.91
508.212	13643.4
508.415	13854.34
508.617	14100.09
508.82	14319.23
509.022	14401.15
509.225	15156.85
509.428	15240.81
509.63	15728.23
509.833	15769.19
510.035	16647.77
510.238	16500.31
510.44	17118.8
510.643	17286.73
510.845	17808.97
511.048	17800.77
511.25	18583.1
511.453	18716.22
511.655	19871.27
511.858	19777.06
512.06	20174.37
512.262	20330.02
512.465	20942.36
512.667	21325.33
512.87	22203.91
513.072	22666.75
513.274	23117.3
513.477	23791.08
513.679	24116.71
513.881	24548.83
514.084	25140.69
514.286	25529.81
514.488	26338.76
514.69	27104.7
514.893	27078.07
515.095	27876.78
515.297	28728.73
515.499	29253.01
515.701	29717.9
515.904	30451.08
516.106	30989.69
516.308	31886.7
516.51	32464.23
516.712	32877.92
516.914	33592.66
517.116	34413.9
517.318	34723.14
517.52	35188.03
517.722	35659.06
517.925	36685.09
518.127	37410.07
518.329	38403.34
518.531	38036.75
518.733	39109.89
518.935	40246.51
519.136	40273.13
519.338	40930.53
519.54	41622.75
519.742	42579.15
519.944	42796.23
520.146	43732.15
520.348	44190.9
520.55	44580.01
520.752	45362.34
520.954	46408.85
521.155	45876.38
521.357	46883.98
521.559	47717.5
521.761	48274.55
521.963	48319.6
522.164	49308.77
522.366	49294.44
522.568	49632.35
522.77	50424.92
522.971	51153.99
523.173	50832.46
523.375	51438.66
523.576	50756.69
523.778	51270.73
523.98	52597.81
524.181	52431.93
524.383	52739.12
524.584	53148.71
524.786	52952.11
524.988	52589.62
525.189	52991.02
525.391	53066.8
525.592	53054.51
525.794	53496.87
525.995	53279.78
526.197	52755.5
526.398	52798.51
526.6	53498.92
526.801	52739.12
527.003	53025.84
527.204	52921.39
527.406	53089.32
527.607	52411.45
527.808	52200.5
528.01	51336.26
528.211	51231.82
528.412	52132.92
528.614	50842.7
528.815	50691.15
529.016	50863.18
529.218	49765.47
529.419	50003.03
529.62	49384.55
529.822	48942.19
530.023	48655.47
530.224	48462.96
530.425	47680.64
530.626	46726.28
530.828	46212.24
531.029	46711.95
531.23	45630.62
531.431	45044.9
531.632	44885.16
531.833	44631.21
532.035	43908.28
532.236	43863.22
532.437	43207.87
532.638	41981.14
532.839	42392.78
533.04	41866.45
533.241	40766.7
533.442	41045.22
533.643	40051.95
533.844	39179.52
534.045	38817.03
534.246	38429.96
534.447	37889.3
534.648	37659.93
534.849	37313.82
535.05	36357.42
535.251	36224.3
535.451	35110.21
535.652	35231.04
535.853	34573.64
536.054	33949.01
536.255	33811.79
536.456	32750.95
536.657	32961.89
536.857	32284.01
537.058	31993.2
537.259	31890.8
537.46	31444.34
537.66	30563.71
537.861	30168.46
538.062	29853.07
538.263	29341.08
538.463	29076.89
538.664	28865.95
538.865	28665.25
539.065	28360.1
539.266	27624.88
539.466	27571.63
539.667	26762.68
539.868	27131.32
540.068	26811.84
540.269	26432.96
540.469	26129.86
540.67	25781.71
540.87	25394.64
541.071	25134.55
541.271	24874.46
541.472	24407.52
541.672	24075.75
541.873	24124.9
542.073	23385.58
542.274	23686.64
542.474	23248.37
542.675	22668.8
542.875	22935.03
543.075	22296.07
543.276	21753.35
543.476	22236.67
543.676	21605.9
543.877	21450.25
544.077	21470.73
544.277	21315.09
544.478	20907.54
544.678	20610.59
544.878	20198.95
545.078	20010.53
545.279	19637.8
545.479	19406.38
545.679	19772.97
545.879	19199.54
546.079	19183.15
546.28	18615.87
546.48	18384.44
546.68	18495.04
546.88	18314.81
547.08	17872.45
547.28	17573.45
547.48	17360.46
547.68	17292.88
547.88	16940.63
548.081	16940.63
548.281	16404.06
548.481	16526.94
548.681	16316
548.881	15965.79
549.081	15726.18
549.28	15703.65
549.48	15408.75
549.68	15306.35
549.88	14974.58
550.08	14663.29
550.28	14790.26
550.48	14440.06
550.68	14526.07
550.88	13688.45
551.08	13876.87
551.279	13696.64
551.479	13469.32
551.679	13389.45
551.879	12832.4
552.079	12887.7
552.278	12596.89
552.478	12521.11
552.678	12416.66
552.878	11925.15
553.077	12064.41
553.277	11577
553.477	11701.92
553.676	11497.13
553.876	11191.98
554.076	10802.86
554.275	10794.67
554.475	10766
554.674	10743.47
554.874	10337.98
555.074	10061.5
555.273	9875.13
555.473	9995.96
555.672	9744.06
555.872	9672.39
556.071	9551.56
556.271	9270.98
556.47	9365.19
556.67	9051.85
556.869	8804.05
557.068	8658.64
557.268	8562.39
557.467	8394.45
557.667	8251.1
557.866	8316.63
558.065	8070.87
558.265	7814.88
558.464	7773.92
558.663	7687.9
558.863	7673.57
559.062	7546.59
559.261	7198.44
559.461	7319.27
559.66	7231.21
559.859	6962.92
560.058	6756.08
560.258	6680.3
560.457	6600.43
560.656	6616.82
560.855	6307.57
561.054	6473.46
561.253	6344.44
561.453	6090.49
561.652	6137.59
561.851	5963.51
562.05	5703.42
562.249	5623.55
562.448	5771.01
562.647	5553.92
562.846	5295.88
563.045	5535.49
563.244	5377.8
563.443	5250.82
563.642	5086.98
563.841	5095.18
564.04	5064.46
564.239	4888.33
564.438	4837.13
564.637	4724.49
564.836	4777.74
565.035	4622.09
565.234	4618
565.432	4464.4
565.631	4476.69
565.83	4507.41
566.029	4269.84
566.228	4247.32
566.427	4304.66
566.625	4007.7
566.824	4124.44
567.023	4101.91
567.222	3942.17
567.42	3964.7
567.619	3858.2
567.818	3770.14
568.016	3964.7
568.215	3639.07
568.414	3720.99
568.612	3600.16
568.811	3501.86
569.01	3528.48
569.208	3460.9
569.407	3387.17
569.605	3415.84
569.804	3356.45
570.002	3221.28
570.201	3184.42
570.4	3307.3
570.598	3028.78
570.797	3104.55
570.995	3051.3
571.193	2985.77
571.392	2926.38
571.59	2785.07
571.789	2948.9
571.987	2791.21
572.186	2797.35
572.384	2668.33
572.582	2600.75
572.781	2682.67
572.979	2529.07
573.177	2559.79
573.376	2590.51
573.574	2453.3
573.772	2426.67
573.971	2271.03
574.169	2271.03
574.367	2383.66
574.565	2303.79
574.763	2176.82
574.962	2236.21
575.16	2039.61
575.358	2062.13
575.556	2072.37
575.754	2051.89
575.952	2043.7
576.151	2092.85
576.349	2088.76
576.547	1830.71
576.745	1984.31
576.943	1916.73
577.141	1779.51
577.339	1740.6
577.537	1920.82
577.735	1838.91
577.933	1730.36
578.131	1746.75
578.329	1861.43
578.527	1562.43
578.725	1679.16
578.923	1556.29
579.121	1613.63
579.319	1441.6
579.516	1494.85
579.714	1791.8
579.912	1539.9
580.11	1404.74
580.308	1414.98
580.506	1412.93
580.704	1404.74
580.901	1304.39
581.099	1449.79
581.297	1367.87
581.495	1306.43
581.692	1222.47
581.89	1515.33
582.088	1222.47
582.285	1281.86
582.483	1238.85
582.681	1113.92
582.878	1300.29
583.076	1208.13
583.274	1220.42
583.471	1152.84
583.669	1079.11
583.866	999.24
584.064	1070.92
584.262	1017.67
584.459	1048.39
584.657	1054.53
584.854	1095.49
585.052	1064.77
585.249	1089.35
585.447	1068.87
585.644	905.03
585.841	1091.4
586.039	993.09
586.236	1083.2
586.434	874.31
586.631	935.75
586.828	853.83
587.026	855.88
587.223	845.64
587.42	804.68
587.618	857.93
587.815	890.7
588.012	802.63
588.21	761.67
588.407	855.88
588.604	804.68
588.801	733
588.999	749.39
589.196	843.59
589.393	728.91
589.59	862.02
589.787	730.95
589.984	845.64
590.182	771.91
590.379	677.71
590.576	714.57
590.773	749.39
590.97	769.87
591.167	757.58
591.364	765.77
591.561	722.76
591.758	786.25
591.955	784.2
592.152	698.19
592.349	681.8
592.546	616.27
592.743	726.86
592.94	726.86
593.137	751.43
593.334	841.54
593.531	759.63
593.727	735.05
593.924	757.58
594.121	761.67
594.318	765.77
594.515	790.35
594.712	991.05
594.908	812.87
595.105	669.52
595.302	862.02
595.499	812.87
595.696	913.22
595.892	759.63
596.089	870.22
596.286	857.93
596.482	943.94
596.679	972.61
596.876	888.65
597.072	1079.11
597.269	943.94
597.466	1052.49
597.662	1036.1
597.859	1054.53
598.055	1091.4
598.252	1128.26
598.448	1261.38
598.645	1189.7
598.841	1326.91
599.038	1414.98
599.234	1500.99
599.431	1365.82
599.627	1457.98
599.824	1572.67
600.02	1578.81
600.217	1687.36
600.413	1765.18
600.609	1759.03
600.806	2094.9
601.002	1939.26
601.198	2021.17
601.395	2254.64
601.591	2217.78
601.787	2115.38
601.984	2342.71
602.18	2428.72
602.376	2498.35
602.572	2627.37
602.769	2746.16
602.965	2711.34
603.161	2752.3
603.357	2993.96
603.553	3239.72
603.75	3141.41
603.946	3188.52
604.142	3301.15
604.338	3514.14
604.534	3508
604.73	3702.56
604.926	3702.56
605.122	4030.23
605.318	3991.32
605.514	4212.5
605.71	4294.42
605.906	4529.94
606.102	4640.53
606.298	4800.27
606.494	4787.98
606.69	5158.66
606.886	5107.46
607.082	5385.99
607.278	5404.42
607.474	5596.93
607.67	5961.47
607.866	5781.25
608.062	6166.26
608.257	6323.96
608.453	6340.34
608.649	6596.34
608.845	6684.4
609.041	6995.69
609.236	7241.45
609.432	7206.63
609.628	7694.05
609.824	7837.41
610.019	7673.57
610.215	8165.08
610.411	8328.92
610.606	8726.22
610.802	8732.37
610.998	8906.45
611.193	9496.26
611.389	9391.81
611.584	9709.25
611.78	9924.29
611.976	10245.82
612.171	10550.96
612.367	10835.63
612.562	10956.46
612.758	11323.05
612.953	11468.45
613.149	11986.59
613.344	12250.78
613.539	12785.3
613.735	13047.44
613.93	13129.36
614.126	13371.02
614.321	14042.75
614.517	14597.75
614.712	14798.45
614.907	15081.07
615.103	15488.62
615.298	15916.64
615.493	16180.83
615.688	16553.56
615.884	17237.58
616.079	17346.12
616.274	17950.28
616.47	18400.83
616.665	19138.1
616.86	19369.52
617.055	19865.13
617.25	20411.93
617.445	20860.44
617.641	20911.64
617.836	21833.22
618.031	21997.06
618.226	23143.92
618.421	23256.56
618.616	24063.46
618.811	24034.79
619.006	25066.97
619.201	25425.36
619.396	26330.56
619.591	26392
619.786	27227.57
619.981	27446.71
620.176	28472.74
620.371	28837.28
620.566	29750.67
620.761	30266.76
620.956	30977.4
621.151	31137.15
621.346	32005.48
621.541	32298.34
621.735	33658.2
621.93	33574.23
622.125	34430.28
622.32	34704.71
622.515	35478.84
622.709	36373.8
622.904	37129.5
623.099	37084.45
623.294	38128.91
623.488	38630.66
623.683	39632.12
623.878	39478.52
624.072	40715.5
624.267	41438.43
624.462	42058.96
624.656	41862.36
624.851	43252.93
625.046	43369.66
625.24	44450.99
625.435	44969.13
625.629	45231.27
625.824	45956.25
626.018	46693.52
626.213	46064.79
626.407	47518.85
626.602	47895.67
626.796	48415.86
626.991	48686.19
627.185	49110.12
627.38	49384.55
627.574	49276.01
627.768	49814.62
627.963	49900.64
628.157	50005.08
628.352	50529.36
628.546	50173.02
628.74	50678.86
628.935	50091.1
629.129	50480.21
629.323	49986.65
629.517	49613.92
629.712	49151.08
629.906	49218.66
630.1	48190.58
630.294	48262.26
630.489	47336.58
630.683	46902.41
630.877	45374.62
631.071	45161.64
631.265	44039.35
631.459	43386.05
631.653	42243.28
631.848	41659.61
632.042	40631.53
632.236	39724.28
632.43	38133.01
632.624	37332.25
632.818	36089.13
633.012	34915.65
633.206	34159.95
633.4	32808.29
633.594	31712.63
633.788	30881.15
633.982	29564.31
634.176	28902.81
634.369	27450.8
634.563	26432.96
634.757	25384.4
634.951	24509.92
635.145	23598.57
635.339	22687.23
635.533	21587.47
635.726	20919.83
635.92	19910.18
636.114	19361.33
636.308	18216.51
636.501	17825.35
636.695	16721.49
636.889	15967.84
637.083	15478.38
637.276	14790.26
637.47	14227.07
637.664	13719.17
637.857	13162.12
638.051	12641.94
638.244	11996.83
638.438	11697.83
638.632	11390.63
638.825	10663.6
639.019	10450.61
639.212	9629.38
639.406	9508.55
639.599	9230.02
639.793	8677.07
639.986	8486.61
640.18	8201.94
640.373	7870.17
640.567	7612.13
640.76	7337.7
640.954	6977.26
641.147	6608.62
641.34	6371.06
641.534	6362.87
641.727	6102.78
641.92	5699.33
642.114	5744.38
642.307	5508.87
642.5	5211.91
642.694	4867.85
642.887	4663.05
643.08	4638.48
643.273	4368.15
643.467	4196.12
643.66	4124.44
643.853	3903.26
644.046	3737.37
644.239	3493.66
644.432	3569.44
644.626	3260.2
644.819	3147.56
645.012	3159.85
645.205	3053.35
645.398	2869.03
645.591	2787.11
645.784	2676.52
645.977	2492.21
646.17	2477.87
646.363	2438.96
646.556	2168.63
646.749	2090.81
646.942	2035.51
647.135	2043.7
647.328	1937.21
647.521	1941.3
647.714	1824.57
647.907	1670.97
648.099	1656.64
648.292	1724.22
648.485	1566.53
648.678	1455.94
648.871	1355.58
649.064	1435.46
649.256	1398.59
649.449	1165.12
649.642	1105.73
649.835	1222.47
650.027	1019.72
650.22	1163.08
650.413	997.19
650.605	966.47
650.798	870.22
650.991	927.56
651.183	1036.1
651.376	1036.1
651.568	909.13
651.761	872.26
651.954	804.68
652.146	730.95
652.339	800.59
652.531	810.82
652.724	581.45
652.916	767.82
653.109	499.53
653.301	612.17
653.494	649.04
653.686	665.42
653.879	735.05
654.071	485.2
654.263	589.64
654.456	497.49
654.648	603.98
654.84	608.08
655.033	468.81
655.225	638.8
655.417	302.93
655.61	499.53
655.802	565.07
655.994	630.6
656.186	339.79
656.379	583.5
656.571	397.14
656.763	321.36
656.955	315.22
657.148	356.18
657.34	434
657.532	464.72
657.724	395.09
657.916	403.28
658.108	376.66
658.3	460.62
658.492	311.12
658.684	278.35
658.876	411.47
659.068	218.96
659.26	175.95
659.452	216.91
659.644	239.44
659.836	411.47
660.028	311.12
660.22	257.87
660.412	317.26
660.604	270.16
660.796	198.48
660.988	317.26
661.18	233.3
661.372	286.54
661.563	198.48
661.755	169.81
661.947	184.15
662.139	214.87
662.331	202.58
662.522	202.58
662.714	147.28
662.906	175.95
663.097	173.91
663.289	169.81
663.481	102.23
663.673	243.54
663.864	159.57
664.056	270.16
664.247	137.04
664.439	286.54
664.631	225.11
664.822	153.43
665.014	149.33
665.205	130.9
665.397	122.71
665.588	173.91
665.78	110.42
665.971	180.05
666.163	178
666.354	155.47
666.546	104.28
666.737	171.86
666.929	124.76
667.12	87.89
667.311	141.14
667.503	126.8
667.694	91.99
667.885	165.71
668.077	143.19
668.268	63.32
668.459	87.89
668.651	126.8
668.842	167.76
669.033	132.95
669.224	102.23
669.416	319.31
669.607	106.32
669.798	98.13
669.989	218.96
670.18	126.8
670.371	155.47
670.563	63.32
670.754	157.52
670.945	178
671.136	200.53
671.327	89.94
671.518	243.54
671.709	282.45
671.9	216.91
672.091	227.15
672.282	200.53
672.473	114.52
672.664	22.36
672.855	96.08
673.046	151.38
673.237	198.48
673.428	135
673.619	182.1
673.809	51.03
674	229.2
674.191	204.63
674.382	100.18
674.573	198.48
674.764	206.67
674.954	167.76
675.145	30.55
675.336	85.84
675.527	153.43
675.717	145.24
675.908	85.84
676.099	151.38
676.289	212.82
676.48	22.36
676.671	161.62
676.861	98.13
677.052	151.38
677.243	116.56
677.433	130.9
677.624	169.81
677.814	186.19
678.005	73.56
678.195	247.63
678.386	102.23
678.576	192.34
678.767	57.17
678.957	143.19
679.148	182.1
679.338	272.21
679.529	173.91
679.719	237.39
679.909	214.87
680.1	253.78
680.29	225.11
680.481	12.12
680.671	243.54
680.861	253.78
681.052	231.25
681.242	118.61
681.432	288.59
681.622	255.83
681.813	126.8
682.003	180.05
682.193	87.89
682.383	147.28
682.573	145.24
682.764	126.8
682.954	130.9
683.144	288.59
683.334	161.62
683.524	229.2
683.714	214.87
683.904	165.71
684.094	141.14
684.284	233.3
684.474	274.26
684.664	296.78
684.854	163.67
685.044	235.35
685.234	194.39
685.424	239.44
685.614	122.71
685.804	210.77
685.994	284.5
686.184	157.52
686.374	167.76
686.564	198.48
686.753	147.28
686.943	157.52
687.133	161.62
687.323	114.52
687.513	247.63
687.702	214.87
687.892	192.34
688.082	239.44
688.272	272.21
688.461	229.2
688.651	358.22
688.841	235.35
689.03	159.57
689.22	243.54
689.41	235.35
689.599	214.87
689.789	257.87
689.979	292.69
690.168	231.25
690.358	304.98
690.547	206.67
690.737	165.71
690.926	227.15
691.116	251.73
691.305	296.78
691.495	261.97
691.684	198.48
691.874	214.87
692.063	141.14
692.252	304.98
692.442	216.91
692.631	149.33
692.82	274.26
693.01	245.59
693.199	231.25
693.388	173.91
693.578	216.91
693.767	214.87
693.956	288.59
694.146	180.05
694.335	274.26
694.524	253.78
694.713	223.06
694.902	210.77
695.092	171.86
695.281	261.97
695.47	137.04
695.659	112.47
695.848	198.48
696.037	91.99
696.226	227.15
696.415	243.54
696.604	286.54
696.793	323.41
696.982	147.28
697.171	376.66
697.36	216.91
697.549	188.24
697.738	118.61
697.927	157.52
698.116	147.28
698.305	261.97
698.494	196.43
698.683	206.67
698.872	321.36
699.061	204.63
699.25	79.7
699.438	198.48
699.627	167.76
699.816	307.02
700.005	120.66
700.193	132.95
700.382	268.11
700.571	280.4
700.76	243.54
700.948	235.35
701.137	235.35
701.326	218.96
701.514	182.1
701.703	235.35
701.892	231.25
702.08	296.78
702.269	169.81
702.457	186.19
702.646	208.72
702.834	247.63
703.023	223.06
703.212	280.4
703.4	130.9
703.589	151.38
703.777	202.58
703.965	104.28
704.154	175.95
704.342	98.13
704.531	173.91
704.719	245.59
704.907	352.08
705.096	198.48
705.284	186.19
705.472	241.49
705.661	200.53
705.849	214.87
706.037	300.88
706.226	208.72
706.414	188.24
706.602	212.82
706.79	251.73
706.979	79.7
707.167	276.31
707.355	77.65
707.543	272.21
707.731	196.43
707.919	227.15
708.107	206.67
708.296	229.2
708.484	198.48
708.672	225.11
708.86	245.59
709.048	225.11
709.236	145.24
709.424	247.63
709.612	194.39
709.8	61.27
709.988	212.82
710.176	268.11
710.364	233.3
710.551	218.96
710.739	163.67
710.927	112.47
711.115	231.25
711.303	266.07
711.491	231.25
711.679	104.28
711.866	266.07
712.054	221.01
712.242	245.59
712.43	233.3
712.617	221.01
712.805	237.39
712.993	288.59
713.181	67.41
713.368	315.22
713.556	221.01
713.744	202.58
713.931	438.09
714.119	286.54
714.306	194.39
714.494	147.28
714.682	194.39
714.869	128.85
715.057	218.96
715.244	190.29
715.432	276.31
715.619	141.14
715.807	145.24
715.994	186.19
716.182	319.31
716.369	261.97
716.556	282.45
716.744	229.2
716.931	104.28
717.119	259.92
717.306	194.39
717.493	221.01
717.681	204.63
717.868	227.15
718.055	292.69
718.242	286.54
718.43	298.83
718.617	253.78
718.804	198.48
718.991	241.49
719.179	268.11
719.366	319.31
719.553	264.02
719.74	247.63
719.927	151.38
720.114	200.53
720.301	188.24
720.488	208.72
720.676	149.33
720.863	376.66
721.05	384.85
721.237	225.11
721.424	190.29
721.611	233.3
721.798	221.01
721.985	296.78
722.172	257.87
722.358	198.48
722.545	370.51
722.732	225.11
722.919	284.5
723.106	280.4
723.293	311.12
723.48	257.87
723.667	276.31
723.853	366.42
724.04	345.94
724.227	286.54
724.414	229.2
724.6	296.78
724.787	366.42
724.974	388.94
725.161	190.29
725.347	132.95
725.534	296.78
725.72	302.93
725.907	339.79
726.094	386.9
726.28	200.53
726.467	233.3
726.653	225.11
726.84	374.61
727.027	452.43
727.213	225.11
727.4	249.68
727.586	300.88
727.773	264.02
727.959	225.11
728.145	280.4
728.332	354.13
728.518	276.31
728.705	280.4
728.891	276.31
729.077	231.25
729.264	266.07
729.45	290.64
729.636	333.65
729.823	259.92
730.009	337.74
730.195	280.4
730.382	264.02
730.568	147.28
730.754	296.78
730.94	151.38
731.126	249.68
731.313	352.08
731.499	233.3
731.685	315.22
731.871	313.17
732.057	368.46
732.243	294.74
732.429	284.5
732.615	456.53
732.801	345.94
732.987	294.74
733.173	321.36
733.359	243.54
733.545	329.55
733.731	276.31
733.917	352.08
734.103	321.36
734.289	278.35
734.475	202.58
734.661	458.57
734.847	321.36
735.033	294.74
735.219	280.4
735.404	304.98
735.59	298.83
735.776	298.83
735.962	266.07
736.148	419.66
736.333	352.08
736.519	202.58
736.705	337.74
736.89	304.98
737.076	313.17
737.262	276.31
737.447	221.01
737.633	245.59
737.819	403.28
738.004	261.97
738.19	290.64
738.375	261.97
738.561	444.24
738.747	302.93
738.932	247.63
739.118	507.73
739.303	372.56
739.489	372.56
739.674	278.35
739.859	296.78
740.045	399.18
740.23	345.94
740.416	214.87
740.601	304.98
740.786	278.35
740.972	253.78
741.157	251.73
741.342	206.67
741.528	288.59
741.713	364.37
741.898	317.26
742.084	345.94
742.269	309.07
742.454	339.79
742.639	368.46
742.824	319.31
743.01	384.85
743.195	474.96
743.38	350.03
743.565	333.65
743.75	335.7
743.935	284.5
744.12	380.75
744.305	218.96
744.49	337.74
744.675	356.18
744.86	259.92
745.045	378.7
745.23	298.83
745.415	280.4
745.6	345.94
745.785	313.17
745.97	331.6
746.155	335.7
746.34	395.09
746.525	307.02
746.71	347.98
746.895	182.1
747.079	266.07
747.264	311.12
747.449	333.65
747.634	329.55
747.819	294.74
748.003	333.65
748.188	206.67
748.373	243.54
748.557	307.02
748.742	227.15
748.927	272.21
749.111	206.67
749.296	380.75
749.481	352.08
749.665	227.15
749.85	188.24
750.034	343.89
750.219	339.79
750.404	223.06
750.588	356.18
750.773	241.49
750.957	288.59
751.141	259.92
751.326	376.66
751.51	251.73
751.695	325.46
751.879	206.67
752.064	270.16
752.248	223.06
752.432	354.13
752.617	284.5
752.801	317.26
752.985	204.63
753.17	337.74
753.354	288.59
753.538	264.02
753.722	175.95
753.907	237.39
754.091	137.04
754.275	249.68
754.459	108.37
754.643	266.07
754.828	206.67
755.012	196.43
755.196	143.19
755.38	272.21
755.564	180.05
755.748	126.8
755.932	249.68
756.116	145.24
756.3	298.83
756.484	169.81
756.668	194.39
756.852	57.17
757.036	171.86
757.22	182.1
757.404	173.91
757.588	198.48
757.772	237.39
757.956	225.11
758.14	292.69
758.323	202.58
758.507	208.72
758.691	173.91
758.875	235.35
759.059	266.07
759.242	159.57
759.426	112.47
759.61	272.21
759.794	155.47
759.977	225.11
760.161	421.71
760.345	233.3
760.528	192.34
760.712	223.06
760.895	157.52
761.079	167.76
761.263	59.22
761.446	130.9
761.63	169.81
761.813	178
761.997	102.23
762.18	114.52
762.364	247.63
762.547	-2.22
762.731	112.47
762.914	120.66
763.098	137.04
763.281	190.29
763.464	149.33
763.648	173.91
763.831	106.32
764.015	171.86
764.198	227.15
764.381	143.19
764.564	135
764.748	180.05
764.931	221.01
765.114	167.76
765.297	169.81
765.481	55.12
765.664	108.37
765.847	87.89
766.03	208.72
766.213	126.8
766.397	137.04
766.58	69.46
766.763	165.71
766.946	67.41
767.129	94.04
767.312	143.19
767.495	-6.31
767.678	63.32
767.861	143.19
768.044	128.85
768.227	96.08
768.41	124.76
768.593	196.43
768.776	96.08
768.959	65.36
769.142	141.14
769.324	75.6
769.507	122.71
769.69	48.98
769.873	149.33
770.056	343.89
770.239	69.46
770.421	196.43
770.604	128.85
770.787	100.18
770.97	153.43
771.152	59.22
771.335	71.51
771.518	26.45
771.7	141.14
771.883	194.39
772.066	106.32
772.248	165.71
772.431	206.67
772.613	81.75
772.796	139.09
772.978	141.14
773.161	235.35
773.343	112.47
773.526	106.32
773.708	-41.13
773.891	-55.47
774.073	91.99
774.256	59.22
774.438	235.35
774.621	87.89
774.803	12.12
774.985	26.45
775.168	186.19
775.35	67.41
775.532	167.76
775.715	69.46
775.897	169.81
776.079	12.12
776.261	149.33
776.444	122.71
776.626	16.21
776.808	89.94
776.99	46.93
777.173	63.32
777.355	42.84
777.537	96.08
777.719	83.8
777.901	-39.08
778.083	-18.6
778.265	16.21
778.447	124.76
778.629	-55.47
778.811	46.93
778.993	163.67
779.175	91.99
779.357	63.32
779.539	-77.99
779.721	100.18
779.903	53.08
780.085	16.21
780.267	139.09
780.449	48.98
780.631	69.46
780.812	102.23
780.994	73.56
781.176	73.56
781.358	30.55
781.54	46.93
781.721	73.56
781.903	151.38
782.085	-39.08
782.267	81.75
782.448	-16.55
782.63	79.7
782.812	102.23
782.993	139.09
783.175	57.17
783.357	46.93
783.538	75.6
783.72	-0.17
783.901	-6.31
784.083	91.99
784.264	196.43
784.446	26.45
784.627	46.93
784.809	155.47
784.99	26.45
785.172	75.6
785.353	67.41
785.535	96.08
785.716	36.69
785.897	-26.79
786.079	-6.31
786.26	14.17
786.441	79.7
786.623	-6.31
786.804	-30.89
786.985	94.04
787.167	61.27
787.348	46.93
787.529	-69.8
787.71	159.57
787.891	36.69
788.073	-8.36
788.254	-100.52
788.435	147.28
788.616	38.74
788.797	-118.95
788.978	75.6
789.159	83.8
789.34	106.32
789.522	16.21
789.703	30.55
789.884	-8.36
790.065	55.12
790.246	212.82
790.427	-28.84
790.607	141.14
790.788	61.27
790.969	-10.41
791.15	18.26
791.331	20.31
791.512	38.74
791.693	5.97
791.874	-43.18
792.054	227.15
792.235	53.08
792.416	-47.27
792.597	-28.84
792.778	91.99
792.958	34.64
793.139	79.7
793.32	1.88
793.5	-16.55
793.681	100.18
793.862	40.79
794.042	-2.22
794.223	-41.13
794.404	10.07
794.584	-47.27
794.765	69.46
794.945	-41.13
795.126	149.33
795.306	98.13
795.487	-24.75
795.667	44.88
795.848	38.74
796.028	-4.27
796.209	36.69
796.389	36.69
796.57	36.69
796.75	-43.18
796.93	14.17
797.111	-77.99
797.291	1.88
797.471	85.84
797.652	-16.55
797.832	-61.61
798.012	10.07
798.192	-28.84
798.373	5.97
798.553	-16.55
798.733	24.4
798.913	3.93
799.093	28.5
799.274	-18.6
799.454	22.36
799.634	-18.6
799.814	79.7
799.994	102.23
800.174	26.45
800.354	3.93
800.534	-149.67
800.714	-26.79
800.894	-26.79
801.074	-61.61
801.254	-28.84
801.434	169.81
801.614	30.55
801.794	24.4
801.974	1726.27
802.154	-28.84
802.334	59.22
802.514	-67.75
802.693	-55.47
802.873	-61.61
803.053	116.56
803.233	51.03
803.413	-37.03
803.592	-12.46
803.772	-28.84
803.952	10.07
804.131	-20.65
804.311	48.98
804.491	48.98
804.67	-71.85
804.85	-123.05
805.03	26.45
805.209	3.93
805.389	5.97
805.568	14.17
805.748	-28.84
805.928	16.21
806.107	34.64
806.287	48.98
806.466	26.45
806.646	22.36
806.825	-47.27
807.004	-118.95
807.184	-12.46
807.363	30.55
807.543	63.32
807.722	-10.41
807.901	75.6
808.081	89.94
808.26	-121
808.439	65.36
808.619	26.45
808.798	-55.47
808.977	14.17
809.156	59.22
809.336	-34.99
809.515	1.88
809.694	-49.32
809.873	18.26
810.052	12.12
810.231	40.79
810.411	22.36
810.59	59.22
810.769	-59.56
810.948	79.7
811.127	-63.66
811.306	-28.84
811.485	-12.46
811.664	116.56
811.843	28.5
812.022	53.08
812.201	-28.84
812.38	-22.7
812.559	-57.51
812.737	34.64
812.916	-94.38
813.095	-8.36
813.274	89.94
813.453	-20.65
813.632	75.6
813.811	22.36
813.989	-43.18
814.168	5.97
814.347	-18.6
814.526	42.84
814.704	36.69
814.883	128.85
815.062	-69.8
815.24	79.7
815.419	-92.33
815.598	40.79
815.776	-157.86
815.955	-49.32
816.133	-123.05
816.312	71.51
816.49	-61.61
816.669	44.88
816.847	-4.27
817.026	-6.31
817.204	5.97
817.383	26.45
817.561	-18.6
817.74	-14.51
817.918	18.26
818.097	-94.38
818.275	-24.75
818.453	26.45
818.632	44.88
818.81	5.97
818.988	-2.22
819.167	-82.09
819.345	22.36
819.523	-75.95
819.701	10.07
819.879	-8.36
820.058	42.84
820.236	-14.51
820.414	1.88
820.592	-112.81
820.77	24.4
820.948	-69.8
821.127	-84.14
821.305	-12.46
821.483	-96.43
821.661	16.21
821.839	28.5
822.017	1.88
822.195	14.17
822.373	132.95
822.551	-28.84
822.729	32.6
822.907	-45.23
823.085	10.07
823.262	-53.42
823.44	-26.79
823.618	-4.27
823.796	-18.6
823.974	55.12
824.152	1.88
824.329	-96.43
824.507	12.12
824.685	-14.51
824.863	-71.85
825.04	34.64
825.218	65.36
825.396	-4.27
825.574	75.6
825.751	24.4
825.929	-6.31
826.107	-100.52
826.284	-57.51
826.462	-16.55
826.639	-80.04
826.817	1.88
826.994	34.64
827.172	-80.04
827.349	106.32
827.527	-24.75
827.704	53.08
827.882	55.12
828.059	-22.7
828.237	-51.37
828.414	130.9
828.591	-143.53
828.769	-80.04
828.946	-88.23
829.124	67.41
829.301	-8.36
829.478	-55.47
829.655	75.6
829.833	-34.99
830.01	-82.09
830.187	67.41
830.364	-32.94
830.542	44.88
830.719	108.37
830.896	18.26
831.073	65.36
831.25	-2.22
831.427	71.51
831.604	-8.36
831.782	10.07
831.959	42.84
832.136	24.4
832.313	-55.47
832.49	-96.43
832.667	98.13
832.844	-84.14
833.021	75.6
833.198	24.4
833.374	-6.31
833.551	18.26
833.728	-45.23
833.905	65.36
834.082	-82.09
834.259	5.97
834.436	77.65
834.612	-75.95
834.789	87.89
834.966	-51.37
835.143	1.88
835.319	-32.94
835.496	18.26
835.673	42.84
835.85	124.76
836.026	30.55
836.203	61.27
836.38	-2.22
836.556	-98.47
836.733	-14.51
836.909	114.52
837.086	-67.75
837.262	-104.62
837.439	-59.56
837.616	-41.13
837.792	-59.56
837.968	20.31
838.145	-112.81
838.321	-6.31
838.498	-22.7
838.674	57.17
838.851	26.45
839.027	-88.23
839.203	28.5
839.38	32.6
839.556	-104.62
839.732	1.88
839.909	24.4
840.085	26.45
840.261	-88.23
840.437	24.4
840.614	-63.66
840.79	89.94
840.966	30.55
841.142	10.07
841.318	-30.89
841.494	28.5
841.671	8.02
841.847	-110.76
842.023	-98.47
842.199	-6.31
842.375	16.21
842.551	-133.29
842.727	-57.51
842.903	20.31
843.079	-90.28
843.255	36.69
843.431	-86.19
843.607	1.88
843.783	-108.71
843.959	46.93
844.134	-2.22
844.31	-32.94
844.486	-112.81
844.662	-77.99
844.838	-0.17
845.013	-24.75
845.189	1.88
845.365	36.69
845.541	-41.13
845.716	-22.7
845.892	14.17
846.068	-51.37
846.244	-51.37
846.419	51.03
846.595	3.93
846.77	-57.51
846.946	-43.18
847.122	-51.37
847.297	-24.75
847.473	38.74
847.648	-121
847.824	14.17
847.999	-184.49
848.175	-53.42
848.35	12.12
848.526	132.95
848.701	85.84
848.876	28.5
849.052	12.12
849.227	1.88
849.403	-12.46
849.578	10.07
849.753	30.55
849.929	55.12
850.104	-30.89
850.279	-10.41
850.454	-59.56
850.63	69.46
850.805	-28.84
850.98	42.84
851.155	-92.33
851.33	32.6
851.505	-114.86
851.681	71.51
851.856	-116.9
852.031	-57.51
852.206	14.17
852.381	-77.99
852.556	-22.7
852.731	61.27
852.906	22.36
853.081	-49.32
853.256	126.8
853.431	-57.51
853.606	-24.75
853.781	-145.58
853.956	-192.68
854.131	-39.08
854.305	-26.79
854.48	46.93
854.655	-86.19
854.83	-6.31
855.005	5.97
855.18	-45.23
855.354	-39.08
855.529	3.93
855.704	-67.75
855.879	40.79
856.053	-59.56
856.228	-0.17
856.403	-77.99
856.577	10.07
856.752	-127.14
856.926	104.28
857.101	-61.61
857.276	-98.47
857.45	-37.03
857.625	28.5
857.799	3.93
857.974	-43.18
858.148	-108.71
858.323	75.6
858.497	-39.08
858.672	-51.37
858.846	-112.81
859.02	44.88
859.195	-82.09
859.369	-61.61
859.543	24.4
859.718	-6.31
859.892	83.8
860.066	3.93
860.241	-4.27
860.415	-45.23
860.589	-4.27
860.763	24.4
860.938	42.84
861.112	-20.65
861.286	-80.04
861.46	-22.7
861.634	-94.38
861.808	34.64
861.982	-102.57
862.157	-49.32
862.331	-106.67
862.505	-88.23
862.679	-61.61
862.853	-22.7
863.027	-6.31
863.201	65.36
863.375	-2.22
863.549	16.21
863.722	28.5
863.896	94.04
864.07	5.97
864.244	-39.08
864.418	102.23
864.592	-16.55
864.766	-26.79
864.939	-14.51
865.113	-45.23
865.287	32.6
865.461	-67.75
865.634	-4.27
865.808	-75.95
865.982	-77.99
866.156	-94.38
866.329	-104.62
866.503	-22.7
866.676	77.65
866.85	-34.99
867.024	-55.47
867.197	55.12
867.371	-20.65
867.544	-22.7
867.718	-108.71
867.891	51.03
868.065	-112.81
868.238	104.28
868.412	73.56
868.585	30.55
868.759	-86.19
868.932	-47.27
869.105	-30.89
869.279	-51.37
869.452	-55.47
869.625	-55.47
869.799	26.45
869.972	-114.86
870.145	-65.71
870.319	65.36
870.492	-75.95
870.665	-49.32
870.838	-98.47
871.011	-94.38
871.185	-39.08
871.358	-22.7
871.531	-41.13
871.704	-24.75
871.877	-47.27
872.05	-82.09
872.223	-106.67
872.396	32.6
872.569	44.88
872.742	-135.34
872.915	63.32
873.088	-84.14
873.261	-92.33
873.434	65.36
873.607	-118.95
873.78	87.89
873.953	-86.19
874.126	-37.03
874.299	5.97
874.471	-67.75
874.644	-106.67
874.817	69.46
874.99	122.71
875.163	-98.47
875.335	38.74
875.508	-45.23
875.681	55.12
875.853	-131.24
876.026	-18.6
876.199	8.02
876.371	5.97
876.544	-69.8
876.717	12.12
876.889	-92.33
877.062	32.6
877.234	-153.77
877.407	-61.61
877.579	8.02
877.752	-67.75
877.924	98.13
878.097	14.17
878.269	32.6
878.442	20.31
878.614	-6.31
878.786	3.93
878.959	24.4
879.131	-73.9
879.303	-172.2
879.476	-45.23
879.648	-100.52
879.82	-121
879.993	-121
880.165	-118.95
880.337	-108.71
880.509	-47.27
880.681	-100.52
880.854	-53.42
881.026	36.69
881.198	89.94
881.37	1.88
881.542	-34.99
881.714	20.31
881.886	14.17
882.058	28.5
882.23	-32.94
882.402	-80.04
882.574	22.36
882.746	53.08
882.918	63.32
883.09	75.6
883.262	51.03
883.434	-26.79
883.606	-155.82
883.778	-84.14
883.95	106.32
884.122	-98.47
884.293	71.51
884.465	22.36
884.637	55.12
884.809	-80.04
884.98	46.93
885.152	5.97
885.324	38.74
885.496	-63.66
885.667	-18.6
885.839	-71.85
886.011	61.27
886.182	-28.84
886.354	-12.46
886.525	14.17
886.697	12.12
886.869	-139.43
887.04	-47.27
887.212	87.89
887.383	118.61
887.555	34.64
887.726	-90.28
887.897	-82.09
888.069	10.07
888.24	61.27
888.412	-71.85
888.583	-94.38
888.754	-53.42
888.926	-65.71
889.097	-88.23
889.268	-135.34
889.44	-30.89
889.611	-57.51
889.782	-16.55
889.953	-43.18
890.125	32.6
890.296	-75.95
890.467	-75.95
890.638	-0.17
890.809	-14.51
890.98	-106.67
891.151	-10.41
891.323	-10.41
891.494	-32.94
891.665	-12.46
891.836	24.4
892.007	-26.79
892.178	3.93
892.349	-10.41
892.52	-69.8
892.691	-61.61
892.862	-59.56
893.032	-98.47
893.203	-75.95
893.374	-41.13
893.545	61.27
893.716	-63.66
893.887	26.45
894.057	-12.46
894.228	-4.27
894.399	-88.23
894.57	87.89
894.74	-47.27
894.911	51.03
895.082	-37.03
895.253	-53.42
895.423	-34.99
895.594	5.97
895.764	-24.75
895.935	-112.81
896.106	16.21
896.276	-47.27
896.447	-28.84
896.617	-73.9
896.788	-77.99
896.958	-73.9
897.129	-80.04
897.299	-57.51
897.47	102.23
897.64	-39.08
897.81	-69.8
897.981	-18.6
898.151	-92.33
898.322	44.88
898.492	79.7
898.662	-73.9
898.832	-67.75
899.003	-86.19
899.173	44.88
899.343	-39.08
899.513	-110.76
