Data from USB4F104151__15__09-25-15-522.txt Node

Date: Wed Feb 26 09:25:15 EST 2025
User: louis
Spectrometer: USB4F10415
Trigger mode: 4
Integration Time (sec): 1.000000E-1
Scans to average: 1
Electric dark correction enabled: true
Nonlinearity correction enabled: false
Boxcar width: 0
XAxis mode: Wavelengths
Number of Pixels in Spectrum: 3648
>>>>>Begin Spectral Data<<<<<
178.204	-327.33
178.424	-327.33
178.644	-327.33
178.864	-343.72
179.084	-306.85
179.304	-22.19
179.524	-44.71
179.744	-32.43
179.964	78.16
180.184	16.73
180.404	-7.85
180.624	-16.04
180.844	16.73
181.064	-114.34
181.283	18.77
181.503	18.77
181.723	88.4
181.943	4.44
182.163	153.94
182.383	76.12
182.602	135.51
182.822	110.93
183.042	67.92
183.262	10.58
183.482	72.02
183.701	-24.23
183.921	98.64
184.141	-1.71
184.361	45.4
184.58	104.79
184.8	78.16
185.02	59.73
185.239	110.93
185.459	39.25
185.679	57.68
185.898	-28.33
186.118	104.79
186.338	82.26
186.557	133.46
186.777	-30.38
186.997	20.82
187.216	-1.71
187.436	127.32
187.655	133.46
187.875	102.74
188.095	69.97
188.314	106.84
188.534	155.99
188.753	-44.71
188.973	160.08
189.192	176.47
189.412	80.21
189.631	53.59
189.851	78.16
190.07	182.61
190.29	-22.19
190.509	12.63
190.729	102.74
190.948	86.36
191.168	250.19
191.387	100.69
191.607	35.16
191.826	117.08
192.045	2.39
192.265	117.08
192.484	143.7
192.704	72.02
192.923	35.16
193.142	164.18
193.362	94.55
193.581	80.21
193.8	53.59
194.02	145.75
194.239	18.77
194.458	125.27
194.678	76.12
194.897	119.12
195.116	76.12
195.335	82.26
195.555	37.2
195.774	8.53
195.993	100.69
196.212	76.12
196.432	33.11
196.651	35.16
196.87	-28.33
197.089	227.67
197.308	69.97
197.528	92.5
197.747	-102.06
197.966	65.88
198.185	90.45
198.404	2.39
198.623	110.93
198.842	112.98
199.062	188.75
199.281	164.18
199.5	-38.57
199.719	106.84
199.938	65.88
200.157	86.36
200.376	65.88
200.595	98.64
200.814	43.35
201.033	49.49
201.252	166.23
201.471	59.73
201.69	102.74
201.909	63.83
202.128	98.64
202.347	37.2
202.566	53.59
202.785	-52.91
203.004	10.58
203.223	260.43
203.442	139.6
203.661	10.58
203.879	76.12
204.098	127.32
204.317	6.49
204.536	119.12
204.755	98.64
204.974	57.68
205.193	2.39
205.411	209.23
205.63	94.55
205.849	110.93
206.068	49.49
206.287	63.83
206.505	117.08
206.724	26.96
206.943	35.16
207.162	-38.57
207.381	-5.8
207.599	51.54
207.818	24.92
208.037	-1.71
208.255	49.49
208.474	129.36
208.693	115.03
208.911	127.32
209.13	137.56
209.349	2.39
209.567	55.64
209.786	110.93
210.005	47.44
210.223	18.77
210.442	-69.29
210.661	55.64
210.879	112.98
211.098	125.27
211.316	43.35
211.535	129.36
211.753	53.59
211.972	100.69
212.191	41.3
212.409	35.16
212.628	59.73
212.846	20.82
213.065	84.31
213.283	119.12
213.502	86.36
213.72	29.01
213.938	55.64
214.157	69.97
214.375	115.03
214.594	4.44
214.812	65.88
215.031	45.4
215.249	127.32
215.467	18.77
215.686	106.84
215.904	86.36
216.122	102.74
216.341	131.41
216.559	45.4
216.778	186.71
216.996	127.32
217.214	88.4
217.432	4.44
217.651	12.63
217.869	86.36
218.087	39.25
218.306	22.87
218.524	39.25
218.742	14.68
218.96	78.16
219.179	47.44
219.397	57.68
219.615	215.38
219.833	98.64
220.051	41.3
220.27	78.16
220.488	125.27
220.706	39.25
220.924	45.4
221.142	14.68
221.36	133.46
221.578	41.3
221.796	29.01
222.015	67.92
222.233	47.44
222.451	94.55
222.669	4.44
222.887	106.84
223.105	65.88
223.323	4.44
223.541	115.03
223.759	117.08
223.977	18.77
224.195	151.89
224.413	110.93
224.631	131.41
224.849	74.07
225.067	45.4
225.285	84.31
225.503	43.35
225.721	-28.33
225.939	37.2
226.157	162.13
226.375	260.43
226.592	-30.38
226.81	33.11
227.028	160.08
227.246	112.98
227.464	102.74
227.682	149.84
227.9	86.36
228.117	127.32
228.335	119.12
228.553	-28.33
228.771	88.4
228.989	18.77
229.206	78.16
229.424	61.78
229.642	55.64
229.86	78.16
230.077	127.32
230.295	24.92
230.513	110.93
230.731	100.69
230.948	170.32
231.166	160.08
231.384	-7.85
231.601	24.92
231.819	123.22
232.037	65.88
232.254	12.63
232.472	112.98
232.689	-108.2
232.907	149.84
233.125	49.49
233.342	53.59
233.56	127.32
233.777	84.31
233.995	112.98
234.213	84.31
234.43	18.77
234.648	67.92
234.865	45.4
235.083	100.69
235.3	117.08
235.518	123.22
235.735	125.27
235.953	100.69
236.17	65.88
236.388	86.36
236.605	127.32
236.822	69.97
237.04	164.18
237.257	125.27
237.475	43.35
237.692	0.34
237.909	43.35
238.127	80.21
238.344	84.31
238.562	119.12
238.779	-28.33
238.996	-3.75
239.214	88.4
239.431	14.68
239.648	61.78
239.865	160.08
240.083	141.65
240.3	43.35
240.517	69.97
240.735	0.34
240.952	151.89
241.169	100.69
241.386	131.41
241.603	94.55
241.821	10.58
242.038	82.26
242.255	74.07
242.472	33.11
242.689	127.32
242.907	108.88
243.124	127.32
243.341	20.82
243.558	106.84
243.775	2.39
243.992	2.39
244.209	139.6
244.426	151.89
244.643	78.16
244.86	16.73
245.078	112.98
245.295	45.4
245.512	39.25
245.729	-1.71
245.946	80.21
246.163	31.06
246.38	72.02
246.597	65.88
246.814	65.88
247.031	82.26
247.248	129.36
247.464	108.88
247.681	57.68
247.898	78.16
248.115	51.54
248.332	12.63
248.549	155.99
248.766	176.47
248.983	125.27
249.2	102.74
249.417	86.36
249.633	92.5
249.85	45.4
250.067	-11.95
250.284	45.4
250.501	78.16
250.717	65.88
250.934	-69.29
251.151	-28.33
251.368	82.26
251.585	123.22
251.801	24.92
252.018	-11.95
252.235	102.74
252.451	-13.99
252.668	-3.75
252.885	94.55
253.102	65.88
253.318	35.16
253.535	55.64
253.752	-3.75
253.968	12.63
254.185	-13.99
254.401	69.97
254.618	145.75
254.835	-20.14
255.051	233.81
255.268	33.11
255.484	86.36
255.701	74.07
255.917	153.94
256.134	61.78
256.351	61.78
256.567	45.4
256.784	37.2
257	0.34
257.217	43.35
257.433	90.45
257.65	31.06
257.866	176.47
258.082	6.49
258.299	65.88
258.515	96.6
258.732	51.54
258.948	12.63
259.165	49.49
259.381	49.49
259.597	125.27
259.814	41.3
260.03	78.16
260.246	49.49
260.463	69.97
260.679	69.97
260.895	8.53
261.112	94.55
261.328	35.16
261.544	69.97
261.761	282.96
261.977	-30.38
262.193	-3.75
262.409	74.07
262.626	65.88
262.842	100.69
263.058	-22.19
263.274	151.89
263.49	94.55
263.707	86.36
263.923	104.79
264.139	8.53
264.355	90.45
264.571	151.89
264.787	94.55
265.004	104.79
265.22	137.56
265.436	49.49
265.652	10.58
265.868	61.78
266.084	4.44
266.3	33.11
266.516	37.2
266.732	-3.75
266.948	131.41
267.164	61.78
267.38	4.44
267.596	76.12
267.812	190.8
268.028	37.2
268.244	74.07
268.46	72.02
268.676	76.12
268.892	110.93
269.108	16.73
269.324	37.2
269.54	-40.62
269.756	100.69
269.972	-59.05
270.188	37.2
270.403	29.01
270.619	72.02
270.835	110.93
271.051	102.74
271.267	-63.15
271.483	-20.14
271.698	98.64
271.914	172.37
272.13	49.49
272.346	29.01
272.562	215.38
272.777	215.38
272.993	16.73
273.209	10.58
273.425	100.69
273.64	-63.15
273.856	158.03
274.072	-69.29
274.287	31.06
274.503	123.22
274.719	121.17
274.934	18.77
275.15	-1.71
275.366	94.55
275.581	37.2
275.797	35.16
276.012	129.36
276.228	-24.23
276.444	45.4
276.659	106.84
276.875	20.82
277.09	12.63
277.306	-11.95
277.521	135.51
277.737	65.88
277.952	168.27
278.168	84.31
278.383	53.59
278.599	108.88
278.814	123.22
279.03	29.01
279.245	174.42
279.461	61.78
279.676	86.36
279.892	-11.95
280.107	-5.8
280.322	35.16
280.538	37.2
280.753	35.16
280.969	164.18
281.184	61.78
281.399	162.13
281.615	139.6
281.83	127.32
282.045	-28.33
282.26	-30.38
282.476	94.55
282.691	74.07
282.906	80.21
283.122	45.4
283.337	84.31
283.552	147.8
283.767	41.3
283.983	135.51
284.198	145.75
284.413	131.41
284.628	-36.52
284.843	106.84
285.058	8.53
285.274	-3.75
285.489	8.53
285.704	86.36
285.919	24.92
286.134	31.06
286.349	86.36
286.564	-13.99
286.779	133.46
286.995	88.4
287.21	-52.91
287.425	151.89
287.64	4.44
287.855	20.82
288.07	-40.62
288.285	143.7
288.5	141.65
288.715	115.03
288.93	61.78
289.145	-22.19
289.36	151.89
289.575	47.44
289.79	98.64
290.004	57.68
290.219	117.08
290.434	-44.71
290.649	61.78
290.864	67.92
291.079	-20.14
291.294	84.31
291.509	59.73
291.724	31.06
291.938	92.5
292.153	76.12
292.368	39.25
292.583	45.4
292.798	119.12
293.012	82.26
293.227	162.13
293.442	57.68
293.657	98.64
293.871	127.32
294.086	192.85
294.301	237.91
294.516	102.74
294.73	47.44
294.945	2.39
295.16	-5.8
295.374	147.8
295.589	125.27
295.804	45.4
296.018	65.88
296.233	67.92
296.447	63.83
296.662	61.78
296.877	223.57
297.091	61.78
297.306	2.39
297.52	45.4
297.735	143.7
297.949	143.7
298.164	33.11
298.378	92.5
298.593	-28.33
298.807	8.53
299.022	65.88
299.236	153.94
299.451	160.08
299.665	-42.67
299.88	20.82
300.094	100.69
300.309	53.59
300.523	78.16
300.737	35.16
300.952	53.59
301.166	45.4
301.381	20.82
301.595	98.64
301.809	57.68
302.024	131.41
302.238	43.35
302.452	151.89
302.667	45.4
302.881	49.49
303.095	67.92
303.309	84.31
303.524	37.2
303.738	74.07
303.952	29.01
304.166	82.26
304.381	-22.19
304.595	164.18
304.809	12.63
305.023	82.26
305.237	33.11
305.452	55.64
305.666	110.93
305.88	104.79
306.094	98.64
306.308	43.35
306.522	164.18
306.736	-7.85
306.95	188.75
307.164	61.78
307.379	-5.8
307.593	205.14
307.807	67.92
308.021	100.69
308.235	115.03
308.449	20.82
308.663	-9.9
308.877	237.91
309.091	72.02
309.305	90.45
309.519	-87.72
309.733	131.41
309.947	2.39
310.161	76.12
310.374	205.14
310.588	160.08
310.802	0.34
311.016	41.3
311.23	-22.19
311.444	43.35
311.658	61.78
311.872	125.27
312.085	100.69
312.299	106.84
312.513	133.46
312.727	127.32
312.941	-63.15
313.154	53.59
313.368	4.44
313.582	110.93
313.796	12.63
314.009	37.2
314.223	119.12
314.437	108.88
314.651	155.99
314.864	39.25
315.078	65.88
315.292	45.4
315.505	43.35
315.719	92.5
315.933	98.64
316.146	-26.28
316.36	-42.67
316.573	131.41
316.787	57.68
317.001	53.59
317.214	-18.09
317.428	82.26
317.641	10.58
317.855	37.2
318.068	-16.04
318.282	133.46
318.495	180.56
318.709	131.41
318.922	53.59
319.136	188.75
319.349	147.8
319.563	61.78
319.776	29.01
319.99	-61.1
320.203	76.12
320.417	4.44
320.63	104.79
320.843	170.32
321.057	123.22
321.27	35.16
321.483	149.84
321.697	110.93
321.91	63.83
322.124	117.08
322.337	84.31
322.55	-13.99
322.763	76.12
322.977	31.06
323.19	-1.71
323.403	16.73
323.617	155.99
323.83	102.74
324.043	-42.67
324.256	84.31
324.469	69.97
324.683	145.75
324.896	35.16
325.109	100.69
325.322	8.53
325.535	49.49
325.748	110.93
325.962	45.4
326.175	176.47
326.388	100.69
326.601	61.78
326.814	67.92
327.027	117.08
327.24	151.89
327.453	-20.14
327.666	94.55
327.879	127.32
328.092	72.02
328.305	65.88
328.518	16.73
328.731	106.84
328.944	26.96
329.157	84.31
329.37	61.78
329.583	231.76
329.796	237.91
330.009	-83.63
330.222	8.53
330.435	162.13
330.648	57.68
330.861	53.59
331.073	49.49
331.286	135.51
331.499	119.12
331.712	-18.09
331.925	47.44
332.138	151.89
332.35	10.58
332.563	69.97
332.776	153.94
332.989	16.73
333.202	96.6
333.414	24.92
333.627	45.4
333.84	74.07
334.053	72.02
334.265	-7.85
334.478	-20.14
334.691	76.12
334.903	35.16
335.116	-22.19
335.329	2.39
335.541	69.97
335.754	231.76
335.966	10.58
336.179	33.11
336.392	72.02
336.604	90.45
336.817	119.12
337.029	78.16
337.242	74.07
337.454	131.41
337.667	26.96
337.88	63.83
338.092	119.12
338.305	76.12
338.517	35.16
338.729	110.93
338.942	231.76
339.154	-28.33
339.367	53.59
339.579	121.17
339.792	94.55
340.004	123.22
340.217	41.3
340.429	127.32
340.641	18.77
340.854	49.49
341.066	78.16
341.278	133.46
341.491	221.52
341.703	53.59
341.915	76.12
342.128	90.45
342.34	110.93
342.552	-61.1
342.764	10.58
342.977	-20.14
343.189	127.32
343.401	49.49
343.613	29.01
343.826	51.54
344.038	-24.23
344.25	69.97
344.462	18.77
344.674	84.31
344.886	2.39
345.099	110.93
345.311	100.69
345.523	57.68
345.735	-40.62
345.947	-13.99
346.159	110.93
346.371	61.78
346.583	69.97
346.795	149.84
347.007	-18.09
347.219	135.51
347.431	16.73
347.643	170.32
347.855	31.06
348.067	102.74
348.279	35.16
348.491	119.12
348.703	141.65
348.915	4.44
349.127	-28.33
349.339	45.4
349.551	-20.14
349.763	110.93
349.975	102.74
350.187	94.55
350.399	94.55
350.61	55.64
350.822	78.16
351.034	94.55
351.246	115.03
351.458	135.51
351.669	102.74
351.881	92.5
352.093	151.89
352.305	125.27
352.517	98.64
352.728	176.47
352.94	-9.9
353.152	63.83
353.363	-3.75
353.575	119.12
353.787	168.27
353.999	4.44
354.21	213.33
354.422	43.35
354.633	47.44
354.845	14.68
355.057	78.16
355.268	39.25
355.48	45.4
355.692	-61.1
355.903	-20.14
356.115	-28.33
356.326	-30.38
356.538	92.5
356.749	141.65
356.961	65.88
357.172	49.49
357.384	18.77
357.595	143.7
357.807	20.82
358.018	16.73
358.23	41.3
358.441	231.76
358.653	86.36
358.864	84.31
359.075	61.78
359.287	31.06
359.498	123.22
359.709	92.5
359.921	65.88
360.132	139.6
360.344	26.96
360.555	39.25
360.766	61.78
360.977	35.16
361.189	158.03
361.4	4.44
361.611	145.75
361.823	135.51
362.034	88.4
362.245	20.82
362.456	69.97
362.667	12.63
362.879	2.39
363.09	69.97
363.301	94.55
363.512	10.58
363.723	-11.95
363.935	12.63
364.146	141.65
364.357	90.45
364.568	45.4
364.779	26.96
364.99	127.32
365.201	20.82
365.412	90.45
365.623	-48.81
365.834	67.92
366.045	-3.75
366.256	59.73
366.467	176.47
366.678	72.02
366.889	78.16
367.1	16.73
367.311	82.26
367.522	12.63
367.733	86.36
367.944	10.58
368.155	49.49
368.366	33.11
368.577	125.27
368.788	61.78
368.999	-16.04
369.209	59.73
369.42	256.34
369.631	233.81
369.842	63.83
370.053	59.73
370.264	194.9
370.474	-7.85
370.685	31.06
370.896	29.01
371.107	162.13
371.317	84.31
371.528	108.88
371.739	110.93
371.95	80.21
372.16	35.16
372.371	14.68
372.582	61.78
372.792	102.74
373.003	74.07
373.214	112.98
373.424	102.74
373.635	45.4
373.846	139.6
374.056	29.01
374.267	96.6
374.477	106.84
374.688	-16.04
374.898	31.06
375.109	35.16
375.319	35.16
375.53	108.88
375.74	61.78
375.951	51.54
376.161	72.02
376.372	65.88
376.582	-50.86
376.793	125.27
377.003	-7.85
377.214	-42.67
377.424	53.59
377.635	35.16
377.845	72.02
378.055	125.27
378.266	-11.95
378.476	2.39
378.686	90.45
378.897	67.92
379.107	18.77
379.317	94.55
379.528	16.73
379.738	131.41
379.948	2.39
380.158	127.32
380.369	-3.75
380.579	47.44
380.789	82.26
380.999	117.08
381.21	106.84
381.42	155.99
381.63	108.88
381.84	115.03
382.05	78.16
382.261	98.64
382.471	176.47
382.681	16.73
382.891	119.12
383.101	84.31
383.311	43.35
383.521	29.01
383.731	158.03
383.941	108.88
384.151	84.31
384.361	74.07
384.571	102.74
384.781	108.88
384.991	192.85
385.201	186.71
385.411	147.8
385.621	94.55
385.831	24.92
386.041	106.84
386.251	53.59
386.461	55.64
386.671	49.49
386.881	76.12
387.091	49.49
387.301	155.99
387.511	74.07
387.72	102.74
387.93	127.32
388.14	33.11
388.35	33.11
388.56	76.12
388.769	82.26
388.979	16.73
389.189	41.3
389.399	110.93
389.609	108.88
389.818	127.32
390.028	4.44
390.238	117.08
390.447	53.59
390.657	102.74
390.867	94.55
391.076	51.54
391.286	135.51
391.496	-13.99
391.705	125.27
391.915	102.74
392.125	139.6
392.334	106.84
392.544	201.04
392.753	106.84
392.963	37.2
393.172	110.93
393.382	14.68
393.591	188.75
393.801	29.01
394.01	106.84
394.22	131.41
394.429	74.07
394.639	69.97
394.848	96.6
395.058	90.45
395.267	-5.8
395.477	151.89
395.686	117.08
395.895	186.71
396.105	229.71
396.314	172.37
396.524	129.36
396.733	-7.85
396.942	178.51
397.152	223.57
397.361	123.22
397.57	72.02
397.78	33.11
397.989	78.16
398.198	196.95
398.407	-3.75
398.617	2.39
398.826	102.74
399.035	35.16
399.244	61.78
399.453	74.07
399.663	78.16
399.872	37.2
400.081	10.58
400.29	145.75
400.499	47.44
400.708	86.36
400.917	35.16
401.127	39.25
401.336	-11.95
401.545	250.19
401.754	35.16
401.963	115.03
402.172	-71.34
402.381	-5.8
402.59	45.4
402.799	82.26
403.008	168.27
403.217	47.44
403.426	121.17
403.635	22.87
403.844	35.16
404.053	12.63
404.262	18.77
404.471	143.7
404.68	125.27
404.888	74.07
405.097	-20.14
405.306	29.01
405.515	112.98
405.724	31.06
405.933	160.08
406.142	51.54
406.35	164.18
406.559	31.06
406.768	117.08
406.977	192.85
407.185	63.83
407.394	102.74
407.603	-26.28
407.812	96.6
408.02	119.12
408.229	-1.71
408.438	112.98
408.646	39.25
408.855	-18.09
409.064	76.12
409.272	57.68
409.481	86.36
409.69	-11.95
409.898	-28.33
410.107	151.89
410.315	20.82
410.524	78.16
410.733	84.31
410.941	119.12
411.15	127.32
411.358	139.6
411.567	141.65
411.775	108.88
411.984	123.22
412.192	102.74
412.401	-38.57
412.609	248.15
412.818	151.89
413.026	143.7
413.234	108.88
413.443	29.01
413.651	29.01
413.86	4.44
414.068	184.66
414.276	178.51
414.485	49.49
414.693	158.03
414.901	239.95
415.11	127.32
415.318	2.39
415.526	20.82
415.734	143.7
415.943	61.78
416.151	135.51
416.359	86.36
416.567	176.47
416.776	131.41
416.984	106.84
417.192	166.23
417.4	135.51
417.608	178.51
417.817	18.77
418.025	129.36
418.233	166.23
418.441	41.3
418.649	8.53
418.857	37.2
419.065	135.51
419.273	-9.9
419.481	74.07
419.689	90.45
419.897	67.92
420.105	12.63
420.313	117.08
420.521	155.99
420.729	170.32
420.937	57.68
421.145	-40.62
421.353	174.42
421.561	108.88
421.769	18.77
421.977	69.97
422.185	139.6
422.393	24.92
422.601	80.21
422.809	31.06
423.017	147.8
423.224	141.65
423.432	229.71
423.64	90.45
423.848	102.74
424.056	53.59
424.263	205.14
424.471	-9.9
424.679	176.47
424.887	4.44
425.094	108.88
425.302	194.9
425.51	98.64
425.718	166.23
425.925	45.4
426.133	69.97
426.341	172.37
426.548	65.88
426.756	31.06
426.964	49.49
427.171	84.31
427.379	143.7
427.586	74.07
427.794	139.6
428.001	160.08
428.209	192.85
428.417	250.19
428.624	84.31
428.832	168.27
429.039	57.68
429.247	176.47
429.454	211.28
429.662	184.66
429.869	147.8
430.076	106.84
430.284	227.67
430.491	231.76
430.699	160.08
430.906	182.61
431.114	149.84
431.321	139.6
431.528	135.51
431.736	192.85
431.943	229.71
432.15	170.32
432.358	242
432.565	221.52
432.772	100.69
432.979	239.95
433.187	184.66
433.394	192.85
433.601	131.41
433.808	250.19
434.016	203.09
434.223	242
434.43	233.81
434.637	342.35
434.844	285.01
435.052	315.73
435.259	381.26
435.466	276.82
435.673	295.25
435.88	336.21
436.087	352.59
436.294	338.26
436.501	332.11
436.708	307.54
436.915	297.3
437.122	334.16
437.329	282.96
437.537	303.44
437.743	383.31
437.95	430.41
438.157	397.65
438.364	319.82
438.571	450.89
438.778	420.17
438.985	491.85
439.192	442.7
439.399	428.37
439.606	534.86
439.813	532.81
440.02	590.16
440.227	665.93
440.433	635.21
440.64	526.67
440.847	602.44
441.054	624.97
441.261	797
441.467	598.35
441.674	608.59
441.881	770.38
442.088	692.55
442.294	864.58
442.501	815.43
442.708	803.15
442.914	749.9
443.121	938.31
443.328	946.5
443.534	991.56
443.741	962.89
443.948	876.87
444.154	1042.76
444.361	1184.07
444.568	1102.15
444.774	1151.3
444.981	1050.95
445.187	1222.98
445.394	1231.17
445.6	1208.64
445.807	1319.23
446.013	1372.48
446.22	1345.86
446.426	1429.82
446.633	1579.33
446.839	1712.44
447.046	1483.07
447.252	1769.79
447.459	1794.36
447.665	1782.07
447.871	1978.68
448.078	2070.84
448.284	1990.97
448.491	2023.73
448.697	2132.28
448.903	2289.97
449.11	2322.74
449.316	2326.83
449.522	2584.88
449.728	2609.45
449.935	2666.8
450.141	2638.13
450.347	2865.45
450.553	2867.5
450.76	3023.14
450.966	2924.84
451.172	3205.41
451.378	3287.33
451.584	3485.98
451.791	3543.33
451.997	3809.56
452.203	3903.77
452.409	4006.17
452.615	4174.1
452.821	4010.26
453.027	4176.15
453.233	4714.77
453.44	4516.11
453.646	4747.53
453.852	4901.13
454.058	5206.28
454.264	5251.33
454.47	5574.91
454.676	5624.06
454.882	6181.11
455.088	5826.81
455.294	6174.97
455.5	6746.35
455.705	6988.01
455.911	6969.58
456.117	7239.91
456.323	7379.17
456.529	7352.55
456.735	8161.5
456.941	8485.08
457.147	8622.29
457.352	8997.07
457.558	9064.65
457.764	9750.72
457.97	10043.58
458.176	10315.96
458.381	10911.92
458.587	11272.36
458.793	11546.79
458.999	11487.4
459.204	13185.16
459.41	13521.03
459.616	13314.19
459.821	14184.57
460.027	14594.17
460.233	15226.99
460.438	15351.92
460.644	16353.37
460.85	16097.38
461.055	17027.15
461.261	17780.81
461.466	17764.42
461.672	17846.34
461.878	19937.32
462.083	19703.85
462.289	20103.2
462.494	20895.77
462.7	21127.19
462.905	21450.77
463.111	22763.51
463.316	24068.07
463.522	25065.43
463.727	25413.59
463.932	26513.34
464.138	27539.38
464.343	28370.85
464.549	28424.1
464.754	30830.46
464.959	31211.39
465.165	31932.27
465.37	31889.26
465.575	31825.78
465.781	34049.87
465.986	34572.1
466.191	34072.4
466.397	34533.19
466.602	33671
466.807	35682.1
467.012	36329.26
467.218	37078.82
467.423	37426.97
467.628	38057.74
467.833	40079.09
468.038	39370.49
468.244	38639.37
468.449	40419.05
468.654	39659.26
468.859	39628.54
469.064	39700.22
469.269	38631.18
469.474	39102.21
469.679	40601.32
469.885	39196.42
470.09	39728.89
470.295	39790.33
470.5	39124.74
470.705	39044.87
470.91	38067.98
471.115	37752.6
471.32	38403.85
471.525	37961.49
471.73	36933.41
471.935	36349.74
472.139	34893.63
472.344	35358.52
472.549	34953.02
472.754	34850.63
472.959	33765.2
473.164	32700.26
473.369	31817.58
473.574	33140.57
473.778	32651.11
473.983	31965.04
474.188	31375.22
474.393	30164.87
474.598	29814.67
474.802	29237.14
475.007	28762.01
475.212	28641.18
475.417	27340.72
475.621	27295.67
475.826	26734.53
476.031	26443.71
476.235	25735.12
476.44	25780.17
476.645	24809.43
476.849	24856.54
477.054	24612.83
477.259	23668.72
477.463	23668.72
477.668	23072.76
477.872	23408.62
478.077	22712.31
478.282	21909.51
478.486	21440.53
478.691	21420.05
478.895	21119
479.1	21211.15
479.304	21098.52
479.509	20381.73
479.713	20455.45
479.918	20090.91
480.122	19513.39
480.326	19865.64
480.531	19904.55
480.735	19507.24
480.94	19073.07
481.144	20025.38
481.348	18958.39
481.553	19079.22
481.757	18327.61
481.961	18524.22
482.166	18780.21
482.37	18341.95
482.574	18098.24
482.778	17657.93
482.983	18286.65
483.187	18018.37
483.391	17793.09
483.595	17371.21
483.8	17344.59
484.004	17252.43
484.208	17248.33
484.412	17033.3
484.616	16799.83
484.821	16814.16
485.025	16244.83
485.229	16300.12
485.433	15859.81
485.637	15992.93
485.841	15517.8
486.045	15466.6
486.249	15349.87
486.453	15071.34
486.657	14952.56
486.861	14790.77
487.065	14297.21
487.269	14375.03
487.473	13791.36
487.677	13830.27
487.881	13801.6
488.085	13258.89
488.289	13156.49
488.493	12748.95
488.697	12599.45
488.901	12427.42
489.105	12058.78
489.309	11964.57
489.512	11841.7
489.716	11694.24
489.92	11485.35
490.124	11165.87
490.328	11198.63
490.531	11040.94
490.735	10750.13
490.939	10377.4
491.143	10285.24
491.346	10252.47
491.55	10109.12
491.754	9758.91
491.958	9679.04
492.161	9685.19
492.365	9507.01
492.569	9208.01
492.772	9193.67
492.976	9263.3
493.18	9003.21
493.383	8974.54
493.587	8829.13
493.79	8671.44
493.994	8323.29
494.197	8407.25
494.401	8343.77
494.605	8360.15
494.808	8134.87
495.012	8239.32
495.215	8179.93
495.419	8169.69
495.622	8003.8
495.825	7999.71
496.029	7780.57
496.232	7852.25
496.436	7770.33
496.639	7928.03
496.843	7717.09
497.046	7860.45
497.249	8057.05
497.453	7792.86
497.656	7706.85
497.859	7862.49
498.063	7807.2
498.266	7960.8
498.469	7999.71
498.673	7805.15
498.876	7805.15
499.079	7966.94
499.282	7784.67
499.485	8030.43
499.689	8261.85
499.892	8237.27
500.095	8104.15
500.298	8401.11
500.501	8237.27
500.705	8499.41
500.908	8577.23
501.111	8566.99
501.314	8767.7
501.517	8784.08
501.72	8866
501.923	8767.7
502.126	8843.47
502.329	9230.54
502.532	9111.75
502.735	9275.59
502.938	9347.27
503.141	9408.71
503.344	9615.55
503.547	9746.62
503.75	9676.99
503.953	9920.7
504.156	10070.2
504.359	10100.92
504.562	10012.86
504.765	10668.21
504.968	10590.39
505.17	10713.27
505.373	10895.54
505.576	11075.76
505.779	11491.49
505.982	11432.1
506.185	11749.54
506.387	11915.42
506.59	12378.26
506.793	12329.11
506.996	12591.25
507.198	13019.28
507.401	13013.13
507.604	13252.75
507.807	13793.41
508.009	13600.9
508.212	14194.81
508.415	14241.92
508.617	14620.79
508.82	14729.33
509.022	15087.73
509.225	15394.92
509.428	15716.45
509.63	16162.91
509.833	16320.6
510.035	17158.22
510.238	17141.84
510.44	17520.71
510.643	17893.44
510.845	18272.32
511.048	18487.36
511.25	19216.43
511.453	19605.55
511.655	20258.85
511.858	20367.39
512.06	20949.01
512.262	21354.51
512.465	21825.54
512.667	22358.02
512.87	22470.65
513.072	23093.24
513.274	23992.3
513.477	24295.39
513.679	24666.08
513.881	25346
514.084	26122.18
514.286	26337.22
514.488	27131.83
514.69	27869.1
514.893	28309.41
515.095	29228.95
515.297	29972.36
515.499	30275.46
515.701	30908.29
515.904	31850.35
516.106	32198.51
516.308	32749.41
516.51	33230.68
516.712	33554.26
516.914	34543.43
517.116	35446.58
517.318	35800.88
517.52	36663.08
517.722	37062.43
517.925	37945.11
518.127	38782.73
518.329	39859.96
518.531	39466.75
518.733	40728.3
518.935	40972
519.136	41541.34
519.338	42512.08
519.54	43112.13
519.742	44138.16
519.944	44306.1
520.146	45649.56
520.348	45778.59
520.55	45995.67
520.752	47056.52
520.954	47554.18
521.155	47658.62
521.357	48854.64
521.559	49426.02
521.761	50032.22
521.963	49626.72
522.164	50382.42
522.366	50951.76
522.568	51529.28
522.77	51781.18
522.971	52188.73
523.173	52082.23
523.375	53165.61
523.576	52969.01
523.778	52813.36
523.98	53693.99
524.181	53933.6
524.383	53648.93
524.584	54158.87
524.786	54220.31
524.988	53810.72
525.189	54662.68
525.391	54648.34
525.592	54849.04
525.794	55146
525.995	54803.99
526.197	54767.12
526.398	54335
526.6	54492.69
526.801	54535.7
527.003	54335
527.204	54154.78
527.406	54404.63
527.607	53771.81
527.808	54148.64
528.01	52719.15
528.211	52596.27
528.412	53231.15
528.614	52557.36
528.815	52272.7
529.016	52119.1
529.218	51451.46
529.419	51275.33
529.62	51005
529.822	50536.02
530.023	49931.87
530.224	49897.05
530.425	49004.14
530.626	48395.89
530.828	47459.97
531.029	48399.99
531.23	47183.49
531.431	46741.13
531.632	46466.7
531.833	45934.23
532.035	45438.62
532.236	44881.58
532.437	44447.41
532.638	43777.72
532.839	43509.44
533.04	42876.62
533.241	41651.93
533.442	42362.57
533.643	41334.49
533.844	40507.12
534.045	40515.31
534.246	39040.77
534.447	39089.92
534.648	38530.83
534.849	38369.04
535.05	37318.43
535.251	37265.18
535.451	36390.7
535.652	36276.01
535.853	35489.59
536.054	35362.62
536.255	34770.75
536.456	34004.81
536.657	33900.37
536.857	33267.55
537.058	32589.67
537.259	32601.96
537.46	32104.3
537.66	31512.44
537.861	31682.42
538.062	31020.92
538.263	30572.42
538.463	30281.61
538.664	29708.18
538.865	29458.32
539.065	29269.91
539.266	28432.29
539.466	28516.26
539.667	27797.42
539.868	27920.3
540.068	27439.03
540.269	27117.5
540.469	26591.17
540.67	26443.71
540.87	26085.32
541.071	25835.47
541.271	25612.24
541.472	25382.87
541.672	25137.11
541.873	24522.72
542.073	24311.78
542.274	24135.65
542.474	23869.42
542.675	23414.77
542.875	23574.51
543.075	22992.89
543.276	22738.94
543.476	22638.59
543.676	21893.13
543.877	22247.43
544.077	21911.56
544.277	21731.34
544.478	21471.25
544.678	21307.41
544.878	20695.07
545.078	20879.38
545.279	20224.03
545.479	19845.16
545.679	19861.54
545.879	19886.12
546.079	19701.8
546.28	19304.49
546.48	18976.82
546.68	18903.09
546.88	18622.52
547.08	18374.72
547.28	18077.76
547.48	17715.27
547.68	17889.35
547.88	17535.05
548.081	17489.99
548.281	17010.77
548.481	16818.26
548.681	16756.82
548.881	16640.09
549.081	16300.12
549.28	15888.48
549.48	15935.59
549.68	15616.1
549.88	15470.7
550.08	15079.54
550.28	15102.06
550.48	14870.64
550.68	14686.33
550.88	14596.21
551.08	14397.56
551.279	14295.16
551.479	13559.94
551.679	13865.09
551.879	13539.46
552.079	13105.29
552.278	13142.16
552.478	12976.27
552.678	12699.8
552.878	12578.97
553.077	12230.81
553.277	12042.4
553.477	12097.69
553.676	11815.07
553.876	11589.8
554.076	11376.81
554.275	11274.41
554.475	10922.16
554.674	11090.09
554.874	10764.47
555.074	10363.06
555.273	10373.3
555.473	10524.85
555.672	10129.59
555.872	10033.34
556.071	9898.17
556.271	9695.43
556.47	9511.11
556.67	9248.97
556.869	9089.23
557.068	8759.5
557.268	8825.04
557.467	8675.54
557.667	8779.98
557.866	8517.84
558.065	8351.96
558.265	8132.83
558.464	7919.84
558.663	8036.57
558.863	7735.52
559.062	7907.55
559.261	7336.17
559.461	7440.61
559.66	7112.94
559.859	6842.6
560.058	7067.88
560.258	6924.52
560.457	6818.03
560.656	6936.81
560.855	6519.03
561.054	6727.92
561.253	6369.52
561.453	6451.44
561.652	6220.02
561.851	6164.73
562.05	5943.55
562.249	5802.24
562.448	5945.59
562.647	5597.44
562.846	5738.75
563.045	5628.16
563.244	5423.36
563.443	5478.66
563.642	5314.82
563.841	5419.27
564.04	5196.04
564.239	5030.15
564.438	5089.54
564.637	5089.54
564.836	4849.93
565.035	4739.34
565.234	4806.92
565.432	4782.35
565.631	4653.33
565.83	4360.47
566.029	4477.2
566.228	4491.54
566.427	4356.37
566.625	4227.35
566.824	4258.07
567.023	4157.72
567.222	4129.05
567.42	4051.22
567.619	4075.8
567.818	3819.8
568.016	4034.84
568.215	3887.39
568.414	3862.81
568.612	3832.09
568.811	3621.15
569.01	3647.77
569.208	3563.81
569.407	3586.33
569.605	3467.55
569.804	3338.53
570.002	3432.74
570.201	3297.57
570.4	3361.06
570.598	3201.32
570.797	3197.22
570.995	3115.3
571.193	3191.08
571.392	3049.77
571.59	2973.99
571.789	2879.79
571.987	2935.08
572.186	2871.59
572.384	2801.96
572.582	2697.52
572.781	2740.52
572.979	2634.03
573.177	2656.56
573.376	2648.36
573.574	2679.08
573.772	2470.19
573.971	2423.09
574.169	2306.35
574.367	2361.65
574.565	2418.99
574.763	2322.74
574.962	2353.46
575.16	2142.52
575.358	2165.04
575.556	2271.54
575.754	2167.09
575.952	2099.51
576.151	2054.45
576.349	2126.13
576.547	1917.24
576.745	2060.6
576.943	2019.64
577.141	1810.75
577.339	1847.61
577.537	1861.94
577.735	1855.8
577.933	1833.27
578.131	1771.83
578.329	1896.76
578.527	1720.64
578.725	1773.88
578.923	1552.7
579.121	1702.2
579.319	1618.24
579.516	1653.05
579.714	1847.61
579.912	1706.3
580.11	1417.54
580.308	1528.13
580.506	1503.55
580.704	1341.76
580.901	1440.06
581.099	1591.61
581.297	1370.43
581.495	1306.95
581.692	1315.14
581.89	1390.91
582.088	1321.28
582.285	1362.24
582.483	1288.51
582.681	1143.11
582.878	1298.75
583.076	1304.9
583.274	1247.55
583.471	1253.7
583.669	1093.96
583.866	1116.48
584.064	1046.85
584.262	1040.71
584.459	1128.77
584.657	1200.45
584.854	1165.64
585.052	1001.8
585.249	1130.82
585.447	1085.76
585.644	926.02
585.841	1112.39
586.039	1024.33
586.236	1132.87
586.434	923.98
586.631	921.93
586.828	915.78
587.026	983.37
587.223	786.76
587.42	885.06
587.618	903.5
587.815	991.56
588.012	878.92
588.21	837.96
588.407	956.74
588.604	944.45
588.801	751.95
588.999	790.86
589.196	895.3
589.393	823.62
589.59	811.34
589.787	837.96
589.984	883.02
590.182	848.2
590.379	774.47
590.576	780.62
590.773	868.68
590.97	805.19
591.167	786.76
591.364	725.32
591.561	731.47
591.758	860.49
591.955	825.67
592.152	723.27
592.349	764.23
592.546	829.77
592.743	741.71
592.94	665.93
593.137	731.47
593.334	825.67
593.531	780.62
593.727	780.62
593.924	756.04
594.121	667.98
594.318	753.99
594.515	842.06
594.712	913.74
594.908	797
595.105	747.85
595.302	821.58
595.499	778.57
595.696	926.02
595.892	823.62
596.089	856.39
596.286	850.25
596.482	993.61
596.679	962.89
596.876	852.3
597.072	975.17
597.269	917.83
597.466	1053
597.662	946.5
597.859	981.32
598.055	1061.19
598.252	1102.15
598.448	1116.48
598.645	1225.03
598.841	1237.31
599.038	1409.34
599.234	1329.47
599.431	1323.33
599.627	1417.54
599.824	1333.57
600.02	1487.17
600.217	1519.93
600.413	1626.43
600.609	1659.2
600.806	1943.86
601.002	1773.88
601.198	1804.6
601.395	1900.86
601.591	2029.88
601.787	2128.18
601.984	2181.43
602.18	2160.95
602.376	2232.63
602.572	2476.34
602.769	2531.63
602.965	2558.25
603.161	2695.47
603.357	2613.55
603.553	2867.5
603.75	2908.46
603.946	3012.9
604.142	3047.72
604.338	3305.76
604.534	3399.97
604.73	3424.55
604.926	3518.75
605.122	3653.92
605.318	3709.21
605.514	4008.22
605.71	3991.83
605.906	4014.36
606.102	4073.75
606.298	4358.42
606.494	4487.44
606.69	4485.39
606.886	4622.61
607.082	4768.01
607.278	4870.41
607.474	5132.55
607.67	5404.93
607.866	5351.68
608.062	5574.91
608.257	5818.62
608.453	5730.56
608.649	6105.34
608.845	6181.11
609.041	6338.8
609.236	6615.28
609.432	6660.34
609.628	6957.29
609.824	7221.48
610.019	7186.66
610.215	7434.47
610.411	7637.22
610.606	7741.66
610.802	8012
610.998	8245.46
611.193	8417.49
611.389	8587.47
611.584	8765.65
611.78	9126.09
611.976	9328.84
612.171	9627.84
612.367	9861.31
612.562	10078.4
612.758	10336.44
612.953	10574
613.149	11157.68
613.344	11393.19
613.539	11571.36
613.735	11868.32
613.93	12107.93
614.126	12382.36
614.321	12943.5
614.517	12990.61
614.712	13219.98
614.907	13863.04
615.103	14274.68
615.298	14579.83
615.493	14878.83
615.688	15159.41
615.884	15607.91
616.079	16023.65
616.274	16635.99
616.47	16601.18
616.665	16937.04
616.86	17641.54
617.055	18028.61
617.25	18700.34
617.445	19134.51
617.641	18974.77
617.836	19914.79
618.031	20213.79
618.226	21209.11
618.421	21420.05
618.616	21704.71
618.811	22210.56
619.006	22804.47
619.201	23232.5
619.396	24012.77
619.591	24078.31
619.786	24682.46
619.981	24846.3
620.176	25958.35
620.371	26120.13
620.566	26841.02
620.761	27359.16
620.956	28319.65
621.151	28039.08
621.346	29212.57
621.541	29339.54
621.735	30513.03
621.93	30390.15
622.125	31412.09
622.32	31692.66
622.515	32227.18
622.709	32624.48
622.904	33242.97
623.099	33640.28
623.294	34498.37
623.488	35346.23
623.683	36009.78
623.878	36058.93
624.072	36970.27
624.267	37578.52
624.462	37963.54
624.656	38272.78
624.851	39098.11
625.046	39184.13
625.24	39847.67
625.435	40517.36
625.629	41260.77
625.824	41805.53
626.018	42577.61
626.213	42278.61
626.407	43361.98
626.602	43196.1
626.796	44443.31
626.991	44693.16
627.185	44734.12
627.38	45029.03
627.574	45274.79
627.768	45622.94
627.963	45373.09
628.157	45489.82
628.352	46614.16
628.546	45473.44
628.74	46296.72
628.935	45903.51
629.129	46114.45
629.323	46014.1
629.517	45530.78
629.712	45483.68
629.906	45082.28
630.1	44594.86
630.294	44265.14
630.489	43292.35
630.683	43562.68
630.877	42372.81
631.071	41660.12
631.265	41285.34
631.459	40353.52
631.653	39649.02
631.848	38719.24
632.042	37830.42
632.236	37289.76
632.43	35716.92
632.624	35374.91
632.818	33914.7
633.012	32735.07
633.206	31739.76
633.4	31217.53
633.594	29816.72
633.788	28923.8
633.982	27666.35
634.176	26904.51
634.369	25909.19
634.563	25257.94
634.757	24086.5
634.951	23218.16
635.145	22470.65
635.339	21491.73
635.533	20742.17
635.726	20070.44
635.92	18769.97
636.114	18208.83
636.308	17440.84
636.501	16918.61
636.695	15997.03
636.889	15433.83
637.083	14809.2
637.276	14110.85
637.47	13631.62
637.664	13047.95
637.857	12468.38
638.051	12026.01
638.244	11563.17
638.438	11167.91
638.632	10623.16
638.825	10076.35
639.019	9793.73
639.212	9486.53
639.406	9291.98
639.599	8667.35
639.793	8331.48
639.986	8202.46
640.18	7756
640.373	7397.6
640.567	7114.98
640.76	6908.14
640.954	6766.83
641.147	6295.8
641.34	6148.34
641.534	5929.21
641.727	5632.26
641.92	5679.36
642.114	5290.24
642.307	5015.82
642.5	4892.94
642.694	4600.08
642.887	4432.15
643.08	4407.57
643.273	4170.01
643.467	4161.81
643.66	3928.35
643.853	3752.22
644.046	3483.94
644.239	3574.05
644.432	3232.04
644.626	3109.16
644.819	2976.04
645.012	3057.96
645.205	2777.39
645.398	2832.68
645.591	2570.54
645.784	2482.48
645.977	2320.69
646.17	2230.58
646.363	2224.44
646.556	2216.24
646.749	2033.97
646.942	1986.87
647.135	2038.07
647.328	1900.86
647.521	1698.11
647.714	1757.5
647.907	1730.87
648.099	1540.41
648.292	1564.99
648.485	1544.51
648.678	1335.62
648.871	1288.51
649.064	1390.91
649.256	1274.18
649.449	1292.61
649.642	1134.92
649.835	1091.91
650.027	1093.96
650.22	1190.21
650.413	1065.29
650.605	1069.38
650.798	977.22
650.991	962.89
651.183	846.15
651.376	883.02
651.568	883.02
651.761	835.91
651.954	864.58
652.146	690.51
652.339	823.62
652.531	831.82
652.724	672.08
652.916	622.92
653.109	516.43
653.301	680.27
653.494	663.88
653.686	684.36
653.879	694.6
654.071	641.36
654.263	545.1
654.456	536.91
654.648	608.59
654.84	571.72
655.033	506.19
655.225	608.59
655.417	436.56
655.61	577.87
655.802	516.43
655.994	538.96
656.186	344.4
656.379	514.38
656.571	405.84
656.763	373.07
656.955	346.45
657.148	297.3
657.34	545.1
657.532	336.21
657.724	332.11
657.916	395.6
658.108	414.03
658.3	371.02
658.492	360.78
658.684	319.82
658.876	375.12
659.068	225.62
659.26	328.02
659.452	258.39
659.644	258.39
659.836	397.65
660.028	299.34
660.22	221.52
660.412	338.26
660.604	250.19
660.796	358.74
660.988	340.3
661.18	250.19
661.372	323.92
661.563	250.19
661.755	305.49
661.947	239.95
662.139	258.39
662.331	278.87
662.522	272.72
662.714	196.95
662.906	182.61
663.097	242
663.289	250.19
663.481	121.17
663.673	223.57
663.864	280.91
664.056	244.05
664.247	229.71
664.439	307.54
664.631	184.66
664.822	336.21
665.014	213.33
665.205	225.62
665.397	123.22
665.588	233.81
665.78	278.87
665.971	221.52
666.163	121.17
666.354	266.58
666.546	244.05
666.737	135.51
666.929	258.39
667.12	235.86
667.311	213.33
667.503	258.39
667.694	164.18
667.885	215.38
668.077	186.71
668.268	131.41
668.459	160.08
668.651	213.33
668.842	260.43
669.033	221.52
669.224	155.99
669.416	330.06
669.607	170.32
669.798	143.7
669.989	297.3
670.18	147.8
670.371	196.95
670.563	115.03
670.754	289.1
670.945	330.06
671.136	309.58
671.327	168.27
671.518	332.11
671.709	305.49
671.9	250.19
672.091	250.19
672.282	231.76
672.473	244.05
672.664	170.32
672.855	239.95
673.046	198.99
673.237	334.16
673.428	252.24
673.619	340.3
673.809	176.47
674	317.78
674.191	266.58
674.382	201.04
674.573	270.67
674.764	338.26
674.954	305.49
675.145	242
675.336	233.81
675.527	223.57
675.717	233.81
675.908	203.09
676.099	176.47
676.289	211.28
676.48	143.7
676.671	250.19
676.861	250.19
677.052	297.3
677.243	209.23
677.433	235.86
677.624	297.3
677.814	309.58
678.005	354.64
678.195	332.11
678.386	198.99
678.576	356.69
678.767	217.43
678.957	262.48
679.148	362.83
679.338	377.17
679.529	348.5
679.719	328.02
679.909	424.27
680.1	325.97
680.29	373.07
680.481	297.3
680.671	338.26
680.861	319.82
681.052	364.88
681.242	192.85
681.432	323.92
681.622	414.03
681.813	196.95
682.003	338.26
682.193	217.43
682.383	354.64
682.573	344.4
682.764	289.1
682.954	381.26
683.144	485.71
683.334	295.25
683.524	336.21
683.714	373.07
683.904	393.55
684.094	356.69
684.284	338.26
684.474	452.94
684.664	397.65
684.854	414.03
685.044	418.13
685.234	379.22
685.424	360.78
685.614	325.97
685.804	530.77
685.994	393.55
686.184	346.45
686.374	471.37
686.564	395.6
686.753	432.46
686.943	317.78
687.133	426.32
687.323	401.74
687.513	416.08
687.702	430.41
687.892	383.31
688.082	477.52
688.272	332.11
688.461	385.36
688.651	446.8
688.841	444.75
689.03	350.54
689.22	354.64
689.41	450.89
689.599	352.59
689.789	274.77
689.979	569.68
690.168	385.36
690.358	438.61
690.547	461.13
690.737	422.22
690.926	387.41
691.116	418.13
691.305	426.32
691.495	389.46
691.684	336.21
691.874	332.11
692.063	403.79
692.252	471.37
692.442	430.41
692.631	332.11
692.82	381.26
693.01	450.89
693.199	291.15
693.388	328.02
693.578	313.68
693.767	422.22
693.956	463.18
694.146	274.77
694.335	364.88
694.524	375.12
694.713	463.18
694.902	319.82
695.092	348.5
695.281	379.22
695.47	338.26
695.659	381.26
695.848	321.87
696.037	217.43
696.226	438.61
696.415	344.4
696.604	385.36
696.793	407.89
696.982	282.96
697.171	399.7
697.36	293.2
697.549	371.02
697.738	272.72
697.927	299.34
698.116	299.34
698.305	401.74
698.494	368.98
698.683	325.97
698.872	530.77
699.061	274.77
699.25	405.84
699.438	350.54
699.627	346.45
699.816	389.46
700.005	321.87
700.193	352.59
700.382	385.36
700.571	422.22
700.76	313.68
700.948	407.89
701.137	319.82
701.326	356.69
701.514	295.25
701.703	405.84
701.892	397.65
702.08	487.76
702.269	414.03
702.457	233.81
702.646	346.45
702.834	239.95
703.023	371.02
703.212	334.16
703.4	364.88
703.589	268.63
703.777	328.02
703.965	280.91
704.154	325.97
704.342	323.92
704.531	315.73
704.719	362.83
704.907	336.21
705.096	352.59
705.284	291.15
705.472	307.54
705.661	418.13
705.849	395.6
706.037	446.8
706.226	381.26
706.414	311.63
706.602	274.77
706.79	387.41
706.979	356.69
707.167	315.73
707.355	317.78
707.543	332.11
707.731	366.93
707.919	299.34
708.107	385.36
708.296	303.44
708.484	371.02
708.672	416.08
708.86	321.87
709.048	346.45
709.236	297.3
709.424	399.7
709.612	391.5
709.8	239.95
709.988	401.74
710.176	364.88
710.364	436.56
710.551	356.69
710.739	340.3
710.927	328.02
711.115	297.3
711.303	387.41
711.491	401.74
711.679	350.54
711.866	399.7
712.054	366.93
712.242	319.82
712.43	409.94
712.617	336.21
712.805	297.3
712.993	338.26
713.181	258.39
713.368	405.84
713.556	356.69
713.744	299.34
713.931	438.61
714.119	399.7
714.306	319.82
714.494	366.93
714.682	385.36
714.869	258.39
715.057	430.41
715.244	276.82
715.432	348.5
715.619	270.67
715.807	371.02
715.994	336.21
716.182	319.82
716.369	420.17
716.556	405.84
716.744	348.5
716.931	289.1
717.119	323.92
717.306	379.22
717.493	411.98
717.681	342.35
717.868	315.73
718.055	426.32
718.242	313.68
718.43	422.22
718.617	377.17
718.804	364.88
718.991	459.09
719.179	440.65
719.366	411.98
719.553	315.73
719.74	368.98
719.927	373.07
720.114	389.46
720.301	342.35
720.488	301.39
720.676	280.91
720.863	409.94
721.05	571.72
721.237	442.7
721.424	395.6
721.611	375.12
721.798	301.39
721.985	352.59
722.172	428.37
722.358	481.61
722.545	397.65
722.732	405.84
722.919	461.13
723.106	389.46
723.293	438.61
723.48	393.55
723.667	475.47
723.853	450.89
724.04	471.37
724.227	420.17
724.414	352.59
724.6	364.88
724.787	553.29
724.974	516.43
725.161	395.6
725.347	313.68
725.534	438.61
725.72	485.71
725.907	471.37
726.094	438.61
726.28	405.84
726.467	467.28
726.653	356.69
726.84	541.01
727.027	549.2
727.213	373.07
727.4	457.04
727.586	424.27
727.773	471.37
727.959	450.89
728.145	426.32
728.332	450.89
728.518	366.93
728.705	459.09
728.891	461.13
729.077	440.65
729.264	371.02
729.45	375.12
729.636	545.1
729.823	418.13
730.009	534.86
730.195	547.15
730.382	567.63
730.568	377.17
730.754	420.17
730.94	442.7
731.126	432.46
731.313	457.04
731.499	373.07
731.685	428.37
731.871	444.75
732.057	473.42
732.243	477.52
732.429	532.81
732.615	524.62
732.801	520.53
732.987	401.74
733.173	463.18
733.359	448.85
733.545	465.23
733.731	436.56
733.917	541.01
734.103	463.18
734.289	477.52
734.475	469.33
734.661	659.79
734.847	471.37
735.033	436.56
735.219	508.24
735.404	457.04
735.59	487.76
735.776	373.07
735.962	551.24
736.148	483.66
736.333	612.68
736.519	491.85
736.705	438.61
736.89	528.72
737.076	495.95
737.262	477.52
737.447	508.24
737.633	477.52
737.819	543.05
738.004	534.86
738.19	489.81
738.375	457.04
738.561	557.39
738.747	526.67
738.932	424.27
739.118	581.96
739.303	504.14
739.489	530.77
739.674	364.88
739.859	309.58
740.045	463.18
740.23	532.81
740.416	407.89
740.601	557.39
740.786	481.61
740.972	424.27
741.157	387.41
741.342	432.46
741.528	428.37
741.713	469.33
741.898	391.5
742.084	551.24
742.269	467.28
742.454	459.09
742.639	596.3
742.824	401.74
743.01	594.25
743.195	577.87
743.38	493.9
743.565	512.33
743.75	579.92
743.935	502.09
744.12	485.71
744.305	377.17
744.49	444.75
744.675	493.9
744.86	469.33
745.045	434.51
745.23	457.04
745.415	457.04
745.6	493.9
745.785	454.99
745.97	487.76
746.155	520.53
746.34	532.81
746.525	387.41
746.71	463.18
746.895	450.89
747.079	368.98
747.264	403.79
747.449	510.29
747.634	508.24
747.819	379.22
748.003	401.74
748.188	377.17
748.373	397.65
748.557	489.81
748.742	426.32
748.927	395.6
749.111	319.82
749.296	317.78
749.481	436.56
749.665	465.23
749.85	403.79
750.034	379.22
750.219	377.17
750.404	334.16
750.588	418.13
750.773	373.07
750.957	436.56
751.141	375.12
751.326	440.65
751.51	303.44
751.695	305.49
751.879	297.3
752.064	430.41
752.248	360.78
752.432	411.98
752.617	385.36
752.801	405.84
752.985	508.24
753.17	438.61
753.354	364.88
753.538	418.13
753.722	303.44
753.907	340.3
754.091	180.56
754.275	387.41
754.459	237.91
754.643	303.44
754.828	315.73
755.012	373.07
755.196	309.58
755.38	360.78
755.564	278.87
755.748	319.82
755.932	305.49
756.116	381.26
756.3	381.26
756.484	254.29
756.668	307.54
756.852	252.24
757.036	299.34
757.22	405.84
757.404	237.91
757.588	303.44
757.772	205.14
757.956	291.15
758.14	457.04
758.323	248.15
758.507	368.98
758.691	155.99
758.875	319.82
759.059	336.21
759.242	155.99
759.426	260.43
759.61	231.76
759.794	180.56
759.977	291.15
760.161	444.75
760.345	438.61
760.528	289.1
760.712	182.61
760.895	274.77
761.079	223.57
761.263	203.09
761.446	188.75
761.63	280.91
761.813	385.36
761.997	160.08
762.18	246.1
762.364	356.69
762.547	164.18
762.731	264.53
762.914	231.76
763.098	188.75
763.281	231.76
763.464	221.52
763.648	375.12
763.831	264.53
764.015	151.89
764.198	244.05
764.381	164.18
764.564	201.04
764.748	252.24
764.931	246.1
765.114	172.37
765.297	246.1
765.481	139.6
765.664	180.56
765.847	172.37
766.03	282.96
766.213	170.32
766.397	313.68
766.58	190.8
766.763	203.09
766.946	201.04
767.129	151.89
767.312	170.32
767.495	176.47
767.678	237.91
767.861	233.81
768.044	147.8
768.227	115.03
768.41	182.61
768.593	190.8
768.776	282.96
768.959	162.13
769.142	301.39
769.324	166.23
769.507	119.12
769.69	74.07
769.873	182.61
770.056	307.54
770.239	186.71
770.421	282.96
770.604	180.56
770.787	221.52
770.97	209.23
771.152	78.16
771.335	266.58
771.518	209.23
771.7	231.76
771.883	323.92
772.066	133.46
772.248	237.91
772.431	190.8
772.613	217.43
772.796	162.13
772.978	168.27
773.161	266.58
773.343	137.56
773.526	135.51
773.708	100.69
773.891	82.26
774.073	110.93
774.256	117.08
774.438	268.63
774.621	141.65
774.803	155.99
774.985	182.61
775.168	155.99
775.35	174.42
775.532	176.47
775.715	96.6
775.897	162.13
776.079	160.08
776.261	209.23
776.444	207.19
776.626	127.32
776.808	123.22
776.99	59.73
777.173	135.51
777.355	119.12
777.537	80.21
777.719	223.57
777.901	119.12
778.083	100.69
778.265	57.68
778.447	172.37
778.629	94.55
778.811	112.98
778.993	80.21
779.175	205.14
779.357	160.08
779.539	119.12
779.721	127.32
779.903	51.54
780.085	69.97
780.267	233.81
780.449	100.69
780.631	129.36
780.812	151.89
780.994	65.88
781.176	69.97
781.358	18.77
781.54	80.21
781.721	192.85
781.903	252.24
782.085	33.11
782.267	205.14
782.448	-5.8
782.63	51.54
782.812	135.51
782.993	123.22
783.175	153.94
783.357	94.55
783.538	201.04
783.72	39.25
783.901	108.88
784.083	182.61
784.264	125.27
784.446	88.4
784.627	69.97
784.809	155.99
784.99	8.53
785.172	151.89
785.353	123.22
785.535	151.89
785.716	20.82
785.897	12.63
786.079	139.6
786.26	135.51
786.441	55.64
786.623	-3.75
786.804	31.06
786.985	151.89
787.167	162.13
787.348	90.45
787.529	49.49
787.71	160.08
787.891	135.51
788.073	84.31
788.254	-28.33
788.435	141.65
788.616	102.74
788.797	-7.85
788.978	57.68
789.159	53.59
789.34	133.46
789.522	117.08
789.703	6.49
789.884	33.11
790.065	100.69
790.246	182.61
790.427	-28.33
790.607	94.55
790.788	123.22
790.969	61.78
791.15	119.12
791.331	41.3
791.512	115.03
791.693	-20.14
791.874	117.08
792.054	217.43
792.235	119.12
792.416	78.16
792.597	8.53
792.778	61.78
792.958	137.56
793.139	135.51
793.32	115.03
793.5	-22.19
793.681	123.22
793.862	117.08
794.042	39.25
794.223	-11.95
794.404	20.82
794.584	-36.52
794.765	24.92
794.945	43.35
795.126	49.49
795.306	106.84
795.487	-13.99
795.667	69.97
795.848	90.45
796.028	90.45
796.209	41.3
796.389	74.07
796.57	31.06
796.75	10.58
796.93	41.3
797.111	-71.34
797.291	10.58
797.471	151.89
797.652	4.44
797.832	-13.99
798.012	102.74
798.192	59.73
798.373	20.82
798.553	12.63
798.733	90.45
798.913	4.44
799.093	65.88
799.274	147.8
799.454	127.32
799.634	98.64
799.814	106.84
799.994	53.59
800.174	59.73
800.354	-20.14
800.534	-18.09
800.714	186.71
800.894	20.82
801.074	4.44
801.254	-3.75
801.434	69.97
801.614	-24.23
801.794	37.2
801.974	1618.24
802.154	8.53
802.334	155.99
802.514	-20.14
802.693	53.59
802.873	-38.57
803.053	110.93
803.233	102.74
803.413	45.4
803.592	33.11
803.772	-7.85
803.952	61.78
804.131	-81.58
804.311	94.55
804.491	184.66
804.67	-11.95
804.85	-30.38
805.03	119.12
805.209	172.37
805.389	29.01
805.568	2.39
805.748	78.16
805.928	24.92
806.107	115.03
806.287	61.78
806.466	76.12
806.646	102.74
806.825	51.54
807.004	37.2
807.184	78.16
807.363	26.96
807.543	51.54
807.722	20.82
807.901	168.27
808.081	51.54
808.26	-85.67
808.439	-1.71
808.619	51.54
808.798	16.73
808.977	69.97
809.156	90.45
809.336	92.5
809.515	168.27
809.694	100.69
809.873	12.63
810.052	69.97
810.231	139.6
810.411	51.54
810.59	98.64
810.769	4.44
810.948	98.64
811.127	-77.48
811.306	29.01
811.485	33.11
811.664	96.6
811.843	86.36
812.022	18.77
812.201	24.92
812.38	74.07
812.559	20.82
812.737	53.59
812.916	-48.81
813.095	-20.14
813.274	117.08
813.453	63.83
813.632	59.73
813.811	145.75
813.989	-30.38
814.168	94.55
814.347	26.96
814.526	49.49
814.704	121.17
814.883	127.32
815.062	-71.34
815.24	61.78
815.419	-16.04
815.598	45.4
815.776	4.44
815.955	76.12
816.133	-42.67
816.312	35.16
816.49	10.58
816.669	4.44
816.847	-32.43
817.026	139.6
817.204	0.34
817.383	2.39
817.561	8.53
817.74	41.3
817.918	92.5
818.097	78.16
818.275	-20.14
818.453	84.31
818.632	45.4
818.81	26.96
818.988	-22.19
819.167	-13.99
819.345	45.4
819.523	-28.33
819.701	24.92
819.879	-28.33
820.058	33.11
820.236	125.27
820.414	96.6
820.592	0.34
820.77	20.82
820.948	-3.75
821.127	20.82
821.305	49.49
821.483	-61.1
821.661	69.97
821.839	14.68
822.017	-48.81
822.195	-7.85
822.373	84.31
822.551	102.74
822.729	117.08
822.907	49.49
823.085	69.97
823.262	14.68
823.44	-26.28
823.618	33.11
823.796	-5.8
823.974	2.39
824.152	69.97
824.329	10.58
824.507	-20.14
824.685	57.68
824.863	41.3
825.04	2.39
825.218	88.4
825.396	61.78
825.574	0.34
825.751	43.35
825.929	39.25
826.107	8.53
826.284	-7.85
826.462	53.59
826.639	2.39
826.817	-20.14
826.994	2.39
827.172	-36.52
827.349	67.92
827.527	92.5
827.704	4.44
827.882	94.55
828.059	4.44
828.237	67.92
828.414	43.35
828.591	-153.26
828.769	-9.9
828.946	-38.57
829.124	51.54
829.301	127.32
829.478	24.92
829.655	115.03
829.833	90.45
830.01	-87.72
830.187	14.68
830.364	4.44
830.542	20.82
830.719	141.65
830.896	45.4
831.073	65.88
831.25	59.73
831.427	86.36
831.604	4.44
831.782	18.77
831.959	-1.71
832.136	47.44
832.313	57.68
832.49	-34.47
832.667	-5.8
832.844	12.63
833.021	102.74
833.198	-48.81
833.374	31.06
833.551	16.73
833.728	37.2
833.905	78.16
834.082	-28.33
834.259	43.35
834.436	106.84
834.612	-32.43
834.789	51.54
834.966	78.16
835.143	35.16
835.319	45.4
835.496	65.88
835.673	92.5
835.85	155.99
836.026	61.78
836.203	57.68
836.38	37.2
836.556	-69.29
836.733	10.58
836.909	201.04
837.086	-20.14
837.262	-65.19
837.439	69.97
837.616	6.49
837.792	49.49
837.968	12.63
838.145	-77.48
838.321	98.64
838.498	35.16
838.674	102.74
838.851	84.31
839.027	82.26
839.203	35.16
839.38	121.17
839.556	-7.85
839.732	78.16
839.909	0.34
840.085	41.3
840.261	-7.85
840.437	65.88
840.614	-40.62
840.79	61.78
840.966	78.16
841.142	57.68
841.318	-16.04
841.494	22.87
841.671	102.74
841.847	-30.38
842.023	-36.52
842.199	110.93
842.375	160.08
842.551	-48.81
842.727	-100.01
842.903	115.03
843.079	-26.28
843.255	106.84
843.431	72.02
843.607	135.51
843.783	-61.1
843.959	110.93
844.134	-13.99
844.31	143.7
844.486	-65.19
844.662	-13.99
844.838	-32.43
845.013	59.73
845.189	63.83
845.365	26.96
845.541	12.63
845.716	4.44
845.892	45.4
846.068	0.34
846.244	-30.38
846.419	2.39
846.595	-69.29
846.77	-73.39
846.946	160.08
847.122	-52.91
847.297	-32.43
847.473	86.36
847.648	-40.62
847.824	-11.95
847.999	-112.3
848.175	-32.43
848.35	24.92
848.526	35.16
848.701	24.92
848.876	65.88
849.052	37.2
849.227	57.68
849.403	35.16
849.578	20.82
849.753	37.2
849.929	59.73
850.104	-28.33
850.279	22.87
850.454	-67.24
850.63	76.12
850.805	26.96
850.98	18.77
851.155	37.2
851.33	31.06
851.505	-48.81
851.681	94.55
851.856	6.49
852.031	45.4
852.206	143.7
852.381	-32.43
852.556	-5.8
852.731	18.77
852.906	67.92
853.081	53.59
853.256	55.64
853.431	22.87
853.606	-61.1
853.781	-48.81
853.956	-89.77
854.131	98.64
854.305	-28.33
854.48	-34.47
854.655	-69.29
854.83	8.53
855.005	72.02
855.18	47.44
855.354	8.53
855.529	10.58
855.704	37.2
855.879	-65.19
856.053	39.25
856.228	49.49
856.403	-24.23
856.577	76.12
856.752	-20.14
856.926	33.11
857.101	41.3
857.276	-57
857.45	76.12
857.625	86.36
857.799	100.69
857.974	90.45
858.148	-79.53
858.323	41.3
858.497	-46.76
858.672	12.63
858.846	-52.91
859.02	10.58
859.195	-112.3
859.369	-32.43
859.543	49.49
859.718	18.77
859.892	67.92
860.066	86.36
860.241	12.63
860.415	-20.14
860.589	4.44
860.763	49.49
860.938	29.01
861.112	82.26
861.286	4.44
861.46	45.4
861.634	-38.57
861.808	129.36
861.982	4.44
862.157	-28.33
862.331	-7.85
862.505	-32.43
862.679	-28.33
862.853	-1.71
863.027	18.77
863.201	110.93
863.375	18.77
863.549	33.11
863.722	18.77
863.896	86.36
864.07	0.34
864.244	22.87
864.418	88.4
864.592	12.63
864.766	29.01
864.939	37.2
865.113	35.16
865.287	86.36
865.461	-77.48
865.634	78.16
865.808	-28.33
865.982	-1.71
866.156	-11.95
866.329	-110.25
866.503	41.3
866.676	-18.09
866.85	69.97
867.024	-3.75
867.197	72.02
867.371	47.44
867.544	-5.8
867.718	-63.15
867.891	80.21
868.065	-32.43
868.238	2.39
868.412	20.82
868.585	131.41
868.759	-73.39
868.932	10.58
869.105	35.16
869.279	31.06
869.452	8.53
869.625	76.12
869.799	31.06
869.972	20.82
870.145	12.63
870.319	57.68
870.492	-69.29
870.665	8.53
870.838	6.49
871.011	-95.91
871.185	-61.1
871.358	-32.43
871.531	35.16
871.704	-28.33
871.877	65.88
872.05	18.77
872.223	-50.86
872.396	51.54
872.569	33.11
872.742	4.44
872.915	45.4
873.088	-28.33
873.261	-24.23
873.434	43.35
873.607	2.39
873.78	94.55
873.953	22.87
874.126	29.01
874.299	43.35
874.471	67.92
874.644	24.92
874.817	6.49
874.99	117.08
875.163	-11.95
875.335	102.74
875.508	-16.04
875.681	65.88
875.853	-77.48
876.026	-22.19
876.199	74.07
876.371	37.2
876.544	-28.33
876.717	47.44
876.889	8.53
877.062	33.11
877.234	-85.67
877.407	31.06
877.579	74.07
877.752	102.74
877.924	31.06
878.097	31.06
878.269	14.68
878.442	4.44
878.614	76.12
878.786	26.96
878.959	45.4
879.131	45.4
879.303	-59.05
879.476	10.58
879.648	4.44
879.82	-38.57
879.993	-3.75
880.165	-5.8
880.337	-30.38
880.509	53.59
880.681	-118.44
880.854	-52.91
881.026	53.59
881.198	110.93
881.37	33.11
881.542	49.49
881.714	-9.9
881.886	-3.75
882.058	18.77
882.23	-3.75
882.402	-3.75
882.574	33.11
882.746	98.64
882.918	63.83
883.09	43.35
883.262	-20.14
883.434	-20.14
883.606	-36.52
883.778	20.82
883.95	90.45
884.122	59.73
884.293	106.84
884.465	35.16
884.637	104.79
884.809	26.96
884.98	69.97
885.152	80.21
885.324	86.36
885.496	-40.62
885.667	-26.28
885.839	18.77
886.011	155.99
886.182	2.39
886.354	35.16
886.525	53.59
886.697	-54.95
886.869	-7.85
887.04	35.16
887.212	74.07
887.383	141.65
887.555	47.44
887.726	-16.04
887.897	-28.33
888.069	49.49
888.24	151.89
888.412	51.54
888.583	-36.52
888.754	-3.75
888.926	-143.02
889.097	31.06
889.268	-65.19
889.44	8.53
889.611	-46.76
889.782	-73.39
889.953	-52.91
890.125	100.69
890.296	-46.76
890.467	59.73
890.638	-71.34
890.809	98.64
890.98	-44.71
891.151	106.84
891.323	106.84
891.494	24.92
891.665	84.31
891.836	94.55
892.007	53.59
892.178	106.84
892.349	-24.23
892.52	-28.33
892.691	16.73
892.862	-22.19
893.032	-42.67
893.203	14.68
893.374	-34.47
893.545	96.6
893.716	-13.99
893.887	106.84
894.057	16.73
894.228	35.16
894.399	20.82
894.57	84.31
894.74	49.49
894.911	72.02
895.082	12.63
895.253	-81.58
895.423	-3.75
895.594	51.54
895.764	-16.04
895.935	-42.67
896.106	57.68
896.276	4.44
896.447	61.78
896.617	-11.95
896.788	24.92
896.958	-3.75
897.129	-13.99
897.299	-52.91
897.47	106.84
897.64	16.73
897.81	80.21
897.981	69.97
898.151	-63.15
898.322	20.82
898.492	88.4
898.662	-1.71
898.832	-28.33
899.003	-30.38
899.173	119.12
899.343	24.92
899.513	0.34
