Data from USB4F104151__65__10-26-57-924.txt Node

Date: Wed Feb 26 10:26:57 EST 2025
User: louis
Spectrometer: USB4F10415
Trigger mode: 4
Integration Time (sec): 1.000000E-1
Scans to average: 1
Electric dark correction enabled: true
Nonlinearity correction enabled: false
Boxcar width: 0
XAxis mode: Wavelengths
Number of Pixels in Spectrum: 3648
>>>>>Begin Spectral Data<<<<<
178.204	-425.47
178.424	-425.47
178.644	-425.47
178.864	-376.31
179.084	-427.51
179.304	-26.11
179.524	37.38
179.744	-81.41
179.964	12.8
180.184	78.33
180.404	35.33
180.624	-9.73
180.844	-15.87
181.064	-93.69
181.283	29.18
181.503	-42.5
181.723	76.29
181.943	-75.26
182.163	193.02
182.383	-97.79
182.602	115.2
182.822	160.25
183.042	129.53
183.262	-48.64
183.482	-71.17
183.701	-17.92
183.921	82.43
184.141	-46.59
184.361	86.53
184.58	10.75
184.8	47.62
185.02	-44.54
185.239	39.42
185.459	131.58
185.679	98.81
185.898	-95.74
186.118	61.95
186.338	61.95
186.557	25.09
186.777	-62.98
186.997	-9.73
187.216	8.7
187.436	162.3
187.655	111.1
187.875	111.1
188.095	88.57
188.314	107.01
188.534	160.25
188.753	-32.26
188.973	113.15
189.192	145.92
189.412	-24.06
189.631	16.9
189.851	64
190.07	109.05
190.29	-44.54
190.509	29.18
190.729	-22.02
190.948	94.72
191.168	190.97
191.387	8.7
191.607	12.8
191.826	37.38
192.045	0.51
192.265	33.28
192.484	72.19
192.704	51.71
192.923	-83.45
193.142	143.87
193.362	92.67
193.581	102.91
193.8	33.28
194.02	88.57
194.239	57.86
194.458	143.87
194.678	-19.97
194.897	0.51
195.116	14.85
195.335	66.05
195.555	66.05
195.774	-85.5
195.993	64
196.212	4.61
196.432	16.9
196.651	-69.12
196.87	20.99
197.089	197.12
197.308	-42.5
197.528	51.71
197.747	-105.98
197.966	4.61
198.185	92.67
198.404	-1.54
198.623	133.63
198.842	117.25
199.062	4.61
199.281	121.34
199.5	102.91
199.719	43.52
199.938	84.48
200.157	88.57
200.376	66.05
200.595	109.05
200.814	76.29
201.033	-62.98
201.252	170.49
201.471	51.71
201.69	51.71
201.909	49.66
202.128	47.62
202.347	51.71
202.566	-65.02
202.785	-46.59
203.004	-83.45
203.223	221.69
203.442	111.1
203.661	-97.79
203.879	92.67
204.098	94.72
204.317	18.94
204.536	64
204.755	35.33
204.974	66.05
205.193	-24.06
205.411	57.86
205.63	115.2
205.849	64
206.068	-48.64
206.287	-60.93
206.505	162.3
206.724	-11.78
206.943	-3.58
207.162	31.23
207.381	76.29
207.599	-65.02
207.818	51.71
208.037	-65.02
208.255	45.57
208.474	41.47
208.693	74.24
208.911	-17.92
209.13	102.91
209.349	82.43
209.567	145.92
209.786	96.77
210.005	137.73
210.223	-3.58
210.442	-89.6
210.661	10.75
210.879	29.18
211.098	64
211.316	31.23
211.535	49.66
211.753	35.33
211.972	72.19
212.191	25.09
212.409	12.8
212.628	72.19
212.846	-19.97
213.065	4.61
213.283	135.68
213.502	8.7
213.72	37.38
213.938	-1.54
214.157	-58.88
214.375	76.29
214.594	39.42
214.812	129.53
215.031	-97.79
215.249	-9.73
215.467	104.96
215.686	6.66
215.904	109.05
216.122	-34.3
216.341	119.29
216.559	-28.16
216.778	74.24
216.996	115.2
217.214	-52.74
217.432	59.9
217.651	-11.78
217.869	115.2
218.087	12.8
218.306	64
218.524	70.14
218.742	8.7
218.96	96.77
219.179	-28.16
219.397	41.47
219.615	150.01
219.833	104.96
220.051	-30.21
220.27	70.14
220.488	117.25
220.706	78.33
220.924	12.8
221.142	-50.69
221.36	61.95
221.578	59.9
221.796	-9.73
222.015	102.91
222.233	96.77
222.451	147.97
222.669	-34.3
222.887	18.94
223.105	55.81
223.323	43.52
223.541	-11.78
223.759	88.57
223.977	14.85
224.195	107.01
224.413	49.66
224.631	-13.82
224.849	61.95
225.067	164.35
225.285	-54.78
225.503	-15.87
225.721	-42.5
225.939	-69.12
226.157	16.9
226.375	199.16
226.592	-40.45
226.81	-19.97
227.028	131.58
227.246	96.77
227.464	6.66
227.682	104.96
227.9	4.61
228.117	18.94
228.335	100.86
228.553	29.18
228.771	-38.4
228.989	18.94
229.206	8.7
229.424	-19.97
229.642	-30.21
229.86	-17.92
230.077	125.44
230.295	41.47
230.513	80.38
230.731	10.75
230.948	156.16
231.166	133.63
231.384	-11.78
231.601	-1.54
231.819	244.22
232.037	-58.88
232.254	10.75
232.472	-58.88
232.689	-17.92
232.907	70.14
233.125	100.86
233.342	-30.21
233.56	-42.5
233.777	-1.54
233.995	-24.06
234.213	57.86
234.43	127.49
234.648	-91.65
234.865	-9.73
235.083	33.28
235.3	10.75
235.518	39.42
235.735	154.11
235.953	76.29
236.17	66.05
236.388	14.85
236.605	104.96
236.822	100.86
237.04	78.33
237.257	104.96
237.475	-7.68
237.692	57.86
237.909	113.15
238.127	57.86
238.344	6.66
238.562	-34.3
238.779	-85.5
238.996	-52.74
239.214	23.04
239.431	53.76
239.648	-15.87
239.865	117.25
240.083	-28.16
240.3	-69.12
240.517	25.09
240.735	-34.3
240.952	190.97
241.169	100.86
241.386	-17.92
241.603	20.99
241.821	-32.26
242.038	88.57
242.255	115.2
242.472	-77.31
242.689	8.7
242.907	51.71
243.124	78.33
243.341	2.56
243.558	-103.93
243.775	-42.5
243.992	-1.54
244.209	20.99
244.426	51.71
244.643	45.57
244.86	-42.5
245.078	88.57
245.295	90.62
245.512	-50.69
245.729	-48.64
245.946	80.38
246.163	8.7
246.38	23.04
246.597	39.42
246.814	6.66
247.031	-40.45
247.248	-13.82
247.464	145.92
247.681	33.28
247.898	72.19
248.115	72.19
248.332	-38.4
248.549	129.53
248.766	100.86
248.983	104.96
249.2	74.24
249.417	49.66
249.633	-5.63
249.85	59.9
250.067	-5.63
250.284	20.99
250.501	70.14
250.717	33.28
250.934	23.04
251.151	-17.92
251.368	39.42
251.585	80.38
251.801	47.62
252.018	-91.65
252.235	35.33
252.451	-38.4
252.668	-9.73
252.885	117.25
253.102	39.42
253.318	-17.92
253.535	-69.12
253.752	14.85
253.968	-38.4
254.185	-122.37
254.401	4.61
254.618	16.9
254.835	-42.5
255.051	135.68
255.268	35.33
255.484	78.33
255.701	-17.92
255.917	-15.87
256.134	-56.83
256.351	-11.78
256.567	-44.54
256.784	6.66
257	-79.36
257.217	-42.5
257.433	111.1
257.65	-65.02
257.866	135.68
258.082	-11.78
258.299	-3.58
258.515	150.01
258.732	-19.97
258.948	45.57
259.165	55.81
259.381	-56.83
259.597	49.66
259.814	0.51
260.03	94.72
260.246	10.75
260.463	88.57
260.679	59.9
260.895	53.76
261.112	-15.87
261.328	-1.54
261.544	-40.45
261.761	246.27
261.977	-95.74
262.193	-5.63
262.409	78.33
262.626	20.99
262.842	0.51
263.058	4.61
263.274	37.38
263.49	80.38
263.707	82.43
263.923	121.34
264.139	-60.93
264.355	20.99
264.571	53.76
264.787	2.56
265.004	121.34
265.22	47.62
265.436	-1.54
265.652	0.51
265.868	49.66
266.084	-99.84
266.3	-11.78
266.516	-36.35
266.732	61.95
266.948	43.52
267.164	-58.88
267.38	18.94
267.596	51.71
267.812	203.26
268.028	39.42
268.244	-38.4
268.46	53.76
268.676	41.47
268.892	0.51
269.108	-13.82
269.324	-3.58
269.54	-89.6
269.756	47.62
269.972	-34.3
270.188	-28.16
270.403	14.85
270.619	92.67
270.835	90.62
271.051	31.23
271.267	-67.07
271.483	-50.69
271.698	158.21
271.914	72.19
272.13	59.9
272.346	-1.54
272.562	-7.68
272.777	127.49
272.993	41.47
273.209	-3.58
273.425	86.53
273.64	-28.16
273.856	90.62
274.072	-1.54
274.287	43.52
274.503	41.47
274.719	117.25
274.934	-30.21
275.15	-118.27
275.366	82.43
275.581	-52.74
275.797	55.81
276.012	90.62
276.228	-48.64
276.444	78.33
276.659	119.29
276.875	-22.02
277.09	25.09
277.306	4.61
277.521	25.09
277.737	37.38
277.952	51.71
278.168	59.9
278.383	74.24
278.599	-30.21
278.814	150.01
279.03	86.53
279.245	158.21
279.461	27.14
279.676	141.82
279.892	-83.45
280.107	-17.92
280.322	-50.69
280.538	16.9
280.753	-62.98
280.969	64
281.184	37.38
281.399	150.01
281.615	0.51
281.83	10.75
282.045	49.66
282.26	-48.64
282.476	6.66
282.691	184.83
282.906	-9.73
283.122	92.67
283.337	-54.78
283.552	10.75
283.767	-34.3
283.983	74.24
284.198	61.95
284.413	4.61
284.628	0.51
284.843	6.66
285.058	23.04
285.274	23.04
285.489	-11.78
285.704	82.43
285.919	-32.26
286.134	-42.5
286.349	-65.02
286.564	20.99
286.779	162.3
286.995	-99.84
287.21	-58.88
287.425	113.15
287.64	16.9
287.855	16.9
288.07	-91.65
288.285	29.18
288.5	76.29
288.715	45.57
288.93	0.51
289.145	-19.97
289.36	125.44
289.575	-42.5
289.79	121.34
290.004	27.14
290.219	72.19
290.434	18.94
290.649	-11.78
290.864	-120.32
291.079	31.23
291.294	6.66
291.509	66.05
291.724	-5.63
291.938	-62.98
292.153	23.04
292.368	-9.73
292.583	98.81
292.798	80.38
293.012	-28.16
293.227	94.72
293.442	-38.4
293.657	59.9
293.871	111.1
294.086	53.76
294.301	154.11
294.516	80.38
294.73	111.1
294.945	-5.63
295.16	-38.4
295.374	127.49
295.589	104.96
295.804	12.8
296.018	94.72
296.233	92.67
296.447	-50.69
296.662	4.61
296.877	195.07
297.091	80.38
297.306	-79.36
297.52	-46.59
297.735	18.94
297.949	41.47
298.164	23.04
298.378	16.9
298.593	10.75
298.807	18.94
299.022	51.71
299.236	104.96
299.451	29.18
299.665	-142.85
299.88	-42.5
300.094	12.8
300.309	35.33
300.523	86.53
300.737	8.7
300.952	47.62
301.166	98.81
301.381	-87.55
301.595	35.33
301.809	4.61
302.024	29.18
302.238	-40.45
302.452	57.86
302.667	41.47
302.881	125.44
303.095	172.54
303.309	-1.54
303.524	-95.74
303.738	-5.63
303.952	-26.11
304.166	25.09
304.381	-103.93
304.595	139.77
304.809	-114.17
305.023	2.56
305.237	-36.35
305.452	25.09
305.666	82.43
305.88	156.16
306.094	94.72
306.308	20.99
306.522	55.81
306.736	-38.4
306.95	57.86
307.164	29.18
307.379	51.71
307.593	160.25
307.807	119.29
308.021	115.2
308.235	33.28
308.449	-140.8
308.663	-50.69
308.877	168.45
309.091	72.19
309.305	27.14
309.519	-91.65
309.733	100.86
309.947	2.56
310.161	43.52
310.374	107.01
310.588	80.38
310.802	-40.45
311.016	-54.78
311.23	66.05
311.444	-34.3
311.658	-11.78
311.872	127.49
312.085	86.53
312.299	82.43
312.513	84.48
312.727	72.19
312.941	-22.02
313.154	29.18
313.368	-60.93
313.582	18.94
313.796	49.66
314.009	29.18
314.223	137.73
314.437	76.29
314.651	133.63
314.864	18.94
315.078	-36.35
315.292	-77.31
315.505	6.66
315.719	86.53
315.933	82.43
316.146	-1.54
316.36	27.14
316.573	193.02
316.787	53.76
317.001	90.62
317.214	-60.93
317.428	49.66
317.641	-60.93
317.855	-11.78
318.068	4.61
318.282	-22.02
318.495	246.27
318.709	121.34
318.922	29.18
319.136	156.16
319.349	27.14
319.563	-95.74
319.776	96.77
319.99	-62.98
320.203	35.33
320.417	23.04
320.63	113.15
320.843	115.2
321.057	84.48
321.27	41.47
321.483	29.18
321.697	104.96
321.91	59.9
322.124	-30.21
322.337	68.09
322.55	8.7
322.763	35.33
322.977	-1.54
323.19	-52.74
323.403	14.85
323.617	4.61
323.83	119.29
324.043	41.47
324.256	8.7
324.469	-36.35
324.683	107.01
324.896	43.52
325.109	49.66
325.322	-140.8
325.535	64
325.748	86.53
325.962	-9.73
326.175	41.47
326.388	-11.78
326.601	104.96
326.814	-7.68
327.027	31.23
327.24	131.58
327.453	-91.65
327.666	68.09
327.879	119.29
328.092	94.72
328.305	109.05
328.518	23.04
328.731	6.66
328.944	35.33
329.157	82.43
329.37	39.42
329.583	213.5
329.796	115.2
330.009	-42.5
330.222	53.76
330.435	43.52
330.648	102.91
330.861	70.14
331.073	72.19
331.286	6.66
331.499	14.85
331.712	-11.78
331.925	12.8
332.138	-22.02
332.35	96.77
332.563	-3.58
332.776	27.14
332.989	-54.78
333.202	23.04
333.414	14.85
333.627	29.18
333.84	43.52
334.053	68.09
334.265	-56.83
334.478	0.51
334.691	49.66
334.903	96.77
335.116	-46.59
335.329	61.95
335.541	102.91
335.754	209.4
335.966	-5.63
336.179	-1.54
336.392	-11.78
336.604	72.19
336.817	109.05
337.029	133.63
337.242	2.56
337.454	20.99
337.667	-9.73
337.88	119.29
338.092	49.66
338.305	78.33
338.517	23.04
338.729	47.62
338.942	72.19
339.154	-136.7
339.367	-30.21
339.579	66.05
339.792	-89.6
340.004	12.8
340.217	55.81
340.429	90.62
340.641	-97.79
340.854	16.9
341.066	-75.26
341.278	119.29
341.491	154.11
341.703	45.57
341.915	4.61
342.128	49.66
342.34	33.28
342.552	-52.74
342.764	-13.82
342.977	-13.82
343.189	84.48
343.401	49.66
343.613	-167.42
343.826	102.91
344.038	-99.84
344.25	47.62
344.462	-50.69
344.674	61.95
344.886	-15.87
345.099	16.9
345.311	113.15
345.523	-83.45
345.735	-118.27
345.947	6.66
346.159	92.67
346.371	-3.58
346.583	37.38
346.795	201.21
347.007	31.23
347.219	78.33
347.431	-50.69
347.643	88.57
347.855	-50.69
348.067	115.2
348.279	-22.02
348.491	47.62
348.703	68.09
348.915	16.9
349.127	-89.6
349.339	23.04
349.551	23.04
349.763	84.48
349.975	-11.78
350.187	88.57
350.399	94.72
350.61	14.85
350.822	-1.54
351.034	12.8
351.246	14.85
351.458	23.04
351.669	96.77
351.881	84.48
352.093	27.14
352.305	107.01
352.517	64
352.728	70.14
352.94	39.42
353.152	31.23
353.363	-83.45
353.575	-5.63
353.787	170.49
353.999	-19.97
354.21	147.97
354.422	74.24
354.633	53.76
354.845	-17.92
355.057	115.2
355.268	-7.68
355.48	199.16
355.692	-28.16
355.903	6.66
356.115	-54.78
356.326	-54.78
356.538	160.25
356.749	43.52
356.961	143.87
357.172	133.63
357.384	-38.4
357.595	152.06
357.807	-26.11
358.018	6.66
358.23	16.9
358.441	131.58
358.653	37.38
358.864	16.9
359.075	25.09
359.287	16.9
359.498	78.33
359.709	64
359.921	20.99
360.132	90.62
360.344	20.99
360.555	-11.78
360.766	14.85
360.977	49.66
361.189	143.87
361.4	2.56
361.611	37.38
361.823	12.8
362.034	25.09
362.245	-81.41
362.456	-32.26
362.667	78.33
362.879	-85.5
363.09	72.19
363.301	-11.78
363.512	31.23
363.723	-32.26
363.935	27.14
364.146	117.25
364.357	-75.26
364.568	78.33
364.779	16.9
364.99	156.16
365.201	-62.98
365.412	115.2
365.623	-81.41
365.834	29.18
366.045	100.86
366.256	117.25
366.467	82.43
366.678	-19.97
366.889	8.7
367.1	20.99
367.311	68.09
367.522	-30.21
367.733	117.25
367.944	94.72
368.155	-42.5
368.366	137.73
368.577	23.04
368.788	72.19
368.999	-15.87
369.209	20.99
369.42	129.53
369.631	225.79
369.842	80.38
370.053	-40.45
370.264	88.57
370.474	-40.45
370.685	61.95
370.896	-26.11
371.107	104.96
371.317	94.72
371.528	51.71
371.739	158.21
371.95	100.86
372.16	49.66
372.371	-69.12
372.582	-17.92
372.792	59.9
373.003	88.57
373.214	51.71
373.424	74.24
373.635	-9.73
373.846	94.72
374.056	31.23
374.267	96.77
374.477	72.19
374.688	-58.88
374.898	14.85
375.109	-26.11
375.319	80.38
375.53	113.15
375.74	88.57
375.951	-24.06
376.161	82.43
376.372	117.25
376.582	-79.36
376.793	43.52
377.003	-7.68
377.214	-42.5
377.424	113.15
377.635	-19.97
377.845	-26.11
378.055	84.48
378.266	-11.78
378.476	-34.3
378.686	35.33
378.897	18.94
379.107	113.15
379.317	20.99
379.528	39.42
379.738	92.67
379.948	0.51
380.158	33.28
380.369	135.68
380.579	4.61
380.789	4.61
380.999	59.9
381.21	90.62
381.42	162.3
381.63	2.56
381.84	2.56
382.05	45.57
382.261	156.16
382.471	162.3
382.681	12.8
382.891	174.59
383.101	-24.06
383.311	-11.78
383.521	37.38
383.731	59.9
383.941	27.14
384.151	39.42
384.361	74.24
384.571	86.53
384.781	20.99
384.991	166.4
385.201	168.45
385.411	143.87
385.621	72.19
385.831	80.38
386.041	80.38
386.251	33.28
386.461	66.05
386.671	-34.3
386.881	88.57
387.091	37.38
387.301	98.81
387.511	66.05
387.72	23.04
387.93	109.05
388.14	-110.08
388.35	18.94
388.56	117.25
388.769	152.06
388.979	23.04
389.189	-1.54
389.399	55.81
389.609	35.33
389.818	115.2
390.028	-48.64
390.238	125.44
390.447	-40.45
390.657	-1.54
390.867	45.57
391.076	-46.59
391.286	20.99
391.496	-38.4
391.705	18.94
391.915	152.06
392.125	96.77
392.334	18.94
392.544	178.69
392.753	57.86
392.963	6.66
393.172	8.7
393.382	-54.78
393.591	82.43
393.801	-13.82
394.01	184.83
394.22	74.24
394.429	78.33
394.639	39.42
394.848	86.53
395.058	61.95
395.267	43.52
395.477	37.38
395.686	82.43
395.895	104.96
396.105	152.06
396.314	72.19
396.524	115.2
396.733	-46.59
396.942	160.25
397.152	39.42
397.361	70.14
397.57	18.94
397.78	-79.36
397.989	98.81
398.198	127.49
398.407	100.86
398.617	10.75
398.826	43.52
399.035	25.09
399.244	143.87
399.453	49.66
399.663	33.28
399.872	119.29
400.081	-50.69
400.29	29.18
400.499	-13.82
400.708	107.01
400.917	0.51
401.127	0.51
401.336	-85.5
401.545	154.11
401.754	133.63
401.963	92.67
402.172	-17.92
402.381	-30.21
402.59	-56.83
402.799	47.62
403.008	96.77
403.217	84.48
403.426	74.24
403.635	-169.47
403.844	-5.63
404.053	14.85
404.262	-11.78
404.471	217.6
404.68	57.86
404.888	6.66
405.097	64
405.306	-1.54
405.515	41.47
405.724	64
405.933	141.82
406.142	29.18
406.35	113.15
406.559	-7.68
406.768	10.75
406.977	88.57
407.185	37.38
407.394	18.94
407.603	-85.5
407.812	78.33
408.02	133.63
408.229	6.66
408.438	29.18
408.646	-65.02
408.855	-22.02
409.064	37.38
409.272	-52.74
409.481	43.52
409.69	-54.78
409.898	23.04
410.107	43.52
410.315	82.43
410.524	45.57
410.733	8.7
410.941	6.66
411.15	61.95
411.358	61.95
411.567	178.69
411.775	90.62
411.984	35.33
412.192	92.67
412.401	47.62
412.609	174.59
412.818	57.86
413.026	131.58
413.234	88.57
413.443	8.7
413.651	-65.02
413.86	33.28
414.068	74.24
414.276	143.87
414.485	2.56
414.693	158.21
414.901	195.07
415.11	84.48
415.318	41.47
415.526	47.62
415.734	131.58
415.943	6.66
416.151	61.95
416.359	27.14
416.567	66.05
416.776	29.18
416.984	88.57
417.192	158.21
417.4	4.61
417.608	57.86
417.817	-17.92
418.025	78.33
418.233	156.16
418.441	-93.69
418.649	-56.83
418.857	-46.59
419.065	86.53
419.273	-7.68
419.481	-24.06
419.689	88.57
419.897	18.94
420.105	-103.93
420.313	66.05
420.521	96.77
420.729	80.38
420.937	-48.64
421.145	-22.02
421.353	107.01
421.561	158.21
421.769	104.96
421.977	-22.02
422.185	61.95
422.393	31.23
422.601	23.04
422.809	70.14
423.017	51.71
423.224	51.71
423.432	33.28
423.64	-3.58
423.848	20.99
424.056	29.18
424.263	135.68
424.471	35.33
424.679	88.57
424.887	0.51
425.094	78.33
425.302	119.29
425.51	57.86
425.718	180.73
425.925	8.7
426.133	45.57
426.341	172.54
426.548	68.09
426.756	0.51
426.964	70.14
427.171	-60.93
427.379	96.77
427.586	6.66
427.794	119.29
428.001	121.34
428.209	131.58
428.417	119.29
428.624	217.6
428.832	125.44
429.039	45.57
429.247	37.38
429.454	135.68
429.662	104.96
429.869	102.91
430.076	143.87
430.284	78.33
430.491	141.82
430.699	119.29
430.906	121.34
431.114	90.62
431.321	70.14
431.528	29.18
431.736	141.82
431.943	123.39
432.15	107.01
432.358	145.92
432.565	209.4
432.772	-30.21
432.979	209.4
433.187	139.77
433.394	135.68
433.601	25.09
433.808	174.59
434.016	219.64
434.223	207.36
434.43	211.45
434.637	178.69
434.844	260.6
435.052	178.69
435.259	291.32
435.466	166.4
435.673	141.82
435.88	332.28
436.087	262.65
436.294	260.6
436.501	225.79
436.708	213.5
436.915	195.07
437.122	305.66
437.329	143.87
437.537	215.55
437.743	270.84
437.95	367.1
438.157	242.17
438.364	344.57
438.571	297.47
438.778	354.81
438.985	332.28
439.192	379.39
439.399	270.84
439.606	336.38
439.813	461.3
440.02	457.21
440.227	557.56
440.433	461.3
440.64	389.63
440.847	385.53
441.054	412.15
441.261	487.93
441.467	492.02
441.674	532.98
441.881	563.7
442.088	575.99
442.294	565.75
442.501	633.33
442.708	711.16
442.914	623.09
443.121	666.1
443.328	709.11
443.534	786.93
443.741	711.16
443.948	545.27
444.154	797.17
444.361	946.67
444.568	811.51
444.774	739.83
444.981	768.5
445.187	969.2
445.394	918
445.6	928.24
445.807	1018.35
446.013	1110.51
446.22	897.52
446.426	1028.59
446.633	1159.66
446.839	1370.6
447.046	1104.37
447.252	1221.1
447.459	1307.12
447.665	1282.54
447.871	1473
448.078	1589.74
448.284	1571.3
448.491	1659.37
448.697	1671.65
448.903	1726.95
449.11	1761.77
449.316	1661.41
449.522	1855.97
449.728	2052.58
449.935	1964.51
450.141	2054.62
450.347	2187.74
450.553	2025.95
450.76	2234.85
450.966	2466.27
451.172	2386.4
451.378	2509.27
451.584	2439.64
451.791	2738.65
451.997	2724.31
452.203	2898.39
452.409	3006.93
452.615	3135.95
452.821	3133.9
453.027	3150.29
453.233	3492.3
453.44	3193.3
453.646	3420.62
453.852	3678.66
454.058	3944.9
454.264	3946.95
454.47	4241.86
454.676	4248
454.882	4538.81
455.088	4489.66
455.294	4655.54
455.5	5005.75
455.705	5253.55
455.911	5110.19
456.117	5419.44
456.323	5540.27
456.529	5714.34
456.735	6185.38
456.941	6328.74
457.147	6564.25
457.352	6676.89
457.558	6996.37
457.764	7238.03
457.97	7569.8
458.176	7784.84
458.381	8112.52
458.587	8386.94
458.793	8679.8
458.999	8677.76
459.204	9744.75
459.41	10180.96
459.616	9931.11
459.821	10565.98
460.027	10824.03
460.233	11624.78
460.438	11395.41
460.644	12294.47
460.85	12132.68
461.055	12751.17
461.261	13375.8
461.466	13216.05
461.672	13449.52
461.878	14991.64
462.083	15083.8
462.289	15030.55
462.494	15683.86
462.7	15894.8
462.905	16261.38
463.111	17541.36
463.316	18137.32
463.522	18600.16
463.727	19169.5
463.932	20216.01
464.138	20783.3
464.343	21307.58
464.549	21487.8
464.754	22950.05
464.959	23546.01
465.165	23890.07
465.37	23842.96
465.575	23851.16
465.781	25321.6
465.986	26159.22
466.191	26017.91
466.397	26445.93
466.602	25620.6
466.807	26867.81
467.012	27689.05
467.218	27844.7
467.423	27875.41
467.628	28944.45
467.833	30623.79
468.038	30132.28
468.244	29073.48
468.449	30562.35
468.654	30009.4
468.859	29917.24
469.064	30093.36
469.269	29280.32
469.474	29775.93
469.679	30398.51
469.885	29685.82
470.09	29952.05
470.295	30113.84
470.5	29503.55
470.705	29589.56
470.91	29204.55
471.115	28530.76
471.32	28971.08
471.525	28909.64
471.73	28014.68
471.935	27979.86
472.139	26939.49
472.344	27019.36
472.549	26988.64
472.754	26333.29
472.959	25682.04
473.164	24588.42
473.369	24574.09
473.574	24989.83
473.778	24635.53
473.983	24354.96
474.188	24039.57
474.393	22857.89
474.598	22427.82
474.802	21958.83
475.007	22114.48
475.212	21860.53
475.417	20574.41
475.621	20852.93
475.826	20881.6
476.031	19730.64
476.235	19415.26
476.44	19607.76
476.645	18960.61
476.849	18645.22
477.054	18563.3
477.259	18030.83
477.463	18020.59
477.668	17606.9
477.872	17697.01
478.077	16701.7
478.282	16541.96
478.486	16464.13
478.691	16169.23
478.895	16089.35
479.1	16183.56
479.304	16068.87
479.509	15606.03
479.713	15737.1
479.918	15302.93
480.122	14995.74
480.326	15143.19
480.531	15319.32
480.735	14874.91
480.94	14670.11
481.144	15212.82
481.348	14311.72
481.553	14342.44
481.757	13932.84
481.961	14090.54
482.166	14362.92
482.37	14102.82
482.574	13791.53
482.778	13732.14
482.983	13801.77
483.187	13879.6
483.391	13211.96
483.595	13300.02
483.8	13109.56
484.004	13091.13
484.208	13390.13
484.412	12878.14
484.616	12794.17
484.821	12708.16
485.025	12243.27
485.229	12415.3
485.433	12230.98
485.637	12108.1
485.841	11798.86
486.045	11753.8
486.249	11831.63
486.453	11407.7
486.657	11221.33
486.861	11200.85
487.065	10830.17
487.269	10961.24
487.473	10408.29
487.677	10637.66
487.881	10578.27
488.085	10078.57
488.289	10238.31
488.493	9957.74
488.697	9914.73
488.901	9578.86
489.105	9288.05
489.309	9138.55
489.512	9111.92
489.716	8905.08
489.92	8831.35
490.124	8497.53
490.328	8628.6
490.531	8186.24
490.735	8270.21
490.939	8030.6
491.143	7928.2
491.346	7674.25
491.55	7688.59
491.754	7481.74
491.958	7649.68
492.161	7385.49
492.365	7291.28
492.569	7248.27
492.772	7168.4
492.976	6992.28
493.18	6904.21
493.383	6828.44
493.587	6728.09
493.79	6775.19
493.994	6355.36
494.197	6535.58
494.401	6515.1
494.605	6373.79
494.808	6480.29
495.012	6320.54
495.215	6338.98
495.419	6310.3
495.622	6125.99
495.825	6074.79
496.029	6152.61
496.232	6087.08
496.436	6072.74
496.639	6117.79
496.843	5947.81
497.046	5927.33
497.249	6091.17
497.453	6066.6
497.656	5988.77
497.859	6044.07
498.063	6144.42
498.266	6201.76
498.469	6295.97
498.673	6003.11
498.876	6216.1
499.079	6304.16
499.282	6070.69
499.485	6433.18
499.689	6193.57
499.892	6533.53
500.095	6230.43
500.298	6521.24
500.501	6316.45
500.705	6613.4
500.908	6599.07
501.111	6443.42
501.314	6771.1
501.517	6799.77
501.72	6861.21
501.923	6896.02
502.126	7111.06
502.329	7166.35
502.532	7016.85
502.735	7137.68
502.938	7440.78
503.141	7342.48
503.344	7463.31
503.547	7745.93
503.75	7526.8
503.953	7682.44
504.156	7881.1
504.359	8057.22
504.562	8016.26
504.765	8214.91
504.968	8481.15
505.17	8391.04
505.373	8608.12
505.576	8749.43
505.779	8673.66
505.982	9156.98
506.185	9281.91
506.387	9394.54
506.59	9492.85
506.793	9652.59
506.996	9585.01
507.198	10187.11
507.401	10207.59
507.604	10498.4
507.807	10674.53
508.009	10948.95
508.212	10758.49
508.415	11411.79
508.617	11338.07
508.82	11704.65
509.022	11811.15
509.225	12204.36
509.428	12284.23
509.63	12890.43
509.833	12736.83
510.035	13549.87
510.238	13392.18
510.44	13691.18
510.643	14000.43
510.845	14612.77
511.048	14530.85
511.25	15020.31
511.453	15227.16
511.655	16128.27
511.858	15905.04
512.06	16316.68
512.262	16746.75
512.465	17056
512.667	17467.64
512.87	17633.52
513.072	18026.73
513.274	18802.91
513.477	19001.57
513.679	19599.57
513.881	19968.21
514.084	20072.65
514.286	20568.26
514.488	21037.25
514.69	21700.79
514.893	22026.42
515.095	22212.78
515.297	22935.71
515.499	23261.34
515.701	23912.6
515.904	24656.01
516.106	24869
516.308	25094.27
516.51	25839.73
516.712	26060.91
516.914	26550.38
517.116	27123.81
517.318	27689.05
517.52	28491.85
517.722	28620.88
517.925	29130.82
518.127	29825.08
518.329	30355.5
518.531	30478.38
518.733	31105.06
518.935	31639.58
519.136	31995.93
519.338	32659.47
519.54	33026.06
519.742	33796.09
519.944	33810.43
520.146	34832.36
520.348	34953.19
520.55	35428.32
520.752	35717.09
520.954	36450.26
521.155	36599.76
521.357	37291.97
521.559	37476.29
521.761	38221.75
521.963	38125.5
522.164	38490.04
522.366	38698.93
522.568	39561.12
522.77	39348.14
522.971	40019.87
523.173	39839.65
523.375	40152.99
523.576	40466.33
523.778	40406.94
523.98	40902.54
524.181	41058.19
524.383	41226.12
524.584	41756.55
524.786	41095.05
524.988	41213.84
525.189	41490.31
525.391	41871.23
525.592	41699.2
525.794	41848.71
525.995	41269.13
526.197	41660.29
526.398	41652.1
526.6	41518.98
526.801	41435.02
527.003	40920.98
527.204	40918.93
527.406	40980.37
527.607	40511.38
527.808	40941.46
528.01	40171.42
528.211	40325.02
528.412	40523.67
528.614	40044.44
528.815	39649.19
529.016	39749.54
529.218	38662.07
529.419	38281.14
529.62	38041.53
529.822	37904.32
530.023	37722.05
530.224	37326.79
530.425	36528.08
530.626	36302.81
530.828	35819.49
531.029	36122.58
531.23	35192.81
531.431	34689.01
531.632	34476.02
531.833	34181.11
532.035	33624.06
532.236	33198.09
532.437	32960.52
532.638	32620.56
532.839	32223.25
533.04	31567.9
533.241	31201.32
533.442	31551.52
533.643	30498.86
533.844	30163
534.045	29972.53
534.246	29141.06
534.447	29016.13
534.648	28659.79
534.849	28313.68
535.05	27920.47
535.251	27390.05
535.451	27148.39
535.652	26665.07
535.853	26382.45
536.054	26271.86
536.255	25679.99
536.456	24850.56
536.657	24864.9
536.857	24623.24
537.058	23980.18
537.259	24072.34
537.46	23439.51
537.66	23277.72
537.861	23117.98
538.062	22778.02
538.263	22610.09
538.463	22173.87
538.664	22214.83
538.865	21362.87
539.065	21420.22
539.266	20965.57
539.466	21086.4
539.667	20467.91
539.868	20508.87
540.068	20111.57
540.269	19869.9
540.469	19632.34
540.67	19216.6
540.87	18983.13
541.071	18718.95
541.271	18741.47
541.472	18606.31
541.672	18118.89
541.873	18016.49
542.073	17944.81
542.274	17996.01
542.474	17535.22
542.675	16955.65
542.875	17289.46
543.075	16679.17
543.276	16744.7
543.476	16584.96
543.676	16312.58
543.877	16105.74
544.077	15896.85
544.277	16023.82
544.478	15722.77
544.678	15634.71
544.878	15288.6
545.078	15096.09
545.279	14559.52
545.479	14829.85
545.679	14600.48
545.879	14547.23
546.079	14360.87
546.28	13951.28
546.48	13840.68
546.68	14025
546.88	13871.4
547.08	13467.95
547.28	13472.05
547.48	12796.22
547.68	13072.7
547.88	12630.34
548.081	12638.53
548.281	12511.55
548.481	12357.96
548.681	12280.13
548.881	12052.81
549.081	11966.79
549.28	11702.61
549.48	11708.75
549.68	11538.77
549.88	11374.93
550.08	10963.29
550.28	11020.63
550.48	10817.88
550.68	10729.82
550.88	10555.74
551.08	10402.15
551.279	10389.86
551.479	9896.3
551.679	10047.85
551.879	9560.43
552.079	9724.27
552.278	9304.43
552.478	9410.93
552.678	9212.28
552.878	9359.73
553.077	9030.01
553.277	8792.44
553.477	8690.04
553.676	8477.05
553.876	8391.04
554.076	8190.34
554.275	8155.52
554.475	7811.46
554.674	8124.8
554.874	7891.34
555.074	7678.35
555.273	7524.75
555.473	7647.63
555.672	7262.61
555.872	7145.87
556.071	7035.28
556.271	7242.13
556.47	6988.18
556.67	6742.43
556.869	6771.1
557.068	6703.51
557.268	6400.41
557.467	6398.37
557.667	6267.3
557.866	6128.03
558.065	6171.04
558.265	5970.34
558.464	5792.17
558.663	5607.85
558.863	5577.13
559.062	5532.08
559.261	5337.52
559.461	5374.38
559.66	5116.34
559.859	5204.4
560.058	5104.05
560.258	5102
560.457	5157.3
560.656	5044.66
560.855	4716.98
561.054	4950.45
561.253	4559.29
561.453	4659.64
561.652	4563.39
561.851	4440.51
562.05	4303.29
562.249	4047.3
562.448	4266.43
562.647	4129.22
562.846	4166.08
563.045	4223.42
563.244	4073.92
563.443	4121.03
563.642	3799.49
563.841	4018.63
564.04	3662.28
564.239	3789.25
564.438	3627.46
564.637	3475.91
564.836	3668.42
565.035	3484.11
565.234	3377.61
565.432	3459.53
565.631	3549.64
565.83	3465.68
566.029	3314.13
566.228	3125.71
566.427	3350.99
566.625	3262.93
566.824	3193.3
567.023	3021.27
567.222	3062.23
567.42	3008.98
567.619	2988.5
567.818	3004.88
568.016	3004.88
568.215	2867.67
568.414	2902.48
568.612	2910.68
568.811	2744.79
569.01	2707.93
569.208	2574.81
569.407	2636.25
569.605	2675.16
569.804	2585.05
570.002	2374.11
570.201	2388.44
570.4	2464.22
570.598	2343.39
570.797	2267.61
570.995	2312.67
571.193	2316.76
571.392	2251.23
571.59	2142.69
571.789	2265.57
571.987	2208.22
572.186	2247.13
572.384	2015.71
572.582	2021.86
572.781	2152.93
572.979	1851.88
573.177	1823.2
573.376	1978.85
573.574	1903.07
573.772	1823.2
573.971	1821.16
574.169	1788.39
574.367	1901.03
574.565	1761.77
574.763	1642.98
574.962	1663.46
575.16	1622.5
575.358	1591.78
575.556	1620.46
575.754	1657.32
575.952	1675.75
576.151	1575.4
576.349	1649.13
576.547	1341.93
576.745	1370.6
576.943	1337.84
577.141	1378.79
577.339	1319.4
577.537	1432.04
577.735	1456.62
577.933	1235.44
578.131	1282.54
578.329	1429.99
578.527	1266.16
578.725	1380.84
578.923	1167.85
579.121	1208.81
579.319	1190.38
579.516	1133.04
579.714	1440.23
579.912	1102.32
580.11	1069.55
580.308	1104.37
580.506	1178.09
580.704	969.2
580.901	1122.8
581.099	1182.19
581.297	1016.3
581.495	1032.69
581.692	1006.06
581.89	1106.42
582.088	1008.11
582.285	903.67
582.483	899.57
582.681	1014.26
582.878	936.43
583.076	801.27
583.274	874.99
583.471	1061.36
583.669	883.19
583.866	807.41
584.064	829.94
584.262	762.36
584.459	719.35
584.657	862.71
584.854	881.14
585.052	782.84
585.249	801.27
585.447	866.8
585.644	590.33
585.841	836.08
586.039	739.83
586.236	786.93
586.434	705.01
586.631	694.77
586.828	680.44
587.026	657.91
587.223	596.47
587.42	604.66
587.618	670.2
587.815	719.35
588.012	684.53
588.21	629.24
588.407	629.24
588.604	700.92
588.801	580.09
588.999	598.52
589.196	610.81
589.393	598.52
589.59	629.24
589.787	555.51
589.984	725.49
590.182	590.33
590.379	485.88
590.576	514.55
590.773	600.57
590.97	553.46
591.167	686.58
591.364	598.52
591.561	563.7
591.758	670.2
591.955	569.85
592.152	561.66
592.349	535.03
592.546	496.12
592.743	520.7
592.94	485.88
593.137	555.51
593.334	584.18
593.531	598.52
593.727	578.04
593.924	686.58
594.121	444.92
594.318	571.9
594.515	541.18
594.712	676.34
594.908	659.96
595.105	473.59
595.302	604.66
595.499	610.81
595.696	571.9
595.892	510.46
596.089	631.29
596.286	594.42
596.482	664.05
596.679	655.86
596.876	596.47
597.072	698.87
597.269	735.73
597.466	686.58
597.662	668.15
597.859	692.73
598.055	752.12
598.252	852.47
598.448	891.38
598.645	993.78
598.841	913.91
599.038	981.49
599.234	1034.74
599.431	889.33
599.627	1010.16
599.824	1059.31
600.02	1094.13
600.217	1145.33
600.413	1229.29
600.609	1174
600.806	1466.86
601.002	1362.41
601.198	1307.12
601.395	1382.89
601.591	1475.05
601.787	1427.95
601.984	1536.49
602.18	1704.42
602.376	1663.46
602.572	1829.35
602.769	1812.96
602.965	1976.8
603.161	1921.51
603.357	2003.43
603.553	2177.5
603.75	2122.21
603.946	2267.61
604.142	2351.58
604.338	2480.6
604.534	2478.55
604.73	2392.54
604.926	2724.31
605.122	2791.89
605.318	2769.37
605.514	2898.39
605.71	3002.83
605.906	3039.7
606.102	3037.65
606.298	3228.11
606.494	3463.63
606.69	3455.44
606.886	3580.36
607.082	3520.97
607.278	3727.82
607.474	3834.31
607.67	3922.37
607.866	3920.32
608.062	4262.33
608.257	4248
608.453	4356.54
608.649	4592.06
608.845	4483.52
609.041	4710.84
609.236	4975.03
609.432	5034.42
609.628	5196.21
609.824	5372.33
610.019	5444.01
610.215	5687.72
610.411	5890.47
610.606	5855.65
610.802	6087.08
610.998	6234.53
611.193	6451.61
611.389	6400.41
611.584	6703.51
611.78	6906.26
611.976	7059.86
612.171	7412.11
612.367	7387.54
612.562	7524.75
612.758	7811.46
612.953	7936.39
613.149	8425.86
613.344	8554.88
613.539	8735.1
613.735	8903.03
613.93	8935.8
614.126	9359.73
614.321	9607.53
614.517	9922.92
614.712	10180.96
614.907	10488.16
615.103	10604.89
615.298	10572.13
615.493	11344.21
615.688	11174.23
615.884	11954.51
616.079	11979.08
616.274	12349.76
616.47	12337.48
616.665	12894.52
616.86	13359.41
617.055	13523.25
617.25	13848.88
617.445	14555.43
617.641	14536.99
617.836	14985.5
618.031	15198.49
618.226	15796.49
618.421	15925.52
618.616	16546.05
618.811	16800
619.006	17094.91
619.201	17643.76
619.396	17834.22
619.591	18245.87
619.786	18960.61
619.981	19067.1
620.176	19525.85
620.371	19802.32
620.566	20621.51
620.761	21010.62
620.956	21528.76
621.151	21328.06
621.346	21985.46
621.541	22255.79
621.735	22843.56
621.93	22988.96
622.125	23675.03
622.32	23855.25
622.515	24598.66
622.709	24942.72
622.904	25292.93
623.099	25981.04
623.294	26378.35
623.488	26734.7
623.683	27320.42
623.878	27750.49
624.072	28272.72
624.267	28569.68
624.462	29120.58
624.656	29247.55
624.851	29911.1
625.046	30292.02
625.24	30683.18
625.435	30752.81
625.629	31668.25
625.824	31596.57
626.018	32786.44
626.213	32569.36
626.407	33445.89
626.602	33087.5
626.796	34062.33
626.991	34166.77
627.185	34332.66
627.38	34541.55
627.574	34805.74
627.768	35246.05
627.963	35155.94
628.157	35381.22
628.352	35551.2
628.546	35131.37
628.74	35831.77
628.935	35465.19
629.129	35749.85
629.323	35444.71
629.517	35514.34
629.712	35321.83
629.906	35051.5
630.1	34646
630.294	34529.27
630.489	33798.14
630.683	33783.8
630.877	32907.27
631.071	32028.7
631.265	31977.5
631.459	31754.27
631.653	30795.82
631.848	30191.67
632.042	29417.54
632.236	28958.79
632.43	28178.51
632.624	27277.41
632.818	26314.86
633.012	25561.21
633.206	24893.57
633.4	24453.26
633.594	22945.95
633.788	22964.39
633.982	21999.79
634.176	21309.63
634.369	20254.92
634.563	19779.79
634.757	18804.96
634.951	18426.09
635.145	17756.4
635.339	17039.61
635.533	16158.99
635.726	15753.49
635.92	14721.31
636.114	14311.72
636.308	13648.18
636.501	13179.19
636.695	12734.78
636.889	12106.06
637.083	11786.57
637.276	11077.97
637.47	10613.09
637.664	10461.54
637.857	9937.26
638.051	9638.25
638.244	9152.88
638.438	8661.37
638.632	8583.55
638.825	7975.3
639.019	7784.84
639.212	7360.91
639.406	7156.11
639.599	6820.25
639.793	6631.83
639.986	6295.97
640.18	6394.27
640.373	6023.59
640.567	5589.42
640.76	5323.18
640.954	5224.88
641.147	5034.42
641.34	4848.05
641.534	4608.44
641.727	4516.28
641.92	4448.7
642.114	4180.42
642.307	4055.49
642.5	3840.45
642.694	3631.56
642.887	3668.42
643.08	3512.78
643.273	3310.03
643.467	3197.39
643.66	3199.44
643.853	2916.82
644.046	2861.52
644.239	2798.04
644.432	2709.97
644.626	2537.95
644.819	2406.88
645.012	2370.01
645.205	2300.38
645.398	2165.21
645.591	2083.3
645.784	1907.17
645.977	1798.63
646.17	1823.2
646.363	1737.19
646.556	1702.37
646.749	1604.07
646.942	1544.68
647.135	1561.06
647.328	1477.1
647.521	1452.52
647.714	1325.55
647.907	1333.74
648.099	1221.1
648.292	1296.88
648.485	1194.48
648.678	1092.08
648.871	1085.94
649.064	1126.89
649.256	926.19
649.449	920.05
649.642	870.9
649.835	915.95
650.027	944.63
650.22	946.67
650.413	791.03
650.605	799.22
650.798	741.88
650.991	711.16
651.183	719.35
651.376	762.36
651.568	631.29
651.761	565.75
651.954	655.86
652.146	473.59
652.339	627.19
652.531	637.43
652.724	518.65
652.916	483.83
653.109	363
653.301	584.18
653.494	616.95
653.686	449.02
653.879	643.57
654.071	555.51
654.263	391.67
654.456	406.01
654.648	477.69
654.84	352.76
655.033	367.1
655.225	463.35
655.417	270.84
655.61	485.88
655.802	389.63
655.994	399.87
656.186	309.76
656.379	406.01
656.571	297.47
656.763	311.8
656.955	320
657.148	266.75
657.34	363
657.532	301.56
657.724	219.64
657.916	289.28
658.108	365.05
658.3	309.76
658.492	354.81
658.684	184.83
658.876	268.8
659.068	227.84
659.26	76.29
659.452	170.49
659.644	227.84
659.836	285.18
660.028	199.16
660.22	143.87
660.412	248.32
660.604	168.45
660.796	193.02
660.988	172.54
661.18	250.36
661.372	233.98
661.563	178.69
661.755	158.21
661.947	125.44
662.139	154.11
662.331	182.78
662.522	156.16
662.714	61.95
662.906	102.91
663.097	182.78
663.289	147.97
663.481	64
663.673	162.3
663.864	260.6
664.056	137.73
664.247	172.54
664.439	221.69
664.631	154.11
664.822	158.21
665.014	80.38
665.205	82.43
665.397	96.77
665.588	213.5
665.78	53.76
665.971	207.36
666.163	113.15
666.354	186.88
666.546	100.86
666.737	82.43
666.929	201.21
667.12	29.18
667.311	162.3
667.503	125.44
667.694	96.77
667.885	125.44
668.077	147.97
668.268	64
668.459	94.72
668.651	107.01
668.842	107.01
669.033	20.99
669.224	12.8
669.416	254.46
669.607	90.62
669.798	64
669.989	246.27
670.18	111.1
670.371	186.88
670.563	12.8
670.754	172.54
670.945	166.4
671.136	150.01
671.327	78.33
671.518	152.06
671.709	213.5
671.9	170.49
672.091	186.88
672.282	92.67
672.473	131.58
672.664	35.33
672.855	70.14
673.046	135.68
673.237	201.21
673.428	154.11
673.619	229.88
673.809	119.29
674	207.36
674.191	164.35
674.382	154.11
674.573	137.73
674.764	31.23
674.954	197.12
675.145	133.63
675.336	113.15
675.527	100.86
675.717	152.06
675.908	160.25
676.099	117.25
676.289	172.54
676.48	84.48
676.671	74.24
676.861	111.1
677.052	113.15
677.243	92.67
677.433	70.14
677.624	186.88
677.814	190.97
678.005	37.38
678.195	244.22
678.386	8.7
678.576	109.05
678.767	-26.11
678.957	150.01
679.148	254.46
679.338	252.41
679.529	193.02
679.719	176.64
679.909	168.45
680.1	225.79
680.29	178.69
680.481	29.18
680.671	141.82
680.861	195.07
681.052	139.77
681.242	72.19
681.432	260.6
681.622	154.11
681.813	107.01
682.003	174.59
682.193	117.25
682.383	115.2
682.573	160.25
682.764	143.87
682.954	145.92
683.144	299.52
683.334	174.59
683.524	162.3
683.714	231.93
683.904	195.07
684.094	213.5
684.284	266.75
684.474	180.73
684.664	272.89
684.854	193.02
685.044	164.35
685.234	156.16
685.424	172.54
685.614	109.05
685.804	258.56
685.994	190.97
686.184	135.68
686.374	219.64
686.564	225.79
686.753	170.49
686.943	141.82
687.133	172.54
687.323	213.5
687.513	223.74
687.702	184.83
687.892	145.92
688.082	309.76
688.272	317.95
688.461	115.2
688.651	291.32
688.841	225.79
689.03	111.1
689.22	143.87
689.41	199.16
689.599	207.36
689.789	129.53
689.979	238.08
690.168	160.25
690.358	276.99
690.547	139.77
690.737	154.11
690.926	170.49
691.116	205.31
691.305	307.71
691.495	219.64
691.684	143.87
691.874	186.88
692.063	197.12
692.252	223.74
692.442	229.88
692.631	190.97
692.82	125.44
693.01	135.68
693.199	162.3
693.388	211.45
693.578	201.21
693.767	197.12
693.956	156.16
694.146	133.63
694.335	221.69
694.524	125.44
694.713	229.88
694.902	193.02
695.092	102.91
695.281	172.54
695.47	137.73
695.659	117.25
695.848	150.01
696.037	104.96
696.226	205.31
696.415	158.21
696.604	242.17
696.793	229.88
696.982	190.97
697.171	250.36
697.36	68.09
697.549	186.88
697.738	-77.31
697.927	127.49
698.116	141.82
698.305	184.83
698.494	246.27
698.683	119.29
698.872	297.47
699.061	94.72
699.25	100.86
699.438	240.12
699.627	119.29
699.816	252.41
700.005	37.38
700.193	59.9
700.382	190.97
700.571	227.84
700.76	188.93
700.948	268.8
701.137	227.84
701.326	154.11
701.514	125.44
701.703	160.25
701.892	96.77
702.08	250.36
702.269	193.02
702.457	59.9
702.646	147.97
702.834	180.73
703.023	166.4
703.212	160.25
703.4	139.77
703.589	156.16
703.777	121.34
703.965	123.39
704.154	109.05
704.342	8.7
704.531	133.63
704.719	139.77
704.907	180.73
705.096	84.48
705.284	31.23
705.472	164.35
705.661	180.73
705.849	199.16
706.037	172.54
706.226	168.45
706.414	215.55
706.602	104.96
706.79	147.97
706.979	139.77
707.167	117.25
707.355	-7.68
707.543	240.12
707.731	162.3
707.919	145.92
708.107	166.4
708.296	94.72
708.484	2.56
708.672	141.82
708.86	197.12
709.048	156.16
709.236	117.25
709.424	156.16
709.612	172.54
709.8	94.72
709.988	156.16
710.176	188.93
710.364	168.45
710.551	188.93
710.739	184.83
710.927	78.33
711.115	164.35
711.303	180.73
711.491	217.6
711.679	76.29
711.866	117.25
712.054	72.19
712.242	170.49
712.43	229.88
712.617	135.68
712.805	223.74
712.993	166.4
713.181	37.38
713.368	195.07
713.556	141.82
713.744	111.1
713.931	281.08
714.119	197.12
714.306	88.57
714.494	82.43
714.682	219.64
714.869	98.81
715.057	174.59
715.244	64
715.432	190.97
715.619	127.49
715.807	164.35
715.994	135.68
716.182	233.98
716.369	199.16
716.556	231.93
716.744	82.43
716.931	35.33
717.119	188.93
717.306	109.05
717.493	176.64
717.681	154.11
717.868	162.3
718.055	135.68
718.242	137.73
718.43	186.88
718.617	297.47
718.804	141.82
718.991	227.84
719.179	150.01
719.366	215.55
719.553	115.2
719.74	162.3
719.927	199.16
720.114	186.88
720.301	119.29
720.488	236.03
720.676	82.43
720.863	131.58
721.05	254.46
721.237	219.64
721.424	256.51
721.611	174.59
721.798	8.7
721.985	61.95
722.172	94.72
722.358	104.96
722.545	223.74
722.732	121.34
722.919	225.79
723.106	184.83
723.293	162.3
723.48	180.73
723.667	64
723.853	225.79
724.04	289.28
724.227	199.16
724.414	182.78
724.6	229.88
724.787	272.89
724.974	354.81
725.161	219.64
725.347	127.49
725.534	166.4
725.72	258.56
725.907	213.5
726.094	174.59
726.28	78.33
726.467	141.82
726.653	117.25
726.84	223.74
727.027	281.08
727.213	184.83
727.4	250.36
727.586	215.55
727.773	195.07
727.959	211.45
728.145	190.97
728.332	225.79
728.518	123.39
728.705	219.64
728.891	260.6
729.077	193.02
729.264	107.01
729.45	127.49
729.636	274.94
729.823	141.82
730.009	233.98
730.195	279.04
730.382	250.36
730.568	215.55
730.754	170.49
730.94	178.69
731.126	147.97
731.313	270.84
731.499	182.78
731.685	166.4
731.871	184.83
732.057	238.08
732.243	371.19
732.429	236.03
732.615	340.47
732.801	223.74
732.987	147.97
733.173	188.93
733.359	188.93
733.545	221.69
733.731	262.65
733.917	221.69
734.103	193.02
734.289	297.47
734.475	152.06
734.661	399.87
734.847	211.45
735.033	281.08
735.219	223.74
735.404	176.64
735.59	213.5
735.776	184.83
735.962	291.32
736.148	199.16
736.333	256.51
736.519	215.55
736.705	223.74
736.89	270.84
737.076	180.73
737.262	80.38
737.447	139.77
737.633	152.06
737.819	272.89
738.004	211.45
738.19	225.79
738.375	229.88
738.561	281.08
738.747	205.31
738.932	137.73
739.118	346.62
739.303	221.69
739.489	145.92
739.674	158.21
739.859	92.67
740.045	268.8
740.23	240.12
740.416	78.33
740.601	229.88
740.786	172.54
740.972	195.07
741.157	246.27
741.342	197.12
741.528	139.77
741.713	227.84
741.898	240.12
742.084	213.5
742.269	221.69
742.454	203.26
742.639	295.42
742.824	178.69
743.01	287.23
743.195	342.52
743.38	186.88
743.565	145.92
743.75	178.69
743.935	309.76
744.12	352.76
744.305	176.64
744.49	199.16
744.675	168.45
744.86	184.83
745.045	289.28
745.23	219.64
745.415	205.31
745.6	291.32
745.785	123.39
745.97	285.18
746.155	274.94
746.34	285.18
746.525	254.46
746.71	270.84
746.895	211.45
747.079	119.29
747.264	141.82
747.449	299.52
747.634	268.8
747.819	186.88
748.003	205.31
748.188	133.63
748.373	207.36
748.557	227.84
748.742	258.56
748.927	174.59
749.111	164.35
749.296	184.83
749.481	190.97
749.665	137.73
749.85	207.36
750.034	205.31
750.219	227.84
750.404	72.19
750.588	246.27
750.773	74.24
750.957	168.45
751.141	172.54
751.326	219.64
751.51	49.66
751.695	98.81
751.879	158.21
752.064	287.23
752.248	164.35
752.432	248.32
752.617	248.32
752.801	266.75
752.985	154.11
753.17	272.89
753.354	145.92
753.538	104.96
753.722	111.1
753.907	172.54
754.091	190.97
754.275	211.45
754.459	53.76
754.643	119.29
754.828	113.15
755.012	229.88
755.196	86.53
755.38	199.16
755.564	86.53
755.748	170.49
755.932	184.83
756.116	213.5
756.3	137.73
756.484	123.39
756.668	215.55
756.852	-7.68
757.036	72.19
757.22	109.05
757.404	152.06
757.588	102.91
757.772	162.3
757.956	139.77
758.14	207.36
758.323	78.33
758.507	195.07
758.691	49.66
758.875	190.97
759.059	199.16
759.242	131.58
759.426	125.44
759.61	92.67
759.794	100.86
759.977	154.11
760.161	324.09
760.345	252.41
760.528	121.34
760.712	162.3
760.895	164.35
761.079	121.34
761.263	55.81
761.446	51.71
761.63	141.82
761.813	150.01
761.997	78.33
762.18	90.62
762.364	139.77
762.547	16.9
762.731	64
762.914	147.97
763.098	121.34
763.281	123.39
763.464	80.38
763.648	96.77
763.831	70.14
764.015	82.43
764.198	193.02
764.381	111.1
764.564	102.91
764.748	27.14
764.931	119.29
765.114	100.86
765.297	190.97
765.481	45.57
765.664	55.81
765.847	23.04
766.03	160.25
766.213	23.04
766.397	88.57
766.58	-3.58
766.763	154.11
766.946	45.57
767.129	68.09
767.312	47.62
767.495	55.81
767.678	16.9
767.861	80.38
768.044	82.43
768.227	10.75
768.41	111.1
768.593	76.29
768.776	88.57
768.959	-3.58
769.142	162.3
769.324	59.9
769.507	57.86
769.69	10.75
769.873	94.72
770.056	209.4
770.239	102.91
770.421	207.36
770.604	133.63
770.787	6.66
770.97	88.57
771.152	35.33
771.335	176.64
771.518	76.29
771.7	137.73
771.883	150.01
772.066	76.29
772.248	35.33
772.431	139.77
772.613	129.53
772.796	-17.92
772.978	150.01
773.161	133.63
773.343	0.51
773.526	-5.63
773.708	-132.61
773.891	-97.79
774.073	78.33
774.256	-19.97
774.438	172.54
774.621	123.39
774.803	70.14
774.985	6.66
775.168	154.11
775.35	-83.45
775.532	129.53
775.715	20.99
775.897	96.77
776.079	64
776.261	86.53
776.444	41.47
776.626	94.72
776.808	68.09
776.99	-9.73
777.173	84.48
777.355	23.04
777.537	74.24
777.719	72.19
777.901	-50.69
778.083	-3.58
778.265	-34.3
778.447	129.53
778.629	6.66
778.811	45.57
778.993	129.53
779.175	115.2
779.357	39.42
779.539	-81.41
779.721	64
779.903	45.57
780.085	25.09
780.267	25.09
780.449	107.01
780.631	96.77
780.812	98.81
780.994	92.67
781.176	72.19
781.358	72.19
781.54	31.23
781.721	88.57
781.903	49.66
782.085	18.94
782.267	78.33
782.448	-83.45
782.63	29.18
782.812	39.42
782.993	12.8
783.175	100.86
783.357	57.86
783.538	6.66
783.72	-24.06
783.901	31.23
784.083	-5.63
784.264	8.7
784.446	12.8
784.627	-87.55
784.809	41.47
784.99	-5.63
785.172	51.71
785.353	31.23
785.535	74.24
785.716	2.56
785.897	20.99
786.079	70.14
786.26	47.62
786.441	107.01
786.623	-79.36
786.804	-79.36
786.985	57.86
787.167	98.81
787.348	16.9
787.529	-26.11
787.71	43.52
787.891	47.62
788.073	29.18
788.254	-50.69
788.435	117.25
788.616	23.04
788.797	25.09
788.978	-1.54
789.159	90.62
789.34	35.33
789.522	57.86
789.703	-65.02
789.884	-34.3
790.065	43.52
790.246	195.07
790.427	-54.78
790.607	96.77
790.788	104.96
790.969	-24.06
791.15	31.23
791.331	-54.78
791.512	-22.02
791.693	-77.31
791.874	-1.54
792.054	180.73
792.235	88.57
792.416	-40.45
792.597	-62.98
792.778	74.24
792.958	57.86
793.139	-17.92
793.32	6.66
793.5	-60.93
793.681	139.77
793.862	-11.78
794.042	0.51
794.223	-62.98
794.404	-1.54
794.584	-91.65
794.765	-9.73
794.945	-34.3
795.126	84.48
795.306	86.53
795.487	41.47
795.667	-75.26
795.848	64
796.028	-13.82
796.209	39.42
796.389	61.95
796.57	0.51
796.75	-67.07
796.93	10.75
797.111	39.42
797.291	-44.54
797.471	47.62
797.652	20.99
797.832	-46.59
798.012	82.43
798.192	-9.73
798.373	14.85
798.553	-5.63
798.733	4.61
798.913	-75.26
799.093	16.9
799.274	0.51
799.454	135.68
799.634	8.7
799.814	18.94
799.994	8.7
800.174	51.71
800.354	-67.07
800.534	-132.61
800.714	47.62
800.894	-60.93
801.074	-71.17
801.254	-9.73
801.434	129.53
801.614	-19.97
801.794	-67.07
801.974	1647.08
802.154	-24.06
802.334	92.67
802.514	4.61
802.693	90.62
802.873	-81.41
803.053	111.1
803.233	-17.92
803.413	-13.82
803.592	-62.98
803.772	-52.74
803.952	156.16
804.131	-28.16
804.311	47.62
804.491	119.29
804.67	-26.11
804.85	-65.02
805.03	14.85
805.209	104.96
805.389	41.47
805.568	-60.93
805.748	-62.98
805.928	66.05
806.107	61.95
806.287	68.09
806.466	68.09
806.646	27.14
806.825	31.23
807.004	-44.54
807.184	59.9
807.363	143.87
807.543	33.28
807.722	-50.69
807.901	43.52
808.081	33.28
808.26	-105.98
808.439	2.56
808.619	16.9
808.798	-34.3
808.977	43.52
809.156	82.43
809.336	82.43
809.515	129.53
809.694	-62.98
809.873	-32.26
810.052	184.83
810.231	14.85
810.411	10.75
810.59	78.33
810.769	84.48
810.948	92.67
811.127	-116.22
811.306	23.04
811.485	8.7
811.664	94.72
811.843	-58.88
812.022	-73.21
812.201	-54.78
812.38	-85.5
812.559	-38.4
812.737	2.56
812.916	-87.55
813.095	-26.11
813.274	131.58
813.453	-22.02
813.632	-48.64
813.811	43.52
813.989	-89.6
814.168	37.38
814.347	-52.74
814.526	-46.59
814.704	86.53
814.883	115.2
815.062	-40.45
815.24	-42.5
815.419	-26.11
815.598	47.62
815.776	-132.61
815.955	10.75
816.133	-48.64
816.312	6.66
816.49	-44.54
816.669	-36.35
816.847	-1.54
817.026	18.94
817.204	-13.82
817.383	-1.54
817.561	-46.59
817.74	61.95
817.918	-19.97
818.097	-46.59
818.275	-50.69
818.453	-1.54
818.632	12.8
818.81	-19.97
818.988	-103.93
819.167	39.42
819.345	20.99
819.523	-3.58
819.701	-44.54
819.879	72.19
820.058	27.14
820.236	18.94
820.414	-71.17
820.592	-50.69
820.77	0.51
820.948	-13.82
821.127	-89.6
821.305	-71.17
821.483	-69.12
821.661	39.42
821.839	25.09
822.017	-95.74
822.195	51.71
822.373	57.86
822.551	12.8
822.729	-3.58
822.907	-67.07
823.085	43.52
823.262	23.04
823.44	-40.45
823.618	-81.41
823.796	-44.54
823.974	-30.21
824.152	33.28
824.329	-48.64
824.507	31.23
824.685	55.81
824.863	10.75
825.04	-9.73
825.218	14.85
825.396	-11.78
825.574	-26.11
825.751	-30.21
825.929	12.8
826.107	-108.03
826.284	-44.54
826.462	-54.78
826.639	-48.64
826.817	10.75
826.994	-28.16
827.172	-79.36
827.349	90.62
827.527	25.09
827.704	14.85
827.882	14.85
828.059	-62.98
828.237	-46.59
828.414	102.91
828.591	-114.17
828.769	-11.78
828.946	-69.12
829.124	-15.87
829.301	29.18
829.478	-67.07
829.655	-38.4
829.833	16.9
830.01	-112.13
830.187	-13.82
830.364	-7.68
830.542	14.85
830.719	47.62
830.896	12.8
831.073	23.04
831.25	84.48
831.427	29.18
831.604	6.66
831.782	-38.4
831.959	37.38
832.136	-62.98
832.313	49.66
832.49	-44.54
832.667	-44.54
832.844	-38.4
833.021	8.7
833.198	61.95
833.374	76.29
833.551	-60.93
833.728	-54.78
833.905	57.86
834.082	-144.89
834.259	25.09
834.436	121.34
834.612	-165.37
834.789	66.05
834.966	-22.02
835.143	16.9
835.319	-77.31
835.496	35.33
835.673	-11.78
835.85	84.48
836.026	53.76
836.203	47.62
836.38	-56.83
836.556	-42.5
836.733	-44.54
836.909	152.06
837.086	-22.02
837.262	-50.69
837.439	61.95
837.616	29.18
837.792	-87.55
837.968	-7.68
838.145	-151.04
838.321	4.61
838.498	45.57
838.674	0.51
838.851	57.86
839.027	-19.97
839.203	35.33
839.38	72.19
839.556	33.28
839.732	-1.54
839.909	-105.98
840.085	72.19
840.261	-132.61
840.437	-32.26
840.614	-50.69
840.79	107.01
840.966	41.47
841.142	-44.54
841.318	-58.88
841.494	6.66
841.671	6.66
841.847	-38.4
842.023	-105.98
842.199	23.04
842.375	47.62
842.551	-56.83
842.727	-124.41
842.903	96.77
843.079	-89.6
843.255	74.24
843.431	-69.12
843.607	8.7
843.783	-155.13
843.959	-11.78
844.134	-9.73
844.31	51.71
844.486	-118.27
844.662	-36.35
844.838	-5.63
845.013	102.91
845.189	53.76
845.365	-42.5
845.541	0.51
845.716	-40.45
845.892	-40.45
846.068	-58.88
846.244	-71.17
846.419	2.56
846.595	-81.41
846.77	-99.84
846.946	135.68
847.122	-65.02
847.297	-136.7
847.473	133.63
847.648	-122.37
847.824	0.51
847.999	-175.61
848.175	-46.59
848.35	-69.12
848.526	154.11
848.701	29.18
848.876	61.95
849.052	-3.58
849.227	-5.63
849.403	29.18
849.578	-110.08
849.753	-71.17
849.929	80.38
850.104	-87.55
850.279	-11.78
850.454	47.62
850.63	72.19
850.805	4.61
850.98	61.95
851.155	-17.92
851.33	-36.35
851.505	-69.12
851.681	78.33
851.856	-99.84
852.031	-17.92
852.206	-22.02
852.381	-56.83
852.556	-36.35
852.731	37.38
852.906	31.23
853.081	0.51
853.256	18.94
853.431	-5.63
853.606	-38.4
853.781	-110.08
853.956	-122.37
854.131	39.42
854.305	-67.07
854.48	12.8
854.655	-105.98
854.83	33.28
855.005	2.56
855.18	-15.87
855.354	-40.45
855.529	-58.88
855.704	-62.98
855.879	-75.26
856.053	-71.17
856.228	4.61
856.403	-56.83
856.577	66.05
856.752	-62.98
856.926	20.99
857.101	80.38
857.276	-67.07
857.45	-19.97
857.625	94.72
857.799	-83.45
857.974	-110.08
858.148	-120.32
858.323	-69.12
858.497	-5.63
858.672	-132.61
858.846	-22.02
859.02	10.75
859.195	-130.56
859.369	-34.3
859.543	0.51
859.718	-81.41
859.892	16.9
860.066	45.57
860.241	-67.07
860.415	-101.89
860.589	14.85
860.763	49.66
860.938	-34.3
861.112	23.04
861.286	-103.93
861.46	14.85
861.634	-79.36
861.808	47.62
861.982	-91.65
862.157	-77.31
862.331	-46.59
862.505	-81.41
862.679	-1.54
862.853	-60.93
863.027	16.9
863.201	59.9
863.375	-40.45
863.549	-30.21
863.722	27.14
863.896	104.96
864.07	-60.93
864.244	-36.35
864.418	84.48
864.592	-46.59
864.766	6.66
864.939	-11.78
865.113	-95.74
865.287	37.38
865.461	-114.17
865.634	-52.74
865.808	-22.02
865.982	-22.02
866.156	-151.04
866.329	-99.84
866.503	-81.41
866.676	14.85
866.85	8.7
867.024	-42.5
867.197	94.72
867.371	6.66
867.544	-3.58
867.718	-26.11
867.891	113.15
868.065	-108.03
868.238	-30.21
868.412	64
868.585	4.61
868.759	-40.45
868.932	-13.82
869.105	-114.17
869.279	57.86
869.452	-40.45
869.625	8.7
869.799	37.38
869.972	-81.41
870.145	-71.17
870.319	43.52
870.492	35.33
870.665	-140.8
870.838	-58.88
871.011	-91.65
871.185	-118.27
871.358	-126.46
871.531	0.51
871.704	-32.26
871.877	-44.54
872.05	-58.88
872.223	6.66
872.396	92.67
872.569	90.62
872.742	-81.41
872.915	70.14
873.088	-91.65
873.261	-62.98
873.434	55.81
873.607	-144.89
873.78	49.66
873.953	-116.22
874.126	20.99
874.299	-50.69
874.471	14.85
874.644	-79.36
874.817	78.33
874.99	80.38
875.163	-38.4
875.335	-67.07
875.508	-13.82
875.681	78.33
875.853	-144.89
876.026	-83.45
876.199	78.33
876.371	14.85
876.544	-83.45
876.717	0.51
876.889	-48.64
877.062	90.62
877.234	-24.06
877.407	-134.65
877.579	-34.3
877.752	-9.73
877.924	74.24
878.097	59.9
878.269	18.94
878.442	96.77
878.614	39.42
878.786	12.8
878.959	10.75
879.131	14.85
879.303	-85.5
879.476	-3.58
879.648	12.8
879.82	-17.92
879.993	-79.36
880.165	-95.74
880.337	-118.27
880.509	-79.36
880.681	-142.85
880.854	-71.17
881.026	61.95
881.198	154.11
881.37	-19.97
881.542	-13.82
881.714	10.75
881.886	-9.73
882.058	55.81
882.23	-1.54
882.402	-54.78
882.574	2.56
882.746	2.56
882.918	47.62
883.09	-1.54
883.262	-62.98
883.434	-48.64
883.606	-89.6
883.778	-34.3
883.95	131.58
884.122	-73.21
884.293	55.81
884.465	-52.74
884.637	121.34
884.809	-112.13
884.98	-54.78
885.152	33.28
885.324	23.04
885.496	-46.59
885.667	-52.74
885.839	-85.5
886.011	121.34
886.182	-103.93
886.354	35.33
886.525	-73.21
886.697	-22.02
886.869	-13.82
887.04	-101.89
887.212	18.94
887.383	170.49
887.555	-56.83
887.726	-83.45
887.897	-54.78
888.069	-11.78
888.24	70.14
888.412	-3.58
888.583	4.61
888.754	2.56
888.926	-144.89
889.097	-58.88
889.268	-95.74
889.44	-19.97
889.611	-69.12
889.782	-30.21
889.953	-75.26
890.125	88.57
890.296	-52.74
890.467	-89.6
890.638	-28.16
890.809	-91.65
890.98	-99.84
891.151	12.8
891.323	20.99
891.494	-44.54
891.665	10.75
891.836	31.23
892.007	-69.12
892.178	-3.58
892.349	-40.45
892.52	-71.17
892.691	-13.82
892.862	-54.78
893.032	-79.36
893.203	-5.63
893.374	20.99
893.545	10.75
893.716	-103.93
893.887	-13.82
894.057	-46.59
894.228	-30.21
894.399	-75.26
894.57	55.81
894.74	51.71
894.911	29.18
895.082	-9.73
895.253	37.38
895.423	-42.5
895.594	96.77
895.764	49.66
895.935	-132.61
896.106	47.62
896.276	-79.36
896.447	68.09
896.617	-52.74
896.788	-77.31
896.958	-99.84
897.129	-22.02
897.299	-38.4
897.47	31.23
897.64	119.29
897.81	20.99
897.981	12.8
898.151	-48.64
898.322	-17.92
898.492	64
898.662	-56.83
898.832	-38.4
899.003	-95.74
899.173	35.33
899.343	-42.5
899.513	-7.68
