Data from USB4F104151__104__10-35-48-026.txt Node

Date: Wed Feb 26 10:35:48 EST 2025
User: louis
Spectrometer: USB4F10415
Trigger mode: 4
Integration Time (sec): 1.000000E-1
Scans to average: 1
Electric dark correction enabled: true
Nonlinearity correction enabled: false
Boxcar width: 0
XAxis mode: Wavelengths
Number of Pixels in Spectrum: 3648
>>>>>Begin Spectral Data<<<<<
178.204	-368.63
178.424	-368.63
178.644	-368.63
178.864	-483.32
179.084	-382.97
179.304	2.05
179.524	-34.82
179.744	24.58
179.964	-6.14
180.184	-67.58
180.404	24.58
180.624	26.62
180.844	-4.1
181.064	-34.82
181.283	24.58
181.503	-24.58
181.723	69.63
181.943	-124.93
182.163	141.31
182.383	32.77
182.602	4.1
182.822	79.87
183.042	30.72
183.262	43.01
183.482	88.06
183.701	22.53
183.921	26.62
184.141	-4.1
184.361	18.43
184.58	6.14
184.8	-4.1
185.02	-30.72
185.239	98.3
185.459	63.49
185.679	139.26
185.898	-94.21
186.118	-14.34
186.338	57.34
186.557	129.02
186.777	-79.87
186.997	-16.38
187.216	14.34
187.436	139.26
187.655	73.73
187.875	65.53
188.095	71.68
188.314	194.56
188.534	145.41
188.753	-77.82
188.973	137.21
189.192	108.54
189.412	-12.29
189.631	-34.82
189.851	65.53
190.07	88.06
190.29	-137.21
190.509	-0
190.729	-32.77
190.948	120.83
191.168	108.54
191.387	90.11
191.607	22.53
191.826	30.72
192.045	22.53
192.265	-8.19
192.484	-40.96
192.704	-10.24
192.923	-86.01
193.142	176.13
193.362	40.96
193.581	102.4
193.8	106.49
194.02	67.58
194.239	53.25
194.458	110.59
194.678	-28.67
194.897	-57.34
195.116	8.19
195.335	43.01
195.555	4.1
195.774	-14.34
195.993	112.64
196.212	-75.77
196.432	-98.3
196.651	-36.86
196.87	16.38
197.089	143.36
197.308	67.58
197.528	53.25
197.747	-51.2
197.966	-18.43
198.185	112.64
198.404	-49.15
198.623	133.12
198.842	24.58
199.062	75.77
199.281	49.15
199.5	90.11
199.719	73.73
199.938	28.67
200.157	116.73
200.376	-14.34
200.595	155.65
200.814	-0
201.033	-16.38
201.252	61.44
201.471	38.91
201.69	30.72
201.909	10.24
202.128	135.17
202.347	36.86
202.566	-20.48
202.785	-83.97
203.004	-47.1
203.223	96.25
203.442	28.67
203.661	-49.15
203.879	45.06
204.098	67.58
204.317	20.48
204.536	81.92
204.755	57.34
204.974	106.49
205.193	8.19
205.411	77.82
205.63	55.3
205.849	90.11
206.068	69.63
206.287	-26.62
206.505	88.06
206.724	26.62
206.943	-53.25
207.162	-51.2
207.381	12.29
207.599	-28.67
207.818	67.58
208.037	12.29
208.255	45.06
208.474	81.92
208.693	38.91
208.911	-40.96
209.13	133.12
209.349	63.49
209.567	77.82
209.786	32.77
210.005	94.21
210.223	51.2
210.442	-90.11
210.661	-8.19
210.879	75.77
211.098	-47.1
211.316	34.82
211.535	71.68
211.753	69.63
211.972	88.06
212.191	-16.38
212.409	-12.29
212.628	36.86
212.846	-0
213.065	-2.05
213.283	88.06
213.502	-14.34
213.72	10.24
213.938	26.62
214.157	-47.1
214.375	79.87
214.594	-26.62
214.812	36.86
215.031	-16.38
215.249	55.3
215.467	40.96
215.686	-4.1
215.904	20.48
216.122	47.1
216.341	63.49
216.559	-24.58
216.778	102.4
216.996	163.84
217.214	30.72
217.432	6.14
217.651	-59.39
217.869	75.77
218.087	-34.82
218.306	34.82
218.524	-0
218.742	104.45
218.96	73.73
219.179	-18.43
219.397	-0
219.615	198.65
219.833	129.02
220.051	-59.39
220.27	14.34
220.488	120.83
220.706	100.35
220.924	-34.82
221.142	-61.44
221.36	133.12
221.578	-16.38
221.796	-0
222.015	2.05
222.233	114.69
222.451	219.13
222.669	-12.29
222.887	83.97
223.105	38.91
223.323	49.15
223.541	2.05
223.759	49.15
223.977	104.45
224.195	159.74
224.413	22.53
224.631	51.2
224.849	63.49
225.067	182.27
225.285	8.19
225.503	-53.25
225.721	-83.97
225.939	55.3
226.157	36.86
226.375	143.36
226.592	-61.44
226.81	6.14
227.028	75.77
227.246	28.67
227.464	69.63
227.682	59.39
227.9	71.68
228.117	81.92
228.335	104.45
228.553	14.34
228.771	30.72
228.989	-16.38
229.206	129.02
229.424	28.67
229.642	-43.01
229.86	-20.48
230.077	106.49
230.295	-67.58
230.513	129.02
230.731	92.16
230.948	120.83
231.166	139.26
231.384	2.05
231.601	-16.38
231.819	137.21
232.037	-24.58
232.254	57.34
232.472	-38.91
232.689	20.48
232.907	88.06
233.125	18.43
233.342	-43.01
233.56	-32.77
233.777	8.19
233.995	-18.43
234.213	40.96
234.43	51.2
234.648	-6.14
234.865	-18.43
235.083	57.34
235.3	10.24
235.518	61.44
235.735	69.63
235.953	32.77
236.17	-30.72
236.388	-36.86
236.605	63.49
236.822	90.11
237.04	94.21
237.257	53.25
237.475	34.82
237.692	22.53
237.909	24.58
238.127	-0
238.344	104.45
238.562	-24.58
238.779	-104.45
238.996	-20.48
239.214	-18.43
239.431	47.1
239.648	-30.72
239.865	59.39
240.083	51.2
240.3	12.29
240.517	-43.01
240.735	36.86
240.952	81.92
241.169	43.01
241.386	49.15
241.603	12.29
241.821	-59.39
242.038	106.49
242.255	98.3
242.472	-65.54
242.689	73.73
242.907	-36.86
243.124	45.06
243.341	47.1
243.558	-69.63
243.775	2.05
243.992	-38.91
244.209	129.02
244.426	223.23
244.643	-14.34
244.86	20.48
245.078	81.92
245.295	88.06
245.512	-2.05
245.729	-75.77
245.946	22.53
246.163	18.43
246.38	-26.62
246.597	65.53
246.814	-10.24
247.031	38.91
247.248	34.82
247.464	108.54
247.681	-26.62
247.898	22.53
248.115	26.62
248.332	67.58
248.549	67.58
248.766	139.26
248.983	67.58
249.2	47.1
249.417	22.53
249.633	-2.05
249.85	40.96
250.067	-0
250.284	65.53
250.501	28.67
250.717	-4.1
250.934	-16.38
251.151	14.34
251.368	-4.1
251.585	51.2
251.801	57.34
252.018	28.67
252.235	116.73
252.451	-20.48
252.668	4.1
252.885	59.39
253.102	28.67
253.318	40.96
253.535	100.35
253.752	32.77
253.968	-57.34
254.185	-65.54
254.401	71.68
254.618	36.86
254.835	-14.34
255.051	165.89
255.268	118.78
255.484	47.1
255.701	69.63
255.917	100.35
256.134	75.77
256.351	38.91
256.567	-55.3
256.784	-26.62
257	-98.3
257.217	118.78
257.433	96.25
257.65	90.11
257.866	75.77
258.082	40.96
258.299	-28.67
258.515	49.15
258.732	-40.96
258.948	4.1
259.165	47.1
259.381	-116.73
259.597	34.82
259.814	75.77
260.03	22.53
260.246	114.69
260.463	122.88
260.679	83.97
260.895	22.53
261.112	6.14
261.328	-40.96
261.544	-38.91
261.761	106.49
261.977	-73.73
262.193	65.53
262.409	145.41
262.626	20.48
262.842	34.82
263.058	-16.38
263.274	114.69
263.49	139.26
263.707	34.82
263.923	135.17
264.139	-38.91
264.355	20.48
264.571	141.31
264.787	-10.24
265.004	122.88
265.22	40.96
265.436	-49.15
265.652	-43.01
265.868	96.25
266.084	-90.11
266.3	69.63
266.516	-26.62
266.732	20.48
266.948	-10.24
267.164	34.82
267.38	26.62
267.596	-10.24
267.812	204.8
268.028	112.64
268.244	-57.34
268.46	-16.38
268.676	69.63
268.892	81.92
269.108	-32.77
269.324	-24.58
269.54	-20.48
269.756	26.62
269.972	-79.87
270.188	30.72
270.403	-92.16
270.619	10.24
270.835	59.39
271.051	20.48
271.267	12.29
271.483	-8.19
271.698	59.39
271.914	88.06
272.13	20.48
272.346	-40.96
272.562	59.39
272.777	69.63
272.993	30.72
273.209	-14.34
273.425	47.1
273.64	-90.11
273.856	43.01
274.072	-67.58
274.287	-61.44
274.503	26.62
274.719	108.54
274.934	-14.34
275.15	-71.68
275.366	-4.1
275.581	-75.77
275.797	6.14
276.012	-12.29
276.228	-0
276.444	57.34
276.659	47.1
276.875	32.77
277.09	12.29
277.306	16.38
277.521	73.73
277.737	73.73
277.952	92.16
278.168	28.67
278.383	45.06
278.599	61.44
278.814	108.54
279.03	36.86
279.245	178.17
279.461	26.62
279.676	131.07
279.892	-57.34
280.107	-83.97
280.322	8.19
280.538	61.44
280.753	-104.45
280.969	10.24
281.184	90.11
281.399	137.21
281.615	-36.86
281.83	100.35
282.045	-14.34
282.26	-22.53
282.476	30.72
282.691	65.53
282.906	69.63
283.122	36.86
283.337	-12.29
283.552	110.59
283.767	-51.2
283.983	141.31
284.198	124.93
284.413	20.48
284.628	-4.1
284.843	75.77
285.058	114.69
285.274	18.43
285.489	-0
285.704	116.73
285.919	-26.62
286.134	-22.53
286.349	55.3
286.564	59.39
286.779	122.88
286.995	94.21
287.21	-83.97
287.425	20.48
287.64	24.58
287.855	43.01
288.07	-137.21
288.285	124.93
288.5	79.87
288.715	45.06
288.93	100.35
289.145	-40.96
289.36	36.86
289.575	45.06
289.79	135.17
290.004	-24.58
290.219	53.25
290.434	45.06
290.649	14.34
290.864	59.39
291.079	-49.15
291.294	-16.38
291.509	73.73
291.724	-69.63
291.938	-4.1
292.153	94.21
292.368	10.24
292.583	71.68
292.798	45.06
293.012	124.93
293.227	8.19
293.442	-34.82
293.657	147.45
293.871	49.15
294.086	57.34
294.301	124.93
294.516	159.74
294.73	26.62
294.945	-0
295.16	6.14
295.374	63.49
295.589	71.68
295.804	22.53
296.018	79.87
296.233	79.87
296.447	-10.24
296.662	-67.58
296.877	120.83
297.091	36.86
297.306	63.49
297.52	4.1
297.735	45.06
297.949	51.2
298.164	77.82
298.378	92.16
298.593	-65.54
298.807	28.67
299.022	36.86
299.236	145.41
299.451	-47.1
299.665	-71.68
299.88	-4.1
300.094	38.91
300.309	40.96
300.523	8.19
300.737	34.82
300.952	77.82
301.166	43.01
301.381	-55.3
301.595	16.38
301.809	92.16
302.024	-4.1
302.238	-26.62
302.452	129.02
302.667	16.38
302.881	104.45
303.095	106.49
303.309	65.53
303.524	8.19
303.738	43.01
303.952	-28.67
304.166	34.82
304.381	-92.16
304.595	100.35
304.809	-65.54
305.023	30.72
305.237	6.14
305.452	-40.96
305.666	124.93
305.88	22.53
306.094	65.53
306.308	67.58
306.522	104.45
306.736	55.3
306.95	59.39
307.164	-6.14
307.379	24.58
307.593	34.82
307.807	139.26
308.021	24.58
308.235	71.68
308.449	49.15
308.663	49.15
308.877	182.27
309.091	88.06
309.305	83.97
309.519	-178.17
309.733	77.82
309.947	-104.45
310.161	-20.48
310.374	59.39
310.588	100.35
310.802	-34.82
311.016	-14.34
311.23	83.97
311.444	-40.96
311.658	45.06
311.872	67.58
312.085	90.11
312.299	100.35
312.513	83.97
312.727	34.82
312.941	-20.48
313.154	63.49
313.368	26.62
313.582	20.48
313.796	-18.43
314.009	-6.14
314.223	169.98
314.437	40.96
314.651	51.2
314.864	-36.86
315.078	-28.67
315.292	-141.31
315.505	4.1
315.719	49.15
315.933	67.58
316.146	24.58
316.36	-55.3
316.573	137.21
316.787	120.83
317.001	43.01
317.214	-12.29
317.428	100.35
317.641	-22.53
317.855	-32.77
318.068	34.82
318.282	-8.19
318.495	133.12
318.709	102.4
318.922	-2.05
319.136	94.21
319.349	63.49
319.563	10.24
319.776	59.39
319.99	-88.06
320.203	147.45
320.417	86.01
320.63	96.25
320.843	172.03
321.057	106.49
321.27	40.96
321.483	57.34
321.697	100.35
321.91	79.87
322.124	-12.29
322.337	112.64
322.55	-81.92
322.763	28.67
322.977	32.77
323.19	-36.86
323.403	73.73
323.617	-6.14
323.83	92.16
324.043	-32.77
324.256	-2.05
324.469	-59.39
324.683	135.17
324.896	-55.3
325.109	61.44
325.322	-63.49
325.535	40.96
325.748	75.77
325.962	-12.29
326.175	131.07
326.388	49.15
326.601	102.4
326.814	-0
327.027	22.53
327.24	192.51
327.453	-77.82
327.666	104.45
327.879	157.69
328.092	77.82
328.305	45.06
328.518	12.29
328.731	-53.25
328.944	114.69
329.157	4.1
329.37	-10.24
329.583	169.98
329.796	147.45
330.009	-38.91
330.222	67.58
330.435	51.2
330.648	20.48
330.861	26.62
331.073	24.58
331.286	102.4
331.499	63.49
331.712	-55.3
331.925	77.82
332.138	53.25
332.35	79.87
332.563	-34.82
332.776	141.31
332.989	-65.54
333.202	-28.67
333.414	-6.14
333.627	67.58
333.84	16.38
334.053	28.67
334.265	14.34
334.478	-51.2
334.691	-12.29
334.903	-30.72
335.116	-38.91
335.329	43.01
335.541	22.53
335.754	178.17
335.966	-45.06
336.179	-8.19
336.392	-18.43
336.604	16.38
336.817	47.1
337.029	65.53
337.242	67.58
337.454	45.06
337.667	-90.11
337.88	133.12
338.092	137.21
338.305	102.4
338.517	4.1
338.729	77.82
338.942	126.97
339.154	10.24
339.367	6.14
339.579	34.82
339.792	-4.1
340.004	-4.1
340.217	-38.91
340.429	-32.77
340.641	-75.77
340.854	-20.48
341.066	-8.19
341.278	116.73
341.491	118.78
341.703	30.72
341.915	-59.39
342.128	73.73
342.34	-14.34
342.552	-28.67
342.764	131.07
342.977	-10.24
343.189	2.05
343.401	32.77
343.613	-65.54
343.826	14.34
344.038	14.34
344.25	-14.34
344.462	-18.43
344.674	69.63
344.886	-77.82
345.099	45.06
345.311	53.25
345.523	-22.53
345.735	-83.97
345.947	83.97
346.159	-0
346.371	-8.19
346.583	8.19
346.795	172.03
347.007	-16.38
347.219	63.49
347.431	65.53
347.643	124.93
347.855	-24.58
348.067	98.3
348.279	-104.45
348.491	12.29
348.703	20.48
348.915	-45.06
349.127	-8.19
349.339	106.49
349.551	32.77
349.763	90.11
349.975	26.62
350.187	143.36
350.399	53.25
350.61	94.21
350.822	-2.05
351.034	71.68
351.246	53.25
351.458	45.06
351.669	67.58
351.881	98.3
352.093	59.39
352.305	126.97
352.517	59.39
352.728	167.93
352.94	77.82
353.152	2.05
353.363	-30.72
353.575	61.44
353.787	126.97
353.999	61.44
354.21	145.41
354.422	6.14
354.633	6.14
354.845	38.91
355.057	38.91
355.268	65.53
355.48	96.25
355.692	-88.06
355.903	55.3
356.115	-8.19
356.326	-157.69
356.538	51.2
356.749	49.15
356.961	188.41
357.172	59.39
357.384	-63.49
357.595	194.56
357.807	-14.34
358.018	16.38
358.23	59.39
358.441	65.53
358.653	67.58
358.864	51.2
359.075	20.48
359.287	-14.34
359.498	57.34
359.709	69.63
359.921	47.1
360.132	16.38
360.344	-16.38
360.555	20.48
360.766	-22.53
360.977	4.1
361.189	114.69
361.4	69.63
361.611	139.26
361.823	122.88
362.034	88.06
362.245	16.38
362.456	-55.3
362.667	-18.43
362.879	-57.34
363.09	28.67
363.301	43.01
363.512	20.48
363.723	-86.01
363.935	-26.62
364.146	38.91
364.357	75.77
364.568	-10.24
364.779	-90.11
364.99	98.3
365.201	-8.19
365.412	165.89
365.623	-79.87
365.834	24.58
366.045	-47.1
366.256	108.54
366.467	43.01
366.678	36.86
366.889	26.62
367.1	6.14
367.311	88.06
367.522	18.43
367.733	98.3
367.944	77.82
368.155	32.77
368.366	40.96
368.577	53.25
368.788	116.73
368.999	-36.86
369.209	34.82
369.42	153.6
369.631	206.84
369.842	81.92
370.053	-53.25
370.264	133.12
370.474	-18.43
370.685	57.34
370.896	24.58
371.107	98.3
371.317	24.58
371.528	22.53
371.739	135.17
371.95	69.63
372.16	102.4
372.371	-69.63
372.582	-24.58
372.792	38.91
373.003	16.38
373.214	-40.96
373.424	104.45
373.635	-16.38
373.846	108.54
374.056	57.34
374.267	-2.05
374.477	-22.53
374.688	-24.58
374.898	63.49
375.109	94.21
375.319	32.77
375.53	112.64
375.74	38.91
375.951	40.96
376.161	-6.14
376.372	129.02
376.582	-26.62
376.793	-32.77
377.003	24.58
377.214	-63.49
377.424	26.62
377.635	47.1
377.845	-20.48
378.055	83.97
378.266	-16.38
378.476	30.72
378.686	102.4
378.897	32.77
379.107	198.65
379.317	51.2
379.528	108.54
379.738	88.06
379.948	-24.58
380.158	86.01
380.369	-22.53
380.579	47.1
380.789	57.34
380.999	90.11
381.21	-2.05
381.42	81.92
381.63	53.25
381.84	102.4
382.05	45.06
382.261	75.77
382.471	47.1
382.681	-114.69
382.891	94.21
383.101	36.86
383.311	-143.36
383.521	-0
383.731	100.35
383.941	24.58
384.151	36.86
384.361	61.44
384.571	34.82
384.781	2.05
384.991	198.65
385.201	129.02
385.411	129.02
385.621	16.38
385.831	24.58
386.041	40.96
386.251	47.1
386.461	81.92
386.671	-2.05
386.881	137.21
387.091	2.05
387.301	96.25
387.511	98.3
387.72	14.34
387.93	34.82
388.14	4.1
388.35	26.62
388.56	71.68
388.769	145.41
388.979	-67.58
389.189	-32.77
389.399	-30.72
389.609	81.92
389.818	67.58
390.028	45.06
390.238	49.15
390.447	30.72
390.657	4.1
390.867	-45.06
391.076	-81.92
391.286	63.49
391.496	24.58
391.705	6.14
391.915	104.45
392.125	79.87
392.334	-81.92
392.544	149.5
392.753	94.21
392.963	-28.67
393.172	53.25
393.382	-2.05
393.591	161.79
393.801	-22.53
394.01	106.49
394.22	18.43
394.429	30.72
394.639	47.1
394.848	-10.24
395.058	30.72
395.267	-2.05
395.477	75.77
395.686	45.06
395.895	122.88
396.105	192.51
396.314	110.59
396.524	-0
396.733	-65.54
396.942	51.2
397.152	57.34
397.361	108.54
397.57	47.1
397.78	-30.72
397.989	12.29
398.198	165.89
398.407	-16.38
398.617	94.21
398.826	14.34
399.035	45.06
399.244	83.97
399.453	59.39
399.663	47.1
399.872	88.06
400.081	-71.68
400.29	114.69
400.499	12.29
400.708	174.08
400.917	2.05
401.127	-36.86
401.336	34.82
401.545	155.65
401.754	106.49
401.963	59.39
402.172	75.77
402.381	-118.78
402.59	-32.77
402.799	26.62
403.008	59.39
403.217	81.92
403.426	34.82
403.635	-96.25
403.844	2.05
404.053	30.72
404.262	47.1
404.471	192.51
404.68	110.59
404.888	49.15
405.097	-28.67
405.306	63.49
405.515	77.82
405.724	45.06
405.933	30.72
406.142	18.43
406.35	120.83
406.559	43.01
406.768	114.69
406.977	141.31
407.185	49.15
407.394	141.31
407.603	-20.48
407.812	77.82
408.02	45.06
408.229	22.53
408.438	12.29
408.646	-22.53
408.855	16.38
409.064	24.58
409.272	69.63
409.481	106.49
409.69	-71.68
409.898	-120.83
410.107	36.86
410.315	34.82
410.524	16.38
410.733	34.82
410.941	14.34
411.15	69.63
411.358	26.62
411.567	155.65
411.775	112.64
411.984	122.88
412.192	110.59
412.401	-71.68
412.609	227.32
412.818	163.84
413.026	57.34
413.234	55.3
413.443	49.15
413.651	-57.34
413.86	36.86
414.068	94.21
414.276	198.65
414.485	-20.48
414.693	110.59
414.901	131.07
415.11	65.53
415.318	4.1
415.526	67.58
415.734	79.87
415.943	-59.39
416.151	131.07
416.359	-14.34
416.567	110.59
416.776	22.53
416.984	120.83
417.192	112.64
417.4	24.58
417.608	90.11
417.817	-65.54
418.025	135.17
418.233	180.22
418.441	8.19
418.649	-96.25
418.857	49.15
419.065	126.97
419.273	61.44
419.481	100.35
419.689	20.48
419.897	38.91
420.105	-92.16
420.313	116.73
420.521	169.98
420.729	118.78
420.937	45.06
421.145	-47.1
421.353	73.73
421.561	176.13
421.769	63.49
421.977	14.34
422.185	47.1
422.393	28.67
422.601	157.69
422.809	65.53
423.017	18.43
423.224	55.3
423.432	100.35
423.64	-20.48
423.848	131.07
424.056	20.48
424.263	32.77
424.471	-22.53
424.679	184.32
424.887	-10.24
425.094	147.45
425.302	90.11
425.51	10.24
425.718	133.12
425.925	14.34
426.133	18.43
426.341	112.64
426.548	30.72
426.756	53.25
426.964	49.15
427.171	51.2
427.379	96.25
427.586	-20.48
427.794	100.35
428.001	147.45
428.209	51.2
428.417	147.45
428.624	61.44
428.832	65.53
429.039	83.97
429.247	79.87
429.454	114.69
429.662	167.93
429.869	104.45
430.076	165.89
430.284	135.17
430.491	143.36
430.699	155.65
430.906	176.13
431.114	106.49
431.321	157.69
431.528	122.88
431.736	163.84
431.943	165.89
432.15	131.07
432.358	208.89
432.565	169.98
432.772	90.11
432.979	184.32
433.187	75.77
433.394	151.55
433.601	26.62
433.808	212.99
434.016	180.22
434.223	239.61
434.43	260.09
434.637	167.93
434.844	296.96
435.052	208.89
435.259	167.93
435.466	280.57
435.673	245.76
435.88	227.32
436.087	348.15
436.294	344.06
436.501	278.52
436.708	264.19
436.915	315.39
437.122	409.59
437.329	243.71
437.537	235.52
437.743	337.91
437.95	434.17
438.157	284.67
438.364	397.31
438.571	337.91
438.778	544.76
438.985	434.17
439.192	468.98
439.399	483.32
439.606	403.45
439.813	477.18
440.02	571.38
440.227	598.01
440.433	509.94
440.64	536.57
440.847	608.25
441.054	579.58
441.261	772.08
441.467	655.35
441.674	591.86
441.881	724.98
442.088	677.88
442.294	698.36
442.501	813.04
442.708	821.24
442.914	745.46
443.121	854
443.328	886.77
443.534	1003.5
443.741	866.29
443.948	817.14
444.154	1044.46
444.361	1142.77
444.568	1038.32
444.774	1095.66
444.981	956.4
445.187	1193.97
445.394	1196.01
445.6	1224.69
445.807	1267.69
446.013	1298.41
446.22	1257.45
446.426	1413.1
446.633	1429.48
446.839	1646.57
447.046	1415.15
447.252	1683.43
447.459	1597.42
447.665	1546.22
447.871	1882.08
448.078	2000.87
448.284	1908.71
448.491	2097.12
448.697	2144.22
448.903	2179.04
449.11	2191.33
449.316	2107.36
449.522	2445.27
449.728	2410.46
449.935	2568.15
450.141	2580.44
450.347	2734.04
450.553	2838.48
450.76	2742.23
450.966	2949.07
451.172	3198.93
451.378	3205.07
451.584	3241.93
451.791	3469.26
451.997	3700.68
452.203	3676.1
452.409	3876.8
452.615	3944.39
452.821	3950.53
453.027	3946.44
453.233	4437.95
453.44	4198.34
453.646	4634.55
453.852	4829.11
454.058	4921.27
454.264	4939.7
454.47	5359.53
454.676	5423.02
454.882	5810.09
455.088	5578.67
455.294	5908.39
455.5	6467.49
455.705	6959
455.911	6619.03
456.117	6752.15
456.323	7180.18
456.529	7116.69
456.735	7532.43
456.941	7913.35
457.147	8398.72
457.352	8664.96
457.558	8800.12
457.764	9230.2
457.97	9744.24
458.176	10008.42
458.381	10608.48
458.587	10540.9
458.793	10970.97
458.999	11126.61
459.204	12443.46
459.41	12984.12
459.616	12746.56
459.821	13479.73
460.027	13991.72
460.233	14743.33
460.438	14884.64
460.644	15601.43
460.85	15617.81
461.055	16375.56
461.261	17299.19
461.466	16887.55
461.672	17166.07
461.878	19250.91
462.083	19025.63
462.289	19277.53
462.494	20229.84
462.7	20164.3
462.905	20530.89
463.111	22286
463.316	23043.74
463.522	23602.84
463.727	24346.25
463.932	25597.56
464.138	25949.81
464.343	27143.78
464.549	27080.29
464.754	29113.92
464.959	29767.23
465.165	30627.37
465.37	30094.9
465.575	30486.06
465.781	32517.65
465.986	33576.45
466.191	33070.6
466.397	33277.44
466.602	32296.47
466.807	34432.5
467.012	34831.85
467.218	35208.68
467.423	35079.66
467.628	36664.78
467.833	38446.52
468.038	37967.29
468.244	37055.95
468.449	38704.56
468.654	38180.28
468.859	37934.53
469.064	38022.59
469.269	37103.05
469.474	37666.24
469.679	38743.47
469.885	37381.57
470.09	37744.06
470.295	38217.14
470.5	37117.39
470.705	37475.78
470.91	36208.09
471.115	35900.89
471.32	36576.72
471.525	36111.83
471.73	35270.12
471.935	35079.66
472.139	33639.93
472.344	33795.58
472.549	33857.02
472.754	32546.32
472.959	32400.91
473.164	31194.66
473.369	30555.69
473.574	31383.07
473.778	31047.21
473.983	30391.86
474.188	30070.33
474.393	28186.19
474.598	28515.92
474.802	27674.2
475.007	27199.07
475.212	27246.18
475.417	25898.61
475.621	25745.02
475.826	25615.99
476.031	24876.68
476.235	24264.33
476.44	24497.8
476.645	23793.3
476.849	23611.03
477.054	22908.58
477.259	22484.65
477.463	22609.58
477.668	22038.19
477.872	21966.51
478.077	21237.44
478.282	20664
478.486	20643.52
478.691	20408.01
478.895	20408.01
479.1	19939.02
479.304	19922.64
479.509	19203.8
479.713	19388.12
479.918	19095.26
480.122	18376.42
480.326	19123.93
480.531	18857.7
480.735	18362.09
480.94	18243.31
481.144	18456.29
481.348	18054.89
481.553	17905.39
481.757	17301.24
481.961	17635.06
482.166	17968.88
482.37	17467.13
482.574	16989.95
482.778	17053.44
482.983	17139.45
483.187	16813.82
483.391	16674.56
483.595	16459.52
483.8	15992.59
484.004	16459.52
484.208	16451.33
484.412	16181
484.616	16011.02
484.821	15681.3
485.025	15302.42
485.229	15179.54
485.433	15005.47
485.637	14993.18
485.841	14769.95
486.045	14573.35
486.249	14235.43
486.453	14112.55
486.657	14126.89
486.861	13911.85
487.065	13346.61
487.269	13408.05
487.473	12834.62
487.677	12998.46
487.881	12961.59
488.085	12230.47
488.289	12468.03
488.493	12085.06
488.697	12130.12
488.901	11812.68
489.105	11511.63
489.309	11349.84
489.512	11351.89
489.716	10989.4
489.92	10723.16
490.124	10516.32
490.328	10475.36
490.531	10211.17
490.735	10338.15
490.939	9979.75
491.143	9906.02
491.346	9478
491.55	9506.67
491.754	9336.69
491.958	9107.32
492.161	9119.6
492.365	8898.42
492.569	8699.77
492.772	8742.78
492.976	8568.7
493.18	8402.82
493.383	8343.42
493.587	8263.55
493.79	8271.75
493.994	7823.24
494.197	7858.06
494.401	7964.55
494.605	7671.69
494.808	7712.65
495.012	7675.79
495.215	7561.1
495.419	7683.98
495.622	7409.55
495.825	7464.85
496.029	7374.74
496.232	7817.1
496.436	7473.04
496.639	7528.33
496.843	7395.22
497.046	7587.72
497.249	7577.48
497.453	7444.37
497.656	7507.85
497.859	7417.74
498.063	7640.97
498.266	7786.38
498.469	7516.05
498.673	7581.58
498.876	7743.37
499.079	7808.9
499.282	7712.65
499.485	7978.89
499.689	7821.19
499.892	7845.77
500.095	7808.9
500.298	8267.65
500.501	7917.45
500.705	8118.15
500.908	8214.4
501.111	8361.86
501.314	8177.54
501.517	8421.25
501.72	8544.13
501.923	8494.97
502.126	8703.87
502.329	8681.34
502.532	8775.55
502.735	8781.69
502.938	9305.97
503.141	9322.35
503.344	9301.87
503.547	9426.8
503.75	9729.9
503.953	9770.86
504.156	9881.45
504.359	9893.74
504.562	9985.9
504.765	10436.45
504.968	10469.22
505.17	10532.7
505.373	10768.22
505.576	11001.69
505.779	11134.81
505.982	11020.12
506.185	11564.88
506.387	11388.75
506.59	11728.72
506.793	12103.5
506.996	12021.58
507.198	12586.82
507.401	12611.39
507.604	13119.29
507.807	13213.49
508.009	13551.41
508.212	13762.35
508.415	13926.19
508.617	14497.57
508.82	14581.54
509.022	14810.91
509.225	15294.23
509.428	15333.14
509.63	16021.26
509.833	15853.33
510.035	16750.34
510.238	16824.06
510.44	17129.21
510.643	17850.1
510.845	17944.3
511.048	18001.65
511.25	18659.04
511.453	18990.81
511.655	20186.83
511.858	20045.52
512.06	20342.47
512.262	21012.16
512.465	21151.42
512.667	21827.25
512.87	21991.09
513.072	22396.59
513.274	23158.43
513.477	23682.71
513.679	24067.73
513.881	24886.92
514.084	25048.71
514.286	25853.56
514.488	26252.91
514.69	27194.98
514.893	27838.04
515.095	28008.02
515.297	28640.84
515.499	29152.84
515.701	29924.92
515.904	30209.59
516.106	31235.62
516.308	31878.68
516.51	32261.65
516.712	32796.17
516.914	33510.91
517.116	34563.57
517.318	34643.44
517.52	35014.12
517.722	36023.77
517.925	36586.96
518.127	37746.11
518.329	37952.96
518.531	38133.18
518.733	39212.46
518.935	39980.45
519.136	40330.65
519.338	41088.4
519.54	41618.82
519.742	42351.99
519.944	42646.9
520.146	43703.65
520.348	44004.7
520.55	44545.37
520.752	44653.91
520.954	46017.86
521.155	45710.66
521.357	47025.46
521.559	47254.83
521.761	47705.38
521.963	48117.03
522.164	48196.9
522.366	49095.95
522.568	49771.78
522.77	49429.77
522.971	50541.82
523.173	50373.89
523.375	50658.56
523.576	50478.33
523.778	50593.02
523.98	51528.94
524.181	51596.52
524.383	51684.59
524.584	52296.93
524.786	51741.93
524.988	51385.58
525.189	52034.79
525.391	52540.64
525.592	52409.57
525.794	52163.81
525.995	52335.84
526.197	51991.78
526.398	52593.89
526.6	52034.79
526.801	52133.09
527.003	52020.45
527.204	51653.87
527.406	51682.54
527.607	51461.36
527.808	51463.41
528.01	50332.93
528.211	50142.47
528.412	50775.29
528.614	50306.3
528.815	49927.43
529.016	49982.73
529.218	49231.12
529.419	48755.99
529.62	48454.94
529.822	47826.21
530.023	47641.9
530.224	46986.55
530.425	46308.67
530.626	45880.64
530.828	45276.49
531.029	45686.09
531.23	44772.69
531.431	44072.29
531.632	44029.28
531.833	43758.95
532.035	43130.22
532.236	42544.5
532.437	42177.92
532.638	41207.18
532.839	40795.54
533.04	40707.47
533.241	39581.09
533.442	39982.49
533.643	39091.63
533.844	38243.77
534.045	38151.61
534.246	37244.36
534.447	37162.44
534.648	36412.88
534.849	35806.69
535.05	35134.95
535.251	35233.25
535.451	34541.04
535.652	34090.49
535.853	33537.54
536.054	33099.27
536.255	32525.84
536.456	31817.24
536.657	31901.21
536.857	31540.77
537.058	30621.23
537.259	30234.16
537.46	30146.1
537.66	29969.97
537.861	29517.37
538.062	28831.3
538.263	28651.08
538.463	28067.41
538.664	27899.48
538.865	27661.91
539.065	27352.67
539.266	26703.46
539.466	26709.61
539.667	26306.16
539.868	26162.8
540.068	25284.22
540.269	25140.86
540.469	25104
540.67	25069.19
540.87	24325.77
541.071	23850.64
541.271	24024.72
541.472	23639.7
541.672	23412.38
541.873	22982.31
542.073	22382.25
542.274	22607.53
542.474	22240.94
542.675	21931.7
542.875	21851.83
543.075	21288.64
543.276	21171.9
543.476	21540.54
543.676	20754.12
543.877	20831.94
544.077	20643.52
544.277	20293.32
544.478	20039.37
544.678	19896.02
544.878	19308.25
545.078	19316.44
545.279	19101.4
545.479	18792.16
545.679	18677.47
545.879	18153.19
546.079	18134.76
546.28	17729.27
546.48	17749.75
546.68	17610.48
546.88	17299.19
547.08	17258.23
547.28	17084.16
547.48	16549.64
547.68	16596.74
547.88	16461.57
548.081	16402.18
548.281	15961.87
548.481	15632.15
548.681	15726.35
548.881	15304.47
549.081	15247.13
549.28	15017.75
549.48	14626.59
549.68	14675.74
549.88	14501.67
550.08	14165.8
550.28	13920.04
550.48	13936.43
550.68	13715.25
550.88	13432.63
551.08	13283.13
551.279	13172.53
551.479	12853.05
551.679	12789.56
551.879	12429.12
552.079	12457.79
552.278	12023.62
552.478	12072.78
552.678	11894.6
552.878	11706.19
553.077	11458.39
553.277	11122.52
553.477	11368.27
553.676	10833.75
553.876	10800.99
554.076	10620.77
554.275	10446.69
554.475	9992.04
554.674	9899.88
554.874	10106.73
555.074	9865.07
555.273	9647.98
555.473	9670.51
555.672	9346.93
555.872	9084.79
556.071	9224.05
556.271	9078.65
556.47	8755.07
556.67	8568.7
556.869	8501.12
557.068	8187.78
557.268	8064.9
557.467	8134.53
557.667	8118.15
557.866	7743.37
558.065	7618.44
558.265	7462.8
558.464	7464.85
558.663	7397.26
558.863	7143.31
559.062	7182.23
559.261	6832.02
559.461	6911.89
559.66	6676.38
559.859	6553.5
560.058	6375.33
560.258	6348.7
560.457	6236.06
560.656	6320.03
560.855	6059.94
561.054	6178.72
561.253	5910.44
561.453	5906.34
561.652	5662.63
561.851	5810.09
562.05	5519.28
562.249	5363.63
562.448	5476.27
562.647	5463.98
562.846	5240.75
563.045	5156.79
563.244	5164.98
563.443	5267.38
563.642	4962.23
563.841	5001.14
564.04	4892.6
564.239	4786.1
564.438	4683.7
564.637	4591.55
564.836	4501.44
565.035	4302.78
565.234	4341.69
565.432	4278.21
565.631	4442.04
565.83	4253.63
566.029	4161.47
566.228	4247.49
566.427	4192.19
566.625	3993.54
566.824	3968.96
567.023	3837.89
567.222	3801.03
567.42	3688.39
567.619	3708.87
567.818	3626.95
568.016	3751.88
568.215	3598.28
568.414	3631.05
568.612	3407.82
568.811	3528.65
569.01	3522.51
569.208	3295.18
569.407	3360.72
569.605	3239.89
569.804	3200.98
570.002	3178.45
570.201	3196.88
570.4	3057.62
570.598	2887.64
570.797	2961.36
570.995	2842.58
571.193	2807.77
571.392	2824.15
571.59	2836.44
571.789	2801.62
571.987	2697.17
572.186	2633.69
572.384	2572.25
572.582	2568.15
572.781	2652.12
572.979	2443.23
573.177	2424.79
573.376	2398.17
573.574	2432.99
573.772	2420.7
573.971	2256.86
574.169	2189.28
574.367	2213.85
574.565	2172.89
574.763	2224.09
574.962	2226.14
575.16	2050.02
575.358	2043.87
575.556	2023.39
575.754	2011.11
575.952	1916.9
576.151	1961.95
576.349	1937.38
576.547	1804.26
576.745	1845.22
576.943	1837.03
577.141	1841.12
577.339	1710.05
577.537	1720.29
577.735	1697.77
577.933	1697.77
578.131	1550.31
578.329	1763.3
578.527	1556.46
578.725	1574.89
578.923	1419.24
579.121	1531.88
579.319	1439.72
579.516	1472.49
579.714	1648.61
579.912	1519.59
580.11	1402.86
580.308	1456.11
580.506	1368.04
580.704	1263.6
580.901	1257.45
581.099	1466.35
581.297	1232.88
581.495	1345.52
581.692	1292.27
581.89	1421.29
582.088	1198.06
582.285	1263.6
582.483	1161.2
582.681	1126.38
582.878	1214.45
583.076	1146.86
583.274	1224.69
583.471	1296.36
583.669	1073.14
583.866	993.26
584.064	976.88
584.262	1005.55
584.459	868.34
584.657	1066.99
584.854	1079.28
585.052	1044.46
585.249	1044.46
585.447	964.59
585.644	808.95
585.841	1032.18
586.039	919.54
586.236	909.3
586.434	770.04
586.631	794.61
586.828	864.24
587.026	880.63
587.223	774.13
587.42	714.74
587.618	872.43
587.815	860.15
588.012	720.88
588.21	804.85
588.407	831.48
588.604	825.33
588.801	645.11
588.999	815.09
589.196	800.76
589.393	739.32
589.59	737.27
589.787	823.28
589.984	751.6
590.182	600.05
590.379	667.64
590.576	774.13
590.773	778.23
590.97	679.93
591.167	800.76
591.364	724.98
591.561	671.73
591.758	739.32
591.955	710.65
592.152	661.49
592.349	610.29
592.546	522.23
592.743	577.53
592.94	618.49
593.137	753.65
593.334	757.75
593.531	684.02
593.727	677.88
593.924	694.26
594.121	739.32
594.318	700.41
594.515	686.07
594.712	743.41
594.908	813.04
595.105	552.95
595.302	833.52
595.499	727.03
595.696	792.56
595.892	743.41
596.089	817.14
596.286	763.89
596.482	880.63
596.679	813.04
596.876	741.36
597.072	876.53
597.269	845.81
597.466	925.68
597.662	831.48
597.859	976.88
598.055	983.02
598.252	1026.03
598.448	1069.04
598.645	1087.47
598.841	1030.13
599.038	1208.3
599.234	1273.84
599.431	1243.12
599.627	1320.94
599.824	1335.28
600.02	1314.8
600.217	1253.36
600.413	1437.67
600.609	1525.74
600.806	1777.64
601.002	1601.51
601.198	1591.27
601.395	1791.97
601.591	1761.25
601.787	1812.45
601.984	2019.3
602.18	1964
602.376	1982.43
602.572	2228.19
602.769	2197.47
602.965	2334.68
603.161	2398.17
603.357	2402.27
603.553	2711.51
603.75	2639.83
603.946	2684.89
604.142	2805.72
604.338	3088.34
604.534	2826.2
604.73	3141.58
604.926	3010.51
605.122	3360.72
605.318	3561.42
605.514	3641.29
605.71	3567.56
605.906	3784.65
606.102	3741.64
606.298	3938.24
606.494	4020.16
606.69	4294.59
606.886	4284.35
607.082	4276.16
607.278	4331.45
607.474	4601.79
607.67	4687.8
607.866	4714.42
608.062	5038
608.257	5212.08
608.453	5187.5
608.649	5539.76
608.845	5408.69
609.041	5529.52
609.236	5879.72
609.432	6154.15
609.628	6277.02
609.824	6324.13
610.019	6676.38
610.215	7071.64
610.411	6928.28
610.606	7143.31
610.802	7137.17
610.998	7536.52
611.193	7919.5
611.389	7905.16
611.584	8066.95
611.78	8390.53
611.976	8511.36
612.171	8853.37
612.367	8992.63
612.562	9205.62
612.758	9551.73
612.953	9391.98
613.149	9822.06
613.344	10239.84
613.539	10530.66
613.735	10786.65
613.93	11046.74
614.126	11212.63
614.321	11550.54
614.517	11591.5
614.712	12240.71
614.907	12586.82
615.103	13121.34
615.298	13070.14
615.493	13403.96
615.688	13633.33
615.884	14470.95
616.079	14274.34
616.274	15056.67
616.47	15107.87
616.665	15931.15
616.86	16033.55
617.055	16203.53
617.25	17028.86
617.445	17221.37
617.641	17471.22
617.836	18145
618.031	18249.45
618.226	19269.34
618.421	19128.03
618.616	20113.1
618.811	20149.96
619.006	20799.17
619.201	21198.52
619.396	21724.85
619.591	22083.25
619.786	22607.53
619.981	23047.84
620.176	23598.74
620.371	24075.92
620.566	24641.16
620.761	24772.23
620.956	25923.19
621.151	25982.58
621.346	26644.07
621.541	26740.33
621.735	27629.15
621.93	27807.32
622.125	28687.95
622.32	28829.26
622.515	29640.25
622.709	30144.05
622.904	30600.75
623.099	31204.9
623.294	31520.29
623.488	31954.46
623.683	32673.29
623.878	33054.22
624.072	33805.82
624.267	34364.92
624.462	34772.46
624.656	35212.77
624.851	35874.27
625.046	36386.26
625.24	36996.56
625.435	36806.09
625.629	38182.33
625.824	38215.1
626.018	38925.74
626.213	38522.29
626.407	39595.43
626.602	39484.84
626.796	40459.67
626.991	40566.17
627.185	40453.53
627.38	40965.52
627.574	41518.47
627.768	41678.21
627.963	41887.1
628.157	41725.32
628.352	42538.36
628.546	41649.54
628.74	42612.09
628.935	41887.1
629.129	42075.52
629.323	41471.37
629.517	41846.15
629.712	41209.23
629.906	41397.64
630.1	40441.24
630.294	40877.46
630.489	39912.86
630.683	39867.81
630.877	38675.89
631.071	38335.93
631.265	37973.44
631.459	37180.87
631.653	35995.1
631.848	35274.21
632.042	34559.47
632.236	34123.26
632.43	32759.31
632.624	32327.19
632.818	31139.36
633.012	29972.02
633.206	29185.6
633.4	28407.37
633.594	27432.54
633.788	26332.78
633.982	25831.03
634.176	24891.01
634.369	23752.34
634.563	23062.18
634.757	21737.14
634.951	21143.23
635.145	20731.59
635.339	19738.32
635.533	18945.76
635.726	18167.53
635.92	17377.01
636.114	16647.94
636.308	15908.62
636.501	15347.48
636.695	14833.44
636.889	14212.9
637.083	13684.53
637.276	13172.53
637.47	12363.59
637.664	11849.55
637.857	11558.74
638.051	11085.65
638.244	10561.37
638.438	10202.98
638.632	9701.23
638.825	9189.24
639.019	9207.67
639.212	8521.6
639.406	8314.75
639.599	7976.84
639.793	7567.24
639.986	7356.3
640.18	7139.22
640.373	6893.46
640.567	6746.01
640.76	6342.56
640.954	6109.09
641.147	5666.73
641.34	5525.42
641.534	5453.74
641.727	5232.56
641.92	4972.47
642.114	4851.64
642.307	4640.7
642.5	4495.29
642.694	4284.35
642.887	4163.52
643.08	3913.67
643.273	3919.81
643.467	3676.1
643.66	3540.94
643.853	3436.49
644.046	3323.85
644.239	3108.82
644.432	2928.6
644.626	2768.85
644.819	2826.2
645.012	2635.74
645.205	2547.67
645.398	2492.38
645.591	2418.65
645.784	2330.59
645.977	2170.85
646.17	2170.85
646.363	2074.59
646.556	2023.39
646.749	1832.93
646.942	1837.03
647.135	1787.88
647.328	1599.46
647.521	1695.72
647.714	1624.04
647.907	1515.5
648.099	1388.52
648.292	1347.56
648.485	1392.62
648.678	1159.15
648.871	1224.69
649.064	1206.25
649.256	1052.66
649.449	1101.81
649.642	911.35
649.835	966.64
650.027	913.39
650.22	1140.72
650.413	894.96
650.605	931.83
650.798	837.62
650.991	870.39
651.183	806.9
651.376	849.91
651.568	874.48
651.761	806.9
651.954	688.12
652.146	790.52
652.339	714.74
652.531	661.49
652.724	575.48
652.916	575.48
653.109	452.6
653.301	589.81
653.494	595.96
653.686	526.33
653.879	641.01
654.071	555
654.263	387.07
654.456	399.35
654.648	524.28
654.84	536.57
655.033	430.07
655.225	391.16
655.417	339.96
655.61	493.56
655.802	387.07
655.994	522.23
656.186	301.05
656.379	471.03
656.571	393.21
656.763	337.91
656.955	301.05
657.148	313.34
657.34	438.27
657.532	280.57
657.724	292.86
657.916	344.06
658.108	387.07
658.3	272.38
658.492	227.32
658.684	274.43
658.876	323.58
659.068	221.18
659.26	155.65
659.452	262.14
659.644	198.65
659.836	460.79
660.028	233.47
660.22	231.42
660.412	231.42
660.604	270.33
660.796	241.66
660.988	245.76
661.18	264.19
661.372	335.87
661.563	256
661.755	200.7
661.947	79.87
662.139	94.21
662.331	206.84
662.522	159.74
662.714	79.87
662.906	45.06
663.097	241.66
663.289	73.73
663.481	83.97
663.673	235.52
663.864	92.16
664.056	272.38
664.247	133.12
664.439	237.56
664.631	167.93
664.822	178.17
665.014	176.13
665.205	118.78
665.397	149.5
665.588	198.65
665.78	157.69
665.971	210.94
666.163	165.89
666.354	178.17
666.546	75.77
666.737	159.74
666.929	104.45
667.12	79.87
667.311	196.6
667.503	94.21
667.694	63.49
667.885	131.07
668.077	163.84
668.268	43.01
668.459	165.89
668.651	112.64
668.842	135.17
669.033	18.43
669.224	69.63
669.416	268.28
669.607	145.41
669.798	63.49
669.989	149.5
670.18	114.69
670.371	202.75
670.563	-14.34
670.754	178.17
670.945	161.79
671.136	71.68
671.327	102.4
671.518	155.65
671.709	178.17
671.9	129.02
672.091	167.93
672.282	186.37
672.473	98.3
672.664	10.24
672.855	159.74
673.046	61.44
673.237	153.6
673.428	147.45
673.619	215.04
673.809	18.43
674	194.56
674.191	159.74
674.382	102.4
674.573	149.5
674.764	151.55
674.954	229.37
675.145	51.2
675.336	110.59
675.527	67.58
675.717	45.06
675.908	108.54
676.099	86.01
676.289	143.36
676.48	18.43
676.671	106.49
676.861	57.34
677.052	92.16
677.243	163.84
677.433	71.68
677.624	165.89
677.814	94.21
678.005	98.3
678.195	296.96
678.386	20.48
678.576	139.26
678.767	43.01
678.957	157.69
679.148	165.89
679.338	245.76
679.529	188.41
679.719	106.49
679.909	251.9
680.1	184.32
680.29	143.36
680.481	143.36
680.671	221.18
680.861	210.94
681.052	141.31
681.242	94.21
681.432	178.17
681.622	143.36
681.813	104.45
682.003	237.56
682.193	135.17
682.383	198.65
682.573	147.45
682.764	204.8
682.954	155.65
683.144	202.75
683.334	86.01
683.524	165.89
683.714	139.26
683.904	188.41
684.094	129.02
684.284	108.54
684.474	321.53
684.664	208.89
684.854	221.18
685.044	253.95
685.234	143.36
685.424	233.47
685.614	61.44
685.804	256
685.994	233.47
686.184	169.98
686.374	210.94
686.564	241.66
686.753	202.75
686.943	90.11
687.133	186.37
687.323	106.49
687.513	237.56
687.702	161.79
687.892	196.6
688.082	194.56
688.272	262.14
688.461	200.7
688.651	346.11
688.841	167.93
689.03	120.83
689.22	149.5
689.41	190.46
689.599	217.08
689.789	141.31
689.979	253.95
690.168	126.97
690.358	262.14
690.547	116.73
690.737	223.23
690.926	139.26
691.116	241.66
691.305	157.69
691.495	299
691.684	135.17
691.874	141.31
692.063	172.03
692.252	233.47
692.442	233.47
692.631	90.11
692.82	182.27
693.01	169.98
693.199	157.69
693.388	221.18
693.578	206.84
693.767	221.18
693.956	217.08
694.146	151.55
694.335	167.93
694.524	206.84
694.713	266.24
694.902	81.92
695.092	92.16
695.281	221.18
695.47	157.69
695.659	118.78
695.848	225.28
696.037	122.88
696.226	143.36
696.415	133.12
696.604	288.76
696.793	182.27
696.982	124.93
697.171	270.33
697.36	139.26
697.549	145.41
697.738	110.59
697.927	114.69
698.116	239.61
698.305	149.5
698.494	133.12
698.683	92.16
698.872	223.23
699.061	161.79
699.25	163.84
699.438	253.95
699.627	159.74
699.816	212.99
700.005	92.16
700.193	100.35
700.382	225.28
700.571	210.94
700.76	196.6
700.948	153.6
701.137	231.42
701.326	126.97
701.514	59.39
701.703	143.36
701.892	247.8
702.08	280.57
702.269	131.07
702.457	63.49
702.646	147.45
702.834	133.12
703.023	153.6
703.212	253.95
703.4	120.83
703.589	110.59
703.777	172.03
703.965	131.07
704.154	67.58
704.342	129.02
704.531	124.93
704.719	196.6
704.907	235.52
705.096	71.68
705.284	143.36
705.472	225.28
705.661	110.59
705.849	231.42
706.037	249.85
706.226	194.56
706.414	194.56
706.602	45.06
706.79	124.93
706.979	108.54
707.167	120.83
707.355	32.77
707.543	178.17
707.731	208.89
707.919	22.53
708.107	174.08
708.296	94.21
708.484	118.78
708.672	196.6
708.86	108.54
709.048	169.98
709.236	100.35
709.424	196.6
709.612	145.41
709.8	34.82
709.988	139.26
710.176	206.84
710.364	155.65
710.551	192.51
710.739	225.28
710.927	178.17
711.115	243.71
711.303	264.19
711.491	139.26
711.679	153.6
711.866	229.37
712.054	124.93
712.242	135.17
712.43	182.27
712.617	174.08
712.805	223.23
712.993	172.03
713.181	53.25
713.368	135.17
713.556	165.89
713.744	153.6
713.931	407.55
714.119	174.08
714.306	141.31
714.494	141.31
714.682	120.83
714.869	6.14
715.057	167.93
715.244	106.49
715.432	186.37
715.619	94.21
715.807	96.25
715.994	75.77
716.182	233.47
716.369	260.09
716.556	247.8
716.744	69.63
716.931	186.37
717.119	212.99
717.306	147.45
717.493	192.51
717.681	118.78
717.868	141.31
718.055	161.79
718.242	167.93
718.43	182.27
718.617	239.61
718.804	139.26
718.991	227.32
719.179	198.65
719.366	204.8
719.553	194.56
719.74	215.04
719.927	172.03
720.114	157.69
720.301	151.55
720.488	155.65
720.676	94.21
720.863	227.32
721.05	358.39
721.237	206.84
721.424	194.56
721.611	210.94
721.798	172.03
721.985	202.75
722.172	114.69
722.358	139.26
722.545	266.24
722.732	174.08
722.919	253.95
723.106	204.8
723.293	233.47
723.48	180.22
723.667	206.84
723.853	241.66
724.04	174.08
724.227	258.04
724.414	194.56
724.6	276.48
724.787	325.63
724.974	358.39
725.161	198.65
725.347	110.59
725.534	206.84
725.72	190.46
725.907	321.53
726.094	260.09
726.28	208.89
726.467	210.94
726.653	169.98
726.84	278.52
727.027	346.11
727.213	139.26
727.4	264.19
727.586	249.85
727.773	104.45
727.959	225.28
728.145	204.8
728.332	155.65
728.518	88.06
728.705	231.42
728.891	276.48
729.077	241.66
729.264	114.69
729.45	133.12
729.636	278.52
729.823	182.27
730.009	327.67
730.195	241.66
730.382	294.91
730.568	143.36
730.754	305.15
730.94	192.51
731.126	210.94
731.313	270.33
731.499	301.05
731.685	280.57
731.871	237.56
732.057	235.52
732.243	239.61
732.429	278.52
732.615	348.15
732.801	260.09
732.987	225.28
733.173	178.17
733.359	258.04
733.545	290.81
733.731	266.24
733.917	368.63
734.103	268.28
734.289	253.95
734.475	243.71
734.661	389.11
734.847	243.71
735.033	151.55
735.219	307.2
735.404	237.56
735.59	223.23
735.776	204.8
735.962	305.15
736.148	292.86
736.333	282.62
736.519	290.81
736.705	184.32
736.89	282.62
737.076	208.89
737.262	161.79
737.447	196.6
737.633	286.72
737.819	272.38
738.004	239.61
738.19	241.66
738.375	270.33
738.561	305.15
738.747	272.38
738.932	231.42
739.118	389.11
739.303	305.15
739.489	235.52
739.674	296.96
739.859	196.6
740.045	307.2
740.23	276.48
740.416	96.25
740.601	235.52
740.786	321.53
740.972	227.32
741.157	208.89
741.342	159.74
741.528	202.75
741.713	301.05
741.898	235.52
742.084	301.05
742.269	274.43
742.454	231.42
742.639	307.2
742.824	198.65
743.01	333.82
743.195	337.91
743.38	217.08
743.565	290.81
743.75	221.18
743.935	305.15
744.12	389.11
744.305	192.51
744.49	172.03
744.675	296.96
744.86	182.27
745.045	323.58
745.23	253.95
745.415	176.13
745.6	342.01
745.785	190.46
745.97	264.19
746.155	217.08
746.34	276.48
746.525	266.24
746.71	251.9
746.895	155.65
747.079	196.6
747.264	212.99
747.449	253.95
747.634	256
747.819	225.28
748.003	167.93
748.188	182.27
748.373	323.58
748.557	196.6
748.742	256
748.927	204.8
749.111	141.31
749.296	231.42
749.481	325.63
749.665	270.33
749.85	112.64
750.034	221.18
750.219	243.71
750.404	206.84
750.588	276.48
750.773	149.5
750.957	178.17
751.141	219.13
751.326	212.99
751.51	120.83
751.695	133.12
751.879	233.47
752.064	235.52
752.248	260.09
752.432	194.56
752.617	278.52
752.801	212.99
752.985	260.09
753.17	276.48
753.354	210.94
753.538	262.14
753.722	129.02
753.907	88.06
754.091	114.69
754.275	208.89
754.459	116.73
754.643	126.97
754.828	227.32
755.012	219.13
755.196	120.83
755.38	225.28
755.564	118.78
755.748	210.94
755.932	212.99
756.116	110.59
756.3	258.04
756.484	55.3
756.668	268.28
756.852	122.88
757.036	90.11
757.22	98.3
757.404	96.25
757.588	122.88
757.772	233.47
757.956	227.32
758.14	333.82
758.323	96.25
758.507	208.89
758.691	141.31
758.875	169.98
759.059	221.18
759.242	98.3
759.426	180.22
759.61	157.69
759.794	151.55
759.977	174.08
760.161	288.76
760.345	208.89
760.528	114.69
760.712	186.37
760.895	321.53
761.079	100.35
761.263	118.78
761.446	63.49
761.63	165.89
761.813	126.97
761.997	40.96
762.18	139.26
762.364	180.22
762.547	26.62
762.731	145.41
762.914	180.22
763.098	-22.53
763.281	104.45
763.464	114.69
763.648	147.45
763.831	86.01
764.015	55.3
764.198	149.5
764.381	53.25
764.564	147.45
764.748	122.88
764.931	43.01
765.114	67.58
765.297	223.23
765.481	8.19
765.664	75.77
765.847	79.87
766.03	163.84
766.213	47.1
766.397	32.77
766.58	34.82
766.763	155.65
766.946	81.92
767.129	129.02
767.312	67.58
767.495	57.34
767.678	22.53
767.861	147.45
768.044	108.54
768.227	79.87
768.41	153.6
768.593	116.73
768.776	53.25
768.959	8.19
769.142	120.83
769.324	14.34
769.507	104.45
769.69	22.53
769.873	141.31
770.056	194.56
770.239	45.06
770.421	159.74
770.604	135.17
770.787	36.86
770.97	135.17
771.152	26.62
771.335	63.49
771.518	18.43
771.7	176.13
771.883	178.17
772.066	79.87
772.248	102.4
772.431	161.79
772.613	79.87
772.796	96.25
772.978	131.07
773.161	202.75
773.343	92.16
773.526	88.06
773.708	36.86
773.891	-22.53
774.073	67.58
774.256	32.77
774.438	208.89
774.621	24.58
774.803	139.26
774.985	71.68
775.168	141.31
775.35	-4.1
775.532	116.73
775.715	32.77
775.897	133.12
776.079	-6.14
776.261	28.67
776.444	-8.19
776.626	36.86
776.808	47.1
776.99	28.67
777.173	100.35
777.355	69.63
777.537	49.15
777.719	63.49
777.901	-34.82
778.083	30.72
778.265	-36.86
778.447	75.77
778.629	-12.29
778.811	2.05
778.993	98.3
779.175	137.21
779.357	90.11
779.539	-10.24
779.721	63.49
779.903	131.07
780.085	51.2
780.267	-2.05
780.449	57.34
780.631	122.88
780.812	149.5
780.994	49.15
781.176	8.19
781.358	92.16
781.54	57.34
781.721	67.58
781.903	59.39
782.085	6.14
782.267	88.06
782.448	-16.38
782.63	51.2
782.812	16.38
782.993	38.91
783.175	49.15
783.357	36.86
783.538	106.49
783.72	-45.06
783.901	34.82
784.083	67.58
784.264	36.86
784.446	-40.96
784.627	-120.83
784.809	65.53
784.99	49.15
785.172	59.39
785.353	108.54
785.535	126.97
785.716	16.38
785.897	-8.19
786.079	53.25
786.26	90.11
786.441	-69.63
786.623	-36.86
786.804	-18.43
786.985	-30.72
787.167	-12.29
787.348	6.14
787.529	81.92
787.71	151.55
787.891	45.06
788.073	-22.53
788.254	-114.69
788.435	147.45
788.616	43.01
788.797	-59.39
788.978	49.15
789.159	30.72
789.34	2.05
789.522	14.34
789.703	-14.34
789.884	-6.14
790.065	75.77
790.246	77.82
790.427	57.34
790.607	135.17
790.788	61.44
790.969	-75.77
791.15	36.86
791.331	-69.63
791.512	-16.38
791.693	-108.54
791.874	26.62
792.054	167.93
792.235	-4.1
792.416	-83.97
792.597	-16.38
792.778	10.24
792.958	43.01
793.139	57.34
793.32	49.15
793.5	24.58
793.681	65.53
793.862	28.67
794.042	83.97
794.223	-90.11
794.404	-88.06
794.584	-86.01
794.765	-8.19
794.945	40.96
795.126	47.1
795.306	73.73
795.487	63.49
795.667	-6.14
795.848	-67.58
796.028	75.77
796.209	-51.2
796.389	22.53
796.57	-14.34
796.75	-61.44
796.93	55.3
797.111	-98.3
797.291	-49.15
797.471	45.06
797.652	-30.72
797.832	-26.62
798.012	67.58
798.192	-47.1
798.373	-53.25
798.553	22.53
798.733	-4.1
798.913	-20.48
799.093	18.43
799.274	10.24
799.454	40.96
799.634	40.96
799.814	28.67
799.994	92.16
800.174	104.45
800.354	26.62
800.534	-137.21
800.714	102.4
800.894	-51.2
801.074	-143.36
801.254	-22.53
801.434	71.68
801.614	57.34
801.794	-38.91
801.974	1904.61
802.154	-96.25
802.334	92.16
802.514	-79.87
802.693	83.97
802.873	-10.24
803.053	65.53
803.233	-6.14
803.413	-34.82
803.592	-34.82
803.772	-32.77
803.952	18.43
804.131	-88.06
804.311	57.34
804.491	81.92
804.67	-106.49
804.85	-53.25
805.03	-10.24
805.209	53.25
805.389	14.34
805.568	55.3
805.748	-57.34
805.928	-8.19
806.107	71.68
806.287	-14.34
806.466	4.1
806.646	-2.05
806.825	-94.21
807.004	-36.86
807.184	-12.29
807.363	24.58
807.543	51.2
807.722	-96.25
807.901	55.3
808.081	36.86
808.26	-124.93
808.439	-6.14
808.619	-2.05
808.798	-32.77
808.977	24.58
809.156	77.82
809.336	94.21
809.515	34.82
809.694	-63.49
809.873	-100.35
810.052	30.72
810.231	79.87
810.411	-49.15
810.59	65.53
810.769	10.24
810.948	34.82
811.127	-69.63
811.306	-53.25
811.485	-43.01
811.664	110.59
811.843	-10.24
812.022	2.05
812.201	-28.67
812.38	-8.19
812.559	-18.43
812.737	73.73
812.916	-124.93
813.095	-79.87
813.274	22.53
813.453	-12.29
813.632	-16.38
813.811	47.1
813.989	-102.4
814.168	-30.72
814.347	-104.45
814.526	-20.48
814.704	126.97
814.883	94.21
815.062	-71.68
815.24	12.29
815.419	-45.06
815.598	83.97
815.776	-98.3
815.955	6.14
816.133	-100.35
816.312	20.48
816.49	-47.1
816.669	90.11
816.847	-16.38
817.026	40.96
817.204	14.34
817.383	-129.02
817.561	12.29
817.74	2.05
817.918	-65.54
818.097	-20.48
818.275	-28.67
818.453	28.67
818.632	22.53
818.81	-79.87
818.988	-22.53
819.167	-88.06
819.345	16.38
819.523	-69.63
819.701	-38.91
819.879	30.72
820.058	20.48
820.236	57.34
820.414	20.48
820.592	8.19
820.77	-102.4
820.948	-32.77
821.127	55.3
821.305	12.29
821.483	-106.49
821.661	30.72
821.839	34.82
822.017	-53.25
822.195	-28.67
822.373	63.49
822.551	45.06
822.729	49.15
822.907	-10.24
823.085	67.58
823.262	61.44
823.44	-59.39
823.618	4.1
823.796	81.92
823.974	-36.86
824.152	-59.39
824.329	-24.58
824.507	-24.58
824.685	34.82
824.863	-24.58
825.04	-36.86
825.218	81.92
825.396	16.38
825.574	22.53
825.751	26.62
825.929	-38.91
826.107	-65.54
826.284	-26.62
826.462	69.63
826.639	-83.97
826.817	-133.12
826.994	8.19
827.172	-79.87
827.349	114.69
827.527	59.39
827.704	-22.53
827.882	51.2
828.059	-47.1
828.237	24.58
828.414	73.73
828.591	-172.03
828.769	-32.77
828.946	-192.51
829.124	8.19
829.301	112.64
829.478	-53.25
829.655	-8.19
829.833	-49.15
830.01	-110.59
830.187	-24.58
830.364	-63.49
830.542	2.05
830.719	59.39
830.896	28.67
831.073	-6.14
831.25	-59.39
831.427	69.63
831.604	12.29
831.782	-30.72
831.959	55.3
832.136	-69.63
832.313	14.34
832.49	10.24
832.667	12.29
832.844	10.24
833.021	81.92
833.198	-45.06
833.374	-0
833.551	-36.86
833.728	-90.11
833.905	32.77
834.082	-92.16
834.259	88.06
834.436	47.1
834.612	-92.16
834.789	-14.34
834.966	-2.05
835.143	20.48
835.319	-137.21
835.496	-18.43
835.673	47.1
835.85	63.49
836.026	67.58
836.203	104.45
836.38	-131.07
836.556	-43.01
836.733	-57.34
836.909	73.73
837.086	6.14
837.262	-92.16
837.439	-75.77
837.616	-26.62
837.792	-73.73
837.968	38.91
838.145	-188.41
838.321	-30.72
838.498	53.25
838.674	49.15
838.851	-18.43
839.027	-6.14
839.203	-73.73
839.38	-24.58
839.556	-67.58
839.732	12.29
839.909	36.86
840.085	-24.58
840.261	-55.3
840.437	-4.1
840.614	-34.82
840.79	22.53
840.966	51.2
841.142	-57.34
841.318	-38.91
841.494	57.34
841.671	114.69
841.847	-47.1
842.023	-165.89
842.199	14.34
842.375	65.53
842.551	-79.87
842.727	-67.58
842.903	100.35
843.079	-28.67
843.255	55.3
843.431	20.48
843.607	8.19
843.783	-77.82
843.959	86.01
844.134	-47.1
844.31	86.01
844.486	-55.3
844.662	-96.25
844.838	22.53
845.013	-8.19
845.189	10.24
845.365	10.24
845.541	-45.06
845.716	-4.1
845.892	-30.72
846.068	-116.73
846.244	-45.06
846.419	30.72
846.595	-67.58
846.77	-110.59
846.946	38.91
847.122	-88.06
847.297	73.73
847.473	118.78
847.648	-124.93
847.824	-2.05
847.999	-90.11
848.175	10.24
848.35	-47.1
848.526	32.77
848.701	-12.29
848.876	30.72
849.052	18.43
849.227	-67.58
849.403	-18.43
849.578	-57.34
849.753	57.34
849.929	34.82
850.104	-159.74
850.279	38.91
850.454	22.53
850.63	2.05
850.805	-61.44
850.98	26.62
851.155	-59.39
851.33	-28.67
851.505	-161.79
851.681	153.6
851.856	-53.25
852.031	36.86
852.206	-0
852.381	-18.43
852.556	-18.43
852.731	-16.38
852.906	79.87
853.081	-6.14
853.256	153.6
853.431	-10.24
853.606	-59.39
853.781	-34.82
853.956	-118.78
854.131	-10.24
854.305	-81.92
854.48	-34.82
854.655	-57.34
854.83	-71.68
855.005	-75.77
855.18	36.86
855.354	-26.62
855.529	67.58
855.704	-34.82
855.879	77.82
856.053	-69.63
856.228	51.2
856.403	-106.49
856.577	67.58
856.752	-102.4
856.926	-86.01
857.101	-47.1
857.276	-83.97
857.45	-22.53
857.625	53.25
857.799	-65.54
857.974	-40.96
858.148	-116.73
858.323	28.67
858.497	-51.2
858.672	-81.92
858.846	-49.15
859.02	10.24
859.195	-81.92
859.369	-106.49
859.543	18.43
859.718	-120.83
859.892	51.2
860.066	-8.19
860.241	-55.3
860.415	-59.39
860.589	2.05
860.763	16.38
860.938	-63.49
861.112	10.24
861.286	-30.72
861.46	-14.34
861.634	-86.01
861.808	26.62
861.982	-28.67
862.157	-88.06
862.331	-43.01
862.505	-157.69
862.679	-151.55
862.853	-65.54
863.027	-0
863.201	63.49
863.375	-104.45
863.549	51.2
863.722	-43.01
863.896	112.64
864.07	-40.96
864.244	55.3
864.418	12.29
864.592	2.05
864.766	-8.19
864.939	-55.3
865.113	-30.72
865.287	129.02
865.461	-92.16
865.634	36.86
865.808	-20.48
865.982	-116.73
866.156	-34.82
866.329	-133.12
866.503	26.62
866.676	-18.43
866.85	6.14
867.024	-6.14
867.197	22.53
867.371	-32.77
867.544	-77.82
867.718	-131.07
867.891	4.1
868.065	-133.12
868.238	-12.29
868.412	34.82
868.585	-20.48
868.759	-102.4
868.932	-34.82
869.105	-102.4
869.279	-73.73
869.452	-139.26
869.625	49.15
869.799	20.48
869.972	-83.97
870.145	-43.01
870.319	36.86
870.492	-81.92
870.665	-49.15
870.838	-112.64
871.011	-88.06
871.185	-102.4
871.358	-26.62
871.531	8.19
871.704	-47.1
871.877	-114.69
872.05	-92.16
872.223	-118.78
872.396	14.34
872.569	-4.1
872.742	-139.26
872.915	49.15
873.088	-30.72
873.261	-65.54
873.434	40.96
873.607	-20.48
873.78	12.29
873.953	-32.77
874.126	26.62
874.299	-26.62
874.471	-8.19
874.644	-75.77
874.817	71.68
874.99	147.45
875.163	-98.3
875.335	-20.48
875.508	-28.67
875.681	18.43
875.853	-47.1
876.026	-10.24
876.199	24.58
876.371	-14.34
876.544	-34.82
876.717	-26.62
876.889	-45.06
877.062	79.87
877.234	-118.78
877.407	-75.77
877.579	26.62
877.752	-47.1
877.924	38.91
878.097	6.14
878.269	26.62
878.442	47.1
878.614	34.82
878.786	-10.24
878.959	-6.14
879.131	16.38
879.303	-163.84
879.476	-34.82
879.648	81.92
879.82	-57.34
879.993	-51.2
880.165	-83.97
880.337	-155.65
880.509	-22.53
880.681	-110.59
880.854	-30.72
881.026	38.91
881.198	139.26
881.37	-83.97
881.542	-24.58
881.714	-0
881.886	-6.14
882.058	-38.91
882.23	-96.25
882.402	-45.06
882.574	-4.1
882.746	24.58
882.918	94.21
883.09	28.67
883.262	-18.43
883.434	-2.05
883.606	-133.12
883.778	-28.67
883.95	135.17
884.122	-57.34
884.293	10.24
884.465	-2.05
884.637	-22.53
884.809	-65.54
884.98	32.77
885.152	10.24
885.324	12.29
885.496	-145.41
885.667	-96.25
885.839	34.82
886.011	86.01
886.182	38.91
886.354	-47.1
886.525	75.77
886.697	-18.43
886.869	-38.91
887.04	-38.91
887.212	40.96
887.383	149.5
887.555	20.48
887.726	-71.68
887.897	-59.39
888.069	26.62
888.24	-12.29
888.412	-59.39
888.583	-61.44
888.754	-51.2
888.926	-126.97
889.097	-77.82
889.268	-98.3
889.44	26.62
889.611	-92.16
889.782	-116.73
889.953	-143.36
890.125	94.21
890.296	-79.87
890.467	-26.62
890.638	-16.38
890.809	-79.87
890.98	-67.58
891.151	57.34
891.323	61.44
891.494	-81.92
891.665	14.34
891.836	-32.77
892.007	-18.43
892.178	20.48
892.349	-22.53
892.52	-79.87
892.691	-2.05
892.862	-40.96
893.032	-36.86
893.203	-108.54
893.374	24.58
893.545	43.01
893.716	-45.06
893.887	-36.86
894.057	-2.05
894.228	-43.01
894.399	-28.67
894.57	77.82
894.74	-2.05
894.911	10.24
895.082	-22.53
895.253	-53.25
895.423	-0
895.594	43.01
895.764	38.91
895.935	-137.21
896.106	45.06
896.276	-36.86
896.447	-38.91
896.617	-67.58
896.788	-86.01
896.958	-63.49
897.129	-24.58
897.299	-67.58
897.47	112.64
897.64	61.44
897.81	-36.86
897.981	-38.91
898.151	-126.97
898.322	-4.1
898.492	20.48
898.662	-145.41
898.832	-92.16
899.003	-83.97
899.173	-16.38
899.343	-18.43
899.513	-69.63
