Data from USB4F104151__113__10-36-26-622.txt Node

Date: Wed Feb 26 10:36:26 EST 2025
User: louis
Spectrometer: USB4F10415
Trigger mode: 4
Integration Time (sec): 1.000000E-1
Scans to average: 1
Electric dark correction enabled: true
Nonlinearity correction enabled: false
Boxcar width: 0
XAxis mode: Wavelengths
Number of Pixels in Spectrum: 3648
>>>>>Begin Spectral Data<<<<<
178.204	-347.13
178.424	-347.13
178.644	-347.13
178.864	-375.8
179.084	-410.62
179.304	-19.46
179.524	-13.31
179.744	101.37
179.964	60.42
180.184	-13.31
180.404	54.27
180.624	-33.79
180.844	17.41
181.064	-123.9
181.283	1.02
181.503	-33.79
181.723	3.07
181.943	-91.13
182.163	179.2
182.383	-7.17
182.602	68.61
182.822	60.42
183.042	54.27
183.262	-91.13
183.482	29.7
183.701	35.84
183.921	56.32
184.141	-78.85
184.361	3.07
184.58	111.61
184.8	21.5
185.02	-48.13
185.239	125.95
185.459	23.55
185.679	62.46
185.898	-66.56
186.118	103.42
186.338	68.61
186.557	87.04
186.777	-97.28
186.997	-31.74
187.216	52.22
187.436	148.48
187.655	78.85
187.875	128
188.095	54.27
188.314	160.77
188.534	93.18
188.753	-29.7
188.973	105.47
189.192	80.89
189.412	-23.55
189.631	68.61
189.851	111.61
190.07	177.15
190.29	-54.27
190.509	-31.74
190.729	17.41
190.948	164.86
191.168	263.16
191.387	103.42
191.607	39.94
191.826	70.65
192.045	82.94
192.265	-9.22
192.484	9.22
192.704	35.84
192.923	-101.37
193.142	140.29
193.362	82.94
193.581	91.13
193.8	37.89
194.02	21.5
194.239	46.08
194.458	101.37
194.678	-41.98
194.897	15.36
195.116	37.89
195.335	84.99
195.555	128
195.774	39.94
195.993	109.57
196.212	64.51
196.432	44.03
196.651	-29.7
196.87	-23.55
197.089	240.64
197.308	39.94
197.528	84.99
197.747	-25.6
197.966	62.46
198.185	173.05
198.404	-23.55
198.623	119.81
198.842	117.76
199.062	130.05
199.281	78.85
199.5	56.32
199.719	78.85
199.938	23.55
200.157	109.57
200.376	109.57
200.595	136.19
200.814	60.42
201.033	44.03
201.252	128
201.471	125.95
201.69	95.23
201.909	37.89
202.128	134.14
202.347	25.6
202.566	11.26
202.785	1.02
203.004	46.08
203.223	297.98
203.442	11.26
203.661	-54.27
203.879	60.42
204.098	150.53
204.317	19.46
204.536	140.29
204.755	62.46
204.974	156.67
205.193	25.6
205.411	109.57
205.63	74.75
205.849	64.51
206.068	9.22
206.287	50.18
206.505	136.19
206.724	-1.02
206.943	-1.02
207.162	13.31
207.381	101.37
207.599	41.98
207.818	109.57
208.037	58.37
208.255	-9.22
208.474	80.89
208.693	125.95
208.911	-41.98
209.13	41.98
209.349	89.09
209.567	113.66
209.786	37.89
210.005	111.61
210.223	23.55
210.442	-56.32
210.661	-27.65
210.879	82.94
211.098	68.61
211.316	21.5
211.535	33.79
211.753	56.32
211.972	58.37
212.191	-66.56
212.409	-1.02
212.628	142.33
212.846	3.07
213.065	5.12
213.283	130.05
213.502	31.74
213.72	115.71
213.938	87.04
214.157	68.61
214.375	103.42
214.594	-19.46
214.812	105.47
215.031	78.85
215.249	-7.17
215.467	5.12
215.686	31.74
215.904	82.94
216.122	13.31
216.341	254.97
216.559	89.09
216.778	62.46
216.996	107.52
217.214	5.12
217.432	-5.12
217.651	-103.42
217.869	76.8
218.087	80.89
218.306	35.84
218.524	37.89
218.742	1.02
218.96	39.94
219.179	3.07
219.397	33.79
219.615	209.92
219.833	115.71
220.051	-25.6
220.27	74.75
220.488	76.8
220.706	11.26
220.924	-17.41
221.142	41.98
221.36	84.99
221.578	27.65
221.796	25.6
222.015	25.6
222.233	64.51
222.451	171.01
222.669	52.22
222.887	54.27
223.105	5.12
223.323	15.36
223.541	-72.7
223.759	87.04
223.977	54.27
224.195	138.24
224.413	82.94
224.631	66.56
224.849	-3.07
225.067	246.78
225.285	25.6
225.503	-11.26
225.721	15.36
225.939	50.18
226.157	-31.74
226.375	152.57
226.592	-27.65
226.81	72.7
227.028	91.13
227.246	125.95
227.464	72.7
227.682	68.61
227.9	84.99
228.117	107.52
228.335	46.08
228.553	84.99
228.771	39.94
228.989	50.18
229.206	31.74
229.424	35.84
229.642	58.37
229.86	-46.08
230.077	197.63
230.295	66.56
230.513	103.42
230.731	50.18
230.948	99.33
231.166	125.95
231.384	23.55
231.601	-9.22
231.819	164.86
232.037	-5.12
232.254	-9.22
232.472	87.04
232.689	-23.55
232.907	109.57
233.125	23.55
233.342	5.12
233.56	-23.55
233.777	-60.42
233.995	46.08
234.213	105.47
234.43	56.32
234.648	54.27
234.865	48.13
235.083	-11.26
235.3	5.12
235.518	162.81
235.735	144.38
235.953	87.04
236.17	-33.79
236.388	-3.07
236.605	15.36
236.822	89.09
237.04	115.71
237.257	99.33
237.475	-19.46
237.692	-1.02
237.909	164.86
238.127	21.5
238.344	87.04
238.562	87.04
238.779	46.08
238.996	-17.41
239.214	70.65
239.431	185.34
239.648	44.03
239.865	50.18
240.083	64.51
240.3	39.94
240.517	13.31
240.735	21.5
240.952	140.29
241.169	78.85
241.386	148.48
241.603	-9.22
241.821	-48.13
242.038	105.47
242.255	177.15
242.472	-60.42
242.689	56.32
242.907	39.94
243.124	87.04
243.341	62.46
243.558	-23.55
243.775	25.6
243.992	-33.79
244.209	148.48
244.426	142.33
244.643	41.98
244.86	25.6
245.078	119.81
245.295	11.26
245.512	48.13
245.729	39.94
245.946	33.79
246.163	15.36
246.38	7.17
246.597	48.13
246.814	48.13
247.031	-3.07
247.248	91.13
247.464	84.99
247.681	50.18
247.898	97.28
248.115	72.7
248.332	-15.36
248.549	54.27
248.766	234.49
248.983	87.04
249.2	58.37
249.417	62.46
249.633	-11.26
249.85	87.04
250.067	21.5
250.284	19.46
250.501	46.08
250.717	132.09
250.934	-54.27
251.151	1.02
251.368	37.89
251.585	52.22
251.801	-1.02
252.018	-17.41
252.235	115.71
252.451	-89.09
252.668	70.65
252.885	113.66
253.102	48.13
253.318	48.13
253.535	-7.17
253.752	-11.26
253.968	-17.41
254.185	-48.13
254.401	21.5
254.618	46.08
254.835	1.02
255.051	175.1
255.268	87.04
255.484	35.84
255.701	97.28
255.917	33.79
256.134	-132.09
256.351	37.89
256.567	-29.7
256.784	17.41
257	-7.17
257.217	56.32
257.433	80.89
257.65	58.37
257.866	187.39
258.082	11.26
258.299	23.55
258.515	25.6
258.732	54.27
258.948	11.26
259.165	13.31
259.381	-68.61
259.597	162.81
259.814	113.66
260.03	5.12
260.246	91.13
260.463	158.72
260.679	197.63
260.895	64.51
261.112	117.76
261.328	39.94
261.544	11.26
261.761	183.29
261.977	29.7
262.193	-70.65
262.409	134.14
262.626	58.37
262.842	97.28
263.058	-7.17
263.274	134.14
263.49	39.94
263.707	136.19
263.923	107.52
264.139	-89.09
264.355	62.46
264.571	109.57
264.787	97.28
265.004	44.03
265.22	78.85
265.436	-15.36
265.652	31.74
265.868	1.02
266.084	-11.26
266.3	91.13
266.516	54.27
266.732	41.98
266.948	62.46
267.164	50.18
267.38	60.42
267.596	93.18
267.812	136.19
268.028	62.46
268.244	-41.98
268.46	123.9
268.676	44.03
268.892	52.22
269.108	-3.07
269.324	-1.02
269.54	3.07
269.756	17.41
269.972	-58.37
270.188	-35.84
270.403	-52.22
270.619	9.22
270.835	115.71
271.051	-9.22
271.267	27.65
271.483	41.98
271.698	113.66
271.914	19.46
272.13	-27.65
272.346	72.7
272.562	-52.22
272.777	134.14
272.993	21.5
273.209	97.28
273.425	117.76
273.64	-70.65
273.856	136.19
274.072	-25.6
274.287	-9.22
274.503	134.14
274.719	64.51
274.934	-15.36
275.15	-21.5
275.366	-68.61
275.581	-74.75
275.797	87.04
276.012	74.75
276.228	1.02
276.444	1.02
276.659	185.34
276.875	23.55
277.09	13.31
277.306	-9.22
277.521	41.98
277.737	3.07
277.952	58.37
278.168	7.17
278.383	58.37
278.599	23.55
278.814	130.05
279.03	1.02
279.245	140.29
279.461	115.71
279.676	142.33
279.892	-11.26
280.107	-21.5
280.322	50.18
280.538	41.98
280.753	-13.31
280.969	113.66
281.184	66.56
281.399	207.87
281.615	97.28
281.83	144.38
282.045	-1.02
282.26	-21.5
282.476	128
282.691	80.89
282.906	56.32
283.122	70.65
283.337	21.5
283.552	66.56
283.767	15.36
283.983	95.23
284.198	-46.08
284.413	70.65
284.628	-99.33
284.843	-5.12
285.058	82.94
285.274	11.26
285.489	-56.32
285.704	148.48
285.919	7.17
286.134	-5.12
286.349	-1.02
286.564	52.22
286.779	117.76
286.995	-54.27
287.21	-72.7
287.425	109.57
287.64	52.22
287.855	72.7
288.07	-101.37
288.285	103.42
288.5	160.77
288.715	66.56
288.93	29.7
289.145	-56.32
289.36	95.23
289.575	-35.84
289.79	80.89
290.004	11.26
290.219	70.65
290.434	-25.6
290.649	87.04
290.864	46.08
291.079	64.51
291.294	25.6
291.509	113.66
291.724	29.7
291.938	-19.46
292.153	91.13
292.368	39.94
292.583	68.61
292.798	52.22
293.012	150.53
293.227	72.7
293.442	-15.36
293.657	44.03
293.871	76.8
294.086	50.18
294.301	214.01
294.516	130.05
294.73	64.51
294.945	-56.32
295.16	-31.74
295.374	136.19
295.589	105.47
295.804	50.18
296.018	97.28
296.233	152.57
296.447	105.47
296.662	-15.36
296.877	148.48
297.091	113.66
297.306	-11.26
297.52	-3.07
297.735	33.79
297.949	58.37
298.164	99.33
298.378	70.65
298.593	-33.79
298.807	-21.5
299.022	44.03
299.236	154.62
299.451	-54.27
299.665	-41.98
299.88	39.94
300.094	103.42
300.309	-48.13
300.523	60.42
300.737	54.27
300.952	105.47
301.166	119.81
301.381	19.46
301.595	80.89
301.809	109.57
302.024	31.74
302.238	-7.17
302.452	152.57
302.667	23.55
302.881	150.53
303.095	103.42
303.309	80.89
303.524	15.36
303.738	-60.42
303.952	31.74
304.166	95.23
304.381	-58.37
304.595	130.05
304.809	-11.26
305.023	54.27
305.237	31.74
305.452	1.02
305.666	5.12
305.88	119.81
306.094	123.9
306.308	76.8
306.522	66.56
306.736	54.27
306.95	113.66
307.164	50.18
307.379	62.46
307.593	101.37
307.807	121.85
308.021	19.46
308.235	103.42
308.449	-160.77
308.663	35.84
308.877	234.49
309.091	27.65
309.305	37.89
309.519	-27.65
309.733	111.61
309.947	-54.27
310.161	48.13
310.374	158.72
310.588	97.28
310.802	-29.7
311.016	95.23
311.23	80.89
311.444	5.12
311.658	70.65
311.872	166.91
312.085	154.62
312.299	56.32
312.513	109.57
312.727	70.65
312.941	33.79
313.154	109.57
313.368	37.89
313.582	117.76
313.796	39.94
314.009	21.5
314.223	121.85
314.437	21.5
314.651	37.89
314.864	48.13
315.078	37.89
315.292	-35.84
315.505	33.79
315.719	168.96
315.933	97.28
316.146	72.7
316.36	-11.26
316.573	52.22
316.787	64.51
317.001	132.09
317.214	39.94
317.428	74.75
317.641	-60.42
317.855	19.46
318.068	68.61
318.282	115.71
318.495	199.68
318.709	97.28
318.922	113.66
319.136	181.25
319.349	89.09
319.563	50.18
319.776	39.94
319.99	-3.07
320.203	150.53
320.417	-3.07
320.63	39.94
320.843	218.11
321.057	54.27
321.27	11.26
321.483	19.46
321.697	152.57
321.91	113.66
322.124	76.8
322.337	123.9
322.55	37.89
322.763	56.32
322.977	-68.61
323.19	-15.36
323.403	27.65
323.617	89.09
323.83	207.87
324.043	39.94
324.256	101.37
324.469	-99.33
324.683	91.13
324.896	91.13
325.109	48.13
325.322	-15.36
325.535	54.27
325.748	105.47
325.962	25.6
326.175	41.98
326.388	37.89
326.601	128
326.814	41.98
327.027	48.13
327.24	148.48
327.453	-27.65
327.666	87.04
327.879	115.71
328.092	82.94
328.305	80.89
328.518	13.31
328.731	39.94
328.944	-35.84
329.157	76.8
329.37	37.89
329.583	197.63
329.796	128
330.009	-111.61
330.222	125.95
330.435	130.05
330.648	64.51
330.861	15.36
331.073	29.7
331.286	111.61
331.499	-19.46
331.712	-62.46
331.925	27.65
332.138	17.41
332.35	119.81
332.563	44.03
332.776	128
332.989	-19.46
333.202	-17.41
333.414	13.31
333.627	62.46
333.84	-11.26
334.053	125.95
334.265	56.32
334.478	91.13
334.691	70.65
334.903	103.42
335.116	-23.55
335.329	-5.12
335.541	72.7
335.754	226.3
335.966	19.46
336.179	105.47
336.392	-5.12
336.604	-11.26
336.817	109.57
337.029	54.27
337.242	68.61
337.454	37.89
337.667	93.18
337.88	171.01
338.092	60.42
338.305	66.56
338.517	-15.36
338.729	105.47
338.942	173.05
339.154	-11.26
339.367	-46.08
339.579	52.22
339.792	-56.32
340.004	185.34
340.217	-25.6
340.429	58.37
340.641	-31.74
340.854	-66.56
341.066	-9.22
341.278	95.23
341.491	97.28
341.703	66.56
341.915	-54.27
342.128	144.38
342.34	3.07
342.552	-46.08
342.764	119.81
342.977	-29.7
343.189	60.42
343.401	50.18
343.613	-25.6
343.826	76.8
344.038	11.26
344.25	74.75
344.462	-27.65
344.674	-9.22
344.886	13.31
345.099	39.94
345.311	33.79
345.523	74.75
345.735	-60.42
345.947	50.18
346.159	89.09
346.371	52.22
346.583	7.17
346.795	191.49
347.007	44.03
347.219	64.51
347.431	-13.31
347.643	103.42
347.855	41.98
348.067	209.92
348.279	31.74
348.491	5.12
348.703	52.22
348.915	-9.22
349.127	21.5
349.339	109.57
349.551	56.32
349.763	115.71
349.975	37.89
350.187	56.32
350.399	185.34
350.61	60.42
350.822	-7.17
351.034	109.57
351.246	35.84
351.458	82.94
351.669	82.94
351.881	89.09
352.093	168.96
352.305	64.51
352.517	62.46
352.728	130.05
352.94	84.99
353.152	70.65
353.363	58.37
353.575	44.03
353.787	156.67
353.999	44.03
354.21	173.05
354.422	-13.31
354.633	74.75
354.845	60.42
355.057	19.46
355.268	-31.74
355.48	15.36
355.692	-52.22
355.903	93.18
356.115	5.12
356.326	-35.84
356.538	117.76
356.749	109.57
356.961	175.1
357.172	-91.13
357.384	-62.46
357.595	228.35
357.807	-35.84
358.018	-19.46
358.23	15.36
358.441	160.77
358.653	72.7
358.864	48.13
359.075	-25.6
359.287	27.65
359.498	39.94
359.709	191.49
359.921	25.6
360.132	1.02
360.344	5.12
360.555	-60.42
360.766	54.27
360.977	23.55
361.189	35.84
361.4	99.33
361.611	111.61
361.823	177.15
362.034	66.56
362.245	-107.52
362.456	21.5
362.667	35.84
362.879	-15.36
363.09	56.32
363.301	62.46
363.512	68.61
363.723	-25.6
363.935	46.08
364.146	136.19
364.357	5.12
364.568	56.32
364.779	-21.5
364.99	62.46
365.201	-66.56
365.412	205.82
365.623	-74.75
365.834	-3.07
366.045	37.89
366.256	87.04
366.467	136.19
366.678	-11.26
366.889	97.28
367.1	3.07
367.311	70.65
367.522	33.79
367.733	97.28
367.944	93.18
368.155	66.56
368.366	80.89
368.577	82.94
368.788	162.81
368.999	-19.46
369.209	70.65
369.42	191.49
369.631	259.07
369.842	123.9
370.053	44.03
370.264	130.05
370.474	91.13
370.685	31.74
370.896	39.94
371.107	144.38
371.317	84.99
371.528	3.07
371.739	121.85
371.95	68.61
372.16	74.75
372.371	35.84
372.582	33.79
372.792	68.61
373.003	60.42
373.214	115.71
373.424	76.8
373.635	-19.46
373.846	132.09
374.056	15.36
374.267	68.61
374.477	-25.6
374.688	-41.98
374.898	9.22
375.109	11.26
375.319	78.85
375.53	48.13
375.74	60.42
375.951	-1.02
376.161	31.74
376.372	144.38
376.582	-31.74
376.793	68.61
377.003	-27.65
377.214	1.02
377.424	74.75
377.635	89.09
377.845	-13.31
378.055	185.34
378.266	3.07
378.476	87.04
378.686	97.28
378.897	-33.79
379.107	138.24
379.317	3.07
379.528	29.7
379.738	95.23
379.948	-56.32
380.158	103.42
380.369	117.76
380.579	80.89
380.789	68.61
380.999	99.33
381.21	140.29
381.42	207.87
381.63	-5.12
381.84	56.32
382.05	95.23
382.261	119.81
382.471	66.56
382.681	44.03
382.891	132.09
383.101	66.56
383.311	-29.7
383.521	-29.7
383.731	60.42
383.941	58.37
384.151	46.08
384.361	29.7
384.571	93.18
384.781	46.08
384.991	177.15
385.201	244.73
385.411	-3.07
385.621	87.04
385.831	78.85
386.041	-5.12
386.251	56.32
386.461	142.33
386.671	25.6
386.881	99.33
387.091	-37.89
387.301	132.09
387.511	74.75
387.72	64.51
387.93	125.95
388.14	-33.79
388.35	150.53
388.56	150.53
388.769	132.09
388.979	-3.07
389.189	-39.94
389.399	62.46
389.609	101.37
389.818	58.37
390.028	64.51
390.238	89.09
390.447	5.12
390.657	50.18
390.867	9.22
391.076	-33.79
391.286	70.65
391.496	66.56
391.705	23.55
391.915	117.76
392.125	89.09
392.334	21.5
392.544	162.81
392.753	19.46
392.963	-46.08
393.172	64.51
393.382	29.7
393.591	220.16
393.801	25.6
394.01	109.57
394.22	62.46
394.429	33.79
394.639	56.32
394.848	82.94
395.058	70.65
395.267	97.28
395.477	132.09
395.686	60.42
395.895	191.49
396.105	205.82
396.314	58.37
396.524	-19.46
396.733	52.22
396.942	132.09
397.152	121.85
397.361	74.75
397.57	31.74
397.78	19.46
397.989	117.76
398.198	168.96
398.407	29.7
398.617	72.7
398.826	125.95
399.035	35.84
399.244	84.99
399.453	39.94
399.663	74.75
399.872	87.04
400.081	-125.95
400.29	160.77
400.499	-33.79
400.708	111.61
400.917	35.84
401.127	-31.74
401.336	72.7
401.545	189.44
401.754	109.57
401.963	134.14
402.172	-5.12
402.381	-44.03
402.59	93.18
402.799	62.46
403.008	21.5
403.217	7.17
403.426	-21.5
403.635	-33.79
403.844	37.89
404.053	-1.02
404.262	1.02
404.471	185.34
404.68	41.98
404.888	56.32
405.097	37.89
405.306	87.04
405.515	128
405.724	-29.7
405.933	64.51
406.142	113.66
406.35	132.09
406.559	-109.57
406.768	9.22
406.977	193.53
407.185	52.22
407.394	72.7
407.603	-33.79
407.812	-11.26
408.02	76.8
408.229	56.32
408.438	78.85
408.646	-54.27
408.855	119.81
409.064	76.8
409.272	7.17
409.481	125.95
409.69	-23.55
409.898	52.22
410.107	68.61
410.315	78.85
410.524	-39.94
410.733	29.7
410.941	91.13
411.15	179.2
411.358	50.18
411.567	105.47
411.775	64.51
411.984	1.02
412.192	107.52
412.401	62.46
412.609	125.95
412.818	138.24
413.026	39.94
413.234	60.42
413.443	25.6
413.651	72.7
413.86	-1.02
414.068	119.81
414.276	226.3
414.485	29.7
414.693	144.38
414.901	183.29
415.11	21.5
415.318	44.03
415.526	-31.74
415.734	134.14
415.943	82.94
416.151	183.29
416.359	33.79
416.567	109.57
416.776	128
416.984	72.7
417.192	171.01
417.4	-27.65
417.608	33.79
417.817	-54.27
418.025	99.33
418.233	222.2
418.441	-21.5
418.649	-27.65
418.857	62.46
419.065	152.57
419.273	60.42
419.481	103.42
419.689	44.03
419.897	-37.89
420.105	-39.94
420.313	123.9
420.521	168.96
420.729	142.33
420.937	17.41
421.145	31.74
421.353	84.99
421.561	168.96
421.769	23.55
421.977	48.13
422.185	156.67
422.393	19.46
422.601	111.61
422.809	44.03
423.017	15.36
423.224	64.51
423.432	87.04
423.64	-41.98
423.848	201.72
424.056	52.22
424.263	70.65
424.471	140.29
424.679	128
424.887	21.5
425.094	138.24
425.302	74.75
425.51	89.09
425.718	87.04
425.925	68.61
426.133	33.79
426.341	240.64
426.548	-15.36
426.756	119.81
426.964	105.47
427.171	31.74
427.379	50.18
427.586	103.42
427.794	132.09
428.001	144.38
428.209	179.2
428.417	209.92
428.624	211.96
428.832	177.15
429.039	113.66
429.247	156.67
429.454	99.33
429.662	310.27
429.869	248.83
430.076	123.9
430.284	195.58
430.491	232.44
430.699	103.42
430.906	279.55
431.114	117.76
431.321	203.77
431.528	136.19
431.736	105.47
431.943	97.28
432.15	236.54
432.358	234.49
432.565	365.56
432.772	58.37
432.979	283.64
433.187	150.53
433.394	259.07
433.601	142.33
433.808	281.6
434.016	263.16
434.223	244.73
434.43	236.54
434.637	300.03
434.844	283.64
435.052	259.07
435.259	420.86
435.466	308.22
435.673	332.79
435.88	265.21
436.087	437.24
436.294	371.71
436.501	379.9
436.708	371.71
436.915	357.37
437.122	357.37
437.329	310.27
437.537	470.01
437.743	484.34
437.95	433.15
438.157	455.67
438.364	302.08
438.571	443.39
438.778	584.7
438.985	510.97
439.192	580.6
439.399	576.5
439.606	568.31
439.813	666.61
440.02	787.44
440.227	668.66
440.433	654.33
440.64	666.61
440.847	621.56
441.054	687.09
441.261	814.07
441.467	705.53
441.674	683
441.881	805.88
442.088	746.48
442.294	947.19
442.501	918.51
442.708	922.61
442.914	855.03
443.121	898.03
443.328	898.03
443.534	1057.78
443.741	1090.54
443.948	982
444.154	1149.93
444.361	1270.76
444.568	1178.61
444.774	1270.76
444.981	1188.85
445.187	1410.03
445.394	1381.35
445.6	1377.26
445.807	1518.57
446.013	1487.85
446.22	1520.62
446.426	1657.83
446.633	1805.28
446.839	1993.7
447.046	1674.21
447.252	1926.11
447.459	1954.79
447.665	1999.84
447.871	2110.43
448.078	2311.13
448.284	2124.77
448.491	2368.48
448.697	2429.91
448.903	2536.41
449.11	2651.1
449.316	2591.7
449.522	2917.33
449.728	2946
449.935	2954.19
450.141	3025.87
450.347	3242.96
450.553	3253.2
450.76	3265.49
450.966	3480.52
451.172	3482.57
451.378	3752.9
451.584	3783.62
451.791	3984.32
451.997	4164.54
452.203	4019.14
452.409	4502.46
452.615	4617.15
452.821	4567.99
453.027	4551.61
453.233	5061.55
453.44	4924.34
453.646	5278.64
453.852	5481.39
454.058	5612.46
454.264	5864.36
454.47	6165.41
454.676	6249.38
454.882	6937.49
455.088	6648.73
455.294	6931.35
455.5	7140.24
455.705	7752.59
455.911	7793.55
456.117	7945.09
456.323	8276.87
456.529	8205.19
456.735	9100.15
456.941	9227.12
457.147	9524.08
457.352	9847.66
457.558	10015.59
457.764	10738.52
457.97	11041.62
458.176	11406.16
458.381	11897.67
458.587	12155.72
458.793	12682.05
458.999	12733.25
459.204	14406.44
459.41	14785.31
459.616	14689.06
459.821	15842.06
460.027	16347.91
460.233	17011.45
460.438	16780.03
460.644	17969.9
460.85	18010.86
461.055	19045.09
461.261	20103.89
461.466	19536.6
461.672	19976.91
461.878	22201.01
462.083	21711.54
462.289	22477.48
462.494	22993.57
462.7	23229.09
462.905	23605.91
463.111	25531
463.316	26995.3
463.522	27302.5
463.727	28164.69
463.932	29461.05
464.138	30134.84
464.343	31005.22
464.549	31513.12
464.754	34023.93
464.959	34589.17
465.165	35043.82
465.37	34877.93
465.575	34974.19
465.781	37312.97
465.986	38621.62
466.191	37888.45
466.397	38107.58
466.602	37214.66
466.807	39827.87
467.012	40137.12
467.218	41101.71
467.423	41283.98
467.628	42049.92
467.833	43845.99
468.038	43886.95
468.244	42799.47
468.449	44820.82
468.654	43698.53
468.859	44198.24
469.064	43876.71
469.269	43190.64
469.474	43368.81
469.679	44552.54
469.885	42979.7
470.09	44058.98
470.295	44093.79
470.5	43159.92
470.705	43264.36
470.91	41984.38
471.115	41748.87
471.32	42824.05
471.525	42295.67
471.73	41038.22
471.935	40688.02
472.139	39346.6
472.344	39514.53
472.549	38980.01
472.754	38103.48
472.959	37734.85
473.164	36303.32
473.369	35844.57
473.574	36764.11
473.778	36114.9
473.983	35385.83
474.188	35135.98
474.393	33174.02
474.598	33274.37
474.802	32252.44
475.007	32109.08
475.212	31988.25
475.417	30403.12
475.621	30345.78
475.826	30077.49
476.031	29065.8
476.235	28592.72
476.44	28617.29
476.645	28039.76
476.849	27581.02
477.054	27169.38
477.259	26313.33
477.463	26309.23
477.668	25604.73
477.872	25410.17
478.077	25115.26
478.282	24390.28
478.486	23829.14
478.691	23810.71
478.895	23810.71
479.1	23530.14
479.304	23384.73
479.509	22567.59
479.713	23040.67
479.918	22450.86
480.122	21803.7
480.326	21775.03
480.531	21680.82
480.735	21699.25
480.94	21289.66
481.144	21803.7
481.348	20691.65
481.553	20984.51
481.757	20298.44
481.961	20607.69
482.166	20871.87
482.37	20363.98
482.574	19868.37
482.778	19862.22
482.983	20216.52
483.187	19845.84
483.391	19659.48
483.595	19192.54
483.8	19063.52
484.004	19159.77
484.208	19165.92
484.412	18868.96
484.616	18758.37
484.821	18506.47
485.025	17918.7
485.229	18205.42
485.433	17588.98
485.637	17689.33
485.841	17072.89
486.045	16974.59
486.249	16980.73
486.453	16442.12
486.657	16349.96
486.861	16292.62
487.065	15713.04
487.269	15381.27
487.473	15160.09
487.677	15338.26
487.881	15104.79
488.085	14625.57
488.289	14848.8
488.493	13906.73
488.697	14164.78
488.901	13802.29
489.105	13341.49
489.309	13409.08
489.512	13151.03
489.716	12673.85
489.92	12542.78
490.124	12424
490.328	12251.97
490.531	11862.86
490.735	11672.4
490.939	11840.33
491.143	11129.69
491.346	11156.31
491.55	10900.31
491.754	10709.85
491.958	10765.15
492.161	10222.44
492.365	10367.84
492.569	10046.31
492.772	9841.51
492.976	9808.75
493.18	9683.82
493.383	9616.24
493.587	9554.8
493.79	9483.12
493.994	9036.66
494.197	9184.12
494.401	9116.53
494.605	8891.26
494.808	8936.31
495.012	8756.09
495.215	8889.21
495.419	8924.02
495.622	8594.3
495.825	8584.06
496.029	8240
496.232	8545.15
496.436	8344.45
496.639	8606.59
496.843	8223.62
497.046	8178.56
497.249	8479.61
497.453	8328.06
497.656	8057.73
497.859	8203.14
498.063	8344.45
498.266	8297.35
498.469	8270.72
498.673	8199.04
498.876	8242.05
499.079	8274.82
499.282	8336.26
499.485	8674.17
499.689	8471.42
499.892	8717.18
500.095	8432.51
500.298	8688.51
500.501	8532.86
500.705	8751.99
500.908	8743.8
501.111	8688.51
501.314	8940.41
501.517	8915.83
501.72	8852.34
501.923	8997.75
502.126	9155.44
502.329	9184.12
502.532	9458.54
502.735	9395.06
502.938	9593.71
503.141	9624.43
503.344	9778.03
503.547	10019.69
503.75	10154.85
503.953	10013.54
504.156	10357.6
504.359	10285.92
504.562	10486.62
504.765	10754.91
504.968	10697.56
505.17	10814.3
505.373	10900.31
505.576	11457.36
505.779	11295.57
505.982	11279.19
506.185	11901.77
506.387	11801.42
506.59	12192.58
506.793	12270.4
506.996	12378.95
507.198	12909.37
507.401	12864.32
507.604	13099.83
507.807	13710.13
508.009	13699.89
508.212	13959.98
508.415	14263.08
508.617	14400.29
508.82	14564.13
509.022	14805.79
509.225	15344.41
509.428	15493.91
509.63	16061.19
509.833	16108.3
510.035	16636.67
510.238	17097.47
510.44	17230.59
510.643	17650.42
510.845	18105.07
511.048	18334.44
511.25	18567.91
511.453	19114.72
511.655	19714.77
511.858	20181.71
512.06	20306.63
512.262	20886.21
512.465	20994.75
512.667	21543.61
512.87	22035.12
513.072	22639.27
513.274	23216.8
513.477	23526.04
513.679	24029.84
513.881	24758.92
514.084	25404.03
514.286	25735.8
514.488	26212.98
514.69	26989.16
514.893	26901.09
515.095	27716.19
515.297	28482.13
515.499	28887.62
515.701	29764.15
515.904	30329.39
516.106	30759.47
516.308	31240.74
516.51	32311.83
516.712	32467.47
516.914	32950.79
517.116	33827.32
517.318	34339.32
517.52	34800.11
517.722	35383.78
517.925	36037.08
518.127	36925.9
518.329	37460.42
518.531	37450.18
518.733	38320.57
518.935	39043.5
519.136	39428.52
519.338	40532.37
519.54	40933.78
519.742	41439.62
519.944	41634.18
520.146	42760.56
520.348	43084.14
520.55	43676.01
520.752	43895.14
520.954	44925.27
521.155	44818.77
521.357	45926.72
521.559	46362.94
521.761	47423.79
521.963	46805.3
522.164	47286.57
522.366	47640.87
522.568	48441.63
522.77	48724.25
522.971	49475.85
523.173	48840.98
523.375	49617.16
523.576	49447.18
523.778	49631.5
523.98	50399.49
524.181	50538.75
524.383	50196.74
524.584	51077.36
524.786	51144.95
524.988	50958.58
525.189	50721.02
525.391	51210.48
525.592	51251.44
525.794	50977.01
525.995	50563.32
526.197	50919.67
526.398	50596.09
526.6	50833.66
526.801	50534.65
527.003	50313.47
527.204	50491.65
527.406	50485.5
527.607	49918.21
527.808	50344.19
528.01	48742.68
528.211	49146.13
528.412	49342.74
528.614	48417.05
528.815	48384.29
529.016	48593.18
529.218	47292.72
529.419	47319.34
529.62	46946.61
529.822	46231.87
530.023	46031.17
530.224	46043.46
530.425	45298
530.626	44173.66
530.828	43995.49
531.029	44208.48
531.23	43430.25
531.431	42942.83
531.632	42436.98
531.833	42119.55
532.035	41744.77
532.236	41318.79
532.437	40749.46
532.638	39741.86
532.839	39575.97
533.04	39227.82
533.241	38287.8
533.442	38597.04
533.643	37870.01
533.844	37052.87
534.045	36864.46
534.246	35815.9
534.447	35621.34
534.648	35203.56
534.849	35115.5
535.05	33954.3
535.251	34083.32
535.451	33059.34
535.652	32739.85
535.853	32238.1
536.054	32420.37
536.255	31756.83
536.456	31099.43
536.657	31052.33
536.857	30261.81
537.058	29839.93
537.259	29637.18
537.46	29088.32
537.66	28711.5
537.861	28031.57
538.062	27916.89
538.263	27720.28
538.463	27322.98
538.664	27134.56
538.865	26444.4
539.065	26442.35
539.266	26018.42
539.466	25696.89
539.667	25395.84
539.868	25076.35
540.068	24640.14
540.269	24691.34
540.469	24068.75
540.67	23849.62
540.87	23640.73
541.071	23403.16
541.271	23055.01
541.472	22885.03
541.672	22428.33
541.873	22303.4
542.073	21678.77
542.274	21723.83
542.474	21541.56
542.675	21252.8
542.875	21105.34
543.075	20906.69
543.276	20345.55
543.476	20390.6
543.676	20157.13
543.877	20001.49
544.077	19417.82
544.277	19473.11
544.478	19155.68
544.678	19331.8
544.878	18875.1
545.078	18707.17
545.279	18356.97
545.479	18072.3
545.679	18064.11
545.879	17713.91
546.079	17789.68
546.28	17431.29
546.48	16952.06
546.68	17169.15
546.88	16966.4
547.08	16601.86
547.28	16386.82
547.48	16157.45
547.68	16010
547.88	15672.08
548.081	15680.27
548.281	15221.53
548.481	15317.78
548.681	14996.25
548.881	14885.66
549.081	14848.8
549.28	14269.22
549.48	14238.5
549.68	14332.71
549.88	13964.07
550.08	13660.98
550.28	13521.71
550.48	13325.11
550.68	13124.41
550.88	12921.66
551.08	12653.37
551.279	12645.18
551.479	12237.64
551.679	12634.94
551.879	11879.24
552.079	11918.15
552.278	11721.55
552.478	11737.93
552.678	11506.51
552.878	11207.51
553.077	11033.43
553.277	10797.92
553.477	10945.37
553.676	10556.25
553.876	10390.37
554.076	10195.81
554.275	10011.5
554.475	9708.4
554.674	9767.79
554.874	9696.11
555.074	9286.51
555.273	9393.01
555.473	9243.51
555.672	9012.09
555.872	8885.11
556.071	8735.61
556.271	8684.41
556.47	8280.96
556.67	8250.24
556.869	8244.1
557.068	7953.29
557.268	7789.45
557.467	7875.46
557.667	7760.78
557.866	7562.12
558.065	7369.62
558.265	7213.97
558.464	7199.63
558.663	7148.43
558.863	6929.3
559.062	6890.39
559.261	6691.74
559.461	6658.97
559.66	6523.8
559.859	6405.02
560.058	6423.45
560.258	6284.19
560.457	6142.88
560.656	6183.84
560.855	5946.28
561.054	6034.34
561.253	5835.69
561.453	5753.77
561.652	5647.27
561.851	5745.58
562.05	5415.85
562.249	5012.4
562.448	5432.24
562.647	5055.41
562.846	5084.08
563.045	5106.61
563.244	4871.09
563.443	4963.25
563.642	4854.71
563.841	4676.54
564.04	4846.52
564.239	4717.5
564.438	4494.27
564.637	4441.02
564.836	4430.78
565.035	4418.49
565.234	4230.08
565.432	4357.05
565.631	4109.25
565.83	4172.74
566.029	4019.14
566.228	3967.94
566.427	3896.26
566.625	3822.53
566.824	3920.84
567.023	3826.63
567.222	3697.61
567.42	3494.86
567.619	3406.8
567.818	3591.11
568.016	3617.74
568.215	3439.56
568.414	3443.66
568.612	3449.8
568.811	3318.73
569.01	3279.82
569.208	3185.62
569.407	3142.61
569.605	3158.99
569.804	3034.07
570.002	3171.28
570.201	2984.91
570.4	3054.55
570.598	2933.72
570.797	3011.54
570.995	2857.94
571.193	2843.6
571.392	2636.76
571.59	2653.14
571.789	2669.53
571.987	2687.96
572.186	2720.73
572.384	2403.29
572.582	2620.38
572.781	2663.38
572.979	2401.24
573.177	2438.11
573.376	2331.61
573.574	2388.96
573.772	2434.01
573.971	2309.08
574.169	2122.72
574.367	2208.73
574.565	2241.5
574.763	2214.88
574.962	2073.57
575.16	2059.23
575.358	2048.99
575.556	1987.55
575.754	1995.75
575.952	1993.7
576.151	1915.87
576.349	1944.55
576.547	1799.14
576.745	1868.77
576.943	1860.58
577.141	1758.18
577.339	1641.45
577.537	1733.61
577.735	1803.24
577.933	1833.96
578.131	1496.04
578.329	1739.75
578.527	1645.54
578.725	1606.63
578.923	1465.32
579.121	1586.15
579.319	1344.49
579.516	1453.03
579.714	1653.73
579.912	1524.71
580.11	1319.92
580.308	1442.79
580.506	1373.16
580.704	1244.14
580.901	1209.33
581.099	1428.46
581.297	1420.27
581.495	1289.2
581.692	1231.85
581.89	1350.64
582.088	1188.85
582.285	1147.89
582.483	1111.02
582.681	1119.21
582.878	1164.27
583.076	1176.56
583.274	1070.06
583.471	1250.28
583.669	1059.82
583.866	1022.96
584.064	1049.58
584.262	1029.1
584.459	1131.5
584.657	1010.67
584.854	1139.69
585.052	1072.11
585.249	1035.25
585.447	1004.53
585.644	883.7
585.841	994.29
586.039	922.61
586.236	986.1
586.434	791.54
586.631	850.93
586.828	832.5
587.026	787.44
587.223	779.25
587.42	803.83
587.618	857.07
587.815	975.86
588.012	855.03
588.21	791.54
588.407	869.36
588.604	785.4
588.801	812.02
588.999	732.15
589.196	865.27
589.393	719.86
589.59	873.46
589.787	678.9
589.984	812.02
590.182	865.27
590.379	586.74
590.576	748.53
590.773	711.67
590.97	752.63
591.167	705.53
591.364	726
591.561	633.85
591.758	852.98
591.955	736.24
592.152	773.11
592.349	717.81
592.546	660.47
592.743	613.37
592.94	656.37
593.137	809.97
593.334	801.78
593.531	750.58
593.727	713.72
593.924	687.09
594.121	654.33
594.318	699.38
594.515	740.34
594.712	828.4
594.908	873.46
595.105	625.65
595.302	789.49
595.499	871.41
595.696	830.45
595.892	760.82
596.089	912.37
596.286	865.27
596.482	904.18
596.679	908.27
596.876	797.68
597.072	1010.67
597.269	916.47
597.466	838.64
597.662	961.52
597.859	1002.48
598.055	1037.3
598.252	1149.93
598.448	1160.17
598.645	1188.85
598.841	1178.61
599.038	1446.89
599.234	1418.22
599.431	1334.25
599.627	1440.75
599.824	1502.19
600.02	1506.28
600.217	1569.77
600.413	1631.21
600.609	1645.54
600.806	1909.73
601.002	1917.92
601.198	1793
601.395	1997.79
601.591	2022.37
601.787	2155.49
601.984	2221.02
602.18	2163.68
602.376	2397.15
602.572	2499.55
602.769	2597.85
602.965	2622.42
603.161	2767.83
603.357	2864.08
603.553	2905.04
603.75	2999.25
603.946	3058.64
604.142	3242.96
604.338	3371.98
604.534	3380.17
604.73	3525.58
604.926	3716.04
605.122	3861.45
605.318	3863.49
605.514	3974.08
605.71	4131.78
605.906	4279.23
606.102	4271.04
606.298	4506.56
606.494	4760.5
606.69	4948.92
606.886	4989.88
607.082	5000.12
607.278	5239.73
607.474	5288.88
607.67	5534.64
607.866	5591.98
608.062	5970.85
608.257	6020
608.453	6046.63
608.649	6288.29
608.845	6501.28
609.041	6542.24
609.236	6820.76
609.432	7080.85
609.628	7279.5
609.824	7488.4
610.019	7349.14
610.215	7861.13
610.411	8342.4
610.606	8233.86
610.802	8137.6
610.998	8881.02
611.193	9132.92
611.389	8958.84
611.584	9452.4
611.78	9481.07
611.976	9825.13
612.171	10171.24
612.367	10474.34
612.562	10437.47
612.758	10830.68
612.953	11098.97
613.149	11512.66
613.344	11570
613.539	12227.4
613.735	12534.59
613.93	12743.49
614.126	12944.19
614.321	13411.12
614.517	13972.27
614.712	14119.72
614.907	14582.56
615.103	14781.21
615.298	15082.27
615.493	15850.25
615.688	15782.67
615.884	16841.47
616.079	16724.74
616.274	17189.63
616.47	17652.47
616.665	18129.64
616.86	18543.33
617.055	18963.17
617.25	19170.01
617.445	19919.57
617.641	20056.78
617.836	21162.69
618.031	21146.3
618.226	22012.59
618.421	22567.59
618.616	23358.11
618.811	23151.26
619.006	24199.82
619.201	24220.3
619.396	25008.77
619.591	25467.52
619.786	26493.55
619.981	26743.4
620.176	27513.44
620.371	27705.95
620.566	28547.66
620.761	29035.08
620.956	29434.43
621.151	29770.3
621.346	31216.16
621.541	30786.09
621.735	32066.07
621.93	32254.48
622.125	32946.7
622.32	33466.88
622.515	34048.5
622.709	34767.34
622.904	35576.29
623.099	36295.13
623.294	36874.7
623.488	36786.64
623.683	37968.32
623.878	38222.26
624.072	39377.32
624.267	39512.49
624.462	40282.52
624.656	40472.98
624.851	41875.84
625.046	41750.91
625.24	42862.96
625.435	42922.35
625.629	44116.32
625.824	44288.35
626.018	44951.89
626.213	44880.21
626.407	46025.03
626.602	45541.71
626.796	46606.65
626.991	47216.94
627.185	47196.46
627.38	47903.01
627.574	47989.03
627.768	48302.37
627.963	48548.12
628.157	48630.04
628.352	48998.68
628.546	48470.3
628.74	49105.17
628.935	48314.65
629.129	49256.72
629.323	48437.53
629.517	48675.1
629.712	48224.54
629.906	47946.02
630.1	47298.86
630.294	47171.89
630.489	46401.85
630.683	46100.8
630.877	44943.7
631.071	44306.78
631.265	43870.56
631.459	42965.36
631.653	42232.19
631.848	41322.89
632.042	40278.43
632.236	39467.43
632.43	38422.97
632.624	37511.62
632.818	36475.35
633.012	35326.44
633.206	34198.01
633.4	33413.63
633.594	32107.03
633.788	30861.87
633.982	29950.52
634.176	29233.73
634.369	27765.34
634.563	26595.95
634.757	25653.88
634.951	25156.22
635.145	24091.28
635.339	22958.75
635.533	22012.59
635.726	21177.02
635.92	20298.44
636.114	19657.43
636.308	18655.97
636.501	18047.72
636.695	17097.47
636.889	16593.67
637.083	15856.4
637.276	15321.88
637.47	14476.07
637.664	13884.2
637.857	13474.61
638.051	12995.39
638.244	12442.43
638.438	11758.41
638.632	11717.45
638.825	10957.66
639.019	10597.21
639.212	10099.56
639.406	9780.07
639.599	9339.76
639.793	9192.31
639.986	8586.11
640.18	8422.27
640.373	8045.45
640.567	7781.26
640.76	7353.23
640.954	7113.62
641.147	6765.46
641.34	6650.78
641.534	6372.25
641.727	6175.65
641.92	5870.5
642.114	5743.53
642.307	5409.71
642.5	5323.69
642.694	5032.88
642.887	4889.53
643.08	4905.91
643.273	4578.23
643.467	4369.34
643.66	4301.76
643.853	3912.64
644.046	3886.02
644.239	3695.56
644.432	3531.72
644.626	3384.27
644.819	3257.29
645.012	3130.32
645.205	3093.46
645.398	3056.59
645.591	2778.07
645.784	2591.7
645.977	2511.83
646.17	2548.7
646.363	2288.61
646.556	2321.37
646.749	2175.97
646.942	2204.64
647.135	2151.39
647.328	1983.46
647.521	1969.12
647.714	1956.83
647.907	1778.66
648.099	1670.12
648.292	1866.72
648.485	1604.58
648.678	1571.82
648.871	1446.89
649.064	1528.81
649.256	1287.15
649.449	1201.13
649.642	1332.2
649.835	1201.13
650.027	1094.64
650.22	1182.7
650.413	1014.77
650.605	1080.3
650.798	951.28
650.991	1006.58
651.183	951.28
651.376	986.1
651.568	984.05
651.761	850.93
651.954	922.61
652.146	836.6
652.339	836.6
652.531	793.59
652.724	605.17
652.916	723.96
653.109	553.98
653.301	726
653.494	695.29
653.686	615.41
653.879	697.33
654.071	674.81
654.263	578.55
654.456	547.83
654.648	633.85
654.84	517.11
655.033	470.01
655.225	562.17
655.417	408.57
655.61	449.53
655.802	541.69
655.994	541.69
656.186	359.42
656.379	482.3
656.571	402.43
656.763	363.51
656.955	429.05
657.148	437.24
657.34	472.06
657.532	375.8
657.724	353.27
657.916	408.57
658.108	447.48
658.3	482.3
658.492	400.38
658.684	283.64
658.876	377.85
659.068	175.1
659.26	265.21
659.452	291.84
659.644	273.4
659.836	451.58
660.028	273.4
660.22	248.83
660.412	246.78
660.604	322.56
660.796	234.49
660.988	351.23
661.18	322.56
661.372	236.54
661.563	293.88
661.755	230.4
661.947	189.44
662.139	164.86
662.331	226.3
662.522	160.77
662.714	111.61
662.906	166.91
663.097	160.77
663.289	158.72
663.481	173.05
663.673	199.68
663.864	230.4
664.056	224.25
664.247	185.34
664.439	367.61
664.631	214.01
664.822	310.27
665.014	230.4
665.205	105.47
665.397	244.73
665.588	168.96
665.78	168.96
665.971	324.6
666.163	214.01
666.354	183.29
666.546	109.57
666.737	185.34
666.929	138.24
667.12	74.75
667.311	166.91
667.503	136.19
667.694	218.11
667.885	228.35
668.077	166.91
668.268	111.61
668.459	142.33
668.651	166.91
668.842	84.99
669.033	70.65
669.224	136.19
669.416	347.13
669.607	74.75
669.798	154.62
669.989	199.68
670.18	103.42
670.371	246.78
670.563	154.62
670.754	244.73
670.945	205.82
671.136	152.57
671.327	119.81
671.518	228.35
671.709	297.98
671.9	195.58
672.091	191.49
672.282	128
672.473	125.95
672.664	115.71
672.855	218.11
673.046	216.06
673.237	228.35
673.428	175.1
673.619	195.58
673.809	158.72
674	220.16
674.191	177.15
674.382	148.48
674.573	164.86
674.764	136.19
674.954	199.68
675.145	103.42
675.336	41.98
675.527	48.13
675.717	156.67
675.908	166.91
676.099	175.1
676.289	144.38
676.48	121.85
676.671	144.38
676.861	123.9
677.052	150.53
677.243	158.72
677.433	89.09
677.624	267.26
677.814	191.49
678.005	160.77
678.195	304.12
678.386	140.29
678.576	146.43
678.767	78.85
678.957	214.01
679.148	197.63
679.338	275.45
679.529	218.11
679.719	160.77
679.909	306.17
680.1	226.3
680.29	150.53
680.481	132.09
680.671	205.82
680.861	242.68
681.052	160.77
681.242	136.19
681.432	216.06
681.622	164.86
681.813	95.23
682.003	211.96
682.193	89.09
682.383	195.58
682.573	138.24
682.764	97.28
682.954	232.44
683.144	275.45
683.334	222.2
683.524	193.53
683.714	240.64
683.904	168.96
684.094	183.29
684.284	171.01
684.474	353.27
684.664	222.2
684.854	224.25
685.044	119.81
685.234	179.2
685.424	283.64
685.614	214.01
685.804	289.79
685.994	279.55
686.184	220.16
686.374	306.17
686.564	183.29
686.753	189.44
686.943	87.04
687.133	257.02
687.323	205.82
687.513	310.27
687.702	191.49
687.892	115.71
688.082	340.99
688.272	285.69
688.461	267.26
688.651	291.84
688.841	261.12
689.03	244.73
689.22	197.63
689.41	226.3
689.599	240.64
689.789	113.66
689.979	275.45
690.168	128
690.358	179.2
690.547	214.01
690.737	195.58
690.926	269.31
691.116	263.16
691.305	285.69
691.495	162.81
691.684	130.05
691.874	179.2
692.063	160.77
692.252	234.49
692.442	220.16
692.631	93.18
692.82	162.81
693.01	224.25
693.199	267.26
693.388	99.33
693.578	224.25
693.767	226.3
693.956	318.46
694.146	199.68
694.335	236.54
694.524	152.57
694.713	285.69
694.902	130.05
695.092	134.14
695.281	279.55
695.47	240.64
695.659	134.14
695.848	177.15
696.037	105.47
696.226	236.54
696.415	214.01
696.604	248.83
696.793	277.5
696.982	117.76
697.171	351.23
697.36	121.85
697.549	132.09
697.738	113.66
697.927	179.2
698.116	97.28
698.305	191.49
698.494	207.87
698.683	162.81
698.872	361.47
699.061	60.42
699.25	123.9
699.438	203.77
699.627	152.57
699.816	261.12
700.005	107.52
700.193	50.18
700.382	216.06
700.571	171.01
700.76	175.1
700.948	193.53
701.137	203.77
701.326	259.07
701.514	84.99
701.703	164.86
701.892	195.58
702.08	369.66
702.269	119.81
702.457	72.7
702.646	164.86
702.834	162.81
703.023	189.44
703.212	261.12
703.4	246.78
703.589	117.76
703.777	128
703.965	138.24
704.154	181.25
704.342	134.14
704.531	181.25
704.719	132.09
704.907	250.88
705.096	84.99
705.284	168.96
705.472	158.72
705.661	240.64
705.849	209.92
706.037	246.78
706.226	246.78
706.414	175.1
706.602	144.38
706.79	181.25
706.979	109.57
707.167	185.34
707.355	82.94
707.543	195.58
707.731	259.07
707.919	156.67
708.107	99.33
708.296	144.38
708.484	175.1
708.672	173.05
708.86	177.15
709.048	144.38
709.236	58.37
709.424	197.63
709.612	183.29
709.8	48.13
709.988	113.66
710.176	248.83
710.364	214.01
710.551	95.23
710.739	156.67
710.927	156.67
711.115	84.99
711.303	234.49
711.491	259.07
711.679	187.39
711.866	195.58
712.054	132.09
712.242	138.24
712.43	259.07
712.617	205.82
712.805	283.64
712.993	160.77
713.181	19.46
713.368	257.02
713.556	211.96
713.744	138.24
713.931	359.42
714.119	297.98
714.306	234.49
714.494	109.57
714.682	228.35
714.869	60.42
715.057	144.38
715.244	-1.02
715.432	226.3
715.619	201.72
715.807	195.58
715.994	224.25
716.182	209.92
716.369	261.12
716.556	271.36
716.744	105.47
716.931	142.33
717.119	228.35
717.306	140.29
717.493	152.57
717.681	105.47
717.868	158.72
718.055	181.25
718.242	195.58
718.43	230.4
718.617	218.11
718.804	111.61
718.991	271.36
719.179	261.12
719.366	250.88
719.553	171.01
719.74	201.72
719.927	189.44
720.114	310.27
720.301	74.75
720.488	152.57
720.676	130.05
720.863	236.54
721.05	353.27
721.237	187.39
721.424	306.17
721.611	310.27
721.798	205.82
721.985	197.63
722.172	220.16
722.358	265.21
722.545	306.17
722.732	214.01
722.919	257.02
723.106	312.32
723.293	144.38
723.48	293.88
723.667	140.29
723.853	291.84
724.04	275.45
724.227	287.74
724.414	166.91
724.6	345.08
724.787	427
724.974	367.61
725.161	218.11
725.347	185.34
725.534	238.59
725.72	250.88
725.907	316.41
726.094	295.93
726.28	259.07
726.467	279.55
726.653	166.91
726.84	322.56
727.027	379.9
727.213	195.58
727.4	351.23
727.586	338.94
727.773	250.88
727.959	248.83
728.145	191.49
728.332	234.49
728.518	257.02
728.705	295.93
728.891	297.98
729.077	269.31
729.264	244.73
729.45	211.96
729.636	302.08
729.823	216.06
730.009	340.99
730.195	263.16
730.382	248.83
730.568	224.25
730.754	345.08
730.94	238.59
731.126	332.79
731.313	359.42
731.499	318.46
731.685	295.93
731.871	324.6
732.057	365.56
732.243	334.84
732.429	332.79
732.615	349.18
732.801	355.32
732.987	218.11
733.173	257.02
733.359	224.25
733.545	322.56
733.731	263.16
733.917	394.23
734.103	392.19
734.289	316.41
734.475	228.35
734.661	427
734.847	289.79
735.033	304.12
735.219	398.33
735.404	283.64
735.59	263.16
735.776	271.36
735.962	332.79
736.148	338.94
736.333	314.36
736.519	285.69
736.705	291.84
736.89	246.78
737.076	351.23
737.262	246.78
737.447	302.08
737.633	267.26
737.819	302.08
738.004	246.78
738.19	326.65
738.375	316.41
738.561	373.75
738.747	330.75
738.932	164.86
739.118	359.42
739.303	316.41
739.489	394.23
739.674	259.07
739.859	175.1
740.045	400.38
740.23	316.41
740.416	185.34
740.601	312.32
740.786	326.65
740.972	224.25
741.157	318.46
741.342	228.35
741.528	300.03
741.713	336.89
741.898	259.07
742.084	203.77
742.269	244.73
742.454	371.71
742.639	240.64
742.824	369.66
743.01	347.13
743.195	394.23
743.38	244.73
743.565	365.56
743.75	234.49
743.935	277.5
744.12	322.56
744.305	199.68
744.49	347.13
744.675	297.98
744.86	345.08
745.045	334.84
745.23	293.88
745.415	259.07
745.6	416.76
745.785	238.59
745.97	379.9
746.155	355.32
746.34	381.95
746.525	332.79
746.71	359.42
746.895	224.25
747.079	316.41
747.264	297.98
747.449	254.97
747.634	373.75
747.819	289.79
748.003	320.51
748.188	201.72
748.373	336.89
748.557	357.37
748.742	302.08
748.927	293.88
749.111	314.36
749.296	185.34
749.481	263.16
749.665	252.92
749.85	187.39
750.034	250.88
750.219	304.12
750.404	201.72
750.588	318.46
750.773	224.25
750.957	306.17
751.141	254.97
751.326	328.7
751.51	191.49
751.695	222.2
751.879	320.51
752.064	371.71
752.248	195.58
752.432	369.66
752.617	238.59
752.801	371.71
752.985	228.35
753.17	285.69
753.354	283.64
753.538	277.5
753.722	168.96
753.907	197.63
754.091	232.44
754.275	271.36
754.459	80.89
754.643	185.34
754.828	220.16
755.012	226.3
755.196	187.39
755.38	209.92
755.564	201.72
755.748	168.96
755.932	234.49
756.116	201.72
756.3	203.77
756.484	220.16
756.668	304.12
756.852	113.66
757.036	154.62
757.22	146.43
757.404	154.62
757.588	168.96
757.772	214.01
757.956	187.39
758.14	359.42
758.323	93.18
758.507	164.86
758.691	146.43
758.875	250.88
759.059	275.45
759.242	136.19
759.426	171.01
759.61	250.88
759.794	111.61
759.977	277.5
760.161	340.99
760.345	222.2
760.528	263.16
760.712	193.53
760.895	218.11
761.079	205.82
761.263	74.75
761.446	150.53
761.63	211.96
761.813	289.79
761.997	183.29
762.18	207.87
762.364	177.15
762.547	91.13
762.731	130.05
762.914	216.06
763.098	70.65
763.281	154.62
763.464	74.75
763.648	173.05
763.831	113.66
764.015	132.09
764.198	340.99
764.381	109.57
764.564	117.76
764.748	144.38
764.931	150.53
765.114	111.61
765.297	214.01
765.481	119.81
765.664	152.57
765.847	97.28
766.03	226.3
766.213	128
766.397	140.29
766.58	54.27
766.763	125.95
766.946	148.48
767.129	93.18
767.312	101.37
767.495	119.81
767.678	103.42
767.861	154.62
768.044	82.94
768.227	130.05
768.41	138.24
768.593	99.33
768.776	158.72
768.959	130.05
769.142	138.24
769.324	144.38
769.507	109.57
769.69	148.48
769.873	128
770.056	310.27
770.239	148.48
770.421	265.21
770.604	150.53
770.787	101.37
770.97	125.95
771.152	105.47
771.335	148.48
771.518	74.75
771.7	111.61
771.883	261.12
772.066	39.94
772.248	152.57
772.431	189.44
772.613	130.05
772.796	160.77
772.978	136.19
773.161	177.15
773.343	156.67
773.526	134.14
773.708	44.03
773.891	-72.7
774.073	121.85
774.256	84.99
774.438	209.92
774.621	50.18
774.803	181.25
774.985	37.89
775.168	201.72
775.35	113.66
775.532	70.65
775.715	35.84
775.897	117.76
776.079	91.13
776.261	117.76
776.444	80.89
776.626	76.8
776.808	115.71
776.99	64.51
777.173	123.9
777.355	33.79
777.537	103.42
777.719	48.13
777.901	39.94
778.083	21.5
778.265	107.52
778.447	111.61
778.629	54.27
778.811	134.14
778.993	130.05
779.175	123.9
779.357	134.14
779.539	35.84
779.721	46.08
779.903	64.51
780.085	33.79
780.267	105.47
780.449	35.84
780.631	107.52
780.812	179.2
780.994	60.42
781.176	68.61
781.358	50.18
781.54	95.23
781.721	97.28
781.903	158.72
782.085	39.94
782.267	93.18
782.448	35.84
782.63	-9.22
782.812	123.9
782.993	205.82
783.175	121.85
783.357	99.33
783.538	89.09
783.72	-33.79
783.901	87.04
784.083	140.29
784.264	101.37
784.446	-19.46
784.627	11.26
784.809	101.37
784.99	25.6
785.172	99.33
785.353	-5.12
785.535	111.61
785.716	-15.36
785.897	-72.7
786.079	7.17
786.26	80.89
786.441	44.03
786.623	-15.36
786.804	-29.7
786.985	93.18
787.167	84.99
787.348	33.79
787.529	66.56
787.71	189.44
787.891	74.75
788.073	11.26
788.254	-33.79
788.435	111.61
788.616	146.43
788.797	37.89
788.978	15.36
789.159	171.01
789.34	27.65
789.522	89.09
789.703	27.65
789.884	56.32
790.065	19.46
790.246	97.28
790.427	33.79
790.607	142.33
790.788	154.62
790.969	1.02
791.15	48.13
791.331	-39.94
791.512	-72.7
791.693	-11.26
791.874	33.79
792.054	207.87
792.235	72.7
792.416	-33.79
792.597	-48.13
792.778	107.52
792.958	119.81
793.139	74.75
793.32	-11.26
793.5	7.17
793.681	136.19
793.862	99.33
794.042	-15.36
794.223	-37.89
794.404	-48.13
794.584	-33.79
794.765	-25.6
794.945	37.89
795.126	168.96
795.306	140.29
795.487	54.27
795.667	72.7
795.848	66.56
796.028	-56.32
796.209	27.65
796.389	101.37
796.57	-37.89
796.75	11.26
796.93	78.85
797.111	-3.07
797.291	-25.6
797.471	60.42
797.652	99.33
797.832	-33.79
798.012	64.51
798.192	-41.98
798.373	-72.7
798.553	-113.66
798.733	78.85
798.913	-48.13
799.093	15.36
799.274	19.46
799.454	128
799.634	140.29
799.814	82.94
799.994	130.05
800.174	-1.02
800.354	97.28
800.534	-103.42
800.714	123.9
800.894	-84.99
801.074	-74.75
801.254	-25.6
801.434	93.18
801.614	3.07
801.794	13.31
801.974	1823.72
802.154	-31.74
802.334	66.56
802.514	-31.74
802.693	15.36
802.873	25.6
803.053	164.86
803.233	115.71
803.413	21.5
803.592	39.94
803.772	29.7
803.952	111.61
804.131	-84.99
804.311	68.61
804.491	74.75
804.67	-19.46
804.85	-50.18
805.03	76.8
805.209	25.6
805.389	-41.98
805.568	46.08
805.748	50.18
805.928	48.13
806.107	119.81
806.287	64.51
806.466	119.81
806.646	-37.89
806.825	-31.74
807.004	27.65
807.184	-37.89
807.363	117.76
807.543	91.13
807.722	-27.65
807.901	136.19
808.081	64.51
808.26	-103.42
808.439	72.7
808.619	-23.55
808.798	-44.03
808.977	-7.17
809.156	89.09
809.336	-29.7
809.515	1.02
809.694	-21.5
809.873	15.36
810.052	48.13
810.231	66.56
810.411	27.65
810.59	44.03
810.769	-66.56
810.948	33.79
811.127	-27.65
811.306	3.07
811.485	-13.31
811.664	228.35
811.843	91.13
812.022	62.46
812.201	21.5
812.38	76.8
812.559	17.41
812.737	111.61
812.916	-117.76
813.095	-33.79
813.274	44.03
813.453	60.42
813.632	74.75
813.811	72.7
813.989	-89.09
814.168	117.76
814.347	11.26
814.526	-44.03
814.704	111.61
814.883	27.65
815.062	13.31
815.24	107.52
815.419	-21.5
815.598	50.18
815.776	-97.28
815.955	-44.03
816.133	-95.23
816.312	-13.31
816.49	-1.02
816.669	25.6
816.847	17.41
817.026	-1.02
817.204	-68.61
817.383	31.74
817.561	5.12
817.74	82.94
817.918	48.13
818.097	37.89
818.275	-144.38
818.453	27.65
818.632	93.18
818.81	19.46
818.988	-84.99
819.167	-33.79
819.345	54.27
819.523	-23.55
819.701	15.36
819.879	25.6
820.058	-25.6
820.236	-21.5
820.414	29.7
820.592	48.13
820.77	-3.07
820.948	-44.03
821.127	-50.18
821.305	-33.79
821.483	-27.65
821.661	44.03
821.839	97.28
822.017	-50.18
822.195	-9.22
822.373	84.99
822.551	-91.13
822.729	35.84
822.907	-25.6
823.085	84.99
823.262	17.41
823.44	13.31
823.618	-13.31
823.796	13.31
823.974	-19.46
824.152	-19.46
824.329	15.36
824.507	35.84
824.685	31.74
824.863	-9.22
825.04	7.17
825.218	82.94
825.396	-48.13
825.574	-41.98
825.751	19.46
825.929	21.5
826.107	-48.13
826.284	-23.55
826.462	23.55
826.639	-19.46
826.817	-3.07
826.994	-31.74
827.172	-60.42
827.349	109.57
827.527	15.36
827.704	-29.7
827.882	46.08
828.059	46.08
828.237	-1.02
828.414	101.37
828.591	-33.79
828.769	29.7
828.946	-76.8
829.124	52.22
829.301	95.23
829.478	-54.27
829.655	1.02
829.833	50.18
830.01	-146.43
830.187	3.07
830.364	-9.22
830.542	-31.74
830.719	97.28
830.896	74.75
831.073	25.6
831.25	-3.07
831.427	21.5
831.604	1.02
831.782	-17.41
831.959	99.33
832.136	-11.26
832.313	7.17
832.49	-17.41
832.667	17.41
832.844	44.03
833.021	84.99
833.198	-41.98
833.374	115.71
833.551	84.99
833.728	-9.22
833.905	58.37
834.082	-138.24
834.259	-7.17
834.436	58.37
834.612	-64.51
834.789	95.23
834.966	87.04
835.143	48.13
835.319	-97.28
835.496	91.13
835.673	25.6
835.85	130.05
836.026	39.94
836.203	48.13
836.38	-76.8
836.556	11.26
836.733	-13.31
836.909	160.77
837.086	-21.5
837.262	-70.65
837.439	15.36
837.616	-66.56
837.792	-5.12
837.968	82.94
838.145	-80.89
838.321	-66.56
838.498	121.85
838.674	29.7
838.851	-21.5
839.027	-56.32
839.203	74.75
839.38	74.75
839.556	15.36
839.732	46.08
839.909	9.22
840.085	113.66
840.261	-44.03
840.437	11.26
840.614	-46.08
840.79	58.37
840.966	132.09
841.142	7.17
841.318	-15.36
841.494	11.26
841.671	78.85
841.847	-9.22
842.023	-48.13
842.199	-3.07
842.375	48.13
842.551	-58.37
842.727	-70.65
842.903	72.7
843.079	-50.18
843.255	54.27
843.431	-68.61
843.607	39.94
843.783	-166.91
843.959	-5.12
844.134	-97.28
844.31	132.09
844.486	23.55
844.662	-64.51
844.838	5.12
845.013	-33.79
845.189	31.74
845.365	11.26
845.541	50.18
845.716	-1.02
845.892	74.75
846.068	-27.65
846.244	-23.55
846.419	62.46
846.595	-11.26
846.77	-56.32
846.946	58.37
847.122	-80.89
847.297	-1.02
847.473	130.05
847.648	-136.19
847.824	99.33
847.999	-89.09
848.175	-27.65
848.35	39.94
848.526	46.08
848.701	48.13
848.876	48.13
849.052	58.37
849.227	-101.37
849.403	-60.42
849.578	-91.13
849.753	23.55
849.929	62.46
850.104	-76.8
850.279	-9.22
850.454	21.5
850.63	15.36
850.805	31.74
850.98	-7.17
851.155	-44.03
851.33	-11.26
851.505	-72.7
851.681	54.27
851.856	-162.81
852.031	33.79
852.206	1.02
852.381	-33.79
852.556	-56.32
852.731	39.94
852.906	-7.17
853.081	13.31
853.256	130.05
853.431	-1.02
853.606	-33.79
853.781	-27.65
853.956	-93.18
854.131	9.22
854.305	-58.37
854.48	-9.22
854.655	-31.74
854.83	-76.8
855.005	-33.79
855.18	11.26
855.354	-23.55
855.529	70.65
855.704	-37.89
855.879	9.22
856.053	-62.46
856.228	27.65
856.403	-60.42
856.577	-37.89
856.752	-101.37
856.926	-29.7
857.101	-29.7
857.276	-76.8
857.45	1.02
857.625	80.89
857.799	48.13
857.974	111.61
858.148	-105.47
858.323	21.5
858.497	21.5
858.672	-44.03
858.846	-11.26
859.02	128
859.195	-25.6
859.369	-13.31
859.543	-39.94
859.718	-5.12
859.892	19.46
860.066	1.02
860.241	-33.79
860.415	-78.85
860.589	74.75
860.763	-23.55
860.938	-7.17
861.112	66.56
861.286	-35.84
861.46	-11.26
861.634	-1.02
861.808	93.18
861.982	-33.79
862.157	-64.51
862.331	50.18
862.505	-50.18
862.679	-132.09
862.853	-95.23
863.027	-56.32
863.201	175.1
863.375	-31.74
863.549	31.74
863.722	-31.74
863.896	62.46
864.07	-31.74
864.244	52.22
864.418	46.08
864.592	3.07
864.766	-78.85
864.939	9.22
865.113	-5.12
865.287	130.05
865.461	-119.81
865.634	1.02
865.808	-48.13
865.982	-68.61
866.156	-9.22
866.329	-15.36
866.503	-21.5
866.676	19.46
866.85	23.55
867.024	31.74
867.197	-3.07
867.371	-23.55
867.544	1.02
867.718	-132.09
867.891	48.13
868.065	-99.33
868.238	-15.36
868.412	72.7
868.585	-15.36
868.759	-93.18
868.932	15.36
869.105	-31.74
869.279	48.13
869.452	11.26
869.625	50.18
869.799	-11.26
869.972	-95.23
870.145	52.22
870.319	5.12
870.492	-68.61
870.665	-84.99
870.838	-78.85
871.011	-142.33
871.185	-89.09
871.358	7.17
871.531	3.07
871.704	-17.41
871.877	25.6
872.05	-54.27
872.223	-1.02
872.396	58.37
872.569	33.79
872.742	-101.37
872.915	21.5
873.088	5.12
873.261	-121.85
873.434	1.02
873.607	48.13
873.78	41.98
873.953	-76.8
874.126	-9.22
874.299	66.56
874.471	-25.6
874.644	-60.42
874.817	44.03
874.99	134.14
875.163	-37.89
875.335	-9.22
875.508	-19.46
875.681	107.52
875.853	-64.51
876.026	31.74
876.199	113.66
876.371	1.02
876.544	-17.41
876.717	39.94
876.889	-50.18
877.062	78.85
877.234	-27.65
877.407	-82.94
877.579	-15.36
877.752	-3.07
877.924	54.27
878.097	1.02
878.269	-56.32
878.442	27.65
878.614	48.13
878.786	68.61
878.959	15.36
879.131	-95.23
879.303	-144.38
879.476	-60.42
879.648	21.5
879.82	19.46
879.993	-121.85
880.165	-19.46
880.337	-97.28
880.509	-23.55
880.681	-68.61
880.854	-89.09
881.026	-17.41
881.198	171.01
881.37	-66.56
881.542	46.08
881.714	-64.51
881.886	-82.94
882.058	-9.22
882.23	56.32
882.402	60.42
882.574	11.26
882.746	50.18
882.918	80.89
883.09	50.18
883.262	-93.18
883.434	-15.36
883.606	-107.52
883.778	-39.94
883.95	117.76
884.122	29.7
884.293	82.94
884.465	-9.22
884.637	64.51
884.809	-97.28
884.98	-35.84
885.152	3.07
885.324	72.7
885.496	39.94
885.667	-31.74
885.839	-41.98
886.011	23.55
886.182	74.75
886.354	68.61
886.525	-3.07
886.697	35.84
886.869	-64.51
887.04	52.22
887.212	87.04
887.383	164.86
887.555	37.89
887.726	-99.33
887.897	29.7
888.069	-54.27
888.24	64.51
888.412	46.08
888.583	-1.02
888.754	-19.46
888.926	-76.8
889.097	-25.6
889.268	-173.05
889.44	29.7
889.611	-41.98
889.782	-136.19
889.953	-89.09
890.125	103.42
890.296	-105.47
890.467	27.65
890.638	-50.18
890.809	-27.65
890.98	-1.02
891.151	44.03
891.323	50.18
891.494	50.18
891.665	5.12
891.836	-37.89
892.007	-62.46
892.178	9.22
892.349	-58.37
892.52	7.17
892.691	31.74
892.862	-1.02
893.032	-107.52
893.203	-72.7
893.374	68.61
893.545	56.32
893.716	5.12
893.887	17.41
894.057	-21.5
894.228	5.12
894.399	62.46
894.57	46.08
894.74	-13.31
894.911	-15.36
895.082	62.46
895.253	-134.14
895.423	39.94
895.594	37.89
895.764	33.79
895.935	-70.65
896.106	-25.6
896.276	-66.56
896.447	-7.17
896.617	-46.08
896.788	-121.85
896.958	-66.56
897.129	-25.6
897.299	-15.36
897.47	113.66
897.64	44.03
897.81	-117.76
897.981	-15.36
898.151	-60.42
898.322	29.7
898.492	7.17
898.662	-33.79
898.832	-62.46
899.003	-68.61
899.173	31.74
899.343	-72.7
899.513	-21.5
