Data from USB4F104151__106__10-35-53-525.txt Node

Date: Wed Feb 26 10:35:53 EST 2025
User: louis
Spectrometer: USB4F10415
Trigger mode: 4
Integration Time (sec): 1.000000E-1
Scans to average: 1
Electric dark correction enabled: true
Nonlinearity correction enabled: false
Boxcar width: 0
XAxis mode: Wavelengths
Number of Pixels in Spectrum: 3648
>>>>>Begin Spectral Data<<<<<
178.204	-403.96
178.424	-403.96
178.644	-403.96
178.864	-369.15
179.084	-428.54
179.304	73.21
179.524	-29.18
179.744	34.3
179.964	79.36
180.184	17.92
180.404	38.4
180.624	-49.66
180.844	-72.19
181.064	-119.29
181.283	79.36
181.503	-6.66
181.723	-45.57
181.943	-39.42
182.163	200.19
182.383	-10.75
182.602	32.26
182.822	148.99
183.042	54.78
183.262	-59.9
183.482	19.97
183.701	3.58
183.921	26.11
184.141	-59.9
184.361	38.4
184.58	19.97
184.8	32.26
185.02	30.21
185.239	83.45
185.459	110.08
185.679	161.28
185.898	-41.47
186.118	95.74
186.338	1.54
186.557	124.41
186.777	5.63
186.997	-8.7
187.216	85.5
187.436	294.4
187.655	95.74
187.875	69.12
188.095	62.98
188.314	103.93
188.534	130.56
188.753	-4.61
188.973	155.13
189.192	118.27
189.412	-29.18
189.631	46.59
189.851	32.26
190.07	30.21
190.29	15.87
190.509	19.97
190.729	44.54
190.948	167.42
191.168	265.72
191.387	44.54
191.607	36.35
191.826	79.36
192.045	-66.05
192.265	36.35
192.484	52.74
192.704	11.78
192.923	-70.14
193.142	97.79
193.362	140.8
193.581	185.85
193.8	34.3
194.02	105.98
194.239	-51.71
194.458	48.64
194.678	75.26
194.897	-12.8
195.116	60.93
195.335	81.41
195.555	130.56
195.774	120.32
195.993	95.74
196.212	26.11
196.432	52.74
196.651	-31.23
196.87	-41.47
197.089	237.05
197.308	142.85
197.528	17.92
197.747	-41.47
197.966	71.17
198.185	42.5
198.404	-20.99
198.623	222.72
198.842	132.61
199.062	148.99
199.281	148.99
199.5	77.31
199.719	136.7
199.938	75.26
200.157	89.6
200.376	146.94
200.595	120.32
200.814	-27.14
201.033	17.92
201.252	171.52
201.471	56.83
201.69	122.37
201.909	91.65
202.128	116.22
202.347	89.6
202.566	-18.94
202.785	-2.56
203.004	-6.66
203.223	263.68
203.442	130.56
203.661	-2.56
203.879	128.51
204.098	108.03
204.317	-27.14
204.536	130.56
204.755	99.84
204.974	95.74
205.193	91.65
205.411	101.89
205.63	73.21
205.849	163.33
206.068	-37.38
206.287	-16.9
206.505	218.62
206.724	71.17
206.943	73.21
207.162	5.63
207.381	122.37
207.599	-0.51
207.818	103.93
208.037	-25.09
208.255	81.41
208.474	95.74
208.693	44.54
208.911	26.11
209.13	187.9
209.349	44.54
209.567	114.17
209.786	60.93
210.005	110.08
210.223	83.45
210.442	-4.61
210.661	22.02
210.879	126.46
211.098	5.63
211.316	52.74
211.535	38.4
211.753	44.54
211.972	-4.61
212.191	-33.28
212.409	87.55
212.628	112.13
212.846	-31.23
213.065	-10.75
213.283	140.8
213.502	17.92
213.72	48.64
213.938	11.78
214.157	13.82
214.375	173.57
214.594	13.82
214.812	36.35
215.031	71.17
215.249	89.6
215.467	38.4
215.686	52.74
215.904	50.69
216.122	17.92
216.341	253.44
216.559	83.45
216.778	83.45
216.996	114.17
217.214	62.98
217.432	26.11
217.651	-27.14
217.869	44.54
218.087	-49.66
218.306	-31.23
218.524	46.59
218.742	67.07
218.96	95.74
219.179	-6.66
219.397	-10.75
219.615	171.52
219.833	112.13
220.051	-70.14
220.27	108.03
220.488	105.98
220.706	36.35
220.924	-39.42
221.142	-2.56
221.36	56.83
221.578	15.87
221.796	99.84
222.015	24.06
222.233	87.55
222.451	175.61
222.669	-31.23
222.887	97.79
223.105	17.92
223.323	54.78
223.541	-61.95
223.759	79.36
223.977	42.5
224.195	151.04
224.413	46.59
224.631	103.93
224.849	34.3
225.067	265.72
225.285	-78.33
225.503	15.87
225.721	-35.33
225.939	87.55
226.157	22.02
226.375	284.16
226.592	50.69
226.81	71.17
227.028	99.84
227.246	140.8
227.464	48.64
227.682	134.65
227.9	97.79
228.117	13.82
228.335	112.13
228.553	40.45
228.771	-12.8
228.989	19.97
229.206	93.69
229.424	34.3
229.642	1.54
229.86	11.78
230.077	126.46
230.295	95.74
230.513	130.56
230.731	79.36
230.948	126.46
231.166	95.74
231.384	-12.8
231.601	15.87
231.819	167.42
232.037	17.92
232.254	-96.77
232.472	34.3
232.689	28.16
232.907	155.13
233.125	-59.9
233.342	50.69
233.56	1.54
233.777	15.87
233.995	52.74
234.213	114.17
234.43	208.38
234.648	40.45
234.865	-47.62
235.083	122.37
235.3	42.5
235.518	142.85
235.735	140.8
235.953	-41.47
236.17	62.98
236.388	75.26
236.605	-18.94
236.822	146.94
237.04	136.7
237.257	73.21
237.475	1.54
237.692	95.74
237.909	103.93
238.127	-70.14
238.344	95.74
238.562	50.69
238.779	-43.52
238.996	-47.62
239.214	54.78
239.431	77.31
239.648	-29.18
239.865	1.54
240.083	26.11
240.3	7.68
240.517	-37.38
240.735	11.78
240.952	134.65
241.169	116.22
241.386	3.58
241.603	83.45
241.821	-23.04
242.038	99.84
242.255	126.46
242.472	-27.14
242.689	65.02
242.907	38.4
243.124	5.63
243.341	17.92
243.558	-23.04
243.775	-12.8
243.992	-35.33
244.209	32.26
244.426	239.1
244.643	50.69
244.86	3.58
245.078	97.79
245.295	140.8
245.512	77.31
245.729	-20.99
245.946	118.27
246.163	75.26
246.38	26.11
246.597	116.22
246.814	93.69
247.031	32.26
247.248	112.13
247.464	128.51
247.681	122.37
247.898	144.89
248.115	69.12
248.332	42.5
248.549	181.76
248.766	159.23
248.983	91.65
249.2	124.41
249.417	196.09
249.633	56.83
249.85	81.41
250.067	67.07
250.284	93.69
250.501	142.85
250.717	155.13
250.934	-12.8
251.151	44.54
251.368	-4.61
251.585	22.02
251.801	3.58
252.018	-59.9
252.235	140.8
252.451	-23.04
252.668	-2.56
252.885	112.13
253.102	38.4
253.318	36.35
253.535	85.5
253.752	19.97
253.968	-4.61
254.185	-64
254.401	-64
254.618	81.41
254.835	15.87
255.051	183.81
255.268	81.41
255.484	42.5
255.701	3.58
255.917	144.89
256.134	9.73
256.351	-4.61
256.567	-33.28
256.784	40.45
257	-152.06
257.217	91.65
257.433	99.84
257.65	77.31
257.866	110.08
258.082	34.3
258.299	-29.18
258.515	91.65
258.732	34.3
258.948	5.63
259.165	69.12
259.381	-57.86
259.597	5.63
259.814	-8.7
260.03	-0.51
260.246	-8.7
260.463	93.69
260.679	159.23
260.895	116.22
261.112	110.08
261.328	34.3
261.544	-41.47
261.761	151.04
261.977	89.6
262.193	-74.24
262.409	101.89
262.626	17.92
262.842	-12.8
263.058	58.88
263.274	89.6
263.49	-31.23
263.707	112.13
263.923	50.69
264.139	-64
264.355	93.69
264.571	58.88
264.787	73.21
265.004	103.93
265.22	36.35
265.436	-14.85
265.652	9.73
265.868	62.98
266.084	-27.14
266.3	67.07
266.516	52.74
266.732	42.5
266.948	77.31
267.164	42.5
267.38	155.13
267.596	87.55
267.812	153.09
268.028	75.26
268.244	44.54
268.46	69.12
268.676	-16.9
268.892	44.54
269.108	-20.99
269.324	22.02
269.54	-53.76
269.756	136.7
269.972	7.68
270.188	54.78
270.403	-72.19
270.619	58.88
270.835	159.23
271.051	58.88
271.267	-4.61
271.483	13.82
271.698	120.32
271.914	136.7
272.13	28.16
272.346	77.31
272.562	87.55
272.777	148.99
272.993	15.87
273.209	32.26
273.425	13.82
273.64	-68.09
273.856	69.12
274.072	-43.52
274.287	-0.51
274.503	105.98
274.719	85.5
274.934	-4.61
275.15	-66.05
275.366	40.45
275.581	58.88
275.797	95.74
276.012	48.64
276.228	-70.14
276.444	89.6
276.659	101.89
276.875	-39.42
277.09	19.97
277.306	46.59
277.521	116.22
277.737	42.5
277.952	108.03
278.168	32.26
278.383	71.17
278.599	22.02
278.814	32.26
279.03	15.87
279.245	136.7
279.461	1.54
279.676	128.51
279.892	-43.52
280.107	-33.28
280.322	-61.95
280.538	138.75
280.753	-14.85
280.969	24.06
281.184	24.06
281.399	105.98
281.615	101.89
281.83	79.36
282.045	-92.67
282.26	-4.61
282.476	34.3
282.691	130.56
282.906	54.78
283.122	50.69
283.337	19.97
283.552	-37.38
283.767	-8.7
283.983	105.98
284.198	54.78
284.413	19.97
284.628	-92.67
284.843	1.54
285.058	81.41
285.274	50.69
285.489	-53.76
285.704	142.85
285.919	24.06
286.134	46.59
286.349	54.78
286.564	11.78
286.779	58.88
286.995	7.68
287.21	-47.62
287.425	56.83
287.64	19.97
287.855	48.64
288.07	-41.47
288.285	142.85
288.5	122.37
288.715	134.65
288.93	32.26
289.145	-16.9
289.36	79.36
289.575	93.69
289.79	144.89
290.004	5.63
290.219	114.17
290.434	54.78
290.649	-88.57
290.864	46.59
291.079	15.87
291.294	93.69
291.509	54.78
291.724	7.68
291.938	81.41
292.153	9.73
292.368	40.45
292.583	83.45
292.798	32.26
293.012	58.88
293.227	81.41
293.442	32.26
293.657	56.83
293.871	108.03
294.086	93.69
294.301	249.34
294.516	128.51
294.73	69.12
294.945	-10.75
295.16	32.26
295.374	175.61
295.589	32.26
295.804	-16.9
296.018	36.35
296.233	130.56
296.447	67.07
296.662	7.68
296.877	153.09
297.091	9.73
297.306	19.97
297.52	28.16
297.735	58.88
297.949	5.63
298.164	38.4
298.378	122.37
298.593	-6.66
298.807	-8.7
299.022	17.92
299.236	232.96
299.451	67.07
299.665	52.74
299.88	40.45
300.094	81.41
300.309	60.93
300.523	69.12
300.737	32.26
300.952	26.11
301.166	95.74
301.381	-82.43
301.595	-6.66
301.809	128.51
302.024	-33.28
302.238	-78.33
302.452	108.03
302.667	32.26
302.881	75.26
303.095	159.23
303.309	30.21
303.524	-37.38
303.738	38.4
303.952	-35.33
304.166	122.37
304.381	-57.86
304.595	189.95
304.809	13.82
305.023	101.89
305.237	17.92
305.452	-35.33
305.666	91.65
305.88	179.71
306.094	136.7
306.308	75.26
306.522	36.35
306.736	87.55
306.95	108.03
307.164	-41.47
307.379	-25.09
307.593	71.17
307.807	97.79
308.021	101.89
308.235	-0.51
308.449	-43.52
308.663	58.88
308.877	179.71
309.091	65.02
309.305	40.45
309.519	-137.73
309.733	120.32
309.947	-90.62
310.161	73.21
310.374	91.65
310.588	95.74
310.802	3.58
311.016	28.16
311.23	69.12
311.444	7.68
311.658	-16.9
311.872	126.46
312.085	101.89
312.299	120.32
312.513	140.8
312.727	71.17
312.941	-35.33
313.154	73.21
313.368	46.59
313.582	44.54
313.796	19.97
314.009	42.5
314.223	161.28
314.437	48.64
314.651	163.33
314.864	-10.75
315.078	34.3
315.292	-0.51
315.505	5.63
315.719	112.13
315.933	87.55
316.146	11.78
316.36	-37.38
316.573	110.08
316.787	50.69
317.001	93.69
317.214	-10.75
317.428	22.02
317.641	13.82
317.855	24.06
318.068	19.97
318.282	77.31
318.495	93.69
318.709	75.26
318.922	50.69
319.136	142.85
319.349	110.08
319.563	36.35
319.776	112.13
319.99	-45.57
320.203	116.22
320.417	28.16
320.63	122.37
320.843	173.57
321.057	108.03
321.27	38.4
321.483	118.27
321.697	237.05
321.91	52.74
322.124	69.12
322.337	85.5
322.55	58.88
322.763	73.21
322.977	36.35
323.19	42.5
323.403	-59.9
323.617	79.36
323.83	67.07
324.043	-27.14
324.256	69.12
324.469	-45.57
324.683	171.52
324.896	24.06
325.109	34.3
325.322	-76.29
325.535	112.13
325.748	52.74
325.962	1.54
326.175	3.58
326.388	19.97
326.601	163.33
326.814	52.74
327.027	85.5
327.24	140.8
327.453	-43.52
327.666	120.32
327.879	122.37
328.092	89.6
328.305	58.88
328.518	15.87
328.731	93.69
328.944	26.11
329.157	99.84
329.37	-6.66
329.583	134.65
329.796	214.52
330.009	73.21
330.222	77.31
330.435	95.74
330.648	58.88
330.861	7.68
331.073	24.06
331.286	112.13
331.499	58.88
331.712	15.87
331.925	32.26
332.138	99.84
332.35	134.65
332.563	48.64
332.776	120.32
332.989	-23.04
333.202	50.69
333.414	114.17
333.627	91.65
333.84	-31.23
334.053	60.93
334.265	36.35
334.478	52.74
334.691	-51.71
334.903	62.98
335.116	13.82
335.329	26.11
335.541	56.83
335.754	95.74
335.966	32.26
336.179	15.87
336.392	24.06
336.604	-33.28
336.817	81.41
337.029	108.03
337.242	56.83
337.454	54.78
337.667	7.68
337.88	124.41
338.092	32.26
338.305	60.93
338.517	-57.86
338.729	56.83
338.942	151.04
339.154	-64
339.367	-25.09
339.579	38.4
339.792	-41.47
340.004	67.07
340.217	32.26
340.429	32.26
340.641	11.78
340.854	42.5
341.066	19.97
341.278	97.79
341.491	108.03
341.703	7.68
341.915	7.68
342.128	99.84
342.34	67.07
342.552	-82.43
342.764	56.83
342.977	46.59
343.189	157.18
343.401	46.59
343.613	9.73
343.826	-0.51
344.038	-57.86
344.25	54.78
344.462	34.3
344.674	34.3
344.886	19.97
345.099	91.65
345.311	101.89
345.523	-27.14
345.735	-37.38
345.947	44.54
346.159	50.69
346.371	22.02
346.583	-18.94
346.795	194.05
347.007	50.69
347.219	62.98
347.431	-4.61
347.643	200.19
347.855	105.98
348.067	142.85
348.279	-104.96
348.491	-6.66
348.703	126.46
348.915	69.12
349.127	19.97
349.339	79.36
349.551	73.21
349.763	38.4
349.975	5.63
350.187	75.26
350.399	124.41
350.61	151.04
350.822	-6.66
351.034	19.97
351.246	73.21
351.458	81.41
351.669	136.7
351.881	75.26
352.093	142.85
352.305	142.85
352.517	54.78
352.728	116.22
352.94	60.93
353.152	54.78
353.363	-55.81
353.575	44.54
353.787	198.14
353.999	71.17
354.21	165.37
354.422	48.64
354.633	11.78
354.845	5.63
355.057	1.54
355.268	52.74
355.48	71.17
355.692	-78.33
355.903	65.02
356.115	-66.05
356.326	-115.2
356.538	175.61
356.749	36.35
356.961	54.78
357.172	19.97
357.384	-82.43
357.595	241.15
357.807	69.12
358.018	30.21
358.23	91.65
358.441	126.46
358.653	87.55
358.864	73.21
359.075	32.26
359.287	-12.8
359.498	95.74
359.709	69.12
359.921	65.02
360.132	101.89
360.344	159.23
360.555	-39.42
360.766	62.98
360.977	54.78
361.189	71.17
361.4	-0.51
361.611	124.41
361.823	126.46
362.034	46.59
362.245	-31.23
362.456	34.3
362.667	114.17
362.879	30.21
363.09	46.59
363.301	40.45
363.512	79.36
363.723	-68.09
363.935	-31.23
364.146	95.74
364.357	77.31
364.568	103.93
364.779	5.63
364.99	124.41
365.201	36.35
365.412	142.85
365.623	-43.52
365.834	144.89
366.045	17.92
366.256	75.26
366.467	69.12
366.678	50.69
366.889	56.83
367.1	-43.52
367.311	144.89
367.522	56.83
367.733	52.74
367.944	30.21
368.155	58.88
368.366	126.46
368.577	75.26
368.788	89.6
368.999	-23.04
369.209	120.32
369.42	269.82
369.631	220.67
369.842	155.13
370.053	97.79
370.264	105.98
370.474	-45.57
370.685	52.74
370.896	-25.09
371.107	124.41
371.317	71.17
371.528	26.11
371.739	155.13
371.95	120.32
372.16	-29.18
372.371	-86.53
372.582	75.26
372.792	110.08
373.003	122.37
373.214	38.4
373.424	103.93
373.635	-49.66
373.846	87.55
374.056	134.65
374.267	48.64
374.477	44.54
374.688	-37.38
374.898	5.63
375.109	124.41
375.319	112.13
375.53	110.08
375.74	124.41
375.951	30.21
376.161	67.07
376.372	165.37
376.582	32.26
376.793	32.26
377.003	69.12
377.214	13.82
377.424	87.55
377.635	36.35
377.845	-47.62
378.055	161.28
378.266	-113.15
378.476	38.4
378.686	87.55
378.897	175.61
379.107	71.17
379.317	140.8
379.528	3.58
379.738	97.79
379.948	-25.09
380.158	108.03
380.369	101.89
380.579	89.6
380.789	11.78
380.999	69.12
381.21	81.41
381.42	181.76
381.63	42.5
381.84	93.69
382.05	22.02
382.261	108.03
382.471	110.08
382.681	-8.7
382.891	140.8
383.101	38.4
383.311	1.54
383.521	5.63
383.731	85.5
383.941	81.41
384.151	69.12
384.361	-59.9
384.571	73.21
384.781	81.41
384.991	228.86
385.201	144.89
385.411	71.17
385.621	132.61
385.831	19.97
386.041	28.16
386.251	11.78
386.461	71.17
386.671	67.07
386.881	146.94
387.091	-72.19
387.301	128.51
387.511	40.45
387.72	194.05
387.93	108.03
388.14	-82.43
388.35	13.82
388.56	108.03
388.769	93.69
388.979	24.06
389.189	-51.71
389.399	124.41
389.609	124.41
389.818	85.5
390.028	71.17
390.238	73.21
390.447	-16.9
390.657	75.26
390.867	-10.75
391.076	-39.42
391.286	44.54
391.496	11.78
391.705	-33.28
391.915	81.41
392.125	114.17
392.334	-33.28
392.544	181.76
392.753	77.31
392.963	-10.75
393.172	50.69
393.382	3.58
393.591	204.28
393.801	110.08
394.01	130.56
394.22	60.93
394.429	40.45
394.639	46.59
394.848	159.23
395.058	-2.56
395.267	79.36
395.477	77.31
395.686	138.75
395.895	159.23
396.105	189.95
396.314	155.13
396.524	69.12
396.733	75.26
396.942	171.52
397.152	73.21
397.361	183.81
397.57	5.63
397.78	46.59
397.989	122.37
398.198	210.43
398.407	138.75
398.617	81.41
398.826	-10.75
399.035	-10.75
399.244	167.42
399.453	19.97
399.663	108.03
399.872	130.56
400.081	26.11
400.29	151.04
400.499	-8.7
400.708	58.88
400.917	71.17
401.127	71.17
401.336	1.54
401.545	128.51
401.754	124.41
401.963	28.16
402.172	52.74
402.381	-107.01
402.59	-6.66
402.799	101.89
403.008	134.65
403.217	146.94
403.426	134.65
403.635	-4.61
403.844	32.26
404.053	85.5
404.262	36.35
404.471	157.18
404.68	28.16
404.888	-8.7
405.097	54.78
405.306	101.89
405.515	136.7
405.724	60.93
405.933	85.5
406.142	85.5
406.35	46.59
406.559	13.82
406.768	85.5
406.977	192
407.185	93.69
407.394	159.23
407.603	-72.19
407.812	120.32
408.02	192
408.229	36.35
408.438	54.78
408.646	26.11
408.855	44.54
409.064	116.22
409.272	34.3
409.481	7.68
409.69	24.06
409.898	5.63
410.107	85.5
410.315	202.24
410.524	-55.81
410.733	44.54
410.941	-23.04
411.15	165.37
411.358	48.64
411.567	67.07
411.775	48.64
411.984	79.36
412.192	105.98
412.401	69.12
412.609	153.09
412.818	194.05
413.026	69.12
413.234	22.02
413.443	85.5
413.651	-20.99
413.86	-53.76
414.068	148.99
414.276	151.04
414.485	-2.56
414.693	169.47
414.901	271.87
415.11	-12.8
415.318	83.45
415.526	24.06
415.734	97.79
415.943	146.94
416.151	103.93
416.359	50.69
416.567	50.69
416.776	93.69
416.984	105.98
417.192	118.27
417.4	87.55
417.608	24.06
417.817	5.63
418.025	155.13
418.233	136.7
418.441	-27.14
418.649	-12.8
418.857	101.89
419.065	169.47
419.273	-25.09
419.481	157.18
419.689	73.21
419.897	40.45
420.105	87.55
420.313	60.93
420.521	167.42
420.729	181.76
420.937	56.83
421.145	-18.94
421.353	159.23
421.561	169.47
421.769	120.32
421.977	1.54
422.185	97.79
422.393	-10.75
422.601	134.65
422.809	44.54
423.017	71.17
423.224	15.87
423.432	114.17
423.64	124.41
423.848	155.13
424.056	11.78
424.263	52.74
424.471	38.4
424.679	134.65
424.887	60.93
425.094	138.75
425.302	56.83
425.51	13.82
425.718	114.17
425.925	77.31
426.133	-25.09
426.341	282.11
426.548	-41.47
426.756	73.21
426.964	153.09
427.171	-64
427.379	28.16
427.586	28.16
427.794	163.33
428.001	157.18
428.209	93.69
428.417	126.46
428.624	185.85
428.832	144.89
429.039	-6.66
429.247	13.82
429.454	116.22
429.662	210.43
429.869	155.13
430.076	138.75
430.284	179.71
430.491	204.28
430.699	187.9
430.906	247.29
431.114	171.52
431.321	165.37
431.528	144.89
431.736	173.57
431.943	118.27
432.15	134.65
432.358	232.96
432.565	333.31
432.772	40.45
432.979	259.58
433.187	192
433.394	243.2
433.601	110.08
433.808	222.72
434.016	110.08
434.223	146.94
434.43	220.67
434.637	273.92
434.844	323.07
435.052	183.81
435.259	364.03
435.466	273.92
435.673	247.29
435.88	345.59
436.087	411.13
436.294	376.31
436.501	372.22
436.708	306.68
436.915	417.27
437.122	380.41
437.329	312.83
437.537	388.6
437.743	396.79
437.95	560.63
438.157	398.84
438.364	382.46
438.571	404.99
438.778	468.47
438.985	497.14
439.192	527.86
439.399	398.84
439.606	454.14
439.813	552.44
440.02	669.17
440.227	744.95
440.433	595.45
440.64	587.26
440.847	542.2
441.054	628.21
441.261	824.82
441.467	652.79
441.674	652.79
441.881	730.61
442.088	712.18
442.294	781.81
442.501	861.68
442.708	876.02
442.914	867.83
443.121	935.41
443.328	1017.33
443.534	1043.95
443.741	966.13
443.948	880.11
444.154	1052.14
444.361	1236.46
444.568	1113.58
444.774	1144.3
444.981	1058.29
445.187	1295.85
445.394	1236.46
445.6	1187.31
445.807	1375.72
446.013	1385.96
446.22	1396.2
446.426	1576.42
446.633	1502.7
446.839	1631.72
447.046	1596.9
447.252	1770.98
447.459	1689.06
447.665	1727.97
447.871	1910.24
448.078	2055.65
448.284	2033.12
448.491	2278.88
448.697	2158.05
448.903	2350.56
449.11	2407.9
449.316	2455
449.522	2551.26
449.728	2665.94
449.935	2809.3
450.141	2647.51
450.347	3077.59
450.553	2975.19
450.76	3134.93
450.966	3274.19
451.172	3249.61
451.378	3526.09
451.584	3431.88
451.791	3734.98
451.997	3808.71
452.203	3933.64
452.409	3888.58
452.615	4097.47
452.821	3962.31
453.027	4220.35
453.233	4744.63
453.44	4588.99
453.646	4746.68
453.852	4994.48
454.058	5279.15
454.264	5260.72
454.47	5547.44
454.676	5828.01
454.882	6380.96
455.088	5985.7
455.294	6198.69
455.5	6536.6
455.705	6806.94
455.911	6981.01
456.117	7222.67
456.323	7466.38
456.529	7507.34
456.735	8168.84
456.941	8279.43
457.147	8766.84
457.352	9178.48
457.558	9143.67
457.764	9629.04
457.97	10106.21
458.176	10499.42
458.381	11081.05
458.587	11083.09
458.793	11644.24
458.999	11785.55
459.204	13010.23
459.41	13610.29
459.616	13233.46
459.821	14312.74
460.027	14624.03
460.233	15590.67
460.438	15623.44
460.644	16631.04
460.85	16428.29
461.055	17233.15
461.261	17962.22
461.466	17609.97
461.672	18017.52
461.878	20055.25
462.083	19791.06
462.289	20401.35
462.494	21060.8
462.7	21308.6
462.905	21296.32
463.111	23260.32
463.316	24468.62
463.522	24800.39
463.727	25638.01
463.932	26958.95
464.138	27526.24
464.343	28664.91
464.549	28589.13
464.754	31015.97
464.959	31427.62
465.165	32085.01
465.37	32089.11
465.575	31929.37
465.781	34186.23
465.986	35077.1
466.191	34419.7
466.397	35214.31
466.602	34132.98
466.807	36539.35
467.012	36645.84
467.218	37055.43
467.423	37323.72
467.628	38632.37
467.833	40407.96
468.038	39949.21
468.244	38769.58
468.449	40741.78
468.654	40033.18
468.859	40115.1
469.064	40143.77
469.269	39027.63
469.474	39562.15
469.679	39926.69
469.885	39093.16
470.09	40145.82
470.295	40143.77
470.5	39080.88
470.705	39361.45
470.91	38368.18
471.115	38134.71
471.32	39078.83
471.525	38226.87
471.73	37454.79
471.935	36930.51
472.139	35290.09
472.344	35638.24
472.549	35689.44
472.754	34814.96
472.959	34135.03
473.164	32791.56
473.369	32334.87
473.574	33502.21
473.778	32685.07
473.983	31988.76
474.188	31628.32
474.393	30073.91
474.598	29789.24
474.802	29117.51
475.007	28654.67
475.212	28482.64
475.417	27366.49
475.621	27176.03
475.826	26989.67
476.031	26287.21
476.235	25689.21
476.44	26047.6
476.645	24788.1
476.849	24941.7
477.054	24272.01
477.259	24024.21
477.463	23819.41
477.668	23010.46
477.872	23207.07
478.077	22475.95
478.282	21726.39
478.486	21572.79
478.691	21341.37
478.895	21492.92
479.1	20995.26
479.304	20903.11
479.509	20376.78
479.713	20536.52
479.918	20008.14
480.122	19643.6
480.326	19840.21
480.531	19848.4
480.735	19623.12
480.94	18945.25
481.144	19627.22
481.348	18582.76
481.553	18855.14
481.757	18195.69
481.961	18513.13
482.166	18386.15
482.37	18506.98
482.574	17837.3
482.778	18048.24
482.983	18281.71
483.187	17798.38
483.391	17755.38
483.595	17403.13
483.8	17085.69
484.004	17394.93
484.208	17046.78
484.412	17044.73
484.616	16450.82
484.821	16583.94
485.025	16121.1
485.229	16332.04
485.433	16151.82
485.637	15840.53
485.841	15654.16
486.045	15349.01
486.249	15283.48
486.453	14925.08
486.657	14533.92
486.861	14568.74
487.065	14181.67
487.269	14095.66
487.473	13647.15
487.677	13845.8
487.881	13872.43
488.085	13309.24
488.289	13100.34
488.493	12744
488.697	12903.74
488.901	12297.54
489.105	12033.35
489.309	12242.25
489.512	11906.38
489.716	11529.55
489.92	11355.47
490.124	11220.31
490.328	11324.76
490.531	10683.74
490.735	10759.52
490.939	10497.38
491.143	10282.34
491.346	10040.68
491.55	10106.21
491.754	9915.75
491.958	9727.34
492.161	9555.31
492.365	9418.1
492.569	9184.63
492.772	8889.72
492.976	9088.37
493.18	8680.83
493.383	8873.34
493.587	8637.82
493.79	8623.48
493.994	8349.06
494.197	8443.26
494.401	8410.5
494.605	8088.96
494.808	8203.65
495.012	8117.64
495.215	8000.9
495.419	8189.32
495.622	7771.53
495.825	7851.4
496.029	7873.93
496.232	7918.98
496.436	7839.11
496.639	8211.84
496.843	7734.67
497.046	7878.02
497.249	7927.18
497.453	7808.39
497.656	7749
497.859	7808.39
498.063	7839.11
498.266	8013.19
498.469	7656.84
498.673	7947.65
498.876	8076.68
499.079	7804.3
499.282	8170.88
499.485	8297.86
499.689	8129.92
499.892	8387.97
500.095	8177.03
500.298	8316.29
500.501	8097.16
500.705	8668.54
500.908	8625.53
501.111	8527.23
501.314	8609.15
501.517	8850.81
501.72	9086.33
501.923	8875.38
502.126	8889.72
502.329	9315.7
502.532	9295.22
502.735	9219.44
502.938	9461.1
503.141	9655.66
503.344	9639.28
503.547	9741.68
503.75	9782.63
503.953	10077.54
504.156	10181.99
504.359	10294.63
504.562	10222.95
504.765	10812.76
504.968	10859.87
505.17	10960.22
505.373	11052.38
505.576	11474.26
505.779	11531.6
505.982	11605.33
506.185	11726.16
506.387	11994.44
506.59	12311.88
506.793	12541.25
506.996	12526.91
507.198	13169.98
507.401	13217.08
507.604	13481.27
507.807	13722.93
508.009	13899.05
508.212	14202.15
508.415	14462.24
508.617	14914.84
508.82	14976.28
509.022	14964
509.225	15715.6
509.428	16190.73
509.63	16213.26
509.833	16542.98
510.035	17040.64
510.238	17284.34
510.44	17388.79
510.643	18298.09
510.845	18539.75
511.048	18515.17
511.25	19066.08
511.453	19463.38
511.655	20511.94
511.858	20448.46
512.06	21056.7
512.262	21474.49
512.465	21443.77
512.667	22488.23
512.87	22901.92
513.072	23379.1
513.274	24009.87
513.477	24519.82
513.679	25066.63
513.881	25478.27
514.084	26252.4
514.286	26256.5
514.488	27173.99
514.69	28077.14
514.893	28417.1
515.095	28998.73
515.297	29271.11
515.499	30186.55
515.701	30637.1
515.904	31183.91
516.106	32162.84
516.308	32322.58
516.51	32926.73
516.712	33502.21
516.914	34489.33
517.116	35234.79
517.318	35685.34
517.52	36381.65
517.722	36703.18
517.925	37288.9
518.127	38278.07
518.329	39087.02
518.531	39232.43
518.733	40567.7
518.935	40799.12
519.136	41132.94
519.338	42019.71
519.54	42722.16
519.742	43625.32
519.944	43314.03
520.146	44481.37
520.348	44938.07
520.55	45415.24
520.752	45726.53
520.954	46744.37
521.155	46342.97
521.357	47639.34
521.559	48311.07
521.761	48583.45
521.963	49095.44
522.164	49687.31
522.366	49664.78
522.568	50187.01
522.77	50524.93
522.971	51688.17
523.173	51516.14
523.375	51686.12
523.576	51567.34
523.778	52183.78
523.98	52468.45
524.181	52875.99
524.383	52259.55
524.584	53306.07
524.786	53045.97
524.988	52869.85
525.189	53648.08
525.391	53758.67
525.592	53713.61
525.794	53404.37
525.995	53002.97
526.197	53119.7
526.398	53330.64
526.6	53115.61
526.801	53199.57
527.003	52935.38
527.204	52679.39
527.406	52867.8
527.607	52583.13
527.808	52519.65
528.01	51307.25
528.211	51364.59
528.412	51970.79
528.614	50920.18
528.815	50881.27
529.016	50651.9
529.218	49787.66
529.419	49806.09
529.62	49359.63
529.822	48640.79
530.023	48141.09
530.224	47899.43
530.425	47440.68
530.626	46515
530.828	45974.34
531.029	46885.68
531.23	45728.58
531.431	44899.15
531.632	44927.83
531.833	44464.99
532.035	43365.23
532.236	43295.6
532.437	42548.09
532.638	41991.04
532.839	42017.66
533.04	40956.82
533.241	40377.24
533.442	40268.7
533.643	39551.91
533.844	38890.41
534.045	38403
534.246	37882.81
534.447	37657.54
534.648	37092.3
534.849	36787.15
535.05	35898.33
535.251	35482.59
535.451	34788.33
535.652	34812.91
535.853	34122.74
536.054	33469.44
536.255	33221.64
536.456	32279.57
536.657	32748.56
536.857	31888.41
537.058	31294.5
537.259	31075.37
537.46	30778.41
537.66	30061.62
537.861	29611.07
538.062	29547.58
538.263	29049.92
538.463	28531.79
538.664	28173.39
538.865	28040.28
539.065	27876.44
539.266	27253.86
539.466	27124.83
539.667	26489.96
539.868	26549.35
540.068	26166.38
540.269	25853.05
540.469	25646.2
540.67	24958.08
540.87	24900.74
541.071	24573.07
541.271	24261.77
541.472	24269.97
541.672	23884.95
541.873	23262.37
542.073	22932.64
542.274	22903.97
542.474	22932.64
542.675	22113.45
542.875	22318.25
543.075	21945.52
543.276	21427.39
543.476	21435.58
543.676	21251.26
543.877	21144.77
544.077	20755.65
544.277	20532.42
544.478	20165.84
544.678	20221.13
544.878	19920.08
545.078	19829.97
545.279	19246.3
545.479	18959.58
545.679	18816.22
545.879	18654.44
546.079	18349.29
546.28	18181.35
546.48	17923.31
546.68	17900.78
546.88	17724.66
547.08	17464.57
547.28	16913.66
547.48	16784.64
547.68	16915.71
547.88	16585.99
548.081	16499.97
548.281	16008.46
548.481	15783.18
548.681	15822.09
548.881	15566.1
549.081	15306.01
549.28	15113.5
549.48	15320.34
549.68	14892.32
549.88	14581.03
550.08	14255.4
550.28	14071.08
550.48	14189.86
550.68	13759.79
550.88	13471.03
551.08	13432.12
551.279	13167.93
551.479	12997.95
551.679	12807.48
551.879	12801.34
552.079	12584.26
552.278	12272.96
552.478	12145.99
552.678	11838.8
552.878	11922.76
553.077	11609.42
553.277	11378
553.477	11330.9
553.676	10880.35
553.876	10847.58
554.076	10650.97
554.275	10515.81
554.475	10087.78
554.674	10323.3
554.874	9948.52
555.074	9909.61
555.273	9651.56
555.473	9682.28
555.672	9477.49
555.872	9311.6
556.071	9282.93
556.271	9188.72
556.47	8877.43
556.67	8772.99
556.869	8437.12
557.068	8336.77
557.268	8381.82
557.467	8291.71
557.667	8127.88
557.866	7875.98
558.065	7685.51
558.265	7619.98
558.464	7519.63
558.663	7388.56
558.863	7181.71
559.062	7355.79
559.261	7046.55
559.461	7064.98
559.66	6839.7
559.859	6768.02
560.058	6499.74
560.258	6331.81
560.457	6536.6
560.656	6536.6
560.855	6124.96
561.054	6110.63
561.253	6018.47
561.453	6012.32
561.652	5995.94
561.851	5871.01
562.05	5643.69
562.249	5334.45
562.448	5735.85
562.647	5289.39
562.846	5309.87
563.045	5354.93
563.244	5191.09
563.443	5176.75
563.642	4978.1
563.841	5060.02
564.04	4877.75
564.239	4750.78
564.438	4767.16
564.637	4691.38
564.836	4666.81
565.035	4754.87
565.234	4394.43
565.432	4300.22
565.631	4265.41
565.83	4275.65
566.029	4281.79
566.228	4255.17
566.427	4275.65
566.625	3943.88
566.824	3995.08
567.023	3931.59
567.222	3691.98
567.42	3835.33
567.619	3859.91
567.818	3751.37
568.016	3823.05
568.215	3655.11
568.414	3624.39
568.612	3628.49
568.811	3382.73
569.01	3392.97
569.208	3243.47
569.407	3352.01
569.605	3388.88
569.804	3261.9
570.002	3354.06
570.201	3210.7
570.4	3155.41
570.598	3055.06
570.797	3042.77
570.995	2819.54
571.193	2979.28
571.392	2868.69
571.59	2782.68
571.789	2778.58
571.987	2815.45
572.186	2883.03
572.384	2647.51
572.582	2713.05
572.781	2631.13
572.979	2336.22
573.177	2489.82
573.376	2586.07
573.574	2395.61
573.772	2475.48
573.971	2295.26
574.169	2297.31
574.367	2209.25
574.565	2256.35
574.763	2153.95
574.962	2211.29
575.16	2004.45
575.358	2033.12
575.556	2088.42
575.754	2063.84
575.952	1988.07
576.151	2031.07
576.349	1975.78
576.547	1783.27
576.745	1877.48
576.943	1969.63
577.141	1940.96
577.339	1809.89
577.537	1803.75
577.735	1850.85
577.933	1775.08
578.131	1637.86
578.329	1742.31
578.527	1570.28
578.725	1609.19
578.923	1508.84
579.121	1601
579.319	1512.94
579.516	1535.46
579.714	1768.93
579.912	1545.7
580.11	1449.45
580.308	1449.45
580.506	1392.11
580.704	1242.61
580.901	1261.04
581.099	1490.41
581.297	1345
581.495	1453.55
581.692	1181.17
581.89	1392.11
582.088	1320.43
582.285	1226.22
582.483	1095.15
582.681	1207.79
582.878	1066.48
583.076	1209.84
583.274	1238.51
583.471	1342.96
583.669	1109.49
583.866	1111.54
584.064	1062.38
584.262	1031.66
584.459	1023.47
584.657	1080.82
584.854	990.7
585.052	1021.42
585.249	1062.38
585.447	1007.09
585.644	880.11
585.841	984.56
586.039	992.75
586.236	1095.15
586.434	865.78
586.631	898.55
586.828	777.72
587.026	853.49
587.223	751.09
587.42	753.14
587.618	794.1
587.815	980.47
588.012	787.96
588.21	779.76
588.407	880.11
588.604	843.25
588.801	751.09
588.999	728.56
589.196	957.94
589.393	835.06
589.59	787.96
589.787	712.18
589.984	906.74
590.182	751.09
590.379	675.32
590.576	757.24
590.773	792.05
590.97	742.9
591.167	761.33
591.364	798.2
591.561	708.09
591.758	761.33
591.955	660.98
592.152	783.86
592.349	644.6
592.546	658.93
592.743	613.88
592.94	667.13
593.137	843.25
593.334	824.82
593.531	755.19
593.727	767.48
593.924	710.13
594.121	671.22
594.318	574.97
594.515	734.71
594.712	861.68
594.908	763.38
595.105	654.84
595.302	814.58
595.499	849.4
595.696	867.83
595.892	767.48
596.089	810.48
596.286	699.89
596.482	925.17
596.679	849.4
596.876	835.06
597.072	935.41
597.269	845.3
597.466	921.07
597.662	906.74
597.859	921.07
598.055	984.56
598.252	1101.3
598.448	1134.06
598.645	1058.29
598.841	1154.54
599.038	1195.5
599.234	1320.43
599.431	1279.47
599.627	1326.57
599.824	1410.54
600.02	1451.5
600.217	1385.96
600.413	1533.42
600.609	1533.42
600.806	1822.18
601.002	1596.9
601.198	1633.77
601.395	1869.28
601.591	1940.96
601.787	2002.4
601.984	2074.08
602.18	2080.22
602.376	2178.53
602.572	2287.07
602.769	2289.12
602.965	2409.95
603.161	2498.01
603.357	2557.4
603.553	2590.17
603.75	2684.38
603.946	2717.14
604.142	2913.75
604.338	3055.06
604.534	3044.82
604.73	3186.13
604.926	3239.37
605.122	3403.21
605.318	3466.7
605.514	3687.88
605.71	3737.03
605.906	3777.99
606.102	3810.76
606.298	4124.1
606.494	4228.54
606.69	4355.52
606.886	4365.76
607.082	4539.83
607.278	4654.52
607.474	4830.65
607.67	5035.44
607.866	4881.85
608.062	5318.06
608.257	5488.04
608.453	5572.01
608.649	5815.72
608.845	5606.83
609.041	6061.48
609.236	6057.38
609.432	6307.23
609.628	6626.71
609.824	6659.48
610.019	6700.44
610.215	6905.24
610.411	7179.67
610.606	7671.18
610.802	7695.75
610.998	7665.04
611.193	7957.89
611.389	8027.53
611.584	8144.26
611.78	8412.54
611.976	8711.55
612.171	9149.81
612.367	9401.71
612.562	9647.47
612.758	9651.56
612.953	9874.79
613.149	10423.65
613.344	10567.01
613.539	10919.26
613.735	11144.53
613.93	11449.68
614.126	11570.51
614.321	12023.11
614.517	12303.68
614.712	12703.04
614.907	12854.59
615.103	13274.42
615.298	13458.74
615.493	13866.28
615.688	14128.42
615.884	14845.21
616.079	14914.84
616.274	15365.4
616.47	15783.18
616.665	16170.25
616.86	16577.8
617.055	16862.46
617.25	17376.5
617.445	17964.27
617.641	17892.59
617.836	18676.96
618.031	18896.1
618.226	19770.58
618.421	20051.15
618.616	20778.18
618.811	20800.71
619.006	21499.06
619.201	21623.99
619.396	22410.41
619.591	22627.49
619.786	23504.03
619.981	23704.73
620.176	24663.18
620.371	25017.47
620.566	25599.1
620.761	26066.03
620.956	26889.32
621.151	26797.16
621.346	27765.85
621.541	27917.4
621.735	28828.74
621.93	28750.92
622.125	29594.68
622.32	29547.58
622.515	30710.83
622.709	31032.36
622.904	31728.67
623.099	32136.21
623.294	33373.19
623.488	33276.93
623.683	34259.96
623.878	34239.48
624.072	35091.43
624.267	35748.83
624.462	35982.3
624.656	36410.32
624.851	37231.56
625.046	37512.13
625.24	38118.33
625.435	38190.01
625.629	39109.55
625.824	39572.39
626.018	40137.63
626.213	39900.06
626.407	41202.57
626.602	40817.55
626.796	41524.1
626.991	42228.6
627.185	42144.64
627.38	43123.57
627.574	43324.27
627.768	43123.57
627.963	43225.96
628.157	43017.07
628.352	43783.01
628.546	43170.67
628.74	44258.14
628.935	43729.76
629.129	43789.16
629.323	43201.39
629.517	43408.23
629.712	42931.06
629.906	42783.6
630.1	42085.25
630.294	41845.63
630.489	41157.52
630.683	41384.84
630.877	40086.43
631.071	39816.1
631.265	38806.45
631.459	38128.57
631.653	37737.41
631.848	37030.86
632.042	36021.21
632.236	35212.26
632.43	33793.02
632.624	33711.1
632.818	32082.97
633.012	31138.85
633.206	30503.98
633.4	29324.35
633.594	28220.5
633.788	27470.94
633.982	26864.74
634.176	25631.86
634.369	24505.48
634.563	23676.05
634.757	22912.16
634.951	22310.06
635.145	21284.03
635.339	20319.43
635.533	19696.85
635.726	18709.73
635.92	17898.73
636.114	17403.13
636.308	16493.83
636.501	16080.14
636.695	15406.36
636.889	14783.77
637.083	13878.57
637.276	13417.78
637.47	12787
637.664	12328.26
637.857	11812.17
638.051	11513.17
638.244	11031.9
638.438	10499.42
638.632	10243.43
638.825	9551.21
639.019	9600.37
639.212	8936.82
639.406	8562.05
639.599	8326.53
639.793	7892.36
639.986	7626.12
640.18	7556.49
640.373	7159.19
640.567	6704.54
640.76	6567.32
640.954	6331.81
641.147	6137.25
641.34	5707.18
641.534	5684.65
641.727	5408.17
641.92	5197.23
642.114	5041.59
642.307	4832.69
642.5	4697.53
642.694	4531.64
642.887	4398.52
643.08	4279.74
643.273	4124.1
643.467	3947.97
643.66	3583.43
643.853	3442.12
644.046	3444.17
644.239	3235.28
644.432	3083.73
644.626	2958.8
644.819	2993.62
645.012	2805.21
645.205	2760.15
645.398	2731.48
645.591	2446.81
645.784	2434.52
645.977	2127.33
646.17	2170.33
646.363	2137.57
646.556	2012.64
646.749	2055.65
646.942	2020.83
647.135	1953.25
647.328	1746.41
647.521	1715.69
647.714	1672.68
647.907	1568.23
648.099	1615.34
648.292	1543.66
648.485	1408.49
648.678	1345
648.871	1263.08
649.064	1342.96
649.256	1181.17
649.449	1158.64
649.642	998.9
649.835	1060.34
650.027	968.18
650.22	992.75
650.413	1035.76
650.605	884.21
650.798	843.25
650.991	884.21
651.183	857.59
651.376	806.39
651.568	822.77
651.761	753.14
651.954	771.57
652.146	697.85
652.339	833.01
652.531	790
652.724	593.4
652.916	605.69
653.109	511.48
653.301	718.33
653.494	638.45
653.686	525.82
653.879	564.73
654.071	622.07
654.263	482.81
654.456	439.8
654.648	499.19
654.84	536.06
655.033	423.42
655.225	531.96
655.417	386.55
655.61	624.12
655.802	443.9
655.994	499.19
656.186	288.25
656.379	472.57
656.571	292.35
656.763	357.88
656.955	394.75
657.148	396.79
657.34	519.67
657.532	288.25
657.724	329.21
657.916	347.64
658.108	400.89
658.3	331.26
658.492	327.16
658.684	181.76
658.876	280.06
659.068	235
659.26	173.57
659.452	226.81
659.644	237.05
659.836	413.18
660.028	269.82
660.22	161.28
660.412	306.68
660.604	290.3
660.796	294.4
660.988	282.11
661.18	232.96
661.372	298.49
661.563	226.81
661.755	204.28
661.947	183.81
662.139	159.23
662.331	235
662.522	171.52
662.714	177.66
662.906	130.56
663.097	228.86
663.289	126.46
663.481	13.82
663.673	151.04
663.864	243.2
664.056	237.05
664.247	148.99
664.439	265.72
664.631	194.05
664.822	257.53
665.014	173.57
665.205	79.36
665.397	83.45
665.588	134.65
665.78	83.45
665.971	243.2
666.163	187.9
666.354	194.05
666.546	165.37
666.737	108.03
666.929	75.26
667.12	122.37
667.311	189.95
667.503	128.51
667.694	210.43
667.885	171.52
668.077	265.72
668.268	81.41
668.459	155.13
668.651	146.94
668.842	155.13
669.033	48.64
669.224	34.3
669.416	327.16
669.607	112.13
669.798	103.93
669.989	275.96
670.18	122.37
670.371	216.57
670.563	75.26
670.754	216.57
670.945	118.27
671.136	187.9
671.327	79.36
671.518	192
671.709	280.06
671.9	194.05
672.091	310.78
672.282	110.08
672.473	124.41
672.664	95.74
672.855	97.79
673.046	187.9
673.237	187.9
673.428	138.75
673.619	171.52
673.809	75.26
674	218.62
674.191	194.05
674.382	116.22
674.573	183.81
674.764	122.37
674.954	235
675.145	140.8
675.336	93.69
675.527	93.69
675.717	128.51
675.908	151.04
676.099	108.03
676.289	136.7
676.48	124.41
676.671	91.65
676.861	79.36
677.052	120.32
677.243	144.89
677.433	142.85
677.624	142.85
677.814	216.57
678.005	138.75
678.195	278.01
678.386	71.17
678.576	89.6
678.767	42.5
678.957	138.75
679.148	177.66
679.338	259.58
679.529	105.98
679.719	171.52
679.909	239.1
680.1	204.28
680.29	230.91
680.481	56.83
680.671	253.44
680.861	146.94
681.052	208.38
681.242	165.37
681.432	222.72
681.622	124.41
681.813	24.06
682.003	116.22
682.193	101.89
682.383	144.89
682.573	179.71
682.764	144.89
682.954	91.65
683.144	177.66
683.334	124.41
683.524	142.85
683.714	220.67
683.904	255.48
684.094	185.85
684.284	138.75
684.474	298.49
684.664	257.53
684.854	220.67
685.044	210.43
685.234	153.09
685.424	194.05
685.614	122.37
685.804	290.3
685.994	237.05
686.184	216.57
686.374	155.13
686.564	200.19
686.753	171.52
686.943	142.85
687.133	171.52
687.323	60.93
687.513	255.48
687.702	105.98
687.892	146.94
688.082	216.57
688.272	294.4
688.461	140.8
688.651	278.01
688.841	179.71
689.03	120.32
689.22	134.65
689.41	243.2
689.599	226.81
689.789	128.51
689.979	241.15
690.168	163.33
690.358	237.05
690.547	99.84
690.737	169.47
690.926	198.14
691.116	116.22
691.305	206.33
691.495	206.33
691.684	91.65
691.874	103.93
692.063	142.85
692.252	255.48
692.442	175.61
692.631	120.32
692.82	157.18
693.01	196.09
693.199	155.13
693.388	228.86
693.578	93.69
693.767	210.43
693.956	173.57
694.146	169.47
694.335	179.71
694.524	204.28
694.713	196.09
694.902	144.89
695.092	173.57
695.281	159.23
695.47	110.08
695.659	171.52
695.848	208.38
696.037	112.13
696.226	189.95
696.415	118.27
696.604	204.28
696.793	220.67
696.982	159.23
697.171	261.63
697.36	108.03
697.549	89.6
697.738	22.02
697.927	73.21
698.116	73.21
698.305	253.44
698.494	118.27
698.683	175.61
698.872	251.39
699.061	181.76
699.25	169.47
699.438	216.57
699.627	122.37
699.816	284.16
700.005	71.17
700.193	204.28
700.382	105.98
700.571	230.91
700.76	157.18
700.948	218.62
701.137	171.52
701.326	157.18
701.514	75.26
701.703	167.42
701.892	189.95
702.08	237.05
702.269	101.89
702.457	148.99
702.646	232.96
702.834	52.74
703.023	216.57
703.212	218.62
703.4	163.33
703.589	185.85
703.777	118.27
703.965	183.81
704.154	175.61
704.342	42.5
704.531	71.17
704.719	165.37
704.907	155.13
705.096	138.75
705.284	118.27
705.472	183.81
705.661	208.38
705.849	235
706.037	232.96
706.226	200.19
706.414	216.57
706.602	114.17
706.79	200.19
706.979	65.02
707.167	159.23
707.355	7.68
707.543	144.89
707.731	278.01
707.919	222.72
708.107	103.93
708.296	153.09
708.484	89.6
708.672	134.65
708.86	161.28
709.048	110.08
709.236	126.46
709.424	263.68
709.612	173.57
709.8	75.26
709.988	192
710.176	232.96
710.364	187.9
710.551	173.57
710.739	132.61
710.927	75.26
711.115	155.13
711.303	173.57
711.491	296.44
711.679	108.03
711.866	259.58
712.054	52.74
712.242	181.76
712.43	239.1
712.617	56.83
712.805	245.24
712.993	144.89
713.181	30.21
713.368	237.05
713.556	126.46
713.744	24.06
713.931	288.25
714.119	192
714.306	171.52
714.494	124.41
714.682	83.45
714.869	77.31
715.057	128.51
715.244	120.32
715.432	126.46
715.619	124.41
715.807	87.55
715.994	161.28
716.182	148.99
716.369	230.91
716.556	235
716.744	138.75
716.931	128.51
717.119	146.94
717.306	116.22
717.493	200.19
717.681	110.08
717.868	118.27
718.055	212.48
718.242	110.08
718.43	222.72
718.617	198.14
718.804	144.89
718.991	300.54
719.179	179.71
719.366	271.87
719.553	142.85
719.74	210.43
719.927	67.07
720.114	181.76
720.301	132.61
720.488	128.51
720.676	138.75
720.863	226.81
721.05	278.01
721.237	167.42
721.424	235
721.611	163.33
721.798	132.61
721.985	189.95
722.172	204.28
722.358	165.37
722.545	275.96
722.732	138.75
722.919	265.72
723.106	267.77
723.293	142.85
723.48	230.91
723.667	159.23
723.853	292.35
724.04	343.55
724.227	331.26
724.414	181.76
724.6	245.24
724.787	280.06
724.974	364.03
725.161	298.49
725.347	142.85
725.534	208.38
725.72	245.24
725.907	224.76
726.094	306.68
726.28	140.8
726.467	241.15
726.653	198.14
726.84	282.11
727.027	314.88
727.213	202.24
727.4	230.91
727.586	220.67
727.773	183.81
727.959	200.19
728.145	267.77
728.332	235
728.518	243.2
728.705	249.34
728.891	226.81
729.077	177.66
729.264	157.18
729.45	218.62
729.636	331.26
729.823	271.87
730.009	282.11
730.195	261.63
730.382	343.55
730.568	220.67
730.754	202.24
730.94	146.94
731.126	265.72
731.313	247.29
731.499	235
731.685	263.68
731.871	345.59
732.057	224.76
732.243	325.12
732.429	263.68
732.615	366.07
732.801	230.91
732.987	194.05
733.173	251.39
733.359	237.05
733.545	255.48
733.731	253.44
733.917	372.22
734.103	212.48
734.289	216.57
734.475	192
734.661	407.03
734.847	261.63
735.033	263.68
735.219	329.21
735.404	228.86
735.59	179.71
735.776	216.57
735.962	249.34
736.148	282.11
736.333	306.68
736.519	232.96
736.705	269.82
736.89	241.15
737.076	339.45
737.262	165.37
737.447	232.96
737.633	280.06
737.819	306.68
738.004	208.38
738.19	235
738.375	239.1
738.561	300.54
738.747	185.85
738.932	222.72
739.118	376.31
739.303	298.49
739.489	232.96
739.674	173.57
739.859	224.76
740.045	351.74
740.23	314.88
740.416	103.93
740.601	247.29
740.786	290.3
740.972	247.29
741.157	220.67
741.342	210.43
741.528	151.04
741.713	333.31
741.898	224.76
742.084	275.96
742.269	200.19
742.454	286.2
742.639	359.93
742.824	278.01
743.01	208.38
743.195	339.45
743.38	187.9
743.565	247.29
743.75	247.29
743.935	298.49
744.12	269.82
744.305	175.61
744.49	284.16
744.675	204.28
744.86	181.76
745.045	251.39
745.23	200.19
745.415	253.44
745.6	386.55
745.785	232.96
745.97	290.3
746.155	308.73
746.34	257.53
746.525	273.92
746.71	364.03
746.895	235
747.079	192
747.264	194.05
747.449	247.29
747.634	241.15
747.819	310.78
748.003	155.13
748.188	165.37
748.373	304.64
748.557	286.2
748.742	263.68
748.927	134.65
749.111	230.91
749.296	173.57
749.481	271.87
749.665	245.24
749.85	60.93
750.034	245.24
750.219	220.67
750.404	110.08
750.588	224.76
750.773	60.93
750.957	208.38
751.141	132.61
751.326	284.16
751.51	89.6
751.695	181.76
751.879	99.84
752.064	423.42
752.248	183.81
752.432	308.73
752.617	200.19
752.801	196.09
752.985	214.52
753.17	286.2
753.354	212.48
753.538	228.86
753.722	187.9
753.907	146.94
754.091	105.98
754.275	237.05
754.459	159.23
754.643	140.8
754.828	212.48
755.012	189.95
755.196	120.32
755.38	222.72
755.564	85.5
755.748	230.91
755.932	263.68
756.116	216.57
756.3	169.47
756.484	228.86
756.668	228.86
756.852	85.5
757.036	153.09
757.22	214.52
757.404	89.6
757.588	85.5
757.772	202.24
757.956	136.7
758.14	306.68
758.323	97.79
758.507	200.19
758.691	167.42
758.875	296.44
759.059	275.96
759.242	93.69
759.426	192
759.61	200.19
759.794	101.89
759.977	208.38
760.161	445.95
760.345	239.1
760.528	316.92
760.712	169.47
760.895	169.47
761.079	138.75
761.263	114.17
761.446	28.16
761.63	146.94
761.813	142.85
761.997	97.79
762.18	108.03
762.364	122.37
762.547	3.58
762.731	120.32
762.914	134.65
763.098	87.55
763.281	128.51
763.464	69.12
763.648	79.36
763.831	85.5
764.015	40.45
764.198	175.61
764.381	138.75
764.564	189.95
764.748	177.66
764.931	128.51
765.114	77.31
765.297	101.89
765.481	22.02
765.664	95.74
765.847	202.24
766.03	237.05
766.213	56.83
766.397	192
766.58	91.65
766.763	148.99
766.946	75.26
767.129	120.32
767.312	73.21
767.495	105.98
767.678	116.22
767.861	122.37
768.044	161.28
768.227	87.55
768.41	69.12
768.593	138.75
768.776	171.52
768.959	62.98
769.142	192
769.324	118.27
769.507	124.41
769.69	69.12
769.873	77.31
770.056	327.16
770.239	44.54
770.421	151.04
770.604	128.51
770.787	73.21
770.97	165.37
771.152	5.63
771.335	105.98
771.518	89.6
771.7	132.61
771.883	185.85
772.066	65.02
772.248	71.17
772.431	112.13
772.613	155.13
772.796	69.12
772.978	112.13
773.161	228.86
773.343	-27.14
773.526	142.85
773.708	-8.7
773.891	38.4
774.073	65.02
774.256	44.54
774.438	202.24
774.621	-0.51
774.803	93.69
774.985	-16.9
775.168	22.02
775.35	54.78
775.532	144.89
775.715	19.97
775.897	112.13
776.079	34.3
776.261	81.41
776.444	50.69
776.626	91.65
776.808	120.32
776.99	-6.66
777.173	89.6
777.355	30.21
777.537	71.17
777.719	101.89
777.901	122.37
778.083	71.17
778.265	-39.42
778.447	228.86
778.629	65.02
778.811	60.93
778.993	118.27
779.175	165.37
779.357	105.98
779.539	-25.09
779.721	48.64
779.903	44.54
780.085	46.59
780.267	71.17
780.449	155.13
780.631	126.46
780.812	194.05
780.994	69.12
781.176	60.93
781.358	24.06
781.54	101.89
781.721	136.7
781.903	136.7
782.085	52.74
782.267	95.74
782.448	-14.85
782.63	58.88
782.812	38.4
782.993	167.42
783.175	194.05
783.357	42.5
783.538	22.02
783.72	-25.09
783.901	-2.56
784.083	122.37
784.264	118.27
784.446	24.06
784.627	26.11
784.809	120.32
784.99	-0.51
785.172	159.23
785.353	67.07
785.535	79.36
785.716	5.63
785.897	-8.7
786.079	58.88
786.26	69.12
786.441	5.63
786.623	-35.33
786.804	54.78
786.985	40.45
787.167	93.69
787.348	46.59
787.529	65.02
787.71	181.76
787.891	101.89
788.073	54.78
788.254	-57.86
788.435	210.43
788.616	50.69
788.797	-23.04
788.978	7.68
789.159	-35.33
789.34	130.56
789.522	91.65
789.703	-8.7
789.884	71.17
790.065	77.31
790.246	179.71
790.427	19.97
790.607	105.98
790.788	71.17
790.969	-29.18
791.15	77.31
791.331	30.21
791.512	71.17
791.693	-33.28
791.874	-37.38
792.054	177.66
792.235	71.17
792.416	-2.56
792.597	-33.28
792.778	48.64
792.958	153.09
793.139	7.68
793.32	130.56
793.5	17.92
793.681	134.65
793.862	75.26
794.042	85.5
794.223	-94.72
794.404	-0.51
794.584	-111.1
794.765	54.78
794.945	85.5
795.126	136.7
795.306	140.8
795.487	5.63
795.667	-80.38
795.848	22.02
796.028	40.45
796.209	-37.38
796.389	34.3
796.57	7.68
796.75	62.98
796.93	-33.28
797.111	52.74
797.291	-49.66
797.471	34.3
797.652	22.02
797.832	-37.38
798.012	101.89
798.192	-74.24
798.373	-51.71
798.553	-45.57
798.733	91.65
798.913	7.68
799.093	-2.56
799.274	79.36
799.454	144.89
799.634	69.12
799.814	146.94
799.994	85.5
800.174	28.16
800.354	95.74
800.534	-70.14
800.714	34.3
800.894	-6.66
801.074	-90.62
801.254	1.54
801.434	87.55
801.614	7.68
801.794	-23.04
801.974	2041.31
802.154	-20.99
802.334	142.85
802.514	-29.18
802.693	-35.33
802.873	60.93
803.053	134.65
803.233	89.6
803.413	69.12
803.592	-25.09
803.772	-72.19
803.952	122.37
804.131	-35.33
804.311	77.31
804.491	89.6
804.67	-10.75
804.85	-16.9
805.03	24.06
805.209	124.41
805.389	-49.66
805.568	-37.38
805.748	-45.57
805.928	108.03
806.107	83.45
806.287	-0.51
806.466	67.07
806.646	-37.38
806.825	19.97
807.004	13.82
807.184	46.59
807.363	140.8
807.543	83.45
807.722	-51.71
807.901	132.61
808.081	83.45
808.26	-64
808.439	58.88
808.619	7.68
808.798	17.92
808.977	93.69
809.156	17.92
809.336	34.3
809.515	87.55
809.694	1.54
809.873	7.68
810.052	87.55
810.231	108.03
810.411	52.74
810.59	73.21
810.769	-45.57
810.948	30.21
811.127	-49.66
811.306	3.58
811.485	-41.47
811.664	161.28
811.843	-6.66
812.022	32.26
812.201	-4.61
812.38	34.3
812.559	1.54
812.737	50.69
812.916	-59.9
813.095	-117.25
813.274	15.87
813.453	-14.85
813.632	81.41
813.811	34.3
813.989	-72.19
814.168	24.06
814.347	-135.68
814.526	-49.66
814.704	87.55
814.883	91.65
815.062	-12.8
815.24	-23.04
815.419	-16.9
815.598	-4.61
815.776	-104.96
815.955	17.92
816.133	-37.38
816.312	34.3
816.49	26.11
816.669	-18.94
816.847	7.68
817.026	-12.8
817.204	26.11
817.383	-49.66
817.561	-64
817.74	-18.94
817.918	73.21
818.097	-43.52
818.275	32.26
818.453	11.78
818.632	108.03
818.81	-14.85
818.988	1.54
819.167	-33.28
819.345	26.11
819.523	-39.42
819.701	-20.99
819.879	71.17
820.058	19.97
820.236	58.88
820.414	56.83
820.592	-35.33
820.77	-8.7
820.948	-53.76
821.127	17.92
821.305	69.12
821.483	-6.66
821.661	36.35
821.839	28.16
822.017	-66.05
822.195	-2.56
822.373	58.88
822.551	26.11
822.729	67.07
822.907	19.97
823.085	124.41
823.262	67.07
823.44	-43.52
823.618	-10.75
823.796	-20.99
823.974	-37.38
824.152	-33.28
824.329	36.35
824.507	65.02
824.685	-20.99
824.863	-41.47
825.04	89.6
825.218	46.59
825.396	58.88
825.574	9.73
825.751	1.54
825.929	42.5
826.107	-68.09
826.284	-8.7
826.462	22.02
826.639	-102.91
826.817	-143.87
826.994	-61.95
827.172	-76.29
827.349	105.98
827.527	38.4
827.704	34.3
827.882	38.4
828.059	17.92
828.237	-8.7
828.414	17.92
828.591	-49.66
828.769	-37.38
828.946	-80.38
829.124	89.6
829.301	124.41
829.478	65.02
829.655	52.74
829.833	60.93
830.01	-66.05
830.187	1.54
830.364	-18.94
830.542	-61.95
830.719	134.65
830.896	85.5
831.073	26.11
831.25	67.07
831.427	44.54
831.604	-25.09
831.782	-51.71
831.959	99.84
832.136	-29.18
832.313	-0.51
832.49	-45.57
832.667	44.54
832.844	-2.56
833.021	146.94
833.198	9.73
833.374	3.58
833.551	38.4
833.728	-41.47
833.905	22.02
834.082	-156.16
834.259	71.17
834.436	187.9
834.612	-64
834.789	124.41
834.966	-10.75
835.143	-27.14
835.319	-76.29
835.496	-45.57
835.673	5.63
835.85	60.93
836.026	89.6
836.203	67.07
836.38	-4.61
836.556	36.35
836.733	-6.66
836.909	42.5
837.086	60.93
837.262	-68.09
837.439	-35.33
837.616	-33.28
837.792	-61.95
837.968	-6.66
838.145	-72.19
838.321	-8.7
838.498	-20.99
838.674	62.98
838.851	69.12
839.027	-86.53
839.203	32.26
839.38	38.4
839.556	-33.28
839.732	44.54
839.909	3.58
840.085	28.16
840.261	-68.09
840.437	-23.04
840.614	-10.75
840.79	-0.51
840.966	-8.7
841.142	-31.23
841.318	-0.51
841.494	-78.33
841.671	71.17
841.847	-25.09
842.023	1.54
842.199	89.6
842.375	114.17
842.551	-141.82
842.727	-100.86
842.903	171.52
843.079	-37.38
843.255	103.93
843.431	-6.66
843.607	1.54
843.783	-186.88
843.959	93.69
844.134	24.06
844.31	124.41
844.486	-80.38
844.662	-68.09
844.838	-2.56
845.013	32.26
845.189	40.45
845.365	48.64
845.541	-10.75
845.716	-16.9
845.892	114.17
846.068	-64
846.244	-10.75
846.419	87.55
846.595	-39.42
846.77	-90.62
846.946	75.26
847.122	17.92
847.297	15.87
847.473	163.33
847.648	-27.14
847.824	-8.7
847.999	-104.96
848.175	-31.23
848.35	54.78
848.526	48.64
848.701	32.26
848.876	142.85
849.052	95.74
849.227	34.3
849.403	95.74
849.578	-39.42
849.753	17.92
849.929	93.69
850.104	-55.81
850.279	93.69
850.454	11.78
850.63	103.93
850.805	24.06
850.98	42.5
851.155	-18.94
851.33	83.45
851.505	-82.43
851.681	99.84
851.856	-43.52
852.031	73.21
852.206	58.88
852.381	-4.61
852.556	-14.85
852.731	56.83
852.906	130.56
853.081	112.13
853.256	89.6
853.431	-29.18
853.606	-59.9
853.781	-31.23
853.956	-76.29
854.131	48.64
854.305	-45.57
854.48	-51.71
854.655	-33.28
854.83	-14.85
855.005	36.35
855.18	-12.8
855.354	-31.23
855.529	-10.75
855.704	-59.9
855.879	50.69
856.053	-41.47
856.228	-39.42
856.403	-23.04
856.577	15.87
856.752	-137.73
856.926	-8.7
857.101	28.16
857.276	-35.33
857.45	95.74
857.625	93.69
857.799	36.35
857.974	-4.61
858.148	-84.48
858.323	65.02
858.497	-2.56
858.672	-59.9
858.846	-4.61
859.02	105.98
859.195	-111.1
859.369	-37.38
859.543	1.54
859.718	3.58
859.892	56.83
860.066	17.92
860.241	-86.53
860.415	-10.75
860.589	-39.42
860.763	-25.09
860.938	-37.38
861.112	7.68
861.286	-47.62
861.46	-27.14
861.634	48.64
861.808	165.37
861.982	-20.99
862.157	-88.57
862.331	-49.66
862.505	-74.24
862.679	-113.15
862.853	-20.99
863.027	-51.71
863.201	163.33
863.375	-16.9
863.549	-68.09
863.722	42.5
863.896	81.41
864.07	-12.8
864.244	26.11
864.418	105.98
864.592	-59.9
864.766	-8.7
864.939	44.54
865.113	-74.24
865.287	122.37
865.461	-37.38
865.634	-66.05
865.808	-33.28
865.982	-109.05
866.156	-74.24
866.329	-57.86
866.503	-4.61
866.676	56.83
866.85	-25.09
867.024	-35.33
867.197	34.3
867.371	114.17
867.544	30.21
867.718	-66.05
867.891	79.36
868.065	-47.62
868.238	-68.09
868.412	38.4
868.585	97.79
868.759	-64
868.932	-61.95
869.105	-127.49
869.279	3.58
869.452	-64
869.625	54.78
869.799	28.16
869.972	-80.38
870.145	-29.18
870.319	105.98
870.492	-37.38
870.665	-20.99
870.838	-51.71
871.011	-164.35
871.185	-25.09
871.358	-47.62
871.531	13.82
871.704	-121.34
871.877	26.11
872.05	-25.09
872.223	-78.33
872.396	22.02
872.569	148.99
872.742	-41.47
872.915	60.93
873.088	-84.48
873.261	-111.1
873.434	-2.56
873.607	-104.96
873.78	136.7
873.953	-53.76
874.126	-41.47
874.299	13.82
874.471	-49.66
874.644	42.5
874.817	15.87
874.99	208.38
875.163	-23.04
875.335	-10.75
875.508	19.97
875.681	79.36
875.853	-6.66
876.026	-4.61
876.199	44.54
876.371	-47.62
876.544	-4.61
876.717	-6.66
876.889	-102.91
877.062	75.26
877.234	-4.61
877.407	-4.61
877.579	5.63
877.752	38.4
877.924	-4.61
878.097	69.12
878.269	58.88
878.442	30.21
878.614	48.64
878.786	-25.09
878.959	-0.51
879.131	46.59
879.303	-109.05
879.476	-51.71
879.648	97.79
879.82	44.54
879.993	-94.72
880.165	-41.47
880.337	-80.38
880.509	7.68
880.681	-86.53
880.854	-45.57
881.026	77.31
881.198	157.18
881.37	22.02
881.542	13.82
881.714	-31.23
881.886	17.92
882.058	-18.94
882.23	-70.14
882.402	28.16
882.574	71.17
882.746	89.6
882.918	42.5
883.09	15.87
883.262	-33.28
883.434	-59.9
883.606	-94.72
883.778	73.21
883.95	185.85
884.122	-45.57
884.293	28.16
884.465	-27.14
884.637	67.07
884.809	28.16
884.98	79.36
885.152	-0.51
885.324	38.4
885.496	-113.15
885.667	15.87
885.839	-66.05
886.011	19.97
886.182	58.88
886.354	44.54
886.525	99.84
886.697	48.64
886.869	-94.72
887.04	-20.99
887.212	50.69
887.383	171.52
887.555	-12.8
887.726	-57.86
887.897	9.73
888.069	11.78
888.24	67.07
888.412	-18.94
888.583	-23.04
888.754	-68.09
888.926	-115.2
889.097	-64
889.268	-49.66
889.44	44.54
889.611	-107.01
889.782	-23.04
889.953	11.78
890.125	122.37
890.296	-154.11
890.467	-82.43
890.638	-39.42
890.809	73.21
890.98	-84.48
891.151	36.35
891.323	79.36
891.494	-4.61
891.665	-37.38
891.836	42.5
892.007	-64
892.178	46.59
892.349	-29.18
892.52	-37.38
892.691	-23.04
892.862	-55.81
893.032	-121.34
893.203	-51.71
893.374	-41.47
893.545	93.69
893.716	-80.38
893.887	87.55
894.057	-92.67
894.228	-86.53
894.399	-39.42
894.57	128.51
894.74	17.92
894.911	-12.8
895.082	-76.29
895.253	-49.66
895.423	24.06
895.594	75.26
895.764	15.87
895.935	-94.72
896.106	105.98
896.276	-64
896.447	5.63
896.617	-100.86
896.788	-92.67
896.958	-82.43
897.129	-78.33
897.299	-45.57
897.47	151.04
897.64	46.59
897.81	11.78
897.981	30.21
898.151	-88.57
898.322	38.4
898.492	19.97
898.662	-33.28
898.832	-51.71
899.003	-109.05
899.173	112.13
899.343	-82.43
899.513	-43.52
