Data from USB4F104151__31__10-24-22-541.txt Node

Date: Wed Feb 26 10:24:22 EST 2025
User: louis
Spectrometer: USB4F10415
Trigger mode: 4
Integration Time (sec): 1.000000E-1
Scans to average: 1
Electric dark correction enabled: true
Nonlinearity correction enabled: false
Boxcar width: 0
XAxis mode: Wavelengths
Number of Pixels in Spectrum: 3648
>>>>>Begin Spectral Data<<<<<
178.204	-384.16
178.424	-384.16
178.644	-384.16
178.864	-351.4
179.084	-341.16
179.304	31.57
179.524	-21.67
179.744	39.76
179.964	-29.87
180.184	43.86
180.404	-13.48
180.624	-122.02
180.844	13.14
181.064	-21.67
181.283	56.15
181.503	-17.58
181.723	41.81
181.943	-115.88
182.163	66.39
182.383	35.67
182.602	97.11
182.822	172.88
183.042	33.62
183.262	56.15
183.482	-58.54
183.701	35.67
183.921	7
184.141	-58.54
184.361	-17.58
184.58	-31.91
184.8	29.52
185.02	0.85
185.239	119.64
185.459	60.24
185.679	172.88
185.898	-64.68
186.118	19.29
186.338	66.39
186.557	101.2
186.777	-42.15
186.997	-23.72
187.216	0.85
187.436	205.65
187.655	58.2
187.875	93.01
188.095	-40.11
188.314	88.92
188.534	95.06
188.753	13.14
188.973	107.35
189.192	80.72
189.412	-13.48
189.631	60.24
189.851	76.63
190.07	97.11
190.29	-130.22
190.509	-46.25
190.729	27.48
190.948	113.49
191.168	176.98
191.387	101.2
191.607	-60.59
191.826	72.53
192.045	-13.48
192.265	-44.2
192.484	7
192.704	68.44
192.923	25.43
193.142	174.93
193.362	142.16
193.581	162.64
193.8	2.9
194.02	103.25
194.239	78.68
194.458	43.86
194.678	58.2
194.897	41.81
195.116	50
195.335	86.87
195.555	123.73
195.774	-48.3
195.993	56.15
196.212	7
196.432	-7.34
196.651	23.38
196.87	68.44
197.089	226.13
197.308	80.72
197.528	119.64
197.747	-13.48
197.966	62.29
198.185	150.36
198.404	-33.96
198.623	90.96
198.842	162.64
199.062	39.76
199.281	50
199.5	86.87
199.719	2.9
199.938	56.15
200.157	111.44
200.376	103.25
200.595	43.86
200.814	52.05
201.033	-15.53
201.252	138.07
201.471	62.29
201.69	131.92
201.909	17.24
202.128	88.92
202.347	168.79
202.566	-52.39
202.785	-91.31
203.004	-15.53
203.223	240.47
203.442	27.48
203.661	-42.15
203.879	84.82
204.098	162.64
204.317	-42.15
204.536	25.43
204.755	66.39
204.974	50
205.193	97.11
205.411	160.59
205.63	58.2
205.849	105.3
206.068	-56.49
206.287	37.72
206.505	176.98
206.724	27.48
206.943	15.19
207.162	43.86
207.381	154.45
207.599	74.58
207.818	21.33
208.037	0.85
208.255	0.85
208.474	138.07
208.693	31.57
208.911	-17.58
209.13	105.3
209.349	115.54
209.567	109.4
209.786	129.88
210.005	52.05
210.223	-29.87
210.442	-95.4
210.661	35.67
210.879	43.86
211.098	25.43
211.316	76.63
211.535	13.14
211.753	17.24
211.972	27.48
212.191	33.62
212.409	-25.77
212.628	121.68
212.846	-25.77
213.065	93.01
213.283	121.68
213.502	52.05
213.72	0.85
213.938	68.44
214.157	29.52
214.375	142.16
214.594	15.19
214.812	35.67
215.031	52.05
215.249	56.15
215.467	-60.59
215.686	43.86
215.904	60.24
216.122	33.62
216.341	248.66
216.559	78.68
216.778	150.36
216.996	88.92
217.214	45.91
217.432	2.9
217.651	-29.87
217.869	109.4
218.087	43.86
218.306	41.81
218.524	62.29
218.742	-38.06
218.96	142.16
219.179	13.14
219.397	2.9
219.615	187.22
219.833	82.77
220.051	-17.58
220.27	70.48
220.488	84.82
220.706	76.63
220.924	31.57
221.142	23.38
221.36	13.14
221.578	136.02
221.796	31.57
222.015	-13.48
222.233	-19.63
222.451	109.4
222.669	2.9
222.887	84.82
223.105	-25.77
223.323	52.05
223.541	-64.68
223.759	33.62
223.977	-3.24
224.195	191.31
224.413	158.55
224.631	68.44
224.849	54.1
225.067	277.33
225.285	23.38
225.503	9.05
225.721	-70.83
225.939	95.06
226.157	93.01
226.375	152.4
226.592	-36.01
226.81	80.72
227.028	125.78
227.246	140.12
227.464	64.34
227.682	119.64
227.9	29.52
228.117	33.62
228.335	88.92
228.553	9.05
228.771	80.72
228.989	54.1
229.206	123.73
229.424	-74.92
229.642	-36.01
229.86	-52.39
230.077	117.59
230.295	0.85
230.513	56.15
230.731	29.52
230.948	222.03
231.166	105.3
231.384	27.48
231.601	2.9
231.819	121.68
232.037	-66.73
232.254	33.62
232.472	0.85
232.689	0.85
232.907	142.16
233.125	21.33
233.342	-13.48
233.56	-66.73
233.777	50
233.995	88.92
234.213	11.09
234.43	50
234.648	45.91
234.865	72.53
235.083	74.58
235.3	121.68
235.518	105.3
235.735	150.36
235.953	74.58
236.17	-38.06
236.388	-9.39
236.605	82.77
236.822	101.2
237.04	101.2
237.257	62.29
237.475	17.24
237.692	41.81
237.909	95.06
238.127	-23.72
238.344	76.63
238.562	50
238.779	15.19
238.996	-81.07
239.214	90.96
239.431	29.52
239.648	21.33
239.865	86.87
240.083	45.91
240.3	-7.34
240.517	56.15
240.735	-3.24
240.952	101.2
241.169	133.97
241.386	154.45
241.603	15.19
241.821	-70.83
242.038	70.48
242.255	127.83
242.472	31.57
242.689	25.43
242.907	76.63
243.124	45.91
243.341	21.33
243.558	-52.39
243.775	45.91
243.992	-31.91
244.209	86.87
244.426	256.85
244.643	13.14
244.86	56.15
245.078	60.24
245.295	99.16
245.512	70.48
245.729	-79.02
245.946	138.07
246.163	-7.34
246.38	9.05
246.597	82.77
246.814	11.09
247.031	60.24
247.248	62.29
247.464	86.87
247.681	125.78
247.898	-31.91
248.115	115.54
248.332	-54.44
248.549	164.69
248.766	131.92
248.983	43.86
249.2	21.33
249.417	0.85
249.633	33.62
249.85	117.59
250.067	13.14
250.284	21.33
250.501	66.39
250.717	56.15
250.934	-15.53
251.151	33.62
251.368	-81.07
251.585	62.29
251.801	84.82
252.018	-1.19
252.235	129.88
252.451	15.19
252.668	84.82
252.885	72.53
253.102	13.14
253.318	19.29
253.535	27.48
253.752	-33.96
253.968	45.91
254.185	-58.54
254.401	-29.87
254.618	68.44
254.835	19.29
255.051	107.35
255.268	74.58
255.484	27.48
255.701	39.76
255.917	111.44
256.134	-46.25
256.351	50
256.567	-85.16
256.784	72.53
257	-89.26
257.217	121.68
257.433	144.21
257.65	11.09
257.866	125.78
258.082	-79.02
258.299	29.52
258.515	50
258.732	-33.96
258.948	21.33
259.165	41.81
259.381	21.33
259.597	95.06
259.814	97.11
260.03	50
260.246	50
260.463	131.92
260.679	97.11
260.895	31.57
261.112	95.06
261.328	2.9
261.544	-1.19
261.761	119.64
261.977	-38.06
262.193	-52.39
262.409	64.34
262.626	56.15
262.842	35.67
263.058	45.91
263.274	15.19
263.49	56.15
263.707	78.68
263.923	76.63
264.139	-11.43
264.355	62.29
264.571	105.3
264.787	64.34
265.004	68.44
265.22	-54.44
265.436	23.38
265.652	52.05
265.868	35.67
266.084	-42.15
266.3	-7.34
266.516	-81.07
266.732	33.62
266.948	47.96
267.164	33.62
267.38	136.02
267.596	133.97
267.812	138.07
268.028	39.76
268.244	-64.68
268.46	80.72
268.676	47.96
268.892	-9.39
269.108	-29.87
269.324	-11.43
269.54	-3.24
269.756	111.44
269.972	-21.67
270.188	84.82
270.403	-21.67
270.619	-5.29
270.835	90.96
271.051	-38.06
271.267	72.53
271.483	19.29
271.698	115.54
271.914	97.11
272.13	105.3
272.346	15.19
272.562	19.29
272.777	109.4
272.993	45.91
273.209	72.53
273.425	56.15
273.64	-38.06
273.856	97.11
274.072	-33.96
274.287	56.15
274.503	127.83
274.719	125.78
274.934	60.24
275.15	-85.16
275.366	-17.58
275.581	33.62
275.797	25.43
276.012	11.09
276.228	-7.34
276.444	125.78
276.659	54.1
276.875	-36.01
277.09	56.15
277.306	15.19
277.521	37.72
277.737	-13.48
277.952	95.06
278.168	47.96
278.383	86.87
278.599	-5.29
278.814	43.86
279.03	0.85
279.245	148.31
279.461	52.05
279.676	138.07
279.892	4.95
280.107	-48.3
280.322	-46.25
280.538	93.01
280.753	74.58
280.969	27.48
281.184	90.96
281.399	193.36
281.615	31.57
281.83	31.57
282.045	-15.53
282.26	-79.02
282.476	78.68
282.691	97.11
282.906	60.24
283.122	113.49
283.337	-9.39
283.552	84.82
283.767	-33.96
283.983	113.49
284.198	2.9
284.413	131.92
284.628	-50.35
284.843	29.52
285.058	105.3
285.274	-48.3
285.489	47.96
285.704	86.87
285.919	-105.64
286.134	84.82
286.349	60.24
286.564	21.33
286.779	176.98
286.995	2.9
287.21	-56.49
287.425	136.02
287.64	41.81
287.855	62.29
288.07	-1.19
288.285	76.63
288.5	97.11
288.715	107.35
288.93	66.39
289.145	33.62
289.36	84.82
289.575	33.62
289.79	179.03
290.004	54.1
290.219	125.78
290.434	-13.48
290.649	-21.67
290.864	76.63
291.079	-101.55
291.294	21.33
291.509	25.43
291.724	37.72
291.938	-19.63
292.153	95.06
292.368	17.24
292.583	58.2
292.798	70.48
293.012	56.15
293.227	78.68
293.442	43.86
293.657	43.86
293.871	80.72
294.086	47.96
294.301	265.04
294.516	107.35
294.73	-1.19
294.945	15.19
295.16	-33.96
295.374	97.11
295.589	148.31
295.804	9.05
296.018	23.38
296.233	101.2
296.447	-7.34
296.662	-58.54
296.877	54.1
297.091	99.16
297.306	23.38
297.52	-11.43
297.735	41.81
297.949	-1.19
298.164	66.39
298.378	2.9
298.593	-44.2
298.807	-29.87
299.022	72.53
299.236	125.78
299.451	-23.72
299.665	-15.53
299.88	-15.53
300.094	101.2
300.309	4.95
300.523	29.52
300.737	-19.63
300.952	105.3
301.166	84.82
301.381	-113.83
301.595	-9.39
301.809	33.62
302.024	29.52
302.238	39.76
302.452	123.73
302.667	82.77
302.881	136.02
303.095	58.2
303.309	123.73
303.524	88.92
303.738	50
303.952	52.05
304.166	117.59
304.381	-91.31
304.595	140.12
304.809	4.95
305.023	-13.48
305.237	27.48
305.452	-27.82
305.666	41.81
305.88	62.29
306.094	183.12
306.308	123.73
306.522	187.22
306.736	154.45
306.95	97.11
307.164	35.67
307.379	-5.29
307.593	156.5
307.807	31.57
308.021	39.76
308.235	4.95
308.449	-17.58
308.663	2.9
308.877	228.18
309.091	76.63
309.305	56.15
309.519	-66.73
309.733	164.69
309.947	-64.68
310.161	105.3
310.374	111.44
310.588	99.16
310.802	0.85
311.016	35.67
311.23	74.58
311.444	29.52
311.658	13.14
311.872	84.82
312.085	150.36
312.299	86.87
312.513	125.78
312.727	88.92
312.941	-38.06
313.154	58.2
313.368	62.29
313.582	103.25
313.796	37.72
314.009	15.19
314.223	93.01
314.437	54.1
314.651	168.79
314.864	-27.82
315.078	-3.24
315.292	-62.63
315.505	52.05
315.719	19.29
315.933	105.3
316.146	25.43
316.36	0.85
316.573	107.35
316.787	90.96
317.001	21.33
317.214	-117.93
317.428	41.81
317.641	-46.25
317.855	68.44
318.068	4.95
318.282	54.1
318.495	189.27
318.709	129.88
318.922	68.44
319.136	156.5
319.349	152.4
319.563	-38.06
319.776	125.78
319.99	-33.96
320.203	50
320.417	74.58
320.63	74.58
320.843	138.07
321.057	70.48
321.27	95.06
321.483	35.67
321.697	164.69
321.91	29.52
322.124	27.48
322.337	88.92
322.55	2.9
322.763	45.91
322.977	-38.06
323.19	-21.67
323.403	35.67
323.617	54.1
323.83	133.97
324.043	7
324.256	31.57
324.469	-42.15
324.683	78.68
324.896	88.92
325.109	35.67
325.322	-83.11
325.535	154.45
325.748	82.77
325.962	-1.19
326.175	23.38
326.388	86.87
326.601	136.02
326.814	111.44
327.027	99.16
327.24	176.98
327.453	-58.54
327.666	70.48
327.879	99.16
328.092	84.82
328.305	97.11
328.518	-15.53
328.731	-9.39
328.944	47.96
329.157	33.62
329.37	70.48
329.583	222.03
329.796	117.59
330.009	-56.49
330.222	154.45
330.435	62.29
330.648	95.06
330.861	29.52
331.073	140.12
331.286	133.97
331.499	-3.24
331.712	-89.26
331.925	17.24
332.138	47.96
332.35	101.2
332.563	-25.77
332.776	74.58
332.989	-33.96
333.202	58.2
333.414	109.4
333.627	19.29
333.84	29.52
334.053	50
334.265	29.52
334.478	17.24
334.691	-5.29
334.903	74.58
335.116	17.24
335.329	19.29
335.541	144.21
335.754	205.65
335.966	-11.43
336.179	39.76
336.392	0.85
336.604	56.15
336.817	105.3
337.029	56.15
337.242	7
337.454	127.83
337.667	-15.53
337.88	193.36
338.092	37.72
338.305	68.44
338.517	-38.06
338.729	86.87
338.942	176.98
339.154	-62.63
339.367	-38.06
339.579	160.59
339.792	-46.25
340.004	23.38
340.217	2.9
340.429	66.39
340.641	9.05
340.854	-42.15
341.066	2.9
341.278	168.79
341.491	201.55
341.703	54.1
341.915	-7.34
342.128	52.05
342.34	27.48
342.552	17.24
342.764	95.06
342.977	103.25
343.189	56.15
343.401	84.82
343.613	-33.96
343.826	-1.19
344.038	7
344.25	-3.24
344.462	-17.58
344.674	99.16
344.886	2.9
345.099	-7.34
345.311	50
345.523	19.29
345.735	-64.68
345.947	7
346.159	80.72
346.371	9.05
346.583	64.34
346.795	185.17
347.007	4.95
347.219	35.67
347.431	50
347.643	189.27
347.855	-7.34
348.067	95.06
348.279	-15.53
348.491	66.39
348.703	90.96
348.915	19.29
349.127	-33.96
349.339	74.58
349.551	11.09
349.763	99.16
349.975	47.96
350.187	146.26
350.399	142.16
350.61	105.3
350.822	-56.49
351.034	121.68
351.246	99.16
351.458	17.24
351.669	70.48
351.881	7
352.093	105.3
352.305	86.87
352.517	19.29
352.728	195.41
352.94	82.77
353.152	64.34
353.363	52.05
353.575	66.39
353.787	174.93
353.999	86.87
354.21	105.3
354.422	11.09
354.633	52.05
354.845	45.91
355.057	-46.25
355.268	-1.19
355.48	58.2
355.692	-93.35
355.903	-27.82
356.115	7
356.326	-44.2
356.538	181.07
356.749	72.53
356.961	29.52
357.172	58.2
357.384	-21.67
357.595	193.36
357.807	35.67
358.018	2.9
358.23	62.29
358.441	121.68
358.653	35.67
358.864	68.44
359.075	-3.24
359.287	127.83
359.498	35.67
359.709	148.31
359.921	95.06
360.132	56.15
360.344	76.63
360.555	-1.19
360.766	7
360.977	11.09
361.189	160.59
361.4	15.19
361.611	76.63
361.823	93.01
362.034	27.48
362.245	-56.49
362.456	56.15
362.667	123.73
362.879	-13.48
363.09	66.39
363.301	52.05
363.512	-40.11
363.723	-40.11
363.935	60.24
364.146	166.74
364.357	19.29
364.568	35.67
364.779	-99.5
364.99	43.86
365.201	-29.87
365.412	160.59
365.623	-17.58
365.834	84.82
366.045	54.1
366.256	129.88
366.467	97.11
366.678	80.72
366.889	121.68
367.1	-9.39
367.311	103.25
367.522	13.14
367.733	97.11
367.944	60.24
368.155	21.33
368.366	144.21
368.577	121.68
368.788	133.97
368.999	29.52
369.209	142.16
369.42	201.55
369.631	222.03
369.842	60.24
370.053	47.96
370.264	123.73
370.474	19.29
370.685	72.53
370.896	33.62
371.107	121.68
371.317	107.35
371.528	9.05
371.739	127.83
371.95	90.96
372.16	31.57
372.371	-66.73
372.582	-42.15
372.792	88.92
373.003	144.21
373.214	103.25
373.424	97.11
373.635	-1.19
373.846	66.39
374.056	39.76
374.267	90.96
374.477	123.73
374.688	4.95
374.898	109.4
375.109	66.39
375.319	19.29
375.53	80.72
375.74	90.96
375.951	76.63
376.161	86.87
376.372	35.67
376.582	64.34
376.793	138.07
377.003	-70.83
377.214	7
377.424	23.38
377.635	13.14
377.845	62.29
378.055	158.55
378.266	-36.01
378.476	15.19
378.686	7
378.897	78.68
379.107	82.77
379.317	127.83
379.528	35.67
379.738	105.3
379.948	-74.92
380.158	101.2
380.369	39.76
380.579	101.2
380.789	-17.58
380.999	117.59
381.21	56.15
381.42	123.73
381.63	27.48
381.84	166.74
382.05	148.31
382.261	68.44
382.471	113.49
382.681	-23.72
382.891	160.59
383.101	62.29
383.311	-38.06
383.521	7
383.731	93.01
383.941	164.69
384.151	97.11
384.361	64.34
384.571	93.01
384.781	74.58
384.991	176.98
385.201	156.5
385.411	105.3
385.621	62.29
385.831	136.02
386.041	70.48
386.251	54.1
386.461	105.3
386.671	41.81
386.881	47.96
387.091	119.64
387.301	113.49
387.511	-27.82
387.72	21.33
387.93	119.64
388.14	-62.63
388.35	76.63
388.56	82.77
388.769	95.06
388.979	154.45
389.189	-3.24
389.399	33.62
389.609	117.59
389.818	93.01
390.028	35.67
390.238	66.39
390.447	-36.01
390.657	86.87
390.867	7
391.076	-87.21
391.286	43.86
391.496	21.33
391.705	11.09
391.915	82.77
392.125	72.53
392.334	41.81
392.544	113.49
392.753	-40.11
392.963	-25.77
393.172	52.05
393.382	13.14
393.591	142.16
393.801	0.85
394.01	113.49
394.22	123.73
394.429	66.39
394.639	-1.19
394.848	101.2
395.058	99.16
395.267	60.24
395.477	78.68
395.686	93.01
395.895	183.12
396.105	240.47
396.314	62.29
396.524	60.24
396.733	-1.19
396.942	84.82
397.152	101.2
397.361	156.5
397.57	68.44
397.78	19.29
397.989	129.88
398.198	189.27
398.407	25.43
398.617	50
398.826	31.57
399.035	7
399.244	103.25
399.453	-13.48
399.663	21.33
399.872	103.25
400.081	-19.63
400.29	164.69
400.499	86.87
400.708	64.34
400.917	-9.39
401.127	0.85
401.336	29.52
401.545	174.93
401.754	152.4
401.963	103.25
402.172	39.76
402.381	-58.54
402.59	25.43
402.799	123.73
403.008	119.64
403.217	72.53
403.426	97.11
403.635	-46.25
403.844	4.95
404.053	37.72
404.262	60.24
404.471	211.79
404.68	88.92
404.888	56.15
405.097	35.67
405.306	47.96
405.515	154.45
405.724	15.19
405.933	41.81
406.142	103.25
406.35	136.02
406.559	31.57
406.768	41.81
406.977	113.49
407.185	11.09
407.394	93.01
407.603	15.19
407.812	95.06
408.02	97.11
408.229	-13.48
408.438	4.95
408.646	13.14
408.855	21.33
409.064	54.1
409.272	76.63
409.481	45.91
409.69	-36.01
409.898	-122.02
410.107	11.09
410.315	133.97
410.524	47.96
410.733	66.39
410.941	19.29
411.15	68.44
411.358	142.16
411.567	125.78
411.775	37.72
411.984	25.43
412.192	78.68
412.401	-52.39
412.609	107.35
412.818	183.12
413.026	64.34
413.234	-7.34
413.443	62.29
413.651	-13.48
413.86	19.29
414.068	131.92
414.276	140.12
414.485	56.15
414.693	217.94
414.901	168.79
415.11	11.09
415.318	47.96
415.526	33.62
415.734	131.92
415.943	15.19
416.151	168.79
416.359	68.44
416.567	115.54
416.776	72.53
416.984	90.96
417.192	195.41
417.4	54.1
417.608	129.88
417.817	35.67
418.025	62.29
418.233	103.25
418.441	9.05
418.649	-33.96
418.857	103.25
419.065	219.99
419.273	19.29
419.481	23.38
419.689	13.14
419.897	-21.67
420.105	19.29
420.313	7
420.521	136.02
420.729	156.5
420.937	68.44
421.145	-7.34
421.353	138.07
421.561	131.92
421.769	-17.58
421.977	25.43
422.185	80.72
422.393	68.44
422.601	125.78
422.809	78.68
423.017	119.64
423.224	90.96
423.432	76.63
423.64	54.1
423.848	138.07
424.056	21.33
424.263	176.98
424.471	35.67
424.679	222.03
424.887	0.85
425.094	119.64
425.302	142.16
425.51	21.33
425.718	93.01
425.925	109.4
426.133	0.85
426.341	152.4
426.548	37.72
426.756	115.54
426.964	176.98
427.171	27.48
427.379	166.74
427.586	119.64
427.794	185.17
428.001	93.01
428.209	168.79
428.417	129.88
428.624	115.54
428.832	230.23
429.039	156.5
429.247	88.92
429.454	84.82
429.662	215.89
429.869	133.97
430.076	70.48
430.284	80.72
430.491	224.08
430.699	107.35
430.906	191.31
431.114	84.82
431.321	162.64
431.528	86.87
431.736	164.69
431.943	228.18
432.15	152.4
432.358	226.13
432.565	265.04
432.772	58.2
432.979	228.18
433.187	84.82
433.394	232.27
433.601	252.75
433.808	285.52
434.016	179.03
434.223	230.23
434.43	283.47
434.637	308.05
434.844	336.72
435.052	217.94
435.259	295.76
435.466	228.18
435.673	340.82
435.88	299.86
436.087	324.43
436.294	367.44
436.501	297.81
436.708	322.38
436.915	310.1
437.122	377.68
437.329	316.24
437.537	295.76
437.743	322.38
437.95	424.78
438.157	441.17
438.364	342.86
438.571	336.72
438.778	451.41
438.985	410.45
439.192	447.31
439.399	410.45
439.606	418.64
439.813	482.13
440.02	525.13
440.227	645.96
440.433	574.28
440.64	504.65
440.847	459.6
441.054	584.52
441.261	754.51
441.467	662.35
441.674	570.19
441.881	736.07
442.088	609.1
442.294	750.41
442.501	822.09
442.708	883.53
442.914	846.66
443.121	918.34
443.328	848.71
443.534	940.87
443.741	924.49
443.948	844.62
444.154	961.35
444.361	1098.56
444.568	998.21
444.774	983.88
444.981	1020.74
445.187	1198.92
445.394	1209.15
445.6	1108.8
445.807	1356.61
446.013	1319.75
446.22	1184.58
446.426	1411.9
446.633	1518.4
446.839	1725.24
447.046	1391.42
447.252	1649.47
447.459	1674.04
447.665	1596.22
447.871	1923.9
448.078	1997.62
448.284	1934.14
448.491	2011.96
448.697	2224.95
448.903	2255.67
449.11	2196.28
449.316	2198.32
449.522	2351.92
449.728	2589.49
449.935	2622.25
450.141	2581.29
450.347	2894.63
450.553	2683.69
450.76	2859.82
450.966	3013.42
451.172	2988.84
451.378	3230.5
451.584	3177.25
451.791	3490.59
451.997	3498.78
452.203	3623.71
452.409	3885.85
452.615	3988.25
452.821	3902.23
453.027	4053.78
453.233	4379.41
453.44	4240.15
453.646	4592.4
453.852	4659.98
454.058	4850.44
454.264	5071.62
454.47	5249.8
454.676	5425.92
454.882	5827.32
455.088	5761.79
455.294	5845.76
455.5	6365.94
455.705	6576.88
455.911	6570.74
456.117	6890.22
456.323	6980.33
456.529	7037.67
456.735	7858.91
456.941	7852.77
457.147	8073.95
457.352	8573.65
457.558	8774.35
457.764	9200.33
457.97	9237.19
458.176	9773.76
458.381	10345.14
458.587	10615.48
458.793	11111.08
458.999	10982.06
459.204	12452.5
459.41	12753.55
459.616	12540.57
459.821	13472.39
460.027	13976.19
460.233	14377.59
460.438	14766.71
460.644	15438.44
460.85	15221.36
461.055	16124.51
461.261	16990.8
461.466	16570.97
461.672	17039.95
461.878	19053.11
462.083	18614.84
462.289	19151.41
462.494	20142.63
462.7	20202.02
462.905	20331.04
463.111	21914.12
463.316	23128.56
463.522	23284.21
463.727	24222.18
463.932	25594.32
464.138	25930.19
464.343	27355.57
464.549	27183.54
464.754	29061.53
464.959	30028.17
465.165	30294.41
465.37	30318.98
465.575	30433.67
465.781	32369
465.986	33503.57
466.191	32815.46
466.397	32872.8
466.602	32313.7
466.807	34552.13
467.012	34500.93
467.218	35367.23
467.423	35141.95
467.628	36264.24
467.833	38510.86
468.038	37474.59
468.244	36598.05
468.449	38355.21
468.654	37818.64
468.859	37644.57
469.064	38232.33
469.269	36931.87
469.474	37099.81
469.679	38682.89
469.885	37435.67
470.09	38029.59
470.295	37890.32
470.5	36870.43
470.705	37054.75
470.91	36585.77
471.115	36102.45
471.32	36428.07
471.525	36514.09
471.73	35553.59
471.935	35094.85
472.139	34046.29
472.344	33857.87
472.549	33739.09
472.754	33038.69
472.959	32446.82
473.164	31400.31
473.369	31086.97
473.574	31674.74
473.778	31160.7
473.983	30558.6
474.188	29913.48
474.393	28703.14
474.598	28582.31
474.802	27859.37
475.007	27619.76
475.212	27324.85
475.417	26083.78
475.621	25887.18
475.826	25614.8
476.031	25156.05
476.235	24519.14
476.44	24705.5
476.645	24011.24
476.849	23667.18
477.054	23276.02
477.259	22733.31
477.463	22751.74
477.668	22022.66
477.872	22114.82
478.077	21608.97
478.282	20947.48
478.486	20992.53
478.691	20683.29
478.895	20337.18
479.1	20197.92
479.304	19964.45
479.509	19380.78
479.713	19388.97
479.918	19104.31
480.122	18893.37
480.326	19018.29
480.531	19020.34
480.735	18790.97
480.94	18113.09
481.144	18922.04
481.348	17871.43
481.553	17955.4
481.757	17584.71
481.961	17822.28
482.166	17855.04
482.37	17470.03
482.574	17351.24
482.778	16974.42
482.983	17650.25
483.187	17015.38
483.391	16915.03
483.595	16706.13
483.8	16656.98
484.004	16417.37
484.208	16441.95
484.412	16065.12
484.616	16140.9
484.821	16056.93
485.025	15352.43
485.229	15759.97
485.433	15399.53
485.637	15405.67
485.841	14881.39
486.045	14854.77
486.249	14752.37
486.453	14180.99
486.657	14371.45
486.861	14133.89
487.065	13560.45
487.269	13699.72
487.473	13118.09
487.677	13316.75
487.881	13025.93
488.085	12808.85
488.289	12571.29
488.493	12370.58
488.697	12413.59
488.901	12030.62
489.105	11858.59
489.309	11664.04
489.512	11502.25
489.716	11344.55
489.92	11031.21
490.124	10859.18
490.328	10865.33
490.531	10355.38
490.735	10480.31
490.939	9978.56
491.143	9960.13
491.346	9759.42
491.55	10003.13
491.754	9681.6
491.958	9351.88
492.161	9345.73
492.365	9106.12
492.569	8833.74
492.772	8866.51
492.976	8618.71
493.18	8708.82
493.383	8889.04
493.587	8493.78
493.79	8452.82
493.994	8145.63
494.197	8168.15
494.401	8176.34
494.605	7979.74
494.808	7957.21
495.012	7930.59
495.215	7881.44
495.419	7754.46
495.622	7760.61
495.825	7826.14
496.029	7754.46
496.232	7854.81
496.436	7736.03
496.639	7643.87
496.843	7607.01
497.046	7686.88
497.249	7844.57
497.453	7717.6
497.656	7625.44
497.859	7584.48
498.063	7713.5
498.266	7926.49
498.469	7828.19
498.673	7860.96
498.876	7908.06
499.079	7764.7
499.282	7899.87
499.485	8182.49
499.689	7928.54
499.892	8280.79
500.095	7895.77
500.298	8221.4
500.501	8221.4
500.705	8213.21
500.908	8628.95
501.111	8719.06
501.314	8518.36
501.517	8729.3
501.72	8678.1
501.923	8948.43
502.126	8850.13
502.329	9179.85
502.532	9245.38
502.735	9294.54
502.938	9525.96
503.141	9611.97
503.344	9521.86
503.547	9759.42
503.75	9908.93
503.953	10017.47
504.156	10164.92
504.359	10173.11
504.562	10392.25
504.765	10668.72
504.968	10916.53
505.17	10920.62
505.373	10887.86
505.576	11365.03
505.779	11530.92
505.982	11700.9
506.185	12081.82
506.387	11922.08
506.59	12184.22
506.793	12425.88
506.996	12688.02
507.198	13181.58
507.401	13337.23
507.604	13609.61
507.807	13709.96
508.009	14002.82
508.212	14183.04
508.415	14393.98
508.617	14801.52
508.82	15166.06
509.022	15184.49
509.225	16036.45
509.428	16110.18
509.63	16226.91
509.833	16611.93
510.035	17404.49
510.238	17523.27
510.44	17635.91
510.643	18133.57
510.845	18344.51
511.048	18960.95
511.25	19358.25
511.453	19907.11
511.655	20714.01
511.858	20621.85
512.06	21174.8
512.262	21260.82
512.465	21774.86
512.667	22581.76
512.87	23292.4
513.072	23222.77
513.274	24054.25
513.477	24412.64
513.679	25272.79
513.881	25446.87
514.084	26192.33
514.286	26536.38
514.488	26919.35
514.69	28346.79
514.893	28516.77
515.095	29170.07
515.297	29655.44
515.499	29747.6
515.701	30982.52
515.904	31730.03
516.106	32170.35
516.308	32522.6
516.51	32921.95
516.712	33710.42
516.914	34572.61
517.116	35422.52
517.318	35764.53
517.52	36151.6
517.722	36614.44
517.925	37511.45
518.127	38304.01
518.329	39012.61
518.531	39090.43
518.733	40093.94
518.935	40423.66
519.136	40841.45
519.338	41758.94
519.54	42371.28
519.742	42954.95
519.944	43528.38
520.146	44564.65
520.348	44824.75
520.55	45000.87
520.752	45281.44
520.954	46354.58
521.155	46174.36
521.357	47642.75
521.559	47788.16
521.761	48402.55
521.963	48228.47
522.164	49031.27
522.366	49315.94
522.568	50126.94
522.77	49983.58
522.971	50833.49
523.173	50501.71
523.375	51048.52
523.576	50950.22
523.778	50993.23
523.98	51861.57
524.181	52045.88
524.383	52097.08
524.584	52367.41
524.786	52428.85
524.988	51867.71
525.189	52615.22
525.391	52412.47
525.592	52514.87
525.794	52643.89
525.995	52418.61
526.197	51908.67
526.398	52056.12
526.6	52351.03
526.801	52140.09
527.003	51791.94
527.204	51683.39
527.406	51654.72
527.607	51544.13
527.808	51607.62
528.01	50501.71
528.211	50602.07
528.412	51075.15
528.614	50143.32
528.815	49725.53
529.016	49944.67
529.218	48613.49
529.419	48795.76
529.62	48218.23
529.822	47528.06
530.023	46989.45
530.224	47050.89
530.425	46289.04
530.626	45916.31
530.828	45338.79
531.029	45471.9
531.23	44583.09
531.431	44052.66
531.632	43696.31
531.833	43575.48
532.035	42797.26
532.236	42387.66
532.437	41808.09
532.638	40722.66
532.839	40640.75
533.04	40274.16
533.241	39289.09
533.442	39504.12
533.643	38498.57
533.844	38187.28
534.045	37589.27
534.246	37044.51
534.447	36423.98
534.648	36276.52
534.849	35834.16
535.05	35051.84
535.251	34828.61
535.451	34255.18
535.652	33708.37
535.853	33321.3
536.054	33124.7
536.255	33130.84
536.456	31793.52
536.657	32043.37
536.857	30994.81
537.058	30626.18
537.259	30450.05
537.46	29884.81
537.66	29262.23
537.861	29168.02
538.062	28844.45
538.263	28756.38
538.463	28053.93
538.664	27933.1
538.865	27580.85
539.065	27259.32
539.266	26362.31
539.466	26317.25
539.667	26051.02
539.868	26227.14
540.068	25301.46
540.269	25203.16
540.469	25145.81
540.67	24881.63
540.87	24441.31
541.071	24203.75
541.271	23949.8
541.472	23699.95
541.672	22993.4
541.873	22929.91
542.073	22462.97
542.274	23017.97
542.474	22260.23
542.675	22168.07
542.875	21877.26
543.075	21264.91
543.276	20959.77
543.476	21127.7
543.676	20574.75
543.877	20697.63
544.077	20597.28
544.277	20195.87
544.478	19776.04
544.678	19978.79
544.878	19419.69
545.078	19536.43
545.279	18932.28
545.479	18594.36
545.679	18700.86
545.879	18649.66
546.079	18137.66
546.28	17820.23
546.48	17613.38
546.68	17703.5
546.88	17541.71
547.08	17431.12
547.28	16919.12
547.48	16792.15
547.68	16421.47
547.88	16063.07
548.081	16235.1
548.281	15977.06
548.481	15448.68
548.681	15698.53
548.881	15321.71
549.081	15229.55
549.28	15020.66
549.48	14983.79
549.68	14541.43
549.88	14541.43
550.08	14074.49
550.28	13900.42
550.48	13968
550.68	13789.83
550.88	13587.08
551.08	13130.38
551.279	13091.47
551.479	12696.21
551.679	12778.13
551.879	12483.22
552.079	12395.16
552.278	12149.4
552.478	12262.04
552.678	11774.63
552.878	11692.71
553.077	11664.04
553.277	11160.24
553.477	11129.52
553.676	11217.58
553.876	10590.9
554.076	10494.65
554.275	10582.71
554.475	10242.75
554.674	10275.51
554.874	9949.89
555.074	9786.05
555.273	9650.88
555.473	9708.23
555.672	9532.1
555.872	9163.47
556.071	9097.93
556.271	9073.35
556.47	8843.98
556.67	8688.34
556.869	8497.88
557.068	8358.61
557.268	8235.74
557.467	8133.34
557.667	8164.06
557.866	8055.51
558.065	7594.72
558.265	7598.82
558.464	7523.04
558.663	7480.04
558.863	7170.79
559.062	7439.08
559.261	7119.59
559.461	7133.93
559.66	6724.33
559.859	6687.47
560.058	6732.53
560.258	6365.94
560.457	6447.86
560.656	6685.42
560.855	6116.09
561.054	6269.69
561.253	5958.39
561.453	6073.08
561.652	5905.15
561.851	5862.14
562.05	5724.93
562.249	5561.09
562.448	5636.86
562.647	5276.42
562.846	5317.38
563.045	5378.82
563.244	5163.78
563.443	5288.71
563.642	5085.96
563.841	5110.54
564.04	4952.84
564.239	4864.78
564.438	4772.62
564.637	4621.07
564.836	4567.82
565.035	4748.04
565.234	4440.85
565.432	4387.6
565.631	4340.5
565.83	4363.03
566.029	4287.25
566.228	4197.14
566.427	4195.09
566.625	4080.41
566.824	4174.61
567.023	4051.74
567.222	3767.07
567.42	3896.09
567.619	3836.7
567.818	3740.44
568.016	4010.78
568.215	3658.53
568.414	3722.01
568.612	3744.54
568.811	3576.61
569.01	3386.15
569.208	3365.67
569.407	3367.71
569.605	3394.34
569.804	3328.8
570.002	3289.89
570.201	3136.29
570.4	3162.92
570.598	2980.65
570.797	3023.66
570.995	2962.22
571.193	2818.86
571.392	3052.33
571.59	2896.68
571.789	2825
571.987	2853.67
572.186	2880.3
572.384	2769.71
572.582	2648.88
572.781	2841.39
572.979	2636.59
573.177	2597.68
573.376	2587.44
573.574	2534.19
573.772	2462.51
573.971	2339.63
574.169	2386.74
574.367	2452.27
574.565	2331.44
574.763	2392.88
574.962	2122.55
575.16	2257.71
575.358	2173.75
575.556	2171.7
575.754	2122.55
575.952	2116.41
576.151	2167.6
576.349	2016.05
576.547	1887.03
576.745	2085.69
576.943	1903.42
577.141	1921.85
577.339	1837.88
577.537	1971
577.735	1858.36
577.933	1938.23
578.131	1751.87
578.329	1788.73
578.527	1676.09
578.725	1612.6
578.923	1540.93
579.121	1635.13
579.319	1442.62
579.516	1590.08
579.714	1786.68
579.912	1534.78
580.11	1469.25
580.308	1465.15
580.506	1393.47
580.704	1354.56
580.901	1340.22
581.099	1626.94
581.297	1422.14
581.495	1377.09
581.692	1389.38
581.89	1334.08
582.088	1319.75
582.285	1213.25
582.483	1325.89
582.681	1215.3
582.878	1258.31
583.076	1309.51
583.274	1264.45
583.471	1305.41
583.669	1137.48
583.866	1084.23
584.064	1149.76
584.262	1051.46
584.459	1035.08
584.657	1139.52
584.854	967.49
585.052	1096.52
585.249	1112.9
585.447	996.17
585.644	922.44
585.841	1059.65
586.039	981.83
586.236	1059.65
586.434	979.78
586.631	1012.55
586.828	914.25
587.026	951.11
587.223	867.14
587.42	861
587.618	951.11
587.815	959.3
588.012	893.77
588.21	883.53
588.407	930.63
588.604	908.1
588.801	789.32
588.999	830.28
589.196	883.53
589.393	779.08
589.59	844.62
589.787	770.89
589.984	811.85
590.182	867.14
590.379	686.92
590.576	791.37
590.773	791.37
590.97	695.11
591.167	762.7
591.364	881.48
591.561	787.27
591.758	852.81
591.955	729.93
592.152	766.79
592.349	707.4
592.546	713.55
592.743	729.93
592.94	705.35
593.137	734.03
593.334	848.71
593.531	799.56
593.727	815.94
593.924	676.68
594.121	676.68
594.318	752.46
594.515	820.04
594.712	918.34
594.908	863.05
595.105	699.21
595.302	879.43
595.499	844.62
595.696	949.06
595.892	729.93
596.089	928.58
596.286	789.32
596.482	910.15
596.679	879.43
596.876	797.51
597.072	1030.98
597.269	906.06
597.466	940.87
597.662	1043.27
597.859	983.88
598.055	1033.03
598.252	1112.9
598.448	1235.78
598.645	1184.58
598.841	1117
599.038	1243.97
599.234	1235.78
599.431	1362.75
599.627	1264.45
599.824	1432.38
600.02	1555.26
600.217	1479.49
600.413	1641.28
600.609	1577.79
600.806	1876.79
601.002	1702.72
601.198	1672
601.395	1919.8
601.591	1870.65
601.787	1930.04
601.984	2210.61
602.18	2186.04
602.376	2218.8
602.572	2405.17
602.769	2331.44
602.965	2503.47
603.161	2669.36
603.357	2667.31
603.553	2728.75
603.75	2726.7
603.946	2921.26
604.142	2968.36
604.338	3240.74
604.534	3224.36
604.73	3367.71
604.926	3478.3
605.122	3586.85
605.318	3558.18
605.514	3822.36
605.71	3805.98
605.906	4014.87
606.102	4057.88
606.298	4465.43
606.494	4383.51
606.69	4590.35
606.886	4623.12
607.082	4746
607.278	4856.59
607.474	5176.07
607.67	5112.58
607.866	5188.36
608.062	5675.77
608.257	5583.62
608.453	5862.14
608.649	5917.44
608.845	5997.31
609.041	6275.83
609.236	6472.43
609.432	6529.78
609.628	6781.68
609.824	7201.51
610.019	7144.17
610.215	7287.53
610.411	7725.79
610.606	7848.67
610.802	7768.8
610.998	8119
611.193	8442.58
611.389	8493.78
611.584	8827.6
611.78	8839.89
611.976	9274.06
612.171	9673.41
612.367	9892.54
612.562	9816.77
612.758	10209.98
612.953	10285.75
613.149	10779.31
613.344	10914.48
613.539	11563.68
613.735	11713.19
613.93	11883.17
614.126	12229.27
614.321	12589.72
614.517	12952.21
614.712	13195.92
614.907	13558.41
615.103	13881.99
615.298	14011.01
615.493	14711.41
615.688	14862.96
615.884	15790.69
616.079	15710.82
616.274	16112.22
616.47	16591.45
616.665	16880.21
616.86	17341
617.055	18000.45
617.25	18141.76
617.445	18858.55
617.641	18885.17
617.836	19616.3
618.031	19591.72
618.226	21090.84
618.421	21049.88
618.616	21641.74
618.811	21758.47
619.006	22936.06
619.201	22837.75
619.396	23396.85
619.591	23611.89
619.786	24556
619.981	24998.36
620.176	25940.43
620.371	25919.95
620.566	27089.34
620.761	27343.28
620.956	27959.72
621.151	27976.11
621.346	28852.64
621.541	29063.58
621.735	29864.33
621.93	30153.1
622.125	31328.63
622.32	31299.96
622.515	32221.55
622.709	32817.5
622.904	33454.42
623.099	33851.73
623.294	34670.92
623.488	34736.45
623.683	35658.04
623.878	35823.92
624.072	37105.95
624.267	37232.93
624.462	37869.84
624.656	38166.8
624.851	39037.19
625.046	39504.12
625.24	39721.21
625.435	40354.03
625.629	40845.54
625.824	41910.49
626.018	42213.59
626.213	42307.79
626.407	43296.96
626.602	43016.39
626.796	43903.16
626.991	44564.65
627.185	44589.23
627.38	45054.12
627.574	45265.06
627.768	45478.05
627.963	45906.07
628.157	46180.5
628.352	46205.08
628.546	45695.13
628.74	46604.43
628.935	46004.38
629.129	46299.28
629.323	45826.2
629.517	45936.79
629.712	45791.39
629.906	45506.72
630.1	44282.03
630.294	44763.31
630.489	43780.28
630.683	43600.06
630.877	42619.08
631.071	42037.46
631.265	41513.18
631.459	40911.08
631.653	40108.27
631.848	39491.83
632.042	38576.39
632.236	37400.86
632.43	36372.78
632.624	35725.62
632.818	34267.47
633.012	33438.04
633.206	32305.51
633.4	31793.52
633.594	29895.05
633.788	29630.87
633.982	28531.11
634.176	27644.34
634.369	26206.66
634.563	25543.12
634.757	24582.62
634.951	23935.46
635.145	22866.42
635.339	21819.91
635.533	21193.23
635.726	20169.25
635.92	19137.07
636.114	18684.47
636.308	17410.64
636.501	17341
636.695	16669.27
636.889	15780.45
637.083	15088.24
637.276	14645.88
637.47	13871.75
637.664	13197.96
637.857	12933.78
638.051	12454.55
638.244	11874.98
638.438	11342.5
638.632	11188.91
638.825	10564.28
639.019	10212.03
639.212	9706.18
639.406	9388.74
639.599	9013.96
639.793	8653.52
639.986	8442.58
640.18	8149.72
640.373	7619.3
640.567	7361.25
640.76	7154.41
640.954	6914.8
641.147	6482.67
641.34	6226.68
641.534	6036.22
641.727	5987.07
641.92	5585.66
642.114	5489.41
642.307	5229.32
642.5	5100.3
642.694	4748.04
642.887	4621.07
643.08	4768.52
643.273	4440.85
643.467	4160.28
643.66	4041.5
643.853	3742.49
644.046	3719.96
644.239	3556.13
644.432	3310.37
644.626	3023.66
644.819	3154.73
645.012	3101.48
645.205	3072.81
645.398	2986.79
645.591	2734.89
645.784	2595.63
645.977	2442.03
646.17	2431.79
646.363	2343.73
646.556	2179.89
646.749	2110.26
646.942	2159.41
647.135	2054.97
647.328	1966.9
647.521	1884.98
647.714	1774.39
647.907	1837.88
648.099	1602.36
648.292	1772.35
648.485	1649.47
648.678	1430.34
648.871	1418.05
649.064	1383.23
649.256	1274.69
649.449	1188.68
649.642	1086.28
649.835	1166.15
650.027	1117
650.22	1192.77
650.413	1033.03
650.605	1127.24
650.798	957.25
650.991	932.68
651.183	942.92
651.376	940.87
651.568	963.4
651.761	740.17
651.954	861
652.146	785.23
652.339	930.63
652.531	805.71
652.724	748.36
652.916	699.21
653.109	572.24
653.301	805.71
653.494	617.29
653.686	658.25
653.879	676.68
654.071	545.61
654.263	527.18
654.456	551.76
654.648	643.92
654.84	574.28
655.033	467.79
655.225	680.78
655.417	426.83
655.61	592.72
655.802	514.89
655.994	510.8
656.186	326.48
656.379	545.61
656.571	379.73
656.763	398.16
656.955	310.1
657.148	394.06
657.34	531.28
657.532	291.66
657.724	344.91
657.916	430.93
658.108	467.79
658.3	322.38
658.492	416.59
658.684	301.9
658.876	318.29
659.068	209.75
659.26	234.32
659.452	301.9
659.644	334.67
659.836	404.3
660.028	291.66
660.22	310.1
660.412	193.36
660.604	260.95
660.796	260.95
660.988	355.15
661.18	222.03
661.372	314.19
661.563	217.94
661.755	283.47
661.947	297.81
662.139	146.26
662.331	203.6
662.522	211.79
662.714	189.27
662.906	158.55
663.097	205.65
663.289	201.55
663.481	88.92
663.673	346.96
663.864	258.9
664.056	287.57
664.247	95.06
664.439	240.47
664.631	262.99
664.822	287.57
665.014	230.23
665.205	219.99
665.397	121.68
665.588	244.56
665.78	283.47
665.971	187.22
666.163	217.94
666.354	183.12
666.546	121.68
666.737	236.37
666.929	203.6
667.12	138.07
667.311	203.6
667.503	115.54
667.694	201.55
667.885	199.51
668.077	215.89
668.268	97.11
668.459	154.45
668.651	176.98
668.842	176.98
669.033	158.55
669.224	66.39
669.416	318.29
669.607	127.83
669.798	115.54
669.989	293.71
670.18	115.54
670.371	133.97
670.563	95.06
670.754	236.37
670.945	248.66
671.136	293.71
671.327	105.3
671.518	248.66
671.709	232.27
671.9	172.88
672.091	254.8
672.282	258.9
672.473	125.78
672.664	101.2
672.855	185.17
673.046	201.55
673.237	179.03
673.428	207.7
673.619	248.66
673.809	205.65
674	234.32
674.191	260.95
674.382	222.03
674.573	187.22
674.764	199.51
674.954	289.62
675.145	58.2
675.336	127.83
675.527	150.36
675.717	142.16
675.908	203.6
676.099	150.36
676.289	99.16
676.48	150.36
676.671	262.99
676.861	148.31
677.052	203.6
677.243	121.68
677.433	127.83
677.624	203.6
677.814	234.32
678.005	267.09
678.195	262.99
678.386	136.02
678.576	207.7
678.767	97.11
678.957	160.59
679.148	248.66
679.338	277.33
679.529	281.43
679.719	238.42
679.909	334.67
680.1	271.19
680.29	306
680.481	168.79
680.671	228.18
680.861	293.71
681.052	250.71
681.242	172.88
681.432	297.81
681.622	377.68
681.813	172.88
682.003	271.19
682.193	207.7
682.383	310.1
682.573	256.85
682.764	226.13
682.954	355.15
683.144	301.9
683.334	238.42
683.524	285.52
683.714	318.29
683.904	377.68
684.094	279.38
684.284	232.27
684.474	404.3
684.664	367.44
684.854	306
685.044	140.12
685.234	258.9
685.424	291.66
685.614	217.94
685.804	330.58
685.994	332.62
686.184	318.29
686.374	351.06
686.564	293.71
686.753	281.43
686.943	236.37
687.133	342.86
687.323	285.52
687.513	342.86
687.702	316.24
687.892	201.55
688.082	340.82
688.272	369.49
688.461	316.24
688.651	336.72
688.841	287.57
689.03	289.62
689.22	265.04
689.41	373.58
689.599	342.86
689.789	244.56
689.979	357.2
690.168	258.9
690.358	265.04
690.547	258.9
690.737	291.66
690.926	287.57
691.116	314.19
691.305	408.4
691.495	383.82
691.684	146.26
691.874	267.09
692.063	228.18
692.252	324.43
692.442	363.34
692.631	222.03
692.82	219.99
693.01	353.1
693.199	265.04
693.388	228.18
693.578	203.6
693.767	303.95
693.956	320.34
694.146	265.04
694.335	279.38
694.524	193.36
694.713	238.42
694.902	336.72
695.092	203.6
695.281	299.86
695.47	232.27
695.659	205.65
695.848	181.07
696.037	232.27
696.226	346.96
696.415	217.94
696.604	279.38
696.793	334.67
696.982	289.62
697.171	361.3
697.36	183.12
697.549	191.31
697.738	103.25
697.927	238.42
698.116	152.4
698.305	228.18
698.494	244.56
698.683	172.88
698.872	351.06
699.061	291.66
699.25	127.83
699.438	306
699.627	179.03
699.816	365.39
700.005	138.07
700.193	187.22
700.382	267.09
700.571	297.81
700.76	312.14
700.948	250.71
701.137	209.75
701.326	344.91
701.514	125.78
701.703	260.95
701.892	215.89
702.08	342.86
702.269	240.47
702.457	154.45
702.646	254.8
702.834	185.17
703.023	303.95
703.212	279.38
703.4	187.22
703.589	244.56
703.777	224.08
703.965	133.97
704.154	187.22
704.342	105.3
704.531	119.64
704.719	205.65
704.907	312.14
705.096	164.69
705.284	146.26
705.472	166.74
705.661	275.28
705.849	285.52
706.037	301.9
706.226	326.48
706.414	213.84
706.602	121.68
706.79	308.05
706.979	207.7
707.167	201.55
707.355	197.46
707.543	312.14
707.731	217.94
707.919	207.7
708.107	201.55
708.296	183.12
708.484	136.02
708.672	316.24
708.86	283.47
709.048	211.79
709.236	170.83
709.424	289.62
709.612	256.85
709.8	129.88
709.988	217.94
710.176	181.07
710.364	281.43
710.551	207.7
710.739	250.71
710.927	189.27
711.115	213.84
711.303	318.29
711.491	293.71
711.679	172.88
711.866	344.91
712.054	191.31
712.242	306
712.43	252.75
712.617	183.12
712.805	271.19
712.993	256.85
713.181	154.45
713.368	267.09
713.556	197.46
713.744	222.03
713.931	414.54
714.119	322.38
714.306	234.32
714.494	156.5
714.682	293.71
714.869	183.12
715.057	297.81
715.244	166.74
715.432	226.13
715.619	187.22
715.807	238.42
715.994	166.74
716.182	222.03
716.369	287.57
716.556	408.4
716.744	197.46
716.931	168.79
717.119	277.33
717.306	277.33
717.493	252.75
717.681	207.7
717.868	172.88
718.055	273.23
718.242	228.18
718.43	224.08
718.617	308.05
718.804	265.04
718.991	316.24
719.179	310.1
719.366	254.8
719.553	283.47
719.74	230.23
719.927	258.9
720.114	287.57
720.301	154.45
720.488	258.9
720.676	172.88
720.863	387.92
721.05	322.38
721.237	320.34
721.424	355.15
721.611	314.19
721.798	201.55
721.985	242.51
722.172	244.56
722.358	252.75
722.545	344.91
722.732	322.38
722.919	373.58
723.106	328.53
723.293	287.57
723.48	308.05
723.667	197.46
723.853	467.79
724.04	240.47
724.227	377.68
724.414	254.8
724.6	357.2
724.787	392.02
724.974	447.31
725.161	240.47
725.347	201.55
725.534	248.66
725.72	310.1
725.907	332.62
726.094	258.9
726.28	316.24
726.467	342.86
726.653	279.38
726.84	443.21
727.027	432.97
727.213	297.81
727.4	377.68
727.586	308.05
727.773	306
727.959	355.15
728.145	340.82
728.332	318.29
728.518	267.09
728.705	342.86
728.891	322.38
729.077	320.34
729.264	271.19
729.45	357.2
729.636	455.5
729.823	420.69
730.009	451.41
730.195	375.63
730.382	359.25
730.568	224.08
730.754	414.54
730.94	310.1
731.126	320.34
731.313	435.02
731.499	365.39
731.685	455.5
731.871	424.78
732.057	394.06
732.243	430.93
732.429	430.93
732.615	533.33
732.801	428.88
732.987	486.22
733.173	435.02
733.359	224.08
733.545	412.5
733.731	336.72
733.917	408.4
734.103	383.82
734.289	428.88
734.475	396.11
734.661	523.09
734.847	408.4
735.033	349.01
735.219	455.5
735.404	385.87
735.59	226.13
735.776	344.91
735.962	426.83
736.148	490.32
736.333	525.13
736.519	424.78
736.705	412.5
736.89	422.73
737.076	443.21
737.262	338.77
737.447	363.34
737.633	441.17
737.819	471.89
738.004	392.02
738.19	439.12
738.375	449.36
738.561	443.21
738.747	363.34
738.932	361.3
739.118	527.18
739.303	457.55
739.489	437.07
739.674	430.93
739.859	377.68
740.045	416.59
740.23	369.49
740.416	291.66
740.601	344.91
740.786	394.06
740.972	369.49
741.157	349.01
741.342	320.34
741.528	355.15
741.713	475.98
741.898	457.55
742.084	484.17
742.269	371.54
742.454	478.03
742.639	551.76
742.824	428.88
743.01	555.85
743.195	494.41
743.38	398.16
743.565	486.22
743.75	416.59
743.935	473.93
744.12	570.19
744.305	279.38
744.49	400.21
744.675	373.58
744.86	398.16
745.045	385.87
745.23	502.61
745.415	459.6
745.6	529.23
745.785	365.39
745.97	471.89
746.155	410.45
746.34	574.28
746.525	435.02
746.71	559.95
746.895	277.33
747.079	351.06
747.264	359.25
747.449	514.89
747.634	492.37
747.819	486.22
748.003	408.4
748.188	291.66
748.373	404.3
748.557	392.02
748.742	437.07
748.927	424.78
749.111	379.73
749.296	320.34
749.481	410.45
749.665	410.45
749.85	355.15
750.034	500.56
750.219	344.91
750.404	258.9
750.588	301.9
750.773	346.96
750.957	377.68
751.141	338.77
751.326	424.78
751.51	367.44
751.695	328.53
751.879	297.81
752.064	455.5
752.248	273.23
752.432	408.4
752.617	432.97
752.801	355.15
752.985	260.95
753.17	424.78
753.354	258.9
753.538	332.62
753.722	281.43
753.907	271.19
754.091	246.61
754.275	396.11
754.459	269.14
754.643	328.53
754.828	344.91
755.012	404.3
755.196	215.89
755.38	277.33
755.564	277.33
755.748	250.71
755.932	340.82
756.116	320.34
756.3	351.06
756.484	226.13
756.668	320.34
756.852	260.95
757.036	308.05
757.22	232.27
757.404	97.11
757.588	357.2
757.772	324.43
757.956	172.88
758.14	424.78
758.323	193.36
758.507	297.81
758.691	267.09
758.875	271.19
759.059	349.01
759.242	238.42
759.426	238.42
759.61	258.9
759.794	166.74
759.977	338.77
760.161	432.97
760.345	299.86
760.528	297.81
760.712	279.38
760.895	271.19
761.079	236.37
761.263	160.59
761.446	152.4
761.63	271.19
761.813	246.61
761.997	152.4
762.18	205.65
762.364	265.04
762.547	129.88
762.731	142.16
762.914	256.85
763.098	152.4
763.281	224.08
763.464	209.75
763.648	215.89
763.831	283.47
764.015	174.93
764.198	207.7
764.381	140.12
764.564	215.89
764.748	236.37
764.931	183.12
765.114	140.12
765.297	256.85
765.481	138.07
765.664	174.93
765.847	93.01
766.03	346.96
766.213	80.72
766.397	162.64
766.58	64.34
766.763	297.81
766.946	166.74
767.129	174.93
767.312	117.59
767.495	142.16
767.678	162.64
767.861	164.69
768.044	195.41
768.227	213.84
768.41	219.99
768.593	277.33
768.776	152.4
768.959	156.5
769.142	181.07
769.324	107.35
769.507	146.26
769.69	228.18
769.873	142.16
770.056	332.62
770.239	105.3
770.421	230.23
770.604	240.47
770.787	224.08
770.97	232.27
771.152	101.2
771.335	256.85
771.518	148.31
771.7	246.61
771.883	222.03
772.066	37.72
772.248	193.36
772.431	267.09
772.613	246.61
772.796	148.31
772.978	164.69
773.161	279.38
773.343	97.11
773.526	88.92
773.708	47.96
773.891	0.85
774.073	111.44
774.256	133.97
774.438	301.9
774.621	99.16
774.803	209.75
774.985	43.86
775.168	168.79
775.35	115.54
775.532	148.31
775.715	86.87
775.897	168.79
776.079	121.68
776.261	148.31
776.444	138.07
776.626	133.97
776.808	93.01
776.99	37.72
777.173	226.13
777.355	107.35
777.537	164.69
777.719	248.66
777.901	115.54
778.083	76.63
778.265	119.64
778.447	162.64
778.629	23.38
778.811	152.4
778.993	195.41
779.175	203.6
779.357	109.4
779.539	-21.67
779.721	76.63
779.903	66.39
780.085	101.2
780.267	203.6
780.449	107.35
780.631	127.83
780.812	127.83
780.994	47.96
781.176	97.11
781.358	11.09
781.54	105.3
781.721	109.4
781.903	160.59
782.085	117.59
782.267	224.08
782.448	-17.58
782.63	9.05
782.812	56.15
782.993	76.63
783.175	138.07
783.357	97.11
783.538	117.59
783.72	19.29
783.901	127.83
784.083	107.35
784.264	160.59
784.446	-48.3
784.627	-11.43
784.809	125.78
784.99	64.34
785.172	95.06
785.353	109.4
785.535	21.33
785.716	7
785.897	33.62
786.079	117.59
786.26	113.49
786.441	76.63
786.623	-13.48
786.804	-1.19
786.985	76.63
787.167	62.29
787.348	33.62
787.529	31.57
787.71	138.07
787.891	138.07
788.073	64.34
788.254	-5.29
788.435	158.55
788.616	54.1
788.797	9.05
788.978	39.76
789.159	17.24
789.34	103.25
789.522	56.15
789.703	0.85
789.884	56.15
790.065	103.25
790.246	80.72
790.427	-5.29
790.607	170.83
790.788	148.31
790.969	111.44
791.15	-23.72
791.331	54.1
791.512	15.19
791.693	45.91
791.874	-5.29
792.054	213.84
792.235	166.74
792.416	-1.19
792.597	35.67
792.778	52.05
792.958	140.12
793.139	68.44
793.32	15.19
793.5	-23.72
793.681	119.64
793.862	64.34
794.042	-1.19
794.223	-9.39
794.404	-9.39
794.584	-56.49
794.765	54.1
794.945	47.96
795.126	50
795.306	136.02
795.487	-40.11
795.667	-40.11
795.848	164.69
796.028	109.4
796.209	50
796.389	127.83
796.57	152.4
796.75	-46.25
796.93	64.34
797.111	15.19
797.291	4.95
797.471	97.11
797.652	64.34
797.832	-29.87
798.012	101.2
798.192	-13.48
798.373	-95.4
798.553	27.48
798.733	138.07
798.913	15.19
799.093	25.43
799.274	33.62
799.454	121.68
799.634	-11.43
799.814	50
799.994	52.05
800.174	31.57
800.354	-58.54
800.534	-50.35
800.714	95.06
800.894	15.19
801.074	-74.92
801.254	50
801.434	84.82
801.614	54.1
801.794	-40.11
801.974	2028.34
802.154	68.44
802.334	119.64
802.514	-44.2
802.693	54.1
802.873	47.96
803.053	170.83
803.233	90.96
803.413	33.62
803.592	88.92
803.772	-38.06
803.952	56.15
804.131	-62.63
804.311	140.12
804.491	129.88
804.67	7
804.85	11.09
805.03	17.24
805.209	224.08
805.389	-42.15
805.568	-15.53
805.748	-3.24
805.928	90.96
806.107	99.16
806.287	54.1
806.466	74.58
806.646	9.05
806.825	2.9
807.004	64.34
807.184	50
807.363	86.87
807.543	-7.34
807.722	-44.2
807.901	115.54
808.081	152.4
808.26	-52.39
808.439	19.29
808.619	62.29
808.798	62.29
808.977	19.29
809.156	115.54
809.336	62.29
809.515	80.72
809.694	-5.29
809.873	-36.01
810.052	76.63
810.231	113.49
810.411	-27.82
810.59	123.73
810.769	47.96
810.948	39.76
811.127	-83.11
811.306	4.95
811.485	-97.45
811.664	195.41
811.843	70.48
812.022	95.06
812.201	60.24
812.38	13.14
812.559	-11.43
812.737	138.07
812.916	-54.44
813.095	-72.87
813.274	88.92
813.453	35.67
813.632	86.87
813.811	138.07
813.989	-107.69
814.168	-21.67
814.347	-40.11
814.526	35.67
814.704	123.73
814.883	88.92
815.062	-109.74
815.24	129.88
815.419	27.48
815.598	68.44
815.776	-111.78
815.955	31.57
816.133	-66.73
816.312	-17.58
816.49	7
816.669	15.19
816.847	-46.25
817.026	74.58
817.204	-13.48
817.383	-58.54
817.561	0.85
817.74	27.48
817.918	33.62
818.097	-36.01
818.275	72.53
818.453	-11.43
818.632	123.73
818.81	13.14
818.988	29.52
819.167	-50.35
819.345	45.91
819.523	27.48
819.701	-3.24
819.879	54.1
820.058	-27.82
820.236	39.76
820.414	56.15
820.592	21.33
820.77	60.24
820.948	25.43
821.127	-36.01
821.305	41.81
821.483	-70.83
821.661	140.12
821.839	29.52
822.017	-21.67
822.195	43.86
822.373	9.05
822.551	35.67
822.729	90.96
822.907	27.48
823.085	13.14
823.262	43.86
823.44	0.85
823.618	29.52
823.796	76.63
823.974	-31.91
824.152	-29.87
824.329	-13.48
824.507	25.43
824.685	-5.29
824.863	21.33
825.04	-17.58
825.218	90.96
825.396	41.81
825.574	86.87
825.751	-25.77
825.929	43.86
826.107	-62.63
826.284	-9.39
826.462	-42.15
826.639	-64.68
826.817	-13.48
826.994	-27.82
827.172	-62.63
827.349	84.82
827.527	117.59
827.704	35.67
827.882	84.82
828.059	50
828.237	-29.87
828.414	29.52
828.591	-107.69
828.769	39.76
828.946	-99.5
829.124	60.24
829.301	60.24
829.478	19.29
829.655	2.9
829.833	2.9
830.01	-119.98
830.187	31.57
830.364	25.43
830.542	19.29
830.719	131.92
830.896	76.63
831.073	-44.2
831.25	-56.49
831.427	109.4
831.604	-3.24
831.782	-38.06
831.959	56.15
832.136	-42.15
832.313	-19.63
832.49	-99.5
832.667	29.52
832.844	-27.82
833.021	76.63
833.198	23.38
833.374	25.43
833.551	54.1
833.728	-19.63
833.905	62.29
834.082	-105.64
834.259	0.85
834.436	66.39
834.612	-15.53
834.789	125.78
834.966	39.76
835.143	31.57
835.319	-89.26
835.496	45.91
835.673	45.91
835.85	15.19
836.026	97.11
836.203	52.05
836.38	-103.59
836.556	-31.91
836.733	60.24
836.909	64.34
837.086	-21.67
837.262	-162.98
837.439	-48.3
837.616	-36.01
837.792	-3.24
837.968	4.95
838.145	-97.45
838.321	-38.06
838.498	7
838.674	133.97
838.851	43.86
839.027	21.33
839.203	29.52
839.38	68.44
839.556	-38.06
839.732	70.48
839.909	-9.39
840.085	154.45
840.261	-74.92
840.437	23.38
840.614	-5.29
840.79	119.64
840.966	80.72
841.142	-23.72
841.318	-46.25
841.494	33.62
841.671	82.77
841.847	-79.02
842.023	-79.02
842.199	74.58
842.375	47.96
842.551	-113.83
842.727	-95.4
842.903	207.7
843.079	-70.83
843.255	35.67
843.431	-1.19
843.607	37.72
843.783	-134.31
843.959	84.82
844.134	-72.87
844.31	146.26
844.486	-36.01
844.662	4.95
844.838	-54.44
845.013	15.19
845.189	-79.02
845.365	-68.78
845.541	74.58
845.716	90.96
845.892	64.34
846.068	-42.15
846.244	27.48
846.419	-5.29
846.595	-13.48
846.77	-56.49
846.946	95.06
847.122	54.1
847.297	2.9
847.473	119.64
847.648	-132.26
847.824	93.01
847.999	-76.97
848.175	35.67
848.35	11.09
848.526	119.64
848.701	29.52
848.876	-48.3
849.052	29.52
849.227	-27.82
849.403	-19.63
849.578	-13.48
849.753	11.09
849.929	35.67
850.104	-56.49
850.279	45.91
850.454	78.68
850.63	41.81
850.805	9.05
850.98	-9.39
851.155	29.52
851.33	4.95
851.505	-103.59
851.681	119.64
851.856	-3.24
852.031	9.05
852.206	-58.54
852.381	-46.25
852.556	2.9
852.731	-54.44
852.906	82.77
853.081	-1.19
853.256	93.01
853.431	-11.43
853.606	-103.59
853.781	-70.83
853.956	-93.35
854.131	-7.34
854.305	-99.5
854.48	-9.39
854.655	4.95
854.83	-17.58
855.005	58.2
855.18	25.43
855.354	-21.67
855.529	-11.43
855.704	-58.54
855.879	17.24
856.053	-99.5
856.228	-1.19
856.403	-66.73
856.577	101.2
856.752	-93.35
856.926	45.91
857.101	113.49
857.276	-15.53
857.45	50
857.625	113.49
857.799	105.3
857.974	7
858.148	-144.55
858.323	27.48
858.497	-17.58
858.672	9.05
858.846	-85.16
859.02	54.1
859.195	-99.5
859.369	-21.67
859.543	-27.82
859.718	19.29
859.892	-29.87
860.066	21.33
860.241	-58.54
860.415	-54.44
860.589	9.05
860.763	-19.63
860.938	-54.44
861.112	43.86
861.286	-68.78
861.46	47.96
861.634	-76.97
861.808	-27.82
861.982	-64.68
862.157	-87.21
862.331	-58.54
862.505	-76.97
862.679	-101.55
862.853	-91.31
863.027	13.14
863.201	109.4
863.375	-27.82
863.549	127.83
863.722	43.86
863.896	74.58
864.07	-76.97
864.244	-42.15
864.418	-11.43
864.592	103.25
864.766	-46.25
864.939	52.05
865.113	-25.77
865.287	33.62
865.461	-99.5
865.634	13.14
865.808	9.05
865.982	-81.07
866.156	-25.77
866.329	-158.89
866.503	23.38
866.676	109.4
866.85	19.29
867.024	-60.59
867.197	56.15
867.371	43.86
867.544	23.38
867.718	-167.08
867.891	52.05
868.065	-48.3
868.238	-56.49
868.412	70.48
868.585	43.86
868.759	-5.29
868.932	2.9
869.105	-99.5
869.279	-1.19
869.452	-122.02
869.625	31.57
869.799	-25.77
869.972	-81.07
870.145	-91.31
870.319	60.24
870.492	2.9
870.665	-95.4
870.838	-99.5
871.011	-148.65
871.185	-64.68
871.358	-60.59
871.531	-3.24
871.704	-29.87
871.877	-33.96
872.05	-52.39
872.223	-70.83
872.396	0.85
872.569	-3.24
872.742	-158.89
872.915	-3.24
873.088	-17.58
873.261	-107.69
873.434	103.25
873.607	-42.15
873.78	2.9
873.953	-105.64
874.126	-9.39
874.299	19.29
874.471	-89.26
874.644	-72.87
874.817	33.62
874.99	56.15
875.163	-52.39
875.335	25.43
875.508	-5.29
875.681	74.58
875.853	21.33
876.026	0.85
876.199	29.52
876.371	-50.35
876.544	-21.67
876.717	15.19
876.889	0.85
877.062	80.72
877.234	-5.29
877.407	-11.43
877.579	-23.72
877.752	9.05
877.924	45.91
878.097	45.91
878.269	-3.24
878.442	-13.48
878.614	-3.24
878.786	-7.34
878.959	-9.39
879.131	-23.72
879.303	-113.83
879.476	-13.48
879.648	45.91
879.82	-25.77
879.993	-15.53
880.165	-1.19
880.337	-119.98
880.509	-31.91
880.681	-11.43
880.854	-27.82
881.026	58.2
881.198	150.36
881.37	17.24
881.542	0.85
881.714	-48.3
881.886	-83.11
882.058	-13.48
882.23	66.39
882.402	2.9
882.574	13.14
882.746	58.2
882.918	41.81
883.09	21.33
883.262	4.95
883.434	76.63
883.606	-136.36
883.778	-1.19
883.95	117.59
884.122	17.24
884.293	-23.72
884.465	33.62
884.637	86.87
884.809	-17.58
884.98	56.15
885.152	4.95
885.324	7
885.496	-27.82
885.667	-56.49
885.839	-52.39
886.011	101.2
886.182	58.2
886.354	21.33
886.525	23.38
886.697	27.48
886.869	-115.88
887.04	15.19
887.212	76.63
887.383	131.92
887.555	62.29
887.726	-56.49
887.897	-38.06
888.069	84.82
888.24	66.39
888.412	4.95
888.583	-42.15
888.754	-33.96
888.926	-162.98
889.097	-33.96
889.268	-91.31
889.44	-103.59
889.611	-76.97
889.782	-76.97
889.953	-48.3
890.125	76.63
890.296	-113.83
890.467	-7.34
890.638	-31.91
890.809	-29.87
890.98	-74.92
891.151	35.67
891.323	72.53
891.494	27.48
891.665	17.24
891.836	-23.72
892.007	0.85
892.178	93.01
892.349	15.19
892.52	-5.29
892.691	-38.06
892.862	-23.72
893.032	-87.21
893.203	-31.91
893.374	64.34
893.545	-36.01
893.716	-72.87
893.887	66.39
894.057	-9.39
894.228	13.14
894.399	-23.72
894.57	33.62
894.74	-9.39
894.911	-11.43
895.082	-3.24
895.253	-128.17
895.423	66.39
895.594	29.52
895.764	58.2
895.935	-27.82
896.106	21.33
896.276	-70.83
896.447	4.95
896.617	-42.15
896.788	-101.55
896.958	-85.16
897.129	-50.35
897.299	-46.25
897.47	-21.67
897.64	125.78
897.81	-44.2
897.981	-54.44
898.151	-105.64
898.322	50
898.492	25.43
898.662	-46.25
898.832	-54.44
899.003	-36.01
899.173	-9.39
899.343	-44.2
899.513	-40.11
