Data from USB4F104151__44__09-27-53-805.txt Node

Date: Wed Feb 26 09:27:53 EST 2025
User: louis
Spectrometer: USB4F10415
Trigger mode: 4
Integration Time (sec): 1.000000E-1
Scans to average: 1
Electric dark correction enabled: true
Nonlinearity correction enabled: false
Boxcar width: 0
XAxis mode: Wavelengths
Number of Pixels in Spectrum: 3648
>>>>>Begin Spectral Data<<<<<
178.204	-300.37
178.424	-300.37
178.644	-300.37
178.864	-380.24
179.084	-423.25
179.304	60.07
179.524	-15.7
179.744	68.27
179.964	39.59
180.184	58.03
180.404	8.87
180.624	-103.76
180.844	-23.89
181.064	-40.28
181.283	41.64
181.503	-97.62
181.723	4.78
181.943	-93.52
182.163	133.8
182.383	-5.46
182.602	125.61
182.822	62.12
183.042	55.98
183.262	-60.76
183.482	12.97
183.701	37.55
183.921	-3.41
184.141	4.78
184.361	62.12
184.58	62.12
184.8	98.99
185.02	21.16
185.239	96.94
185.459	105.13
185.679	137.9
185.898	-38.23
186.118	98.99
186.338	58.03
186.557	103.08
186.777	39.59
186.997	0.68
187.216	19.11
187.436	131.75
187.655	45.74
187.875	98.99
188.095	2.73
188.314	98.99
188.534	150.18
188.753	-25.94
188.973	180.9
189.192	139.94
189.412	-38.23
189.631	-21.85
189.851	70.31
190.07	156.33
190.29	-40.28
190.509	94.89
190.729	66.22
190.948	94.89
191.168	293.54
191.387	111.27
191.607	-13.65
191.826	62.12
192.045	35.5
192.265	27.31
192.484	78.51
192.704	70.31
192.923	-73.04
193.142	197.29
193.362	135.85
193.581	94.89
193.8	66.22
194.02	49.83
194.239	29.35
194.458	98.99
194.678	144.04
194.897	-19.8
195.116	62.12
195.335	70.31
195.555	119.46
195.774	-9.56
195.993	74.41
196.212	8.87
196.432	45.74
196.651	43.69
196.87	76.46
197.089	215.72
197.308	35.5
197.528	12.97
197.747	-99.67
197.966	78.51
198.185	86.7
198.404	76.46
198.623	70.31
198.842	70.31
199.062	66.22
199.281	43.69
199.5	123.56
199.719	72.36
199.938	68.27
200.157	90.79
200.376	107.18
200.595	133.8
200.814	53.93
201.033	74.41
201.252	117.42
201.471	86.7
201.69	29.35
201.909	70.31
202.128	117.42
202.347	84.65
202.566	37.55
202.785	10.92
203.004	4.78
203.223	230.06
203.442	92.84
203.661	-79.19
203.879	109.22
204.098	176.81
204.317	21.16
204.536	148.14
204.755	72.36
204.974	47.79
205.193	10.92
205.411	115.37
205.63	68.27
205.849	19.11
206.068	8.87
206.287	53.93
206.505	74.41
206.724	8.87
206.943	31.4
207.162	68.27
207.381	80.55
207.599	41.64
207.818	90.79
208.037	-7.51
208.255	80.55
208.474	58.03
208.693	29.35
208.911	39.59
209.13	74.41
209.349	150.18
209.567	127.66
209.786	133.8
210.005	101.03
210.223	94.89
210.442	-73.04
210.661	-3.41
210.879	86.7
211.098	-9.56
211.316	47.79
211.535	129.7
211.753	60.07
211.972	101.03
212.191	8.87
212.409	0.68
212.628	127.66
212.846	-23.89
213.065	43.69
213.283	150.18
213.502	33.45
213.72	90.79
213.938	51.88
214.157	-38.23
214.375	76.46
214.594	-25.94
214.812	66.22
215.031	84.65
215.249	21.16
215.467	68.27
215.686	58.03
215.904	90.79
216.122	41.64
216.341	98.99
216.559	123.56
216.778	107.18
216.996	135.85
217.214	37.55
217.432	-44.37
217.651	-17.75
217.869	47.79
218.087	74.41
218.306	-27.99
218.524	66.22
218.742	-38.23
218.96	150.18
219.179	68.27
219.397	39.59
219.615	185
219.833	68.27
220.051	-71
220.27	66.22
220.488	113.32
220.706	-23.89
220.924	37.55
221.142	29.35
221.36	94.89
221.578	111.27
221.796	90.79
222.015	66.22
222.233	90.79
222.451	178.86
222.669	8.87
222.887	154.28
223.105	2.73
223.323	62.12
223.541	17.07
223.759	55.98
223.977	86.7
224.195	127.66
224.413	197.29
224.631	84.65
224.849	117.42
225.067	199.34
225.285	37.55
225.503	76.46
225.721	-54.61
225.939	86.7
226.157	98.99
226.375	254.63
226.592	0.68
226.81	-23.89
227.028	137.9
227.246	133.8
227.464	111.27
227.682	96.94
227.9	168.62
228.117	43.69
228.335	103.08
228.553	103.08
228.771	84.65
228.989	68.27
229.206	103.08
229.424	31.4
229.642	12.97
229.86	19.11
230.077	74.41
230.295	33.45
230.513	70.31
230.731	111.27
230.948	223.91
231.166	160.42
231.384	29.35
231.601	19.11
231.819	182.95
232.037	-58.71
232.254	-13.65
232.472	76.46
232.689	49.83
232.907	111.27
233.125	-15.7
233.342	-32.08
233.56	66.22
233.777	12.97
233.995	103.08
234.213	156.33
234.43	8.87
234.648	35.5
234.865	33.45
235.083	107.18
235.3	74.41
235.518	80.55
235.735	113.32
235.953	103.08
236.17	31.4
236.388	4.78
236.605	64.17
236.822	68.27
237.04	133.8
237.257	62.12
237.475	-7.51
237.692	96.94
237.909	0.68
238.127	19.11
238.344	68.27
238.562	8.87
238.779	-56.66
238.996	29.35
239.214	78.51
239.431	94.89
239.648	-91.48
239.865	119.46
240.083	86.7
240.3	45.74
240.517	29.35
240.735	45.74
240.952	133.8
241.169	76.46
241.386	90.79
241.603	-5.46
241.821	-44.37
242.038	82.6
242.255	135.85
242.472	-17.75
242.689	119.46
242.907	115.37
243.124	80.55
243.341	66.22
243.558	-3.41
243.775	45.74
243.992	10.92
244.209	119.46
244.426	148.14
244.643	35.5
244.86	19.11
245.078	90.79
245.295	94.89
245.512	35.5
245.729	-3.41
245.946	33.45
246.163	90.79
246.38	70.31
246.597	70.31
246.814	62.12
247.031	12.97
247.248	-9.56
247.464	29.35
247.681	117.42
247.898	37.55
248.115	62.12
248.332	-34.13
248.549	193.19
248.766	144.04
248.983	133.8
249.2	127.66
249.417	123.56
249.633	27.31
249.85	103.08
250.067	119.46
250.284	41.64
250.501	60.07
250.717	53.93
250.934	-38.23
251.151	78.51
251.368	-1.37
251.585	29.35
251.801	55.98
252.018	-23.89
252.235	141.99
252.451	-7.51
252.668	0.68
252.885	133.8
253.102	88.75
253.318	-60.76
253.535	31.4
253.752	39.59
253.968	25.26
254.185	35.5
254.401	101.03
254.618	119.46
254.835	-11.61
255.051	172.71
255.268	35.5
255.484	33.45
255.701	70.31
255.917	78.51
256.134	37.55
256.351	10.92
256.567	21.16
256.784	29.35
257	12.97
257.217	68.27
257.433	94.89
257.65	51.88
257.866	115.37
258.082	17.07
258.299	37.55
258.515	58.03
258.732	27.31
258.948	60.07
259.165	51.88
259.381	45.74
259.597	90.79
259.814	60.07
260.03	45.74
260.246	43.69
260.463	148.14
260.679	137.9
260.895	62.12
261.112	101.03
261.328	60.07
261.544	-30.04
261.761	119.46
261.977	-11.61
262.193	-3.41
262.409	66.22
262.626	94.89
262.842	0.68
263.058	0.68
263.274	25.26
263.49	146.09
263.707	103.08
263.923	115.37
264.139	-30.04
264.355	107.18
264.571	94.89
264.787	51.88
265.004	144.04
265.22	21.16
265.436	-9.56
265.652	-23.89
265.868	58.03
266.084	-3.41
266.3	109.22
266.516	-21.85
266.732	189.1
266.948	39.59
267.164	51.88
267.38	94.89
267.596	96.94
267.812	168.62
268.028	76.46
268.244	17.07
268.46	68.27
268.676	84.65
268.892	105.13
269.108	8.87
269.324	10.92
269.54	-85.33
269.756	105.13
269.972	-30.04
270.188	43.69
270.403	-15.7
270.619	76.46
270.835	84.65
271.051	25.26
271.267	-7.51
271.483	15.02
271.698	66.22
271.914	66.22
272.13	27.31
272.346	86.7
272.562	144.04
272.777	90.79
272.993	25.26
273.209	10.92
273.425	129.7
273.64	-15.7
273.856	92.84
274.072	33.45
274.287	43.69
274.503	70.31
274.719	78.51
274.934	25.26
275.15	-52.56
275.366	-19.8
275.581	10.92
275.797	41.64
276.012	92.84
276.228	35.5
276.444	-19.8
276.659	111.27
276.875	0.68
277.09	19.11
277.306	4.78
277.521	55.98
277.737	-1.37
277.952	47.79
278.168	12.97
278.383	25.26
278.599	115.37
278.814	78.51
279.03	101.03
279.245	148.14
279.461	15.02
279.676	144.04
279.892	-46.42
280.107	-3.41
280.322	49.83
280.538	41.64
280.753	45.74
280.969	92.84
281.184	12.97
281.399	146.09
281.615	94.89
281.83	111.27
282.045	4.78
282.26	-32.08
282.476	125.61
282.691	62.12
282.906	58.03
283.122	101.03
283.337	27.31
283.552	129.7
283.767	27.31
283.983	119.46
284.198	17.07
284.413	29.35
284.628	-13.65
284.843	51.88
285.058	103.08
285.274	-17.75
285.489	-38.23
285.704	66.22
285.919	-7.51
286.134	37.55
286.349	4.78
286.564	-23.89
286.779	164.52
286.995	74.41
287.21	-13.65
287.425	68.27
287.64	-17.75
287.855	123.56
288.07	21.16
288.285	185
288.5	166.57
288.715	127.66
288.93	-7.51
289.145	-21.85
289.36	160.42
289.575	51.88
289.79	115.37
290.004	12.97
290.219	88.75
290.434	25.26
290.649	-34.13
290.864	12.97
291.079	33.45
291.294	4.78
291.509	35.5
291.724	62.12
291.938	107.18
292.153	158.38
292.368	29.35
292.583	115.37
292.798	66.22
293.012	27.31
293.227	96.94
293.442	-38.23
293.657	51.88
293.871	117.42
294.086	135.85
294.301	133.8
294.516	68.27
294.73	21.16
294.945	-7.51
295.16	41.64
295.374	127.66
295.589	137.9
295.804	29.35
296.018	70.31
296.233	176.81
296.447	74.41
296.662	43.69
296.877	103.08
297.091	92.84
297.306	45.74
297.52	2.73
297.735	17.07
297.949	23.21
298.164	60.07
298.378	8.87
298.593	15.02
298.807	33.45
299.022	12.97
299.236	141.99
299.451	-21.85
299.665	76.46
299.88	47.79
300.094	29.35
300.309	-9.56
300.523	101.03
300.737	49.83
300.952	37.55
301.166	64.17
301.381	0.68
301.595	27.31
301.809	51.88
302.024	10.92
302.238	23.21
302.452	139.94
302.667	101.03
302.881	182.95
303.095	152.23
303.309	117.42
303.524	-32.08
303.738	66.22
303.952	-50.52
304.166	101.03
304.381	-73.04
304.595	78.51
304.809	12.97
305.023	82.6
305.237	74.41
305.452	10.92
305.666	111.27
305.88	103.08
306.094	168.62
306.308	78.51
306.522	92.84
306.736	78.51
306.95	152.23
307.164	103.08
307.379	33.45
307.593	96.94
307.807	139.94
308.021	98.99
308.235	127.66
308.449	-83.28
308.663	58.03
308.877	238.25
309.091	4.78
309.305	72.36
309.519	-75.09
309.733	92.84
309.947	74.41
310.161	39.59
310.374	109.22
310.588	76.46
310.802	21.16
311.016	23.21
311.23	127.66
311.444	19.11
311.658	45.74
311.872	127.66
312.085	139.94
312.299	119.46
312.513	135.85
312.727	21.16
312.941	-52.56
313.154	105.13
313.368	35.5
313.582	70.31
313.796	29.35
314.009	58.03
314.223	70.31
314.437	94.89
314.651	129.7
314.864	-48.47
315.078	37.55
315.292	-32.08
315.505	10.92
315.719	25.26
315.933	10.92
316.146	-3.41
316.36	-3.41
316.573	66.22
316.787	53.93
317.001	62.12
317.214	-36.18
317.428	25.26
317.641	109.22
317.855	68.27
318.068	25.26
318.282	66.22
318.495	168.62
318.709	6.83
318.922	41.64
319.136	168.62
319.349	144.04
319.563	8.87
319.776	17.07
319.99	-13.65
320.203	78.51
320.417	70.31
320.63	107.18
320.843	139.94
321.057	19.11
321.27	-32.08
321.483	121.51
321.697	76.46
321.91	29.35
322.124	8.87
322.337	109.22
322.55	-40.28
322.763	119.46
322.977	-11.61
323.19	17.07
323.403	101.03
323.617	115.37
323.83	68.27
324.043	4.78
324.256	66.22
324.469	-30.04
324.683	131.75
324.896	74.41
325.109	27.31
325.322	31.4
325.535	82.6
325.748	111.27
325.962	58.03
326.175	53.93
326.388	131.75
326.601	141.99
326.814	80.55
327.027	49.83
327.24	133.8
327.453	-21.85
327.666	107.18
327.879	123.56
328.092	109.22
328.305	98.99
328.518	-89.43
328.731	43.69
328.944	12.97
329.157	123.56
329.37	15.02
329.583	156.33
329.796	152.23
330.009	-79.19
330.222	103.08
330.435	64.17
330.648	51.88
330.861	111.27
331.073	33.45
331.286	80.55
331.499	105.13
331.712	-27.99
331.925	-13.65
332.138	55.98
332.35	144.04
332.563	29.35
332.776	117.42
332.989	4.78
333.202	25.26
333.414	74.41
333.627	-48.47
333.84	-19.8
334.053	68.27
334.265	-73.04
334.478	78.51
334.691	49.83
334.903	12.97
335.116	-19.8
335.329	84.65
335.541	78.51
335.754	141.99
335.966	8.87
336.179	51.88
336.392	19.11
336.604	53.93
336.817	105.13
337.029	70.31
337.242	129.7
337.454	131.75
337.667	-40.28
337.88	185
338.092	10.92
338.305	62.12
338.517	-17.75
338.729	129.7
338.942	146.09
339.154	-15.7
339.367	-44.37
339.579	111.27
339.792	21.16
340.004	141.99
340.217	47.79
340.429	101.03
340.641	12.97
340.854	-46.42
341.066	29.35
341.278	113.32
341.491	133.8
341.703	90.79
341.915	29.35
342.128	94.89
342.34	-34.13
342.552	-66.9
342.764	119.46
342.977	74.41
343.189	21.16
343.401	51.88
343.613	-175.44
343.826	68.27
344.038	55.98
344.25	27.31
344.462	21.16
344.674	88.75
344.886	43.69
345.099	37.55
345.311	8.87
345.523	60.07
345.735	-93.52
345.947	31.4
346.159	17.07
346.371	119.46
346.583	53.93
346.795	209.58
347.007	72.36
347.219	43.69
347.431	19.11
347.643	156.33
347.855	-62.8
348.067	162.47
348.279	-25.94
348.491	-15.7
348.703	49.83
348.915	66.22
349.127	21.16
349.339	109.22
349.551	4.78
349.763	109.22
349.975	2.73
350.187	150.18
350.399	191.14
350.61	60.07
350.822	101.03
351.034	27.31
351.246	51.88
351.458	111.27
351.669	45.74
351.881	131.75
352.093	127.66
352.305	113.32
352.517	19.11
352.728	103.08
352.94	78.51
353.152	72.36
353.363	-7.51
353.575	113.32
353.787	131.75
353.999	29.35
354.21	191.14
354.422	-19.8
354.633	37.55
354.845	29.35
355.057	64.17
355.268	45.74
355.48	45.74
355.692	8.87
355.903	53.93
356.115	-11.61
356.326	-32.08
356.538	121.51
356.749	127.66
356.961	119.46
357.172	64.17
357.384	-27.99
357.595	201.38
357.807	-9.56
358.018	-32.08
358.23	37.55
358.441	127.66
358.653	43.69
358.864	-5.46
359.075	80.55
359.287	58.03
359.498	105.13
359.709	105.13
359.921	43.69
360.132	111.27
360.344	8.87
360.555	15.02
360.766	78.51
360.977	51.88
361.189	105.13
361.4	86.7
361.611	66.22
361.823	152.23
362.034	35.5
362.245	-68.95
362.456	49.83
362.667	88.75
362.879	29.35
363.09	78.51
363.301	62.12
363.512	98.99
363.723	49.83
363.935	41.64
364.146	86.7
364.357	78.51
364.568	80.55
364.779	12.97
364.99	146.09
365.201	49.83
365.412	152.23
365.623	-87.38
365.834	58.03
366.045	-19.8
366.256	115.37
366.467	15.02
366.678	-48.47
366.889	43.69
367.1	25.26
367.311	168.62
367.522	-62.8
367.733	68.27
367.944	111.27
368.155	84.65
368.366	84.65
368.577	113.32
368.788	105.13
368.999	39.59
369.209	62.12
369.42	238.25
369.631	152.23
369.842	103.08
370.053	60.07
370.264	70.31
370.474	-1.37
370.685	-5.46
370.896	21.16
371.107	82.6
371.317	66.22
371.528	62.12
371.739	96.94
371.95	84.65
372.16	135.85
372.371	-44.37
372.582	-27.99
372.792	119.46
373.003	101.03
373.214	115.37
373.424	21.16
373.635	-83.28
373.846	174.76
374.056	62.12
374.267	37.55
374.477	115.37
374.688	107.18
374.898	98.99
375.109	74.41
375.319	148.14
375.53	94.89
375.74	213.67
375.951	107.18
376.161	12.97
376.372	103.08
376.582	70.31
376.793	37.55
377.003	37.55
377.214	19.11
377.424	74.41
377.635	49.83
377.845	70.31
378.055	180.9
378.266	-58.71
378.476	82.6
378.686	33.45
378.897	72.36
379.107	105.13
379.317	88.75
379.528	33.45
379.738	39.59
379.948	2.73
380.158	64.17
380.369	17.07
380.579	60.07
380.789	10.92
380.999	96.94
381.21	115.37
381.42	144.04
381.63	27.31
381.84	180.9
382.05	90.79
382.261	78.51
382.471	117.42
382.681	4.78
382.891	129.7
383.101	21.16
383.311	-19.8
383.521	-44.37
383.731	82.6
383.941	148.14
384.151	105.13
384.361	111.27
384.571	21.16
384.781	45.74
384.991	207.53
385.201	131.75
385.411	70.31
385.621	107.18
385.831	68.27
386.041	62.12
386.251	68.27
386.461	101.03
386.671	125.61
386.881	80.55
387.091	27.31
387.301	90.79
387.511	2.73
387.72	49.83
387.93	29.35
388.14	35.5
388.35	76.46
388.56	164.52
388.769	90.79
388.979	90.79
389.189	-25.94
389.399	68.27
389.609	133.8
389.818	133.8
390.028	66.22
390.238	29.35
390.447	43.69
390.657	101.03
390.867	-5.46
391.076	19.11
391.286	45.74
391.496	37.55
391.705	-27.99
391.915	29.35
392.125	137.9
392.334	-3.41
392.544	109.22
392.753	41.64
392.963	4.78
393.172	74.41
393.382	35.5
393.591	193.19
393.801	2.73
394.01	162.47
394.22	154.28
394.429	-11.61
394.639	6.83
394.848	80.55
395.058	82.6
395.267	-38.23
395.477	68.27
395.686	125.61
395.895	189.1
396.105	131.75
396.314	111.27
396.524	90.79
396.733	35.5
396.942	162.47
397.152	39.59
397.361	107.18
397.57	62.12
397.78	4.78
397.989	27.31
398.198	180.9
398.407	98.99
398.617	51.88
398.826	4.78
399.035	25.26
399.244	72.36
399.453	58.03
399.663	45.74
399.872	166.57
400.081	33.45
400.29	111.27
400.499	-15.7
400.708	156.33
400.917	96.94
401.127	-27.99
401.336	74.41
401.545	217.77
401.754	41.64
401.963	113.32
402.172	74.41
402.381	4.78
402.59	70.31
402.799	45.74
403.008	103.08
403.217	68.27
403.426	131.75
403.635	-17.75
403.844	-3.41
404.053	86.7
404.262	-5.46
404.471	117.42
404.68	137.9
404.888	135.85
405.097	2.73
405.306	41.64
405.515	45.74
405.724	10.92
405.933	103.08
406.142	43.69
406.35	103.08
406.559	-27.99
406.768	111.27
406.977	125.61
407.185	105.13
407.394	115.37
407.603	-46.42
407.812	72.36
408.02	160.42
408.229	76.46
408.438	109.22
408.646	-56.66
408.855	21.16
409.064	33.45
409.272	-3.41
409.481	125.61
409.69	17.07
409.898	-11.61
410.107	78.51
410.315	101.03
410.524	53.93
410.733	49.83
410.941	37.55
411.15	172.71
411.358	107.18
411.567	101.03
411.775	37.55
411.984	70.31
412.192	111.27
412.401	51.88
412.609	180.9
412.818	127.66
413.026	49.83
413.234	37.55
413.443	31.4
413.651	37.55
413.86	-1.37
414.068	90.79
414.276	170.66
414.485	78.51
414.693	115.37
414.901	119.46
415.11	-15.7
415.318	94.89
415.526	41.64
415.734	135.85
415.943	37.55
416.151	111.27
416.359	17.07
416.567	78.51
416.776	94.89
416.984	107.18
417.192	178.86
417.4	94.89
417.608	64.17
417.817	12.97
418.025	70.31
418.233	96.94
418.441	35.5
418.649	-21.85
418.857	70.31
419.065	60.07
419.273	-34.13
419.481	92.84
419.689	47.79
419.897	-30.04
420.105	-56.66
420.313	121.51
420.521	148.14
420.729	135.85
420.937	90.79
421.145	12.97
421.353	135.85
421.561	176.81
421.769	60.07
421.977	8.87
422.185	86.7
422.393	148.14
422.601	152.23
422.809	123.56
423.017	70.31
423.224	78.51
423.432	107.18
423.64	88.75
423.848	160.42
424.056	-7.51
424.263	164.52
424.471	51.88
424.679	148.14
424.887	37.55
425.094	80.55
425.302	92.84
425.51	84.65
425.718	86.7
425.925	111.27
426.133	60.07
426.341	101.03
426.548	74.41
426.756	17.07
426.964	119.46
427.171	-17.75
427.379	10.92
427.586	82.6
427.794	101.03
428.001	150.18
428.209	94.89
428.417	178.86
428.624	43.69
428.832	119.46
429.039	131.75
429.247	94.89
429.454	154.28
429.662	168.62
429.869	113.32
430.076	162.47
430.284	197.29
430.491	156.33
430.699	180.9
430.906	209.58
431.114	94.89
431.321	103.08
431.528	84.65
431.736	115.37
431.943	115.37
432.15	111.27
432.358	203.43
432.565	185
432.772	94.89
432.979	185
433.187	154.28
433.394	182.95
433.601	154.28
433.808	268.97
434.016	205.48
434.223	180.9
434.43	256.68
434.637	185
434.844	305.83
435.052	271.01
435.259	340.65
435.466	262.82
435.673	250.53
435.88	182.95
436.087	344.74
436.294	340.65
436.501	389.8
436.708	332.45
436.915	258.73
437.122	346.79
437.329	316.07
437.537	406.18
437.743	297.64
437.95	420.52
438.157	354.98
438.364	324.26
438.571	361.13
438.778	434.85
438.985	449.19
439.192	500.39
439.399	363.17
439.606	471.72
439.813	545.44
440.02	512.67
440.227	610.98
440.433	473.76
440.64	551.59
440.847	545.44
441.054	500.39
441.261	658.08
441.467	613.03
441.674	514.72
441.881	709.28
442.088	617.12
442.294	602.79
442.501	780.96
442.708	780.96
442.914	742.05
443.121	848.54
443.328	844.45
443.534	979.61
443.741	877.21
443.948	793.25
444.154	950.94
444.361	1120.92
444.568	987.8
444.774	950.94
444.981	938.65
445.187	1067.67
445.394	1176.22
445.6	1186.46
445.807	1225.37
446.013	1182.36
446.22	1196.7
446.426	1307.29
446.633	1378.97
446.839	1495.7
447.046	1378.97
447.252	1516.18
447.459	1544.85
447.665	1555.09
447.871	1659.54
448.078	1856.14
448.284	1821.33
448.491	1876.62
448.697	2011.79
448.903	1909.39
449.11	2083.47
449.316	2189.96
449.522	2169.48
449.728	2249.35
449.935	2411.14
450.141	2368.13
450.347	2617.99
450.553	2513.54
450.76	2583.17
450.966	2771.58
451.172	2871.93
451.378	2951.81
451.584	3119.74
451.791	3158.65
451.997	3254.9
452.203	3560.05
452.409	3564.15
452.615	3756.66
452.821	3641.97
453.027	3750.51
453.233	4026.99
453.44	3852.91
453.646	4211.31
453.852	4301.42
454.058	4481.64
454.264	4657.76
454.47	5110.36
454.676	5040.73
454.882	5612.12
455.088	5208.67
455.294	5472.86
455.5	5853.78
455.705	6249.04
455.911	6195.79
456.117	6378.06
456.323	6707.78
456.529	6654.53
456.735	7158.33
456.941	7420.47
457.147	7723.57
457.352	7891.51
457.558	8174.13
457.764	8442.41
457.97	8806.95
458.176	9095.71
458.381	9576.98
458.587	9671.19
458.793	10146.32
458.999	10236.43
459.204	11553.27
459.41	11862.52
459.616	11731.45
459.821	12366.32
460.027	12909.03
460.233	13492.7
460.438	13574.62
460.644	14365.14
460.85	14504.4
461.055	14930.37
461.261	15595.96
461.466	15489.47
461.672	15923.64
461.878	17764.76
462.083	17506.72
462.289	17510.82
462.494	18487.7
462.7	18489.74
462.905	18657.68
463.111	20308.34
463.316	21639.52
463.522	21772.64
463.727	22387.03
463.932	23243.08
464.138	23949.63
464.343	24936.75
464.549	25303.34
464.754	27019.53
464.959	27648.26
465.165	28154.11
465.37	27644.16
465.575	28076.29
465.781	29714.66
465.986	30916.82
466.191	30357.72
466.397	30468.31
466.602	29991.14
466.807	31697.1
467.012	31760.58
467.218	32614.58
467.423	32620.73
467.628	33325.23
467.833	35379.34
468.038	34658.46
468.244	33888.42
468.449	36049.03
468.654	34945.17
468.859	35221.65
469.064	35080.34
469.269	34273.44
469.474	34637.98
469.679	35752.07
469.885	34580.63
470.09	35025.04
470.295	35141.78
470.5	34453.66
470.705	34732.18
470.91	33798.31
471.115	33407.15
471.32	33321.13
471.525	33427.63
471.73	32520.38
471.935	32225.47
472.139	31340.75
472.344	31127.76
472.549	31330.51
472.754	30433.5
472.959	29526.25
473.164	28911.86
473.369	28326.14
473.574	29190.38
473.778	28616.95
473.983	28236.03
474.188	27652.36
474.393	26306.84
474.598	26290.46
474.802	25680.16
475.007	25272.62
475.212	25233.71
475.417	24054.08
475.621	23945.53
475.826	23681.35
476.031	23073.1
476.235	22618.45
476.44	22677.84
476.645	22081.88
476.849	21936.48
477.054	21311.85
477.259	20844.91
477.463	20959.59
477.668	20291.96
477.872	20271.48
478.077	19927.42
478.282	19181.96
478.486	19382.66
478.691	18850.19
478.895	18862.47
479.1	18606.48
479.304	18459.02
479.509	17725.85
479.713	18293.14
479.918	17564.06
480.122	17367.46
480.326	17328.55
480.531	17293.73
480.735	17093.03
480.94	16964.01
481.144	17244.58
481.348	16644.52
481.553	16773.55
481.757	16144.82
481.961	16402.86
482.166	16105.91
482.37	16284.08
482.574	15733.18
482.778	16101.81
482.983	15911.35
483.187	15677.88
483.391	15503.81
483.595	15241.67
483.8	15206.85
484.004	15278.53
484.208	15106.5
484.412	14901.7
484.616	14594.51
484.821	14709.19
485.025	14107.09
485.229	14146
485.433	13887.96
485.637	13863.38
485.841	13636.06
486.045	13421.02
486.249	13335.01
486.453	12964.32
486.657	12923.37
486.861	12906.98
487.065	12335.6
487.269	12290.54
487.473	11885.05
487.677	12018.16
487.881	11926
488.085	11678.2
488.289	11629.05
488.493	11147.78
488.697	11094.53
488.901	10981.89
489.105	10709.51
489.309	10449.42
489.512	10160.66
489.716	9851.41
489.92	9892.37
490.124	9726.49
490.328	9732.63
490.531	9376.28
490.735	9255.45
490.939	9009.7
491.143	8880.68
491.346	8815.14
491.55	8624.68
491.754	8727.08
491.958	8411.69
492.161	8256.04
492.365	8163.89
492.569	7817.78
492.772	7735.86
492.976	7834.16
493.18	7635.51
493.383	7615.03
493.587	7549.5
493.79	7647.8
493.994	7236.16
494.197	7168.57
494.401	7094.85
494.605	6967.87
494.808	7121.47
495.012	6988.35
495.215	6859.33
495.419	7060.03
495.622	6658.63
495.825	6668.87
496.029	6605.38
496.232	6707.78
496.436	6722.12
496.639	6689.35
496.843	6341.19
497.046	6562.37
497.249	6572.61
497.453	6582.85
497.656	6539.85
497.859	6529.61
498.063	6607.43
498.266	6875.71
498.469	6439.5
498.673	6642.25
498.876	6543.94
499.079	6619.72
499.282	6795.84
499.485	6877.76
499.689	6812.23
499.892	6810.18
500.095	6787.65
500.298	7066.17
500.501	6812.23
500.705	6914.63
500.908	7000.64
501.111	6877.76
501.314	7082.56
501.517	7232.06
501.72	7399.99
501.923	7209.53
502.126	7373.37
502.329	7375.42
502.532	7373.37
502.735	7430.71
502.938	7694.9
503.141	7715.38
503.344	7836.21
503.547	7959.09
503.75	7952.95
503.953	8200.75
504.156	8423.98
504.359	8335.92
504.562	8344.11
504.765	8530.47
504.968	8765.99
505.17	8882.72
505.373	9138.72
505.576	9101.86
505.779	9009.7
505.982	9112.1
506.185	9591.32
506.387	9533.98
506.59	9962
506.793	9957.91
506.996	10064.4
507.198	10535.43
507.401	10490.38
507.604	10539.53
507.807	10928.64
508.009	11098.63
508.212	11332.09
508.415	11559.42
508.617	11643.38
508.82	11823.61
509.022	12038.64
509.225	12390.89
509.428	12593.64
509.63	12866.02
509.833	13193.7
510.035	13515.23
510.238	13605.34
510.44	13943.25
510.643	14369.23
510.845	14518.73
511.048	15002.05
511.25	14969.29
511.453	15086.02
511.655	15964.6
511.858	16095.67
512.06	16495.02
512.262	16812.46
512.465	17166.76
512.667	17639.84
512.87	17926.55
513.072	18399.63
513.274	18913.67
513.477	19403.14
513.679	19816.83
513.881	20021.63
514.084	20656.5
514.286	21234.02
514.488	21244.26
514.69	21926.24
514.893	22210.9
515.095	22610.26
515.297	23462.21
515.499	23585.09
515.701	24342.84
515.904	24930.61
516.106	25110.83
516.308	25999.65
516.51	26607.89
516.712	26712.34
516.914	27433.22
517.116	27986.18
517.318	28434.68
517.52	28676.34
517.722	29161.71
517.925	30058.72
518.127	30701.78
518.329	30806.23
518.531	31281.36
518.733	32274.62
518.935	32557.24
519.136	32981.17
519.338	33489.07
519.54	34080.93
519.742	34554.01
519.944	35209.36
520.146	35578
520.348	36296.83
520.55	36905.08
520.752	36980.85
520.954	37599.34
521.155	37935.21
521.357	38377.57
521.559	38975.58
521.761	39417.94
521.963	39917.64
522.164	39919.69
522.366	40310.85
522.568	40769.6
522.77	40843.32
522.971	41977.9
523.173	40833.08
523.375	42014.76
523.576	41717.81
523.778	41912.36
523.98	42674.21
524.181	43087.9
524.383	42915.87
524.584	43821.07
524.786	43038.75
524.988	42713.12
525.189	43837.45
525.391	43550.74
525.592	43751.44
525.794	43882.51
525.995	43876.37
526.197	43460.63
526.398	43718.67
526.6	43497.49
526.801	43124.76
527.003	43399.19
527.204	43278.36
527.406	43538.45
527.607	42788.89
527.808	42940.44
528.01	42072.1
528.211	42506.27
528.412	42231.85
528.614	41932.84
528.815	41789.49
529.016	41588.78
529.218	40871.99
529.419	40898.62
529.62	40462.4
529.822	40327.24
530.023	39618.64
530.224	39538.77
530.425	39170.13
530.626	38240.36
530.828	38115.43
531.029	38025.32
531.23	37410.93
531.431	37337.2
531.632	36903.03
531.833	36518.01
532.035	36200.58
532.236	35600.52
532.437	35035.28
532.638	34345.12
532.839	34357.41
533.04	33886.37
533.241	32917.68
533.442	33441.96
533.643	32579.77
533.844	32374.97
534.045	31389.9
534.246	31408.33
534.447	31070.42
534.648	30437.59
534.849	30193.89
535.05	29755.62
535.251	29253.87
535.451	29206.76
535.652	28453.11
535.853	28199.16
536.054	27797.76
536.255	27509
536.456	26874.13
536.657	26929.42
536.857	26292.51
537.058	26384.66
537.259	25704.74
537.46	25669.92
537.66	24623.41
537.861	24580.4
538.062	24062.27
538.263	23923.01
538.463	23546.18
538.664	23560.52
538.865	23112.01
539.065	22974.8
539.266	22223.19
539.466	22626.64
539.667	21602.66
539.868	22083.93
540.068	21356.9
540.269	21035.37
540.469	21154.15
540.67	20748.65
540.87	20519.28
541.071	20210.04
541.271	20328.82
541.472	19997.05
541.672	19476.87
541.873	19224.97
542.073	18919.82
542.274	19038.6
542.474	18612.62
542.675	18516.37
542.875	18444.69
543.075	18092.44
543.276	17562.01
543.476	17801.63
543.676	17306.02
543.877	17191.33
544.077	17160.61
544.277	16814.51
544.478	16576.94
544.678	16409.01
544.878	16482.74
545.078	16503.21
545.279	16204.21
545.479	15628.73
545.679	15534.53
545.879	15411.65
546.079	15387.07
546.28	15108.55
546.48	14803.4
546.68	15006.15
546.88	14465.49
547.08	14422.48
547.28	14049.75
547.48	13937.11
547.68	13881.81
547.88	13752.79
548.081	13677.02
548.281	13148.64
548.481	13228.51
548.681	13119.97
548.881	13111.78
549.081	12546.54
549.28	12587.5
549.48	12526.06
549.68	12147.19
549.88	12100.08
550.08	11870.71
550.28	11592.19
550.48	11643.38
550.68	11477.5
550.88	11151.87
551.08	11016.71
551.279	11186.69
551.479	10811.91
551.679	10705.42
551.879	10605.06
552.079	10482.19
552.278	9945.62
552.478	10140.18
552.678	9908.76
552.878	9763.35
553.077	9433.63
553.277	9337.37
553.477	9425.43
553.676	9325.08
553.876	9103.9
554.076	8933.92
554.275	8704.55
554.475	8466.99
554.674	8596.01
554.874	8350.25
555.074	8057.39
555.273	8024.62
555.473	8204.85
555.672	7684.66
555.872	7623.22
556.071	7447.1
556.271	7455.29
556.47	7367.23
556.67	7230.01
556.869	6992.45
557.068	6939.2
557.268	6916.67
557.467	6758.98
557.667	6701.64
557.866	6689.35
558.065	6437.45
558.265	6242.89
558.464	6109.77
558.663	6203.98
558.863	5976.66
559.062	6091.34
559.261	5769.81
559.461	5925.46
559.66	5782.1
559.859	5655.12
560.058	5448.28
560.258	5378.65
560.457	5257.82
560.656	5249.63
560.855	4969.05
561.054	5087.84
561.253	4868.7
561.453	4989.53
561.652	4629.09
561.851	4909.66
562.05	4606.56
562.249	4614.76
562.448	4541.03
562.647	4416.1
562.846	4360.81
563.045	4295.27
563.244	4143.72
563.443	4174.44
563.642	3977.84
563.841	3947.12
564.04	4082.28
564.239	3961.45
564.438	3920.49
564.637	3805.81
564.836	3746.42
565.035	3619.44
565.234	3744.37
565.432	3529.33
565.631	3533.43
565.83	3398.26
566.029	3451.51
566.228	3379.83
566.427	3371.64
566.625	3277.43
566.824	3265.14
567.023	3148.41
567.222	3193.47
567.42	3183.23
567.619	3101.31
567.818	3043.96
568.016	3084.92
568.215	2904.7
568.414	2978.43
568.612	2849.41
568.811	2824.83
569.01	2810.5
569.208	2919.04
569.407	2816.64
569.605	2704
569.804	2710.15
570.002	2642.56
570.201	2527.88
570.4	2536.07
570.598	2493.06
570.797	2454.15
570.995	2464.39
571.193	2331.27
571.392	2327.18
571.59	2173.58
571.789	2181.77
571.987	2169.48
572.186	2189.96
572.384	2173.58
572.582	2155.15
572.781	2097.8
572.979	1929.87
573.177	2024.08
573.376	2058.89
573.574	1933.97
573.772	1946.25
573.971	1864.33
574.169	1755.79
574.367	1903.25
574.565	1817.23
574.763	1862.29
574.962	1729.17
575.16	1669.78
575.358	1677.97
575.556	1563.28
575.754	1600.15
575.952	1657.49
576.151	1639.06
576.349	1591.95
576.547	1464.98
576.745	1606.29
576.943	1421.97
577.141	1569.43
577.339	1413.78
577.537	1493.65
577.735	1528.47
577.933	1391.25
578.131	1262.23
578.329	1421.97
578.527	1260.18
578.725	1282.71
578.923	1122.97
579.121	1372.82
579.319	1108.63
579.516	1272.47
579.714	1354.39
579.912	1180.31
580.11	1098.39
580.308	1069.72
580.506	1090.2
580.704	1026.71
580.901	1090.2
581.099	1198.74
581.297	1034.91
581.495	1106.59
581.692	1036.95
581.89	1141.4
582.088	963.23
582.285	981.66
582.483	1045.15
582.681	973.47
582.878	823.97
583.076	1000.09
583.274	795.29
583.471	977.56
583.669	885.41
583.866	791.2
584.064	811.68
584.262	735.9
584.459	756.38
584.657	789.15
584.854	803.49
585.052	823.97
585.249	836.25
585.447	852.64
585.644	696.99
585.841	823.97
586.039	746.14
586.236	895.64
586.434	756.38
586.631	696.99
586.828	658.08
587.026	748.19
587.223	602.79
587.42	656.03
587.618	797.34
587.815	694.94
588.012	696.99
588.21	649.89
588.407	733.86
588.604	668.32
588.801	615.07
588.999	682.66
589.196	631.46
589.393	586.4
589.59	613.03
589.787	647.84
589.984	604.83
590.182	637.6
590.379	537.25
590.576	582.31
590.773	643.74
590.97	578.21
591.167	647.84
591.364	639.65
591.561	529.06
591.758	664.22
591.955	471.72
592.152	488.1
592.349	584.35
592.546	479.91
592.743	471.72
592.94	606.88
593.137	608.93
593.334	643.74
593.531	627.36
593.727	524.96
593.924	500.39
594.121	619.17
594.318	524.96
594.515	557.73
594.712	729.76
594.908	694.94
595.105	570.02
595.302	518.82
595.499	664.22
595.696	723.62
595.892	537.25
596.089	727.71
596.286	592.55
596.482	735.9
596.679	696.99
596.876	584.35
597.072	783.01
597.269	762.53
597.466	795.29
597.662	705.18
597.859	748.19
598.055	815.77
598.252	858.78
598.448	846.49
598.645	895.64
598.841	856.73
599.038	1061.53
599.234	1014.43
599.431	1092.25
599.627	1104.54
599.824	1172.12
600.02	1073.82
600.217	1055.39
600.413	1266.33
600.609	1198.74
600.806	1497.75
601.002	1348.25
601.198	1307.29
601.395	1553.04
601.591	1522.32
601.787	1561.23
601.984	1733.26
602.18	1616.53
602.376	1712.78
602.572	1815.18
602.769	1938.06
602.965	1960.59
603.161	2081.42
603.357	1909.39
603.553	2159.24
603.75	2130.57
603.946	2196.11
604.142	2468.48
604.338	2439.81
604.534	2419.33
604.73	2525.83
604.926	2669.19
605.122	2855.55
605.318	2740.86
605.514	3007.1
605.71	3078.78
605.906	3197.56
606.102	3332.73
606.298	3412.6
606.494	3388.02
606.69	3601.01
606.886	3592.82
607.082	3668.59
607.278	3805.81
607.474	3768.95
607.67	4055.66
607.866	3963.5
608.062	4330.09
608.257	4407.91
608.453	4299.37
608.649	4477.54
608.845	4723.3
609.041	4606.56
609.236	4971.1
609.432	5177.95
609.628	5425.75
609.824	5505.62
610.019	5401.18
610.215	5554.77
610.411	5927.5
610.606	6201.93
610.802	6064.72
610.998	6228.56
611.193	6384.2
611.389	6468.17
611.584	6791.75
611.78	6988.35
611.976	7055.93
612.171	7434.81
612.367	7459.38
612.562	7668.28
612.758	7932.47
612.953	8030.77
613.149	8325.68
613.344	8436.27
613.539	8604.2
613.735	9030.18
613.93	9304.6
614.126	9503.26
614.321	9751.06
614.517	9908.76
614.712	10154.51
614.907	10406.41
615.103	10799.62
615.298	10988.03
615.493	11239.94
615.688	11272.7
615.884	11928.05
616.079	11893.24
616.274	12429.8
616.47	12564.97
616.665	12964.32
616.86	13253.09
617.055	13756.89
617.25	13920.73
617.445	14346.7
617.641	14442.96
617.836	15225.28
618.031	15360.45
618.226	15774.14
618.421	15970.74
618.616	16261.55
618.811	16630.19
619.006	17256.87
619.201	17439.14
619.396	17887.64
619.591	18139.54
619.786	18782.6
619.981	19143.05
620.176	19829.12
620.371	19843.45
620.566	20463.99
620.761	20867.44
620.956	21217.64
621.151	21510.5
621.346	22176.09
621.541	22325.59
621.735	22985.04
621.93	23142.73
622.125	23644.48
622.32	23796.03
622.515	24684.85
622.709	24807.73
622.904	25344.3
623.099	25555.24
623.294	26431.77
623.488	26525.97
623.683	27259.15
623.878	27089.17
624.072	28078.33
624.267	28418.3
624.462	29243.63
624.656	29077.74
624.851	29743.33
625.046	30126.3
625.24	30664.92
625.435	30832.85
625.629	31496.39
625.824	31973.57
626.018	32362.68
626.213	32121.02
626.407	32927.92
626.602	33042.61
626.796	33620.14
626.991	33765.54
627.185	34013.35
627.38	34255.01
627.574	34465.95
627.768	34388.13
627.963	34654.36
628.157	34719.9
628.352	35289.23
628.546	34617.5
628.74	35514.51
628.935	35041.43
629.129	35152.02
629.323	34666.65
629.517	34695.32
629.712	34824.34
629.906	34261.15
630.1	33685.67
630.294	33994.92
630.489	33102
630.683	33071.28
630.877	32309.44
631.071	31944.9
631.265	31574.22
631.459	30812.37
631.653	29991.14
631.848	29685.99
632.042	29030.64
632.236	28666.1
632.43	27232.52
632.624	27275.53
632.818	26073.37
633.012	25231.66
633.206	24613.17
633.4	23982.4
633.594	22894.93
633.788	22571.35
633.982	21680.48
634.176	20732.27
634.369	20025.72
634.563	19466.63
634.757	18397.59
634.951	18188.69
635.145	17310.11
635.339	16417.2
635.533	15841.72
635.726	15301.06
635.92	14672.33
636.114	13963.73
636.308	13722.07
636.501	13033.96
636.695	12485.1
636.889	12007.92
637.083	11563.51
637.276	10742.28
637.47	10551.82
637.664	10177.04
637.857	9673.24
638.051	9415.19
638.244	9114.14
638.438	8544.81
638.632	8376.87
638.825	7727.67
639.019	7758.39
639.212	7285.31
639.406	6971.97
639.599	6658.63
639.793	6472.26
639.986	6160.97
640.18	6087.25
640.373	5712.47
640.567	5411.42
640.76	5341.79
640.954	5149.28
641.147	4866.66
641.34	4665.96
641.534	4590.18
641.727	4520.55
641.92	4350.57
642.114	4059.76
642.307	3932.78
642.5	3822.19
642.694	3637.88
642.887	3469.94
643.08	3347.06
643.273	3351.16
643.467	3111.55
643.66	3023.48
643.853	2873.98
644.046	2804.35
644.239	2656.9
644.432	2554.5
644.626	2372.23
644.819	2263.69
645.012	2347.65
645.205	2206.34
645.398	2138.76
645.591	2048.65
645.784	1921.68
645.977	1854.09
646.17	1854.09
646.363	1743.5
646.556	1630.87
646.749	1503.89
646.942	1520.28
647.135	1464.98
647.328	1358.49
647.521	1452.69
647.714	1313.43
647.907	1362.58
648.099	1229.46
648.292	1251.99
648.485	1086.11
648.678	1114.78
648.871	1053.34
649.064	1077.91
649.256	959.13
649.449	955.04
649.642	746.14
649.835	826.01
650.027	733.86
650.22	869.02
650.413	856.73
650.605	842.4
650.798	713.38
650.991	785.05
651.183	721.57
651.376	696.99
651.568	756.38
651.761	594.59
651.954	707.23
652.146	643.74
652.339	537.25
652.531	645.79
652.724	514.72
652.916	436.9
653.109	387.75
653.301	570.02
653.494	469.67
653.686	516.77
653.879	514.72
654.071	424.61
654.263	430.76
654.456	342.69
654.648	527.01
654.84	422.56
655.033	379.56
655.225	418.47
655.417	250.53
655.61	479.91
655.802	438.95
655.994	461.48
656.186	260.77
656.379	447.14
656.571	268.97
656.763	266.92
656.955	287.4
657.148	340.65
657.34	357.03
657.532	258.73
657.724	189.1
657.916	258.73
658.108	334.5
658.3	281.25
658.492	215.72
658.684	252.58
658.876	248.49
659.068	193.19
659.26	195.24
659.452	260.77
659.644	205.48
659.836	268.97
660.028	209.58
660.22	232.1
660.412	305.83
660.604	232.1
660.796	158.38
660.988	262.82
661.18	217.77
661.372	260.77
661.563	156.33
661.755	189.1
661.947	84.65
662.139	166.57
662.331	189.1
662.522	217.77
662.714	156.33
662.906	94.89
663.097	185
663.289	105.13
663.481	45.74
663.673	203.43
663.864	201.38
664.056	199.34
664.247	103.08
664.439	172.71
664.631	166.57
664.822	230.06
665.014	152.23
665.205	70.31
665.397	84.65
665.588	176.81
665.78	66.22
665.971	137.9
666.163	109.22
666.354	182.95
666.546	29.35
666.737	115.37
666.929	160.42
667.12	74.41
667.311	176.81
667.503	166.57
667.694	146.09
667.885	121.51
668.077	197.29
668.268	82.6
668.459	119.46
668.651	111.27
668.842	172.71
669.033	74.41
669.224	19.11
669.416	332.45
669.607	33.45
669.798	101.03
669.989	139.94
670.18	53.93
670.371	150.18
670.563	-32.08
670.754	152.23
670.945	182.95
671.136	158.38
671.327	107.18
671.518	185
671.709	193.19
671.9	135.85
672.091	279.21
672.282	146.09
672.473	127.66
672.664	45.74
672.855	146.09
673.046	174.76
673.237	209.58
673.428	131.75
673.619	113.32
673.809	182.95
674	207.53
674.191	205.48
674.382	150.18
674.573	182.95
674.764	193.19
674.954	150.18
675.145	141.99
675.336	45.74
675.527	103.08
675.717	107.18
675.908	125.61
676.099	96.94
676.289	133.8
676.48	19.11
676.671	111.27
676.861	84.65
677.052	66.22
677.243	119.46
677.433	107.18
677.624	279.21
677.814	123.56
678.005	156.33
678.195	197.29
678.386	96.94
678.576	152.23
678.767	66.22
678.957	150.18
679.148	250.53
679.338	236.2
679.529	185
679.719	205.48
679.909	228.01
680.1	197.29
680.29	221.86
680.481	53.93
680.671	207.53
680.861	207.53
681.052	160.42
681.242	182.95
681.432	238.25
681.622	191.14
681.813	92.84
682.003	129.7
682.193	144.04
682.383	215.72
682.573	133.8
682.764	185
682.954	135.85
683.144	152.23
683.334	158.38
683.524	234.15
683.714	197.29
683.904	215.72
684.094	127.66
684.284	121.51
684.474	307.88
684.664	201.38
684.854	240.29
685.044	160.42
685.234	146.09
685.424	266.92
685.614	166.57
685.804	275.11
685.994	180.9
686.184	172.71
686.374	238.25
686.564	180.9
686.753	228.01
686.943	172.71
687.133	152.23
687.323	139.94
687.513	158.38
687.702	189.1
687.892	197.29
688.082	256.68
688.272	271.01
688.461	180.9
688.651	258.73
688.841	176.81
689.03	176.81
689.22	221.86
689.41	230.06
689.599	193.19
689.789	109.22
689.979	299.69
690.168	109.22
690.358	197.29
690.547	146.09
690.737	109.22
690.926	215.72
691.116	189.1
691.305	203.43
691.495	217.77
691.684	117.42
691.874	172.71
692.063	205.48
692.252	197.29
692.442	199.34
692.631	172.71
692.82	185
693.01	152.23
693.199	115.37
693.388	144.04
693.578	135.85
693.767	185
693.956	246.44
694.146	117.42
694.335	168.62
694.524	203.43
694.713	209.58
694.902	150.18
695.092	125.61
695.281	201.38
695.47	127.66
695.659	201.38
695.848	154.28
696.037	62.12
696.226	258.73
696.415	144.04
696.604	256.68
696.793	172.71
696.982	152.23
697.171	297.64
697.36	121.51
697.549	86.7
697.738	66.22
697.927	123.56
698.116	144.04
698.305	195.24
698.494	199.34
698.683	139.94
698.872	217.77
699.061	199.34
699.25	148.14
699.438	217.77
699.627	125.61
699.816	303.78
700.005	111.27
700.193	193.19
700.382	152.23
700.571	176.81
700.76	205.48
700.948	250.53
701.137	281.25
701.326	244.39
701.514	168.62
701.703	172.71
701.892	203.43
702.08	268.97
702.269	172.71
702.457	152.23
702.646	193.19
702.834	168.62
703.023	137.9
703.212	195.24
703.4	213.67
703.589	150.18
703.777	185
703.965	152.23
704.154	103.08
704.342	148.14
704.531	207.53
704.719	211.62
704.907	193.19
705.096	94.89
705.284	82.6
705.472	174.76
705.661	174.76
705.849	248.49
706.037	248.49
706.226	152.23
706.414	172.71
706.602	113.32
706.79	201.38
706.979	70.31
707.167	234.15
707.355	62.12
707.543	205.48
707.731	144.04
707.919	115.37
708.107	115.37
708.296	141.99
708.484	107.18
708.672	127.66
708.86	205.48
709.048	182.95
709.236	88.75
709.424	162.47
709.612	105.13
709.8	82.6
709.988	129.7
710.176	258.73
710.364	219.82
710.551	129.7
710.739	144.04
710.927	236.2
711.115	135.85
711.303	246.44
711.491	240.29
711.679	158.38
711.866	148.14
712.054	135.85
712.242	234.15
712.43	238.25
712.617	109.22
712.805	324.26
712.993	107.18
713.181	185
713.368	178.86
713.556	135.85
713.744	193.19
713.931	295.59
714.119	258.73
714.306	166.57
714.494	230.06
714.682	193.19
714.869	98.99
715.057	180.9
715.244	94.89
715.432	133.8
715.619	193.19
715.807	156.33
715.994	185
716.182	148.14
716.369	225.96
716.556	314.02
716.744	152.23
716.931	105.13
717.119	199.34
717.306	170.66
717.493	242.34
717.681	225.96
717.868	201.38
718.055	211.62
718.242	146.09
718.43	254.63
718.617	209.58
718.804	197.29
718.991	291.49
719.179	242.34
719.366	178.86
719.553	182.95
719.74	193.19
719.927	264.87
720.114	148.14
720.301	176.81
720.488	217.77
720.676	137.9
720.863	266.92
721.05	307.88
721.237	279.21
721.424	242.34
721.611	185
721.798	129.7
721.985	201.38
722.172	164.52
722.358	158.38
722.545	174.76
722.732	185
722.919	316.07
723.106	234.15
723.293	72.36
723.48	213.67
723.667	146.09
723.853	295.59
724.04	283.3
724.227	221.86
724.414	201.38
724.6	277.16
724.787	279.21
724.974	289.45
725.161	133.8
725.347	146.09
725.534	244.39
725.72	228.01
725.907	283.3
726.094	295.59
726.28	158.38
726.467	180.9
726.653	160.42
726.84	389.8
727.027	234.15
727.213	187.05
727.4	295.59
727.586	266.92
727.773	250.53
727.959	201.38
728.145	250.53
728.332	211.62
728.518	189.1
728.705	299.69
728.891	307.88
729.077	332.45
729.264	119.46
729.45	217.77
729.636	199.34
729.823	271.01
730.009	230.06
730.195	246.44
730.382	275.11
730.568	137.9
730.754	213.67
730.94	275.11
731.126	232.1
731.313	283.3
731.499	285.35
731.685	250.53
731.871	279.21
732.057	314.02
732.243	250.53
732.429	324.26
732.615	332.45
732.801	305.83
732.987	250.53
733.173	209.58
733.359	205.48
733.545	225.96
733.731	209.58
733.917	352.93
734.103	297.64
734.289	299.69
734.475	291.49
734.661	402.08
734.847	348.84
735.033	180.9
735.219	299.69
735.404	283.3
735.59	230.06
735.776	187.05
735.962	328.36
736.148	236.2
736.333	307.88
736.519	350.89
736.705	201.38
736.89	289.45
737.076	240.29
737.262	250.53
737.447	291.49
737.633	215.72
737.819	375.46
738.004	287.4
738.19	320.17
738.375	287.4
738.561	273.06
738.747	260.77
738.932	176.81
739.118	424.61
739.303	291.49
739.489	328.36
739.674	199.34
739.859	238.25
740.045	301.73
740.23	342.69
740.416	123.56
740.601	318.12
740.786	322.21
740.972	246.44
741.157	250.53
741.342	234.15
741.528	176.81
741.713	301.73
741.898	234.15
742.084	250.53
742.269	277.16
742.454	316.07
742.639	271.01
742.824	248.49
743.01	307.88
743.195	375.46
743.38	297.64
743.565	248.49
743.75	295.59
743.935	299.69
744.12	320.17
744.305	193.19
744.49	258.73
744.675	266.92
744.86	225.96
745.045	250.53
745.23	213.67
745.415	262.82
745.6	295.59
745.785	234.15
745.97	410.28
746.155	277.16
746.34	332.45
746.525	285.35
746.71	316.07
746.895	189.1
747.079	232.1
747.264	236.2
747.449	344.74
747.634	303.78
747.819	271.01
748.003	223.91
748.188	185
748.373	240.29
748.557	230.06
748.742	242.34
748.927	258.73
749.111	185
749.296	221.86
749.481	330.41
749.665	299.69
749.85	156.33
750.034	260.77
750.219	189.1
750.404	185
750.588	232.1
750.773	258.73
750.957	275.11
751.141	225.96
751.326	268.97
751.51	164.52
751.695	244.39
751.879	291.49
752.064	320.17
752.248	205.48
752.432	303.78
752.617	332.45
752.801	256.68
752.985	168.62
753.17	299.69
753.354	299.69
753.538	248.49
753.722	166.57
753.907	219.82
754.091	86.7
754.275	234.15
754.459	135.85
754.643	94.89
754.828	250.53
755.012	240.29
755.196	154.28
755.38	156.33
755.564	133.8
755.748	109.22
755.932	236.2
756.116	195.24
756.3	217.77
756.484	205.48
756.668	201.38
756.852	45.74
757.036	117.42
757.22	178.86
757.404	94.89
757.588	201.38
757.772	209.58
757.956	92.84
758.14	180.9
758.323	94.89
758.507	268.97
758.691	121.51
758.875	266.92
759.059	248.49
759.242	98.99
759.426	174.76
759.61	189.1
759.794	172.71
759.977	252.58
760.161	307.88
760.345	176.81
760.528	158.38
760.712	168.62
760.895	131.75
761.079	185
761.263	137.9
761.446	103.08
761.63	141.99
761.813	260.77
761.997	119.46
762.18	176.81
762.364	283.3
762.547	33.45
762.731	127.66
762.914	201.38
763.098	107.18
763.281	139.94
763.464	123.56
763.648	197.29
763.831	70.31
764.015	47.79
764.198	209.58
764.381	146.09
764.564	109.22
764.748	144.04
764.931	174.76
765.114	92.84
765.297	135.85
765.481	53.93
765.664	78.51
765.847	137.9
766.03	242.34
766.213	51.88
766.397	135.85
766.58	53.93
766.763	160.42
766.946	76.46
767.129	76.46
767.312	37.55
767.495	74.41
767.678	139.94
767.861	103.08
768.044	199.34
768.227	125.61
768.41	101.03
768.593	144.04
768.776	125.61
768.959	70.31
769.142	141.99
769.324	94.89
769.507	176.81
769.69	111.27
769.873	68.27
770.056	301.73
770.239	127.66
770.421	135.85
770.604	92.84
770.787	29.35
770.97	68.27
771.152	25.26
771.335	74.41
771.518	80.55
771.7	123.56
771.883	211.62
772.066	88.75
772.248	6.83
772.431	168.62
772.613	125.61
772.796	78.51
772.978	105.13
773.161	185
773.343	53.93
773.526	37.55
773.708	51.88
773.891	19.11
774.073	45.74
774.256	70.31
774.438	182.95
774.621	86.7
774.803	115.37
774.985	58.03
775.168	172.71
775.35	68.27
775.532	144.04
775.715	8.87
775.897	123.56
776.079	92.84
776.261	176.81
776.444	133.8
776.626	47.79
776.808	47.79
776.99	-19.8
777.173	94.89
777.355	53.93
777.537	127.66
777.719	154.28
777.901	60.07
778.083	0.68
778.265	66.22
778.447	64.17
778.629	-77.14
778.811	109.22
778.993	82.6
779.175	74.41
779.357	86.7
779.539	2.73
779.721	78.51
779.903	29.35
780.085	23.21
780.267	191.14
780.449	101.03
780.631	146.09
780.812	146.09
780.994	35.5
781.176	96.94
781.358	82.6
781.54	103.08
781.721	129.7
781.903	105.13
782.085	15.02
782.267	172.71
782.448	8.87
782.63	37.55
782.812	80.55
782.993	37.55
783.175	141.99
783.357	45.74
783.538	2.73
783.72	60.07
783.901	88.75
784.083	119.46
784.264	94.89
784.446	-56.66
784.627	-17.75
784.809	131.75
784.99	74.41
785.172	60.07
785.353	25.26
785.535	96.94
785.716	-17.75
785.897	-64.85
786.079	43.69
786.26	103.08
786.441	21.16
786.623	21.16
786.804	4.78
786.985	105.13
787.167	105.13
787.348	90.79
787.529	58.03
787.71	92.84
787.891	154.28
788.073	35.5
788.254	-52.56
788.435	129.7
788.616	103.08
788.797	-30.04
788.978	70.31
789.159	37.55
789.34	66.22
789.522	105.13
789.703	41.64
789.884	51.88
790.065	119.46
790.246	168.62
790.427	2.73
790.607	109.22
790.788	58.03
790.969	-9.56
791.15	62.12
791.331	-44.37
791.512	-13.65
791.693	-64.85
791.874	-5.46
792.054	207.53
792.235	8.87
792.416	-52.56
792.597	21.16
792.778	72.36
792.958	21.16
793.139	37.55
793.32	43.69
793.5	70.31
793.681	115.37
793.862	43.69
794.042	123.56
794.223	-54.61
794.404	82.6
794.584	-36.18
794.765	31.4
794.945	-34.13
795.126	10.92
795.306	45.74
795.487	0.68
795.667	39.59
795.848	62.12
796.028	43.69
796.209	4.78
796.389	111.27
796.57	35.5
796.75	-11.61
796.93	17.07
797.111	25.26
797.291	19.11
797.471	103.08
797.652	35.5
797.832	-75.09
798.012	113.32
798.192	-3.41
798.373	-40.28
798.553	53.93
798.733	174.76
798.913	-3.41
799.093	62.12
799.274	58.03
799.454	74.41
799.634	78.51
799.814	115.37
799.994	19.11
800.174	66.22
800.354	58.03
800.534	-23.89
800.714	90.79
800.894	-15.7
801.074	-27.99
801.254	84.65
801.434	98.99
801.614	37.55
801.794	-46.42
801.974	1821.33
802.154	19.11
802.334	115.37
802.514	-27.99
802.693	2.73
802.873	37.55
803.053	84.65
803.233	58.03
803.413	-5.46
803.592	-36.18
803.772	-3.41
803.952	-1.37
804.131	-60.76
804.311	103.08
804.491	121.51
804.67	33.45
804.85	-38.23
805.03	47.79
805.209	111.27
805.389	31.4
805.568	-11.61
805.748	-38.23
805.928	98.99
806.107	127.66
806.287	-27.99
806.466	51.88
806.646	29.35
806.825	-5.46
807.004	94.89
807.184	29.35
807.363	78.51
807.543	45.74
807.722	12.97
807.901	215.72
808.081	90.79
808.26	-73.04
808.439	29.35
808.619	62.12
808.798	-27.99
808.977	74.41
809.156	76.46
809.336	37.55
809.515	121.51
809.694	-58.71
809.873	8.87
810.052	49.83
810.231	127.66
810.411	78.51
810.59	68.27
810.769	-3.41
810.948	74.41
811.127	-27.99
811.306	33.45
811.485	-44.37
811.664	156.33
811.843	43.69
812.022	58.03
812.201	27.31
812.38	41.64
812.559	35.5
812.737	21.16
812.916	-62.8
813.095	-97.62
813.274	125.61
813.453	68.27
813.632	19.11
813.811	66.22
813.989	-36.18
814.168	37.55
814.347	-36.18
814.526	135.85
814.704	150.18
814.883	90.79
815.062	12.97
815.24	45.74
815.419	-46.42
815.598	129.7
815.776	-109.91
815.955	-11.61
816.133	-66.9
816.312	0.68
816.49	-85.33
816.669	84.65
816.847	-27.99
817.026	62.12
817.204	-30.04
817.383	60.07
817.561	-107.86
817.74	8.87
817.918	33.45
818.097	-23.89
818.275	-58.71
818.453	-25.94
818.632	86.7
818.81	82.6
818.988	-11.61
819.167	-21.85
819.345	86.7
819.523	-3.41
819.701	-27.99
819.879	45.74
820.058	45.74
820.236	-11.61
820.414	-3.41
820.592	27.31
820.77	-3.41
820.948	-17.75
821.127	33.45
821.305	-23.89
821.483	-1.37
821.661	55.98
821.839	113.32
822.017	-64.85
822.195	-25.94
822.373	80.55
822.551	58.03
822.729	62.12
822.907	-101.72
823.085	-19.8
823.262	-21.85
823.44	45.74
823.618	23.21
823.796	-3.41
823.974	-3.41
824.152	19.11
824.329	-25.94
824.507	23.21
824.685	98.99
824.863	8.87
825.04	2.73
825.218	72.36
825.396	66.22
825.574	66.22
825.751	27.31
825.929	68.27
826.107	-13.65
826.284	-46.42
826.462	0.68
826.639	6.83
826.817	4.78
826.994	17.07
827.172	-44.37
827.349	150.18
827.527	-11.61
827.704	-13.65
827.882	66.22
828.059	62.12
828.237	-34.13
828.414	84.65
828.591	-128.34
828.769	15.02
828.946	-44.37
829.124	43.69
829.301	76.46
829.478	-44.37
829.655	53.93
829.833	4.78
830.01	-52.56
830.187	33.45
830.364	19.11
830.542	78.51
830.719	111.27
830.896	86.7
831.073	62.12
831.25	117.42
831.427	45.74
831.604	-54.61
831.782	-1.37
831.959	-30.04
832.136	-7.51
832.313	68.27
832.49	-17.75
832.667	-3.41
832.844	-40.28
833.021	98.99
833.198	55.98
833.374	-30.04
833.551	45.74
833.728	33.45
833.905	60.07
834.082	-138.58
834.259	94.89
834.436	39.59
834.612	-27.99
834.789	64.17
834.966	-56.66
835.143	15.02
835.319	-11.61
835.496	80.55
835.673	17.07
835.85	88.75
836.026	19.11
836.203	96.94
836.38	-40.28
836.556	33.45
836.733	-9.56
836.909	80.55
837.086	-32.08
837.262	-48.47
837.439	-54.61
837.616	-30.04
837.792	6.83
837.968	82.6
838.145	-107.86
838.321	-25.94
838.498	78.51
838.674	78.51
838.851	-3.41
839.027	-25.94
839.203	84.65
839.38	113.32
839.556	19.11
839.732	58.03
839.909	31.4
840.085	10.92
840.261	45.74
840.437	-9.56
840.614	62.12
840.79	86.7
840.966	111.27
841.142	45.74
841.318	-15.7
841.494	86.7
841.671	107.18
841.847	-13.65
842.023	-17.75
842.199	119.46
842.375	94.89
842.551	-36.18
842.727	-36.18
842.903	139.94
843.079	-19.8
843.255	58.03
843.431	-36.18
843.607	0.68
843.783	-21.85
843.959	70.31
844.134	10.92
844.31	76.46
844.486	-79.19
844.662	-25.94
844.838	-19.8
845.013	23.21
845.189	117.42
845.365	-27.99
845.541	80.55
845.716	47.79
845.892	127.66
846.068	-27.99
846.244	2.73
846.419	45.74
846.595	-36.18
846.77	-75.09
846.946	135.85
847.122	35.5
847.297	12.97
847.473	96.94
847.648	-66.9
847.824	17.07
847.999	-75.09
848.175	-79.19
848.35	47.79
848.526	29.35
848.701	90.79
848.876	10.92
849.052	96.94
849.227	0.68
849.403	19.11
849.578	23.21
849.753	-5.46
849.929	150.18
850.104	-15.7
850.279	41.64
850.454	111.27
850.63	76.46
850.805	-48.47
850.98	33.45
851.155	4.78
851.33	64.17
851.505	37.55
851.681	82.6
851.856	-11.61
852.031	-1.37
852.206	51.88
852.381	-30.04
852.556	27.31
852.731	0.68
852.906	10.92
853.081	31.4
853.256	86.7
853.431	0.68
853.606	-75.09
853.781	-13.65
853.956	-101.72
854.131	12.97
854.305	2.73
854.48	-30.04
854.655	-11.61
854.83	-64.85
855.005	84.65
855.18	76.46
855.354	39.59
855.529	39.59
855.704	-52.56
855.879	-1.37
856.053	-95.57
856.228	74.41
856.403	27.31
856.577	39.59
856.752	-11.61
856.926	-42.32
857.101	60.07
857.276	-48.47
857.45	45.74
857.625	0.68
857.799	68.27
857.974	2.73
858.148	-120.15
858.323	41.64
858.497	-52.56
858.672	-36.18
858.846	15.02
859.02	86.7
859.195	-83.28
859.369	68.27
859.543	-42.32
859.718	-91.48
859.892	45.74
860.066	82.6
860.241	-103.76
860.415	-44.37
860.589	-23.89
860.763	17.07
860.938	-3.41
861.112	53.93
861.286	25.26
861.46	-7.51
861.634	-7.51
861.808	27.31
861.982	-32.08
862.157	-7.51
862.331	-85.33
862.505	49.83
862.679	-85.33
862.853	-128.34
863.027	-27.99
863.201	88.75
863.375	-5.46
863.549	-32.08
863.722	4.78
863.896	60.07
864.07	-52.56
864.244	45.74
864.418	2.73
864.592	8.87
864.766	43.69
864.939	86.7
865.113	-32.08
865.287	94.89
865.461	-38.23
865.634	-7.51
865.808	29.35
865.982	-32.08
866.156	-46.42
866.329	-30.04
866.503	19.11
866.676	62.12
866.85	68.27
867.024	19.11
867.197	62.12
867.371	58.03
867.544	45.74
867.718	-87.38
867.891	139.94
868.065	-15.7
868.238	-52.56
868.412	78.51
868.585	23.21
868.759	-23.89
868.932	10.92
869.105	-95.57
869.279	84.65
869.452	-40.28
869.625	31.4
869.799	-19.8
869.972	-3.41
870.145	-62.8
870.319	35.5
870.492	-107.86
870.665	-38.23
870.838	-21.85
871.011	-81.24
871.185	-58.71
871.358	27.31
871.531	-11.61
871.704	-5.46
871.877	15.02
872.05	-48.47
872.223	-60.76
872.396	80.55
872.569	31.4
872.742	-50.52
872.915	2.73
873.088	-5.46
873.261	-42.32
873.434	12.97
873.607	-1.37
873.78	125.61
873.953	-48.47
874.126	29.35
874.299	23.21
874.471	-19.8
874.644	2.73
874.817	43.69
874.99	109.22
875.163	-114
875.335	60.07
875.508	21.16
875.681	88.75
875.853	21.16
876.026	-27.99
876.199	45.74
876.371	62.12
876.544	-19.8
876.717	-48.47
876.889	0.68
877.062	47.79
877.234	-23.89
877.407	-13.65
877.579	105.13
877.752	-3.41
877.924	86.7
878.097	25.26
878.269	60.07
878.442	-15.7
878.614	43.69
878.786	66.22
878.959	-36.18
879.131	-36.18
879.303	-126.29
879.476	2.73
879.648	53.93
879.82	41.64
879.993	-9.56
880.165	51.88
880.337	23.21
880.509	-11.61
880.681	-77.14
880.854	-34.13
881.026	-23.89
881.198	156.33
881.37	-25.94
881.542	-19.8
881.714	8.87
881.886	-66.9
882.058	25.26
882.23	4.78
882.402	-36.18
882.574	49.83
882.746	60.07
882.918	135.85
883.09	35.5
883.262	-30.04
883.434	53.93
883.606	-44.37
883.778	53.93
883.95	160.42
884.122	-7.51
884.293	15.02
884.465	74.41
884.637	92.84
884.809	-11.61
884.98	-44.37
885.152	88.75
885.324	43.69
885.496	29.35
885.667	21.16
885.839	4.78
886.011	64.17
886.182	39.59
886.354	96.94
886.525	4.78
886.697	0.68
886.869	-52.56
887.04	-13.65
887.212	86.7
887.383	90.79
887.555	53.93
887.726	-54.61
887.897	-19.8
888.069	21.16
888.24	123.56
888.412	-9.56
888.583	-34.13
888.754	-13.65
888.926	-107.86
889.097	-64.85
889.268	-60.76
889.44	103.08
889.611	-21.85
889.782	-21.85
889.953	2.73
890.125	101.03
890.296	-13.65
890.467	-7.51
890.638	19.11
890.809	-15.7
890.98	-30.04
891.151	-32.08
891.323	90.79
891.494	-48.47
891.665	2.73
891.836	-25.94
892.007	-5.46
892.178	-27.99
892.349	-19.8
892.52	-40.28
892.691	-30.04
892.862	4.78
893.032	-71
893.203	-62.8
893.374	12.97
893.545	66.22
893.716	-38.23
893.887	125.61
894.057	-30.04
894.228	33.45
894.399	-11.61
894.57	62.12
894.74	-42.32
894.911	72.36
895.082	-15.7
895.253	-44.37
895.423	19.11
895.594	94.89
895.764	111.27
895.935	-64.85
896.106	25.26
896.276	-60.76
896.447	92.84
896.617	-27.99
896.788	-77.14
896.958	-38.23
897.129	-87.38
897.299	17.07
897.47	141.99
897.64	103.08
897.81	-13.65
897.981	15.02
898.151	-75.09
898.322	-38.23
898.492	53.93
898.662	-44.37
898.832	-11.61
899.003	43.69
899.173	111.27
899.343	-13.65
899.513	-5.46
