Data from USB4F104151__20__11-24-34-807.txt Node

Date: Wed Feb 26 11:24:34 EST 2025
User: louis
Spectrometer: USB4F10415
Trigger mode: 4
Integration Time (sec): 1.000000E-1
Scans to average: 1
Electric dark correction enabled: true
Nonlinearity correction enabled: false
Boxcar width: 0
XAxis mode: Wavelengths
Number of Pixels in Spectrum: 3648
>>>>>Begin Spectral Data<<<<<
178.204	-314.36
178.424	-314.36
178.644	-314.36
178.864	-355.32
179.084	-386.04
179.304	-56.32
179.524	-9.22
179.744	-1.02
179.964	91.13
180.184	68.61
180.404	46.08
180.624	-5.12
180.844	-5.12
181.064	-76.8
181.283	58.37
181.503	-54.27
181.723	-56.32
181.943	-21.5
182.163	195.58
182.383	-25.6
182.602	105.47
182.822	144.38
183.042	68.61
183.262	19.46
183.482	-3.07
183.701	84.99
183.921	89.09
184.141	-25.6
184.361	44.03
184.58	171.01
184.8	56.32
185.02	-41.98
185.239	97.28
185.459	41.98
185.679	111.61
185.898	-87.04
186.118	56.32
186.338	101.37
186.557	142.33
186.777	-113.66
186.997	84.99
187.216	15.36
187.436	203.77
187.655	17.41
187.875	132.09
188.095	41.98
188.314	138.24
188.534	138.24
188.753	-37.89
188.973	103.42
189.192	183.29
189.412	25.6
189.631	35.84
189.851	78.85
190.07	201.72
190.29	27.65
190.509	-52.22
190.729	-7.17
190.948	191.49
191.168	216.06
191.387	89.09
191.607	-1.02
191.826	64.51
192.045	-19.46
192.265	44.03
192.484	74.75
192.704	99.33
192.923	-78.85
193.142	224.25
193.362	130.05
193.581	119.81
193.8	84.99
194.02	25.6
194.239	41.98
194.458	166.91
194.678	-44.03
194.897	-5.12
195.116	17.41
195.335	56.32
195.555	78.85
195.774	19.46
195.993	113.66
196.212	46.08
196.432	-3.07
196.651	19.46
196.87	48.13
197.089	222.2
197.308	132.09
197.528	62.46
197.747	-56.32
197.966	103.42
198.185	144.38
198.404	-50.18
198.623	154.62
198.842	152.57
199.062	121.85
199.281	60.42
199.5	19.46
199.719	95.23
199.938	29.7
200.157	121.85
200.376	95.23
200.595	117.76
200.814	76.8
201.033	-11.26
201.252	125.95
201.471	3.07
201.69	89.09
201.909	68.61
202.128	128
202.347	128
202.566	23.55
202.785	-13.31
203.004	-3.07
203.223	336.89
203.442	80.89
203.661	-31.74
203.879	128
204.098	121.85
204.317	-33.79
204.536	29.7
204.755	78.85
204.974	72.7
205.193	-54.27
205.411	183.29
205.63	203.77
205.849	80.89
206.068	-29.7
206.287	-9.22
206.505	140.29
206.724	125.95
206.943	-1.02
207.162	89.09
207.381	160.77
207.599	70.65
207.818	87.04
208.037	-7.17
208.255	11.26
208.474	91.13
208.693	99.33
208.911	-37.89
209.13	109.57
209.349	134.14
209.567	101.37
209.786	74.75
210.005	138.24
210.223	103.42
210.442	-89.09
210.661	41.98
210.879	84.99
211.098	84.99
211.316	23.55
211.535	107.52
211.753	91.13
211.972	95.23
212.191	-1.02
212.409	46.08
212.628	156.67
212.846	-50.18
213.065	21.5
213.283	150.53
213.502	80.89
213.72	35.84
213.938	29.7
214.157	7.17
214.375	101.37
214.594	-29.7
214.812	80.89
215.031	-17.41
215.249	144.38
215.467	183.29
215.686	9.22
215.904	134.14
216.122	80.89
216.341	125.95
216.559	87.04
216.778	74.75
216.996	97.28
217.214	68.61
217.432	23.55
217.651	-91.13
217.869	132.09
218.087	52.22
218.306	56.32
218.524	121.85
218.742	-15.36
218.96	214.01
219.179	60.42
219.397	-21.5
219.615	234.49
219.833	95.23
220.051	-44.03
220.27	115.71
220.488	128
220.706	82.94
220.924	-1.02
221.142	11.26
221.36	35.84
221.578	84.99
221.796	7.17
222.015	62.46
222.233	5.12
222.451	140.29
222.669	19.46
222.887	97.28
223.105	-78.85
223.323	21.5
223.541	-31.74
223.759	80.89
223.977	-1.02
224.195	189.44
224.413	103.42
224.631	74.75
224.849	74.75
225.067	265.21
225.285	-1.02
225.503	95.23
225.721	-78.85
225.939	84.99
226.157	27.65
226.375	164.86
226.592	-1.02
226.81	23.55
227.028	183.29
227.246	134.14
227.464	-11.26
227.682	70.65
227.9	66.56
228.117	23.55
228.335	148.48
228.553	74.75
228.771	21.5
228.989	11.26
229.206	99.33
229.424	54.27
229.642	-35.84
229.86	33.79
230.077	209.92
230.295	41.98
230.513	130.05
230.731	50.18
230.948	148.48
231.166	203.77
231.384	41.98
231.601	-35.84
231.819	254.97
232.037	35.84
232.254	21.5
232.472	-7.17
232.689	-7.17
232.907	150.53
233.125	-17.41
233.342	-11.26
233.56	-17.41
233.777	11.26
233.995	37.89
234.213	119.81
234.43	107.52
234.648	91.13
234.865	19.46
235.083	80.89
235.3	3.07
235.518	111.61
235.735	158.72
235.953	46.08
236.17	23.55
236.388	7.17
236.605	109.57
236.822	175.1
237.04	121.85
237.257	31.74
237.475	1.02
237.692	41.98
237.909	117.76
238.127	82.94
238.344	19.46
238.562	-17.41
238.779	37.89
238.996	3.07
239.214	41.98
239.431	66.56
239.648	23.55
239.865	103.42
240.083	5.12
240.3	72.7
240.517	35.84
240.735	44.03
240.952	160.77
241.169	76.8
241.386	107.52
241.603	89.09
241.821	-37.89
242.038	89.09
242.255	121.85
242.472	48.13
242.689	101.37
242.907	95.23
243.124	37.89
243.341	70.65
243.558	29.7
243.775	7.17
243.992	-15.36
244.209	117.76
244.426	175.1
244.643	70.65
244.86	-9.22
245.078	150.53
245.295	95.23
245.512	41.98
245.729	74.75
245.946	62.46
246.163	160.77
246.38	-48.13
246.597	74.75
246.814	107.52
247.031	11.26
247.248	31.74
247.464	134.14
247.681	84.99
247.898	113.66
248.115	72.7
248.332	66.56
248.549	80.89
248.766	136.19
248.983	117.76
249.2	189.44
249.417	39.94
249.633	-9.22
249.85	64.51
250.067	-56.32
250.284	9.22
250.501	82.94
250.717	70.65
250.934	-76.8
251.151	-13.31
251.368	13.31
251.585	168.96
251.801	60.42
252.018	-31.74
252.235	146.43
252.451	-64.51
252.668	48.13
252.885	117.76
253.102	117.76
253.318	-15.36
253.535	68.61
253.752	31.74
253.968	52.22
254.185	-93.18
254.401	-5.12
254.618	113.66
254.835	-27.65
255.051	111.61
255.268	93.18
255.484	105.47
255.701	72.7
255.917	17.41
256.134	-11.26
256.351	62.46
256.567	-56.32
256.784	111.61
257	-89.09
257.217	173.05
257.433	107.52
257.65	97.28
257.866	107.52
258.082	-68.61
258.299	-3.07
258.515	123.9
258.732	21.5
258.948	-37.89
259.165	52.22
259.381	15.36
259.597	117.76
259.814	-11.26
260.03	21.5
260.246	-3.07
260.463	166.91
260.679	168.96
260.895	97.28
261.112	136.19
261.328	5.12
261.544	41.98
261.761	191.49
261.977	9.22
262.193	21.5
262.409	58.37
262.626	17.41
262.842	58.37
263.058	-33.79
263.274	214.01
263.49	41.98
263.707	119.81
263.923	101.37
264.139	-9.22
264.355	119.81
264.571	107.52
264.787	39.94
265.004	144.38
265.22	48.13
265.436	31.74
265.652	48.13
265.868	82.94
266.084	-87.04
266.3	54.27
266.516	52.22
266.732	84.99
266.948	66.56
267.164	66.56
267.38	17.41
267.596	148.48
267.812	134.14
268.028	48.13
268.244	-31.74
268.46	74.75
268.676	31.74
268.892	31.74
269.108	-15.36
269.324	-50.18
269.54	-101.37
269.756	132.09
269.972	-27.65
270.188	41.98
270.403	1.02
270.619	-56.32
270.835	109.57
271.051	11.26
271.267	33.79
271.483	-25.6
271.698	103.42
271.914	107.52
272.13	99.33
272.346	-11.26
272.562	31.74
272.777	162.81
272.993	-21.5
273.209	1.02
273.425	48.13
273.64	-101.37
273.856	93.18
274.072	-70.65
274.287	1.02
274.503	132.09
274.719	134.14
274.934	68.61
275.15	25.6
275.366	1.02
275.581	-44.03
275.797	130.05
276.012	48.13
276.228	21.5
276.444	101.37
276.659	160.77
276.875	-46.08
277.09	84.99
277.306	-44.03
277.521	31.74
277.737	62.46
277.952	52.22
278.168	19.46
278.383	103.42
278.599	1.02
278.814	166.91
279.03	54.27
279.245	140.29
279.461	93.18
279.676	52.22
279.892	7.17
280.107	-33.79
280.322	46.08
280.538	52.22
280.753	-23.55
280.969	7.17
281.184	-23.55
281.399	193.53
281.615	-5.12
281.83	23.55
282.045	54.27
282.26	9.22
282.476	68.61
282.691	128
282.906	115.71
283.122	33.79
283.337	-23.55
283.552	78.85
283.767	-5.12
283.983	62.46
284.198	-23.55
284.413	91.13
284.628	-84.99
284.843	-39.94
285.058	78.85
285.274	66.56
285.489	44.03
285.704	132.09
285.919	-13.31
286.134	37.89
286.349	-3.07
286.564	-5.12
286.779	130.05
286.995	-9.22
287.21	41.98
287.425	80.89
287.64	58.37
287.855	35.84
288.07	-21.5
288.285	113.66
288.5	132.09
288.715	44.03
288.93	25.6
289.145	37.89
289.36	33.79
289.575	13.31
289.79	193.53
290.004	9.22
290.219	132.09
290.434	29.7
290.649	56.32
290.864	-29.7
291.079	33.79
291.294	21.5
291.509	-35.84
291.724	-21.5
291.938	15.36
292.153	-11.26
292.368	-21.5
292.583	25.6
292.798	128
293.012	48.13
293.227	21.5
293.442	80.89
293.657	89.09
293.871	76.8
294.086	37.89
294.301	177.15
294.516	103.42
294.73	-25.6
294.945	-15.36
295.16	-9.22
295.374	121.85
295.589	128
295.804	64.51
296.018	54.27
296.233	140.29
296.447	97.28
296.662	33.79
296.877	115.71
297.091	113.66
297.306	80.89
297.52	80.89
297.735	119.81
297.949	-1.02
298.164	41.98
298.378	68.61
298.593	-21.5
298.807	21.5
299.022	119.81
299.236	148.48
299.451	117.76
299.665	35.84
299.88	78.85
300.094	111.61
300.309	1.02
300.523	46.08
300.737	31.74
300.952	31.74
301.166	27.65
301.381	44.03
301.595	15.36
301.809	27.65
302.024	1.02
302.238	-11.26
302.452	113.66
302.667	156.67
302.881	183.29
303.095	109.57
303.309	52.22
303.524	66.56
303.738	-17.41
303.952	9.22
304.166	136.19
304.381	-121.85
304.595	150.53
304.809	39.94
305.023	99.33
305.237	-27.65
305.452	29.7
305.666	113.66
305.88	99.33
306.094	121.85
306.308	162.81
306.522	91.13
306.736	93.18
306.95	117.76
307.164	72.7
307.379	41.98
307.593	134.14
307.807	132.09
308.021	105.47
308.235	179.2
308.449	-33.79
308.663	50.18
308.877	201.72
309.091	125.95
309.305	74.75
309.519	-138.24
309.733	89.09
309.947	-29.7
310.161	150.53
310.374	103.42
310.588	125.95
310.802	-27.65
311.016	33.79
311.23	19.46
311.444	-52.22
311.658	62.46
311.872	70.65
312.085	91.13
312.299	152.57
312.513	136.19
312.727	23.55
312.941	1.02
313.154	62.46
313.368	78.85
313.582	80.89
313.796	74.75
314.009	23.55
314.223	177.15
314.437	97.28
314.651	74.75
314.864	33.79
315.078	-84.99
315.292	-23.55
315.505	17.41
315.719	115.71
315.933	91.13
316.146	-9.22
316.36	-44.03
316.573	158.72
316.787	72.7
317.001	29.7
317.214	-52.22
317.428	66.56
317.641	-87.04
317.855	33.79
318.068	58.37
318.282	54.27
318.495	183.29
318.709	82.94
318.922	11.26
319.136	252.92
319.349	82.94
319.563	15.36
319.776	11.26
319.99	-23.55
320.203	173.05
320.417	-17.41
320.63	154.62
320.843	140.29
321.057	93.18
321.27	80.89
321.483	62.46
321.697	185.34
321.91	33.79
322.124	54.27
322.337	93.18
322.55	5.12
322.763	1.02
322.977	111.61
323.19	72.7
323.403	60.42
323.617	72.7
323.83	17.41
324.043	48.13
324.256	58.37
324.469	31.74
324.683	97.28
324.896	41.98
325.109	9.22
325.322	35.84
325.535	60.42
325.748	62.46
325.962	-60.42
326.175	64.51
326.388	17.41
326.601	70.65
326.814	25.6
327.027	35.84
327.24	183.29
327.453	31.74
327.666	64.51
327.879	160.77
328.092	87.04
328.305	130.05
328.518	39.94
328.731	95.23
328.944	39.94
329.157	89.09
329.37	66.56
329.583	211.96
329.796	154.62
330.009	1.02
330.222	101.37
330.435	95.23
330.648	119.81
330.861	74.75
331.073	33.79
331.286	160.77
331.499	29.7
331.712	-19.46
331.925	23.55
332.138	48.13
332.35	111.61
332.563	23.55
332.776	121.85
332.989	-29.7
333.202	48.13
333.414	17.41
333.627	41.98
333.84	-1.02
334.053	31.74
334.265	-35.84
334.478	50.18
334.691	99.33
334.903	78.85
335.116	-78.85
335.329	39.94
335.541	54.27
335.754	160.77
335.966	-19.46
336.179	66.56
336.392	-58.37
336.604	-37.89
336.817	134.14
337.029	5.12
337.242	31.74
337.454	66.56
337.667	93.18
337.88	203.77
338.092	84.99
338.305	25.6
338.517	39.94
338.729	70.65
338.942	177.15
339.154	-99.33
339.367	-52.22
339.579	56.32
339.792	-17.41
340.004	128
340.217	50.18
340.429	62.46
340.641	-29.7
340.854	50.18
341.066	11.26
341.278	134.14
341.491	117.76
341.703	44.03
341.915	-29.7
342.128	91.13
342.34	62.46
342.552	-23.55
342.764	7.17
342.977	87.04
343.189	72.7
343.401	58.37
343.613	-91.13
343.826	54.27
344.038	48.13
344.25	87.04
344.462	-13.31
344.674	138.24
344.886	5.12
345.099	35.84
345.311	60.42
345.523	-25.6
345.735	-132.09
345.947	7.17
346.159	72.7
346.371	-78.85
346.583	52.22
346.795	195.58
347.007	60.42
347.219	70.65
347.431	41.98
347.643	154.62
347.855	-15.36
348.067	187.39
348.279	-72.7
348.491	111.61
348.703	44.03
348.915	46.08
349.127	-5.12
349.339	74.75
349.551	-27.65
349.763	91.13
349.975	68.61
350.187	134.14
350.399	130.05
350.61	99.33
350.822	31.74
351.034	119.81
351.246	46.08
351.458	93.18
351.669	58.37
351.881	54.27
352.093	136.19
352.305	115.71
352.517	15.36
352.728	150.53
352.94	21.5
353.152	15.36
353.363	37.89
353.575	82.94
353.787	191.49
353.999	23.55
354.21	130.05
354.422	17.41
354.633	-25.6
354.845	60.42
355.057	66.56
355.268	50.18
355.48	89.09
355.692	13.31
355.903	56.32
356.115	-11.26
356.326	-25.6
356.538	140.29
356.749	52.22
356.961	211.96
357.172	19.46
357.384	-41.98
357.595	257.02
357.807	23.55
358.018	-39.94
358.23	41.98
358.441	146.43
358.653	130.05
358.864	7.17
359.075	-35.84
359.287	15.36
359.498	130.05
359.709	87.04
359.921	-5.12
360.132	80.89
360.344	111.61
360.555	62.46
360.766	15.36
360.977	68.61
361.189	140.29
361.4	50.18
361.611	130.05
361.823	97.28
362.034	33.79
362.245	-74.75
362.456	19.46
362.667	179.2
362.879	46.08
363.09	205.82
363.301	44.03
363.512	64.51
363.723	-9.22
363.935	-15.36
364.146	130.05
364.357	64.51
364.568	39.94
364.779	-1.02
364.99	134.14
365.201	-3.07
365.412	89.09
365.623	-80.89
365.834	56.32
366.045	60.42
366.256	62.46
366.467	119.81
366.678	-46.08
366.889	68.61
367.1	-66.56
367.311	168.96
367.522	-3.07
367.733	134.14
367.944	103.42
368.155	84.99
368.366	52.22
368.577	121.85
368.788	95.23
368.999	-23.55
369.209	101.37
369.42	218.11
369.631	224.25
369.842	87.04
370.053	64.51
370.264	105.47
370.474	-5.12
370.685	62.46
370.896	62.46
371.107	175.1
371.317	-1.02
371.528	54.27
371.739	138.24
371.95	121.85
372.16	123.9
372.371	-23.55
372.582	-62.46
372.792	80.89
373.003	25.6
373.214	125.95
373.424	132.09
373.635	-48.13
373.846	109.57
374.056	15.36
374.267	134.14
374.477	27.65
374.688	11.26
374.898	82.94
375.109	62.46
375.319	35.84
375.53	109.57
375.74	74.75
375.951	66.56
376.161	134.14
376.372	82.94
376.582	-13.31
376.793	64.51
377.003	19.46
377.214	-19.46
377.424	78.85
377.635	5.12
377.845	-46.08
378.055	189.44
378.266	-5.12
378.476	13.31
378.686	130.05
378.897	27.65
379.107	205.82
379.317	93.18
379.528	-5.12
379.738	23.55
379.948	-11.26
380.158	222.2
380.369	74.75
380.579	123.9
380.789	21.5
380.999	117.76
381.21	111.61
381.42	244.73
381.63	-48.13
381.84	132.09
382.05	128
382.261	101.37
382.471	78.85
382.681	-3.07
382.891	177.15
383.101	87.04
383.311	-15.36
383.521	-3.07
383.731	95.23
383.941	125.95
384.151	60.42
384.361	158.72
384.571	46.08
384.781	109.57
384.991	179.2
385.201	148.48
385.411	107.52
385.621	62.46
385.831	113.66
386.041	29.7
386.251	54.27
386.461	164.86
386.671	15.36
386.881	48.13
387.091	68.61
387.301	134.14
387.511	62.46
387.72	132.09
387.93	119.81
388.14	29.7
388.35	91.13
388.56	148.48
388.769	72.7
388.979	113.66
389.189	11.26
389.399	74.75
389.609	84.99
389.818	111.61
390.028	62.46
390.238	99.33
390.447	41.98
390.657	78.85
390.867	91.13
391.076	-111.61
391.286	35.84
391.496	29.7
391.705	25.6
391.915	91.13
392.125	109.57
392.334	-9.22
392.544	203.77
392.753	101.37
392.963	-15.36
393.172	7.17
393.382	-29.7
393.591	103.42
393.801	1.02
394.01	89.09
394.22	119.81
394.429	54.27
394.639	25.6
394.848	44.03
395.058	23.55
395.267	74.75
395.477	58.37
395.686	60.42
395.895	209.92
396.105	160.77
396.314	74.75
396.524	76.8
396.733	21.5
396.942	101.37
397.152	103.42
397.361	70.65
397.57	134.14
397.78	74.75
397.989	89.09
398.198	187.39
398.407	13.31
398.617	1.02
398.826	125.95
399.035	15.36
399.244	197.63
399.453	17.41
399.663	72.7
399.872	13.31
400.081	-35.84
400.29	183.29
400.499	7.17
400.708	117.76
400.917	58.37
401.127	21.5
401.336	35.84
401.545	279.55
401.754	183.29
401.963	130.05
402.172	111.61
402.381	-7.17
402.59	56.32
402.799	66.56
403.008	140.29
403.217	-17.41
403.426	115.71
403.635	-19.46
403.844	68.61
404.053	58.37
404.262	19.46
404.471	179.2
404.68	91.13
404.888	-37.89
405.097	60.42
405.306	56.32
405.515	78.85
405.724	5.12
405.933	173.05
406.142	29.7
406.35	68.61
406.559	1.02
406.768	74.75
406.977	140.29
407.185	41.98
407.394	99.33
407.603	-60.42
407.812	103.42
408.02	136.19
408.229	111.61
408.438	33.79
408.646	29.7
408.855	74.75
409.064	107.52
409.272	-56.32
409.481	187.39
409.69	15.36
409.898	-39.94
410.107	103.42
410.315	56.32
410.524	25.6
410.733	56.32
410.941	72.7
411.15	84.99
411.358	109.57
411.567	87.04
411.775	119.81
411.984	113.66
412.192	29.7
412.401	25.6
412.609	205.82
412.818	183.29
413.026	-9.22
413.234	101.37
413.443	-31.74
413.651	121.85
413.86	82.94
414.068	119.81
414.276	117.76
414.485	-31.74
414.693	154.62
414.901	109.57
415.11	46.08
415.318	41.98
415.526	44.03
415.734	144.38
415.943	35.84
416.151	117.76
416.359	17.41
416.567	82.94
416.776	54.27
416.984	70.65
417.192	164.86
417.4	58.37
417.608	72.7
417.817	-15.36
418.025	54.27
418.233	152.57
418.441	-64.51
418.649	-50.18
418.857	171.01
419.065	263.16
419.273	21.5
419.481	66.56
419.689	58.37
419.897	29.7
420.105	9.22
420.313	37.89
420.521	138.24
420.729	107.52
420.937	58.37
421.145	56.32
421.353	158.72
421.561	226.3
421.769	95.23
421.977	21.5
422.185	97.28
422.393	-33.79
422.601	123.9
422.809	150.53
423.017	56.32
423.224	84.99
423.432	109.57
423.64	7.17
423.848	109.57
424.056	-3.07
424.263	121.85
424.471	-5.12
424.679	164.86
424.887	-23.55
425.094	205.82
425.302	-7.17
425.51	66.56
425.718	68.61
425.925	58.37
426.133	1.02
426.341	211.96
426.548	29.7
426.756	113.66
426.964	99.33
427.171	1.02
427.379	113.66
427.586	54.27
427.794	119.81
428.001	89.09
428.209	74.75
428.417	160.77
428.624	95.23
428.832	117.76
429.039	58.37
429.247	56.32
429.454	162.81
429.662	177.15
429.869	144.38
430.076	119.81
430.284	128
430.491	148.48
430.699	84.99
430.906	189.44
431.114	58.37
431.321	78.85
431.528	58.37
431.736	109.57
431.943	146.43
432.15	189.44
432.358	197.63
432.565	214.01
432.772	-44.03
432.979	179.2
433.187	80.89
433.394	171.01
433.601	74.75
433.808	171.01
434.016	183.29
434.223	205.82
434.43	44.03
434.637	236.54
434.844	195.58
435.052	93.18
435.259	168.96
435.466	236.54
435.673	230.4
435.88	185.34
436.087	246.78
436.294	306.17
436.501	201.72
436.708	226.3
436.915	267.26
437.122	351.23
437.329	187.39
437.537	232.44
437.743	242.68
437.95	422.91
438.157	154.62
438.364	236.54
438.571	177.15
438.778	349.18
438.985	306.17
439.192	347.13
439.399	283.64
439.606	343.03
439.813	371.71
440.02	457.72
440.227	574.46
440.433	349.18
440.64	359.42
440.847	332.79
441.054	379.9
441.261	611.32
441.467	406.52
441.674	394.23
441.881	533.5
442.088	429.05
442.294	478.2
442.501	576.5
442.708	529.4
442.914	480.25
443.121	654.33
443.328	611.32
443.534	664.57
443.741	562.17
443.948	531.45
444.154	599.03
444.361	883.7
444.568	644.09
444.774	732.15
444.981	642.04
445.187	844.79
445.394	807.92
445.6	738.29
445.807	920.56
446.013	914.42
446.22	791.54
446.426	979.95
446.633	973.81
446.839	1160.17
447.046	998.38
447.252	1184.75
447.459	1055.73
447.665	1115.12
447.871	1248.24
448.078	1348.59
448.284	1338.35
448.491	1399.79
448.697	1545.19
448.903	1520.62
449.11	1489.9
449.316	1602.54
449.522	1668.07
449.728	1717.22
449.935	1704.93
450.141	1696.74
450.347	1897.44
450.553	1838.05
450.76	1942.5
450.966	1924.07
451.172	2022.37
451.378	2227.17
451.584	2216.93
451.791	2397.15
451.997	2354.14
452.203	2550.75
452.409	2552.79
452.615	2657.24
452.821	2593.75
453.027	2720.73
453.233	2972.63
453.44	2927.57
453.646	3038.16
453.852	3101.65
454.058	3167.18
454.264	3392.46
454.47	3472.33
454.676	3564.49
454.882	3992.52
455.088	3750.85
455.294	3879.88
455.5	4268.99
455.705	4447.16
455.911	4367.29
456.117	4547.51
456.323	4576.19
456.529	4670.39
456.735	5092.27
456.941	5264.3
457.147	5501.87
457.352	5577.64
457.558	5632.94
457.764	6228.9
457.97	6263.71
458.176	6609.82
458.381	6886.29
458.587	6904.73
458.793	7197.59
458.999	7130
459.204	8088.45
459.41	8405.89
459.616	8334.21
459.821	8889.21
460.027	9155.44
460.233	9702.25
460.438	9847.66
460.644	10015.59
460.85	10158.95
461.055	10537.82
461.261	11146.07
461.466	11127.64
461.672	11150.17
461.878	12534.59
462.083	12495.68
462.289	12712.77
462.494	13038.39
462.7	13151.03
462.905	13513.52
463.111	14287.65
463.316	15094.55
463.522	15614.74
463.727	15960.84
463.932	16577.28
464.138	17279.74
464.343	18051.82
464.549	17736.43
464.754	18946.78
464.959	19639
465.165	19856.08
465.37	20024.01
465.575	19657.43
465.781	21177.02
465.986	21971.63
466.191	21480.12
466.397	21924.53
466.602	21594.81
466.807	22495.91
467.012	22788.77
467.218	22997.67
467.423	23405.21
467.628	24212.11
467.833	25016.96
468.038	24640.14
468.244	24418.96
468.449	25242.24
468.654	24984.19
468.859	25143.94
469.064	24902.28
469.269	24378
469.474	24603.27
469.679	25434.75
469.885	24758.92
470.09	24728.2
470.295	25082.5
470.5	24257.17
470.705	24781.45
470.91	24097.42
471.115	23653.02
471.32	24064.66
471.525	24177.3
471.73	23300.76
471.935	22938.27
472.139	22170.29
472.344	22688.42
472.549	22522.54
472.754	21914.29
472.959	21279.42
473.164	20642.5
473.369	20138.7
473.574	21031.62
473.778	20525.77
473.983	20144.84
474.188	19813.07
474.393	18823.9
474.598	18823.9
474.802	18236.14
475.007	18127.6
475.212	18127.6
475.417	17122.04
475.621	17005.31
475.826	16704.26
476.031	16665.35
476.235	16036.62
476.44	16065.29
476.645	15760.14
476.849	15512.34
477.054	15295.25
477.259	14852.89
477.463	15098.65
477.668	14482.21
477.872	14512.93
478.077	14029.61
478.282	13622.06
478.486	13667.12
478.691	13419.32
478.895	13255.48
479.1	13286.2
479.304	13157.18
479.509	12604.22
479.713	12884.8
479.918	12593.98
480.122	11946.83
480.326	12600.13
480.531	12366.66
480.735	12256.07
480.94	11875.15
481.144	12208.97
481.348	11606.86
481.553	11842.38
481.757	11377.49
481.961	11662.16
482.166	11639.63
482.37	11580.24
482.574	11184.98
482.778	11103.06
482.983	11170.65
483.187	11207.51
483.391	11314
483.595	10871.64
483.8	10740.57
484.004	10849.11
484.208	10748.76
484.412	10554.21
484.616	10306.4
484.821	10494.82
485.025	9968.49
485.229	10304.35
485.433	9941.86
485.637	10021.74
485.841	9761.64
486.045	9685.87
486.249	9612.14
486.453	9352.05
486.657	9276.27
486.861	9118.58
487.065	8872.82
487.269	9104.25
487.473	8240
487.677	8622.97
487.881	8803.19
488.085	8237.95
488.289	8078.21
488.493	7926.66
488.697	8158.08
488.901	7922.57
489.105	7635.85
489.309	7451.53
489.512	7463.82
489.716	7459.73
489.92	7156.63
490.124	6908.82
490.328	7107.48
490.531	6742.94
490.735	6667.16
490.939	6534.04
491.143	6597.53
491.346	6306.72
491.55	6294.43
491.754	6181.79
491.958	6269.86
492.161	6044.58
492.365	6009.76
492.569	5692.33
492.772	5751.72
492.976	5583.79
493.18	5661.61
493.383	5579.69
493.587	5456.81
493.79	5561.26
493.994	5385.13
494.197	5411.76
494.401	5098.42
494.605	5092.27
494.808	5184.43
495.012	5239.73
495.215	5053.36
495.419	5120.95
495.622	5041.08
495.825	5010.36
496.029	5174.19
496.232	5125.04
496.436	4918.2
496.639	5020.6
496.843	5043.12
497.046	4914.1
497.249	4981.68
497.453	5047.22
497.656	5028.79
497.859	4852.66
498.063	5114.8
498.266	5002.16
498.469	5030.84
498.673	5112.75
498.876	5133.23
499.079	4975.54
499.282	5061.55
499.485	5395.37
499.689	5249.97
499.892	5354.41
500.095	5153.71
500.298	5370.8
500.501	5086.13
500.705	5462.96
500.908	5415.85
501.111	5432.24
501.314	5575.59
501.517	5444.52
501.72	5632.94
501.923	5729.19
502.126	5712.81
502.329	5964.71
502.532	5862.31
502.735	5979.04
502.938	6146.98
503.141	6124.45
503.344	6210.47
503.547	6376.35
503.75	6232.99
503.953	6464.41
504.156	6618.01
504.359	6685.59
504.562	6568.86
504.765	6642.59
504.968	6929.3
505.17	7236.5
505.373	7154.58
505.576	7377.81
505.779	7312.27
505.982	7314.32
506.185	7549.84
506.387	7658.38
506.59	7893.9
506.793	7885.7
506.996	8131.46
507.198	8688.51
507.401	8385.41
507.604	8657.79
507.807	8737.66
508.009	8659.84
508.212	9079.67
508.415	9311.09
508.617	9433.97
508.82	9663.34
509.022	9603.95
509.225	10165.09
509.428	10189.67
509.63	10433.38
509.833	10728.28
510.035	11125.59
510.238	11195.22
510.44	11424.59
510.643	11649.87
510.845	12112.71
511.048	12186.44
511.25	12532.54
511.453	12682.05
511.655	13413.17
511.858	13554.48
512.06	13800.24
512.262	13884.2
512.465	14037.8
512.667	14664.48
512.87	14881.56
513.072	15274.77
513.274	15960.84
513.477	16003.85
513.679	16167.69
513.881	16608
514.084	16972.54
514.286	17320.7
514.488	17806.06
514.69	18414.31
514.893	18916.06
515.095	19098.33
515.297	19421.91
515.499	19710.68
515.701	20386.5
515.904	20595.4
516.106	21199.55
516.308	21488.31
516.51	22074.03
516.712	22387.37
516.914	22680.23
517.116	23458.46
517.318	23759.51
517.52	24414.86
517.722	24629.9
517.925	25217.66
518.127	25705.08
518.329	26278.51
518.531	26245.74
518.733	27021.92
518.935	27523.68
519.136	27748.95
519.338	28465.74
519.54	28719.69
519.742	29342.27
519.944	29620.8
520.146	30218.8
520.348	30884.39
520.55	31277.6
520.752	30966.31
520.954	32219.67
521.155	31969.82
521.357	32786.96
521.559	33098.25
521.761	33798.65
521.963	33872.38
522.164	34009.59
522.366	34820.59
522.568	34879.98
522.77	35232.23
522.971	35912.16
523.173	35693.02
523.375	35996.12
523.576	36108.76
523.778	36450.77
523.98	36694.48
524.181	36403.67
524.383	36811.21
524.584	37312.97
524.786	37097.93
524.988	36995.53
525.189	37759.42
525.391	37712.32
525.592	37790.14
525.794	37599.68
525.995	37657.03
526.197	37450.18
526.398	37272.01
526.6	37296.58
526.801	37595.59
527.003	37405.13
527.204	37138.89
527.406	37577.15
527.607	37339.59
527.808	37231.05
528.01	36624.85
528.211	36739.54
528.412	36657.62
528.614	36313.56
528.815	36473.3
529.016	36422.1
529.218	35226.09
529.419	35205.61
529.62	35312.1
529.822	34908.65
530.023	34724.33
530.224	34161.14
530.425	34038.26
530.626	33143.3
530.828	33053.19
531.029	33317.38
531.23	32598.54
531.431	32147.99
531.632	32234
531.833	31646.24
532.035	31019.56
532.236	30849.58
532.437	30626.35
532.638	30065.21
532.839	29917.75
533.04	29921.85
533.241	28973.64
533.442	29172.29
533.643	28320.34
533.844	28056.15
534.045	28084.82
534.246	27370.08
534.447	26921.57
534.648	26980.96
534.849	26798.7
535.05	25791.09
535.251	25623.16
535.451	25137.79
535.652	24951.43
535.853	24578.7
536.054	24310.41
536.255	24054.42
536.456	23476.89
536.657	23554.71
536.857	23016.1
537.058	22659.75
537.259	22377.13
537.46	22112.94
537.66	21803.7
537.861	21473.98
538.062	21404.35
538.263	20974.27
538.463	20650.69
538.664	20292.3
538.865	20355.79
539.065	20030.16
539.266	19532.5
539.466	19645.14
539.667	19258.07
539.868	19223.26
540.068	18850.53
540.269	18688.74
540.469	18420.45
540.67	18236.14
540.87	18029.29
541.071	17818.35
541.271	17560.31
541.472	17644.27
541.672	17113.85
541.873	16900.86
542.073	16726.78
542.274	16677.63
542.474	16544.52
542.675	16253.7
542.875	16128.78
543.075	15901.45
543.276	15551.25
543.476	15725.33
543.676	15196.95
543.877	15031.07
544.077	15024.92
544.277	14854.94
544.478	14637.86
544.678	14445.35
544.878	14390.05
545.078	14244.65
545.279	13654.83
545.479	13765.42
545.679	13620.02
545.879	13591.34
546.079	13499.19
546.28	13097.78
546.48	13046.58
546.68	12991.29
546.88	12886.84
547.08	12708.67
547.28	12563.26
547.48	12114.76
547.68	12143.43
547.88	11916.11
548.081	11920.2
548.281	11414.35
548.481	11461.46
548.681	11852.62
548.881	11215.7
549.081	11088.73
549.28	11008.86
549.48	10840.92
549.68	10871.64
549.88	10867.55
550.08	10193.76
550.28	10275.68
550.48	10089.32
550.68	9917.29
550.88	9866.09
551.08	9866.09
551.279	9861.99
551.479	9419.63
551.679	9522.03
551.879	9083.77
552.079	9296.75
552.278	9046.9
552.478	8928.12
552.678	8680.32
552.878	8649.6
553.077	8330.11
553.277	8143.75
553.477	8258.43
553.676	8076.16
553.876	7994.25
554.076	7611.28
554.275	7746.44
554.475	7435.15
554.674	7598.99
554.874	7500.69
555.074	7089.04
555.273	7052.18
555.473	6970.26
555.672	6787.99
555.872	6792.09
556.071	6634.39
556.271	6677.4
556.47	6536.09
556.67	6325.15
556.869	6204.32
557.068	5929.89
557.268	6136.74
557.467	5987.24
557.667	5970.85
557.866	5532.59
558.065	5591.98
558.265	5528.49
558.464	5270.45
558.663	5387.18
558.863	5209.01
559.062	5295.02
559.261	5120.95
559.461	5137.33
559.66	4965.3
559.859	4819.89
560.058	4760.5
560.258	4783.03
560.457	4582.33
560.656	4717.5
560.855	4412.35
561.054	4549.56
561.253	4299.71
561.453	4359.1
561.652	4148.16
561.851	4250.56
562.05	3978.18
562.249	4060.1
562.448	4019.14
562.647	3797.96
562.846	3752.9
563.045	3789.77
563.244	3623.88
563.443	3800.01
563.642	3648.46
563.841	3705.8
564.04	3425.23
564.239	3425.23
564.438	3558.35
564.637	3425.23
564.836	3257.29
565.035	3189.71
565.234	3173.33
565.432	3193.81
565.631	3105.74
565.83	3115.98
566.029	3058.64
566.228	2894.8
566.427	3046.35
566.625	2849.75
566.824	2907.09
567.023	2802.65
567.222	2757.59
567.42	2749.4
567.619	2634.71
567.818	2644.95
568.016	2761.69
568.215	2501.59
568.414	2554.84
568.612	2489.31
568.811	2483.16
569.01	2423.77
569.208	2337.76
569.407	2362.33
569.605	2333.66
569.804	2321.37
570.002	2358.24
570.201	2206.69
570.4	2237.41
570.598	2198.49
570.797	2106.34
570.995	2022.37
571.193	1919.97
571.392	2005.99
571.59	1899.49
571.789	2034.66
571.987	1946.59
572.186	1993.7
572.384	1823.72
572.582	1905.63
572.781	1858.53
572.979	1688.55
573.177	1747.94
573.376	1819.62
573.574	1801.19
573.772	1713.13
573.971	1592.3
574.169	1592.3
574.367	1612.78
574.565	1551.34
574.763	1602.54
574.962	1563.62
575.16	1491.95
575.358	1500.14
575.556	1477.61
575.754	1389.55
575.952	1375.21
576.151	1483.75
576.349	1457.13
576.547	1246.19
576.745	1344.49
576.943	1321.96
577.141	1313.77
577.339	1145.84
577.537	1207.28
577.735	1233.9
577.933	1303.53
578.131	1149.93
578.329	1317.87
578.527	1147.89
578.725	1176.56
578.923	936.95
579.121	1137.65
579.319	1016.82
579.516	1063.92
579.714	1256.43
579.912	1014.77
580.11	912.37
580.308	902.13
580.506	1010.67
580.704	707.57
580.901	828.4
581.099	979.95
581.297	861.17
581.495	947.19
581.692	842.74
581.89	922.61
582.088	881.65
582.285	877.55
582.483	787.44
582.681	791.54
582.878	723.96
583.076	750.58
583.274	797.68
583.471	984.05
583.669	779.25
583.866	695.29
584.064	760.82
584.262	691.19
584.459	740.34
584.657	678.9
584.854	793.59
585.052	789.49
585.249	756.72
585.447	721.91
585.644	533.5
585.841	744.44
586.039	738.29
586.236	707.57
586.434	631.8
586.631	465.91
586.828	543.74
587.026	539.64
587.223	513.02
587.42	592.89
587.618	611.32
587.815	683
588.012	607.22
588.21	523.26
588.407	635.89
588.604	631.8
588.801	437.24
588.999	455.67
589.196	689.14
589.393	500.73
589.59	613.37
589.787	510.97
589.984	498.68
590.182	545.78
590.379	433.15
590.576	539.64
590.773	492.54
590.97	394.23
591.167	500.73
591.364	560.12
591.561	365.56
591.758	564.22
591.955	531.45
592.152	633.85
592.349	416.76
592.546	527.35
592.743	402.43
592.94	451.58
593.137	465.91
593.334	578.55
593.531	531.45
593.727	553.98
593.924	478.2
594.121	447.48
594.318	504.82
594.515	527.35
594.712	611.32
594.908	566.26
595.105	510.97
595.302	506.87
595.499	570.36
595.696	662.52
595.892	459.77
596.089	527.35
596.286	523.26
596.482	719.86
596.679	596.98
596.876	523.26
597.072	689.14
597.269	648.18
597.466	697.33
597.662	517.11
597.859	537.59
598.055	674.81
598.252	670.71
598.448	865.27
598.645	785.4
598.841	812.02
599.038	857.07
599.234	992.24
599.431	879.6
599.627	885.75
599.824	918.51
600.02	932.85
600.217	906.23
600.413	910.32
600.609	1008.62
600.806	1305.58
601.002	1229.81
601.198	1086.45
601.395	1307.63
601.591	1213.42
601.787	1203.18
601.984	1283.05
602.18	1412.07
602.376	1487.85
602.572	1520.62
602.769	1493.99
602.965	1547.24
603.161	1723.37
603.357	1786.85
603.553	1823.72
603.75	1655.78
603.946	1840.1
604.142	1981.41
604.338	2034.66
604.534	1969.12
604.73	2073.57
604.926	2178.01
605.122	2391
605.318	2278.37
605.514	2464.73
605.71	2442.2
605.906	2651.1
606.102	2606.04
606.298	2687.96
606.494	2618.33
606.69	2870.23
606.886	2909.14
607.082	2962.39
607.278	2976.72
607.474	3011.54
607.67	3290.06
607.866	3238.86
608.062	3308.49
608.257	3564.49
608.453	3537.87
608.649	3658.7
608.845	3785.67
609.041	3904.45
609.236	3961.8
609.432	3980.23
609.628	4303.81
609.824	4514.75
610.019	4389.82
610.215	4420.54
610.411	4797.37
610.606	4817.85
610.802	4920.24
610.998	5034.93
611.193	5323.69
611.389	5176.24
611.584	5331.89
611.78	5440.43
611.976	5770.15
612.171	5985.19
612.367	5954.47
612.562	6124.45
612.758	6200.23
612.953	6218.66
613.149	6642.59
613.344	6785.94
613.539	7074.71
613.735	7261.07
613.93	7310.22
614.126	7390.1
614.321	7805.83
614.517	7914.38
614.712	8123.27
614.907	8432.51
615.103	8668.03
615.298	8584.06
615.493	8715.13
615.688	8950.65
615.884	9542.51
616.079	9530.22
616.274	9825.13
616.47	9898.86
616.665	10386.27
616.86	10556.25
617.055	10922.84
617.25	10881.88
617.445	11539.28
617.641	11543.38
617.836	11850.57
618.031	11916.11
618.226	12649.28
618.421	12860.22
618.616	13341.49
618.811	13335.35
619.006	13693.74
619.201	13769.52
619.396	14383.91
619.591	14189.35
619.786	15088.41
619.981	15088.41
620.176	15581.97
620.371	15661.84
620.566	16077.58
620.761	16257.8
620.956	16868.09
621.151	17029.88
621.346	17720.05
621.541	17691.38
621.735	18299.62
621.93	18305.77
622.125	19071.71
622.32	18889.44
622.515	19415.77
622.709	19811.03
622.904	20220.62
623.099	20478.66
623.294	20783.81
623.488	21117.63
623.683	21576.37
623.878	21605.05
624.072	22483.62
624.267	22553.26
624.462	22985.38
624.656	23052.96
624.851	23802.52
625.046	23745.17
625.24	24334.99
625.435	24388.24
625.629	24842.88
625.824	25328.25
626.018	25578.11
626.213	25551.48
626.407	26090.1
626.602	26206.83
626.796	26638.95
626.991	26813.03
627.185	27169.38
627.38	27142.75
627.574	27617.88
627.768	27904.6
627.963	27601.5
628.157	27951.7
628.352	28095.06
628.546	27707.99
628.74	28193.36
628.935	27759.19
629.129	28043.86
629.323	27517.53
629.517	28002.9
629.712	27632.22
629.906	27431.52
630.1	27142.75
630.294	26788.46
630.489	26716.78
630.683	26491.5
630.877	25899.64
631.071	25348.73
631.265	25078.4
631.459	24734.34
631.653	23964.31
631.848	23659.16
632.042	22944.42
632.236	22692.52
632.43	22082.22
632.624	21402.3
632.818	20669.12
633.012	20062.93
633.206	19358.42
633.4	18916.06
633.594	18324.2
633.788	17674.99
633.982	17181.43
634.176	16624.39
634.369	15680.27
634.563	15328.02
634.757	14482.21
634.951	14209.83
635.145	13648.69
635.339	13222.71
635.533	12344.13
635.726	12147.53
635.92	11600.72
636.114	11273.04
636.308	10744.67
636.501	10238.82
636.695	9927.53
636.889	9421.68
637.083	9053.05
637.276	8651.64
637.47	8078.21
637.664	7793.55
637.857	7582.6
638.051	7336.85
638.244	7150.48
638.438	6773.66
638.632	6554.52
638.825	6224.8
639.019	5991.33
639.212	5753.77
639.406	5530.54
639.599	5374.89
639.793	5186.48
639.986	4981.68
640.18	4791.22
640.373	4643.77
640.567	4516.8
640.76	4201.41
640.954	4010.95
641.147	3826.63
641.34	3851.21
641.534	3632.07
641.727	3468.24
641.92	3288.01
642.114	3349.45
642.307	3009.49
642.5	3072.98
642.694	2802.65
642.887	2755.54
643.08	2724.82
643.273	2773.97
643.467	2466.78
643.66	2372.57
643.853	2350.04
644.046	2167.77
644.239	2112.48
644.432	1952.74
644.626	1850.34
644.819	1911.78
645.012	1754.09
645.205	1823.72
645.398	1709.03
645.591	1663.97
645.784	1528.81
645.977	1430.51
646.17	1397.74
646.363	1342.44
646.556	1238
646.749	1229.81
646.942	1281
647.135	1299.44
647.328	1158.13
647.521	1151.98
647.714	1051.63
647.907	1063.92
648.099	938.99
648.292	1070.06
648.485	877.55
648.678	920.56
648.871	848.88
649.064	930.8
649.256	760.82
649.449	764.92
649.642	771.06
649.835	762.87
650.027	596.98
650.22	730.1
650.413	707.57
650.605	646.13
650.798	637.94
650.991	568.31
651.183	644.09
651.376	580.6
651.568	537.59
651.761	535.54
651.954	517.11
652.146	435.19
652.339	521.21
652.531	424.95
652.724	285.69
652.916	445.43
653.109	314.36
653.301	465.91
653.494	416.76
653.686	383.99
653.879	474.1
654.071	406.52
654.263	349.18
654.456	338.94
654.648	377.85
654.84	467.96
655.033	285.69
655.225	422.91
655.417	191.49
655.61	371.71
655.802	383.99
655.994	386.04
656.186	236.54
656.379	355.32
656.571	269.31
656.763	246.78
656.955	189.44
657.148	259.07
657.34	246.78
657.532	254.97
657.724	218.11
657.916	326.65
658.108	314.36
658.3	300.03
658.492	250.88
658.684	93.18
658.876	300.03
659.068	195.58
659.26	109.57
659.452	117.76
659.644	211.96
659.836	373.75
660.028	195.58
660.22	160.77
660.412	146.43
660.604	201.72
660.796	158.72
660.988	214.01
661.18	195.58
661.372	285.69
661.563	148.48
661.755	199.68
661.947	121.85
662.139	125.95
662.331	160.77
662.522	150.53
662.714	113.66
662.906	97.28
663.097	160.77
663.289	9.22
663.481	68.61
663.673	177.15
663.864	84.99
664.056	265.21
664.247	95.23
664.439	240.64
664.631	205.82
664.822	218.11
665.014	160.77
665.205	50.18
665.397	95.23
665.588	195.58
665.78	93.18
665.971	209.92
666.163	130.05
666.354	158.72
666.546	97.28
666.737	66.56
666.929	168.96
667.12	166.91
667.311	128
667.503	68.61
667.694	214.01
667.885	146.43
668.077	173.05
668.268	9.22
668.459	103.42
668.651	107.52
668.842	189.44
669.033	70.65
669.224	39.94
669.416	308.22
669.607	119.81
669.798	111.61
669.989	283.64
670.18	144.38
670.371	197.63
670.563	58.37
670.754	179.2
670.945	267.26
671.136	168.96
671.327	101.37
671.518	197.63
671.709	316.41
671.9	275.45
672.091	242.68
672.282	171.01
672.473	140.29
672.664	164.86
672.855	218.11
673.046	214.01
673.237	148.48
673.428	187.39
673.619	222.2
673.809	175.1
674	277.5
674.191	150.53
674.382	136.19
674.573	222.2
674.764	218.11
674.954	214.01
675.145	119.81
675.336	175.1
675.527	189.44
675.717	138.24
675.908	195.58
676.099	136.19
676.289	281.6
676.48	175.1
676.671	193.53
676.861	185.34
677.052	220.16
677.243	177.15
677.433	113.66
677.624	201.72
677.814	166.91
678.005	185.34
678.195	306.17
678.386	111.61
678.576	254.97
678.767	111.61
678.957	166.91
679.148	357.37
679.338	320.51
679.529	254.97
679.719	175.1
679.909	259.07
680.1	289.79
680.29	250.88
680.481	181.25
680.671	271.36
680.861	228.35
681.052	254.97
681.242	187.39
681.432	248.83
681.622	252.92
681.813	193.53
682.003	279.55
682.193	144.38
682.383	275.45
682.573	275.45
682.764	271.36
682.954	271.36
683.144	293.88
683.334	183.29
683.524	220.16
683.714	349.18
683.904	373.75
684.094	349.18
684.284	218.11
684.474	318.46
684.664	312.32
684.854	242.68
685.044	295.93
685.234	230.4
685.424	273.4
685.614	220.16
685.804	394.23
685.994	355.32
686.184	285.69
686.374	265.21
686.564	308.22
686.753	226.3
686.943	140.29
687.133	234.49
687.323	271.36
687.513	445.43
687.702	441.34
687.892	316.41
688.082	293.88
688.272	310.27
688.461	248.83
688.651	383.99
688.841	277.5
689.03	306.17
689.22	271.36
689.41	306.17
689.599	318.46
689.789	205.82
689.979	361.47
690.168	304.12
690.358	359.42
690.547	322.56
690.737	306.17
690.926	283.64
691.116	234.49
691.305	295.93
691.495	332.79
691.684	263.16
691.874	224.25
692.063	302.08
692.252	324.6
692.442	332.79
692.631	209.92
692.82	330.75
693.01	336.89
693.199	203.77
693.388	334.84
693.578	275.45
693.767	316.41
693.956	314.36
694.146	312.32
694.335	265.21
694.524	248.83
694.713	355.32
694.902	214.01
695.092	271.36
695.281	304.12
695.47	285.69
695.659	224.25
695.848	322.56
696.037	265.21
696.226	332.79
696.415	326.65
696.604	355.32
696.793	234.49
696.982	257.02
697.171	392.19
697.36	250.88
697.549	197.63
697.738	91.13
697.927	220.16
698.116	248.83
698.305	259.07
698.494	263.16
698.683	254.97
698.872	363.51
699.061	152.57
699.25	244.73
699.438	308.22
699.627	252.92
699.816	443.39
700.005	164.86
700.193	160.77
700.382	263.16
700.571	259.07
700.76	287.74
700.948	345.08
701.137	252.92
701.326	297.98
701.514	168.96
701.703	297.98
701.892	222.2
702.08	379.9
702.269	214.01
702.457	154.62
702.646	162.81
702.834	211.96
703.023	359.42
703.212	326.65
703.4	281.6
703.589	214.01
703.777	252.92
703.965	197.63
704.154	275.45
704.342	189.44
704.531	265.21
704.719	312.32
704.907	291.84
705.096	173.05
705.284	189.44
705.472	246.78
705.661	220.16
705.849	330.75
706.037	271.36
706.226	230.4
706.414	271.36
706.602	285.69
706.79	375.8
706.979	271.36
707.167	207.87
707.355	164.86
707.543	236.54
707.731	308.22
707.919	265.21
708.107	218.11
708.296	191.49
708.484	152.57
708.672	252.92
708.86	224.25
709.048	271.36
709.236	248.83
709.424	318.46
709.612	238.59
709.8	179.2
709.988	189.44
710.176	257.02
710.364	308.22
710.551	154.62
710.739	252.92
710.927	218.11
711.115	252.92
711.303	353.27
711.491	304.12
711.679	181.25
711.866	271.36
712.054	203.77
712.242	252.92
712.43	363.51
712.617	166.91
712.805	277.5
712.993	199.68
713.181	130.05
713.368	293.88
713.556	300.03
713.744	205.82
713.931	424.95
714.119	261.12
714.306	252.92
714.494	291.84
714.682	353.27
714.869	107.52
715.057	226.3
715.244	134.14
715.432	181.25
715.619	152.57
715.807	158.72
715.994	197.63
716.182	261.12
716.369	302.08
716.556	359.42
716.744	187.39
716.931	164.86
717.119	302.08
717.306	275.45
717.493	383.99
717.681	263.16
717.868	175.1
718.055	386.04
718.242	252.92
718.43	281.6
718.617	363.51
718.804	259.07
718.991	400.38
719.179	330.75
719.366	308.22
719.553	302.08
719.74	275.45
719.927	318.46
720.114	328.7
720.301	207.87
720.488	287.74
720.676	218.11
720.863	349.18
721.05	371.71
721.237	363.51
721.424	373.75
721.611	320.51
721.798	177.15
721.985	269.31
722.172	252.92
722.358	365.56
722.545	359.42
722.732	324.6
722.919	386.04
723.106	326.65
723.293	330.75
723.48	242.68
723.667	275.45
723.853	365.56
724.04	277.5
724.227	365.56
724.414	281.6
724.6	394.23
724.787	467.96
724.974	510.97
725.161	347.13
725.347	269.31
725.534	320.51
725.72	390.14
725.907	394.23
726.094	398.33
726.28	238.59
726.467	277.5
726.653	279.55
726.84	472.06
727.027	490.49
727.213	357.37
727.4	457.72
727.586	427
727.773	330.75
727.959	338.94
728.145	332.79
728.332	355.32
728.518	336.89
728.705	470.01
728.891	263.16
729.077	402.43
729.264	332.79
729.45	302.08
729.636	433.15
729.823	345.08
730.009	414.71
730.195	336.89
730.382	388.09
730.568	269.31
730.754	457.72
730.94	353.27
731.126	343.03
731.313	447.48
731.499	293.88
731.685	476.15
731.871	449.53
732.057	418.81
732.243	484.34
732.429	459.77
732.615	506.87
732.801	406.52
732.987	420.86
733.173	379.9
733.359	306.17
733.545	445.43
733.731	367.61
733.917	500.73
734.103	377.85
734.289	396.28
734.475	392.19
734.661	525.3
734.847	340.99
735.033	392.19
735.219	435.19
735.404	381.95
735.59	355.32
735.776	359.42
735.962	418.81
736.148	437.24
736.333	480.25
736.519	334.84
736.705	396.28
736.89	435.19
737.076	412.67
737.262	322.56
737.447	396.28
737.633	375.8
737.819	461.82
738.004	343.03
738.19	467.96
738.375	443.39
738.561	482.3
738.747	474.1
738.932	369.66
739.118	599.03
739.303	474.1
739.489	418.81
739.674	371.71
739.859	261.12
740.045	498.68
740.23	427
740.416	283.64
740.601	338.94
740.786	433.15
740.972	361.47
741.157	330.75
741.342	287.74
741.528	246.78
741.713	394.23
741.898	359.42
742.084	408.57
742.269	392.19
742.454	433.15
742.639	463.86
742.824	379.9
743.01	484.34
743.195	504.82
743.38	396.28
743.565	326.65
743.75	472.06
743.935	472.06
744.12	463.86
744.305	300.03
744.49	297.98
744.675	293.88
744.86	285.69
745.045	381.95
745.23	300.03
745.415	361.47
745.6	490.49
745.785	377.85
745.97	449.53
746.155	422.91
746.34	525.3
746.525	377.85
746.71	437.24
746.895	306.17
747.079	334.84
747.264	345.08
747.449	447.48
747.634	422.91
747.819	443.39
748.003	250.88
748.188	263.16
748.373	320.51
748.557	357.37
748.742	353.27
748.927	363.51
749.111	312.32
749.296	257.02
749.481	357.37
749.665	326.65
749.85	244.73
750.034	375.8
750.219	297.98
750.404	359.42
750.588	353.27
750.773	330.75
750.957	365.56
751.141	279.55
751.326	381.95
751.51	291.84
751.695	281.6
751.879	216.06
752.064	410.62
752.248	400.38
752.432	369.66
752.617	308.22
752.801	375.8
752.985	257.02
753.17	336.89
753.354	326.65
753.538	343.03
753.722	261.12
753.907	291.84
754.091	189.44
754.275	310.27
754.459	193.53
754.643	199.68
754.828	302.08
755.012	250.88
755.196	128
755.38	228.35
755.564	201.72
755.748	226.3
755.932	316.41
756.116	275.45
756.3	322.56
756.484	228.35
756.668	328.7
756.852	209.92
757.036	189.44
757.22	248.83
757.404	238.59
757.588	261.12
757.772	236.54
757.956	271.36
758.14	320.51
758.323	156.67
758.507	277.5
758.691	236.54
758.875	381.95
759.059	322.56
759.242	164.86
759.426	173.05
759.61	250.88
759.794	128
759.977	250.88
760.161	459.77
760.345	398.33
760.528	328.7
760.712	234.49
760.895	277.5
761.079	252.92
761.263	154.62
761.446	148.48
761.63	189.44
761.813	345.08
761.997	103.42
762.18	191.49
762.364	224.25
762.547	179.2
762.731	148.48
762.914	168.96
763.098	160.77
763.281	216.06
763.464	146.43
763.648	160.77
763.831	193.53
764.015	101.37
764.198	226.3
764.381	220.16
764.564	252.92
764.748	181.25
764.931	183.29
765.114	166.91
765.297	259.07
765.481	56.32
765.664	166.91
765.847	156.67
766.03	216.06
766.213	193.53
766.397	185.34
766.58	101.37
766.763	252.92
766.946	171.01
767.129	117.76
767.312	80.89
767.495	191.49
767.678	58.37
767.861	168.96
768.044	123.9
768.227	209.92
768.41	211.96
768.593	164.86
768.776	105.47
768.959	128
769.142	244.73
769.324	175.1
769.507	150.53
769.69	201.72
769.873	205.82
770.056	324.6
770.239	199.68
770.421	254.97
770.604	181.25
770.787	113.66
770.97	220.16
771.152	93.18
771.335	211.96
771.518	111.61
771.7	246.78
771.883	197.63
772.066	185.34
772.248	160.77
772.431	273.4
772.613	248.83
772.796	168.96
772.978	201.72
773.161	250.88
773.343	158.72
773.526	97.28
773.708	44.03
773.891	74.75
774.073	95.23
774.256	99.33
774.438	197.63
774.621	58.37
774.803	195.58
774.985	-5.12
775.168	185.34
775.35	158.72
775.532	214.01
775.715	44.03
775.897	134.14
776.079	13.31
776.261	82.94
776.444	103.42
776.626	138.24
776.808	41.98
776.99	-5.12
777.173	72.7
777.355	107.52
777.537	193.53
777.719	156.67
777.901	105.47
778.083	56.32
778.265	44.03
778.447	166.91
778.629	150.53
778.811	156.67
778.993	142.33
779.175	123.9
779.357	76.8
779.539	25.6
779.721	62.46
779.903	123.9
780.085	128
780.267	74.75
780.449	148.48
780.631	164.86
780.812	187.39
780.994	103.42
781.176	76.8
781.358	134.14
781.54	78.85
781.721	201.72
781.903	103.42
782.085	46.08
782.267	128
782.448	-31.74
782.63	-39.94
782.812	97.28
782.993	148.48
783.175	136.19
783.357	-7.17
783.538	136.19
783.72	74.75
783.901	162.81
784.083	148.48
784.264	117.76
784.446	-76.8
784.627	-7.17
784.809	130.05
784.99	105.47
785.172	78.85
785.353	66.56
785.535	140.29
785.716	44.03
785.897	-29.7
786.079	41.98
786.26	125.95
786.441	64.51
786.623	-11.26
786.804	89.09
786.985	134.14
787.167	54.27
787.348	39.94
787.529	46.08
787.71	173.05
787.891	89.09
788.073	-15.36
788.254	9.22
788.435	121.85
788.616	140.29
788.797	-1.02
788.978	-5.12
789.159	95.23
789.34	117.76
789.522	76.8
789.703	5.12
789.884	62.46
790.065	41.98
790.246	195.58
790.427	-17.41
790.607	162.81
790.788	121.85
790.969	44.03
791.15	31.74
791.331	-29.7
791.512	15.36
791.693	-60.42
791.874	29.7
792.054	261.12
792.235	52.22
792.416	-33.79
792.597	-52.22
792.778	132.09
792.958	72.7
793.139	93.18
793.32	152.57
793.5	25.6
793.681	199.68
793.862	54.27
794.042	97.28
794.223	-62.46
794.404	-19.46
794.584	-23.55
794.765	-1.02
794.945	-7.17
795.126	35.84
795.306	144.38
795.487	-13.31
795.667	33.79
795.848	1.02
796.028	78.85
796.209	173.05
796.389	128
796.57	103.42
796.75	-72.7
796.93	89.09
797.111	50.18
797.291	13.31
797.471	89.09
797.652	91.13
797.832	3.07
798.012	87.04
798.192	-25.6
798.373	-84.99
798.553	87.04
798.733	-19.46
798.913	-74.75
799.093	-93.18
799.274	93.18
799.454	107.52
799.634	111.61
799.814	156.67
799.994	121.85
800.174	66.56
800.354	107.52
800.534	-44.03
800.714	134.14
800.894	-29.7
801.074	-52.22
801.254	48.13
801.434	76.8
801.614	7.17
801.794	-29.7
801.974	1756.13
802.154	35.84
802.334	134.14
802.514	-15.36
802.693	-27.65
802.873	21.5
803.053	166.91
803.233	105.47
803.413	-3.07
803.592	31.74
803.772	-19.46
803.952	19.46
804.131	-17.41
804.311	70.65
804.491	82.94
804.67	-35.84
804.85	-11.26
805.03	68.61
805.209	185.34
805.389	39.94
805.568	35.84
805.748	72.7
805.928	13.31
806.107	121.85
806.287	107.52
806.466	44.03
806.646	56.32
806.825	68.61
807.004	5.12
807.184	41.98
807.363	50.18
807.543	5.12
807.722	-91.13
807.901	93.18
808.081	84.99
808.26	-123.9
808.439	72.7
808.619	68.61
808.798	64.51
808.977	41.98
809.156	156.67
809.336	50.18
809.515	82.94
809.694	-48.13
809.873	5.12
810.052	48.13
810.231	15.36
810.411	25.6
810.59	72.7
810.769	-9.22
810.948	89.09
811.127	-11.26
811.306	78.85
811.485	62.46
811.664	91.13
811.843	93.18
812.022	84.99
812.201	-60.42
812.38	64.51
812.559	-46.08
812.737	39.94
812.916	-35.84
813.095	-62.46
813.274	70.65
813.453	50.18
813.632	-21.5
813.811	115.71
813.989	-58.37
814.168	-31.74
814.347	-72.7
814.526	60.42
814.704	64.51
814.883	123.9
815.062	35.84
815.24	99.33
815.419	-27.65
815.598	31.74
815.776	-52.22
815.955	50.18
816.133	-82.94
816.312	-44.03
816.49	-91.13
816.669	70.65
816.847	19.46
817.026	76.8
817.204	37.89
817.383	48.13
817.561	13.31
817.74	19.46
817.918	9.22
818.097	-52.22
818.275	-27.65
818.453	99.33
818.632	87.04
818.81	-46.08
818.988	-3.07
819.167	-60.42
819.345	-3.07
819.523	19.46
819.701	70.65
819.879	107.52
820.058	-58.37
820.236	21.5
820.414	5.12
820.592	-41.98
820.77	121.85
820.948	44.03
821.127	-46.08
821.305	21.5
821.483	-52.22
821.661	64.51
821.839	33.79
822.017	-35.84
822.195	62.46
822.373	33.79
822.551	58.37
822.729	111.61
822.907	-58.37
823.085	58.37
823.262	33.79
823.44	-33.79
823.618	33.79
823.796	-41.98
823.974	3.07
824.152	-68.61
824.329	-23.55
824.507	37.89
824.685	39.94
824.863	25.6
825.04	21.5
825.218	117.76
825.396	-11.26
825.574	44.03
825.751	9.22
825.929	13.31
826.107	-27.65
826.284	29.7
826.462	78.85
826.639	-74.75
826.817	-39.94
826.994	21.5
827.172	-66.56
827.349	78.85
827.527	95.23
827.704	27.65
827.882	31.74
828.059	-29.7
828.237	37.89
828.414	146.43
828.591	-19.46
828.769	37.89
828.946	-37.89
829.124	99.33
829.301	111.61
829.478	23.55
829.655	84.99
829.833	41.98
830.01	-31.74
830.187	91.13
830.364	-78.85
830.542	66.56
830.719	138.24
830.896	19.46
831.073	31.74
831.25	117.76
831.427	87.04
831.604	-9.22
831.782	-37.89
831.959	58.37
832.136	7.17
832.313	-25.6
832.49	-7.17
832.667	107.52
832.844	-3.07
833.021	173.05
833.198	9.22
833.374	54.27
833.551	56.32
833.728	-7.17
833.905	31.74
834.082	-56.32
834.259	13.31
834.436	150.53
834.612	-25.6
834.789	93.18
834.966	93.18
835.143	17.41
835.319	-84.99
835.496	60.42
835.673	25.6
835.85	70.65
836.026	-1.02
836.203	119.81
836.38	-9.22
836.556	-21.5
836.733	-27.65
836.909	238.59
837.086	-1.02
837.262	-68.61
837.439	11.26
837.616	25.6
837.792	-27.65
837.968	68.61
838.145	-68.61
838.321	-33.79
838.498	-11.26
838.674	95.23
838.851	84.99
839.027	-23.55
839.203	25.6
839.38	17.41
839.556	-84.99
839.732	150.53
839.909	19.46
840.085	54.27
840.261	-25.6
840.437	5.12
840.614	-76.8
840.79	37.89
840.966	1.02
841.142	50.18
841.318	-97.28
841.494	84.99
841.671	44.03
841.847	-33.79
842.023	-68.61
842.199	62.46
842.375	97.28
842.551	-132.09
842.727	-95.23
842.903	136.19
843.079	-13.31
843.255	171.01
843.431	3.07
843.607	29.7
843.783	-146.43
843.959	-25.6
844.134	-5.12
844.31	74.75
844.486	31.74
844.662	33.79
844.838	-33.79
845.013	23.55
845.189	99.33
845.365	-62.46
845.541	3.07
845.716	-3.07
845.892	80.89
846.068	56.32
846.244	17.41
846.419	33.79
846.595	-58.37
846.77	-13.31
846.946	60.42
847.122	70.65
847.297	-62.46
847.473	156.67
847.648	-41.98
847.824	46.08
847.999	-130.05
848.175	48.13
848.35	46.08
848.526	58.37
848.701	5.12
848.876	146.43
849.052	84.99
849.227	-17.41
849.403	52.22
849.578	-7.17
849.753	-5.12
849.929	87.04
850.104	-70.65
850.279	35.84
850.454	54.27
850.63	78.85
850.805	68.61
850.98	11.26
851.155	7.17
851.33	-19.46
851.505	-84.99
851.681	128
851.856	-91.13
852.031	29.7
852.206	13.31
852.381	-56.32
852.556	25.6
852.731	13.31
852.906	21.5
853.081	97.28
853.256	84.99
853.431	82.94
853.606	11.26
853.781	-46.08
853.956	-125.95
854.131	52.22
854.305	-25.6
854.48	-52.22
854.655	-39.94
854.83	-25.6
855.005	-68.61
855.18	13.31
855.354	27.65
855.529	109.57
855.704	-15.36
855.879	33.79
856.053	-72.7
856.228	31.74
856.403	-48.13
856.577	121.85
856.752	-80.89
856.926	-1.02
857.101	-5.12
857.276	-56.32
857.45	54.27
857.625	23.55
857.799	17.41
857.974	23.55
858.148	-95.23
858.323	13.31
858.497	17.41
858.672	-35.84
858.846	-35.84
859.02	62.46
859.195	-80.89
859.369	-41.98
859.543	19.46
859.718	-21.5
859.892	-35.84
860.066	7.17
860.241	-31.74
860.415	39.94
860.589	-62.46
860.763	23.55
860.938	74.75
861.112	-19.46
861.286	62.46
861.46	74.75
861.634	-89.09
861.808	35.84
861.982	-41.98
862.157	-91.13
862.331	-44.03
862.505	-97.28
862.679	-142.33
862.853	-46.08
863.027	15.36
863.201	82.94
863.375	-7.17
863.549	101.37
863.722	13.31
863.896	119.81
864.07	-29.7
864.244	-15.36
864.418	123.9
864.592	-19.46
864.766	52.22
864.939	-33.79
865.113	-107.52
865.287	89.09
865.461	-101.37
865.634	-31.74
865.808	46.08
865.982	-1.02
866.156	-66.56
866.329	-115.71
866.503	-9.22
866.676	-3.07
866.85	62.46
867.024	-35.84
867.197	121.85
867.371	74.75
867.544	91.13
867.718	-125.95
867.891	66.56
868.065	-93.18
868.238	-21.5
868.412	164.86
868.585	66.56
868.759	33.79
868.932	13.31
869.105	-56.32
869.279	52.22
869.452	-87.04
869.625	39.94
869.799	-33.79
869.972	-125.95
870.145	-25.6
870.319	-60.42
870.492	-62.46
870.665	17.41
870.838	-13.31
871.011	-33.79
871.185	-46.08
871.358	5.12
871.531	-39.94
871.704	-46.08
871.877	23.55
872.05	-46.08
872.223	-13.31
872.396	41.98
872.569	-33.79
872.742	-132.09
872.915	50.18
873.088	37.89
873.261	-52.22
873.434	58.37
873.607	3.07
873.78	68.61
873.953	-76.8
874.126	7.17
874.299	62.46
874.471	17.41
874.644	21.5
874.817	37.89
874.99	66.56
875.163	27.65
875.335	89.09
875.508	-37.89
875.681	115.71
875.853	7.17
876.026	13.31
876.199	115.71
876.371	15.36
876.544	-11.26
876.717	3.07
876.889	-27.65
877.062	62.46
877.234	-109.57
877.407	5.12
877.579	50.18
877.752	-23.55
877.924	56.32
878.097	-1.02
878.269	19.46
878.442	15.36
878.614	128
878.786	-44.03
878.959	15.36
879.131	-11.26
879.303	-105.47
879.476	-27.65
879.648	56.32
879.82	-17.41
879.993	-119.81
880.165	23.55
880.337	-68.61
880.509	-15.36
880.681	-128
880.854	-29.7
881.026	-11.26
881.198	128
881.37	74.75
881.542	-44.03
881.714	3.07
881.886	7.17
882.058	-23.55
882.23	-35.84
882.402	7.17
882.574	39.94
882.746	70.65
882.918	39.94
883.09	-7.17
883.262	-31.74
883.434	19.46
883.606	-152.57
883.778	-11.26
883.95	130.05
884.122	15.36
884.293	113.66
884.465	-23.55
884.637	136.19
884.809	-29.7
884.98	-21.5
885.152	123.9
885.324	29.7
885.496	35.84
885.667	-44.03
885.839	87.04
886.011	113.66
886.182	41.98
886.354	89.09
886.525	29.7
886.697	27.65
886.869	-41.98
887.04	-13.31
887.212	60.42
887.383	76.8
887.555	23.55
887.726	-35.84
887.897	-19.46
888.069	52.22
888.24	52.22
888.412	128
888.583	-35.84
888.754	-13.31
888.926	-185.34
889.097	-1.02
889.268	13.31
889.44	56.32
889.611	-72.7
889.782	-50.18
889.953	-37.89
890.125	70.65
890.296	-99.33
890.467	-27.65
890.638	7.17
890.809	-66.56
890.98	-46.08
891.151	56.32
891.323	74.75
891.494	46.08
891.665	-72.7
891.836	64.51
892.007	-76.8
892.178	58.37
892.349	-13.31
892.52	-54.27
892.691	-15.36
892.862	29.7
893.032	-91.13
893.203	46.08
893.374	17.41
893.545	64.51
893.716	-76.8
893.887	54.27
894.057	-66.56
894.228	-33.79
894.399	-62.46
894.57	195.58
894.74	-41.98
894.911	64.51
895.082	-23.55
895.253	-21.5
895.423	17.41
895.594	78.85
895.764	46.08
895.935	-15.36
896.106	23.55
896.276	-70.65
896.447	44.03
896.617	19.46
896.788	-72.7
896.958	3.07
897.129	-72.7
897.299	5.12
897.47	211.96
897.64	-3.07
897.81	115.71
897.981	17.41
898.151	-89.09
898.322	27.65
898.492	37.89
898.662	-60.42
898.832	29.7
899.003	-39.94
899.173	21.5
899.343	-23.55
899.513	-70.65
