Data from USB4F104151__25__09-26-11-117.txt Node

Date: Wed Feb 26 09:26:11 EST 2025
User: louis
Spectrometer: USB4F10415
Trigger mode: 4
Integration Time (sec): 1.000000E-1
Scans to average: 1
Electric dark correction enabled: true
Nonlinearity correction enabled: false
Boxcar width: 0
XAxis mode: Wavelengths
Number of Pixels in Spectrum: 3648
>>>>>Begin Spectral Data<<<<<
178.204	-338.26
178.424	-338.26
178.644	-338.26
178.864	-328.02
179.084	-393.55
179.304	-0.34
179.524	-20.82
179.744	-22.87
179.964	63.15
180.184	3.75
180.404	-29.01
180.624	50.86
180.844	38.57
181.064	-74.07
181.283	-45.4
181.503	-0.34
181.723	36.52
181.943	-104.79
182.163	93.87
182.383	-39.25
182.602	24.23
182.822	118.44
183.042	38.57
183.262	-72.02
183.482	-31.06
183.701	-86.36
183.921	3.75
184.141	-35.16
184.361	77.48
184.58	24.23
184.8	7.85
185.02	-49.49
185.239	85.67
185.459	91.82
185.679	108.2
185.898	-78.16
186.118	28.33
186.338	32.43
186.557	108.2
186.777	-29.01
186.997	-67.92
187.216	50.86
187.436	167.59
187.655	-12.63
187.875	102.06
188.095	28.33
188.314	110.25
188.534	120.49
188.753	-98.64
188.973	89.77
189.192	67.24
189.412	34.47
189.631	48.81
189.851	100.01
190.07	126.63
190.29	-41.3
190.509	-22.87
190.729	42.67
190.948	91.82
191.168	233.13
191.387	52.91
191.607	-41.3
191.826	13.99
192.045	-22.87
192.265	-2.39
192.484	20.14
192.704	-12.63
192.923	-98.64
193.142	186.02
193.362	75.43
193.581	177.83
193.8	-80.21
194.02	75.43
194.239	44.71
194.458	67.24
194.678	24.23
194.897	26.28
195.116	61.1
195.335	32.43
195.555	7.85
195.774	-20.82
195.993	52.91
196.212	28.33
196.432	1.71
196.651	-47.44
196.87	-61.78
197.089	196.26
197.308	102.06
197.528	52.91
197.747	-74.07
197.966	-4.44
198.185	108.2
198.404	-74.07
198.623	34.47
198.842	69.29
199.062	126.63
199.281	110.25
199.5	28.33
199.719	130.73
199.938	38.57
200.157	52.91
200.376	20.14
200.595	34.47
200.814	57
201.033	46.76
201.252	143.02
201.471	95.91
201.69	20.14
201.909	3.75
202.128	106.15
202.347	30.38
202.566	69.29
202.785	-78.16
203.004	20.14
203.223	177.83
203.442	5.8
203.661	-104.79
203.879	81.58
204.098	89.77
204.317	-31.06
204.536	63.15
204.755	18.09
204.974	145.06
205.193	-10.58
205.411	138.92
205.63	75.43
205.849	11.95
206.068	-8.53
206.287	-6.49
206.505	118.44
206.724	9.9
206.943	50.86
207.162	-80.21
207.381	5.8
207.599	-41.3
207.818	-6.49
208.037	-12.63
208.255	3.75
208.474	57
208.693	134.82
208.911	-24.92
209.13	57
209.349	-4.44
209.567	48.81
209.786	83.63
210.005	7.85
210.223	-20.82
210.442	-4.44
210.661	38.57
210.879	36.52
211.098	9.9
211.316	44.71
211.535	32.43
211.753	52.91
211.972	59.05
212.191	11.95
212.409	65.19
212.628	83.63
212.846	-0.34
213.065	40.62
213.283	118.44
213.502	34.47
213.72	9.9
213.938	42.67
214.157	-6.49
214.375	61.1
214.594	91.82
214.812	-12.63
215.031	-45.4
215.249	-57.68
215.467	-6.49
215.686	40.62
215.904	42.67
216.122	36.52
216.341	126.63
216.559	34.47
216.778	114.34
216.996	61.1
217.214	-8.53
217.432	22.19
217.651	42.67
217.869	52.91
218.087	48.81
218.306	3.75
218.524	40.62
218.742	3.75
218.96	52.91
219.179	-76.12
219.397	-4.44
219.615	200.36
219.833	46.76
220.051	-45.4
220.27	75.43
220.488	159.4
220.706	61.1
220.924	-20.82
221.142	24.23
221.36	110.25
221.578	118.44
221.796	67.24
222.015	-16.73
222.233	-61.78
222.451	126.63
222.669	-22.87
222.887	44.71
223.105	-26.96
223.323	28.33
223.541	-10.58
223.759	65.19
223.977	50.86
224.195	159.4
224.413	59.05
224.631	36.52
224.849	97.96
225.067	134.82
225.285	-12.63
225.503	-53.59
225.721	-67.92
225.939	48.81
226.157	-26.96
226.375	161.45
226.592	-14.68
226.81	-16.73
227.028	89.77
227.246	81.58
227.464	18.09
227.682	40.62
227.9	20.14
228.117	97.96
228.335	1.71
228.553	-31.06
228.771	71.34
228.989	-6.49
229.206	-6.49
229.424	16.04
229.642	11.95
229.86	20.14
230.077	136.87
230.295	-6.49
230.513	87.72
230.731	95.91
230.948	69.29
231.166	149.16
231.384	-4.44
231.601	3.75
231.819	143.02
232.037	-43.35
232.254	-24.92
232.472	46.76
232.689	-20.82
232.907	52.91
233.125	59.05
233.342	-72.02
233.56	24.23
233.777	-2.39
233.995	46.76
234.213	102.06
234.43	59.05
234.648	-49.49
234.865	5.8
235.083	38.57
235.3	104.11
235.518	79.53
235.735	151.21
235.953	-31.06
236.17	83.63
236.388	59.05
236.605	40.62
236.822	77.48
237.04	108.2
237.257	-4.44
237.475	-20.82
237.692	42.67
237.909	40.62
238.127	-92.5
238.344	69.29
238.562	3.75
238.779	-41.3
238.996	-14.68
239.214	-45.4
239.431	67.24
239.648	32.43
239.865	44.71
240.083	155.3
240.3	3.75
240.517	-22.87
240.735	18.09
240.952	79.53
241.169	-8.53
241.386	95.91
241.603	-35.16
241.821	-65.88
242.038	83.63
242.255	44.71
242.472	26.28
242.689	54.95
242.907	40.62
243.124	-16.73
243.341	-82.26
243.558	-33.11
243.775	-45.4
243.992	-88.4
244.209	57
244.426	134.82
244.643	44.71
244.86	42.67
245.078	3.75
245.295	48.81
245.512	54.95
245.729	-49.49
245.946	44.71
246.163	44.71
246.38	-20.82
246.597	20.14
246.814	28.33
247.031	13.99
247.248	-18.77
247.464	112.3
247.681	30.38
247.898	34.47
248.115	75.43
248.332	-8.53
248.549	93.87
248.766	147.11
248.983	73.39
249.2	54.95
249.417	1.71
249.633	-0.34
249.85	63.15
250.067	-16.73
250.284	24.23
250.501	100.01
250.717	116.39
250.934	-61.78
251.151	85.67
251.368	-31.06
251.585	81.58
251.801	-2.39
252.018	-37.2
252.235	32.43
252.451	-92.5
252.668	-12.63
252.885	5.8
253.102	81.58
253.318	-4.44
253.535	-47.44
253.752	-24.92
253.968	54.95
254.185	-37.2
254.401	87.72
254.618	81.58
254.835	-4.44
255.051	102.06
255.268	132.78
255.484	-37.2
255.701	16.04
255.917	36.52
256.134	-39.25
256.351	-39.25
256.567	52.91
256.784	11.95
257	-14.68
257.217	85.67
257.433	-24.92
257.65	-4.44
257.866	73.39
258.082	-10.58
258.299	48.81
258.515	77.48
258.732	3.75
258.948	-49.49
259.165	7.85
259.381	-82.26
259.597	-14.68
259.814	5.8
260.03	42.67
260.246	13.99
260.463	75.43
260.679	93.87
260.895	36.52
261.112	38.57
261.328	-41.3
261.544	5.8
261.761	126.63
261.977	-49.49
262.193	-76.12
262.409	-6.49
262.626	13.99
262.842	50.86
263.058	-31.06
263.274	26.28
263.49	40.62
263.707	48.81
263.923	-24.92
264.139	-51.54
264.355	-22.87
264.571	124.58
264.787	57
265.004	93.87
265.22	-6.49
265.436	-78.16
265.652	9.9
265.868	16.04
266.084	3.75
266.3	-67.92
266.516	-41.3
266.732	-37.2
266.948	-35.16
267.164	20.14
267.38	40.62
267.596	85.67
267.812	63.15
268.028	-0.34
268.244	59.05
268.46	-43.35
268.676	-31.06
268.892	30.38
269.108	-106.84
269.324	-96.6
269.54	-49.49
269.756	81.58
269.972	-22.87
270.188	-31.06
270.403	-47.44
270.619	30.38
270.835	57
271.051	-45.4
271.267	7.85
271.483	-4.44
271.698	50.86
271.914	81.58
272.13	-8.53
272.346	52.91
272.562	11.95
272.777	108.2
272.993	3.75
273.209	-8.53
273.425	50.86
273.64	-16.73
273.856	81.58
274.072	-12.63
274.287	-53.59
274.503	36.52
274.719	71.34
274.934	-8.53
275.15	1.71
275.366	-35.16
275.581	-24.92
275.797	1.71
276.012	13.99
276.228	-94.55
276.444	65.19
276.659	63.15
276.875	-22.87
277.09	-6.49
277.306	-59.73
277.521	22.19
277.737	100.01
277.952	52.91
278.168	52.91
278.383	75.43
278.599	28.33
278.814	118.44
279.03	-41.3
279.245	89.77
279.461	-6.49
279.676	63.15
279.892	-98.64
280.107	-74.07
280.322	-82.26
280.538	40.62
280.753	-51.54
280.969	-53.59
281.184	18.09
281.399	134.82
281.615	42.67
281.83	108.2
282.045	-22.87
282.26	-22.87
282.476	48.81
282.691	100.01
282.906	69.29
283.122	104.11
283.337	9.9
283.552	18.09
283.767	-82.26
283.983	7.85
284.198	28.33
284.413	67.24
284.628	-22.87
284.843	116.39
285.058	83.63
285.274	-12.63
285.489	-47.44
285.704	124.58
285.919	-0.34
286.134	-37.2
286.349	-0.34
286.564	36.52
286.779	93.87
286.995	-14.68
287.21	-92.5
287.425	120.49
287.64	26.28
287.855	134.82
288.07	-86.36
288.285	48.81
288.5	65.19
288.715	34.47
288.93	-4.44
289.145	50.86
289.36	54.95
289.575	3.75
289.79	102.06
290.004	13.99
290.219	110.25
290.434	44.71
290.649	-78.16
290.864	-22.87
291.079	-65.88
291.294	3.75
291.509	-14.68
291.724	-8.53
291.938	59.05
292.153	-26.96
292.368	-80.21
292.583	50.86
292.798	26.28
293.012	116.39
293.227	24.23
293.442	48.81
293.657	1.71
293.871	85.67
294.086	114.34
294.301	112.3
294.516	190.12
294.73	30.38
294.945	-110.93
295.16	-69.97
295.374	81.58
295.589	42.67
295.804	13.99
296.018	28.33
296.233	69.29
296.447	36.52
296.662	-45.4
296.877	91.82
297.091	13.99
297.306	11.95
297.52	-29.01
297.735	3.75
297.949	-24.92
298.164	32.43
298.378	61.1
298.593	-26.96
298.807	-41.3
299.022	7.85
299.236	77.48
299.451	-37.2
299.665	52.91
299.88	11.95
300.094	32.43
300.309	57
300.523	26.28
300.737	-12.63
300.952	57
301.166	34.47
301.381	-4.44
301.595	-57.68
301.809	-41.3
302.024	-61.78
302.238	-41.3
302.452	71.34
302.667	44.71
302.881	126.63
303.095	120.49
303.309	75.43
303.524	-4.44
303.738	1.71
303.952	-0.34
304.166	-53.59
304.381	-63.83
304.595	149.16
304.809	38.57
305.023	24.23
305.237	59.05
305.452	102.06
305.666	83.63
305.88	42.67
306.094	118.44
306.308	28.33
306.522	100.01
306.736	34.47
306.95	-6.49
307.164	18.09
307.379	-29.01
307.593	102.06
307.807	81.58
308.021	104.11
308.235	120.49
308.449	-82.26
308.663	32.43
308.877	200.36
309.091	-4.44
309.305	46.76
309.519	-96.6
309.733	28.33
309.947	-57.68
310.161	63.15
310.374	71.34
310.588	54.95
310.802	1.71
311.016	-57.68
311.23	-16.73
311.444	-45.4
311.658	18.09
311.872	85.67
312.085	59.05
312.299	138.92
312.513	102.06
312.727	112.3
312.941	-29.01
313.154	22.19
313.368	30.38
313.582	-0.34
313.796	-37.2
314.009	40.62
314.223	122.54
314.437	18.09
314.651	100.01
314.864	26.28
315.078	-74.07
315.292	-98.64
315.505	3.75
315.719	36.52
315.933	48.81
316.146	-33.11
316.36	-8.53
316.573	77.48
316.787	36.52
317.001	22.19
317.214	-47.44
317.428	9.9
317.641	-31.06
317.855	-74.07
318.068	61.1
318.282	52.91
318.495	132.78
318.709	75.43
318.922	-41.3
319.136	73.39
319.349	118.44
319.563	26.28
319.776	46.76
319.99	-24.92
320.203	50.86
320.417	26.28
320.63	46.76
320.843	155.3
321.057	77.48
321.27	16.04
321.483	52.91
321.697	161.45
321.91	44.71
322.124	102.06
322.337	7.85
322.55	-63.83
322.763	18.09
322.977	11.95
323.19	-65.88
323.403	57
323.617	-20.82
323.83	110.25
324.043	-20.82
324.256	52.91
324.469	-33.11
324.683	132.78
324.896	20.14
325.109	18.09
325.322	-106.84
325.535	106.15
325.748	71.34
325.962	48.81
326.175	42.67
326.388	91.82
326.601	114.34
326.814	-10.58
327.027	11.95
327.24	132.78
327.453	-88.4
327.666	-0.34
327.879	140.97
328.092	81.58
328.305	42.67
328.518	-74.07
328.731	13.99
328.944	9.9
329.157	7.85
329.37	30.38
329.583	77.48
329.796	147.11
330.009	-51.54
330.222	85.67
330.435	73.39
330.648	-72.02
330.861	126.63
331.073	-0.34
331.286	59.05
331.499	48.81
331.712	-65.88
331.925	-12.63
332.138	30.38
332.35	34.47
332.563	-86.36
332.776	40.62
332.989	-14.68
333.202	-4.44
333.414	3.75
333.627	69.29
333.84	-12.63
334.053	46.76
334.265	44.71
334.478	28.33
334.691	34.47
334.903	34.47
335.116	-57.68
335.329	-37.2
335.541	42.67
335.754	151.21
335.966	26.28
336.179	-47.44
336.392	-29.01
336.604	-20.82
336.817	134.82
337.029	97.96
337.242	-39.25
337.454	61.1
337.667	81.58
337.88	102.06
338.092	3.75
338.305	65.19
338.517	28.33
338.729	75.43
338.942	57
339.154	-29.01
339.367	-45.4
339.579	77.48
339.792	-72.02
340.004	85.67
340.217	18.09
340.429	69.29
340.641	36.52
340.854	-82.26
341.066	-2.39
341.278	77.48
341.491	132.78
341.703	61.1
341.915	-72.02
342.128	89.77
342.34	-14.68
342.552	-49.49
342.764	50.86
342.977	7.85
343.189	73.39
343.401	42.67
343.613	-127.32
343.826	89.77
344.038	-63.83
344.25	104.11
344.462	-88.4
344.674	-29.01
344.886	24.23
345.099	-8.53
345.311	112.3
345.523	28.33
345.735	-92.5
345.947	24.23
346.159	16.04
346.371	-14.68
346.583	-12.63
346.795	122.54
347.007	-63.83
347.219	34.47
347.431	-63.83
347.643	102.06
347.855	-39.25
348.067	138.92
348.279	-61.78
348.491	24.23
348.703	65.19
348.915	-37.2
349.127	-14.68
349.339	20.14
349.551	-6.49
349.763	91.82
349.975	-69.97
350.187	83.63
350.399	73.39
350.61	-2.39
350.822	7.85
351.034	44.71
351.246	-16.73
351.458	65.19
351.669	-4.44
351.881	-20.82
352.093	52.91
352.305	63.15
352.517	24.23
352.728	69.29
352.94	-35.16
353.152	61.1
353.363	-80.21
353.575	69.29
353.787	97.96
353.999	102.06
354.21	128.68
354.422	38.57
354.633	11.95
354.845	67.24
355.057	93.87
355.268	42.67
355.48	112.3
355.692	-115.03
355.903	48.81
356.115	-20.82
356.326	-45.4
356.538	102.06
356.749	97.96
356.961	134.82
357.172	-12.63
357.384	-47.44
357.595	157.35
357.807	-29.01
358.018	3.75
358.23	-26.96
358.441	63.15
358.653	140.97
358.864	13.99
359.075	-4.44
359.287	22.19
359.498	44.71
359.709	167.59
359.921	26.28
360.132	-0.34
360.344	40.62
360.555	22.19
360.766	26.28
360.977	26.28
361.189	16.04
361.4	42.67
361.611	13.99
361.823	124.58
362.034	44.71
362.245	-22.87
362.456	-8.53
362.667	46.76
362.879	-12.63
363.09	1.71
363.301	3.75
363.512	38.57
363.723	-69.97
363.935	95.91
364.146	118.44
364.357	16.04
364.568	-26.96
364.779	-69.97
364.99	93.87
365.201	28.33
365.412	169.64
365.623	-90.45
365.834	65.19
366.045	9.9
366.256	89.77
366.467	65.19
366.678	24.23
366.889	73.39
367.1	34.47
367.311	110.25
367.522	-26.96
367.733	75.43
367.944	28.33
368.155	24.23
368.366	118.44
368.577	167.59
368.788	54.95
368.999	-2.39
369.209	-18.77
369.42	77.48
369.631	212.65
369.842	112.3
370.053	69.29
370.264	79.53
370.474	-80.21
370.685	48.81
370.896	3.75
371.107	100.01
371.317	59.05
371.528	-59.73
371.739	44.71
371.95	69.29
372.16	69.29
372.371	-72.02
372.582	44.71
372.792	61.1
373.003	61.1
373.214	24.23
373.424	106.15
373.635	-86.36
373.846	75.43
374.056	24.23
374.267	20.14
374.477	28.33
374.688	-43.35
374.898	-57.68
375.109	13.99
375.319	-29.01
375.53	83.63
375.74	83.63
375.951	24.23
376.161	91.82
376.372	57
376.582	-16.73
376.793	77.48
377.003	44.71
377.214	-8.53
377.424	69.29
377.635	-55.64
377.845	-69.97
378.055	16.04
378.266	-8.53
378.476	-33.11
378.686	50.86
378.897	157.35
379.107	52.91
379.317	24.23
379.528	9.9
379.738	120.49
379.948	-47.44
380.158	40.62
380.369	-12.63
380.579	67.24
380.789	-4.44
380.999	83.63
381.21	106.15
381.42	114.34
381.63	54.95
381.84	83.63
382.05	81.58
382.261	38.57
382.471	110.25
382.681	5.8
382.891	132.78
383.101	30.38
383.311	-69.97
383.521	34.47
383.731	83.63
383.941	73.39
384.151	57
384.361	-49.49
384.571	124.58
384.781	1.71
384.991	140.97
385.201	34.47
385.411	26.28
385.621	-18.77
385.831	50.86
386.041	50.86
386.251	22.19
386.461	71.34
386.671	36.52
386.881	-16.73
387.091	-24.92
387.301	81.58
387.511	59.05
387.72	100.01
387.93	-24.92
388.14	-63.83
388.35	16.04
388.56	122.54
388.769	93.87
388.979	57
389.189	-94.55
389.399	-14.68
389.609	42.67
389.818	-8.53
390.028	11.95
390.238	54.95
390.447	3.75
390.657	143.02
390.867	-39.25
391.076	-16.73
391.286	-2.39
391.496	-29.01
391.705	52.91
391.915	120.49
392.125	122.54
392.334	26.28
392.544	110.25
392.753	20.14
392.963	-31.06
393.172	28.33
393.382	-57.68
393.591	159.4
393.801	-39.25
394.01	42.67
394.22	1.71
394.429	-12.63
394.639	-26.96
394.848	1.71
395.058	52.91
395.267	34.47
395.477	32.43
395.686	-37.2
395.895	206.5
396.105	163.5
396.314	52.91
396.524	1.71
396.733	-20.82
396.942	147.11
397.152	36.52
397.361	83.63
397.57	40.62
397.78	-45.4
397.989	48.81
398.198	132.78
398.407	24.23
398.617	44.71
398.826	5.8
399.035	20.14
399.244	114.34
399.453	57
399.663	61.1
399.872	9.9
400.081	-20.82
400.29	30.38
400.499	-22.87
400.708	104.11
400.917	-37.2
401.127	59.05
401.336	-4.44
401.545	198.31
401.754	79.53
401.963	57
402.172	-20.82
402.381	-53.59
402.59	-12.63
402.799	79.53
403.008	59.05
403.217	73.39
403.426	52.91
403.635	-10.58
403.844	50.86
404.053	87.72
404.262	-24.92
404.471	122.54
404.68	48.81
404.888	42.67
405.097	18.09
405.306	-2.39
405.515	102.06
405.724	-49.49
405.933	52.91
406.142	32.43
406.35	151.21
406.559	63.15
406.768	63.15
406.977	89.77
407.185	100.01
407.394	75.43
407.603	-80.21
407.812	44.71
408.02	81.58
408.229	28.33
408.438	50.86
408.646	-31.06
408.855	9.9
409.064	112.3
409.272	-2.39
409.481	9.9
409.69	-39.25
409.898	-53.59
410.107	102.06
410.315	122.54
410.524	-4.44
410.733	5.8
410.941	5.8
411.15	44.71
411.358	52.91
411.567	124.58
411.775	-65.88
411.984	26.28
412.192	-6.49
412.401	-31.06
412.609	114.34
412.818	93.87
413.026	-35.16
413.234	57
413.443	-8.53
413.651	-43.35
413.86	104.11
414.068	112.3
414.276	200.36
414.485	-12.63
414.693	159.4
414.901	93.87
415.11	46.76
415.318	-0.34
415.526	48.81
415.734	36.52
415.943	57
416.151	110.25
416.359	-55.64
416.567	65.19
416.776	57
416.984	122.54
417.192	87.72
417.4	50.86
417.608	-31.06
417.817	5.8
418.025	52.91
418.233	198.31
418.441	-45.4
418.649	28.33
418.857	116.39
419.065	188.07
419.273	-0.34
419.481	65.19
419.689	-41.3
419.897	52.91
420.105	44.71
420.313	100.01
420.521	120.49
420.729	100.01
420.937	-24.92
421.145	-59.73
421.353	147.11
421.561	136.87
421.769	34.47
421.977	-6.49
422.185	83.63
422.393	-2.39
422.601	61.1
422.809	138.92
423.017	50.86
423.224	52.91
423.432	40.62
423.64	67.24
423.848	79.53
424.056	24.23
424.263	40.62
424.471	-12.63
424.679	175.78
424.887	-20.82
425.094	85.67
425.302	40.62
425.51	67.24
425.718	83.63
425.925	151.21
426.133	77.48
426.341	183.98
426.548	106.15
426.756	28.33
426.964	114.34
427.171	75.43
427.379	32.43
427.586	-0.34
427.794	85.67
428.001	183.98
428.209	151.21
428.417	147.11
428.624	77.48
428.832	169.64
429.039	22.19
429.247	132.78
429.454	112.3
429.662	186.02
429.869	216.74
430.076	61.1
430.284	149.16
430.491	214.7
430.699	179.88
430.906	65.19
431.114	108.2
431.321	132.78
431.528	89.77
431.736	118.44
431.943	157.35
432.15	93.87
432.358	165.54
432.565	313
432.772	36.52
432.979	161.45
433.187	134.82
433.394	183.98
433.601	212.65
433.808	212.65
434.016	261.8
434.223	261.8
434.43	231.08
434.637	249.51
434.844	306.85
435.052	229.03
435.259	216.74
435.466	308.9
435.673	327.33
435.88	286.37
436.087	247.46
436.294	327.33
436.501	317.09
436.708	263.85
436.915	317.09
437.122	411.3
437.329	224.94
437.537	302.76
437.743	364.2
437.95	419.49
438.157	444.07
438.364	364.2
438.571	450.21
438.778	452.26
438.985	431.78
439.192	550.56
439.399	423.59
439.606	503.46
439.813	511.65
440.02	573.09
440.227	683.68
440.433	552.61
440.64	568.99
440.847	511.65
441.054	700.06
441.261	730.78
441.467	626.34
441.674	571.04
441.881	716.45
442.088	675.49
442.294	853.66
442.501	691.87
442.708	802.46
442.914	769.69
443.121	978.59
443.328	833.18
443.534	1042.07
443.741	939.68
443.948	880.29
444.154	1005.21
444.361	1185.43
444.568	1085.08
444.774	1146.52
444.981	974.49
445.187	1234.58
445.394	1287.83
445.6	1191.58
445.807	1361.56
446.013	1289.88
446.22	1306.26
446.426	1339.03
446.633	1502.87
446.839	1707.66
447.046	1531.54
447.252	1652.37
447.459	1656.47
447.665	1685.14
447.871	1857.17
448.078	1973.9
448.284	1875.6
448.491	2080.39
448.697	2180.75
448.903	2330.25
449.11	2379.4
449.316	2207.37
449.522	2584.2
449.728	2469.51
449.935	2571.91
450.141	2623.11
450.347	2846.34
450.553	2930.3
450.76	2969.21
450.966	3192.44
451.172	3200.63
451.378	3145.34
451.584	3456.63
451.791	3688.05
451.997	3616.37
452.203	3739.25
452.409	4009.58
452.615	4054.64
452.821	4161.13
453.027	3944.05
453.233	4621.92
453.44	4410.98
453.646	4738.66
453.852	4871.78
454.058	5052
454.264	5375.58
454.47	5568.09
454.676	5602.9
454.882	5983.82
455.088	5754.45
455.294	6114.89
455.5	6518.34
455.705	6915.65
455.911	6852.16
456.117	7061.05
456.323	7501.37
456.529	7347.77
456.735	8197.68
456.941	8472.11
457.147	8635.94
457.352	8734.25
457.558	9137.7
457.764	9694.74
457.97	9700.89
458.176	10108.43
458.381	10665.48
458.587	10980.87
458.793	11519.48
458.999	11408.89
459.204	13229.54
459.41	13555.16
459.616	13305.31
459.821	13788.63
460.027	14716.36
460.233	15181.25
460.438	15357.38
460.644	16217.52
460.85	16082.36
461.055	17092.01
461.261	17735.07
461.466	17401.25
461.672	17620.38
461.878	19891.58
462.083	19850.62
462.289	20057.46
462.494	20819.31
462.7	20997.48
462.905	20983.15
463.111	22805.84
463.316	24329.53
463.522	24620.34
463.727	25355.56
463.932	26447.13
464.138	27131.15
464.343	28419.32
464.549	28312.83
464.754	30698.71
464.959	31270.09
465.165	31763.65
465.37	31358.16
465.575	31505.61
465.781	33438.89
465.986	34841.75
466.191	33981.6
466.397	34446.49
466.602	33805.48
466.807	35243.15
467.012	36119.68
467.218	36826.23
467.423	36897.91
467.628	37925.99
467.833	39855.18
468.038	38827.1
468.244	38413.41
468.449	40098.89
468.654	39253.08
468.859	39351.38
469.064	39533.65
469.269	38392.93
469.474	38790.23
469.679	39902.28
469.885	39058.52
470.09	39558.22
470.295	39126.1
470.5	38820.95
470.705	38896.73
470.91	37846.12
471.115	37553.26
471.32	38202.47
471.525	37966.95
471.73	36928.63
471.935	36555.9
472.139	35331.22
472.344	35366.03
472.549	35118.23
472.754	34479.26
472.959	33195.18
473.164	32355.52
473.369	31962.31
473.574	32644.28
473.778	32296.13
473.983	32017.6
474.188	31114.45
474.393	29504.74
474.598	29555.94
474.802	28534.01
475.007	28378.36
475.212	28298.49
475.417	27028.75
475.621	26725.65
475.826	26395.93
476.031	25799.97
476.235	25421.09
476.44	25156.91
476.645	24577.33
476.849	24595.76
477.054	23969.08
477.259	23768.38
477.463	23487.81
477.668	22773.07
477.872	22687.06
478.077	22199.64
478.282	21693.79
478.486	21894.49
478.691	20995.43
478.895	21122.41
479.1	21126.5
479.304	20807.02
479.509	20206.97
479.713	20278.65
479.918	19975.55
480.122	19443.07
480.326	19641.73
480.531	19629.44
480.735	19502.47
480.94	18843.02
481.144	19467.65
481.348	18605.45
481.553	18611.6
481.757	18142.61
481.961	18627.98
482.166	18722.19
482.37	18181.53
482.574	18003.35
482.778	17941.91
482.983	17984.92
483.187	17571.23
483.391	17659.29
483.595	17044.9
483.8	17044.9
484.004	16971.18
484.208	17288.61
484.412	16887.21
484.616	16367.02
484.821	16434.61
485.025	15898.04
485.229	15986.1
485.433	15556.03
485.637	15863.22
485.841	15189.44
486.045	15230.4
486.249	15181.25
486.453	14622.16
486.657	14673.35
486.861	14294.48
487.065	13788.63
487.269	14147.03
487.473	13526.49
487.677	13710.81
487.881	13358.56
488.085	12846.57
488.289	12922.34
488.493	12477.93
488.697	12492.27
488.901	12334.57
489.105	11847.16
489.309	11945.46
489.512	11750.9
489.716	11638.27
489.92	11236.86
490.124	10833.41
490.328	11226.62
490.531	10415.63
490.735	10405.39
490.939	10198.54
491.143	10135.06
491.346	9946.64
491.55	10012.18
491.754	9600.54
491.958	9555.48
492.161	9252.38
492.365	9100.83
492.569	8887.84
492.772	8711.72
492.976	8904.23
493.18	8705.57
493.383	8687.14
493.587	8422.95
493.79	8367.66
493.994	8240.68
494.197	8044.08
494.401	8095.28
494.605	7632.44
494.808	7841.33
495.012	7851.57
495.215	7695.93
495.419	7824.95
495.622	7611.96
495.825	7364.15
496.029	7765.56
496.232	7654.97
496.436	7417.4
496.639	7661.11
496.843	7448.12
497.046	7401.02
497.249	7487.03
497.453	7491.13
497.656	7384.63
497.859	7296.57
498.063	7468.6
498.266	7503.42
498.469	7364.15
498.673	7532.09
498.876	7542.33
499.079	7409.21
499.282	7599.67
499.485	7999.02
499.689	7548.47
499.892	7845.43
500.095	7554.62
500.298	7765.56
500.501	7716.4
500.705	7910.96
500.908	8037.94
501.111	7847.47
501.314	8058.42
501.517	8095.28
501.72	8273.45
501.923	8334.89
502.126	8349.23
502.329	8531.5
502.532	8437.29
502.735	8523.3
502.938	8818.21
503.141	8883.75
503.344	8877.6
503.547	8896.03
503.75	9039.39
503.953	9092.64
504.156	9414.17
504.359	9305.63
504.562	9635.35
504.765	9530.91
504.968	9903.64
505.17	10122.77
505.373	10190.35
505.576	10245.65
505.779	10501.64
505.982	10434.06
506.185	10870.28
506.387	10931.72
506.59	11238.91
506.793	11329.02
506.996	11623.93
507.198	11832.82
507.401	12058.1
507.604	12086.77
507.807	12402.16
508.009	12817.9
508.212	12893.67
508.415	13112.8
508.617	13483.48
508.82	13639.13
509.022	13792.73
509.225	14085.59
509.428	14519.76
509.63	14693.83
509.833	14878.15
510.035	15533.5
510.238	15732.15
510.44	15996.34
510.643	16663.98
510.845	16971.18
511.048	16948.65
511.25	17573.28
511.453	17679.77
511.655	18666.89
511.858	18558.35
512.06	19361.16
512.262	19746.17
512.465	20084.09
512.667	20473.2
512.87	20718.96
513.072	21380.45
513.274	22082.91
513.477	22199.64
513.679	22834.51
513.881	23606.59
514.084	23672.13
514.286	24368.44
514.488	24757.55
514.69	25857.31
514.893	26236.19
515.095	26354.97
515.297	27243.79
515.499	27489.54
515.701	28378.36
515.904	28818.67
516.106	29564.14
516.308	30487.77
516.51	30684.37
516.712	31378.64
516.914	31859.91
517.116	32767.16
517.318	33414.32
517.52	33670.31
517.722	34194.59
517.925	34876.57
518.127	35918.98
518.329	36486.27
518.531	36437.12
518.733	38032.49
518.935	38204.52
519.136	38743.13
519.338	39611.47
519.54	40393.79
519.742	40737.85
519.944	41411.63
520.146	42099.75
520.348	42783.77
520.55	42890.27
520.752	43508.75
520.954	44563.46
521.155	44692.48
521.357	45548.53
521.559	46076.91
521.761	46719.97
521.963	46668.77
522.164	47358.94
522.366	47993.81
522.568	48221.13
522.77	48595.91
522.971	48944.06
523.173	48952.26
523.375	49658.8
523.576	49753.01
523.778	49957.81
523.98	50598.82
524.181	50682.79
524.383	50920.35
524.584	51254.17
524.786	51135.39
524.988	51057.57
525.189	51614.62
525.391	51764.12
525.592	52118.42
525.794	52147.09
525.995	52007.83
526.197	51807.12
526.398	51954.58
526.6	51903.38
526.801	51907.47
527.003	51901.33
527.204	51262.36
527.406	51694.49
527.607	51504.02
527.808	51311.52
528.01	50232.24
528.211	50000.82
528.412	51016.61
528.614	50299.82
528.815	49927.09
529.016	50004.91
529.218	48935.87
529.419	48952.26
529.62	48399.3
529.822	48350.15
530.023	47870.93
530.224	47330.26
530.425	47215.58
530.626	46169.07
530.828	45695.99
531.029	45931.5
531.23	45175.8
531.431	44710.91
531.632	44438.53
531.833	44014.6
532.035	43070.49
532.236	43349.01
532.437	42357.8
532.638	41727.02
532.839	41460.79
533.04	41249.85
533.241	40248.39
533.442	40539.2
533.643	39449.68
533.844	38921.3
534.045	38691.93
534.246	37725.29
534.447	37737.58
534.648	37010.55
534.849	36390.02
535.05	35824.78
535.251	35689.61
535.451	35241.1
535.652	35183.76
535.853	34530.46
536.054	34165.92
536.255	33672.36
536.456	32756.92
536.657	33146.03
536.857	32117.95
537.058	31569.1
537.259	31464.65
537.46	30975.19
537.66	30424.28
537.861	30117.09
538.062	29922.53
538.263	29471.98
538.463	29340.91
538.664	28857.59
538.865	28439.8
539.065	28226.81
539.266	27407.62
539.466	27616.52
539.667	26703.12
539.868	26752.27
540.068	26006.81
540.269	26295.58
540.469	25666.85
540.67	25484.58
540.87	25097.52
541.071	24888.62
541.271	24534.32
541.472	24548.66
541.672	24196.41
541.873	23735.62
542.073	22996.3
542.274	23213.38
542.474	22910.29
542.675	22324.57
542.875	22730.06
543.075	22373.72
543.276	21867.87
543.476	21951.84
543.676	21611.87
543.877	21388.64
544.077	21065.07
544.277	20778.35
544.478	20563.31
544.678	20475.25
544.878	20434.29
545.078	20133.24
545.279	19619.2
545.479	19395.97
545.679	19385.73
545.879	18908.55
546.079	18994.57
546.28	18564.5
546.48	18228.63
546.68	18392.47
546.88	18107.8
547.08	18122.13
547.28	17409.44
547.48	17063.33
547.68	17331.62
547.88	16825.77
548.081	16932.26
548.281	16491.95
548.481	16229.81
548.681	16184.76
548.881	15928.76
549.081	15723.96
549.28	15494.59
549.48	15277.51
549.68	15107.52
549.88	14962.12
550.08	14699.98
550.28	14724.55
550.48	14452.17
550.68	13690.33
550.88	13936.09
551.08	13747.67
551.279	13553.12
551.479	13135.33
551.679	13266.4
551.879	12860.9
552.079	12869.09
552.278	12631.53
552.478	12643.82
552.678	12219.89
552.878	12115.44
553.077	11759.1
553.277	11742.71
553.477	11654.65
553.676	11496.96
553.876	11040.26
554.076	10993.15
554.275	10780.17
554.475	10726.92
554.674	10642.95
554.874	10423.82
555.074	9877.01
555.273	10012.18
555.473	9979.41
555.672	9510.43
555.872	9510.43
556.071	9188.89
556.271	9418.27
556.47	8941.09
556.67	8934.95
556.869	8836.64
557.068	8498.73
557.268	8476.2
557.467	8236.59
557.667	8248.88
557.866	8009.26
558.065	7919.15
558.265	7896.63
558.464	7638.58
558.663	7472.7
558.863	7378.49
559.062	7433.79
559.261	7134.78
559.461	7034.43
559.66	6803.01
559.859	6876.74
560.058	6823.49
560.258	6581.83
560.457	6510.15
560.656	6426.18
560.855	6196.81
561.054	6309.45
561.253	6155.85
561.453	5949.01
561.652	6114.89
561.851	5856.85
562.05	5797.46
562.249	5590.61
562.448	5652.05
562.647	5434.97
562.846	5434.97
563.045	5490.26
563.244	5168.73
563.443	5248.6
563.642	4968.03
563.841	5090.91
564.04	4779.62
564.239	4855.39
564.438	4687.46
564.637	4679.27
564.836	4669.03
565.035	4497
565.234	4576.87
565.432	4431.46
565.631	4531.81
565.83	4337.26
566.029	4267.63
566.228	4183.66
566.427	4208.23
566.625	3901.04
566.824	4140.65
567.023	3954.29
567.222	3862.13
567.42	3939.95
567.619	3815.02
567.818	3708.53
568.016	3937.9
568.215	3573.36
568.414	3493.49
568.612	3499.64
568.811	3427.96
569.01	3430.01
569.208	3384.95
569.407	3411.57
569.605	3296.89
569.804	3212.92
570.002	3204.73
570.201	3219.07
570.4	3042.94
570.598	2997.88
570.797	3001.98
570.995	2750.08
571.193	2893.44
571.392	2846.34
571.59	2625.15
571.789	2805.38
571.987	2731.65
572.186	2862.72
572.384	2604.67
572.582	2686.59
572.781	2633.35
572.979	2467.46
573.177	2469.51
573.376	2381.45
573.574	2383.49
573.772	2367.11
573.971	2291.34
574.169	2197.13
574.367	2188.94
574.565	2174.6
574.763	2145.93
574.962	2141.83
575.16	2123.4
575.358	2174.6
575.556	1902.22
575.754	1969.8
575.952	1984.14
576.151	1943.18
576.349	1875.6
576.547	1812.11
576.745	1769.1
576.943	1779.34
577.141	1750.67
577.339	1769.1
577.537	1707.66
577.735	1705.62
577.933	1650.32
578.131	1617.55
578.329	1728.14
578.527	1539.73
578.725	1638.03
578.923	1484.44
579.121	1590.93
579.319	1427.09
579.516	1490.58
579.714	1740.43
579.912	1498.77
580.11	1339.03
580.308	1371.8
580.506	1382.04
580.704	1281.69
580.901	1293.97
581.099	1293.97
581.297	1298.07
581.495	1324.69
581.692	1248.92
581.89	1300.12
582.088	1257.11
582.285	1162.9
582.483	1154.71
582.681	1158.81
582.878	1177.24
583.076	1126.04
583.274	1154.71
583.471	1187.48
583.669	1085.08
583.866	1048.22
584.064	1001.12
584.262	925.34
584.459	872.09
584.657	1056.41
584.854	982.68
585.052	913.05
585.249	962.2
585.447	982.68
585.644	870.05
585.841	951.96
586.039	880.29
586.236	968.35
586.434	806.56
586.631	894.62
586.828	861.85
587.026	853.66
587.223	736.93
587.42	781.98
587.618	810.65
587.815	906.91
588.012	798.37
588.21	839.33
588.407	784.03
588.604	765.6
588.801	659.1
588.999	802.46
589.196	880.29
589.393	749.22
589.59	704.16
589.787	765.6
589.984	724.64
590.182	814.75
590.379	720.54
590.576	718.5
590.773	698.02
590.97	708.26
591.167	673.44
591.364	708.26
591.561	603.81
591.758	698.02
591.955	659.1
592.152	624.29
592.349	593.57
592.546	609.95
592.743	618.15
592.94	636.58
593.137	747.17
593.334	724.64
593.531	675.49
593.727	640.67
593.924	761.5
594.121	724.64
594.318	642.72
594.515	753.31
594.712	781.98
594.908	790.17
595.105	607.91
595.302	741.02
595.499	812.7
595.696	851.61
595.892	687.78
596.089	720.54
596.286	730.78
596.482	808.61
596.679	833.18
596.876	788.13
597.072	878.24
597.269	894.62
597.466	829.09
597.662	927.39
597.859	921.24
598.055	970.4
598.252	949.92
598.448	1058.46
598.645	1207.96
598.841	1224.34
599.038	1265.3
599.234	1353.37
599.431	1248.92
599.627	1306.26
599.824	1396.37
600.02	1382.04
600.217	1404.57
600.413	1476.24
600.609	1674.9
600.806	2006.67
601.002	1760.91
601.198	1822.35
601.395	1879.69
601.591	1889.93
601.787	2082.44
601.984	2014.86
602.18	2172.55
602.376	2094.73
602.572	2322.06
602.769	2324.1
602.965	2479.75
603.161	2655.87
603.357	2668.16
603.553	2662.02
603.75	2760.32
603.946	2915.97
604.142	2930.3
604.338	3331.7
604.534	3237.5
604.73	3288.7
604.926	3321.46
605.122	3657.33
605.318	3610.23
605.514	3933.81
605.71	3896.94
605.906	4103.79
606.102	4173.42
606.298	4453.99
606.494	4480.61
606.69	4791.91
606.886	4728.42
607.082	4646.5
607.278	4927.07
607.474	5023.33
607.67	5267.03
607.866	5287.51
608.062	5557.85
608.257	5699.16
608.453	5693.01
608.649	5957.2
608.845	6086.22
609.041	6331.98
609.236	6446.66
609.432	6770.24
609.628	6833.73
609.824	7220.8
610.019	7046.72
610.215	7249.47
610.411	7661.11
610.606	7990.83
610.802	8023.6
610.998	8152.62
611.193	8519.21
611.389	8580.65
611.584	8924.71
611.78	8900.13
611.976	9405.98
612.171	9637.4
612.367	9813.52
612.562	10006.03
612.758	10165.78
612.953	10339.85
613.149	10892.8
613.344	10894.85
613.539	11341.31
613.735	11894.26
613.93	11914.74
614.126	12342.77
614.321	12873.19
614.517	13106.66
614.712	13370.85
614.907	13655.51
615.103	14153.17
615.298	14224.85
615.493	14706.12
615.688	15015.37
615.884	15584.7
616.079	15623.61
616.274	16407.98
616.47	16461.23
616.665	17092.01
616.86	17368.48
617.055	17925.53
617.25	18083.22
617.445	18777.48
617.641	18939.27
617.836	19619.2
618.031	20012.41
618.226	20524.4
618.421	20968.81
618.616	21779.81
618.811	21820.77
619.006	22598.99
619.201	22963.53
619.396	23725.38
619.591	23725.38
619.786	24896.81
619.981	24677.68
620.176	25578.79
620.371	25791.78
620.566	26670.36
620.761	26801.43
620.956	27802.88
621.151	28036.35
621.346	29021.42
621.541	28654.84
621.735	30237.92
621.93	30239.97
622.125	30561.5
622.32	31141.07
622.515	32222.4
622.709	32568.51
622.904	33424.56
623.099	33541.29
623.294	34368.67
623.488	35024.02
623.683	35660.94
623.878	35697.8
624.072	36938.87
624.267	36889.72
624.462	37762.15
624.656	38102.12
624.851	38913.11
625.046	39242.84
625.24	39904.33
625.435	40236.1
625.629	41092.15
625.824	41155.64
626.018	41997.35
626.213	41821.23
626.407	42783.77
626.602	43064.35
626.796	43779.09
626.991	44258.31
627.185	44889.09
627.38	44741.63
627.574	45059.07
627.768	44960.76
627.963	45786.1
628.157	45251.58
628.352	46132.2
628.546	45505.52
628.74	46523.36
628.935	45526
629.129	45618.16
629.323	45208.57
629.517	45528.05
629.712	44938.24
629.906	44817.41
630.1	44467.2
630.294	44397.57
630.489	43181.08
630.683	43324.44
630.877	42224.68
631.071	41829.42
631.265	41129.02
631.459	40320.07
631.653	39560.27
631.848	38827.1
632.042	37690.48
632.236	37295.22
632.43	35705.99
632.624	34948.25
632.818	34127.01
633.012	32928.95
633.206	31966.4
633.4	31280.33
633.594	30237.92
633.788	28972.27
633.982	28013.82
634.176	27229.45
634.369	25967.9
634.563	25005.36
634.757	23964.99
634.951	23072.07
635.145	22422.87
635.339	21695.84
635.533	20499.83
635.726	20217.21
635.92	18699.66
636.114	18179.48
636.308	17472.93
636.501	16848.3
636.695	16213.43
636.889	15537.6
637.083	14949.83
637.276	14288.34
637.47	13714.91
637.664	13108.71
637.857	12819.94
638.051	11970.04
638.244	11548.15
638.438	11066.88
638.632	10845.7
638.825	10010.13
639.019	9866.77
639.212	9342.49
639.406	9240.09
639.599	8631.85
639.793	8310.32
639.986	7925.3
640.18	7773.75
640.373	7196.22
640.567	6987.33
640.76	6850.11
640.954	6665.8
641.147	6245.96
641.34	5992.02
641.534	5893.71
641.727	5713.49
641.92	5406.3
642.114	5152.35
642.307	5017.18
642.5	4779.62
642.694	4650.6
642.887	4390.5
643.08	4417.13
643.273	4124.27
643.467	4052.59
643.66	3769.97
643.853	3645.04
644.046	3616.37
644.239	3475.06
644.432	3284.6
644.626	3100.28
644.819	3036.8
645.012	2942.59
645.205	2920.06
645.398	2739.84
645.591	2608.77
645.784	2477.7
645.977	2393.73
646.17	2236.04
646.363	2186.89
646.556	2139.79
646.749	1982.09
646.942	1910.41
647.135	1894.03
647.328	1857.17
647.521	1859.21
647.714	1797.78
647.907	1668.75
648.099	1564.31
648.292	1564.31
648.485	1384.09
648.678	1420.95
648.871	1336.98
649.064	1293.97
649.256	1177.24
649.449	1244.82
649.642	1003.16
649.835	1109.66
650.027	994.97
650.22	1052.31
650.413	962.2
650.605	992.92
650.798	863.9
650.991	868
651.183	831.13
651.376	847.52
651.568	861.85
651.761	741.02
651.954	812.7
652.146	734.88
652.339	841.37
652.531	732.83
652.724	558.75
652.916	675.49
653.109	544.42
653.301	601.76
653.494	706.21
653.686	642.72
653.879	663.2
654.071	636.58
654.263	517.79
654.456	511.65
654.648	536.23
654.84	472.74
655.033	444.07
655.225	515.75
655.417	280.23
655.61	501.41
655.802	464.55
655.994	597.67
656.186	349.86
656.379	489.12
656.571	331.43
656.763	345.77
656.955	360.1
657.148	450.21
657.34	439.97
657.532	323.24
657.724	298.66
657.916	339.62
658.108	347.81
658.3	337.57
658.492	347.81
658.684	243.37
658.876	272.04
659.068	247.46
659.26	145.06
659.452	200.36
659.644	343.72
659.836	349.86
660.028	288.42
660.22	245.41
660.412	321.19
660.604	233.13
660.796	339.62
660.988	288.42
661.18	267.94
661.372	364.2
661.563	183.98
661.755	183.98
661.947	143.02
662.139	198.31
662.331	194.22
662.522	210.6
662.714	124.58
662.906	251.56
663.097	216.74
663.289	175.78
663.481	106.15
663.673	171.69
663.864	222.89
664.056	165.54
664.247	157.35
664.439	288.42
664.631	159.4
664.822	237.22
665.014	126.63
665.205	132.78
665.397	179.88
665.588	216.74
665.78	173.74
665.971	249.51
666.163	126.63
666.354	181.93
666.546	132.78
666.737	165.54
666.929	138.92
667.12	122.54
667.311	134.82
667.503	186.02
667.694	171.69
667.885	212.65
668.077	218.79
668.268	69.29
668.459	179.88
668.651	161.45
668.842	218.79
669.033	151.21
669.224	50.86
669.416	294.57
669.607	147.11
669.798	143.02
669.989	345.77
670.18	163.5
670.371	239.27
670.563	114.34
670.754	233.13
670.945	173.74
671.136	181.93
671.327	85.67
671.518	237.22
671.709	263.85
671.9	183.98
672.091	171.69
672.282	157.35
672.473	163.5
672.664	120.49
672.855	188.07
673.046	237.22
673.237	247.46
673.428	145.06
673.619	302.76
673.809	122.54
674	345.77
674.191	214.7
674.382	149.16
674.573	122.54
674.764	175.78
674.954	198.31
675.145	161.45
675.336	224.94
675.527	183.98
675.717	282.28
675.908	145.06
676.099	210.6
676.289	306.85
676.48	138.92
676.671	210.6
676.861	188.07
677.052	259.75
677.243	202.41
677.433	151.21
677.624	302.76
677.814	300.71
678.005	237.22
678.195	288.42
678.386	136.87
678.576	257.7
678.767	204.46
678.957	269.99
679.148	278.18
679.338	437.92
679.529	251.56
679.719	239.27
679.909	335.53
680.1	286.37
680.29	315.05
680.481	282.28
680.671	319.14
680.861	362.15
681.052	308.9
681.242	249.51
681.432	274.09
681.622	315.05
681.813	208.55
682.003	274.09
682.193	212.65
682.383	255.65
682.573	345.77
682.764	302.76
682.954	278.18
683.144	339.62
683.334	274.09
683.524	267.94
683.714	470.69
683.904	353.96
684.094	358.05
684.284	302.76
684.474	437.92
684.664	317.09
684.854	257.7
685.044	347.81
685.234	298.66
685.424	339.62
685.614	337.57
685.804	427.68
685.994	390.82
686.184	382.63
686.374	274.09
686.564	343.72
686.753	306.85
686.943	269.99
687.133	380.58
687.323	380.58
687.513	374.44
687.702	421.54
687.892	294.57
688.082	353.96
688.272	360.1
688.461	345.77
688.651	437.92
688.841	370.34
689.03	331.43
689.22	339.62
689.41	347.81
689.599	374.44
689.789	267.94
689.979	548.51
690.168	378.53
690.358	378.53
690.547	255.65
690.737	450.21
690.926	317.09
691.116	343.72
691.305	435.88
691.495	339.62
691.684	298.66
691.874	294.57
692.063	333.48
692.252	450.21
692.442	411.3
692.631	233.13
692.82	319.14
693.01	327.33
693.199	370.34
693.388	378.53
693.578	345.77
693.767	394.92
693.956	306.85
694.146	347.81
694.335	358.05
694.524	349.86
694.713	329.38
694.902	280.23
695.092	302.76
695.281	368.29
695.47	386.72
695.659	265.89
695.848	315.05
696.037	261.8
696.226	411.3
696.415	288.42
696.604	378.53
696.793	364.2
696.982	274.09
697.171	360.1
697.36	325.29
697.549	396.96
697.738	194.22
697.927	263.85
698.116	222.89
698.305	401.06
698.494	366.25
698.683	255.65
698.872	456.36
699.061	337.57
699.25	247.46
699.438	351.91
699.627	267.94
699.816	362.15
700.005	224.94
700.193	265.89
700.382	466.6
700.571	319.14
700.76	403.11
700.948	306.85
701.137	372.39
701.326	376.48
701.514	304.81
701.703	345.77
701.892	339.62
702.08	630.43
702.269	255.65
702.457	177.83
702.646	347.81
702.834	335.53
703.023	378.53
703.212	345.77
703.4	315.05
703.589	302.76
703.777	269.99
703.965	288.42
704.154	272.04
704.342	181.93
704.531	300.71
704.719	247.46
704.907	315.05
705.096	261.8
705.284	286.37
705.472	317.09
705.661	315.05
705.849	362.15
706.037	372.39
706.226	329.38
706.414	282.28
706.602	272.04
706.79	374.44
706.979	282.28
707.167	298.66
707.355	212.65
707.543	362.15
707.731	296.61
707.919	343.72
708.107	335.53
708.296	294.57
708.484	224.94
708.672	317.09
708.86	347.81
709.048	255.65
709.236	231.08
709.424	360.1
709.612	290.47
709.8	163.5
709.988	353.96
710.176	327.33
710.364	429.73
710.551	280.23
710.739	335.53
710.927	269.99
711.115	272.04
711.303	388.77
711.491	323.24
711.679	253.61
711.866	382.63
712.054	243.37
712.242	280.23
712.43	427.68
712.617	245.41
712.805	405.16
712.993	276.13
713.181	237.22
713.368	329.38
713.556	421.54
713.744	315.05
713.931	536.23
714.119	358.05
714.306	263.85
714.494	296.61
714.682	247.46
714.869	179.88
715.057	276.13
715.244	239.27
715.432	278.18
715.619	331.43
715.807	286.37
715.994	286.37
716.182	315.05
716.369	362.15
716.556	380.58
716.744	194.22
716.931	343.72
717.119	386.72
717.306	263.85
717.493	335.53
717.681	253.61
717.868	220.84
718.055	392.87
718.242	331.43
718.43	351.91
718.617	421.54
718.804	269.99
718.991	421.54
719.179	413.35
719.366	310.95
719.553	380.58
719.74	351.91
719.927	304.81
720.114	210.6
720.301	290.47
720.488	306.85
720.676	249.51
720.863	437.92
721.05	482.98
721.237	321.19
721.424	360.1
721.611	317.09
721.798	257.7
721.985	319.14
722.172	282.28
722.358	347.81
722.545	374.44
722.732	313
722.919	419.49
723.106	444.07
723.293	331.43
723.48	368.29
723.667	317.09
723.853	417.44
724.04	370.34
724.227	421.54
724.414	251.56
724.6	427.68
724.787	413.35
724.974	511.65
725.161	335.53
725.347	280.23
725.534	364.2
725.72	390.82
725.907	423.59
726.094	446.12
726.28	323.24
726.467	476.84
726.653	351.91
726.84	503.46
727.027	409.25
727.213	310.95
727.4	405.16
727.586	407.2
727.773	384.68
727.959	329.38
728.145	413.35
728.332	413.35
728.518	274.09
728.705	425.64
728.891	388.77
729.077	419.49
729.264	298.66
729.45	401.06
729.636	468.64
729.823	333.48
730.009	476.84
730.195	411.3
730.382	419.49
730.568	482.98
730.754	341.67
730.94	327.33
731.126	399.01
731.313	470.69
731.499	413.35
731.685	452.26
731.871	374.44
732.057	399.01
732.243	437.92
732.429	396.96
732.615	548.51
732.801	415.4
732.987	413.35
733.173	478.88
733.359	419.49
733.545	478.88
733.731	368.29
733.917	525.99
734.103	448.16
734.289	413.35
734.475	378.53
734.661	575.14
734.847	444.07
735.033	421.54
735.219	372.39
735.404	392.87
735.59	345.77
735.776	364.2
735.962	454.31
736.148	501.41
736.333	577.19
736.519	401.06
736.705	431.78
736.89	392.87
737.076	425.64
737.262	376.48
737.447	360.1
737.633	319.14
737.819	446.12
738.004	437.92
738.19	454.31
738.375	513.7
738.561	444.07
738.747	511.65
738.932	401.06
739.118	542.37
739.303	515.75
739.489	407.2
739.674	425.64
739.859	417.44
740.045	452.26
740.23	487.08
740.416	382.63
740.601	485.03
740.786	372.39
740.972	452.26
741.157	421.54
741.342	405.16
741.528	358.05
741.713	413.35
741.898	454.31
742.084	450.21
742.269	415.4
742.454	392.87
742.639	413.35
742.824	409.25
743.01	515.75
743.195	571.04
743.38	407.2
743.565	415.4
743.75	401.06
743.935	478.88
744.12	452.26
744.305	368.29
744.49	362.15
744.675	401.06
744.86	351.91
745.045	356.01
745.23	427.68
745.415	335.53
745.6	442.02
745.785	401.06
745.97	388.77
746.155	487.08
746.34	495.27
746.525	372.39
746.71	493.22
746.895	341.67
747.079	308.9
747.264	380.58
747.449	454.31
747.634	415.4
747.819	401.06
748.003	315.05
748.188	298.66
748.373	417.44
748.557	353.96
748.742	351.91
748.927	323.24
749.111	265.89
749.296	411.3
749.481	372.39
749.665	364.2
749.85	284.33
750.034	366.25
750.219	401.06
750.404	343.72
750.588	413.35
750.773	294.57
750.957	310.95
751.141	382.63
751.326	429.73
751.51	200.36
751.695	302.76
751.879	339.62
752.064	421.54
752.248	306.85
752.432	405.16
752.617	351.91
752.801	335.53
752.985	196.26
753.17	362.15
753.354	263.85
753.538	298.66
753.722	224.94
753.907	278.18
754.091	241.32
754.275	300.71
754.459	274.09
754.643	235.18
754.828	286.37
755.012	278.18
755.196	255.65
755.38	341.67
755.564	255.65
755.748	276.13
755.932	278.18
756.116	323.24
756.3	282.28
756.484	196.26
756.668	269.99
756.852	163.5
757.036	163.5
757.22	253.61
757.404	179.88
757.588	143.02
757.772	251.56
757.956	216.74
758.14	296.61
758.323	173.74
758.507	280.23
758.691	206.5
758.875	298.66
759.059	313
759.242	183.98
759.426	208.55
759.61	327.33
759.794	190.12
759.977	241.32
760.161	509.6
760.345	274.09
760.528	331.43
760.712	235.18
760.895	259.75
761.079	265.89
761.263	163.5
761.446	188.07
761.63	171.69
761.813	212.65
761.997	151.21
762.18	188.07
762.364	265.89
762.547	130.73
762.731	104.11
762.914	224.94
763.098	108.2
763.281	138.92
763.464	147.11
763.648	200.36
763.831	85.67
764.015	183.98
764.198	255.65
764.381	149.16
764.564	200.36
764.748	169.64
764.931	241.32
765.114	183.98
765.297	188.07
765.481	163.5
765.664	134.82
765.847	91.82
766.03	247.46
766.213	106.15
766.397	171.69
766.58	124.58
766.763	120.49
766.946	134.82
767.129	75.43
767.312	112.3
767.495	165.54
767.678	102.06
767.861	229.03
768.044	126.63
768.227	157.35
768.41	38.57
768.593	200.36
768.776	110.25
768.959	120.49
769.142	202.41
769.324	198.31
769.507	175.78
769.69	87.72
769.873	167.59
770.056	308.9
770.239	124.58
770.421	186.02
770.604	198.31
770.787	226.98
770.97	194.22
771.152	120.49
771.335	212.65
771.518	44.71
771.7	159.4
771.883	255.65
772.066	106.15
772.248	85.67
772.431	274.09
772.613	151.21
772.796	93.87
772.978	128.68
773.161	220.84
773.343	159.4
773.526	57
773.708	40.62
773.891	-10.58
774.073	71.34
774.256	126.63
774.438	224.94
774.621	118.44
774.803	208.55
774.985	-29.01
775.168	206.5
775.35	134.82
775.532	81.58
775.715	36.52
775.897	93.87
776.079	44.71
776.261	93.87
776.444	116.39
776.626	77.48
776.808	61.1
776.99	-14.68
777.173	143.02
777.355	73.39
777.537	83.63
777.719	40.62
777.901	77.48
778.083	16.04
778.265	-29.01
778.447	42.67
778.629	34.47
778.811	52.91
778.993	169.64
779.175	186.02
779.357	79.53
779.539	32.43
779.721	114.34
779.903	143.02
780.085	54.95
780.267	59.05
780.449	112.3
780.631	147.11
780.812	155.3
780.994	126.63
781.176	7.85
781.358	9.9
781.54	77.48
781.721	136.87
781.903	161.45
782.085	67.24
782.267	91.82
782.448	3.75
782.63	-10.58
782.812	75.43
782.993	61.1
783.175	75.43
783.357	-4.44
783.538	73.39
783.72	11.95
783.901	118.44
784.083	40.62
784.264	151.21
784.446	3.75
784.627	-0.34
784.809	97.96
784.99	-24.92
785.172	91.82
785.353	26.28
785.535	26.28
785.716	61.1
785.897	34.47
786.079	36.52
786.26	44.71
786.441	-53.59
786.623	3.75
786.804	-18.77
786.985	40.62
787.167	-35.16
787.348	18.09
787.529	42.67
787.71	157.35
787.891	57
788.073	50.86
788.254	-92.5
788.435	87.72
788.616	20.14
788.797	-6.49
788.978	-22.87
789.159	32.43
789.34	100.01
789.522	40.62
789.703	-12.63
789.884	106.15
790.065	61.1
790.246	214.7
790.427	28.33
790.607	118.44
790.788	42.67
790.969	3.75
791.15	71.34
791.331	5.8
791.512	24.23
791.693	-41.3
791.874	-74.07
792.054	85.67
792.235	77.48
792.416	9.9
792.597	44.71
792.778	89.77
792.958	-0.34
793.139	48.81
793.32	-29.01
793.5	-47.44
793.681	-29.01
793.862	16.04
794.042	1.71
794.223	-14.68
794.404	-37.2
794.584	-74.07
794.765	26.28
794.945	7.85
795.126	77.48
795.306	77.48
795.487	-0.34
795.667	-8.53
795.848	36.52
796.028	9.9
796.209	-4.44
796.389	85.67
796.57	63.15
796.75	-33.11
796.93	3.75
797.111	-82.26
797.291	24.23
797.471	87.72
797.652	-41.3
797.832	-12.63
798.012	77.48
798.192	34.47
798.373	34.47
798.553	-14.68
798.733	52.91
798.913	-61.78
799.093	-8.53
799.274	9.9
799.454	77.48
799.634	13.99
799.814	128.68
799.994	-4.44
800.174	-6.49
800.354	9.9
800.534	-69.97
800.714	52.91
800.894	-37.2
801.074	-92.5
801.254	-59.73
801.434	97.96
801.614	-8.53
801.794	36.52
801.974	1603.22
802.154	57
802.334	63.15
802.514	-137.56
802.693	-6.49
802.873	44.71
803.053	52.91
803.233	28.33
803.413	-4.44
803.592	-45.4
803.772	-29.01
803.952	-12.63
804.131	-37.2
804.311	36.52
804.491	85.67
804.67	-69.97
804.85	-43.35
805.03	54.95
805.209	97.96
805.389	-18.77
805.568	-65.88
805.748	-53.59
805.928	44.71
806.107	32.43
806.287	93.87
806.466	26.28
806.646	-59.73
806.825	-67.92
807.004	-16.73
807.184	28.33
807.363	18.09
807.543	36.52
807.722	1.71
807.901	120.49
808.081	36.52
808.26	-29.01
808.439	-37.2
808.619	85.67
808.798	3.75
808.977	44.71
809.156	91.82
809.336	28.33
809.515	179.88
809.694	-92.5
809.873	-14.68
810.052	-12.63
810.231	38.57
810.411	110.25
810.59	112.3
810.769	-55.64
810.948	38.57
811.127	-155.99
811.306	-35.16
811.485	-80.21
811.664	138.92
811.843	20.14
812.022	-22.87
812.201	11.95
812.38	-39.25
812.559	-49.49
812.737	36.52
812.916	-47.44
813.095	-86.36
813.274	102.06
813.453	1.71
813.632	40.62
813.811	57
813.989	-90.45
814.168	-10.58
814.347	-6.49
814.526	-12.63
814.704	85.67
814.883	7.85
815.062	20.14
815.24	36.52
815.419	-24.92
815.598	85.67
815.776	-129.36
815.955	-53.59
816.133	-119.12
816.312	-6.49
816.49	-90.45
816.669	22.19
816.847	7.85
817.026	24.23
817.204	-37.2
817.383	30.38
817.561	7.85
817.74	11.95
817.918	28.33
818.097	-12.63
818.275	-129.36
818.453	52.91
818.632	104.11
818.81	-76.12
818.988	-8.53
819.167	-12.63
819.345	-45.4
819.523	-78.16
819.701	63.15
819.879	38.57
820.058	-22.87
820.236	40.62
820.414	11.95
820.592	67.24
820.77	-16.73
820.948	20.14
821.127	-16.73
821.305	20.14
821.483	-24.92
821.661	50.86
821.839	-14.68
822.017	-53.59
822.195	-76.12
822.373	16.04
822.551	3.75
822.729	61.1
822.907	-29.01
823.085	24.23
823.262	-33.11
823.44	-35.16
823.618	30.38
823.796	-12.63
823.974	-12.63
824.152	-74.07
824.329	-41.3
824.507	-26.96
824.685	18.09
824.863	40.62
825.04	-39.25
825.218	65.19
825.396	24.23
825.574	26.28
825.751	-45.4
825.929	44.71
826.107	-158.03
826.284	26.28
826.462	50.86
826.639	-76.12
826.817	-137.56
826.994	-41.3
827.172	7.85
827.349	100.01
827.527	59.05
827.704	30.38
827.882	69.29
828.059	-12.63
828.237	-4.44
828.414	108.2
828.591	-92.5
828.769	57
828.946	3.75
829.124	30.38
829.301	77.48
829.478	9.9
829.655	44.71
829.833	-16.73
830.01	-98.64
830.187	-4.44
830.364	-16.73
830.542	42.67
830.719	106.15
830.896	106.15
831.073	77.48
831.25	52.91
831.427	20.14
831.604	28.33
831.782	-86.36
831.959	9.9
832.136	7.85
832.313	-45.4
832.49	-53.59
832.667	-37.2
832.844	-84.31
833.021	63.15
833.198	-55.64
833.374	-20.82
833.551	28.33
833.728	-4.44
833.905	59.05
834.082	-104.79
834.259	81.58
834.436	77.48
834.612	-78.16
834.789	3.75
834.966	-39.25
835.143	-16.73
835.319	-53.59
835.496	75.43
835.673	28.33
835.85	-39.25
836.026	11.95
836.203	13.99
836.38	-55.64
836.556	-80.21
836.733	-8.53
836.909	165.54
837.086	-162.13
837.262	-104.79
837.439	7.85
837.616	9.9
837.792	26.28
837.968	7.85
838.145	-147.8
838.321	-22.87
838.498	-49.49
838.674	26.28
838.851	11.95
839.027	16.04
839.203	24.23
839.38	28.33
839.556	-78.16
839.732	1.71
839.909	-26.96
840.085	7.85
840.261	-20.82
840.437	-0.34
840.614	-43.35
840.79	-20.82
840.966	54.95
841.142	24.23
841.318	-43.35
841.494	-74.07
841.671	73.39
841.847	-151.89
842.023	-4.44
842.199	44.71
842.375	145.06
842.551	-123.22
842.727	-65.88
842.903	-6.49
843.079	-96.6
843.255	18.09
843.431	-41.3
843.607	-4.44
843.783	-63.83
843.959	34.47
844.134	13.99
844.31	20.14
844.486	-35.16
844.662	-61.78
844.838	-45.4
845.013	-45.4
845.189	83.63
845.365	-53.59
845.541	26.28
845.716	-4.44
845.892	-6.49
846.068	44.71
846.244	-41.3
846.419	-0.34
846.595	-69.97
846.77	-6.49
846.946	52.91
847.122	-63.83
847.297	-47.44
847.473	114.34
847.648	-145.75
847.824	36.52
847.999	-131.41
848.175	-45.4
848.35	28.33
848.526	104.11
848.701	36.52
848.876	52.91
849.052	73.39
849.227	-12.63
849.403	-72.02
849.578	-16.73
849.753	7.85
849.929	36.52
850.104	28.33
850.279	-41.3
850.454	20.14
850.63	13.99
850.805	46.76
850.98	46.76
851.155	16.04
851.33	24.23
851.505	-53.59
851.681	32.43
851.856	-20.82
852.031	-4.44
852.206	-37.2
852.381	-74.07
852.556	-57.68
852.731	61.1
852.906	11.95
853.081	-29.01
853.256	42.67
853.431	-61.78
853.606	-22.87
853.781	-86.36
853.956	-51.54
854.131	9.9
854.305	-104.79
854.48	13.99
854.655	-78.16
854.83	-61.78
855.005	-33.11
855.18	3.75
855.354	-24.92
855.529	16.04
855.704	-90.45
855.879	1.71
856.053	-112.98
856.228	9.9
856.403	-31.06
856.577	42.67
856.752	9.9
856.926	-55.64
857.101	-49.49
857.276	-31.06
857.45	9.9
857.625	110.25
857.799	36.52
857.974	-20.82
858.148	-65.88
858.323	-51.54
858.497	38.57
858.672	11.95
858.846	-78.16
859.02	-20.82
859.195	-86.36
859.369	-18.77
859.543	-20.82
859.718	9.9
859.892	-49.49
860.066	18.09
860.241	-65.88
860.415	-102.74
860.589	-6.49
860.763	-72.02
860.938	-78.16
861.112	48.81
861.286	1.71
861.46	-37.2
861.634	-24.92
861.808	-35.16
861.982	-84.31
862.157	1.71
862.331	-90.45
862.505	-115.03
862.679	-119.12
862.853	-31.06
863.027	-121.17
863.201	81.58
863.375	-90.45
863.549	-53.59
863.722	36.52
863.896	52.91
864.07	-43.35
864.244	-53.59
864.418	34.47
864.592	7.85
864.766	18.09
864.939	-0.34
865.113	-51.54
865.287	48.81
865.461	-166.23
865.634	-22.87
865.808	50.86
865.982	-57.68
866.156	-22.87
866.329	-47.44
866.503	-61.78
866.676	85.67
866.85	-4.44
867.024	-82.26
867.197	-16.73
867.371	-10.58
867.544	-24.92
867.718	-98.64
867.891	-10.58
868.065	-98.64
868.238	-69.97
868.412	85.67
868.585	-4.44
868.759	-72.02
868.932	-16.73
869.105	-41.3
869.279	18.09
869.452	-119.12
869.625	20.14
869.799	-20.82
869.972	-129.36
870.145	3.75
870.319	102.06
870.492	11.95
870.665	-84.31
870.838	-49.49
871.011	-102.74
871.185	-18.77
871.358	-14.68
871.531	7.85
871.704	-69.97
871.877	-33.11
872.05	-110.93
872.223	-92.5
872.396	5.8
872.569	3.75
872.742	-96.6
872.915	-78.16
873.088	-123.22
873.261	-188.75
873.434	38.57
873.607	-57.68
873.78	5.8
873.953	-29.01
874.126	-86.36
874.299	-33.11
874.471	-0.34
874.644	-63.83
874.817	-31.06
874.99	93.87
875.163	-84.31
875.335	57
875.508	-0.34
875.681	7.85
875.853	-31.06
876.026	-29.01
876.199	-4.44
876.371	-20.82
876.544	3.75
876.717	-6.49
876.889	-53.59
877.062	-35.16
877.234	-33.11
877.407	-69.97
877.579	-100.69
877.752	-20.82
877.924	13.99
878.097	-14.68
878.269	-10.58
878.442	26.28
878.614	59.05
878.786	-12.63
878.959	-18.77
879.131	-37.2
879.303	-102.74
879.476	50.86
879.648	-22.87
879.82	65.19
879.993	-78.16
880.165	-78.16
880.337	-47.44
880.509	1.71
880.681	-94.55
880.854	-117.08
881.026	57
881.198	57
881.37	-78.16
881.542	-37.2
881.714	-33.11
881.886	-33.11
882.058	-12.63
882.23	20.14
882.402	-33.11
882.574	-45.4
882.746	-29.01
882.918	61.1
883.09	-12.63
883.262	-78.16
883.434	7.85
883.606	-127.32
883.778	20.14
883.95	42.67
884.122	-20.82
884.293	24.23
884.465	-12.63
884.637	-6.49
884.809	-35.16
884.98	-20.82
885.152	61.1
885.324	75.43
885.496	-78.16
885.667	-49.49
885.839	3.75
886.011	11.95
886.182	-12.63
886.354	26.28
886.525	-8.53
886.697	-20.82
886.869	-82.26
887.04	-90.45
887.212	104.11
887.383	71.34
887.555	52.91
887.726	-82.26
887.897	-0.34
888.069	-61.78
888.24	-53.59
888.412	-24.92
888.583	-31.06
888.754	32.43
888.926	-20.82
889.097	7.85
889.268	-121.17
889.44	-45.4
889.611	-119.12
889.782	-74.07
889.953	-12.63
890.125	93.87
890.296	-96.6
890.467	-61.78
890.638	-59.73
890.809	7.85
890.98	-78.16
891.151	-51.54
891.323	85.67
891.494	-10.58
891.665	-35.16
891.836	-61.78
892.007	11.95
892.178	7.85
892.349	-37.2
892.52	-106.84
892.691	30.38
892.862	-78.16
893.032	-153.94
893.203	-4.44
893.374	11.95
893.545	85.67
893.716	-86.36
893.887	38.57
894.057	-39.25
894.228	-45.4
894.399	-61.78
894.57	61.1
894.74	-117.08
894.911	9.9
895.082	-20.82
895.253	-55.64
895.423	-8.53
895.594	-4.44
895.764	1.71
895.935	-22.87
896.106	28.33
896.276	-63.83
896.447	-0.34
896.617	-78.16
896.788	-94.55
896.958	-49.49
897.129	-88.4
897.299	-45.4
897.47	13.99
897.64	69.29
897.81	-29.01
897.981	-20.82
898.151	-72.02
898.322	-8.53
898.492	36.52
898.662	-57.68
898.832	-16.73
899.003	-41.3
899.173	79.53
899.343	-37.2
899.513	-22.87
