Data from USB4F104151__72__11-31-02-363.txt Node

Date: Wed Feb 26 11:31:02 EST 2025
User: louis
Spectrometer: USB4F10415
Trigger mode: 4
Integration Time (sec): 1.000000E-1
Scans to average: 1
Electric dark correction enabled: true
Nonlinearity correction enabled: false
Boxcar width: 0
XAxis mode: Wavelengths
Number of Pixels in Spectrum: 3648
>>>>>Begin Spectral Data<<<<<
178.204	-353.45
178.424	-353.45
178.644	-353.45
178.864	-406.69
179.084	-369.83
179.304	58.2
179.524	-70.83
179.744	-11.43
179.964	17.24
180.184	103.25
180.404	54.1
180.624	-15.53
180.844	-40.11
181.064	-40.11
181.283	31.57
181.503	-109.74
181.723	23.38
181.943	-167.08
182.163	238.42
182.383	11.09
182.602	43.86
182.822	197.46
183.042	174.93
183.262	-38.06
183.482	111.44
183.701	66.39
183.921	64.34
184.141	-60.59
184.361	-5.29
184.58	33.62
184.8	66.39
185.02	78.68
185.239	136.02
185.459	33.62
185.679	82.77
185.898	-66.73
186.118	58.2
186.338	52.05
186.557	97.11
186.777	-7.34
186.997	31.57
187.216	45.91
187.436	197.46
187.655	56.15
187.875	90.96
188.095	86.87
188.314	123.73
188.534	203.6
188.753	-70.83
188.973	127.83
189.192	211.79
189.412	39.76
189.631	50
189.851	113.49
190.07	64.34
190.29	-15.53
190.509	82.77
190.729	76.63
190.948	111.44
191.168	230.23
191.387	197.46
191.607	72.53
191.826	105.3
192.045	2.9
192.265	-33.96
192.484	78.68
192.704	-19.63
192.923	-21.67
193.142	179.03
193.362	195.41
193.581	181.07
193.8	136.02
194.02	185.17
194.239	74.58
194.458	13.14
194.678	52.05
194.897	11.09
195.116	117.59
195.335	45.91
195.555	37.72
195.774	13.14
195.993	127.83
196.212	-1.19
196.432	41.81
196.651	52.05
196.87	31.57
197.089	213.84
197.308	150.36
197.528	107.35
197.747	-38.06
197.966	47.96
198.185	207.7
198.404	-17.58
198.623	131.92
198.842	123.73
199.062	119.64
199.281	95.06
199.5	50
199.719	148.31
199.938	152.4
200.157	111.44
200.376	50
200.595	39.76
200.814	29.52
201.033	-27.82
201.252	224.08
201.471	140.12
201.69	70.48
201.909	88.92
202.128	103.25
202.347	148.31
202.566	121.68
202.785	-33.96
203.004	70.48
203.223	195.41
203.442	33.62
203.661	-23.72
203.879	117.59
204.098	152.4
204.317	-46.25
204.536	133.97
204.755	64.34
204.974	121.68
205.193	37.72
205.411	211.79
205.63	74.58
205.849	76.63
206.068	39.76
206.287	-17.58
206.505	174.93
206.724	52.05
206.943	82.77
207.162	90.96
207.381	234.32
207.599	142.16
207.818	-9.39
208.037	-52.39
208.255	35.67
208.474	140.12
208.693	50
208.911	54.1
209.13	121.68
209.349	111.44
209.567	150.36
209.786	97.11
210.005	93.01
210.223	93.01
210.442	-36.01
210.661	-33.96
210.879	50
211.098	-21.67
211.316	119.64
211.535	148.31
211.753	17.24
211.972	68.44
212.191	9.05
212.409	27.48
212.628	197.46
212.846	47.96
213.065	17.24
213.283	80.72
213.502	27.48
213.72	64.34
213.938	37.72
214.157	-17.58
214.375	97.11
214.594	-66.73
214.812	74.58
215.031	50
215.249	68.44
215.467	107.35
215.686	88.92
215.904	95.06
216.122	29.52
216.341	172.88
216.559	4.95
216.778	68.44
216.996	105.3
217.214	-15.53
217.432	62.29
217.651	50
217.869	86.87
218.087	174.93
218.306	-27.82
218.524	72.53
218.742	17.24
218.96	90.96
219.179	52.05
219.397	-62.63
219.615	324.43
219.833	82.77
220.051	4.95
220.27	115.54
220.488	121.68
220.706	50
220.924	19.29
221.142	41.81
221.36	84.82
221.578	41.81
221.796	68.44
222.015	64.34
222.233	86.87
222.451	160.59
222.669	-62.63
222.887	111.44
223.105	21.33
223.323	88.92
223.541	-25.77
223.759	78.68
223.977	115.54
224.195	248.66
224.413	78.68
224.631	76.63
224.849	107.35
225.067	201.55
225.285	15.19
225.503	-15.53
225.721	-128.17
225.939	76.63
226.157	54.1
226.375	250.71
226.592	37.72
226.81	-38.06
227.028	54.1
227.246	148.31
227.464	90.96
227.682	115.54
227.9	121.68
228.117	111.44
228.335	47.96
228.553	-7.34
228.771	74.58
228.989	70.48
229.206	64.34
229.424	25.43
229.642	-42.15
229.86	31.57
230.077	140.12
230.295	47.96
230.513	123.73
230.731	115.54
230.948	181.07
231.166	172.88
231.384	-7.34
231.601	-7.34
231.819	166.74
232.037	-95.4
232.254	-122.02
232.472	11.09
232.689	23.38
232.907	99.16
233.125	37.72
233.342	-52.39
233.56	72.53
233.777	-15.53
233.995	86.87
234.213	68.44
234.43	56.15
234.648	76.63
234.865	-76.97
235.083	123.73
235.3	90.96
235.518	101.2
235.735	58.2
235.953	86.87
236.17	78.68
236.388	19.29
236.605	78.68
236.822	76.63
237.04	174.93
237.257	27.48
237.475	13.14
237.692	72.53
237.909	109.4
238.127	-5.29
238.344	133.97
238.562	88.92
238.779	31.57
238.996	-40.11
239.214	-3.24
239.431	52.05
239.648	107.35
239.865	146.26
240.083	119.64
240.3	66.39
240.517	58.2
240.735	56.15
240.952	144.21
241.169	140.12
241.386	90.96
241.603	2.9
241.821	-25.77
242.038	140.12
242.255	129.88
242.472	13.14
242.689	52.05
242.907	90.96
243.124	97.11
243.341	23.38
243.558	54.1
243.775	-9.39
243.992	31.57
244.209	72.53
244.426	226.13
244.643	172.88
244.86	27.48
245.078	115.54
245.295	66.39
245.512	121.68
245.729	80.72
245.946	84.82
246.163	-15.53
246.38	58.2
246.597	35.67
246.814	95.06
247.031	113.49
247.248	56.15
247.464	78.68
247.681	88.92
247.898	37.72
248.115	72.53
248.332	-13.48
248.549	129.88
248.766	86.87
248.983	172.88
249.2	70.48
249.417	158.55
249.633	50
249.85	93.01
250.067	58.2
250.284	78.68
250.501	74.58
250.717	78.68
250.934	54.1
251.151	-3.24
251.368	21.33
251.585	29.52
251.801	70.48
252.018	-85.16
252.235	129.88
252.451	-21.67
252.668	11.09
252.885	146.26
253.102	133.97
253.318	4.95
253.535	60.24
253.752	-19.63
253.968	-23.72
254.185	-76.97
254.401	45.91
254.618	72.53
254.835	-44.2
255.051	201.55
255.268	11.09
255.484	64.34
255.701	35.67
255.917	150.36
256.134	-72.87
256.351	31.57
256.567	-68.78
256.784	66.39
257	-40.11
257.217	166.74
257.433	125.78
257.65	52.05
257.866	209.75
258.082	-42.15
258.299	66.39
258.515	4.95
258.732	-21.67
258.948	4.95
259.165	31.57
259.381	-9.39
259.597	111.44
259.814	23.38
260.03	-11.43
260.246	43.86
260.463	27.48
260.679	90.96
260.895	74.58
261.112	66.39
261.328	21.33
261.544	41.81
261.761	138.07
261.977	-56.49
262.193	-66.73
262.409	170.83
262.626	99.16
262.842	29.52
263.058	-21.67
263.274	-1.19
263.49	-54.44
263.707	146.26
263.923	121.68
264.139	-64.68
264.355	54.1
264.571	117.59
264.787	172.88
265.004	224.08
265.22	66.39
265.436	13.14
265.652	93.01
265.868	66.39
266.084	17.24
266.3	84.82
266.516	-70.83
266.732	95.06
266.948	9.05
267.164	-29.87
267.38	111.44
267.596	11.09
267.812	88.92
268.028	117.59
268.244	52.05
268.46	84.82
268.676	-7.34
268.892	56.15
269.108	76.63
269.324	-29.87
269.54	-1.19
269.756	131.92
269.972	-138.41
270.188	80.72
270.403	21.33
270.619	-13.48
270.835	129.88
271.051	45.91
271.267	4.95
271.483	-21.67
271.698	54.1
271.914	84.82
272.13	-17.58
272.346	31.57
272.562	21.33
272.777	160.59
272.993	33.62
273.209	9.05
273.425	60.24
273.64	-40.11
273.856	60.24
274.072	-29.87
274.287	13.14
274.503	64.34
274.719	19.29
274.934	7
275.15	-115.88
275.366	-7.34
275.581	-3.24
275.797	13.14
276.012	158.55
276.228	33.62
276.444	25.43
276.659	162.64
276.875	27.48
277.09	39.76
277.306	54.1
277.521	17.24
277.737	52.05
277.952	150.36
278.168	45.91
278.383	41.81
278.599	97.11
278.814	113.49
279.03	31.57
279.245	162.64
279.461	68.44
279.676	78.68
279.892	-89.26
280.107	-15.53
280.322	-1.19
280.538	56.15
280.753	54.1
280.969	64.34
281.184	76.63
281.399	82.77
281.615	72.53
281.83	115.54
282.045	-36.01
282.26	-31.91
282.476	-36.01
282.691	127.83
282.906	13.14
283.122	50
283.337	-15.53
283.552	107.35
283.767	-33.96
283.983	90.96
284.198	101.2
284.413	84.82
284.628	-13.48
284.843	13.14
285.058	58.2
285.274	86.87
285.489	13.14
285.704	226.13
285.919	-27.82
286.134	117.59
286.349	131.92
286.564	-11.43
286.779	111.44
286.995	72.53
287.21	-3.24
287.425	176.98
287.64	-15.53
287.855	2.9
288.07	-23.72
288.285	66.39
288.5	152.4
288.715	111.44
288.93	13.14
289.145	2.9
289.36	93.01
289.575	35.67
289.79	187.22
290.004	-7.34
290.219	160.59
290.434	107.35
290.649	19.29
290.864	74.58
291.079	-3.24
291.294	86.87
291.509	66.39
291.724	19.29
291.938	86.87
292.153	64.34
292.368	68.44
292.583	45.91
292.798	88.92
293.012	90.96
293.227	70.48
293.442	2.9
293.657	66.39
293.871	138.07
294.086	146.26
294.301	183.12
294.516	211.79
294.73	107.35
294.945	21.33
295.16	9.05
295.374	154.45
295.589	66.39
295.804	-3.24
296.018	41.81
296.233	117.59
296.447	45.91
296.662	95.06
296.877	99.16
297.091	113.49
297.306	68.44
297.52	54.1
297.735	74.58
297.949	45.91
298.164	9.05
298.378	105.3
298.593	-15.53
298.807	33.62
299.022	37.72
299.236	72.53
299.451	88.92
299.665	11.09
299.88	21.33
300.094	76.63
300.309	-1.19
300.523	15.19
300.737	41.81
300.952	95.06
301.166	84.82
301.381	-27.82
301.595	13.14
301.809	54.1
302.024	56.15
302.238	27.48
302.452	72.53
302.667	47.96
302.881	162.64
303.095	172.88
303.309	72.53
303.524	7
303.738	-7.34
303.952	-42.15
304.166	133.97
304.381	-109.74
304.595	82.77
304.809	-17.58
305.023	113.49
305.237	56.15
305.452	13.14
305.666	84.82
305.88	88.92
306.094	125.78
306.308	86.87
306.522	74.58
306.736	39.76
306.95	115.54
307.164	62.29
307.379	-23.72
307.593	162.64
307.807	99.16
308.021	52.05
308.235	109.4
308.449	-56.49
308.663	72.53
308.877	185.17
309.091	90.96
309.305	56.15
309.519	-119.98
309.733	113.49
309.947	0.85
310.161	9.05
310.374	144.21
310.588	185.17
310.802	-31.91
311.016	33.62
311.23	107.35
311.444	7
311.658	97.11
311.872	101.2
312.085	152.4
312.299	162.64
312.513	109.4
312.727	15.19
312.941	-1.19
313.154	76.63
313.368	78.68
313.582	74.58
313.796	103.25
314.009	84.82
314.223	162.64
314.437	88.92
314.651	119.64
314.864	21.33
315.078	11.09
315.292	-60.59
315.505	74.58
315.719	107.35
315.933	105.3
316.146	-3.24
316.36	7
316.573	125.78
316.787	179.03
317.001	68.44
317.214	9.05
317.428	80.72
317.641	15.19
317.855	64.34
318.068	0.85
318.282	50
318.495	226.13
318.709	105.3
318.922	11.09
319.136	185.17
319.349	111.44
319.563	13.14
319.776	119.64
319.99	4.95
320.203	142.16
320.417	-13.48
320.63	76.63
320.843	164.69
321.057	56.15
321.27	27.48
321.483	97.11
321.697	148.31
321.91	74.58
322.124	0.85
322.337	68.44
322.55	60.24
322.763	41.81
322.977	88.92
323.19	-1.19
323.403	35.67
323.617	127.83
323.83	152.4
324.043	107.35
324.256	72.53
324.469	-7.34
324.683	156.5
324.896	-9.39
325.109	19.29
325.322	-46.25
325.535	123.73
325.748	117.59
325.962	13.14
326.175	68.44
326.388	95.06
326.601	111.44
326.814	84.82
327.027	70.48
327.24	129.88
327.453	-113.83
327.666	47.96
327.879	150.36
328.092	58.2
328.305	82.77
328.518	76.63
328.731	19.29
328.944	-40.11
329.157	101.2
329.37	41.81
329.583	199.51
329.796	156.5
330.009	33.62
330.222	68.44
330.435	50
330.648	19.29
330.861	105.3
331.073	0.85
331.286	148.31
331.499	-13.48
331.712	35.67
331.925	-44.2
332.138	31.57
332.35	160.59
332.563	29.52
332.776	176.98
332.989	35.67
333.202	50
333.414	88.92
333.627	25.43
333.84	-33.96
334.053	33.62
334.265	21.33
334.478	109.4
334.691	-21.67
334.903	23.38
335.116	19.29
335.329	35.67
335.541	58.2
335.754	68.44
335.966	117.59
336.179	27.48
336.392	-62.63
336.604	9.05
336.817	43.86
337.029	99.16
337.242	62.29
337.454	74.58
337.667	54.1
337.88	176.98
338.092	95.06
338.305	117.59
338.517	-25.77
338.729	160.59
338.942	142.16
339.154	-40.11
339.367	-83.11
339.579	76.63
339.792	-44.2
340.004	99.16
340.217	0.85
340.429	-11.43
340.641	-9.39
340.854	-40.11
341.066	56.15
341.278	50
341.491	158.55
341.703	93.01
341.915	-48.3
342.128	88.92
342.34	47.96
342.552	-46.25
342.764	99.16
342.977	86.87
343.189	7
343.401	-44.2
343.613	-9.39
343.826	50
344.038	23.38
344.25	70.48
344.462	-48.3
344.674	140.12
344.886	95.06
345.099	115.54
345.311	82.77
345.523	2.9
345.735	-99.5
345.947	117.59
346.159	37.72
346.371	21.33
346.583	15.19
346.795	193.36
347.007	72.53
347.219	78.68
347.431	70.48
347.643	217.94
347.855	-50.35
348.067	187.22
348.279	-13.48
348.491	37.72
348.703	133.97
348.915	2.9
349.127	-19.63
349.339	13.14
349.551	-68.78
349.763	70.48
349.975	82.77
350.187	189.27
350.399	115.54
350.61	136.02
350.822	-13.48
351.034	86.87
351.246	78.68
351.458	93.01
351.669	144.21
351.881	101.2
352.093	138.07
352.305	129.88
352.517	146.26
352.728	66.39
352.94	27.48
353.152	82.77
353.363	17.24
353.575	72.53
353.787	213.84
353.999	140.12
354.21	133.97
354.422	-31.91
354.633	58.2
354.845	-33.96
355.057	127.83
355.268	115.54
355.48	105.3
355.692	21.33
355.903	17.24
356.115	-58.54
356.326	-52.39
356.538	136.02
356.749	138.07
356.961	238.42
357.172	35.67
357.384	-21.67
357.595	207.7
357.807	-15.53
358.018	27.48
358.23	47.96
358.441	203.6
358.653	82.77
358.864	58.2
359.075	50
359.287	84.82
359.498	58.2
359.709	125.78
359.921	23.38
360.132	99.16
360.344	-11.43
360.555	35.67
360.766	113.49
360.977	23.38
361.189	39.76
361.4	-1.19
361.611	76.63
361.823	45.91
362.034	58.2
362.245	-50.35
362.456	95.06
362.667	78.68
362.879	-50.35
363.09	86.87
363.301	74.58
363.512	82.77
363.723	13.14
363.935	19.29
364.146	156.5
364.357	58.2
364.568	-44.2
364.779	19.29
364.99	170.83
365.201	35.67
365.412	187.22
365.623	-15.53
365.834	90.96
366.045	62.29
366.256	113.49
366.467	52.05
366.678	35.67
366.889	72.53
367.1	93.01
367.311	164.69
367.522	9.05
367.733	58.2
367.944	97.11
368.155	31.57
368.366	133.97
368.577	68.44
368.788	97.11
368.999	70.48
369.209	76.63
369.42	248.66
369.631	215.89
369.842	50
370.053	0.85
370.264	154.45
370.474	-23.72
370.685	21.33
370.896	56.15
371.107	93.01
371.317	50
371.528	88.92
371.739	203.6
371.95	82.77
372.16	117.59
372.371	-50.35
372.582	-89.26
372.792	133.97
373.003	88.92
373.214	50
373.424	111.44
373.635	-40.11
373.846	195.41
374.056	70.48
374.267	88.92
374.477	115.54
374.688	93.01
374.898	74.58
375.109	17.24
375.319	115.54
375.53	56.15
375.74	101.2
375.951	17.24
376.161	-27.82
376.372	123.73
376.582	23.38
376.793	88.92
377.003	2.9
377.214	33.62
377.424	166.74
377.635	86.87
377.845	41.81
378.055	138.07
378.266	-21.67
378.476	47.96
378.686	80.72
378.897	52.05
379.107	37.72
379.317	105.3
379.528	33.62
379.738	90.96
379.948	-48.3
380.158	99.16
380.369	43.86
380.579	84.82
380.789	-25.77
380.999	90.96
381.21	146.26
381.42	162.64
381.63	117.59
381.84	179.03
382.05	66.39
382.261	205.65
382.471	189.27
382.681	-54.44
382.891	201.55
383.101	70.48
383.311	15.19
383.521	50
383.731	156.5
383.941	109.4
384.151	60.24
384.361	31.57
384.571	74.58
384.781	95.06
384.991	158.55
385.201	162.64
385.411	103.25
385.621	146.26
385.831	105.3
386.041	66.39
386.251	2.9
386.461	101.2
386.671	54.1
386.881	76.63
387.091	-27.82
387.301	138.07
387.511	121.68
387.72	101.2
387.93	82.77
388.14	-70.83
388.35	-13.48
388.56	162.64
388.769	136.02
388.979	13.14
389.189	86.87
389.399	58.2
389.609	70.48
389.818	99.16
390.028	95.06
390.238	203.6
390.447	39.76
390.657	-23.72
390.867	37.72
391.076	-7.34
391.286	164.69
391.496	47.96
391.705	56.15
391.915	76.63
392.125	181.07
392.334	-44.2
392.544	222.03
392.753	25.43
392.963	-66.73
393.172	66.39
393.382	-19.63
393.591	207.7
393.801	66.39
394.01	224.08
394.22	189.27
394.429	31.57
394.639	107.35
394.848	82.77
395.058	80.72
395.267	17.24
395.477	45.91
395.686	113.49
395.895	269.14
396.105	238.42
396.314	58.2
396.524	86.87
396.733	101.2
396.942	129.88
397.152	62.29
397.361	189.27
397.57	78.68
397.78	45.91
397.989	35.67
398.198	207.7
398.407	74.58
398.617	31.57
398.826	78.68
399.035	9.05
399.244	160.59
399.453	45.91
399.663	37.72
399.872	74.58
400.081	9.05
400.29	119.64
400.499	-7.34
400.708	176.98
400.917	82.77
401.127	60.24
401.336	-38.06
401.545	131.92
401.754	144.21
401.963	125.78
402.172	4.95
402.381	56.15
402.59	80.72
402.799	76.63
403.008	166.74
403.217	76.63
403.426	138.07
403.635	-33.96
403.844	64.34
404.053	70.48
404.262	39.76
404.471	138.07
404.68	101.2
404.888	90.96
405.097	2.9
405.306	37.72
405.515	127.83
405.724	31.57
405.933	47.96
406.142	27.48
406.35	93.01
406.559	99.16
406.768	117.59
406.977	215.89
407.185	58.2
407.394	76.63
407.603	-19.63
407.812	52.05
408.02	84.82
408.229	41.81
408.438	58.2
408.646	-52.39
408.855	76.63
409.064	47.96
409.272	33.62
409.481	125.78
409.69	-15.53
409.898	-1.19
410.107	66.39
410.315	76.63
410.524	-23.72
410.733	74.58
410.941	58.2
411.15	105.3
411.358	185.17
411.567	136.02
411.775	78.68
411.984	72.53
412.192	97.11
412.401	19.29
412.609	152.4
412.818	197.46
413.026	103.25
413.234	47.96
413.443	117.59
413.651	17.24
413.86	45.91
414.068	148.31
414.276	166.74
414.485	-1.19
414.693	308.05
414.901	205.65
415.11	113.49
415.318	60.24
415.526	29.52
415.734	131.92
415.943	111.44
416.151	121.68
416.359	37.72
416.567	74.58
416.776	144.21
416.984	140.12
417.192	230.23
417.4	21.33
417.608	27.48
417.817	-56.49
418.025	97.11
418.233	156.5
418.441	64.34
418.649	-17.58
418.857	45.91
419.065	107.35
419.273	109.4
419.481	62.29
419.689	27.48
419.897	-5.29
420.105	-7.34
420.313	150.36
420.521	131.92
420.729	201.55
420.937	-25.77
421.145	31.57
421.353	121.68
421.561	172.88
421.769	136.02
421.977	-1.19
422.185	174.93
422.393	41.81
422.601	113.49
422.809	82.77
423.017	97.11
423.224	66.39
423.432	131.92
423.64	60.24
423.848	88.92
424.056	-7.34
424.263	45.91
424.471	111.44
424.679	140.12
424.887	7
425.094	146.26
425.302	62.29
425.51	64.34
425.718	74.58
425.925	43.86
426.133	-64.68
426.341	140.12
426.548	90.96
426.756	58.2
426.964	74.58
427.171	25.43
427.379	64.34
427.586	31.57
427.794	101.2
428.001	148.31
428.209	64.34
428.417	324.43
428.624	88.92
428.832	74.58
429.039	119.64
429.247	78.68
429.454	107.35
429.662	97.11
429.869	168.79
430.076	119.64
430.284	191.31
430.491	168.79
430.699	144.21
430.906	172.88
431.114	111.44
431.321	144.21
431.528	140.12
431.736	70.48
431.943	113.49
432.15	105.3
432.358	181.07
432.565	203.6
432.772	-44.2
432.979	258.9
433.187	168.79
433.394	152.4
433.601	29.52
433.808	191.31
434.016	240.47
434.223	119.64
434.43	170.83
434.637	244.56
434.844	230.23
435.052	193.36
435.259	207.7
435.466	240.47
435.673	244.56
435.88	265.04
436.087	238.42
436.294	283.47
436.501	281.43
436.708	174.93
436.915	121.68
437.122	324.43
437.329	179.03
437.537	168.79
437.743	271.19
437.95	379.73
438.157	250.71
438.364	271.19
438.571	287.57
438.778	365.39
438.985	334.67
439.192	418.64
439.399	273.23
439.606	234.32
439.813	396.11
440.02	457.55
440.227	475.98
440.433	459.6
440.64	424.78
440.847	398.16
441.054	416.59
441.261	568.14
441.467	418.64
441.674	322.38
441.881	602.96
442.088	457.55
442.294	617.29
442.501	684.87
442.708	572.24
442.914	514.89
443.121	688.97
443.328	654.16
443.534	758.6
443.741	676.68
443.948	480.08
444.154	688.97
444.361	877.38
444.568	744.27
444.774	830.28
444.981	658.25
445.187	877.38
445.394	820.04
445.6	875.34
445.807	990.02
446.013	965.45
446.22	873.29
446.426	1094.47
446.633	1100.61
446.839	1268.55
447.046	987.97
447.252	1153.86
447.459	1190.72
447.665	1147.72
447.871	1346.37
448.078	1452.86
448.284	1291.07
448.491	1524.54
448.697	1620.8
448.903	1579.84
449.11	1577.79
449.316	1573.69
449.522	1686.33
449.728	1737.53
449.935	1915.7
450.141	1809.21
450.347	2065.21
450.553	1991.48
450.76	2042.68
450.966	2026.29
451.172	2145.08
451.378	2310.96
451.584	2212.66
451.791	2526
451.997	2601.77
452.203	2597.68
452.409	2677.55
452.615	2880.3
452.821	2743.08
453.027	2730.8
453.233	3193.64
453.44	2986.79
453.646	3199.78
453.852	3314.47
454.058	3365.67
454.264	3562.27
454.47	3734.3
454.676	3814.17
454.882	4299.54
455.088	3980.06
455.294	4403.99
455.5	4543.25
455.705	4809.48
455.911	4719.37
456.117	5034.76
456.323	5219.08
456.529	5034.76
456.735	5577.47
456.941	5542.66
457.147	5862.14
457.352	6073.08
457.558	6144.76
457.764	6695.66
457.97	6773.49
458.176	7150.31
458.381	7328.49
458.587	7676.64
458.793	8082.14
458.999	7998.17
459.204	9081.55
459.41	9280.2
459.616	9210.57
459.821	9573.06
460.027	9902.78
460.233	10414.77
460.438	10545.84
460.644	11121.32
460.85	11176.62
461.055	11678.37
461.261	12282.52
461.466	12087.96
461.672	12243.61
461.878	13820.55
462.083	13507.21
462.289	13843.07
462.494	14490.23
462.7	14465.66
462.905	14756.47
463.111	15942.24
463.316	16755.29
463.522	17132.11
463.727	17492.55
463.932	18139.71
464.138	18545.21
464.343	19538.48
464.549	19683.88
464.754	20906.52
464.959	21449.23
465.165	22008.33
465.37	21924.36
465.575	22018.57
465.781	23171.57
465.986	23980.52
466.191	23646.7
466.397	23685.61
466.602	23521.77
466.807	24814.04
467.012	24981.98
467.218	25039.32
467.423	25369.04
467.628	26173.89
467.833	27374
468.038	26902.97
468.244	26337.73
468.449	27693.49
468.654	27494.83
468.859	27314.61
469.064	27136.44
469.269	26708.41
469.474	27013.56
469.679	27691.44
469.885	26927.55
470.09	27261.37
470.295	27324.85
470.5	26622.4
470.705	26968.51
470.91	25991.62
471.115	25848.27
471.32	26114.5
471.525	26218.95
471.73	25211.35
471.935	24928.73
472.139	23919.08
472.344	24127.97
472.549	23861.74
472.754	23462.38
472.959	23024.12
473.164	22280.71
473.369	21953.03
473.574	22325.76
473.778	22000.13
473.983	21563.92
474.188	21359.12
474.393	20361.76
474.598	20173.35
474.802	19841.57
475.007	19384.88
475.212	19448.36
475.417	18610.75
475.621	18455.1
475.826	18133.57
476.031	17664.58
476.235	17447.5
476.44	17365.58
476.645	16996.95
476.849	16634.46
477.054	16568.92
477.259	16032.35
477.463	16140.9
477.668	15448.68
477.872	15489.64
478.077	15004.27
478.282	14713.46
478.486	14865.01
478.691	14510.71
478.895	14228.09
479.1	14518.9
479.304	14375.55
479.509	13439.62
479.713	14004.86
479.918	13650.57
480.122	13458.06
480.326	13658.76
480.531	13634.18
480.735	13218.44
480.94	12810.9
481.144	13529.73
481.348	12673.68
481.553	12964.5
481.757	12718.74
481.961	12595.86
482.166	12778.13
482.37	12556.95
482.574	12196.51
482.778	12575.38
482.983	12376.73
483.187	12106.4
483.391	12362.39
483.595	11938.46
483.8	11821.73
484.004	11891.36
484.208	11666.08
484.412	11614.88
484.616	11477.67
484.821	11319.98
485.025	10953.39
485.229	11115.18
485.433	10523.32
485.637	10937.01
485.841	10715.83
486.045	10496.69
486.249	10732.21
486.453	9999.04
486.657	10056.38
486.861	9892.54
487.065	9378.5
487.269	9493.19
487.473	9108.17
487.677	9607.87
487.881	9540.29
488.085	9016.01
488.289	8946.38
488.493	8637.14
488.697	8854.22
488.901	8514.26
489.105	8200.92
489.309	8075.99
489.512	8102.62
489.716	7901.92
489.92	7738.08
490.124	7527.14
490.328	7725.79
490.531	7238.37
490.735	7232.23
490.939	7043.82
491.143	6990.57
491.346	6683.38
491.55	6714.09
491.754	6585.07
491.958	6574.83
492.161	6433.52
492.365	6259.45
492.569	6202.1
492.772	5839.61
492.976	6077.18
493.18	5874.43
493.383	5997.31
493.587	5794.56
493.79	5882.62
493.994	5493.51
494.197	5645.06
494.401	5643.01
494.605	5485.31
494.808	5620.48
495.012	5389.06
495.215	5409.54
495.419	5403.39
495.622	5114.63
495.825	5221.13
496.029	5247.75
496.232	5214.98
496.436	5180.17
496.639	5163.78
496.843	5040.9
497.046	5098.25
497.249	5266.18
497.453	5233.41
497.656	5081.86
497.859	5235.46
498.063	5208.84
498.266	5341.96
498.469	5288.71
498.673	5061.38
498.876	5294.85
499.079	5266.18
499.282	5212.93
499.485	5313.28
499.689	5309.19
499.892	5505.79
500.095	5317.38
500.298	5311.24
500.501	5323.52
500.705	5493.51
500.908	5489.41
501.111	5698.3
501.314	5622.53
501.517	5663.49
501.72	5669.63
501.923	5708.54
502.126	5667.58
502.329	6255.35
502.532	5882.62
502.735	5966.59
502.938	6122.23
503.141	6241.01
503.344	6241.01
503.547	6345.46
503.75	6468.34
503.953	6279.93
504.156	6609.65
504.359	6685.42
504.562	6658.8
504.765	6839.02
504.968	6992.62
505.17	7207.66
505.373	7023.34
505.576	7199.46
505.779	7387.88
505.982	7406.31
506.185	7535.33
506.387	7656.16
506.59	7738.08
506.793	7963.36
506.996	8008.41
507.198	8303.32
507.401	8231.64
507.604	8780.5
507.807	8979.15
508.009	8946.38
508.212	9003.72
508.415	9200.33
508.617	9560.77
508.82	9517.76
509.022	9755.33
509.225	10113.72
509.428	10195.64
509.63	10461.88
509.833	10568.37
510.035	11043.5
510.238	11158.19
510.44	11307.69
510.643	11842.21
510.845	11743.91
511.048	12053.15
511.25	12364.44
511.453	12493.46
511.655	12923.54
511.858	13318.79
512.06	13595.27
512.262	13691.52
512.465	14148.22
512.667	14563.96
512.87	14768.76
513.072	14822
513.274	15508.07
513.477	15725.16
513.679	16439.9
513.881	16607.83
514.084	16689.75
514.286	17150.54
514.488	17537.61
514.69	18532.92
514.893	18494.01
515.095	18872.89
515.297	19257.9
515.499	19630.63
515.701	20242.98
515.904	20621.85
516.106	20847.13
516.308	21293.58
516.51	21893.64
516.712	22137.35
516.914	22718.97
517.116	23056.89
517.318	23329.27
517.52	23925.22
517.722	24400.35
517.925	25037.27
518.127	25307.6
518.329	25991.62
518.531	26042.82
518.733	26833.34
518.935	26939.83
519.136	27425.2
519.338	27982.25
519.54	28496.29
519.742	29016.47
519.944	29446.55
520.146	30257.54
520.348	30257.54
520.55	30615.94
520.752	31089.02
520.954	31697.27
521.155	31623.54
521.357	32166.25
521.559	32794.98
521.761	33046.88
521.963	33278.3
522.164	33816.91
522.366	34126.16
522.568	34439.5
522.77	34765.12
522.971	35795.25
523.173	34883.91
523.375	35539.26
523.576	35531.06
523.778	35903.79
523.98	36520.23
524.181	36239.66
524.383	36172.08
524.584	36630.82
524.786	36813.09
524.988	36387.11
525.189	37210.4
525.391	37067.04
525.592	37382.43
525.794	37470.49
525.995	37300.51
526.197	37040.42
526.398	37153.05
526.6	36804.9
526.801	36628.77
527.003	37353.76
527.204	36970.79
527.406	36852
527.607	36661.54
527.808	36759.84
528.01	36057.39
528.211	36051.25
528.412	36278.57
528.614	36047.15
528.815	35424.57
529.016	36088.11
529.218	35123.52
529.419	34894.14
529.62	34531.65
529.822	34005.33
530.023	34068.81
530.224	33968.46
530.425	33581.4
530.626	32823.65
530.828	32762.21
531.029	33108.32
531.23	31850.86
531.431	31713.65
531.632	31844.72
531.833	31148.41
532.035	30747.01
532.236	30290.31
532.437	29999.5
532.638	29817.23
532.839	29581.71
533.04	29194.65
533.241	28514.72
533.442	28441
533.643	27949.48
533.844	27603.38
534.045	27251.13
534.246	26608.06
534.447	26700.22
534.648	26352.07
534.849	25848.27
535.05	25426.39
535.251	25493.97
535.451	25008.6
535.652	24566.24
535.853	24285.67
536.054	23964.14
536.255	23933.42
536.456	23022.07
536.657	23173.62
536.857	22704.63
537.058	22637.05
537.259	22321.66
537.46	21938.69
537.66	21322.26
537.861	21555.72
538.062	21039.64
538.263	20693.53
538.463	20232.74
538.664	20367.9
538.865	20064.8
539.065	20046.37
539.266	19667.5
539.466	19518
539.667	19288.62
539.868	18889.27
540.068	18774.58
540.269	18657.85
540.469	18278.97
540.67	17893.96
540.87	17803.85
541.071	17556.04
541.271	17373.77
541.472	17584.71
541.672	16792.15
541.873	16738.9
542.073	16382.56
542.274	16677.46
542.474	16587.35
542.675	16028.26
542.875	16163.42
543.075	15837.8
543.276	15420.01
543.476	15542.89
543.676	15243.88
543.877	15352.43
544.077	15194.73
544.277	15006.32
544.478	14652.02
544.678	14445.18
544.878	14258.81
545.078	14453.37
545.279	13767.3
545.479	13730.44
545.679	13693.57
545.879	13632.13
546.079	13470.34
546.28	13208.2
546.48	13134.48
546.68	13058.7
546.88	12888.72
547.08	12513.94
547.28	12538.52
547.48	12221.08
547.68	12368.54
547.88	12221.08
548.081	11948.7
548.281	11541.16
548.481	11571.88
548.681	11545.25
548.881	11219.63
549.081	11025.07
549.28	10775.22
549.48	10726.07
549.68	11016.88
549.88	10769.07
550.08	10513.08
550.28	10224.31
550.48	10271.42
550.68	10015.42
550.88	9880.25
551.08	9867.97
551.279	9726.66
551.479	9587.4
551.679	9392.84
551.879	9142.99
552.079	9155.27
552.278	8966.86
552.478	8956.62
552.678	8860.37
552.878	8766.16
553.077	8266.46
553.277	8379.09
553.477	8207.06
553.676	8149.72
553.876	7963.36
554.076	7906.01
554.275	7617.25
554.475	7492.32
554.674	7633.63
554.874	7422.69
555.074	7035.63
555.273	7142.12
555.473	7002.86
555.672	6746.86
555.872	6808.3
556.071	6666.99
556.271	6746.86
556.47	6474.48
556.67	6251.25
556.869	6286.07
557.068	6167.29
557.268	6081.27
557.467	6056.7
557.667	5997.31
557.866	5753.6
558.065	5597.95
558.265	5591.81
558.464	5485.31
558.663	5470.98
558.863	5423.87
559.062	5311.24
559.261	5137.16
559.461	5128.97
559.66	4973.32
559.859	4991.75
560.058	4582.16
560.258	4758.28
560.457	4612.88
560.656	4533.01
560.855	4506.38
561.054	4387.6
561.253	4563.73
561.453	4256.53
561.652	4207.38
561.851	4164.37
562.05	4109.08
562.249	3924.76
562.448	4160.28
562.647	3953.43
562.846	3955.48
563.045	3863.32
563.244	3664.67
563.443	3830.55
563.642	3582.75
563.841	3420.96
564.04	3416.87
564.239	3609.37
564.438	3433.25
564.637	3285.8
564.836	3291.94
565.035	3248.93
565.234	3195.68
565.432	3140.39
565.631	3173.16
565.83	3146.53
566.029	2994.98
566.228	2939.69
566.427	2958.12
566.625	2738.99
566.824	2980.65
567.023	2773.8
567.222	2720.56
567.42	2761.52
567.619	2786.09
567.818	2650.92
568.016	2741.04
568.215	2587.44
568.414	2548.53
568.612	2556.72
568.811	2689.84
569.01	2452.27
569.208	2487.09
569.407	2384.69
569.605	2358.07
569.804	2210.61
570.002	2253.62
570.201	2202.42
570.4	2188.08
570.598	2128.69
570.797	2132.79
570.995	2057.01
571.193	2126.64
571.392	1971
571.59	1948.47
571.789	1973.05
571.987	2003.77
572.186	2020.15
572.384	1737.53
572.582	1760.06
572.781	1936.18
572.979	1684.28
573.177	1805.11
573.376	1751.87
573.574	1712.96
573.772	1710.91
573.971	1579.84
574.169	1626.94
574.367	1657.66
574.565	1596.22
574.763	1514.3
574.962	1600.32
575.16	1575.74
575.358	1403.71
575.556	1499.97
575.754	1399.62
575.952	1477.44
576.151	1444.67
576.349	1446.72
576.547	1258.31
576.745	1383.23
576.943	1295.17
577.141	1360.7
577.339	1211.2
577.537	1180.48
577.735	1340.22
577.933	1237.83
578.131	1119.04
578.329	1315.65
578.527	1100.61
578.725	1186.63
578.923	1024.84
579.121	1229.63
579.319	1006.41
579.516	1090.37
579.714	1160
579.912	1082.18
580.11	928.58
580.308	928.58
580.506	865.1
580.704	770.89
580.901	887.62
581.099	1035.08
581.297	965.45
581.495	977.73
581.692	951.11
581.89	1055.56
582.088	893.77
582.285	867.14
582.483	861
582.681	869.19
582.878	766.79
583.076	846.66
583.274	803.66
583.471	942.92
583.669	787.27
583.866	727.88
584.064	695.11
584.262	725.83
584.459	652.11
584.657	734.03
584.854	727.88
585.052	760.65
585.249	633.68
585.447	674.64
585.644	658.25
585.841	783.18
586.039	762.7
586.236	684.87
586.434	654.16
586.631	686.92
586.828	533.33
587.026	650.06
587.223	627.53
587.42	611.15
587.618	676.68
587.815	641.87
588.012	637.77
588.21	617.29
588.407	664.4
588.604	676.68
588.801	502.61
588.999	686.92
589.196	652.11
589.393	549.71
589.59	623.44
589.787	633.68
589.984	566.09
590.182	533.33
590.379	441.17
590.576	488.27
590.773	518.99
590.97	422.73
591.167	570.19
591.364	566.09
591.561	435.02
591.758	621.39
591.955	559.95
592.152	562
592.349	459.6
592.546	512.85
592.743	467.79
592.94	580.43
593.137	596.81
593.334	600.91
593.531	531.28
593.727	553.8
593.924	539.47
594.121	455.5
594.318	463.69
594.515	508.75
594.712	742.22
594.908	615.24
595.105	435.02
595.302	527.18
595.499	674.64
595.696	672.59
595.892	586.57
596.089	607.05
596.286	510.8
596.482	760.65
596.679	723.79
596.876	609.1
597.072	729.93
597.269	623.44
597.466	807.75
597.662	719.69
597.859	746.31
598.055	795.47
598.252	756.55
598.448	942.92
598.645	852.81
598.841	924.49
599.038	1024.84
599.234	1059.65
599.431	1024.84
599.627	967.49
599.824	1117
600.02	1094.47
600.217	994.12
600.413	1250.11
600.609	1082.18
600.806	1495.87
601.002	1256.26
601.198	1293.12
601.395	1424.19
601.591	1516.35
601.787	1549.12
601.984	1704.76
602.18	1665.85
602.376	1637.18
602.572	1805.11
602.769	1751.87
602.965	1846.07
603.161	1901.37
603.357	2081.59
603.553	2198.32
603.75	2042.68
603.946	2290.48
604.142	2366.26
604.338	2513.71
604.534	2411.31
604.73	2487.09
604.926	2474.8
605.122	2722.6
605.318	2741.04
605.514	2972.46
605.71	2904.87
605.906	3222.31
606.102	3103.53
606.298	3306.27
606.494	3300.13
606.69	3502.88
606.886	3576.61
607.082	3619.61
607.278	3693.34
607.474	3746.59
607.67	3951.39
607.866	3932.95
608.062	4123.41
608.257	4356.88
608.453	4219.67
608.649	4483.86
608.845	4426.51
609.041	4571.92
609.236	4746
609.432	5090.06
609.628	5227.27
609.824	5249.8
610.019	5380.87
610.215	5380.87
610.411	5477.12
610.606	5815.04
610.802	5978.87
610.998	6161.14
611.193	6429.43
611.389	6216.44
611.584	6550.26
611.78	6535.92
611.976	6961.9
612.171	7170.79
612.367	7322.34
612.562	7527.14
612.758	7660.26
612.953	7772.89
613.149	8127.19
613.344	8221.4
613.539	8575.7
613.735	8704.72
613.93	9030.35
614.126	9061.07
614.321	9652.93
614.517	9718.47
614.712	9861.82
614.907	9847.49
615.103	10136.25
615.298	10461.88
615.493	10916.53
615.688	10842.8
615.884	11563.68
616.079	11543.21
616.274	11989.66
616.47	12081.82
616.665	12636.82
616.86	12903.06
617.055	13345.42
617.25	13550.21
617.445	14082.69
617.641	14025.34
617.836	14664.31
618.031	14695.03
618.226	15401.58
618.421	15741.54
618.616	16149.09
618.811	16282.2
619.006	16804.44
619.201	16941.65
619.396	17467.98
619.591	17480.27
619.786	18135.62
619.981	18512.44
620.176	19276.34
620.371	19137.07
620.566	19868.2
620.761	20060.71
620.956	20728.35
621.151	21002.77
621.346	21363.22
621.541	21586.44
621.735	22297.09
621.93	22262.27
622.125	22911.48
622.32	22972.92
622.515	23742.96
622.709	24107.49
622.904	24623.58
623.099	24979.93
623.294	25526.74
623.488	25807.31
623.683	26347.97
623.878	26425.79
624.072	27150.78
624.267	27707.82
624.462	28326.31
624.656	28168.62
624.851	29045.15
625.046	28932.51
625.24	29936.01
625.435	29780.37
625.629	30589.31
625.824	30706.05
626.018	30978.43
626.213	31017.34
626.407	32059.76
626.602	31940.97
626.796	32528.74
626.991	32563.56
627.185	32663.91
627.38	33274.2
627.574	33331.54
627.768	33306.97
627.963	33306.97
628.157	33571.16
628.352	33804.63
628.546	33167.71
628.74	33939.79
628.935	33210.71
629.129	33786.19
629.323	33050.97
629.517	33186.14
629.712	32450.92
629.906	32455.01
630.1	31863.15
630.294	31943.02
630.489	30988.67
630.683	31226.23
630.877	30079.37
631.071	29684.11
631.265	29587.86
631.459	28574.11
631.653	27984.3
631.848	27179.45
632.042	26757.57
632.236	25772.49
632.43	24922.59
632.624	24486.37
632.818	23652.84
633.012	22936.06
633.206	22338.05
633.4	21318.16
633.594	20720.15
633.788	20062.76
633.982	19522.09
634.176	18752.06
634.369	17848.9
634.563	17332.81
634.757	16544.34
634.951	16077.41
635.145	15395.43
635.339	14723.7
635.533	14152.32
635.726	13591.17
635.92	12909.2
636.114	12462.74
636.308	11989.66
636.501	11684.52
636.695	11078.32
636.889	10365.62
637.083	9915.07
637.276	9487.04
637.47	9374.41
637.664	8940.24
637.857	8512.21
638.051	8338.13
638.244	7936.73
638.438	7510.75
638.632	7289.57
638.825	7082.73
639.019	6675.18
639.212	6347.51
639.406	6157.05
639.599	5923.58
639.793	5890.81
639.986	5483.27
640.18	5311.24
640.373	5116.68
640.567	4983.56
640.76	4746
640.954	4576.02
641.147	4358.93
641.34	4213.53
641.534	4027.16
641.727	3812.12
641.92	3771.16
642.114	3670.81
642.307	3423.01
642.5	3504.93
642.694	3083.05
642.887	3117.86
643.08	2951.98
643.273	3003.18
643.467	2788.14
643.66	2587.44
643.853	2370.35
644.046	2515.76
644.239	2356.02
644.432	2231.09
644.626	2130.74
644.819	2073.4
645.012	2112.31
645.205	2032.44
645.398	1966.9
645.591	1737.53
645.784	1745.72
645.977	1585.98
646.17	1600.32
646.363	1538.88
646.556	1422.14
646.749	1297.22
646.942	1471.29
647.135	1428.29
647.328	1323.84
647.521	1291.07
647.714	1198.92
647.907	1205.06
648.099	1030.98
648.292	1151.81
648.485	1086.28
648.678	955.21
648.871	932.68
649.064	963.4
649.256	697.16
649.449	842.57
649.642	723.79
649.835	719.69
650.027	723.79
650.22	774.99
650.413	699.21
650.605	801.61
650.798	723.79
650.991	686.92
651.183	525.13
651.376	580.43
651.568	594.76
651.761	457.55
651.954	488.27
652.146	557.9
652.339	518.99
652.531	557.9
652.724	428.88
652.916	416.59
653.109	314.19
653.301	574.28
653.494	469.84
653.686	455.5
653.879	543.57
654.071	490.32
654.263	336.72
654.456	383.82
654.648	475.98
654.84	480.08
655.033	301.9
655.225	475.98
655.417	285.52
655.61	449.36
655.802	371.54
655.994	500.56
656.186	273.23
656.379	383.82
656.571	211.79
656.763	156.5
656.955	299.86
657.148	299.86
657.34	373.58
657.532	246.61
657.724	279.38
657.916	299.86
658.108	373.58
658.3	326.48
658.492	346.96
658.684	197.46
658.876	310.1
659.068	140.12
659.26	60.24
659.452	166.74
659.644	187.22
659.836	283.47
660.028	285.52
660.22	160.59
660.412	244.56
660.604	203.6
660.796	271.19
660.988	295.76
661.18	193.36
661.372	297.81
661.563	254.8
661.755	238.42
661.947	82.77
662.139	148.31
662.331	215.89
662.522	160.59
662.714	199.51
662.906	183.12
663.097	209.75
663.289	183.12
663.481	54.1
663.673	160.59
663.864	123.73
664.056	265.04
664.247	50
664.439	314.19
664.631	156.5
664.822	217.94
665.014	133.97
665.205	162.64
665.397	105.3
665.588	209.75
665.78	176.98
665.971	217.94
666.163	136.02
666.354	258.9
666.546	84.82
666.737	107.35
666.929	86.87
667.12	181.07
667.311	176.98
667.503	117.59
667.694	150.36
667.885	117.59
668.077	197.46
668.268	107.35
668.459	144.21
668.651	213.84
668.842	185.17
669.033	140.12
669.224	25.43
669.416	328.53
669.607	90.96
669.798	148.31
669.989	199.51
670.18	62.29
670.371	207.7
670.563	37.72
670.754	205.65
670.945	213.84
671.136	136.02
671.327	37.72
671.518	236.37
671.709	232.27
671.9	201.55
672.091	207.7
672.282	160.59
672.473	170.83
672.664	162.64
672.855	176.98
673.046	195.41
673.237	119.64
673.428	138.07
673.619	183.12
673.809	39.76
674	234.32
674.191	209.75
674.382	179.03
674.573	90.96
674.764	121.68
674.954	201.55
675.145	31.57
675.336	105.3
675.527	127.83
675.717	154.45
675.908	172.88
676.099	142.16
676.289	142.16
676.48	23.38
676.671	197.46
676.861	119.64
677.052	189.27
677.243	144.21
677.433	105.3
677.624	131.92
677.814	181.07
678.005	125.78
678.195	197.46
678.386	123.73
678.576	197.46
678.767	23.38
678.957	95.06
679.148	181.07
679.338	342.86
679.529	183.12
679.719	136.02
679.909	236.37
680.1	113.49
680.29	148.31
680.481	33.62
680.671	281.43
680.861	170.83
681.052	168.79
681.242	174.93
681.432	179.03
681.622	197.46
681.813	123.73
682.003	140.12
682.193	95.06
682.383	113.49
682.573	156.5
682.764	144.21
682.954	193.36
683.144	279.38
683.334	197.46
683.524	129.88
683.714	258.9
683.904	265.04
684.094	144.21
684.284	238.42
684.474	332.62
684.664	271.19
684.854	226.13
685.044	207.7
685.234	193.36
685.424	269.14
685.614	228.18
685.804	303.95
685.994	222.03
686.184	224.08
686.374	213.84
686.564	148.31
686.753	205.65
686.943	125.78
687.133	232.27
687.323	236.37
687.513	248.66
687.702	201.55
687.892	185.17
688.082	316.24
688.272	267.09
688.461	185.17
688.651	283.47
688.841	269.14
689.03	240.47
689.22	217.94
689.41	250.71
689.599	256.85
689.789	140.12
689.979	312.14
690.168	201.55
690.358	246.61
690.547	232.27
690.737	269.14
690.926	222.03
691.116	193.36
691.305	297.81
691.495	238.42
691.684	174.93
691.874	179.03
692.063	265.04
692.252	230.23
692.442	355.15
692.631	201.55
692.82	162.64
693.01	258.9
693.199	232.27
693.388	230.23
693.578	238.42
693.767	299.86
693.956	256.85
694.146	258.9
694.335	271.19
694.524	242.51
694.713	297.81
694.902	203.6
695.092	189.27
695.281	308.05
695.47	217.94
695.659	193.36
695.848	281.43
696.037	191.31
696.226	287.57
696.415	191.31
696.604	283.47
696.793	265.04
696.982	187.22
697.171	289.62
697.36	217.94
697.549	219.99
697.738	150.36
697.927	213.84
698.116	187.22
698.305	293.71
698.494	191.31
698.683	217.94
698.872	297.81
699.061	144.21
699.25	252.75
699.438	168.79
699.627	248.66
699.816	342.86
700.005	156.5
700.193	213.84
700.382	199.51
700.571	213.84
700.76	164.69
700.948	267.09
701.137	252.75
701.326	265.04
701.514	174.93
701.703	238.42
701.892	219.99
702.08	398.16
702.269	174.93
702.457	189.27
702.646	279.38
702.834	262.99
703.023	308.05
703.212	228.18
703.4	258.9
703.589	123.73
703.777	230.23
703.965	150.36
704.154	236.37
704.342	238.42
704.531	185.17
704.719	273.23
704.907	367.44
705.096	115.54
705.284	158.55
705.472	246.61
705.661	197.46
705.849	250.71
706.037	326.48
706.226	285.52
706.414	129.88
706.602	170.83
706.79	211.79
706.979	179.03
707.167	260.95
707.355	123.73
707.543	273.23
707.731	349.01
707.919	224.08
708.107	242.51
708.296	174.93
708.484	248.66
708.672	289.62
708.86	246.61
709.048	201.55
709.236	215.89
709.424	265.04
709.612	258.9
709.8	176.98
709.988	164.69
710.176	291.66
710.364	367.44
710.551	185.17
710.739	199.51
710.927	152.4
711.115	289.62
711.303	269.14
711.491	250.71
711.679	234.32
711.866	361.3
712.054	211.79
712.242	238.42
712.43	277.33
712.617	230.23
712.805	342.86
712.993	310.1
713.181	160.59
713.368	301.9
713.556	267.09
713.744	193.36
713.931	383.82
714.119	262.99
714.306	262.99
714.494	195.41
714.682	203.6
714.869	230.23
715.057	232.27
715.244	115.54
715.432	197.46
715.619	154.45
715.807	187.22
715.994	168.79
716.182	234.32
716.369	334.67
716.556	289.62
716.744	189.27
716.931	185.17
717.119	314.19
717.306	312.14
717.493	322.38
717.681	236.37
717.868	250.71
718.055	289.62
718.242	232.27
718.43	273.23
718.617	271.19
718.804	269.14
718.991	369.49
719.179	277.33
719.366	260.95
719.553	328.53
719.74	291.66
719.927	181.07
720.114	265.04
720.301	185.17
720.488	185.17
720.676	297.81
720.863	371.54
721.05	369.49
721.237	301.9
721.424	342.86
721.611	267.09
721.798	230.23
721.985	230.23
722.172	236.37
722.358	291.66
722.545	359.25
722.732	324.43
722.919	322.38
723.106	248.66
723.293	252.75
723.48	316.24
723.667	179.03
723.853	283.47
724.04	349.01
724.227	426.83
724.414	195.41
724.6	379.73
724.787	426.83
724.974	475.98
725.161	301.9
725.347	179.03
725.534	279.38
725.72	252.75
725.907	375.63
726.094	308.05
726.28	226.13
726.467	265.04
726.653	181.07
726.84	379.73
727.027	402.26
727.213	330.58
727.4	385.87
727.586	338.77
727.773	265.04
727.959	224.08
728.145	267.09
728.332	244.56
728.518	258.9
728.705	293.71
728.891	285.52
729.077	357.2
729.264	189.27
729.45	383.82
729.636	375.63
729.823	295.76
730.009	461.65
730.195	328.53
730.382	385.87
730.568	168.79
730.754	326.48
730.94	379.73
731.126	349.01
731.313	367.44
731.499	306
731.685	381.78
731.871	379.73
732.057	301.9
732.243	312.14
732.429	381.78
732.615	410.45
732.801	381.78
732.987	322.38
733.173	402.26
733.359	267.09
733.545	256.85
733.731	250.71
733.917	394.06
734.103	355.15
734.289	291.66
734.475	308.05
734.661	475.98
734.847	379.73
735.033	383.82
735.219	379.73
735.404	303.95
735.59	351.06
735.776	312.14
735.962	328.53
736.148	332.62
736.333	430.93
736.519	383.82
736.705	396.11
736.89	336.72
737.076	351.06
737.262	283.47
737.447	279.38
737.633	291.66
737.819	484.17
738.004	365.39
738.19	306
738.375	326.48
738.561	408.4
738.747	344.91
738.932	224.08
739.118	531.28
739.303	373.58
739.489	394.06
739.674	367.44
739.859	262.99
740.045	412.5
740.23	385.87
740.416	246.61
740.601	396.11
740.786	385.87
740.972	269.14
741.157	310.1
741.342	256.85
741.528	287.57
741.713	459.6
741.898	287.57
742.084	316.24
742.269	238.42
742.454	291.66
742.639	349.01
742.824	422.73
743.01	418.64
743.195	447.31
743.38	355.15
743.565	312.14
743.75	324.43
743.935	363.34
744.12	346.96
744.305	328.53
744.49	283.47
744.675	361.3
744.86	291.66
745.045	330.58
745.23	320.34
745.415	287.57
745.6	414.54
745.785	344.91
745.97	326.48
746.155	432.97
746.34	445.26
746.525	324.43
746.71	430.93
746.895	199.51
747.079	303.95
747.264	224.08
747.449	402.26
747.634	279.38
747.819	437.07
748.003	254.8
748.188	250.71
748.373	324.43
748.557	359.25
748.742	449.36
748.927	293.71
749.111	326.48
749.296	289.62
749.481	346.96
749.665	301.9
749.85	256.85
750.034	324.43
750.219	318.29
750.404	361.3
750.588	287.57
750.773	228.18
750.957	262.99
751.141	258.9
751.326	289.62
751.51	197.46
751.695	185.17
751.879	283.47
752.064	410.45
752.248	222.03
752.432	437.07
752.617	340.82
752.801	353.1
752.985	287.57
753.17	254.8
753.354	269.14
753.538	271.19
753.722	242.51
753.907	283.47
754.091	189.27
754.275	267.09
754.459	172.88
754.643	197.46
754.828	246.61
755.012	299.86
755.196	260.95
755.38	320.34
755.564	138.07
755.748	136.02
755.932	256.85
756.116	279.38
756.3	152.4
756.484	262.99
756.668	326.48
756.852	117.59
757.036	246.61
757.22	265.04
757.404	142.16
757.588	166.74
757.772	217.94
757.956	187.22
758.14	281.43
758.323	213.84
758.507	226.13
758.691	217.94
758.875	295.76
759.059	252.75
759.242	195.41
759.426	164.69
759.61	273.23
759.794	176.98
759.977	279.38
760.161	416.59
760.345	326.48
760.528	275.28
760.712	275.28
760.895	226.13
761.079	217.94
761.263	121.68
761.446	136.02
761.63	181.07
761.813	310.1
761.997	127.83
762.18	181.07
762.364	262.99
762.547	140.12
762.731	222.03
762.914	146.26
763.098	93.01
763.281	129.88
763.464	156.5
763.648	166.74
763.831	224.08
764.015	127.83
764.198	181.07
764.381	166.74
764.564	172.88
764.748	189.27
764.931	254.8
765.114	183.12
765.297	215.89
765.481	170.83
765.664	113.49
765.847	154.45
766.03	205.65
766.213	50
766.397	127.83
766.58	80.72
766.763	191.31
766.946	127.83
767.129	123.73
767.312	72.53
767.495	191.31
767.678	93.01
767.861	140.12
768.044	105.3
768.227	131.92
768.41	142.16
768.593	101.2
768.776	222.03
768.959	140.12
769.142	342.86
769.324	166.74
769.507	82.77
769.69	121.68
769.873	125.78
770.056	267.09
770.239	90.96
770.421	189.27
770.604	176.98
770.787	148.31
770.97	148.31
771.152	33.62
771.335	74.58
771.518	70.48
771.7	213.84
771.883	191.31
772.066	29.52
772.248	103.25
772.431	209.75
772.613	164.69
772.796	148.31
772.978	152.4
773.161	156.5
773.343	72.53
773.526	97.11
773.708	7
773.891	47.96
774.073	138.07
774.256	125.78
774.438	191.31
774.621	88.92
774.803	115.54
774.985	148.31
775.168	162.64
775.35	78.68
775.532	125.78
775.715	121.68
775.897	183.12
776.079	117.59
776.261	131.92
776.444	119.64
776.626	121.68
776.808	150.36
776.99	-56.49
777.173	90.96
777.355	68.44
777.537	119.64
777.719	101.2
777.901	95.06
778.083	23.38
778.265	68.44
778.447	136.02
778.629	-40.11
778.811	41.81
778.993	179.03
779.175	154.45
779.357	56.15
779.539	17.24
779.721	172.88
779.903	121.68
780.085	105.3
780.267	99.16
780.449	119.64
780.631	154.45
780.812	133.97
780.994	111.44
781.176	74.58
781.358	45.91
781.54	117.59
781.721	72.53
781.903	97.11
782.085	37.72
782.267	213.84
782.448	-19.63
782.63	35.67
782.812	97.11
782.993	144.21
783.175	103.25
783.357	115.54
783.538	76.63
783.72	-52.39
783.901	72.53
784.083	127.83
784.264	129.88
784.446	-36.01
784.627	2.9
784.809	162.64
784.99	43.86
785.172	238.42
785.353	58.2
785.535	70.48
785.716	99.16
785.897	25.43
786.079	113.49
786.26	127.83
786.441	64.34
786.623	41.81
786.804	-42.15
786.985	99.16
787.167	158.55
787.348	4.95
787.529	70.48
787.71	189.27
787.891	117.59
788.073	-15.53
788.254	-7.34
788.435	172.88
788.616	52.05
788.797	25.43
788.978	88.92
789.159	-3.24
789.34	142.16
789.522	115.54
789.703	43.86
789.884	154.45
790.065	41.81
790.246	199.51
790.427	31.57
790.607	136.02
790.788	97.11
790.969	31.57
791.15	101.2
791.331	82.77
791.512	7
791.693	-31.91
791.874	2.9
792.054	267.09
792.235	101.2
792.416	-56.49
792.597	37.72
792.778	47.96
792.958	11.09
793.139	76.63
793.32	70.48
793.5	-1.19
793.681	172.88
793.862	35.67
794.042	50
794.223	-48.3
794.404	-21.67
794.584	23.38
794.765	68.44
794.945	-7.34
795.126	70.48
795.306	166.74
795.487	-3.24
795.667	25.43
795.848	47.96
796.028	50
796.209	39.76
796.389	33.62
796.57	27.48
796.75	31.57
796.93	105.3
797.111	-5.29
797.291	-15.53
797.471	88.92
797.652	-9.39
797.832	74.58
798.012	76.63
798.192	-19.63
798.373	4.95
798.553	41.81
798.733	84.82
798.913	25.43
799.093	-33.96
799.274	70.48
799.454	99.16
799.634	78.68
799.814	64.34
799.994	123.73
800.174	82.77
800.354	23.38
800.534	-15.53
800.714	31.57
800.894	50
801.074	-95.4
801.254	41.81
801.434	158.55
801.614	-42.15
801.794	25.43
801.974	1700.67
802.154	-25.77
802.334	39.76
802.514	-36.01
802.693	-21.67
802.873	-42.15
803.053	90.96
803.233	172.88
803.413	-9.39
803.592	-60.59
803.772	-36.01
803.952	50
804.131	-7.34
804.311	121.68
804.491	183.12
804.67	17.24
804.85	-40.11
805.03	31.57
805.209	158.55
805.389	-3.24
805.568	43.86
805.748	-62.63
805.928	-36.01
806.107	13.14
806.287	115.54
806.466	82.77
806.646	7
806.825	56.15
807.004	-23.72
807.184	4.95
807.363	39.76
807.543	39.76
807.722	-46.25
807.901	113.49
808.081	56.15
808.26	-36.01
808.439	-7.34
808.619	-11.43
808.798	33.62
808.977	84.82
809.156	84.82
809.336	27.48
809.515	166.74
809.694	2.9
809.873	-31.91
810.052	125.78
810.231	107.35
810.411	74.58
810.59	70.48
810.769	35.67
810.948	37.72
811.127	-21.67
811.306	-23.72
811.485	-7.34
811.664	205.65
811.843	25.43
812.022	23.38
812.201	-62.63
812.38	45.91
812.559	-1.19
812.737	68.44
812.916	-83.11
813.095	-50.35
813.274	-5.29
813.453	82.77
813.632	93.01
813.811	56.15
813.989	-1.19
814.168	27.48
814.347	-40.11
814.526	15.19
814.704	170.83
814.883	133.97
815.062	-31.91
815.24	95.06
815.419	-7.34
815.598	105.3
815.776	-56.49
815.955	82.77
816.133	-113.83
816.312	17.24
816.49	35.67
816.669	58.2
816.847	9.05
817.026	93.01
817.204	-40.11
817.383	-46.25
817.561	-15.53
817.74	58.2
817.918	113.49
818.097	17.24
818.275	88.92
818.453	39.76
818.632	58.2
818.81	70.48
818.988	37.72
819.167	39.76
819.345	43.86
819.523	-25.77
819.701	11.09
819.879	86.87
820.058	25.43
820.236	82.77
820.414	70.48
820.592	41.81
820.77	45.91
820.948	-48.3
821.127	-95.4
821.305	21.33
821.483	-21.67
821.661	66.39
821.839	-3.24
822.017	-66.73
822.195	82.77
822.373	68.44
822.551	90.96
822.729	54.1
822.907	31.57
823.085	82.77
823.262	39.76
823.44	7
823.618	-7.34
823.796	47.96
823.974	-21.67
824.152	-23.72
824.329	-9.39
824.507	66.39
824.685	13.14
824.863	90.96
825.04	13.14
825.218	117.59
825.396	13.14
825.574	82.77
825.751	72.53
825.929	50
826.107	-23.72
826.284	-17.58
826.462	15.19
826.639	-23.72
826.817	-117.93
826.994	25.43
827.172	-42.15
827.349	201.55
827.527	62.29
827.704	21.33
827.882	47.96
828.059	-3.24
828.237	-58.54
828.414	47.96
828.591	-101.55
828.769	47.96
828.946	-66.73
829.124	72.53
829.301	86.87
829.478	-7.34
829.655	25.43
829.833	39.76
830.01	-122.02
830.187	84.82
830.364	-33.96
830.542	47.96
830.719	156.5
830.896	66.39
831.073	154.45
831.25	72.53
831.427	95.06
831.604	25.43
831.782	-46.25
831.959	-9.39
832.136	76.63
832.313	78.68
832.49	-21.67
832.667	37.72
832.844	-42.15
833.021	68.44
833.198	-13.48
833.374	-3.24
833.551	29.52
833.728	66.39
833.905	133.97
834.082	-117.93
834.259	62.29
834.436	101.2
834.612	-72.87
834.789	0.85
834.966	58.2
835.143	37.72
835.319	-103.59
835.496	84.82
835.673	107.35
835.85	82.77
836.026	37.72
836.203	160.59
836.38	35.67
836.556	15.19
836.733	-7.34
836.909	129.88
837.086	33.62
837.262	-93.35
837.439	-95.4
837.616	7
837.792	95.06
837.968	15.19
838.145	-103.59
838.321	-19.63
838.498	64.34
838.674	52.05
838.851	-27.82
839.027	-19.63
839.203	140.12
839.38	60.24
839.556	-23.72
839.732	52.05
839.909	-17.58
840.085	-7.34
840.261	-25.77
840.437	23.38
840.614	-15.53
840.79	62.29
840.966	19.29
841.142	-17.58
841.318	47.96
841.494	121.68
841.671	50
841.847	35.67
842.023	-3.24
842.199	-17.58
842.375	68.44
842.551	-64.68
842.727	-66.73
842.903	123.73
843.079	-99.5
843.255	156.5
843.431	-36.01
843.607	86.87
843.783	-122.02
843.959	15.19
844.134	33.62
844.31	111.44
844.486	-13.48
844.662	-27.82
844.838	-13.48
845.013	-13.48
845.189	31.57
845.365	23.38
845.541	56.15
845.716	88.92
845.892	86.87
846.068	-25.77
846.244	9.05
846.419	146.26
846.595	4.95
846.77	-36.01
846.946	76.63
847.122	-1.19
847.297	0.85
847.473	160.59
847.648	-44.2
847.824	-29.87
847.999	-89.26
848.175	72.53
848.35	25.43
848.526	123.73
848.701	-3.24
848.876	119.64
849.052	125.78
849.227	-36.01
849.403	-1.19
849.578	52.05
849.753	115.54
849.929	88.92
850.104	-58.54
850.279	50
850.454	-3.24
850.63	-7.34
850.805	52.05
850.98	25.43
851.155	-13.48
851.33	84.82
851.505	-72.87
851.681	23.38
851.856	-46.25
852.031	41.81
852.206	50
852.381	-70.83
852.556	-29.87
852.731	88.92
852.906	37.72
853.081	-40.11
853.256	99.16
853.431	56.15
853.606	-64.68
853.781	-70.83
853.956	-105.64
854.131	60.24
854.305	64.34
854.48	9.05
854.655	-56.49
854.83	-15.53
855.005	68.44
855.18	-33.96
855.354	76.63
855.529	-5.29
855.704	17.24
855.879	66.39
856.053	-23.72
856.228	2.9
856.403	-7.34
856.577	2.9
856.752	-66.73
856.926	9.05
857.101	35.67
857.276	-50.35
857.45	39.76
857.625	105.3
857.799	41.81
857.974	58.2
858.148	-85.16
858.323	50
858.497	13.14
858.672	-29.87
858.846	-40.11
859.02	25.43
859.195	-74.92
859.369	4.95
859.543	19.29
859.718	-58.54
859.892	50
860.066	-27.82
860.241	-40.11
860.415	7
860.589	-25.77
860.763	58.2
860.938	7
861.112	-1.19
861.286	-3.24
861.46	9.05
861.634	23.38
861.808	72.53
861.982	-52.39
862.157	-66.73
862.331	-7.34
862.505	-99.5
862.679	-44.2
862.853	-27.82
863.027	-52.39
863.201	138.07
863.375	-40.11
863.549	21.33
863.722	41.81
863.896	97.11
864.07	13.14
864.244	-3.24
864.418	90.96
864.592	17.24
864.766	80.72
864.939	17.24
865.113	19.29
865.287	66.39
865.461	-93.35
865.634	-36.01
865.808	0.85
865.982	52.05
866.156	-33.96
866.329	-44.2
866.503	-36.01
866.676	133.97
866.85	45.91
867.024	-58.54
867.197	156.5
867.371	27.48
867.544	50
867.718	-89.26
867.891	47.96
868.065	-1.19
868.238	45.91
868.412	107.35
868.585	43.86
868.759	-38.06
868.932	-25.77
869.105	-83.11
869.279	2.9
869.452	-76.97
869.625	60.24
869.799	-5.29
869.972	-7.34
870.145	27.48
870.319	148.31
870.492	-29.87
870.665	-29.87
870.838	-83.11
871.011	-165.03
871.185	-27.82
871.358	-56.49
871.531	138.07
871.704	-74.92
871.877	29.52
872.05	21.33
872.223	-83.11
872.396	97.11
872.569	64.34
872.742	-29.87
872.915	-23.72
873.088	-23.72
873.261	-27.82
873.434	101.2
873.607	-19.63
873.78	70.48
873.953	-40.11
874.126	-9.39
874.299	-7.34
874.471	9.05
874.644	-36.01
874.817	-9.39
874.99	142.16
875.163	9.05
875.335	4.95
875.508	-3.24
875.681	103.25
875.853	-17.58
876.026	15.19
876.199	107.35
876.371	-38.06
876.544	9.05
876.717	52.05
876.889	-68.78
877.062	-38.06
877.234	-3.24
877.407	-36.01
877.579	-23.72
877.752	41.81
877.924	13.14
878.097	62.29
878.269	41.81
878.442	41.81
878.614	-27.82
878.786	31.57
878.959	103.25
879.131	58.2
879.303	-171.18
879.476	-23.72
879.648	58.2
879.82	50
879.993	-93.35
880.165	74.58
880.337	-81.07
880.509	7
880.681	-154.79
880.854	-25.77
881.026	107.35
881.198	170.83
881.37	31.57
881.542	9.05
881.714	37.72
881.886	-79.02
882.058	-27.82
882.23	41.81
882.402	35.67
882.574	7
882.746	68.44
882.918	140.12
883.09	60.24
883.262	-31.91
883.434	19.29
883.606	-103.59
883.778	-15.53
883.95	95.06
884.122	23.38
884.293	37.72
884.465	-48.3
884.637	58.2
884.809	-60.59
884.98	4.95
885.152	62.29
885.324	70.48
885.496	-1.19
885.667	-7.34
885.839	19.29
886.011	119.64
886.182	29.52
886.354	52.05
886.525	-56.49
886.697	64.34
886.869	13.14
887.04	-31.91
887.212	131.92
887.383	90.96
887.555	-7.34
887.726	15.19
887.897	-40.11
888.069	-7.34
888.24	64.34
888.412	-87.21
888.583	99.16
888.754	-9.39
888.926	-31.91
889.097	-9.39
889.268	-46.25
889.44	97.11
889.611	-85.16
889.782	-101.55
889.953	-56.49
890.125	64.34
890.296	-42.15
890.467	-3.24
890.638	13.14
890.809	-72.87
890.98	0.85
891.151	41.81
891.323	111.44
891.494	17.24
891.665	-11.43
891.836	97.11
892.007	-7.34
892.178	33.62
892.349	-29.87
892.52	-76.97
892.691	-3.24
892.862	-3.24
893.032	-99.5
893.203	-58.54
893.374	2.9
893.545	86.87
893.716	-33.96
893.887	31.57
894.057	-76.97
894.228	19.29
894.399	-13.48
894.57	66.39
894.74	-33.96
894.911	95.06
895.082	-21.67
895.253	-36.01
895.423	13.14
895.594	113.49
895.764	62.29
895.935	-85.16
896.106	95.06
896.276	-29.87
896.447	-9.39
896.617	-122.02
896.788	-54.44
896.958	-68.78
897.129	-21.67
897.299	-56.49
897.47	58.2
897.64	11.09
897.81	-46.25
897.981	60.24
898.151	-33.96
898.322	9.05
898.492	74.58
898.662	-64.68
898.832	-33.96
899.003	-7.34
899.173	64.34
899.343	-19.63
899.513	-162.98
