Data from USB4F104151__55__09-28-25-802.txt Node

Date: Wed Feb 26 09:28:25 EST 2025
User: louis
Spectrometer: USB4F10415
Trigger mode: 4
Integration Time (sec): 1.000000E-1
Scans to average: 1
Electric dark correction enabled: true
Nonlinearity correction enabled: false
Boxcar width: 0
XAxis mode: Wavelengths
Number of Pixels in Spectrum: 3648
>>>>>Begin Spectral Data<<<<<
178.204	-396.28
178.424	-396.28
178.644	-396.28
178.864	-275.45
179.084	-357.37
179.304	-19.46
179.524	-19.46
179.744	41.98
179.964	48.13
180.184	-25.6
180.404	7.17
180.624	3.07
180.844	25.6
181.064	-35.84
181.283	46.08
181.503	-74.75
181.723	3.07
181.943	-60.42
182.163	150.53
182.383	11.26
182.602	-25.6
182.822	41.98
183.042	60.42
183.262	-15.36
183.482	39.94
183.701	-5.12
183.921	84.99
184.141	37.89
184.361	148.48
184.58	37.89
184.8	66.56
185.02	37.89
185.239	44.03
185.459	41.98
185.679	-3.07
185.898	-60.42
186.118	95.23
186.338	50.18
186.557	46.08
186.777	-23.55
186.997	-19.46
187.216	82.94
187.436	119.81
187.655	64.51
187.875	95.23
188.095	82.94
188.314	93.18
188.534	160.77
188.753	-60.42
188.973	87.04
189.192	128
189.412	-3.07
189.631	21.5
189.851	58.37
190.07	111.61
190.29	-19.46
190.509	29.7
190.729	-1.02
190.948	109.57
191.168	267.26
191.387	140.29
191.607	-25.6
191.826	91.13
192.045	33.79
192.265	3.07
192.484	17.41
192.704	21.5
192.923	-31.74
193.142	95.23
193.362	54.27
193.581	175.1
193.8	-21.5
194.02	91.13
194.239	-3.07
194.458	-3.07
194.678	11.26
194.897	-9.22
195.116	-17.41
195.335	11.26
195.555	29.7
195.774	-5.12
195.993	87.04
196.212	21.5
196.432	-80.89
196.651	-72.7
196.87	21.5
197.089	181.25
197.308	80.89
197.528	56.32
197.747	-60.42
197.966	33.79
198.185	121.85
198.404	15.36
198.623	130.05
198.842	70.65
199.062	68.61
199.281	82.94
199.5	62.46
199.719	1.02
199.938	95.23
200.157	70.65
200.376	70.65
200.595	84.99
200.814	58.37
201.033	-11.26
201.252	109.57
201.471	-15.36
201.69	128
201.909	66.56
202.128	84.99
202.347	35.84
202.566	-19.46
202.785	-5.12
203.004	-48.13
203.223	267.26
203.442	113.66
203.661	-35.84
203.879	37.89
204.098	107.52
204.317	-62.46
204.536	66.56
204.755	33.79
204.974	66.56
205.193	-44.03
205.411	128
205.63	-7.17
205.849	70.65
206.068	44.03
206.287	-41.98
206.505	103.42
206.724	-44.03
206.943	13.31
207.162	-15.36
207.381	46.08
207.599	-23.55
207.818	-64.51
208.037	1.02
208.255	39.94
208.474	-15.36
208.693	66.56
208.911	78.85
209.13	95.23
209.349	70.65
209.567	101.37
209.786	48.13
210.005	15.36
210.223	76.8
210.442	-130.05
210.661	-15.36
210.879	17.41
211.098	66.56
211.316	-23.55
211.535	82.94
211.753	3.07
211.972	11.26
212.191	-7.17
212.409	1.02
212.628	33.79
212.846	-121.85
213.065	25.6
213.283	152.57
213.502	-23.55
213.72	82.94
213.938	11.26
214.157	50.18
214.375	99.33
214.594	123.9
214.812	31.74
215.031	-11.26
215.249	91.13
215.467	13.31
215.686	44.03
215.904	54.27
216.122	70.65
216.341	93.18
216.559	58.37
216.778	56.32
216.996	150.53
217.214	35.84
217.432	46.08
217.651	19.46
217.869	9.22
218.087	93.18
218.306	-80.89
218.524	31.74
218.742	11.26
218.96	148.48
219.179	27.65
219.397	-3.07
219.615	173.05
219.833	58.37
220.051	-3.07
220.27	33.79
220.488	144.38
220.706	46.08
220.924	-58.37
221.142	5.12
221.36	82.94
221.578	58.37
221.796	23.55
222.015	-7.17
222.233	60.42
222.451	171.01
222.669	-17.41
222.887	19.46
223.105	11.26
223.323	-44.03
223.541	3.07
223.759	56.32
223.977	-11.26
224.195	13.31
224.413	87.04
224.631	54.27
224.849	62.46
225.067	154.62
225.285	89.09
225.503	17.41
225.721	-166.91
225.939	87.04
226.157	109.57
226.375	207.87
226.592	37.89
226.81	35.84
227.028	87.04
227.246	82.94
227.464	54.27
227.682	64.51
227.9	62.46
228.117	-35.84
228.335	23.55
228.553	-60.42
228.771	128
228.989	17.41
229.206	95.23
229.424	-37.89
229.642	3.07
229.86	5.12
230.077	78.85
230.295	52.22
230.513	23.55
230.731	48.13
230.948	185.34
231.166	195.58
231.384	-5.12
231.601	-80.89
231.819	111.61
232.037	-44.03
232.254	-54.27
232.472	37.89
232.689	-27.65
232.907	80.89
233.125	-19.46
233.342	1.02
233.56	-54.27
233.777	17.41
233.995	44.03
234.213	50.18
234.43	99.33
234.648	27.65
234.865	3.07
235.083	101.37
235.3	87.04
235.518	107.52
235.735	52.22
235.953	-9.22
236.17	76.8
236.388	52.22
236.605	19.46
236.822	140.29
237.04	111.61
237.257	17.41
237.475	-15.36
237.692	29.7
237.909	111.61
238.127	5.12
238.344	78.85
238.562	93.18
238.779	54.27
238.996	-89.09
239.214	25.6
239.431	54.27
239.648	50.18
239.865	82.94
240.083	101.37
240.3	9.22
240.517	11.26
240.735	91.13
240.952	91.13
241.169	56.32
241.386	27.65
241.603	-58.37
241.821	-17.41
242.038	72.7
242.255	109.57
242.472	13.31
242.689	54.27
242.907	54.27
243.124	46.08
243.341	39.94
243.558	-50.18
243.775	-39.94
243.992	41.98
244.209	82.94
244.426	117.76
244.643	97.28
244.86	103.42
245.078	41.98
245.295	33.79
245.512	27.65
245.729	-11.26
245.946	52.22
246.163	13.31
246.38	-29.7
246.597	37.89
246.814	95.23
247.031	35.84
247.248	56.32
247.464	95.23
247.681	-11.26
247.898	52.22
248.115	62.46
248.332	-11.26
248.549	60.42
248.766	168.96
248.983	101.37
249.2	-3.07
249.417	72.7
249.633	58.37
249.85	168.96
250.067	3.07
250.284	97.28
250.501	68.61
250.717	111.61
250.934	-50.18
251.151	-33.79
251.368	-11.26
251.585	9.22
251.801	50.18
252.018	60.42
252.235	76.8
252.451	-56.32
252.668	15.36
252.885	146.43
253.102	46.08
253.318	46.08
253.535	46.08
253.752	58.37
253.968	3.07
254.185	-68.61
254.401	115.71
254.618	99.33
254.835	-64.51
255.051	128
255.268	50.18
255.484	37.89
255.701	121.85
255.917	121.85
256.134	-89.09
256.351	-44.03
256.567	-19.46
256.784	-15.36
257	-62.46
257.217	144.38
257.433	111.61
257.65	62.46
257.866	179.2
258.082	-76.8
258.299	-19.46
258.515	5.12
258.732	21.5
258.948	29.7
259.165	-3.07
259.381	13.31
259.597	101.37
259.814	-52.22
260.03	-78.85
260.246	9.22
260.463	121.85
260.679	158.72
260.895	-7.17
261.112	15.36
261.328	-7.17
261.544	-11.26
261.761	199.68
261.977	-39.94
262.193	-78.85
262.409	66.56
262.626	-19.46
262.842	58.37
263.058	21.5
263.274	60.42
263.49	27.65
263.707	99.33
263.923	70.65
264.139	-62.46
264.355	29.7
264.571	140.29
264.787	44.03
265.004	99.33
265.22	23.55
265.436	-19.46
265.652	-15.36
265.868	-50.18
266.084	-21.5
266.3	11.26
266.516	-31.74
266.732	-25.6
266.948	-23.55
267.164	-13.31
267.38	-3.07
267.596	33.79
267.812	164.86
268.028	21.5
268.244	35.84
268.46	23.55
268.676	-11.26
268.892	19.46
269.108	-27.65
269.324	-23.55
269.54	17.41
269.756	97.28
269.972	-35.84
270.188	-7.17
270.403	23.55
270.619	-9.22
270.835	54.27
271.051	62.46
271.267	21.5
271.483	9.22
271.698	3.07
271.914	97.28
272.13	41.98
272.346	-82.94
272.562	7.17
272.777	48.13
272.993	-25.6
273.209	56.32
273.425	-3.07
273.64	-84.99
273.856	54.27
274.072	-52.22
274.287	-46.08
274.503	107.52
274.719	89.09
274.934	-7.17
275.15	-111.61
275.366	35.84
275.581	-27.65
275.797	-7.17
276.012	72.7
276.228	13.31
276.444	66.56
276.659	89.09
276.875	-39.94
277.09	66.56
277.306	-37.89
277.521	48.13
277.737	109.57
277.952	74.75
278.168	-5.12
278.383	62.46
278.599	21.5
278.814	101.37
279.03	-21.5
279.245	62.46
279.461	3.07
279.676	50.18
279.892	-27.65
280.107	-74.75
280.322	-3.07
280.538	52.22
280.753	-37.89
280.969	58.37
281.184	41.98
281.399	70.65
281.615	13.31
281.83	111.61
282.045	-78.85
282.26	-1.02
282.476	101.37
282.691	56.32
282.906	5.12
283.122	115.71
283.337	17.41
283.552	-13.31
283.767	-60.42
283.983	111.61
284.198	56.32
284.413	95.23
284.628	-91.13
284.843	87.04
285.058	11.26
285.274	-7.17
285.489	23.55
285.704	74.75
285.919	-15.36
286.134	-31.74
286.349	7.17
286.564	-91.13
286.779	148.48
286.995	-27.65
287.21	17.41
287.425	93.18
287.64	13.31
287.855	25.6
288.07	-97.28
288.285	76.8
288.5	95.23
288.715	74.75
288.93	29.7
289.145	17.41
289.36	119.81
289.575	44.03
289.79	123.9
290.004	50.18
290.219	115.71
290.434	35.84
290.649	-39.94
290.864	19.46
291.079	3.07
291.294	25.6
291.509	37.89
291.724	-5.12
291.938	5.12
292.153	138.24
292.368	-25.6
292.583	-11.26
292.798	111.61
293.012	25.6
293.227	66.56
293.442	25.6
293.657	70.65
293.871	68.61
294.086	21.5
294.301	156.67
294.516	103.42
294.73	58.37
294.945	-72.7
295.16	15.36
295.374	68.61
295.589	89.09
295.804	93.18
296.018	-19.46
296.233	35.84
296.447	60.42
296.662	5.12
296.877	72.7
297.091	41.98
297.306	-13.31
297.52	78.85
297.735	17.41
297.949	52.22
298.164	-52.22
298.378	1.02
298.593	-23.55
298.807	-84.99
299.022	-19.46
299.236	107.52
299.451	41.98
299.665	-5.12
299.88	44.03
300.094	115.71
300.309	35.84
300.523	78.85
300.737	7.17
300.952	64.51
301.166	70.65
301.381	-19.46
301.595	-103.42
301.809	-19.46
302.024	-27.65
302.238	-80.89
302.452	58.37
302.667	-19.46
302.881	50.18
303.095	125.95
303.309	70.65
303.524	13.31
303.738	-15.36
303.952	-87.04
304.166	41.98
304.381	-37.89
304.595	205.82
304.809	11.26
305.023	29.7
305.237	-35.84
305.452	1.02
305.666	78.85
305.88	13.31
306.094	117.76
306.308	111.61
306.522	123.9
306.736	33.79
306.95	95.23
307.164	1.02
307.379	72.7
307.593	91.13
307.807	109.57
308.021	72.7
308.235	128
308.449	-93.18
308.663	13.31
308.877	128
309.091	62.46
309.305	13.31
309.519	-84.99
309.733	123.9
309.947	-113.66
310.161	50.18
310.374	23.55
310.588	130.05
310.802	-99.33
311.016	-3.07
311.23	35.84
311.444	21.5
311.658	58.37
311.872	78.85
312.085	109.57
312.299	56.32
312.513	99.33
312.727	119.81
312.941	19.46
313.154	76.8
313.368	35.84
313.582	17.41
313.796	54.27
314.009	74.75
314.223	66.56
314.437	37.89
314.651	9.22
314.864	-62.46
315.078	-27.65
315.292	-7.17
315.505	-15.36
315.719	-5.12
315.933	39.94
316.146	-58.37
316.36	-31.74
316.573	111.61
316.787	84.99
317.001	46.08
317.214	-66.56
317.428	39.94
317.641	11.26
317.855	-56.32
318.068	29.7
318.282	130.05
318.495	82.94
318.709	29.7
318.922	37.89
319.136	48.13
319.349	80.89
319.563	-68.61
319.776	58.37
319.99	-91.13
320.203	103.42
320.417	11.26
320.63	78.85
320.843	134.14
321.057	62.46
321.27	-17.41
321.483	115.71
321.697	50.18
321.91	29.7
322.124	76.8
322.337	93.18
322.55	-44.03
322.763	3.07
322.977	46.08
323.19	-9.22
323.403	23.55
323.617	107.52
323.83	160.77
324.043	15.36
324.256	17.41
324.469	-35.84
324.683	46.08
324.896	41.98
325.109	46.08
325.322	-11.26
325.535	87.04
325.748	95.23
325.962	41.98
326.175	72.7
326.388	105.47
326.601	91.13
326.814	-48.13
327.027	70.65
327.24	132.09
327.453	-39.94
327.666	95.23
327.879	109.57
328.092	80.89
328.305	19.46
328.518	-52.22
328.731	52.22
328.944	-27.65
329.157	46.08
329.37	27.65
329.583	162.81
329.796	105.47
330.009	21.5
330.222	84.99
330.435	140.29
330.648	21.5
330.861	72.7
331.073	48.13
331.286	78.85
331.499	48.13
331.712	-44.03
331.925	-23.55
332.138	58.37
332.35	70.65
332.563	1.02
332.776	101.37
332.989	-54.27
333.202	21.5
333.414	52.22
333.627	54.27
333.84	62.46
334.053	9.22
334.265	46.08
334.478	-15.36
334.691	3.07
334.903	-21.5
335.116	15.36
335.329	-60.42
335.541	62.46
335.754	201.72
335.966	-52.22
336.179	35.84
336.392	13.31
336.604	-5.12
336.817	132.09
337.029	52.22
337.242	-7.17
337.454	37.89
337.667	21.5
337.88	111.61
338.092	87.04
338.305	107.52
338.517	70.65
338.729	87.04
338.942	35.84
339.154	-105.47
339.367	-21.5
339.579	115.71
339.792	-62.46
340.004	97.28
340.217	-7.17
340.429	41.98
340.641	-5.12
340.854	-60.42
341.066	37.89
341.278	136.19
341.491	46.08
341.703	31.74
341.915	1.02
342.128	62.46
342.34	-44.03
342.552	-52.22
342.764	80.89
342.977	44.03
343.189	113.66
343.401	21.5
343.613	-84.99
343.826	11.26
344.038	-21.5
344.25	99.33
344.462	-9.22
344.674	76.8
344.886	5.12
345.099	46.08
345.311	-19.46
345.523	-89.09
345.735	-125.95
345.947	-66.56
346.159	13.31
346.371	13.31
346.583	56.32
346.795	107.52
347.007	-23.55
347.219	33.79
347.431	33.79
347.643	52.22
347.855	13.31
348.067	113.66
348.279	-60.42
348.491	46.08
348.703	80.89
348.915	25.6
349.127	-3.07
349.339	5.12
349.551	33.79
349.763	107.52
349.975	78.85
350.187	84.99
350.399	60.42
350.61	35.84
350.822	5.12
351.034	78.85
351.246	7.17
351.458	-15.36
351.669	68.61
351.881	62.46
352.093	136.19
352.305	70.65
352.517	17.41
352.728	150.53
352.94	-1.02
353.152	123.9
353.363	-78.85
353.575	78.85
353.787	109.57
353.999	21.5
354.21	74.75
354.422	-54.27
354.633	1.02
354.845	93.18
355.057	58.37
355.268	103.42
355.48	95.23
355.692	-103.42
355.903	76.8
356.115	52.22
356.326	-113.66
356.538	173.05
356.749	109.57
356.961	113.66
357.172	9.22
357.384	-7.17
357.595	199.68
357.807	1.02
358.018	46.08
358.23	21.5
358.441	150.53
358.653	70.65
358.864	-19.46
359.075	13.31
359.287	44.03
359.498	60.42
359.709	62.46
359.921	62.46
360.132	15.36
360.344	-21.5
360.555	-13.31
360.766	23.55
360.977	25.6
361.189	9.22
361.4	21.5
361.611	62.46
361.823	115.71
362.034	3.07
362.245	-5.12
362.456	7.17
362.667	78.85
362.879	-76.8
363.09	95.23
363.301	107.52
363.512	54.27
363.723	-41.98
363.935	62.46
364.146	95.23
364.357	1.02
364.568	46.08
364.779	-68.61
364.99	91.13
365.201	-78.85
365.412	111.61
365.623	-78.85
365.834	-15.36
366.045	74.75
366.256	193.53
366.467	48.13
366.678	-5.12
366.889	60.42
367.1	-9.22
367.311	125.95
367.522	-33.79
367.733	121.85
367.944	25.6
368.155	-23.55
368.366	78.85
368.577	70.65
368.788	35.84
368.999	-44.03
369.209	-21.5
369.42	181.25
369.631	267.26
369.842	-3.07
370.053	33.79
370.264	48.13
370.474	-87.04
370.685	13.31
370.896	70.65
371.107	109.57
371.317	13.31
371.528	78.85
371.739	150.53
371.95	35.84
372.16	93.18
372.371	-70.65
372.582	37.89
372.792	-68.61
373.003	76.8
373.214	84.99
373.424	146.43
373.635	-11.26
373.846	82.94
374.056	62.46
374.267	21.5
374.477	-15.36
374.688	1.02
374.898	46.08
375.109	19.46
375.319	5.12
375.53	87.04
375.74	119.81
375.951	-35.84
376.161	21.5
376.372	125.95
376.582	-35.84
376.793	44.03
377.003	17.41
377.214	-11.26
377.424	29.7
377.635	-39.94
377.845	-35.84
378.055	136.19
378.266	-44.03
378.476	41.98
378.686	5.12
378.897	41.98
379.107	80.89
379.317	48.13
379.528	13.31
379.738	148.48
379.948	-11.26
380.158	125.95
380.369	72.7
380.579	54.27
380.789	25.6
380.999	46.08
381.21	68.61
381.42	191.49
381.63	-11.26
381.84	66.56
382.05	5.12
382.261	113.66
382.471	78.85
382.681	21.5
382.891	78.85
383.101	74.75
383.311	11.26
383.521	-70.65
383.731	37.89
383.941	48.13
384.151	27.65
384.361	9.22
384.571	-13.31
384.781	78.85
384.991	93.18
385.201	154.62
385.411	144.38
385.621	27.65
385.831	111.61
386.041	58.37
386.251	39.94
386.461	82.94
386.671	-48.13
386.881	19.46
387.091	17.41
387.301	60.42
387.511	-93.18
387.72	48.13
387.93	1.02
388.14	-84.99
388.35	50.18
388.56	99.33
388.769	60.42
388.979	-37.89
389.189	-21.5
389.399	66.56
389.609	25.6
389.818	66.56
390.028	21.5
390.238	-15.36
390.447	-31.74
390.657	138.24
390.867	39.94
391.076	-80.89
391.286	72.7
391.496	-23.55
391.705	27.65
391.915	72.7
392.125	58.37
392.334	13.31
392.544	95.23
392.753	-11.26
392.963	-72.7
393.172	58.37
393.382	-11.26
393.591	144.38
393.801	5.12
394.01	171.01
394.22	70.65
394.429	-44.03
394.639	-27.65
394.848	103.42
395.058	44.03
395.267	-21.5
395.477	130.05
395.686	76.8
395.895	101.37
396.105	152.57
396.314	91.13
396.524	-13.31
396.733	-11.26
396.942	72.7
397.152	41.98
397.361	82.94
397.57	27.65
397.78	101.37
397.989	15.36
398.198	115.71
398.407	1.02
398.617	68.61
398.826	-46.08
399.035	31.74
399.244	70.65
399.453	13.31
399.663	80.89
399.872	33.79
400.081	7.17
400.29	99.33
400.499	-41.98
400.708	87.04
400.917	62.46
401.127	-11.26
401.336	37.89
401.545	166.91
401.754	115.71
401.963	52.22
402.172	76.8
402.381	-37.89
402.59	7.17
402.799	27.65
403.008	29.7
403.217	5.12
403.426	41.98
403.635	-74.75
403.844	-13.31
404.053	19.46
404.262	56.32
404.471	138.24
404.68	60.42
404.888	-1.02
405.097	-52.22
405.306	52.22
405.515	66.56
405.724	17.41
405.933	74.75
406.142	11.26
406.35	46.08
406.559	46.08
406.768	-39.94
406.977	128
407.185	3.07
407.394	25.6
407.603	-41.98
407.812	58.37
408.02	50.18
408.229	-21.5
408.438	-17.41
408.646	13.31
408.855	13.31
409.064	87.04
409.272	31.74
409.481	87.04
409.69	27.65
409.898	-60.42
410.107	107.52
410.315	33.79
410.524	-50.18
410.733	76.8
410.941	66.56
411.15	48.13
411.358	97.28
411.567	78.85
411.775	44.03
411.984	23.55
412.192	84.99
412.401	37.89
412.609	130.05
412.818	89.09
413.026	56.32
413.234	-31.74
413.443	5.12
413.651	-9.22
413.86	80.89
414.068	78.85
414.276	224.25
414.485	-48.13
414.693	148.48
414.901	132.09
415.11	54.27
415.318	95.23
415.526	46.08
415.734	160.77
415.943	29.7
416.151	156.67
416.359	54.27
416.567	21.5
416.776	78.85
416.984	21.5
417.192	177.15
417.4	-19.46
417.608	39.94
417.817	-46.08
418.025	62.46
418.233	111.61
418.441	68.61
418.649	-29.7
418.857	74.75
419.065	87.04
419.273	5.12
419.481	23.55
419.689	11.26
419.897	-11.26
420.105	-54.27
420.313	115.71
420.521	146.43
420.729	103.42
420.937	-31.74
421.145	39.94
421.353	109.57
421.561	35.84
421.769	-23.55
421.977	-37.89
422.185	68.61
422.393	37.89
422.601	132.09
422.809	29.7
423.017	101.37
423.224	37.89
423.432	-19.46
423.64	39.94
423.848	54.27
424.056	21.5
424.263	97.28
424.471	48.13
424.679	62.46
424.887	107.52
425.094	99.33
425.302	97.28
425.51	52.22
425.718	74.75
425.925	-13.31
426.133	19.46
426.341	136.19
426.548	-1.02
426.756	52.22
426.964	115.71
427.171	13.31
427.379	21.5
427.586	91.13
427.794	80.89
428.001	119.81
428.209	56.32
428.417	109.57
428.624	56.32
428.832	150.53
429.039	23.55
429.247	142.33
429.454	78.85
429.662	238.59
429.869	62.46
430.076	33.79
430.284	214.01
430.491	168.96
430.699	142.33
430.906	117.76
431.114	52.22
431.321	173.05
431.528	101.37
431.736	99.33
431.943	136.19
432.15	93.18
432.358	128
432.565	238.59
432.772	-37.89
432.979	164.86
433.187	158.72
433.394	191.49
433.601	52.22
433.808	240.64
434.016	207.87
434.223	132.09
434.43	205.82
434.637	218.11
434.844	277.5
435.052	156.67
435.259	209.92
435.466	218.11
435.673	209.92
435.88	214.01
436.087	252.92
436.294	259.07
436.501	240.64
436.708	148.48
436.915	257.02
437.122	369.66
437.329	228.35
437.537	226.3
437.743	171.01
437.95	316.41
438.157	257.02
438.364	322.56
438.571	273.4
438.778	330.75
438.985	322.56
439.192	349.18
439.399	304.12
439.606	314.36
439.813	478.2
440.02	500.73
440.227	521.21
440.433	373.75
440.64	386.04
440.847	349.18
441.054	396.28
441.261	539.64
441.467	492.54
441.674	443.39
441.881	541.69
442.088	459.77
442.294	549.88
442.501	564.22
442.708	580.6
442.914	537.59
443.121	578.55
443.328	482.3
443.534	685.05
443.741	605.17
443.948	504.82
444.154	717.81
444.361	879.6
444.568	758.77
444.774	734.2
444.981	660.47
445.187	947.19
445.394	814.07
445.6	879.6
445.807	963.57
446.013	887.79
446.22	877.55
446.426	1031.15
446.633	1068.02
446.839	1258.48
447.046	1063.92
447.252	1250.28
447.459	1119.21
447.665	1203.18
447.871	1364.97
448.078	1330.16
448.284	1364.97
448.491	1479.66
448.697	1516.52
448.903	1524.71
449.11	1610.73
449.316	1512.42
449.522	1690.6
449.728	1780.71
449.935	1833.96
450.141	1788.9
450.347	2112.48
450.553	1872.87
450.76	1995.75
450.966	2024.42
451.172	2243.55
451.378	2278.37
451.584	2241.5
451.791	2497.5
451.997	2479.07
452.203	2534.36
452.409	2743.25
452.615	2853.84
452.821	2827.22
453.027	2724.82
453.233	3118.03
453.44	3124.18
453.646	3191.76
453.852	3326.93
454.058	3265.49
454.264	3470.28
454.47	3761.09
454.676	3875.78
454.882	3990.47
455.088	3951.56
455.294	4191.17
455.5	4449.21
455.705	4711.35
455.911	4719.54
456.117	4811.7
456.323	5059.51
456.529	5057.46
456.735	5434.29
456.941	5692.33
457.147	5784.49
457.352	5968.8
457.558	5962.66
457.764	6372.25
457.97	6724.51
458.176	6894.49
458.381	7261.07
458.587	7531.41
458.793	7680.91
458.999	7601.04
459.204	8622.97
459.41	8858.49
459.616	8772.47
459.821	9384.82
460.027	9905
460.233	10165.09
460.438	10333.03
460.644	11031.38
460.85	10965.85
461.055	11326.29
461.261	11983.69
461.466	11887.43
461.672	11869
461.878	13404.98
462.083	13108.02
462.289	13443.89
462.494	13876.01
462.7	14199.59
462.905	14119.72
463.111	15452.95
463.316	16227.08
463.522	16478.98
463.727	17015.55
463.932	17769.2
464.138	18504.42
464.343	18965.21
464.549	18954.97
464.754	20591.3
464.959	20916.93
465.165	21418.68
465.37	20970.18
465.575	21332.67
465.781	22565.54
465.986	23333.53
466.191	23106.21
466.397	23278.24
466.602	22811.3
466.807	24058.51
467.012	24392.33
467.218	24623.75
467.423	25012.87
467.628	25916.02
467.833	27009.64
468.038	26245.74
468.244	26141.3
468.449	27400.8
468.654	27060.84
468.859	26767.98
469.064	26909.29
469.269	25934.45
469.474	26581.61
469.679	26813.03
469.885	26374.77
470.09	26964.58
470.295	27187.81
470.5	26303.09
470.705	26464.88
470.91	25377.4
471.115	25344.64
471.32	25903.73
471.525	25662.07
471.73	24662.66
471.935	25381.5
472.139	23550.62
472.344	24035.99
472.549	24064.66
472.754	23341.72
472.959	22803.11
473.164	22047.41
473.369	21746.36
473.574	22471.34
473.778	21920.43
473.983	21611.19
474.188	21277.37
474.393	20021.97
474.598	20177.61
474.802	19380.95
475.007	19432.15
475.212	19249.88
475.417	18559.72
475.621	18432.74
475.826	18227.95
476.031	17644.27
476.235	17380.09
476.44	17273.59
476.645	17251.06
476.849	16667.39
477.054	16270.09
477.259	16171.79
477.463	16171.79
477.668	15635.22
477.872	15608.59
478.077	15231.77
478.282	14676.77
478.486	14480.16
478.691	14379.81
478.895	14062.38
479.1	14146.34
479.304	14185.26
479.509	13577.01
479.713	13892.4
479.918	13501.23
480.122	13167.42
480.326	13284.15
480.531	13447.99
480.735	13232.95
480.94	12829.5
481.144	13372.21
481.348	12612.42
481.553	12770.11
481.757	12231.49
481.961	12440.39
482.166	12440.39
482.37	12200.77
482.574	12063.56
482.778	12008.26
482.983	12415.81
483.187	11852.62
483.391	11760.46
483.595	11858.76
483.8	11721.55
484.004	11694.93
484.208	11395.92
484.412	11514.7
484.616	11400.02
484.821	11033.43
485.025	10982.23
485.229	11015
485.433	10541.92
485.637	10576.73
485.841	10429.28
486.045	10318.69
486.249	10130.28
486.453	10013.54
486.657	9878.38
486.861	9808.75
487.065	9571.18
487.269	9517.93
487.473	9223.03
487.677	9505.65
487.881	9204.6
488.085	8852.34
488.289	8807.29
488.493	8557.44
488.697	8680.32
488.901	8377.22
489.105	8008.58
489.309	7981.96
489.512	8010.63
489.716	8027.01
489.92	7785.35
490.124	7582.6
490.328	7568.27
490.531	7246.74
490.735	7254.93
490.939	6966.17
491.143	6853.53
491.346	6601.63
491.55	6628.25
491.754	6572.96
491.958	6642.59
492.161	6439.84
492.365	6212.51
492.569	6052.77
492.772	6071.2
492.976	5964.71
493.18	6046.63
493.383	5854.12
493.587	5835.69
493.79	5919.65
493.994	5620.65
494.197	5739.43
494.401	5567.4
494.605	5540.78
494.808	5551.02
495.012	5622.7
495.215	5514.16
495.419	5198.77
495.622	5174.19
495.825	5231.54
496.029	5139.38
496.232	5313.45
496.436	5084.08
496.639	5258.16
496.843	5313.45
497.046	5176.24
497.249	5184.43
497.453	5237.68
497.656	5190.58
497.859	5282.74
498.063	5221.3
498.266	5282.74
498.469	5084.08
498.673	5092.27
498.876	5137.33
499.079	5157.81
499.282	5166
499.485	5604.27
499.689	5325.74
499.892	5424.05
500.095	5260.21
500.298	5491.63
500.501	5301.17
500.705	5462.96
500.908	5389.23
501.111	5559.21
501.314	5721
501.517	5745.58
501.72	5690.28
501.923	5915.56
502.126	5886.89
502.329	6103.97
502.532	5897.13
502.735	6097.83
502.938	6357.92
503.141	6083.49
503.344	6167.46
503.547	6523.8
503.75	6419.36
503.953	6321.06
504.156	6566.81
504.359	6642.59
504.562	6632.35
504.765	6998.93
504.968	7166.87
505.17	7089.04
505.373	7011.22
505.576	7213.97
505.779	7517.07
505.982	7349.14
506.185	7715.72
506.387	7885.7
506.59	7830.41
506.793	8088.45
506.996	8172.42
507.198	8328.06
507.401	8434.56
507.604	8518.53
507.807	8909.69
508.009	9055.09
508.212	9077.62
508.415	9153.4
508.617	9536.37
508.82	9614.19
509.022	9794.41
509.225	10054.5
509.428	10287.97
509.63	10568.54
509.833	10640.22
510.035	11119.45
510.238	11256.66
510.44	11164.5
510.643	11492.18
510.845	12059.46
511.048	12053.32
511.25	12227.4
511.453	12485.44
511.655	13079.35
511.858	13069.11
512.06	13712.17
512.262	13771.57
512.465	13945.64
512.667	14469.92
512.87	14615.33
513.072	14932.76
513.274	15477.52
513.477	15600.4
513.679	16382.73
513.881	16327.43
514.084	17095.42
514.286	16904.96
514.488	17441.53
514.69	18109.16
514.893	18455.27
515.095	18461.41
515.297	19106.52
515.499	19448.54
515.701	19993.29
515.904	20447.94
516.106	20853.44
516.308	21140.16
516.51	21572.28
516.712	21578.42
516.914	22733.48
517.116	22592.17
517.318	23311
517.52	23734.93
517.722	24189.58
517.925	24588.94
518.127	25043.59
518.329	25522.81
518.531	25488
518.733	26239.6
518.935	26591.85
519.136	26890.85
519.338	27615.83
519.54	27742.81
519.742	28766.79
519.944	28826.18
520.146	29360.7
520.348	29663.8
520.55	30022.2
520.752	30399.02
520.954	30982.7
521.155	30704.17
521.357	31267.36
521.559	32061.97
521.761	32199.19
521.963	32471.57
522.164	33122.82
522.366	33051.14
522.568	33477.12
522.77	33604.1
522.971	34437.62
523.173	34136.57
523.375	34597.36
523.576	34290.16
523.778	34929.13
523.98	35285.48
524.181	35355.11
524.383	35406.31
524.584	35443.17
524.786	35486.18
524.988	35514.85
525.189	35805.66
525.391	35930.59
525.592	36278.74
525.794	35926.49
525.995	36000.22
526.197	35826.14
526.398	36293.08
526.6	35838.43
526.801	35748.32
527.003	35650.02
527.204	35404.26
527.406	35897.82
527.607	35277.29
527.808	35619.3
528.01	34849.26
528.211	34970.09
528.412	34904.56
528.614	34843.12
528.815	34030.07
529.016	34421.23
529.218	33538.56
529.419	33636.86
529.62	33192.45
529.822	33063.43
530.023	32836.11
530.224	32238.1
530.425	32293.4
530.626	31652.38
530.828	31283.75
531.029	31517.22
531.23	30929.45
531.431	30325.3
531.632	30403.12
531.833	29927.99
532.035	29573.69
532.236	29096.52
532.437	29241.92
532.638	28697.16
532.839	28404.3
533.04	28187.22
533.241	27189.86
533.442	27320.93
533.643	26927.72
533.844	26509.93
534.045	26247.79
534.246	25754.23
534.447	25518.71
534.648	24842.88
534.849	25121.41
535.05	24273.55
535.251	24179.34
535.451	23800.47
535.652	23579.29
535.853	23163.55
536.054	22805.16
536.255	22579.88
536.456	22248.11
536.657	22190.77
536.857	21779.12
537.058	21242.56
537.259	21074.62
537.46	20660.93
537.66	20314.83
537.861	20472.52
538.062	19954.38
538.263	19901.14
538.463	19522.26
538.664	19305.18
538.865	18701.03
539.065	18969.31
539.266	18186.99
539.466	18451.17
539.667	18037.48
539.868	18103.02
540.068	17593.08
540.269	17445.62
540.469	17306.36
540.67	17277.69
540.87	16687.87
541.071	16691.97
541.271	16648.96
541.472	16319.24
541.672	16198.41
541.873	15889.17
542.073	15577.87
542.274	15764.24
542.474	15467.28
542.675	15002.4
542.875	15205.14
543.075	14809.89
543.276	14549.79
543.476	14672.67
543.676	14168.87
543.877	14328.61
544.077	14064.43
544.277	13787.95
544.478	13792.05
544.678	13585.2
544.878	13511.47
545.078	13263.67
545.279	12903.23
545.479	13013.82
545.679	12874.56
545.879	12649.28
546.079	12542.78
546.28	12440.39
546.48	12120.9
546.68	12256.07
546.88	11887.43
547.08	11850.57
547.28	11727.69
547.48	11348.82
547.68	11426.64
547.88	11336.53
548.081	11348.82
548.281	11166.55
548.481	10777.44
548.681	10746.72
548.881	10537.82
549.081	10359.65
549.28	10474.34
549.48	10175.33
549.68	9945.96
549.88	9888.62
550.08	9571.18
550.28	9769.83
550.48	9558.89
550.68	9444.21
550.88	9220.98
551.08	9018.23
551.279	9137.01
551.479	8825.72
551.679	8848.25
551.879	8643.45
552.079	8477.57
552.278	8348.54
552.478	8293.25
552.678	8219.52
552.878	7979.91
553.077	7871.37
553.277	7748.49
553.477	7680.91
553.676	7742.35
553.876	7406.48
554.076	7252.88
554.275	7160.72
554.475	6964.12
554.674	6972.31
554.874	6794.14
555.074	6732.7
555.273	6607.77
555.473	6554.52
555.672	6392.73
555.872	6300.58
556.071	6243.23
556.271	6351.78
556.47	5989.28
556.67	5766.06
556.869	5770.15
557.068	5612.46
557.268	5690.28
557.467	5561.26
557.667	5403.57
557.866	5452.72
558.065	5303.22
558.265	5194.67
558.464	5145.52
558.663	5071.79
558.863	4895.67
559.062	4912.05
559.261	4815.8
559.461	4834.23
559.66	4543.42
559.859	4393.92
560.058	4420.54
560.258	4355.01
560.457	4359.1
560.656	4357.05
560.855	4060.1
561.054	4064.19
561.253	3978.18
561.453	3998.66
561.652	3906.5
561.851	3959.75
562.05	3900.36
562.249	3757
562.448	3787.72
562.647	3656.65
562.846	3576.78
563.045	3613.64
563.244	3355.6
563.443	3531.72
563.642	3191.76
563.841	3374.03
564.04	3384.27
564.239	3333.07
564.438	3218.38
564.637	3052.5
564.836	3115.98
565.035	3097.55
565.234	2851.8
565.432	2765.78
565.631	2999.25
565.83	2935.76
566.029	2755.54
566.228	2730.97
566.427	2814.93
566.625	2614.23
566.824	2724.82
567.023	2771.93
567.222	2474.97
567.42	2536.41
567.619	2470.87
567.818	2479.07
568.016	2595.8
568.215	2612.18
568.414	2479.07
568.612	2247.65
568.811	2425.82
569.01	2333.66
569.208	2255.84
569.407	2184.16
569.605	2153.44
569.804	2116.58
570.002	2124.77
570.201	2036.7
570.4	2069.47
570.598	2036.7
570.797	1999.84
570.995	1852.39
571.193	1856.48
571.392	1815.52
571.59	1815.52
571.789	1862.63
571.987	1876.96
572.186	1784.8
572.384	1715.17
572.582	1758.18
572.781	1749.99
572.979	1563.62
573.177	1629.16
573.376	1516.52
573.574	1674.21
573.772	1512.42
573.971	1477.61
574.169	1502.19
574.367	1477.61
574.565	1502.19
574.763	1481.71
574.962	1471.47
575.16	1321.96
575.358	1340.4
575.556	1336.3
575.754	1385.45
575.952	1360.88
576.151	1250.28
576.349	1387.5
576.547	1166.32
576.745	1262.57
576.943	1338.35
577.141	1147.89
577.339	1182.7
577.537	1188.85
577.735	1213.42
577.933	1106.93
578.131	1098.74
578.329	1186.8
578.527	1070.06
578.725	938.99
578.923	928.75
579.121	1078.26
579.319	848.88
579.516	928.75
579.714	1201.13
579.912	1010.67
580.11	898.03
580.308	914.42
580.506	908.27
580.704	799.73
580.901	805.88
581.099	906.23
581.297	891.89
581.495	824.31
581.692	824.31
581.89	1000.43
582.088	879.6
582.285	787.44
582.483	803.83
582.681	867.31
582.878	789.49
583.076	812.02
583.274	756.72
583.471	965.62
583.669	703.48
583.866	664.57
584.064	635.89
584.262	664.57
584.459	619.51
584.657	635.89
584.854	740.34
585.052	730.1
585.249	623.61
585.447	633.85
585.644	545.78
585.841	594.93
586.039	734.2
586.236	637.94
586.434	607.22
586.631	513.02
586.828	560.12
587.026	513.02
587.223	463.86
587.42	560.12
587.618	578.55
587.815	660.47
588.012	533.5
588.21	484.34
588.407	502.78
588.604	549.88
588.801	441.34
588.999	427
589.196	517.11
589.393	467.96
589.59	504.82
589.787	476.15
589.984	492.54
590.182	521.21
590.379	457.72
590.576	472.06
590.773	523.26
590.97	343.03
591.167	416.76
591.364	467.96
591.561	379.9
591.758	498.68
591.955	472.06
592.152	455.67
592.349	408.57
592.546	308.22
592.743	357.37
592.94	447.48
593.137	357.37
593.334	525.3
593.531	541.69
593.727	472.06
593.924	474.1
594.121	439.29
594.318	472.06
594.515	422.91
594.712	541.69
594.908	521.21
595.105	355.32
595.302	427
595.499	439.29
595.696	572.41
595.892	463.86
596.089	377.85
596.286	410.62
596.482	570.36
596.679	537.59
596.876	447.48
597.072	599.03
597.269	513.02
597.466	586.74
597.662	523.26
597.859	566.26
598.055	592.89
598.252	648.18
598.448	697.33
598.645	709.62
598.841	732.15
599.038	758.77
599.234	842.74
599.431	820.21
599.627	852.98
599.824	836.6
600.02	828.4
600.217	877.55
600.413	895.99
600.609	881.65
600.806	1156.08
601.002	1057.78
601.198	955.38
601.395	1229.81
601.591	1143.79
601.787	1233.9
601.984	1184.75
602.18	1272.81
602.376	1301.48
602.572	1426.41
602.769	1504.23
602.965	1373.16
603.161	1559.53
603.357	1518.57
603.553	1657.83
603.75	1561.58
603.946	1700.84
604.142	1876.96
604.338	1883.11
604.534	1905.63
604.73	1940.45
604.926	1977.31
605.122	2200.54
605.318	2077.66
605.514	2139.1
605.71	2257.89
605.906	2311.13
606.102	2481.11
606.298	2429.91
606.494	2540.51
606.69	2630.62
606.886	2669.53
607.082	2763.73
607.278	2823.12
607.474	2821.08
607.67	3060.69
607.866	3052.5
608.062	3265.49
608.257	3322.83
608.453	3177.42
608.649	3478.47
608.845	3421.13
609.041	3507.15
609.236	3630.02
609.432	3879.88
609.628	4178.88
609.824	4029.38
610.019	4168.64
610.215	4203.46
610.411	4283.33
610.606	4527.03
610.802	4541.37
610.998	4678.58
611.193	4780.98
611.389	4922.29
611.584	5063.6
611.78	5178.29
611.976	5235.63
612.171	5557.16
612.367	5608.36
612.562	5813.16
612.758	5874.6
612.953	5833.64
613.149	6058.92
613.344	6222.75
613.539	6427.55
613.735	6716.31
613.93	7000.98
614.126	6925.21
614.321	7367.57
614.517	7246.74
614.712	7576.46
614.907	7736.2
615.103	8053.64
615.298	8151.94
615.493	8346.5
615.688	8514.43
615.884	8905.59
616.079	9184.12
616.274	9368.43
616.47	9317.23
616.665	9743.21
616.86	9984.87
617.055	10081.13
617.25	10388.32
617.445	10789.72
617.641	10711.9
617.836	11101.01
618.031	11303.76
618.226	11897.67
618.421	12219.21
618.616	12219.21
618.811	12350.28
619.006	12899.13
619.201	13062.97
619.396	13474.61
619.591	13458.23
619.786	13910.83
619.981	14222.12
620.176	14580.51
620.371	14664.48
620.566	15110.94
620.761	15459.09
620.956	16151.31
621.151	16046.86
621.346	16700.16
621.541	16587.52
621.735	17142.52
621.93	17017.6
622.125	17642.23
622.32	17896.17
622.515	18207.47
622.709	18696.93
622.904	19034.85
623.099	19227.35
623.294	19804.88
623.488	20210.38
623.683	20497.1
623.878	20423.37
624.072	20964.03
624.267	21220.03
624.462	21574.33
624.656	21861.04
624.851	22330.03
625.046	22432.43
625.24	22743.72
625.435	23263.9
625.629	23702.17
625.824	23745.17
626.018	24142.48
626.213	23962.26
626.407	24724.1
626.602	25043.59
626.796	25043.59
626.991	25678.46
627.185	25619.07
627.38	25660.02
627.574	26051.19
627.768	25916.02
627.963	26073.71
628.157	26231.41
628.352	26397.29
628.546	26346.09
628.74	26983.01
628.935	26628.71
629.129	26716.78
629.323	26184.3
629.517	26290.8
629.712	26036.85
629.906	25971.32
630.1	25776.76
630.294	25815.67
630.489	25285.25
630.683	25416.32
630.877	24367.76
631.071	24193.68
631.265	24300.17
631.459	23839.38
631.653	23087.78
631.848	22844.07
632.042	21979.82
632.236	21519.03
632.43	20916.93
632.624	20452.04
632.818	19819.22
633.012	19331.8
633.206	18549.48
633.4	18100.97
633.594	17554.16
633.788	16945.92
633.982	16454.4
634.176	15751.95
634.369	15334.17
634.563	14830.37
634.757	14039.85
634.951	13808.43
635.145	13189.94
635.339	12628.8
635.533	11871.05
635.726	11727.69
635.92	11217.75
636.114	10748.76
636.308	10390.37
636.501	9997.16
636.695	9444.21
636.889	8975.22
637.083	8743.8
637.276	8311.68
637.47	8020.87
637.664	7713.67
637.857	7429.01
638.051	7330.7
638.244	6835.1
638.438	6630.3
638.632	6478.75
638.825	6001.57
639.019	5878.69
639.212	5614.51
639.406	5503.92
639.599	5145.52
639.793	5049.27
639.986	4645.82
640.18	4541.37
640.373	4363.2
640.567	4228.03
640.76	4080.58
640.954	3990.47
641.147	3695.56
641.34	3681.22
641.534	3634.12
641.727	3439.56
641.92	3306.45
642.114	3091.41
642.307	2970.58
642.5	2917.33
642.694	2788.31
642.887	2739.16
643.08	2556.89
643.273	2530.27
643.467	2384.86
643.66	2247.65
643.853	2184.16
644.046	2139.1
644.239	1999.84
644.432	1905.63
644.626	1745.89
644.819	1885.16
645.012	1696.74
645.205	1618.92
645.398	1696.74
645.591	1475.56
645.784	1459.18
645.977	1399.79
646.17	1403.88
646.363	1442.79
646.556	1248.24
646.749	1213.42
646.942	1264.62
647.135	1289.2
647.328	1096.69
647.521	1137.65
647.714	1000.43
647.907	1041.39
648.099	988.14
648.292	949.23
648.485	869.36
648.678	840.69
648.871	752.63
649.064	832.5
649.256	687.09
649.449	691.19
649.642	668.66
649.835	703.48
650.027	625.65
650.22	744.44
650.413	531.45
650.605	558.07
650.798	500.73
650.991	529.4
651.183	515.06
651.376	615.41
651.568	525.3
651.761	517.11
651.954	578.55
652.146	412.67
652.339	476.15
652.531	504.82
652.724	371.71
652.916	349.18
653.109	332.79
653.301	414.71
653.494	467.96
653.686	400.38
653.879	461.82
654.071	390.14
654.263	349.18
654.456	236.54
654.648	336.89
654.84	373.75
655.033	232.44
655.225	343.03
655.417	171.01
655.61	324.6
655.802	314.36
655.994	404.47
656.186	193.53
656.379	306.17
656.571	224.25
656.763	228.35
656.955	203.77
657.148	105.47
657.34	259.07
657.532	218.11
657.724	173.05
657.916	240.64
658.108	332.79
658.3	246.78
658.492	230.4
658.684	140.29
658.876	308.22
659.068	107.52
659.26	37.89
659.452	189.44
659.644	238.59
659.836	287.74
660.028	162.81
660.22	46.08
660.412	113.66
660.604	211.96
660.796	144.38
660.988	195.58
661.18	168.96
661.372	263.16
661.563	209.92
661.755	119.81
661.947	136.19
662.139	72.7
662.331	150.53
662.522	173.05
662.714	44.03
662.906	154.62
663.097	111.61
663.289	91.13
663.481	27.65
663.673	48.13
663.864	70.65
664.056	113.66
664.247	33.79
664.439	168.96
664.631	205.82
664.822	142.33
665.014	142.33
665.205	125.95
665.397	185.34
665.588	134.14
665.78	111.61
665.971	97.28
666.163	115.71
666.354	119.81
666.546	27.65
666.737	64.51
666.929	31.74
667.12	64.51
667.311	46.08
667.503	123.9
667.694	76.8
667.885	150.53
668.077	125.95
668.268	21.5
668.459	111.61
668.651	76.8
668.842	140.29
669.033	62.46
669.224	33.79
669.416	211.96
669.607	99.33
669.798	3.07
669.989	166.91
670.18	11.26
670.371	91.13
670.563	60.42
670.754	84.99
670.945	162.81
671.136	175.1
671.327	52.22
671.518	87.04
671.709	234.49
671.9	134.14
672.091	97.28
672.282	80.89
672.473	168.96
672.664	-29.7
672.855	136.19
673.046	117.76
673.237	214.01
673.428	95.23
673.619	146.43
673.809	5.12
674	168.96
674.191	93.18
674.382	130.05
674.573	123.9
674.764	105.47
674.954	173.05
675.145	70.65
675.336	41.98
675.527	164.86
675.717	52.22
675.908	-3.07
676.099	128
676.289	166.91
676.48	-11.26
676.671	89.09
676.861	93.18
677.052	132.09
677.243	103.42
677.433	80.89
677.624	168.96
677.814	52.22
678.005	56.32
678.195	234.49
678.386	54.27
678.576	89.09
678.767	76.8
678.957	130.05
679.148	152.57
679.338	209.92
679.529	185.34
679.719	148.48
679.909	134.14
680.1	101.37
680.29	74.75
680.481	64.51
680.671	142.33
680.861	74.75
681.052	150.53
681.242	123.9
681.432	181.25
681.622	113.66
681.813	44.03
682.003	166.91
682.193	84.99
682.383	150.53
682.573	119.81
682.764	142.33
682.954	181.25
683.144	70.65
683.334	134.14
683.524	183.29
683.714	74.75
683.904	209.92
684.094	44.03
684.284	87.04
684.474	193.53
684.664	201.72
684.854	152.57
685.044	148.48
685.234	168.96
685.424	136.19
685.614	66.56
685.804	257.02
685.994	164.86
686.184	177.15
686.374	101.37
686.564	168.96
686.753	152.57
686.943	99.33
687.133	136.19
687.323	179.2
687.513	187.39
687.702	232.44
687.892	103.42
688.082	218.11
688.272	164.86
688.461	134.14
688.651	259.07
688.841	156.67
689.03	150.53
689.22	99.33
689.41	117.76
689.599	242.68
689.789	80.89
689.979	191.49
690.168	101.37
690.358	277.5
690.547	109.57
690.737	56.32
690.926	179.2
691.116	150.53
691.305	207.87
691.495	156.67
691.684	103.42
691.874	132.09
692.063	181.25
692.252	326.65
692.442	175.1
692.631	44.03
692.82	58.37
693.01	173.05
693.199	87.04
693.388	166.91
693.578	185.34
693.767	289.79
693.956	162.81
694.146	89.09
694.335	82.94
694.524	119.81
694.713	152.57
694.902	142.33
695.092	62.46
695.281	220.16
695.47	95.23
695.659	175.1
695.848	105.47
696.037	89.09
696.226	175.1
696.415	205.82
696.604	236.54
696.793	154.62
696.982	48.13
697.171	228.35
697.36	84.99
697.549	101.37
697.738	5.12
697.927	160.77
698.116	119.81
698.305	82.94
698.494	173.05
698.683	70.65
698.872	199.68
699.061	78.85
699.25	168.96
699.438	103.42
699.627	82.94
699.816	181.25
700.005	119.81
700.193	117.76
700.382	224.25
700.571	148.48
700.76	111.61
700.948	154.62
701.137	99.33
701.326	275.45
701.514	54.27
701.703	54.27
701.892	203.77
702.08	226.3
702.269	62.46
702.457	50.18
702.646	160.77
702.834	128
703.023	177.15
703.212	177.15
703.4	130.05
703.589	134.14
703.777	78.85
703.965	146.43
704.154	136.19
704.342	35.84
704.531	93.18
704.719	119.81
704.907	109.57
705.096	103.42
705.284	27.65
705.472	31.74
705.661	103.42
705.849	132.09
706.037	197.63
706.226	119.81
706.414	177.15
706.602	-11.26
706.79	168.96
706.979	115.71
707.167	128
707.355	101.37
707.543	187.39
707.731	121.85
707.919	64.51
708.107	115.71
708.296	144.38
708.484	109.57
708.672	154.62
708.86	142.33
709.048	89.09
709.236	21.5
709.424	199.68
709.612	99.33
709.8	70.65
709.988	101.37
710.176	164.86
710.364	257.02
710.551	103.42
710.739	70.65
710.927	111.61
711.115	82.94
711.303	220.16
711.491	228.35
711.679	173.05
711.866	148.48
712.054	58.37
712.242	156.67
712.43	111.61
712.617	146.43
712.805	269.31
712.993	89.09
713.181	9.22
713.368	175.1
713.556	103.42
713.744	41.98
713.931	302.08
714.119	152.57
714.306	107.52
714.494	125.95
714.682	134.14
714.869	68.61
715.057	144.38
715.244	107.52
715.432	158.72
715.619	95.23
715.807	103.42
715.994	140.29
716.182	128
716.369	197.63
716.556	181.25
716.744	78.85
716.931	78.85
717.119	103.42
717.306	154.62
717.493	197.63
717.681	181.25
717.868	74.75
718.055	123.9
718.242	144.38
718.43	99.33
718.617	199.68
718.804	66.56
718.991	252.92
719.179	230.4
719.366	160.77
719.553	205.82
719.74	173.05
719.927	152.57
720.114	250.88
720.301	152.57
720.488	177.15
720.676	95.23
720.863	193.53
721.05	275.45
721.237	287.74
721.424	193.53
721.611	242.68
721.798	87.04
721.985	115.71
722.172	134.14
722.358	132.09
722.545	230.4
722.732	207.87
722.919	234.49
723.106	179.2
723.293	189.44
723.48	166.91
723.667	54.27
723.853	232.44
724.04	195.58
724.227	304.12
724.414	177.15
724.6	236.54
724.787	355.32
724.974	232.44
725.161	177.15
725.347	123.9
725.534	128
725.72	191.49
725.907	205.82
726.094	261.12
726.28	158.72
726.467	199.68
726.653	140.29
726.84	334.84
727.027	191.49
727.213	132.09
727.4	234.49
727.586	144.38
727.773	177.15
727.959	164.86
728.145	181.25
728.332	218.11
728.518	115.71
728.705	246.78
728.891	209.92
729.077	218.11
729.264	222.2
729.45	181.25
729.636	302.08
729.823	189.44
730.009	304.12
730.195	259.07
730.382	203.77
730.568	150.53
730.754	154.62
730.94	187.39
731.126	259.07
731.313	173.05
731.499	84.99
731.685	230.4
731.871	238.59
732.057	218.11
732.243	205.82
732.429	173.05
732.615	343.03
732.801	175.1
732.987	248.83
733.173	154.62
733.359	214.01
733.545	185.34
733.731	177.15
733.917	214.01
734.103	185.34
734.289	205.82
734.475	175.1
734.661	347.13
734.847	142.33
735.033	218.11
735.219	267.26
735.404	279.55
735.59	132.09
735.776	228.35
735.962	207.87
736.148	267.26
736.333	279.55
736.519	158.72
736.705	252.92
736.89	197.63
737.076	138.24
737.262	168.96
737.447	173.05
737.633	201.72
737.819	295.93
738.004	209.92
738.19	183.29
738.375	306.17
738.561	230.4
738.747	283.64
738.932	150.53
739.118	349.18
739.303	259.07
739.489	218.11
739.674	123.9
739.859	138.24
740.045	275.45
740.23	289.79
740.416	148.48
740.601	371.71
740.786	160.77
740.972	205.82
741.157	263.16
741.342	156.67
741.528	168.96
741.713	250.88
741.898	138.24
742.084	140.29
742.269	175.1
742.454	283.64
742.639	300.03
742.824	187.39
743.01	308.22
743.195	316.41
743.38	226.3
743.565	300.03
743.75	224.25
743.935	267.26
744.12	201.72
744.305	156.67
744.49	216.06
744.675	189.44
744.86	160.77
745.045	216.06
745.23	175.1
745.415	166.91
745.6	261.12
745.785	187.39
745.97	205.82
746.155	254.97
746.34	220.16
746.525	224.25
746.71	283.64
746.895	228.35
747.079	21.5
747.264	173.05
747.449	283.64
747.634	297.98
747.819	226.3
748.003	207.87
748.188	115.71
748.373	218.11
748.557	250.88
748.742	195.58
748.927	242.68
749.111	109.57
749.296	144.38
749.481	295.93
749.665	240.64
749.85	99.33
750.034	189.44
750.219	168.96
750.404	175.1
750.588	187.39
750.773	121.85
750.957	197.63
751.141	119.81
751.326	183.29
751.51	78.85
751.695	150.53
751.879	160.77
752.064	257.02
752.248	128
752.432	285.69
752.617	238.59
752.801	246.78
752.985	189.44
753.17	216.06
753.354	179.2
753.538	201.72
753.722	48.13
753.907	144.38
754.091	189.44
754.275	175.1
754.459	130.05
754.643	154.62
754.828	207.87
755.012	267.26
755.196	82.94
755.38	230.4
755.564	103.42
755.748	132.09
755.932	224.25
756.116	189.44
756.3	279.55
756.484	82.94
756.668	166.91
756.852	56.32
757.036	134.14
757.22	109.57
757.404	105.47
757.588	140.29
757.772	130.05
757.956	76.8
758.14	297.98
758.323	99.33
758.507	136.19
758.691	91.13
758.875	152.57
759.059	207.87
759.242	62.46
759.426	136.19
759.61	101.37
759.794	148.48
759.977	152.57
760.161	277.5
760.345	211.96
760.528	177.15
760.712	152.57
760.895	181.25
761.079	91.13
761.263	54.27
761.446	111.61
761.63	80.89
761.813	132.09
761.997	64.51
762.18	66.56
762.364	109.57
762.547	-15.36
762.731	89.09
762.914	41.98
763.098	72.7
763.281	109.57
763.464	130.05
763.648	54.27
763.831	82.94
764.015	-31.74
764.198	125.95
764.381	60.42
764.564	128
764.748	162.81
764.931	209.92
765.114	31.74
765.297	123.9
765.481	23.55
765.664	121.85
765.847	87.04
766.03	199.68
766.213	11.26
766.397	97.28
766.58	-44.03
766.763	113.66
766.946	19.46
767.129	125.95
767.312	13.31
767.495	78.85
767.678	1.02
767.861	105.47
768.044	70.65
768.227	58.37
768.41	150.53
768.593	144.38
768.776	115.71
768.959	111.61
769.142	197.63
769.324	93.18
769.507	82.94
769.69	39.94
769.873	62.46
770.056	304.12
770.239	33.79
770.421	115.71
770.604	82.94
770.787	119.81
770.97	101.37
771.152	39.94
771.335	123.9
771.518	62.46
771.7	181.25
771.883	193.53
772.066	-13.31
772.248	72.7
772.431	191.49
772.613	54.27
772.796	76.8
772.978	105.47
773.161	250.88
773.343	125.95
773.526	48.13
773.708	25.6
773.891	52.22
774.073	142.33
774.256	29.7
774.438	140.29
774.621	29.7
774.803	82.94
774.985	-7.17
775.168	144.38
775.35	84.99
775.532	93.18
775.715	-9.22
775.897	142.33
776.079	87.04
776.261	23.55
776.444	99.33
776.626	130.05
776.808	78.85
776.99	-23.55
777.173	142.33
777.355	-7.17
777.537	181.25
777.719	62.46
777.901	56.32
778.083	44.03
778.265	5.12
778.447	76.8
778.629	70.65
778.811	39.94
778.993	125.95
779.175	130.05
779.357	140.29
779.539	-15.36
779.721	-21.5
779.903	121.85
780.085	41.98
780.267	60.42
780.449	21.5
780.631	89.09
780.812	95.23
780.994	19.46
781.176	52.22
781.358	19.46
781.54	37.89
781.721	173.05
781.903	15.36
782.085	56.32
782.267	154.62
782.448	-76.8
782.63	50.18
782.812	1.02
782.993	101.37
783.175	132.09
783.357	11.26
783.538	33.79
783.72	-3.07
783.901	76.8
784.083	58.37
784.264	80.89
784.446	-68.61
784.627	-13.31
784.809	52.22
784.99	-15.36
785.172	11.26
785.353	27.65
785.535	66.56
785.716	-9.22
785.897	15.36
786.079	-3.07
786.26	1.02
786.441	78.85
786.623	-64.51
786.804	13.31
786.985	46.08
787.167	146.43
787.348	48.13
787.529	9.22
787.71	115.71
787.891	33.79
788.073	-136.19
788.254	-66.56
788.435	134.14
788.616	21.5
788.797	-48.13
788.978	9.22
789.159	39.94
789.34	52.22
789.522	-11.26
789.703	54.27
789.884	93.18
790.065	58.37
790.246	128
790.427	-7.17
790.607	111.61
790.788	70.65
790.969	-15.36
791.15	111.61
791.331	7.17
791.512	-1.02
791.693	-80.89
791.874	27.65
792.054	107.52
792.235	76.8
792.416	-21.5
792.597	-15.36
792.778	48.13
792.958	41.98
793.139	5.12
793.32	-11.26
793.5	-31.74
793.681	162.81
793.862	111.61
794.042	-21.5
794.223	-58.37
794.404	39.94
794.584	44.03
794.765	50.18
794.945	15.36
795.126	29.7
795.306	117.76
795.487	1.02
795.667	5.12
795.848	37.89
796.028	95.23
796.209	-11.26
796.389	62.46
796.57	-7.17
796.75	-48.13
796.93	9.22
797.111	-23.55
797.291	-9.22
797.471	76.8
797.652	-70.65
797.832	-3.07
798.012	136.19
798.192	46.08
798.373	-52.22
798.553	101.37
798.733	-7.17
798.913	5.12
799.093	-3.07
799.274	17.41
799.454	91.13
799.634	60.42
799.814	87.04
799.994	29.7
800.174	29.7
800.354	-52.22
800.534	-13.31
800.714	66.56
800.894	-52.22
801.074	-56.32
801.254	-3.07
801.434	58.37
801.614	-60.42
801.794	-58.37
801.974	1620.97
802.154	-11.26
802.334	107.52
802.514	-52.22
802.693	9.22
802.873	13.31
803.053	152.57
803.233	-17.41
803.413	62.46
803.592	-84.99
803.772	13.31
803.952	1.02
804.131	-3.07
804.311	39.94
804.491	48.13
804.67	-17.41
804.85	21.5
805.03	33.79
805.209	113.66
805.389	-33.79
805.568	-11.26
805.748	29.7
805.928	5.12
806.107	-7.17
806.287	68.61
806.466	-48.13
806.646	-17.41
806.825	-9.22
807.004	-56.32
807.184	52.22
807.363	50.18
807.543	-35.84
807.722	-70.65
807.901	128
808.081	70.65
808.26	-111.61
808.439	1.02
808.619	37.89
808.798	25.6
808.977	25.6
809.156	15.36
809.336	46.08
809.515	87.04
809.694	-48.13
809.873	-64.51
810.052	37.89
810.231	107.52
810.411	-19.46
810.59	103.42
810.769	-27.65
810.948	74.75
811.127	-27.65
811.306	5.12
811.485	21.5
811.664	107.52
811.843	-15.36
812.022	70.65
812.201	-11.26
812.38	-5.12
812.559	9.22
812.737	27.65
812.916	-101.37
813.095	-76.8
813.274	93.18
813.453	1.02
813.632	-7.17
813.811	37.89
813.989	-70.65
814.168	66.56
814.347	-29.7
814.526	-37.89
814.704	-5.12
814.883	44.03
815.062	-70.65
815.24	66.56
815.419	-95.23
815.598	7.17
815.776	-136.19
815.955	-9.22
816.133	-107.52
816.312	-113.66
816.49	-15.36
816.669	-33.79
816.847	-21.5
817.026	3.07
817.204	50.18
817.383	-5.12
817.561	19.46
817.74	-50.18
817.918	78.85
818.097	27.65
818.275	-46.08
818.453	-29.7
818.632	21.5
818.81	74.75
818.988	-33.79
819.167	-62.46
819.345	-44.03
819.523	-58.37
819.701	-13.31
819.879	-7.17
820.058	37.89
820.236	-27.65
820.414	84.99
820.592	5.12
820.77	44.03
820.948	-1.02
821.127	-68.61
821.305	5.12
821.483	-46.08
821.661	41.98
821.839	-1.02
822.017	-72.7
822.195	-31.74
822.373	144.38
822.551	39.94
822.729	70.65
822.907	-29.7
823.085	33.79
823.262	33.79
823.44	-56.32
823.618	-82.94
823.796	9.22
823.974	1.02
824.152	-60.42
824.329	41.98
824.507	62.46
824.685	25.6
824.863	7.17
825.04	56.32
825.218	25.6
825.396	-5.12
825.574	23.55
825.751	19.46
825.929	66.56
826.107	-60.42
826.284	33.79
826.462	35.84
826.639	-19.46
826.817	-39.94
826.994	-11.26
827.172	-72.7
827.349	99.33
827.527	39.94
827.704	-15.36
827.882	54.27
828.059	-52.22
828.237	-15.36
828.414	1.02
828.591	-23.55
828.769	13.31
828.946	-82.94
829.124	27.65
829.301	60.42
829.478	-52.22
829.655	60.42
829.833	76.8
830.01	-78.85
830.187	-78.85
830.364	-37.89
830.542	-31.74
830.719	68.61
830.896	17.41
831.073	29.7
831.25	-1.02
831.427	113.66
831.604	-17.41
831.782	-97.28
831.959	50.18
832.136	-31.74
832.313	-23.55
832.49	-91.13
832.667	-7.17
832.844	17.41
833.021	23.55
833.198	21.5
833.374	-25.6
833.551	44.03
833.728	-113.66
833.905	95.23
834.082	-21.5
834.259	5.12
834.436	105.47
834.612	-3.07
834.789	84.99
834.966	50.18
835.143	78.85
835.319	-82.94
835.496	60.42
835.673	-95.23
835.85	56.32
836.026	33.79
836.203	50.18
836.38	-70.65
836.556	-95.23
836.733	-3.07
836.909	107.52
837.086	84.99
837.262	-33.79
837.439	-9.22
837.616	-39.94
837.792	-46.08
837.968	11.26
838.145	-97.28
838.321	44.03
838.498	64.51
838.674	13.31
838.851	-19.46
839.027	-19.46
839.203	-31.74
839.38	44.03
839.556	-52.22
839.732	46.08
839.909	27.65
840.085	101.37
840.261	-74.75
840.437	17.41
840.614	-44.03
840.79	-39.94
840.966	-52.22
841.142	56.32
841.318	-58.37
841.494	29.7
841.671	142.33
841.847	3.07
842.023	-35.84
842.199	17.41
842.375	68.61
842.551	-128
842.727	-5.12
842.903	68.61
843.079	-60.42
843.255	91.13
843.431	25.6
843.607	78.85
843.783	-154.62
843.959	9.22
844.134	-46.08
844.31	130.05
844.486	-39.94
844.662	-82.94
844.838	-1.02
845.013	46.08
845.189	103.42
845.365	-31.74
845.541	17.41
845.716	-52.22
845.892	35.84
846.068	-56.32
846.244	11.26
846.419	29.7
846.595	-54.27
846.77	-72.7
846.946	11.26
847.122	-27.65
847.297	-60.42
847.473	37.89
847.648	-70.65
847.824	-9.22
847.999	-68.61
848.175	-89.09
848.35	23.55
848.526	87.04
848.701	62.46
848.876	27.65
849.052	46.08
849.227	-23.55
849.403	44.03
849.578	46.08
849.753	64.51
849.929	52.22
850.104	-80.89
850.279	29.7
850.454	119.81
850.63	-52.22
850.805	3.07
850.98	-37.89
851.155	-48.13
851.33	17.41
851.505	-82.94
851.681	31.74
851.856	-3.07
852.031	37.89
852.206	33.79
852.381	-60.42
852.556	-13.31
852.731	-44.03
852.906	68.61
853.081	37.89
853.256	50.18
853.431	-7.17
853.606	-84.99
853.781	-64.51
853.956	-58.37
854.131	13.31
854.305	-56.32
854.48	29.7
854.655	1.02
854.83	-41.98
855.005	17.41
855.18	-33.79
855.354	-9.22
855.529	19.46
855.704	-35.84
855.879	50.18
856.053	-109.57
856.228	54.27
856.403	-68.61
856.577	103.42
856.752	-35.84
856.926	-27.65
857.101	-50.18
857.276	29.7
857.45	39.94
857.625	84.99
857.799	-33.79
857.974	-23.55
858.148	-93.18
858.323	-5.12
858.497	-3.07
858.672	-21.5
858.846	-117.76
859.02	7.17
859.195	-39.94
859.369	13.31
859.543	-7.17
859.718	-48.13
859.892	33.79
860.066	-9.22
860.241	21.5
860.415	-5.12
860.589	46.08
860.763	29.7
860.938	-105.47
861.112	25.6
861.286	-44.03
861.46	5.12
861.634	-54.27
861.808	13.31
861.982	-58.37
862.157	-89.09
862.331	-80.89
862.505	-105.47
862.679	-25.6
862.853	-11.26
863.027	-7.17
863.201	181.25
863.375	-78.85
863.549	46.08
863.722	119.81
863.896	150.53
864.07	-27.65
864.244	-52.22
864.418	-39.94
864.592	-19.46
864.766	-27.65
864.939	31.74
865.113	-60.42
865.287	21.5
865.461	-144.38
865.634	-3.07
865.808	-95.23
865.982	-31.74
866.156	-48.13
866.329	-99.33
866.503	-11.26
866.676	21.5
866.85	44.03
867.024	-52.22
867.197	33.79
867.371	33.79
867.544	-23.55
867.718	-99.33
867.891	44.03
868.065	-105.47
868.238	1.02
868.412	103.42
868.585	1.02
868.759	7.17
868.932	-29.7
869.105	-93.18
869.279	-25.6
869.452	-46.08
869.625	21.5
869.799	-41.98
869.972	-93.18
870.145	-138.24
870.319	-3.07
870.492	-11.26
870.665	15.36
870.838	-142.33
871.011	-109.57
871.185	5.12
871.358	-101.37
871.531	-5.12
871.704	23.55
871.877	-25.6
872.05	-3.07
872.223	-46.08
872.396	19.46
872.569	-46.08
872.742	-101.37
872.915	35.84
873.088	-3.07
873.261	13.31
873.434	-13.31
873.607	19.46
873.78	13.31
873.953	-95.23
874.126	11.26
874.299	31.74
874.471	-21.5
874.644	-35.84
874.817	-13.31
874.99	97.28
875.163	-72.7
875.335	60.42
875.508	-46.08
875.681	82.94
875.853	29.7
876.026	-48.13
876.199	64.51
876.371	-35.84
876.544	-58.37
876.717	44.03
876.889	-44.03
877.062	103.42
877.234	-64.51
877.407	-27.65
877.579	-37.89
877.752	21.5
877.924	95.23
878.097	-48.13
878.269	-50.18
878.442	-19.46
878.614	-9.22
878.786	3.07
878.959	29.7
879.131	15.36
879.303	-121.85
879.476	-3.07
879.648	13.31
879.82	9.22
879.993	33.79
880.165	-23.55
880.337	-48.13
880.509	-27.65
880.681	-125.95
880.854	-50.18
881.026	15.36
881.198	64.51
881.37	11.26
881.542	7.17
881.714	-31.74
881.886	-41.98
882.058	-44.03
882.23	-15.36
882.402	-93.18
882.574	105.47
882.746	25.6
882.918	68.61
883.09	37.89
883.262	-11.26
883.434	-19.46
883.606	-138.24
883.778	9.22
883.95	84.99
884.122	70.65
884.293	66.56
884.465	29.7
884.637	93.18
884.809	-39.94
884.98	-21.5
885.152	7.17
885.324	82.94
885.496	-27.65
885.667	-128
885.839	-76.8
886.011	39.94
886.182	9.22
886.354	46.08
886.525	41.98
886.697	19.46
886.869	-60.42
887.04	-52.22
887.212	68.61
887.383	52.22
887.555	-7.17
887.726	-46.08
887.897	-37.89
888.069	-7.17
888.24	27.65
888.412	-15.36
888.583	-60.42
888.754	58.37
888.926	-130.05
889.097	-27.65
889.268	-101.37
889.44	-37.89
889.611	-72.7
889.782	-121.85
889.953	-19.46
890.125	48.13
890.296	-111.61
890.467	-80.89
890.638	-13.31
890.809	-54.27
890.98	-111.61
891.151	-82.94
891.323	105.47
891.494	62.46
891.665	-7.17
891.836	-19.46
892.007	19.46
892.178	-50.18
892.349	46.08
892.52	-62.46
892.691	-35.84
892.862	-93.18
893.032	-84.99
893.203	-50.18
893.374	17.41
893.545	17.41
893.716	13.31
893.887	68.61
894.057	-15.36
894.228	-35.84
894.399	-21.5
894.57	41.98
894.74	-23.55
894.911	-13.31
895.082	-5.12
895.253	-60.42
895.423	-11.26
895.594	87.04
895.764	62.46
895.935	-97.28
896.106	21.5
896.276	-117.76
896.447	-62.46
896.617	-72.7
896.788	-64.51
896.958	-46.08
897.129	-68.61
897.299	-68.61
897.47	109.57
897.64	7.17
897.81	-78.85
897.981	39.94
898.151	-17.41
898.322	-39.94
898.492	-13.31
898.662	-31.74
898.832	13.31
899.003	-17.41
899.173	58.37
899.343	-80.89
899.513	-84.99
