Data from USB4F104151__75__11-31-06-063.txt Node

Date: Wed Feb 26 11:31:06 EST 2025
User: louis
Spectrometer: USB4F10415
Trigger mode: 4
Integration Time (sec): 1.000000E-1
Scans to average: 1
Electric dark correction enabled: true
Nonlinearity correction enabled: false
Boxcar width: 0
XAxis mode: Wavelengths
Number of Pixels in Spectrum: 3648
>>>>>Begin Spectral Data<<<<<
178.204	-369.83
178.424	-369.83
178.644	-369.83
178.864	-384.16
179.084	-427.17
179.304	27.48
179.524	-56.49
179.744	37.72
179.964	29.52
180.184	4.95
180.404	-17.58
180.624	-13.48
180.844	66.39
181.064	-23.72
181.283	0.85
181.503	-36.01
181.723	-19.63
181.943	-128.17
182.163	90.96
182.383	-31.91
182.602	17.24
182.822	201.55
183.042	52.05
183.262	-38.06
183.482	19.29
183.701	21.33
183.921	64.34
184.141	-44.2
184.361	86.87
184.58	45.91
184.8	29.52
185.02	15.19
185.239	101.2
185.459	17.24
185.679	193.36
185.898	-162.98
186.118	31.57
186.338	80.72
186.557	123.73
186.777	7
186.997	52.05
187.216	-15.53
187.436	93.01
187.655	90.96
187.875	158.55
188.095	58.2
188.314	99.16
188.534	93.01
188.753	0.85
188.973	154.45
189.192	215.89
189.412	-36.01
189.631	-25.77
189.851	103.25
190.07	117.59
190.29	-72.87
190.509	-40.11
190.729	64.34
190.948	127.83
191.168	252.75
191.387	68.44
191.607	29.52
191.826	60.24
192.045	41.81
192.265	-42.15
192.484	54.1
192.704	50
192.923	-9.39
193.142	201.55
193.362	117.59
193.581	166.74
193.8	27.48
194.02	129.88
194.239	78.68
194.458	43.86
194.678	-62.63
194.897	-1.19
195.116	68.44
195.335	93.01
195.555	43.86
195.774	-11.43
195.993	174.93
196.212	62.29
196.432	13.14
196.651	23.38
196.87	58.2
197.089	215.89
197.308	111.44
197.528	84.82
197.747	-36.01
197.966	23.38
198.185	74.58
198.404	-21.67
198.623	136.02
198.842	133.97
199.062	97.11
199.281	152.4
199.5	31.57
199.719	15.19
199.938	66.39
200.157	54.1
200.376	123.73
200.595	154.45
200.814	52.05
201.033	45.91
201.252	181.07
201.471	47.96
201.69	93.01
201.909	-19.63
202.128	150.36
202.347	144.21
202.566	25.43
202.785	-46.25
203.004	78.68
203.223	252.75
203.442	68.44
203.661	-56.49
203.879	47.96
204.098	156.5
204.317	4.95
204.536	72.53
204.755	121.68
204.974	60.24
205.193	11.09
205.411	179.03
205.63	62.29
205.849	88.92
206.068	-9.39
206.287	-17.58
206.505	148.31
206.724	105.3
206.943	11.09
207.162	-54.44
207.381	60.24
207.599	35.67
207.818	47.96
208.037	-70.83
208.255	-19.63
208.474	66.39
208.693	64.34
208.911	23.38
209.13	62.29
209.349	47.96
209.567	54.1
209.786	105.3
210.005	129.88
210.223	54.1
210.442	-128.17
210.661	54.1
210.879	111.44
211.098	107.35
211.316	27.48
211.535	117.59
211.753	31.57
211.972	27.48
212.191	-27.82
212.409	33.62
212.628	123.73
212.846	54.1
213.065	-1.19
213.283	64.34
213.502	60.24
213.72	76.63
213.938	-11.43
214.157	-13.48
214.375	56.15
214.594	-3.24
214.812	76.63
215.031	76.63
215.249	60.24
215.467	50
215.686	11.09
215.904	0.85
216.122	66.39
216.341	72.53
216.559	9.05
216.778	72.53
216.996	133.97
217.214	13.14
217.432	31.57
217.651	-40.11
217.869	56.15
218.087	-3.24
218.306	-40.11
218.524	93.01
218.742	107.35
218.96	111.44
219.179	56.15
219.397	29.52
219.615	238.42
219.833	93.01
220.051	-42.15
220.27	109.4
220.488	72.53
220.706	80.72
220.924	-29.87
221.142	9.05
221.36	127.83
221.578	4.95
221.796	-21.67
222.015	29.52
222.233	123.73
222.451	146.26
222.669	-27.82
222.887	39.76
223.105	88.92
223.323	84.82
223.541	-29.87
223.759	35.67
223.977	111.44
224.195	172.88
224.413	58.2
224.631	74.58
224.849	76.63
225.067	256.85
225.285	66.39
225.503	-19.63
225.721	-150.7
225.939	56.15
226.157	60.24
226.375	260.95
226.592	-17.58
226.81	86.87
227.028	121.68
227.246	189.27
227.464	70.48
227.682	37.72
227.9	101.2
228.117	31.57
228.335	64.34
228.553	-3.24
228.771	-23.72
228.989	107.35
229.206	119.64
229.424	-15.53
229.642	4.95
229.86	-85.16
230.077	162.64
230.295	80.72
230.513	103.25
230.731	119.64
230.948	187.22
231.166	193.36
231.384	-15.53
231.601	35.67
231.819	181.07
232.037	50
232.254	17.24
232.472	23.38
232.689	-76.97
232.907	107.35
233.125	-5.29
233.342	-54.44
233.56	-5.29
233.777	27.48
233.995	70.48
234.213	111.44
234.43	66.39
234.648	60.24
234.865	17.24
235.083	90.96
235.3	97.11
235.518	84.82
235.735	146.26
235.953	76.63
236.17	78.68
236.388	-42.15
236.605	74.58
236.822	160.59
237.04	121.68
237.257	72.53
237.475	-9.39
237.692	64.34
237.909	136.02
238.127	-1.19
238.344	148.31
238.562	37.72
238.779	21.33
238.996	-42.15
239.214	41.81
239.431	125.78
239.648	-31.91
239.865	90.96
240.083	88.92
240.3	33.62
240.517	39.76
240.735	13.14
240.952	179.03
241.169	131.92
241.386	74.58
241.603	72.53
241.821	-60.59
242.038	99.16
242.255	158.55
242.472	-33.96
242.689	131.92
242.907	119.64
243.124	103.25
243.341	43.86
243.558	33.62
243.775	-25.77
243.992	-54.44
244.209	117.59
244.426	156.5
244.643	76.63
244.86	54.1
245.078	170.83
245.295	78.68
245.512	31.57
245.729	-42.15
245.946	25.43
246.163	13.14
246.38	31.57
246.597	160.59
246.814	19.29
247.031	93.01
247.248	33.62
247.464	95.06
247.681	43.86
247.898	52.05
248.115	113.49
248.332	-52.39
248.549	131.92
248.766	84.82
248.983	86.87
249.2	62.29
249.417	72.53
249.633	17.24
249.85	60.24
250.067	82.77
250.284	50
250.501	95.06
250.717	2.9
250.934	-64.68
251.151	66.39
251.368	86.87
251.585	74.58
251.801	58.2
252.018	-9.39
252.235	90.96
252.451	-154.79
252.668	121.68
252.885	174.93
253.102	115.54
253.318	107.35
253.535	11.09
253.752	-46.25
253.968	76.63
254.185	-15.53
254.401	43.86
254.618	105.3
254.835	-19.63
255.051	168.79
255.268	56.15
255.484	15.19
255.701	60.24
255.917	41.81
256.134	-36.01
256.351	78.68
256.567	11.09
256.784	41.81
257	-85.16
257.217	131.92
257.433	150.36
257.65	41.81
257.866	217.94
258.082	-56.49
258.299	19.29
258.515	25.43
258.732	84.82
258.948	19.29
259.165	86.87
259.381	-38.06
259.597	54.1
259.814	-40.11
260.03	-9.39
260.246	-13.48
260.463	162.64
260.679	152.4
260.895	4.95
261.112	25.43
261.328	-40.11
261.544	45.91
261.761	166.74
261.977	11.09
262.193	0.85
262.409	156.5
262.626	107.35
262.842	29.52
263.058	19.29
263.274	164.69
263.49	99.16
263.707	72.53
263.923	95.06
264.139	-3.24
264.355	86.87
264.571	131.92
264.787	160.59
265.004	117.59
265.22	60.24
265.436	-95.4
265.652	37.72
265.868	35.67
266.084	-5.29
266.3	33.62
266.516	15.19
266.732	95.06
266.948	4.95
267.164	60.24
267.38	58.2
267.596	156.5
267.812	209.75
268.028	33.62
268.244	27.48
268.46	33.62
268.676	95.06
268.892	60.24
269.108	-48.3
269.324	2.9
269.54	-68.78
269.756	150.36
269.972	17.24
270.188	19.29
270.403	23.38
270.619	35.67
270.835	43.86
271.051	52.05
271.267	9.05
271.483	-33.96
271.698	142.16
271.914	95.06
272.13	88.92
272.346	-42.15
272.562	11.09
272.777	119.64
272.993	52.05
273.209	52.05
273.425	115.54
273.64	23.38
273.856	138.07
274.072	-15.53
274.287	2.9
274.503	80.72
274.719	35.67
274.934	-36.01
275.15	-40.11
275.366	-25.77
275.581	-9.39
275.797	29.52
276.012	66.39
276.228	33.62
276.444	-11.43
276.659	123.73
276.875	-81.07
277.09	-33.96
277.306	-7.34
277.521	37.72
277.737	-11.43
277.952	66.39
278.168	105.3
278.383	66.39
278.599	4.95
278.814	84.82
279.03	152.4
279.245	119.64
279.461	-13.48
279.676	74.58
279.892	-50.35
280.107	-5.29
280.322	15.19
280.538	90.96
280.753	35.67
280.969	109.4
281.184	43.86
281.399	195.41
281.615	101.2
281.83	58.2
282.045	-17.58
282.26	-74.92
282.476	-31.91
282.691	93.01
282.906	19.29
283.122	29.52
283.337	-17.58
283.552	103.25
283.767	4.95
283.983	76.63
284.198	54.1
284.413	60.24
284.628	-46.25
284.843	43.86
285.058	97.11
285.274	76.63
285.489	0.85
285.704	115.54
285.919	-38.06
286.134	37.72
286.349	47.96
286.564	9.05
286.779	113.49
286.995	4.95
287.21	-13.48
287.425	76.63
287.64	0.85
287.855	80.72
288.07	-50.35
288.285	74.58
288.5	168.79
288.715	56.15
288.93	-17.58
289.145	19.29
289.36	123.73
289.575	19.29
289.79	203.6
290.004	31.57
290.219	248.66
290.434	-46.25
290.649	-1.19
290.864	2.9
291.079	2.9
291.294	115.54
291.509	45.91
291.724	-1.19
291.938	-5.29
292.153	86.87
292.368	58.2
292.583	82.77
292.798	84.82
293.012	31.57
293.227	23.38
293.442	-50.35
293.657	117.59
293.871	97.11
294.086	78.68
294.301	275.28
294.516	113.49
294.73	111.44
294.945	-15.53
295.16	29.52
295.374	109.4
295.589	76.63
295.804	45.91
296.018	72.53
296.233	156.5
296.447	62.29
296.662	-9.39
296.877	117.59
297.091	43.86
297.306	31.57
297.52	27.48
297.735	185.17
297.949	9.05
298.164	58.2
298.378	60.24
298.593	-29.87
298.807	0.85
299.022	45.91
299.236	136.02
299.451	-13.48
299.665	50
299.88	21.33
300.094	78.68
300.309	127.83
300.523	-5.29
300.737	0.85
300.952	113.49
301.166	93.01
301.381	-58.54
301.595	41.81
301.809	117.59
302.024	43.86
302.238	15.19
302.452	60.24
302.667	74.58
302.881	99.16
303.095	52.05
303.309	58.2
303.524	4.95
303.738	15.19
303.952	-29.87
304.166	174.93
304.381	-107.69
304.595	125.78
304.809	29.52
305.023	68.44
305.237	-5.29
305.452	-13.48
305.666	76.63
305.88	29.52
306.094	66.39
306.308	144.21
306.522	97.11
306.736	113.49
306.95	70.48
307.164	13.14
307.379	74.58
307.593	166.74
307.807	197.46
308.021	45.91
308.235	174.93
308.449	-11.43
308.663	47.96
308.877	273.23
309.091	27.48
309.305	111.44
309.519	-17.58
309.733	93.01
309.947	-76.97
310.161	99.16
310.374	78.68
310.588	101.2
310.802	37.72
311.016	23.38
311.23	121.68
311.444	-48.3
311.658	101.2
311.872	101.2
312.085	78.68
312.299	152.4
312.513	144.21
312.727	90.96
312.941	4.95
313.154	50
313.368	95.06
313.582	107.35
313.796	19.29
314.009	37.72
314.223	133.97
314.437	-3.24
314.651	105.3
314.864	-1.19
315.078	74.58
315.292	-42.15
315.505	56.15
315.719	64.34
315.933	68.44
316.146	23.38
316.36	56.15
316.573	121.68
316.787	150.36
317.001	62.29
317.214	-36.01
317.428	82.77
317.641	-17.58
317.855	-31.91
318.068	0.85
318.282	-54.44
318.495	209.75
318.709	21.33
318.922	60.24
319.136	146.26
319.349	119.64
319.563	-70.83
319.776	113.49
319.99	-48.3
320.203	115.54
320.417	-25.77
320.63	136.02
320.843	191.31
321.057	21.33
321.27	29.52
321.483	60.24
321.697	183.12
321.91	76.63
322.124	-7.34
322.337	39.76
322.55	-3.24
322.763	88.92
322.977	-7.34
323.19	23.38
323.403	-62.63
323.617	74.58
323.83	86.87
324.043	-33.96
324.256	101.2
324.469	-19.63
324.683	60.24
324.896	82.77
325.109	52.05
325.322	-48.3
325.535	88.92
325.748	103.25
325.962	56.15
326.175	119.64
326.388	23.38
326.601	103.25
326.814	-36.01
327.027	56.15
327.24	158.55
327.453	-64.68
327.666	127.83
327.879	123.73
328.092	121.68
328.305	129.88
328.518	-11.43
328.731	52.05
328.944	-1.19
329.157	25.43
329.37	13.14
329.583	248.66
329.796	113.49
330.009	-33.96
330.222	43.86
330.435	84.82
330.648	80.72
330.861	72.53
331.073	2.9
331.286	133.97
331.499	21.33
331.712	-15.53
331.925	82.77
332.138	-7.34
332.35	113.49
332.563	47.96
332.776	84.82
332.989	-70.83
333.202	17.24
333.414	7
333.627	58.2
333.84	9.05
334.053	11.09
334.265	9.05
334.478	-50.35
334.691	33.62
334.903	-79.02
335.116	0.85
335.329	23.38
335.541	168.79
335.754	195.41
335.966	-3.24
336.179	19.29
336.392	-58.54
336.604	7
336.817	117.59
337.029	19.29
337.242	4.95
337.454	54.1
337.667	35.67
337.88	107.35
338.092	95.06
338.305	21.33
338.517	-7.34
338.729	105.3
338.942	172.88
339.154	-42.15
339.367	-68.78
339.579	11.09
339.792	-11.43
340.004	107.35
340.217	17.24
340.429	45.91
340.641	-52.39
340.854	-21.67
341.066	23.38
341.278	152.4
341.491	224.08
341.703	115.54
341.915	15.19
342.128	131.92
342.34	56.15
342.552	-93.35
342.764	37.72
342.977	27.48
343.189	95.06
343.401	68.44
343.613	-66.73
343.826	62.29
344.038	-122.02
344.25	41.81
344.462	66.39
344.674	121.68
344.886	70.48
345.099	23.38
345.311	162.64
345.523	13.14
345.735	-81.07
345.947	86.87
346.159	82.77
346.371	72.53
346.583	-44.2
346.795	121.68
347.007	86.87
347.219	105.3
347.431	133.97
347.643	50
347.855	58.2
348.067	162.64
348.279	-50.35
348.491	33.62
348.703	23.38
348.915	84.82
349.127	-46.25
349.339	41.81
349.551	17.24
349.763	117.59
349.975	86.87
350.187	121.68
350.399	52.05
350.61	133.97
350.822	54.1
351.034	31.57
351.246	31.57
351.458	115.54
351.669	129.88
351.881	56.15
352.093	197.46
352.305	80.72
352.517	115.54
352.728	176.98
352.94	150.36
353.152	97.11
353.363	39.76
353.575	80.72
353.787	209.75
353.999	41.81
354.21	219.99
354.422	0.85
354.633	33.62
354.845	4.95
355.057	27.48
355.268	80.72
355.48	41.81
355.692	17.24
355.903	4.95
356.115	15.19
356.326	-72.87
356.538	187.22
356.749	136.02
356.961	213.84
357.172	27.48
357.384	11.09
357.595	168.79
357.807	0.85
358.018	13.14
358.23	39.76
358.441	191.31
358.653	-17.58
358.864	103.25
359.075	66.39
359.287	93.01
359.498	99.16
359.709	123.73
359.921	17.24
360.132	121.68
360.344	4.95
360.555	31.57
360.766	93.01
360.977	2.9
361.189	50
361.4	-33.96
361.611	115.54
361.823	125.78
362.034	101.2
362.245	-17.58
362.456	-33.96
362.667	117.59
362.879	76.63
363.09	101.2
363.301	93.01
363.512	131.92
363.723	-11.43
363.935	35.67
364.146	4.95
364.357	123.73
364.568	52.05
364.779	-68.78
364.99	127.83
365.201	4.95
365.412	113.49
365.623	-7.34
365.834	72.53
366.045	15.19
366.256	113.49
366.467	64.34
366.678	23.38
366.889	70.48
367.1	45.91
367.311	127.83
367.522	23.38
367.733	68.44
367.944	27.48
368.155	-11.43
368.366	70.48
368.577	72.53
368.788	154.45
368.999	-9.39
369.209	35.67
369.42	172.88
369.631	209.75
369.842	93.01
370.053	90.96
370.264	144.21
370.474	-15.53
370.685	107.35
370.896	41.81
371.107	117.59
371.317	82.77
371.528	54.1
371.739	148.31
371.95	82.77
372.16	97.11
372.371	-29.87
372.582	-21.67
372.792	70.48
373.003	58.2
373.214	52.05
373.424	101.2
373.635	50
373.846	152.4
374.056	-25.77
374.267	78.68
374.477	142.16
374.688	-5.29
374.898	33.62
375.109	13.14
375.319	97.11
375.53	93.01
375.74	95.06
375.951	-27.82
376.161	60.24
376.372	78.68
376.582	-29.87
376.793	140.12
377.003	25.43
377.214	11.09
377.424	9.05
377.635	33.62
377.845	-36.01
378.055	146.26
378.266	-23.72
378.476	-7.34
378.686	41.81
378.897	115.54
379.107	99.16
379.317	62.29
379.528	-21.67
379.738	146.26
379.948	-17.58
380.158	129.88
380.369	50
380.579	117.59
380.789	56.15
380.999	97.11
381.21	170.83
381.42	201.55
381.63	39.76
381.84	121.68
382.05	72.53
382.261	107.35
382.471	131.92
382.681	50
382.891	125.78
383.101	47.96
383.311	-15.53
383.521	-1.19
383.731	35.67
383.941	74.58
384.151	121.68
384.361	70.48
384.571	93.01
384.781	58.2
384.991	164.69
385.201	244.56
385.411	131.92
385.621	152.4
385.831	13.14
386.041	21.33
386.251	27.48
386.461	127.83
386.671	-40.11
386.881	33.62
387.091	33.62
387.301	113.49
387.511	113.49
387.72	43.86
387.93	146.26
388.14	-79.02
388.35	47.96
388.56	119.64
388.769	142.16
388.979	17.24
389.189	-33.96
389.399	-5.29
389.609	99.16
389.818	54.1
390.028	76.63
390.238	72.53
390.447	-58.54
390.657	21.33
390.867	27.48
391.076	-70.83
391.286	37.72
391.496	47.96
391.705	62.29
391.915	76.63
392.125	187.22
392.334	66.39
392.544	172.88
392.753	54.1
392.963	50
393.172	47.96
393.382	-3.24
393.591	205.65
393.801	13.14
394.01	150.36
394.22	95.06
394.429	-13.48
394.639	-52.39
394.848	123.73
395.058	95.06
395.267	72.53
395.477	164.69
395.686	66.39
395.895	256.85
396.105	232.27
396.314	82.77
396.524	15.19
396.733	82.77
396.942	181.07
397.152	142.16
397.361	88.92
397.57	37.72
397.78	54.1
397.989	101.2
398.198	213.84
398.407	93.01
398.617	84.82
398.826	95.06
399.035	-31.91
399.244	60.24
399.453	25.43
399.663	105.3
399.872	78.68
400.081	-50.35
400.29	234.32
400.499	56.15
400.708	183.12
400.917	7
401.127	41.81
401.336	-5.29
401.545	183.12
401.754	115.54
401.963	160.59
402.172	21.33
402.381	-42.15
402.59	86.87
402.799	50
403.008	72.53
403.217	152.4
403.426	93.01
403.635	-33.96
403.844	29.52
404.053	7
404.262	84.82
404.471	201.55
404.68	109.4
404.888	66.39
405.097	17.24
405.306	13.14
405.515	66.39
405.724	31.57
405.933	62.29
406.142	43.86
406.35	86.87
406.559	19.29
406.768	43.86
406.977	136.02
407.185	97.11
407.394	45.91
407.603	-54.44
407.812	160.59
408.02	117.59
408.229	101.2
408.438	93.01
408.646	-68.78
408.855	-17.58
409.064	90.96
409.272	11.09
409.481	97.11
409.69	-27.82
409.898	-42.15
410.107	78.68
410.315	78.68
410.524	-9.39
410.733	88.92
410.941	11.09
411.15	119.64
411.358	62.29
411.567	119.64
411.775	37.72
411.984	74.58
412.192	133.97
412.401	-9.39
412.609	201.55
412.818	187.22
413.026	97.11
413.234	13.14
413.443	19.29
413.651	0.85
413.86	66.39
414.068	129.88
414.276	189.27
414.485	62.29
414.693	246.61
414.901	62.29
415.11	68.44
415.318	86.87
415.526	11.09
415.734	125.78
415.943	127.83
416.151	60.24
416.359	76.63
416.567	41.81
416.776	9.05
416.984	131.92
417.192	222.03
417.4	4.95
417.608	-25.77
417.817	2.9
418.025	150.36
418.233	217.94
418.441	-29.87
418.649	13.14
418.857	76.63
419.065	146.26
419.273	-17.58
419.481	21.33
419.689	95.06
419.897	25.43
420.105	27.48
420.313	29.52
420.521	129.88
420.729	138.07
420.937	9.05
421.145	-7.34
421.353	148.31
421.561	136.02
421.769	2.9
421.977	7
422.185	127.83
422.393	29.52
422.601	86.87
422.809	170.83
423.017	99.16
423.224	27.48
423.432	58.2
423.64	25.43
423.848	82.77
424.056	70.48
424.263	119.64
424.471	-1.19
424.679	166.74
424.887	-27.82
425.094	150.36
425.302	113.49
425.51	45.91
425.718	148.31
425.925	68.44
426.133	-3.24
426.341	197.46
426.548	45.91
426.756	0.85
426.964	105.3
427.171	52.05
427.379	82.77
427.586	37.72
427.794	95.06
428.001	105.3
428.209	70.48
428.417	160.59
428.624	144.21
428.832	68.44
429.039	95.06
429.247	107.35
429.454	144.21
429.662	193.36
429.869	121.68
430.076	35.67
430.284	150.36
430.491	172.88
430.699	211.79
430.906	162.64
431.114	193.36
431.321	174.93
431.528	205.65
431.736	109.4
431.943	166.74
432.15	136.02
432.358	209.75
432.565	211.79
432.772	7
432.979	172.88
433.187	76.63
433.394	179.03
433.601	64.34
433.808	176.98
434.016	260.95
434.223	152.4
434.43	123.73
434.637	244.56
434.844	252.75
435.052	267.09
435.259	265.04
435.466	281.43
435.673	211.79
435.88	273.23
436.087	291.66
436.294	297.81
436.501	381.78
436.708	209.75
436.915	199.51
437.122	342.86
437.329	197.46
437.537	285.52
437.743	326.48
437.95	336.72
438.157	308.05
438.364	267.09
438.571	367.44
438.778	344.91
438.985	328.53
439.192	367.44
439.399	322.38
439.606	308.05
439.813	439.12
440.02	469.84
440.227	615.24
440.433	480.08
440.64	430.93
440.847	365.39
441.054	473.93
441.261	609.1
441.467	555.85
441.674	398.16
441.881	549.71
442.088	562
442.294	570.19
442.501	668.49
442.708	658.25
442.914	619.34
443.121	676.68
443.328	752.46
443.534	774.99
443.741	758.6
443.948	584.52
444.154	791.37
444.361	1033.03
444.568	811.85
444.774	822.09
444.981	824.14
445.187	1024.84
445.394	990.02
445.6	949.06
445.807	1106.76
446.013	912.2
446.22	965.45
446.426	1094.47
446.633	1243.97
446.839	1327.94
447.046	1135.43
447.252	1463.1
447.459	1305.41
447.665	1356.61
447.871	1481.53
448.078	1686.33
448.284	1504.06
448.491	1725.24
448.697	1700.67
448.903	1813.31
449.11	1790.78
449.316	1663.8
449.522	1913.66
449.728	1946.42
449.935	2085.69
450.141	2057.01
450.347	2298.67
450.553	2161.46
450.76	2183.99
450.966	2384.69
451.172	2485.04
451.378	2470.7
451.584	2657.07
451.791	2779.95
451.997	2798.38
452.203	2689.84
452.409	3048.23
452.615	3169.06
452.821	3037.99
453.027	3214.12
453.233	3664.67
453.44	3398.43
453.646	3619.61
453.852	3783.45
454.058	3912.47
454.264	4045.59
454.47	4197.14
454.676	4322.07
454.882	4772.62
455.088	4543.25
455.294	4696.85
455.5	4993.8
455.705	5274.37
455.911	5354.24
456.117	5548.8
456.323	5556.99
456.529	5595.9
456.735	6230.77
456.941	6288.12
457.147	6548.21
457.352	6896.36
457.558	6861.55
457.764	7289.57
457.97	7482.08
458.176	7901.92
458.381	8254.17
458.587	8184.54
458.793	8819.41
458.999	8655.57
459.204	9769.66
459.41	10502.84
459.616	10001.08
459.821	10744.5
460.027	11242.15
460.233	11623.08
460.438	11801.25
460.644	12401.3
460.85	12599.96
461.055	13054.61
461.261	13750.92
461.466	13564.55
461.672	13486.73
461.878	15463.02
462.083	15051.38
462.289	15430.25
462.494	15854.18
462.7	16341.6
462.905	16386.65
463.111	17773.13
463.316	18752.06
463.522	19231.28
463.727	19427.88
463.932	19952.16
464.138	20982.29
464.343	21688.84
464.549	21948.93
464.754	23454.19
464.959	24109.54
465.165	24320.48
465.37	24496.61
465.575	24523.23
465.781	26089.93
465.986	26814.91
466.191	26264
466.397	26759.61
466.602	26327.49
466.807	27568.56
467.012	28101.03
467.218	28498.34
467.423	28445.09
467.628	29424.02
467.833	30978.43
468.038	30433.67
468.244	29661.58
468.449	31463.8
468.654	30624.13
468.859	30783.87
469.064	30624.13
469.269	29936.01
469.474	30452.1
469.679	31248.76
469.885	30503.3
470.09	30869.89
470.295	30890.37
470.5	29847.95
470.705	30333.32
470.91	29587.86
471.115	29206.94
471.32	29766.03
471.525	29821.33
471.73	28912.03
471.935	28756.38
472.139	27525.55
472.344	27716.01
472.549	27279.8
472.754	26984.89
472.959	26366.4
473.164	25244.12
473.369	25201.11
473.574	25803.21
473.778	25037.27
473.983	24916.44
474.188	24388.07
474.393	23417.33
474.598	22843.9
474.802	22581.76
475.007	22491.65
475.212	22114.82
475.417	21191.19
475.621	20972.05
475.826	20787.74
476.031	20269.6
476.235	19661.35
476.44	19790.38
476.645	19448.36
476.849	19331.63
477.054	18895.41
477.259	18448.96
477.463	18453.05
477.668	17986.11
477.872	17918.53
478.077	17486.41
478.282	16929.36
478.486	16755.29
478.691	16599.64
478.895	16337.5
479.1	16538.2
479.304	16179.81
479.509	15665.77
479.713	15923.81
479.918	15428.2
480.122	15198.83
480.326	15475.31
480.531	15254.12
480.735	15080.05
480.94	14711.41
481.144	15282.8
481.348	14404.22
481.553	14563.96
481.757	14211.71
481.961	14312.06
482.166	14514.81
482.37	14299.77
482.574	13791.87
482.778	13834.88
482.983	14041.73
483.187	13570.69
483.391	13744.77
483.595	13886.08
483.8	13208.2
484.004	13380.23
484.208	13413
484.412	13267.59
484.616	12978.83
484.821	12968.59
485.025	12462.74
485.229	12477.08
485.433	12323.48
485.637	12073.63
485.841	11780.77
486.045	11899.55
486.249	11985.57
486.453	11371.18
486.657	11283.11
486.861	11236.01
487.065	10814.13
487.269	11051.69
487.473	10529.46
487.677	10625.72
487.881	10611.38
488.085	10347.19
488.289	10058.43
488.493	9818.82
488.697	9847.49
488.901	9757.38
489.105	9523.91
489.309	9274.06
489.512	9212.62
489.716	8954.57
489.92	8829.65
490.124	8565.46
490.328	8641.23
490.531	8184.54
490.735	8196.82
490.939	8143.58
491.143	7764.7
491.346	7705.31
491.55	7631.58
491.754	7471.84
491.958	7291.62
492.161	7217.9
492.365	7035.63
492.569	6896.36
492.772	6812.4
492.976	6712.05
493.18	6601.46
493.383	6587.12
493.587	6574.83
493.79	6474.48
493.994	6195.96
494.197	6382.32
494.401	6167.29
494.605	6091.51
494.808	6060.79
495.012	6038.27
495.215	5976.83
495.419	6066.94
495.622	5870.33
495.825	5735.17
496.029	5804.8
496.232	5767.93
496.436	5702.4
496.639	5747.45
496.843	5546.75
497.046	5624.58
497.249	5757.69
497.453	5630.72
497.656	5542.66
497.859	5495.55
498.063	5604.1
498.266	5548.8
498.469	5403.39
498.673	5602.05
498.876	5640.96
499.079	5520.13
499.282	5593.86
499.485	5858.04
499.689	5559.04
499.892	5870.33
500.095	5683.97
500.298	5733.12
500.501	5677.82
500.705	5927.67
500.908	5964.54
501.111	5735.17
501.314	5997.31
501.517	6036.22
501.72	6128.38
501.923	6003.45
502.126	6013.69
502.329	6322.93
502.532	6329.08
502.735	6341.36
502.938	6445.81
503.141	6441.72
503.344	6304.5
503.547	6664.94
503.75	6519.54
503.953	6781.68
504.156	6681.33
504.359	6839.02
504.562	6914.8
504.765	7078.63
504.968	7066.35
505.17	7273.19
505.373	7303.91
505.576	7557.86
505.779	7582.43
505.982	7502.56
506.185	7699.17
506.387	7879.39
506.59	8014.56
506.793	8155.86
506.996	8434.39
507.198	8743.63
507.401	8524.5
507.604	8962.76
507.807	8776.4
508.009	9169.61
508.212	9255.62
508.415	9376.45
508.617	9564.87
508.82	9743.04
509.022	9884.35
509.225	10226.36
509.428	10478.26
509.63	10416.82
509.833	10736.31
510.035	11111.08
510.238	11133.61
510.44	11297.45
510.643	11713.19
510.845	11905.7
511.048	12173.98
511.25	12233.37
511.453	12673.68
511.655	13337.23
511.858	13410.95
512.06	13849.22
512.262	13847.17
512.465	14119.55
512.667	14531.19
512.87	14858.87
513.072	15198.83
513.274	15620.71
513.477	15956.58
513.679	16278.11
513.881	16570.97
514.084	16802.39
514.286	17191.5
514.488	18014.79
514.69	18096.71
514.893	18559.55
515.095	19120.69
515.297	19163.7
515.499	19575.34
515.701	20046.37
515.904	20951.57
516.106	21129.75
516.308	21451.28
516.51	21918.21
516.712	22462.97
516.914	22850.04
517.116	23429.62
517.318	23359.98
517.52	24197.6
517.722	24570.33
517.925	25172.44
518.127	25819.6
518.329	26042.82
518.531	26251.72
518.733	27226.55
518.935	27322.8
519.136	27681.2
519.338	28170.66
519.54	28729.76
519.742	29335.96
519.944	30105.99
520.146	30595.46
520.348	30724.48
520.55	30990.72
520.752	31396.21
520.954	32233.83
521.155	32149.87
521.357	33343.83
521.559	33196.38
521.761	34122.06
521.963	33638.74
522.164	34832.71
522.366	34898.24
522.568	35307.83
522.77	35363.13
522.971	36219.18
523.173	35674.42
523.375	36598.05
523.576	36268.33
523.778	36634.92
523.98	37433.63
524.181	37267.74
524.383	37587.22
524.584	37808.4
524.786	37931.28
524.988	37605.66
525.189	38156.56
525.391	38029.59
525.592	38279.44
525.794	38541.58
525.995	38131.98
526.197	38611.21
526.398	38414.6
526.6	38729.99
526.801	38351.12
527.003	38631.69
527.204	38357.26
527.406	38500.62
527.607	38025.49
527.808	38414.6
528.01	36876.58
528.211	37300.51
528.412	37898.52
528.614	37619.99
528.815	36989.22
529.016	37081.38
529.218	36260.14
529.419	36290.86
529.62	35522.87
529.822	35909.94
530.023	35864.88
530.224	35201.34
530.425	35039.55
530.626	34144.59
530.828	33999.18
531.029	34433.35
531.23	33599.83
531.431	33429.85
531.632	33001.82
531.833	32594.28
532.035	32266.6
532.236	31828.34
532.437	31809.9
532.638	31132.03
532.839	30751.1
533.04	30880.13
533.241	29641.11
533.442	30022.03
533.643	29204.89
533.844	29086.11
534.045	28803.49
534.246	28129.7
534.447	28015.02
534.648	27609.52
534.849	27345.33
535.05	26837.44
535.251	26309.06
535.451	26485.19
535.652	25866.7
535.853	25223.64
536.054	25506.26
536.255	24846.81
536.456	24242.66
536.657	24474.08
536.857	24064.49
537.058	23529.97
537.259	23288.31
537.46	22919.67
537.66	22610.43
537.861	22635
538.062	22073.86
538.263	21699.08
538.463	21463.57
538.664	21385.74
538.865	20675.1
539.065	20783.64
539.266	20433.44
539.466	20212.26
539.667	19995.17
539.868	20154.91
540.068	19890.73
540.269	19366.45
540.469	19008.05
540.67	18778.68
540.87	18661.94
541.071	18528.83
541.271	18487.87
541.472	18377.28
541.672	18076.23
541.873	17756.74
542.073	17263.18
542.274	17386.06
542.474	17113.68
542.675	16925.27
542.875	16910.93
543.075	16738.9
543.276	16378.46
543.476	16409.18
543.676	16134.75
543.877	15905.38
544.077	15950.43
544.277	15499.88
544.478	15356.52
544.678	15311.47
544.878	15088.24
545.078	14858.87
545.279	14621.3
545.479	14475.9
545.679	14396.03
545.879	14381.69
546.079	14074.49
546.28	13757.06
546.48	13802.11
546.68	13580.93
546.88	13662.85
547.08	13208.2
547.28	13236.88
547.48	12964.5
547.68	12665.49
547.88	12692.12
548.081	12438.17
548.281	12305.05
548.481	12071.58
548.681	12022.43
548.881	12014.24
549.081	11770.53
549.28	11580.07
549.48	11530.92
549.68	11201.19
549.88	11311.78
550.08	11008.69
550.28	10871.47
550.48	10873.52
550.68	10695.35
550.88	10445.49
551.08	10257.08
551.279	10232.51
551.479	9829.06
551.679	10111.68
551.879	9644.74
552.079	9583.3
552.278	9558.72
552.478	9460.42
552.678	9306.82
552.878	8983.24
553.077	9108.17
553.277	8602.32
553.477	8778.45
553.676	8694.48
553.876	8192.73
554.076	7975.64
554.275	8061.66
554.475	7752.42
554.674	8078.04
554.874	7596.77
555.074	7576.29
555.273	7611.11
555.473	7473.89
555.672	7242.47
555.872	7105.26
556.071	6925.04
556.271	6968.04
556.47	6824.69
556.67	6769.39
556.869	6531.83
557.068	6466.29
557.268	6333.17
557.467	6245.11
557.667	6355.7
557.866	6157.05
558.065	5907.2
558.265	5851.9
558.464	5741.31
558.663	5909.24
558.863	5587.71
559.062	5591.81
559.261	5268.23
559.461	5409.54
559.66	5231.37
559.859	5251.85
560.058	5024.52
560.258	4983.56
560.457	4768.52
560.656	4948.75
560.855	4627.21
561.054	4852.49
561.253	4616.97
561.453	4549.39
561.652	4479.76
561.851	4387.6
562.05	4363.03
562.249	4203.29
562.448	4291.35
562.647	4154.13
562.846	4092.69
563.045	4186.9
563.244	3969.82
563.443	3955.48
563.642	3828.51
563.841	3859.23
564.04	3748.64
564.239	3693.34
564.438	3631.9
564.637	3384.1
564.836	3482.4
565.035	3515.17
565.234	3361.57
565.432	3404.58
565.631	3515.17
565.83	3255.08
566.029	3212.07
566.228	3126.05
566.427	3216.16
566.625	2863.91
566.824	3035.94
567.023	2947.88
567.222	2863.91
567.42	2921.26
567.619	2863.91
567.818	2949.93
568.016	2865.96
568.215	2741.04
568.414	2720.56
568.612	2593.58
568.811	2528.05
569.01	2630.45
569.208	2577.2
569.407	2558.77
569.605	2513.71
569.804	2345.78
570.002	2374.45
570.201	2368.31
570.4	2374.45
570.598	2249.52
570.797	2327.35
570.995	2077.49
571.193	2112.31
571.392	2122.55
571.59	1940.28
571.789	2149.17
571.987	2052.92
572.186	2145.08
572.384	1936.18
572.582	1997.62
572.781	2079.54
572.979	1919.8
573.177	1788.73
573.376	1901.37
573.574	1909.56
573.772	1782.59
573.971	1807.16
574.169	1602.36
574.367	1678.14
574.565	1618.75
574.763	1641.28
574.962	1555.26
575.16	1624.89
575.358	1532.73
575.556	1446.72
575.754	1534.78
575.952	1508.16
576.151	1528.64
576.349	1395.52
576.547	1289.03
576.745	1448.77
576.943	1372.99
577.141	1334.08
577.339	1248.07
577.537	1284.93
577.735	1282.88
577.933	1209.15
578.131	1203.01
578.329	1311.55
578.527	1155.91
578.725	1307.46
578.923	1119.04
579.121	1256.26
579.319	981.83
579.516	1073.99
579.714	1264.45
579.912	1108.8
580.11	951.11
580.308	963.4
580.506	975.69
580.704	951.11
580.901	949.06
581.099	998.21
581.297	1030.98
581.495	1053.51
581.692	867.14
581.89	1096.52
582.088	895.82
582.285	967.49
582.483	912.2
582.681	848.71
582.878	828.23
583.076	926.54
583.274	924.49
583.471	930.63
583.669	695.11
583.866	768.84
584.064	795.47
584.262	731.98
584.459	686.92
584.657	844.62
584.854	748.36
585.052	742.22
585.249	791.37
585.447	701.26
585.644	545.61
585.841	748.36
586.039	705.35
586.236	797.51
586.434	678.73
586.631	633.68
586.828	578.38
587.026	715.59
587.223	559.95
587.42	535.37
587.618	590.67
587.815	654.16
588.012	582.48
588.21	600.91
588.407	662.35
588.604	656.2
588.801	535.37
588.999	596.81
589.196	609.1
589.393	459.6
589.59	545.61
589.787	625.48
589.984	613.2
590.182	564.04
590.379	490.32
590.576	643.92
590.773	531.28
590.97	543.57
591.167	516.94
591.364	598.86
591.561	537.42
591.758	592.72
591.955	535.37
592.152	537.42
592.349	461.65
592.546	512.85
592.743	508.75
592.94	557.9
593.137	525.13
593.334	584.52
593.531	568.14
593.727	609.1
593.924	566.09
594.121	506.7
594.318	537.42
594.515	514.89
594.712	774.99
594.908	627.53
595.105	537.42
595.302	602.96
595.499	666.44
595.696	725.83
595.892	537.42
596.089	801.61
596.286	523.09
596.482	703.31
596.679	697.16
596.876	676.68
597.072	688.97
597.269	725.83
597.466	764.75
597.662	758.6
597.859	725.83
598.055	852.81
598.252	856.9
598.448	926.54
598.645	893.77
598.841	928.58
599.038	1028.93
599.234	1100.61
599.431	1125.19
599.627	1094.47
599.824	1129.28
600.02	1139.52
600.217	1055.56
600.413	1160
600.609	1344.32
600.806	1497.92
601.002	1352.51
601.198	1334.08
601.395	1538.88
601.591	1502.01
601.787	1600.32
601.984	1555.26
602.18	1702.72
602.376	1698.62
602.572	1815.35
602.769	2024.25
602.965	2046.77
603.161	2110.26
603.357	2200.37
603.553	2183.99
603.75	2143.03
603.946	2282.29
604.142	2403.12
604.338	2474.8
604.534	2468.66
604.73	2558.77
604.926	2712.36
605.122	2931.5
605.318	2915.11
605.514	3062.57
605.71	2945.83
605.906	3289.89
606.102	3222.31
606.298	3371.81
606.494	3463.97
606.69	3607.33
606.886	3646.24
607.082	3681.05
607.278	3785.5
607.474	3949.34
607.67	4047.64
607.866	4018.97
608.062	4432.66
608.257	4440.85
608.453	4399.89
608.649	4696.85
608.845	4741.9
609.041	4887.31
609.236	5171.97
609.432	4989.71
609.628	5425.92
609.824	5415.68
610.019	5716.73
610.215	5665.53
610.411	5892.86
610.606	5980.92
610.802	6124.28
610.998	6259.45
611.193	6529.78
611.389	6447.86
611.584	6607.6
611.78	6914.8
611.976	7031.53
612.171	7475.94
612.367	7467.75
612.562	7791.33
612.758	7957.21
612.953	7869.15
613.149	8385.24
613.344	8659.67
613.539	8921.81
613.735	8946.38
613.93	9233.1
614.126	9364.17
614.321	9941.69
614.517	9982.65
614.712	10285.75
614.907	10508.98
615.103	10740.4
615.298	10930.86
615.493	11295.4
615.688	11412.14
615.884	12169.88
616.079	12024.48
616.274	12339.87
616.47	12536.47
616.665	13097.61
616.86	13542.02
617.055	13691.52
617.25	14062.21
617.445	14305.92
617.641	14439.03
617.836	15106.67
618.031	15037.04
618.226	16024.16
618.421	16173.66
618.616	16654.94
618.811	16802.39
619.006	17312.33
619.201	17599.05
619.396	18223.68
619.591	18268.73
619.786	19094.07
619.981	19071.54
620.176	19614.25
620.371	20113.95
620.566	20687.39
620.761	20867.61
620.956	21529.1
621.151	21598.73
621.346	22403.58
621.541	22452.73
621.735	23267.83
621.93	22966.77
622.125	23951.85
622.32	24177.12
622.515	24742.36
622.709	25448.91
622.904	25829.84
623.099	25885.13
623.294	26681.79
623.488	26841.53
623.683	27443.63
623.878	27857.32
624.072	28291.49
624.267	28879.26
624.462	28815.77
624.656	29333.91
624.851	30054.79
625.046	30611.84
625.24	30800.26
625.435	31056.25
625.629	31592.82
625.824	31807.86
626.018	32643.43
626.213	32414.05
626.407	33278.3
626.602	33417.56
626.796	34011.47
626.991	34470.22
627.185	34496.84
627.38	34548.04
627.574	34697.54
627.768	34967.87
627.963	35205.44
628.157	35201.34
628.352	35633.46
628.546	35111.23
628.74	35772.72
628.935	35086.65
629.129	36020.53
629.323	34990.4
629.517	34765.12
629.712	34769.22
629.906	34591.05
630.1	33995.09
630.294	33872.21
630.489	33515.86
630.683	33098.08
630.877	32317.8
631.071	31891.82
631.265	31553.91
631.459	30894.46
631.653	29954.44
631.848	29602.19
632.042	28692.9
632.236	28580.26
632.43	27390.39
632.624	26950.07
632.818	25545.17
633.012	25106.9
633.206	24334.82
633.4	23587.31
633.594	22604.28
633.788	22096.39
633.982	21629.45
634.176	20705.82
634.369	19425.84
634.563	18833.97
634.757	17807.94
634.951	17736.26
635.145	17257.04
635.339	16314.97
635.533	15569.51
635.726	15149.68
635.92	14314.11
636.114	13820.55
636.308	13345.42
636.501	12841.62
636.695	12464.79
636.889	11647.65
637.083	11256.49
637.276	10748.59
637.47	10283.7
637.664	9808.58
637.857	9740.99
638.051	9140.94
638.244	8667.86
638.438	8284.89
638.632	8235.74
638.825	7686.88
639.019	7428.84
639.212	7019.24
639.406	6920.94
639.599	6564.59
639.793	6404.85
639.986	6099.7
640.18	5862.14
640.373	5671.68
640.567	5194.5
640.76	5241.61
640.954	4932.36
641.147	4678.41
641.34	4545.3
641.534	4512.53
641.727	4348.69
641.92	4201.24
642.114	3971.86
642.307	3722.01
642.5	3685.15
642.694	3494.69
642.887	3298.08
643.08	3339.04
643.273	3197.73
643.467	3158.82
643.66	2970.41
643.853	2708.27
644.046	2716.46
644.239	2536.24
644.432	2448.18
644.626	2360.11
644.819	2192.18
645.012	2198.32
645.205	2222.9
645.398	2052.92
645.591	1946.42
645.784	1782.59
645.977	1663.8
646.17	1725.24
646.363	1768.25
646.556	1598.27
646.749	1585.98
646.942	1555.26
647.135	1506.11
647.328	1366.85
647.521	1442.62
647.714	1268.55
647.907	1227.59
648.099	1139.52
648.292	1346.37
648.485	1084.23
648.678	1018.69
648.871	1033.03
649.064	998.21
649.256	844.62
649.449	930.63
649.642	797.51
649.835	822.09
650.027	725.83
650.22	879.43
650.413	656.2
650.605	768.84
650.798	607.05
650.991	648.01
651.183	660.3
651.376	734.03
651.568	701.26
651.761	480.08
651.954	660.3
652.146	566.09
652.339	703.31
652.531	697.16
652.724	410.45
652.916	389.97
653.109	410.45
653.301	545.61
653.494	602.96
653.686	529.23
653.879	508.75
654.071	535.37
654.263	375.63
654.456	365.39
654.648	516.94
654.84	510.8
655.033	371.54
655.225	549.71
655.417	285.52
655.61	432.97
655.802	349.01
655.994	394.06
656.186	217.94
656.379	394.06
656.571	303.95
656.763	179.03
656.955	271.19
657.148	246.61
657.34	367.44
657.532	324.43
657.724	236.37
657.916	267.09
658.108	308.05
658.3	256.85
658.492	299.86
658.684	349.01
658.876	306
659.068	201.55
659.26	146.26
659.452	179.03
659.644	170.83
659.836	322.38
660.028	303.95
660.22	240.47
660.412	260.95
660.604	193.36
660.796	138.07
660.988	246.61
661.18	205.65
661.372	224.08
661.563	244.56
661.755	211.79
661.947	90.96
662.139	99.16
662.331	219.99
662.522	248.66
662.714	170.83
662.906	164.69
663.097	138.07
663.289	111.44
663.481	0.85
663.673	244.56
663.864	189.27
664.056	158.55
664.247	168.79
664.439	199.51
664.631	213.84
664.822	199.51
665.014	103.25
665.205	158.55
665.397	125.78
665.588	162.64
665.78	123.73
665.971	209.75
666.163	37.72
666.354	181.07
666.546	72.53
666.737	125.78
666.929	99.16
667.12	142.16
667.311	168.79
667.503	148.31
667.694	101.2
667.885	138.07
668.077	201.55
668.268	54.1
668.459	43.86
668.651	74.58
668.842	131.92
669.033	176.98
669.224	95.06
669.416	248.66
669.607	176.98
669.798	113.49
669.989	207.7
670.18	88.92
670.371	99.16
670.563	33.62
670.754	152.4
670.945	195.41
671.136	201.55
671.327	109.4
671.518	209.75
671.709	232.27
671.9	238.42
672.091	201.55
672.282	123.73
672.473	136.02
672.664	99.16
672.855	80.72
673.046	84.82
673.237	209.75
673.428	138.07
673.619	185.17
673.809	156.5
674	213.84
674.191	176.98
674.382	127.83
674.573	176.98
674.764	107.35
674.954	244.56
675.145	109.4
675.336	117.59
675.527	150.36
675.717	113.49
675.908	78.68
676.099	111.44
676.289	107.35
676.48	0.85
676.671	138.07
676.861	129.88
677.052	176.98
677.243	191.31
677.433	111.44
677.624	209.75
677.814	209.75
678.005	136.02
678.195	265.04
678.386	140.12
678.576	115.54
678.767	125.78
678.957	203.6
679.148	172.88
679.338	326.48
679.529	142.16
679.719	209.75
679.909	125.78
680.1	224.08
680.29	252.75
680.481	109.4
680.671	219.99
680.861	291.66
681.052	181.07
681.242	111.44
681.432	222.03
681.622	240.47
681.813	164.69
682.003	185.17
682.193	103.25
682.383	150.36
682.573	265.04
682.764	144.21
682.954	115.54
683.144	258.9
683.334	97.11
683.524	238.42
683.714	201.55
683.904	217.94
684.094	123.73
684.284	240.47
684.474	324.43
684.664	244.56
684.854	213.84
685.044	107.35
685.234	207.7
685.424	162.64
685.614	99.16
685.804	277.33
685.994	285.52
686.184	156.5
686.374	154.45
686.564	252.75
686.753	228.18
686.943	174.93
687.133	191.31
687.323	105.3
687.513	246.61
687.702	211.79
687.892	166.74
688.082	262.99
688.272	240.47
688.461	279.38
688.651	361.3
688.841	293.71
689.03	228.18
689.22	193.36
689.41	269.14
689.599	312.14
689.789	78.68
689.979	338.77
690.168	179.03
690.358	230.23
690.547	258.9
690.737	262.99
690.926	195.41
691.116	226.13
691.305	258.9
691.495	285.52
691.684	131.92
691.874	160.59
692.063	306
692.252	291.66
692.442	228.18
692.631	121.68
692.82	205.65
693.01	230.23
693.199	187.22
693.388	189.27
693.578	160.59
693.767	318.29
693.956	258.9
694.146	158.55
694.335	244.56
694.524	285.52
694.713	334.67
694.902	240.47
695.092	152.4
695.281	205.65
695.47	242.51
695.659	179.03
695.848	215.89
696.037	248.66
696.226	240.47
696.415	275.28
696.604	371.54
696.793	256.85
696.982	121.68
697.171	361.3
697.36	222.03
697.549	174.93
697.738	86.87
697.927	201.55
698.116	115.54
698.305	248.66
698.494	152.4
698.683	189.27
698.872	379.73
699.061	228.18
699.25	185.17
699.438	160.59
699.627	205.65
699.816	336.72
700.005	185.17
700.193	168.79
700.382	248.66
700.571	279.38
700.76	156.5
700.948	291.66
701.137	228.18
701.326	318.29
701.514	115.54
701.703	293.71
701.892	306
702.08	387.92
702.269	265.04
702.457	183.12
702.646	267.09
702.834	179.03
703.023	230.23
703.212	262.99
703.4	217.94
703.589	140.12
703.777	176.98
703.965	72.53
704.154	105.3
704.342	152.4
704.531	185.17
704.719	170.83
704.907	371.54
705.096	226.13
705.284	148.31
705.472	144.21
705.661	275.28
705.849	308.05
706.037	402.26
706.226	203.6
706.414	219.99
706.602	133.97
706.79	250.71
706.979	105.3
707.167	205.65
707.355	117.59
707.543	244.56
707.731	271.19
707.919	262.99
708.107	252.75
708.296	107.35
708.484	181.07
708.672	187.22
708.86	285.52
709.048	203.6
709.236	193.36
709.424	146.26
709.612	287.57
709.8	168.79
709.988	185.17
710.176	318.29
710.364	273.23
710.551	174.93
710.739	230.23
710.927	199.51
711.115	242.51
711.303	244.56
711.491	287.57
711.679	144.21
711.866	262.99
712.054	176.98
712.242	310.1
712.43	340.82
712.617	224.08
712.805	277.33
712.993	189.27
713.181	72.53
713.368	320.34
713.556	160.59
713.744	164.69
713.931	342.86
714.119	267.09
714.306	207.7
714.494	136.02
714.682	127.83
714.869	162.64
715.057	168.79
715.244	172.88
715.432	174.93
715.619	142.16
715.807	154.45
715.994	273.23
716.182	271.19
716.369	365.39
716.556	228.18
716.744	170.83
716.931	64.34
717.119	281.43
717.306	242.51
717.493	240.47
717.681	252.75
717.868	187.22
718.055	359.25
718.242	205.65
718.43	224.08
718.617	381.78
718.804	222.03
718.991	318.29
719.179	306
719.366	242.51
719.553	303.95
719.74	158.55
719.927	244.56
720.114	238.42
720.301	242.51
720.488	142.16
720.676	160.59
720.863	297.81
721.05	377.68
721.237	267.09
721.424	322.38
721.611	267.09
721.798	172.88
721.985	154.45
722.172	271.19
722.358	207.7
722.545	281.43
722.732	281.43
722.919	361.3
723.106	260.95
723.293	248.66
723.48	361.3
723.667	226.13
723.853	330.58
724.04	248.66
724.227	295.76
724.414	90.96
724.6	203.6
724.787	387.92
724.974	373.58
725.161	371.54
725.347	166.74
725.534	242.51
725.72	306
725.907	408.4
726.094	371.54
726.28	250.71
726.467	138.07
726.653	238.42
726.84	363.34
727.027	389.97
727.213	279.38
727.4	346.96
727.586	297.81
727.773	285.52
727.959	344.91
728.145	299.86
728.332	269.14
728.518	277.33
728.705	338.77
728.891	328.53
729.077	269.14
729.264	211.79
729.45	248.66
729.636	330.58
729.823	400.21
730.009	455.5
730.195	363.34
730.382	285.52
730.568	265.04
730.754	279.38
730.94	258.9
731.126	330.58
731.313	281.43
731.499	369.49
731.685	258.9
731.871	330.58
732.057	316.24
732.243	394.06
732.429	265.04
732.615	414.54
732.801	297.81
732.987	275.28
733.173	256.85
733.359	242.51
733.545	373.58
733.731	250.71
733.917	430.93
734.103	242.51
734.289	373.58
734.475	279.38
734.661	467.79
734.847	324.43
735.033	224.08
735.219	342.86
735.404	285.52
735.59	330.58
735.776	297.81
735.962	273.23
736.148	385.87
736.333	424.78
736.519	281.43
736.705	349.01
736.89	254.8
737.076	285.52
737.262	267.09
737.447	303.95
737.633	318.29
737.819	361.3
738.004	355.15
738.19	334.67
738.375	293.71
738.561	344.91
738.747	297.81
738.932	316.24
739.118	418.64
739.303	330.58
739.489	330.58
739.674	361.3
739.859	201.55
740.045	320.34
740.23	357.2
740.416	252.75
740.601	349.01
740.786	246.61
740.972	222.03
741.157	285.52
741.342	228.18
741.528	215.89
741.713	422.73
741.898	312.14
742.084	330.58
742.269	340.82
742.454	346.96
742.639	389.97
742.824	353.1
743.01	375.63
743.195	387.92
743.38	283.47
743.565	287.57
743.75	299.86
743.935	406.35
744.12	389.97
744.305	244.56
744.49	267.09
744.675	285.52
744.86	230.23
745.045	301.9
745.23	336.72
745.415	281.43
745.6	385.87
745.785	252.75
745.97	410.45
746.155	260.95
746.34	310.1
746.525	283.47
746.71	318.29
746.895	234.32
747.079	256.85
747.264	226.13
747.449	306
747.634	346.96
747.819	351.06
748.003	250.71
748.188	291.66
748.373	310.1
748.557	287.57
748.742	267.09
748.927	275.28
749.111	295.76
749.296	217.94
749.481	338.77
749.665	230.23
749.85	199.51
750.034	316.24
750.219	328.53
750.404	232.27
750.588	275.28
750.773	115.54
750.957	250.71
751.141	232.27
751.326	205.65
751.51	179.03
751.695	203.6
751.879	219.99
752.064	344.91
752.248	217.94
752.432	349.01
752.617	306
752.801	271.19
752.985	281.43
753.17	228.18
753.354	250.71
753.538	277.33
753.722	193.36
753.907	199.51
754.091	136.02
754.275	265.04
754.459	117.59
754.643	179.03
754.828	195.41
755.012	273.23
755.196	84.82
755.38	230.23
755.564	125.78
755.748	158.55
755.932	267.09
756.116	258.9
756.3	199.51
756.484	66.39
756.668	244.56
756.852	138.07
757.036	162.64
757.22	133.97
757.404	117.59
757.588	207.7
757.772	234.32
757.956	111.44
758.14	277.33
758.323	74.58
758.507	176.98
758.691	228.18
758.875	303.95
759.059	281.43
759.242	170.83
759.426	193.36
759.61	166.74
759.794	148.31
759.977	207.7
760.161	383.82
760.345	222.03
760.528	262.99
760.712	138.07
760.895	170.83
761.079	127.83
761.263	70.48
761.446	144.21
761.63	140.12
761.813	258.9
761.997	93.01
762.18	142.16
762.364	283.47
762.547	60.24
762.731	189.27
762.914	166.74
763.098	90.96
763.281	179.03
763.464	131.92
763.648	199.51
763.831	80.72
764.015	60.24
764.198	138.07
764.381	181.07
764.564	127.83
764.748	158.55
764.931	144.21
765.114	103.25
765.297	199.51
765.481	105.3
765.664	84.82
765.847	148.31
766.03	195.41
766.213	136.02
766.397	95.06
766.58	45.91
766.763	238.42
766.946	99.16
767.129	113.49
767.312	84.82
767.495	86.87
767.678	156.5
767.861	144.21
768.044	136.02
768.227	127.83
768.41	74.58
768.593	125.78
768.776	115.54
768.959	140.12
769.142	187.22
769.324	123.73
769.507	136.02
769.69	62.29
769.873	125.78
770.056	281.43
770.239	56.15
770.421	183.12
770.604	27.48
770.787	162.64
770.97	115.54
771.152	2.9
771.335	168.79
771.518	133.97
771.7	181.07
771.883	230.23
772.066	64.34
772.248	181.07
772.431	203.6
772.613	152.4
772.796	107.35
772.978	119.64
773.161	252.75
773.343	129.88
773.526	90.96
773.708	-13.48
773.891	9.05
774.073	25.43
774.256	84.82
774.438	205.65
774.621	23.38
774.803	111.44
774.985	99.16
775.168	133.97
775.35	78.68
775.532	154.45
775.715	56.15
775.897	150.36
776.079	21.33
776.261	197.46
776.444	127.83
776.626	148.31
776.808	47.96
776.99	-7.34
777.173	37.72
777.355	84.82
777.537	138.07
777.719	72.53
777.901	52.05
778.083	50
778.265	-54.44
778.447	123.73
778.629	70.48
778.811	43.86
778.993	125.78
779.175	115.54
779.357	25.43
779.539	23.38
779.721	121.68
779.903	148.31
780.085	127.83
780.267	119.64
780.449	90.96
780.631	113.49
780.812	146.26
780.994	115.54
781.176	64.34
781.358	68.44
781.54	93.01
781.721	74.58
781.903	93.01
782.085	7
782.267	152.4
782.448	23.38
782.63	-50.35
782.812	93.01
782.993	93.01
783.175	103.25
783.357	101.2
783.538	166.74
783.72	-7.34
783.901	156.5
784.083	45.91
784.264	52.05
784.446	-72.87
784.627	-48.3
784.809	187.22
784.99	19.29
785.172	148.31
785.353	97.11
785.535	152.4
785.716	-31.91
785.897	-17.58
786.079	103.25
786.26	95.06
786.441	136.02
786.623	-64.68
786.804	93.01
786.985	99.16
787.167	101.2
787.348	4.95
787.529	50
787.71	256.85
787.891	88.92
788.073	4.95
788.254	-38.06
788.435	174.93
788.616	78.68
788.797	-36.01
788.978	19.29
789.159	-7.34
789.34	109.4
789.522	50
789.703	-60.59
789.884	121.68
790.065	90.96
790.246	138.07
790.427	76.63
790.607	174.93
790.788	95.06
790.969	23.38
791.15	27.48
791.331	23.38
791.512	-27.82
791.693	-66.73
791.874	0.85
792.054	158.55
792.235	107.35
792.416	41.81
792.597	-17.58
792.778	74.58
792.958	37.72
793.139	78.68
793.32	29.52
793.5	-36.01
793.681	113.49
793.862	80.72
794.042	109.4
794.223	-25.77
794.404	-48.3
794.584	-19.63
794.765	68.44
794.945	11.09
795.126	60.24
795.306	95.06
795.487	27.48
795.667	-23.72
795.848	41.81
796.028	25.43
796.209	62.29
796.389	39.76
796.57	41.81
796.75	-31.91
796.93	-33.96
797.111	-40.11
797.291	76.63
797.471	37.72
797.652	29.52
797.832	29.52
798.012	41.81
798.192	-21.67
798.373	-62.63
798.553	-23.72
798.733	56.15
798.913	50
799.093	78.68
799.274	23.38
799.454	97.11
799.634	93.01
799.814	86.87
799.994	76.63
800.174	43.86
800.354	-15.53
800.534	-101.55
800.714	45.91
800.894	-64.68
801.074	-79.02
801.254	-38.06
801.434	127.83
801.614	0.85
801.794	37.72
801.974	1606.46
802.154	43.86
802.334	127.83
802.514	-13.48
802.693	-27.82
802.873	-46.25
803.053	64.34
803.233	78.68
803.413	-13.48
803.592	-62.63
803.772	9.05
803.952	25.43
804.131	-76.97
804.311	78.68
804.491	58.2
804.67	-56.49
804.85	-64.68
805.03	66.39
805.209	76.63
805.389	29.52
805.568	39.76
805.748	-13.48
805.928	33.62
806.107	84.82
806.287	117.59
806.466	76.63
806.646	72.53
806.825	-13.48
807.004	-60.59
807.184	29.52
807.363	146.26
807.543	19.29
807.722	-72.87
807.901	172.88
808.081	35.67
808.26	-85.16
808.439	-17.58
808.619	-85.16
808.798	-27.82
808.977	21.33
809.156	125.78
809.336	-7.34
809.515	31.57
809.694	-136.36
809.873	-23.72
810.052	111.44
810.231	113.49
810.411	25.43
810.59	140.12
810.769	47.96
810.948	152.4
811.127	-66.73
811.306	27.48
811.485	4.95
811.664	142.16
811.843	13.14
812.022	-5.29
812.201	-23.72
812.38	-3.24
812.559	47.96
812.737	82.77
812.916	-33.96
813.095	-33.96
813.274	93.01
813.453	35.67
813.632	19.29
813.811	43.86
813.989	-119.98
814.168	-7.34
814.347	-29.87
814.526	25.43
814.704	115.54
814.883	117.59
815.062	-27.82
815.24	35.67
815.419	-68.78
815.598	45.91
815.776	-85.16
815.955	21.33
816.133	-117.93
816.312	66.39
816.49	-27.82
816.669	27.48
816.847	19.29
817.026	64.34
817.204	-23.72
817.383	17.24
817.561	-27.82
817.74	33.62
817.918	64.34
818.097	-46.25
818.275	-11.43
818.453	35.67
818.632	-15.53
818.81	17.24
818.988	-31.91
819.167	-33.96
819.345	-60.59
819.523	-23.72
819.701	19.29
819.879	68.44
820.058	19.29
820.236	-68.78
820.414	-15.53
820.592	-44.2
820.77	33.62
820.948	-72.87
821.127	-40.11
821.305	27.48
821.483	-70.83
821.661	39.76
821.839	52.05
822.017	-48.3
822.195	25.43
822.373	70.48
822.551	41.81
822.729	11.09
822.907	-17.58
823.085	68.44
823.262	-9.39
823.44	-74.92
823.618	-38.06
823.796	-9.39
823.974	7
824.152	-44.2
824.329	-81.07
824.507	7
824.685	58.2
824.863	35.67
825.04	84.82
825.218	88.92
825.396	66.39
825.574	-9.39
825.751	54.1
825.929	84.82
826.107	-62.63
826.284	52.05
826.462	27.48
826.639	-40.11
826.817	-68.78
826.994	-17.58
827.172	-101.55
827.349	148.31
827.527	-25.77
827.704	-11.43
827.882	60.24
828.059	-72.87
828.237	33.62
828.414	35.67
828.591	-87.21
828.769	33.62
828.946	21.33
829.124	-1.19
829.301	43.86
829.478	33.62
829.655	19.29
829.833	54.1
830.01	-97.45
830.187	0.85
830.364	0.85
830.542	103.25
830.719	127.83
830.896	62.29
831.073	-11.43
831.25	29.52
831.427	109.4
831.604	4.95
831.782	-50.35
831.959	17.24
832.136	-66.73
832.313	70.48
832.49	-21.67
832.667	-15.53
832.844	-50.35
833.021	105.3
833.198	-29.87
833.374	-15.53
833.551	74.58
833.728	68.44
833.905	31.57
834.082	-33.96
834.259	62.29
834.436	103.25
834.612	-99.5
834.789	97.11
834.966	50
835.143	33.62
835.319	13.14
835.496	60.24
835.673	31.57
835.85	95.06
836.026	27.48
836.203	97.11
836.38	-42.15
836.556	27.48
836.733	-15.53
836.909	168.79
837.086	35.67
837.262	-113.83
837.439	-19.63
837.616	-76.97
837.792	-11.43
837.968	21.33
838.145	-52.39
838.321	11.09
838.498	23.38
838.674	52.05
838.851	-21.67
839.027	29.52
839.203	-60.59
839.38	90.96
839.556	11.09
839.732	52.05
839.909	-1.19
840.085	101.2
840.261	-15.53
840.437	58.2
840.614	15.19
840.79	7
840.966	62.29
841.142	35.67
841.318	58.2
841.494	21.33
841.671	109.4
841.847	-19.63
842.023	-56.49
842.199	45.91
842.375	185.17
842.551	-64.68
842.727	-40.11
842.903	119.64
843.079	-173.22
843.255	64.34
843.431	-68.78
843.607	-17.58
843.783	-103.59
843.959	29.52
844.134	-46.25
844.31	93.01
844.486	-58.54
844.662	-25.77
844.838	45.91
845.013	84.82
845.189	7
845.365	29.52
845.541	37.72
845.716	41.81
845.892	62.29
846.068	-27.82
846.244	-29.87
846.419	-52.39
846.595	-56.49
846.77	-5.29
846.946	113.49
847.122	-21.67
847.297	7
847.473	144.21
847.648	-140.46
847.824	-3.24
847.999	-162.98
848.175	15.19
848.35	33.62
848.526	66.39
848.701	19.29
848.876	103.25
849.052	90.96
849.227	25.43
849.403	33.62
849.578	37.72
849.753	-5.29
849.929	68.44
850.104	-44.2
850.279	-89.26
850.454	105.3
850.63	23.38
850.805	-3.24
850.98	64.34
851.155	41.81
851.33	-44.2
851.505	-87.21
851.681	150.36
851.856	-38.06
852.031	17.24
852.206	13.14
852.381	-64.68
852.556	4.95
852.731	-44.2
852.906	2.9
853.081	-7.34
853.256	70.48
853.431	-11.43
853.606	-64.68
853.781	29.52
853.956	-130.22
854.131	35.67
854.305	-31.91
854.48	-54.44
854.655	-17.58
854.83	-29.87
855.005	-42.15
855.18	52.05
855.354	13.14
855.529	23.38
855.704	13.14
855.879	33.62
856.053	-70.83
856.228	41.81
856.403	-42.15
856.577	52.05
856.752	-117.93
856.926	-40.11
857.101	15.19
857.276	-46.25
857.45	84.82
857.625	50
857.799	-7.34
857.974	-44.2
858.148	-76.97
858.323	60.24
858.497	-19.63
858.672	-62.63
858.846	-9.39
859.02	68.44
859.195	-48.3
859.369	-11.43
859.543	-17.58
859.718	-11.43
859.892	-3.24
860.066	21.33
860.241	-27.82
860.415	15.19
860.589	-48.3
860.763	27.48
860.938	21.33
861.112	84.82
861.286	-76.97
861.46	-15.53
861.634	-48.3
861.808	52.05
861.982	13.14
862.157	-62.63
862.331	2.9
862.505	-68.78
862.679	-56.49
862.853	13.14
863.027	-29.87
863.201	82.77
863.375	-38.06
863.549	70.48
863.722	0.85
863.896	142.16
864.07	-40.11
864.244	17.24
864.418	41.81
864.592	4.95
864.766	82.77
864.939	-3.24
865.113	-74.92
865.287	99.16
865.461	-150.7
865.634	-9.39
865.808	-68.78
865.982	-111.78
866.156	-27.82
866.329	-144.55
866.503	17.24
866.676	84.82
866.85	25.43
867.024	-99.5
867.197	70.48
867.371	56.15
867.544	-15.53
867.718	-128.17
867.891	70.48
868.065	-74.92
868.238	-1.19
868.412	107.35
868.585	45.91
868.759	-19.63
868.932	-40.11
869.105	-9.39
869.279	-7.34
869.452	-38.06
869.625	15.19
869.799	-62.63
869.972	-136.36
870.145	-58.54
870.319	105.3
870.492	-107.69
870.665	-46.25
870.838	-62.63
871.011	-83.11
871.185	-46.25
871.358	25.43
871.531	47.96
871.704	-31.91
871.877	13.14
872.05	-1.19
872.223	-87.21
872.396	35.67
872.569	45.91
872.742	-99.5
872.915	4.95
873.088	-13.48
873.261	-58.54
873.434	119.64
873.607	-54.44
873.78	88.92
873.953	-87.21
874.126	-11.43
874.299	-3.24
874.471	-13.48
874.644	-62.63
874.817	50
874.99	95.06
875.163	-33.96
875.335	9.05
875.508	15.19
875.681	58.2
875.853	-11.43
876.026	-33.96
876.199	50
876.371	21.33
876.544	13.14
876.717	4.95
876.889	-33.96
877.062	39.76
877.234	-62.63
877.407	58.2
877.579	33.62
877.752	31.57
877.924	125.78
878.097	52.05
878.269	-36.01
878.442	60.24
878.614	15.19
878.786	11.09
878.959	-27.82
879.131	-52.39
879.303	-68.78
879.476	-13.48
879.648	113.49
879.82	-52.39
879.993	-29.87
880.165	-21.67
880.337	-89.26
880.509	-36.01
880.681	-101.55
880.854	-68.78
881.026	15.19
881.198	144.21
881.37	-66.73
881.542	-15.53
881.714	-5.29
881.886	-13.48
882.058	29.52
882.23	-38.06
882.402	39.76
882.574	45.91
882.746	54.1
882.918	84.82
883.09	72.53
883.262	-29.87
883.434	-64.68
883.606	-11.43
883.778	-38.06
883.95	133.97
884.122	-58.54
884.293	29.52
884.465	-29.87
884.637	99.16
884.809	-29.87
884.98	-7.34
885.152	52.05
885.324	27.48
885.496	-64.68
885.667	-36.01
885.839	15.19
886.011	58.2
886.182	17.24
886.354	29.52
886.525	70.48
886.697	29.52
886.869	-27.82
887.04	-29.87
887.212	117.59
887.383	129.88
887.555	-9.39
887.726	-91.31
887.897	0.85
888.069	13.14
888.24	-19.63
888.412	13.14
888.583	-72.87
888.754	-58.54
888.926	-70.83
889.097	33.62
889.268	-27.82
889.44	60.24
889.611	-21.67
889.782	-101.55
889.953	-19.63
890.125	84.82
890.296	-72.87
890.467	-72.87
890.638	-64.68
890.809	4.95
890.98	-7.34
891.151	0.85
891.323	162.64
891.494	-52.39
891.665	52.05
891.836	-58.54
892.007	43.86
892.178	43.86
892.349	-40.11
892.52	-13.48
892.691	86.87
892.862	-17.58
893.032	-107.69
893.203	39.76
893.374	-19.63
893.545	50
893.716	-27.82
893.887	60.24
894.057	-15.53
894.228	-21.67
894.399	-48.3
894.57	70.48
894.74	9.05
894.911	-54.44
895.082	45.91
895.253	-31.91
895.423	-33.96
895.594	80.72
895.764	2.9
895.935	-101.55
896.106	4.95
896.276	-56.49
896.447	17.24
896.617	-58.54
896.788	-66.73
896.958	-64.68
897.129	-132.26
897.299	-66.73
897.47	88.92
897.64	33.62
897.81	-38.06
897.981	-17.58
898.151	2.9
898.322	21.33
898.492	29.52
898.662	27.48
898.832	-1.19
899.003	-113.83
899.173	78.68
899.343	-3.24
899.513	-60.59
