Data from USB4F104151__72__10-32-17-048.txt Node

Date: Wed Feb 26 10:32:17 EST 2025
User: louis
Spectrometer: USB4F10415
Trigger mode: 4
Integration Time (sec): 1.000000E-1
Scans to average: 1
Electric dark correction enabled: true
Nonlinearity correction enabled: false
Boxcar width: 0
XAxis mode: Wavelengths
Number of Pixels in Spectrum: 3648
>>>>>Begin Spectral Data<<<<<
178.204	-383.48
178.424	-383.48
178.644	-383.48
178.864	-442.87
179.084	-395.77
179.304	9.73
179.524	3.58
179.744	1.54
179.964	44.54
180.184	11.78
180.404	3.58
180.624	40.45
180.844	-14.85
181.064	-133.63
181.283	52.74
181.503	-90.62
181.723	71.17
181.943	-31.23
182.163	261.63
182.383	-53.76
182.602	112.13
182.822	56.83
183.042	46.59
183.262	-20.99
183.482	-14.85
183.701	9.73
183.921	83.45
184.141	-74.24
184.361	52.74
184.58	44.54
184.8	75.26
185.02	-2.56
185.239	112.13
185.459	40.45
185.679	181.76
185.898	-119.29
186.118	50.69
186.338	5.63
186.557	136.7
186.777	-23.04
186.997	-45.57
187.216	36.35
187.436	144.89
187.655	15.87
187.875	28.16
188.095	46.59
188.314	50.69
188.534	220.67
188.753	5.63
188.973	44.54
189.192	132.61
189.412	-49.66
189.631	60.93
189.851	1.54
190.07	142.85
190.29	-51.71
190.509	15.87
190.729	83.45
190.948	124.41
191.168	230.91
191.387	46.59
191.607	-12.8
191.826	54.78
192.045	40.45
192.265	28.16
192.484	54.78
192.704	24.06
192.923	-27.14
193.142	173.57
193.362	110.08
193.581	138.75
193.8	81.41
194.02	56.83
194.239	9.73
194.458	26.11
194.678	34.3
194.897	-10.75
195.116	142.85
195.335	62.98
195.555	54.78
195.774	32.26
195.993	-4.61
196.212	19.97
196.432	46.59
196.651	-0.51
196.87	30.21
197.089	261.63
197.308	46.59
197.528	65.02
197.747	-8.7
197.966	83.45
198.185	110.08
198.404	-29.18
198.623	48.64
198.842	97.79
199.062	110.08
199.281	87.55
199.5	-6.66
199.719	40.45
199.938	73.21
200.157	67.07
200.376	112.13
200.595	50.69
200.814	13.82
201.033	-0.51
201.252	134.65
201.471	77.31
201.69	44.54
201.909	28.16
202.128	134.65
202.347	93.69
202.566	30.21
202.785	-117.25
203.004	7.68
203.223	280.06
203.442	36.35
203.661	-0.51
203.879	118.27
204.098	56.83
204.317	32.26
204.536	58.88
204.755	48.64
204.974	48.64
205.193	5.63
205.411	77.31
205.63	99.84
205.849	54.78
206.068	48.64
206.287	-23.04
206.505	50.69
206.724	46.59
206.943	-59.9
207.162	-84.48
207.381	-8.7
207.599	-20.99
207.818	56.83
208.037	-51.71
208.255	24.06
208.474	62.98
208.693	65.02
208.911	36.35
209.13	116.22
209.349	46.59
209.567	34.3
209.786	93.69
210.005	58.88
210.223	-20.99
210.442	-45.57
210.661	-12.8
210.879	38.4
211.098	85.5
211.316	28.16
211.535	67.07
211.753	67.07
211.972	52.74
212.191	-41.47
212.409	7.68
212.628	28.16
212.846	-59.9
213.065	46.59
213.283	62.98
213.502	24.06
213.72	-47.62
213.938	58.88
214.157	22.02
214.375	136.7
214.594	3.58
214.812	97.79
215.031	52.74
215.249	3.58
215.467	-2.56
215.686	-0.51
215.904	110.08
216.122	-0.51
216.341	79.36
216.559	24.06
216.778	165.37
216.996	83.45
217.214	50.69
217.432	-72.19
217.651	-29.18
217.869	26.11
218.087	114.17
218.306	-12.8
218.524	52.74
218.742	-16.9
218.96	71.17
219.179	-23.04
219.397	13.82
219.615	222.72
219.833	71.17
220.051	-102.91
220.27	44.54
220.488	122.37
220.706	46.59
220.924	-61.95
221.142	1.54
221.36	62.98
221.578	22.02
221.796	-0.51
222.015	73.21
222.233	89.6
222.451	122.37
222.669	3.58
222.887	30.21
223.105	77.31
223.323	30.21
223.541	-27.14
223.759	105.98
223.977	44.54
224.195	171.52
224.413	83.45
224.631	-4.61
224.849	81.41
225.067	185.85
225.285	-14.85
225.503	30.21
225.721	-115.2
225.939	87.55
226.157	24.06
226.375	230.91
226.592	-25.09
226.81	22.02
227.028	32.26
227.246	93.69
227.464	114.17
227.682	89.6
227.9	65.02
228.117	71.17
228.335	132.61
228.553	-25.09
228.771	19.97
228.989	17.92
229.206	114.17
229.424	-70.14
229.642	60.93
229.86	-59.9
230.077	183.81
230.295	28.16
230.513	89.6
230.731	17.92
230.948	124.41
231.166	148.99
231.384	-35.33
231.601	-14.85
231.819	183.81
232.037	-25.09
232.254	-31.23
232.472	7.68
232.689	-6.66
232.907	140.8
233.125	-12.8
233.342	11.78
233.56	-8.7
233.777	52.74
233.995	5.63
234.213	60.93
234.43	108.03
234.648	22.02
234.865	30.21
235.083	52.74
235.3	40.45
235.518	-0.51
235.735	93.69
235.953	171.52
236.17	44.54
236.388	32.26
236.605	60.93
236.822	36.35
237.04	120.32
237.257	83.45
237.475	24.06
237.692	44.54
237.909	30.21
238.127	-35.33
238.344	120.32
238.562	83.45
238.779	-133.63
238.996	5.63
239.214	50.69
239.431	56.83
239.648	-16.9
239.865	79.36
240.083	99.84
240.3	40.45
240.517	-12.8
240.735	26.11
240.952	153.09
241.169	114.17
241.386	87.55
241.603	1.54
241.821	-33.28
242.038	110.08
242.255	91.65
242.472	-90.62
242.689	122.37
242.907	97.79
243.124	38.4
243.341	28.16
243.558	28.16
243.775	-51.71
243.992	-92.67
244.209	134.65
244.426	146.94
244.643	1.54
244.86	28.16
245.078	36.35
245.295	116.22
245.512	7.68
245.729	-41.47
245.946	83.45
246.163	75.26
246.38	-45.57
246.597	-25.09
246.814	46.59
247.031	-10.75
247.248	11.78
247.464	87.55
247.681	48.64
247.898	28.16
248.115	-0.51
248.332	-59.9
248.549	114.17
248.766	112.13
248.983	83.45
249.2	148.99
249.417	85.5
249.633	7.68
249.85	32.26
250.067	15.87
250.284	138.75
250.501	48.64
250.717	36.35
250.934	38.4
251.151	13.82
251.368	-8.7
251.585	34.3
251.801	46.59
252.018	11.78
252.235	110.08
252.451	40.45
252.668	22.02
252.885	126.46
253.102	48.64
253.318	-12.8
253.535	-47.62
253.752	26.11
253.968	42.5
254.185	-102.91
254.401	118.27
254.618	120.32
254.835	44.54
255.051	175.61
255.268	85.5
255.484	101.89
255.701	28.16
255.917	-6.66
256.134	65.02
256.351	11.78
256.567	28.16
256.784	-6.66
257	-12.8
257.217	161.28
257.433	17.92
257.65	-14.85
257.866	187.9
258.082	-57.86
258.299	-27.14
258.515	56.83
258.732	79.36
258.948	-4.61
259.165	34.3
259.381	-33.28
259.597	24.06
259.814	-4.61
260.03	60.93
260.246	-14.85
260.463	69.12
260.679	161.28
260.895	52.74
261.112	99.84
261.328	-10.75
261.544	-0.51
261.761	206.33
261.977	-53.76
262.193	-64
262.409	118.27
262.626	69.12
262.842	60.93
263.058	-35.33
263.274	-8.7
263.49	67.07
263.707	99.84
263.923	24.06
264.139	-137.73
264.355	75.26
264.571	128.51
264.787	95.74
265.004	146.94
265.22	56.83
265.436	42.5
265.652	7.68
265.868	81.41
266.084	-35.33
266.3	81.41
266.516	-12.8
266.732	15.87
266.948	11.78
267.164	58.88
267.38	181.76
267.596	-4.61
267.812	187.9
268.028	32.26
268.244	38.4
268.46	42.5
268.676	87.55
268.892	62.98
269.108	22.02
269.324	-6.66
269.54	-35.33
269.756	153.09
269.972	-6.66
270.188	5.63
270.403	-29.18
270.619	54.78
270.835	85.5
271.051	-10.75
271.267	-37.38
271.483	-55.81
271.698	58.88
271.914	48.64
272.13	-12.8
272.346	-6.66
272.562	17.92
272.777	157.18
272.993	30.21
273.209	1.54
273.425	75.26
273.64	-29.18
273.856	89.6
274.072	-10.75
274.287	-0.51
274.503	56.83
274.719	77.31
274.934	-20.99
275.15	-57.86
275.366	13.82
275.581	5.63
275.797	79.36
276.012	81.41
276.228	46.59
276.444	-98.81
276.659	169.47
276.875	-72.19
277.09	22.02
277.306	26.11
277.521	42.5
277.737	36.35
277.952	103.93
278.168	-6.66
278.383	42.5
278.599	-41.47
278.814	103.93
279.03	42.5
279.245	95.74
279.461	69.12
279.676	89.6
279.892	-14.85
280.107	30.21
280.322	-4.61
280.538	79.36
280.753	-47.62
280.969	26.11
281.184	56.83
281.399	151.04
281.615	75.26
281.83	65.02
282.045	-92.67
282.26	11.78
282.476	138.75
282.691	42.5
282.906	-4.61
283.122	-29.18
283.337	11.78
283.552	73.21
283.767	-8.7
283.983	91.65
284.198	46.59
284.413	38.4
284.628	15.87
284.843	73.21
285.058	1.54
285.274	26.11
285.489	30.21
285.704	95.74
285.919	-68.09
286.134	-31.23
286.349	-16.9
286.564	-39.42
286.779	167.42
286.995	58.88
287.21	-6.66
287.425	93.69
287.64	15.87
287.855	50.69
288.07	-35.33
288.285	97.79
288.5	38.4
288.715	79.36
288.93	108.03
289.145	-100.86
289.36	36.35
289.575	-4.61
289.79	62.98
290.004	-74.24
290.219	89.6
290.434	-82.43
290.649	19.97
290.864	-37.38
291.079	3.58
291.294	44.54
291.509	136.7
291.724	87.55
291.938	-8.7
292.153	112.13
292.368	75.26
292.583	103.93
292.798	60.93
293.012	52.74
293.227	58.88
293.442	52.74
293.657	75.26
293.871	130.56
294.086	38.4
294.301	144.89
294.516	75.26
294.73	40.45
294.945	-4.61
295.16	116.22
295.374	114.17
295.589	85.5
295.804	36.35
296.018	15.87
296.233	110.08
296.447	116.22
296.662	65.02
296.877	69.12
297.091	71.17
297.306	28.16
297.52	15.87
297.735	56.83
297.949	69.12
298.164	73.21
298.378	44.54
298.593	-68.09
298.807	-16.9
299.022	-4.61
299.236	142.85
299.451	3.58
299.665	17.92
299.88	40.45
300.094	44.54
300.309	13.82
300.523	38.4
300.737	-0.51
300.952	-10.75
301.166	108.03
301.381	77.31
301.595	-27.14
301.809	1.54
302.024	3.58
302.238	-86.53
302.452	136.7
302.667	-35.33
302.881	198.14
303.095	58.88
303.309	140.8
303.524	-29.18
303.738	-37.38
303.952	-18.94
304.166	91.65
304.381	-104.96
304.595	169.47
304.809	81.41
305.023	108.03
305.237	7.68
305.452	85.5
305.666	81.41
305.88	138.75
306.094	77.31
306.308	85.5
306.522	50.69
306.736	19.97
306.95	99.84
307.164	58.88
307.379	9.73
307.593	132.61
307.807	103.93
308.021	122.37
308.235	134.65
308.449	-27.14
308.663	5.63
308.877	208.38
309.091	85.5
309.305	52.74
309.519	-133.63
309.733	101.89
309.947	-64
310.161	54.78
310.374	79.36
310.588	93.69
310.802	-61.95
311.016	26.11
311.23	54.78
311.444	26.11
311.658	-4.61
311.872	134.65
312.085	83.45
312.299	189.95
312.513	140.8
312.727	9.73
312.941	-43.52
313.154	17.92
313.368	26.11
313.582	17.92
313.796	58.88
314.009	52.74
314.223	148.99
314.437	38.4
314.651	56.83
314.864	-4.61
315.078	26.11
315.292	-102.91
315.505	-16.9
315.719	46.59
315.933	1.54
316.146	67.07
316.36	22.02
316.573	110.08
316.787	60.93
317.001	65.02
317.214	-35.33
317.428	56.83
317.641	-6.66
317.855	-100.86
318.068	91.65
318.282	44.54
318.495	153.09
318.709	44.54
318.922	-0.51
319.136	171.52
319.349	155.13
319.563	-31.23
319.776	101.89
319.99	-76.29
320.203	65.02
320.417	24.06
320.63	118.27
320.843	67.07
321.057	62.98
321.27	7.68
321.483	155.13
321.697	83.45
321.91	103.93
322.124	54.78
322.337	-2.56
322.55	-35.33
322.763	-23.04
322.977	58.88
323.19	9.73
323.403	11.78
323.617	95.74
323.83	1.54
324.043	54.78
324.256	17.92
324.469	-82.43
324.683	151.04
324.896	46.59
325.109	28.16
325.322	-74.24
325.535	81.41
325.748	73.21
325.962	36.35
326.175	81.41
326.388	83.45
326.601	142.85
326.814	-12.8
327.027	48.64
327.24	167.42
327.453	19.97
327.666	54.78
327.879	58.88
328.092	116.22
328.305	71.17
328.518	-43.52
328.731	44.54
328.944	13.82
329.157	62.98
329.37	-49.66
329.583	148.99
329.796	124.41
330.009	-37.38
330.222	73.21
330.435	101.89
330.648	15.87
330.861	140.8
331.073	7.68
331.286	89.6
331.499	52.74
331.712	-51.71
331.925	-16.9
332.138	-4.61
332.35	159.23
332.563	-41.47
332.776	105.98
332.989	13.82
333.202	11.78
333.414	65.02
333.627	3.58
333.84	24.06
334.053	42.5
334.265	5.63
334.478	-64
334.691	-23.04
334.903	44.54
335.116	1.54
335.329	50.69
335.541	85.5
335.754	208.38
335.966	-14.85
336.179	44.54
336.392	-37.38
336.604	54.78
336.817	110.08
337.029	-0.51
337.242	-25.09
337.454	134.65
337.667	-39.42
337.88	161.28
338.092	75.26
338.305	50.69
338.517	-33.28
338.729	56.83
338.942	200.19
339.154	62.98
339.367	-12.8
339.579	71.17
339.792	-57.86
340.004	26.11
340.217	34.3
340.429	50.69
340.641	-29.18
340.854	17.92
341.066	85.5
341.278	206.33
341.491	144.89
341.703	-2.56
341.915	-16.9
342.128	105.98
342.34	32.26
342.552	-2.56
342.764	-0.51
342.977	-12.8
343.189	40.45
343.401	-0.51
343.613	-78.33
343.826	-14.85
344.038	-31.23
344.25	38.4
344.462	-31.23
344.674	71.17
344.886	40.45
345.099	24.06
345.311	165.37
345.523	-45.57
345.735	-92.67
345.947	50.69
346.159	62.98
346.371	-53.76
346.583	24.06
346.795	230.91
347.007	28.16
347.219	87.55
347.431	-96.77
347.643	130.56
347.855	-51.71
348.067	110.08
348.279	-49.66
348.491	24.06
348.703	26.11
348.915	34.3
349.127	-70.14
349.339	36.35
349.551	-66.05
349.763	69.12
349.975	24.06
350.187	67.07
350.399	146.94
350.61	30.21
350.822	-18.94
351.034	108.03
351.246	15.87
351.458	146.94
351.669	83.45
351.881	34.3
352.093	114.17
352.305	161.28
352.517	-14.85
352.728	112.13
352.94	22.02
353.152	126.46
353.363	-37.38
353.575	118.27
353.787	216.57
353.999	79.36
354.21	112.13
354.422	-82.43
354.633	132.61
354.845	13.82
355.057	77.31
355.268	50.69
355.48	99.84
355.692	-57.86
355.903	75.26
356.115	48.64
356.326	-88.57
356.538	65.02
356.749	-2.56
356.961	163.33
357.172	60.93
357.384	-68.09
357.595	218.62
357.807	-14.85
358.018	-16.9
358.23	26.11
358.441	181.76
358.653	101.89
358.864	34.3
359.075	-45.57
359.287	73.21
359.498	34.3
359.709	22.02
359.921	-25.09
360.132	79.36
360.344	101.89
360.555	46.59
360.766	77.31
360.977	-55.81
361.189	112.13
361.4	13.82
361.611	159.23
361.823	83.45
362.034	50.69
362.245	-55.81
362.456	-16.9
362.667	46.59
362.879	-61.95
363.09	58.88
363.301	128.51
363.512	97.79
363.723	-16.9
363.935	32.26
364.146	75.26
364.357	-10.75
364.568	128.51
364.779	-68.09
364.99	126.46
365.201	-66.05
365.412	167.42
365.623	-100.86
365.834	46.59
366.045	67.07
366.256	93.69
366.467	97.79
366.678	1.54
366.889	15.87
367.1	-10.75
367.311	83.45
367.522	-37.38
367.733	54.78
367.944	65.02
368.155	3.58
368.366	15.87
368.577	75.26
368.788	75.26
368.999	-27.14
369.209	54.78
369.42	255.48
369.631	216.57
369.842	99.84
370.053	7.68
370.264	81.41
370.474	40.45
370.685	38.4
370.896	15.87
371.107	101.89
371.317	26.11
371.528	56.83
371.739	136.7
371.95	46.59
372.16	28.16
372.371	15.87
372.582	-111.1
372.792	120.32
373.003	-0.51
373.214	26.11
373.424	52.74
373.635	-16.9
373.846	126.46
374.056	116.22
374.267	19.97
374.477	89.6
374.688	-74.24
374.898	28.16
375.109	13.82
375.319	40.45
375.53	54.78
375.74	130.56
375.951	-35.33
376.161	71.17
376.372	169.47
376.582	40.45
376.793	7.68
377.003	7.68
377.214	22.02
377.424	95.74
377.635	7.68
377.845	-33.28
378.055	126.46
378.266	-57.86
378.476	30.21
378.686	81.41
378.897	5.63
379.107	40.45
379.317	161.28
379.528	83.45
379.738	101.89
379.948	-51.71
380.158	138.75
380.369	50.69
380.579	56.83
380.789	-0.51
380.999	95.74
381.21	101.89
381.42	161.28
381.63	26.11
381.84	15.87
382.05	79.36
382.261	34.3
382.471	73.21
382.681	-39.42
382.891	85.5
383.101	124.41
383.311	-55.81
383.521	-53.76
383.731	42.5
383.941	30.21
384.151	-31.23
384.361	13.82
384.571	97.79
384.781	-2.56
384.991	148.99
385.201	212.48
385.411	38.4
385.621	77.31
385.831	24.06
386.041	-49.66
386.251	22.02
386.461	32.26
386.671	50.69
386.881	-39.42
387.091	-18.94
387.301	110.08
387.511	36.35
387.72	73.21
387.93	58.88
388.14	3.58
388.35	60.93
388.56	116.22
388.769	175.61
388.979	58.88
389.189	-70.14
389.399	1.54
389.609	75.26
389.818	73.21
390.028	65.02
390.238	103.93
390.447	42.5
390.657	50.69
390.867	44.54
391.076	-29.18
391.286	28.16
391.496	34.3
391.705	22.02
391.915	91.65
392.125	187.9
392.334	-12.8
392.544	105.98
392.753	5.63
392.963	-23.04
393.172	28.16
393.382	-8.7
393.591	146.94
393.801	-4.61
394.01	153.09
394.22	81.41
394.429	-16.9
394.639	-18.94
394.848	46.59
395.058	56.83
395.267	32.26
395.477	128.51
395.686	77.31
395.895	153.09
396.105	181.76
396.314	13.82
396.524	36.35
396.733	1.54
396.942	128.51
397.152	30.21
397.361	93.69
397.57	112.13
397.78	60.93
397.989	126.46
398.198	146.94
398.407	30.21
398.617	17.92
398.826	124.41
399.035	56.83
399.244	91.65
399.453	40.45
399.663	105.98
399.872	54.78
400.081	-41.47
400.29	112.13
400.499	-33.28
400.708	132.61
400.917	67.07
401.127	85.5
401.336	-29.18
401.545	196.09
401.754	108.03
401.963	-4.61
402.172	32.26
402.381	-78.33
402.59	-2.56
402.799	73.21
403.008	67.07
403.217	148.99
403.426	114.17
403.635	-74.24
403.844	50.69
404.053	34.3
404.262	13.82
404.471	118.27
404.68	67.07
404.888	30.21
405.097	13.82
405.306	91.65
405.515	130.56
405.724	-0.51
405.933	101.89
406.142	97.79
406.35	114.17
406.559	-27.14
406.768	91.65
406.977	230.91
407.185	11.78
407.394	124.41
407.603	-90.62
407.812	-23.04
408.02	40.45
408.229	42.5
408.438	26.11
408.646	-88.57
408.855	22.02
409.064	48.64
409.272	42.5
409.481	126.46
409.69	-68.09
409.898	-41.47
410.107	62.98
410.315	83.45
410.524	30.21
410.733	44.54
410.941	46.59
411.15	40.45
411.358	110.08
411.567	126.46
411.775	34.3
411.984	44.54
412.192	67.07
412.401	-100.86
412.609	138.75
412.818	116.22
413.026	103.93
413.234	-39.42
413.443	-29.18
413.651	22.02
413.86	-45.57
414.068	132.61
414.276	163.33
414.485	54.78
414.693	146.94
414.901	130.56
415.11	38.4
415.318	11.78
415.526	3.58
415.734	40.45
415.943	1.54
416.151	105.98
416.359	30.21
416.567	140.8
416.776	99.84
416.984	163.33
417.192	130.56
417.4	-61.95
417.608	-20.99
417.817	17.92
418.025	71.17
418.233	181.76
418.441	-33.28
418.649	11.78
418.857	67.07
419.065	155.13
419.273	93.69
419.481	28.16
419.689	1.54
419.897	15.87
420.105	19.97
420.313	148.99
420.521	173.57
420.729	71.17
420.937	-25.09
421.145	-70.14
421.353	34.3
421.561	159.23
421.769	62.98
421.977	24.06
422.185	173.57
422.393	-6.66
422.601	169.47
422.809	65.02
423.017	50.69
423.224	30.21
423.432	71.17
423.64	7.68
423.848	151.04
424.056	13.82
424.263	128.51
424.471	-8.7
424.679	171.52
424.887	5.63
425.094	126.46
425.302	77.31
425.51	81.41
425.718	97.79
425.925	69.12
426.133	-31.23
426.341	167.42
426.548	108.03
426.756	60.93
426.964	99.84
427.171	34.3
427.379	58.88
427.586	99.84
427.794	56.83
428.001	136.7
428.209	95.74
428.417	171.52
428.624	161.28
428.832	85.5
429.039	108.03
429.247	24.06
429.454	198.14
429.662	218.62
429.869	194.05
430.076	159.23
430.284	159.23
430.491	200.19
430.699	142.85
430.906	251.39
431.114	34.3
431.321	132.61
431.528	44.54
431.736	120.32
431.943	194.05
432.15	140.8
432.358	130.56
432.565	194.05
432.772	15.87
432.979	265.72
433.187	93.69
433.394	304.64
433.601	116.22
433.808	216.57
434.016	226.81
434.223	216.57
434.43	103.93
434.637	292.35
434.844	337.4
435.052	192
435.259	253.44
435.466	247.29
435.673	251.39
435.88	306.68
436.087	259.58
436.294	316.92
436.501	216.57
436.708	230.91
436.915	175.61
437.122	400.89
437.329	169.47
437.537	294.4
437.743	288.25
437.95	370.17
438.157	351.74
438.364	308.73
438.571	335.35
438.778	359.93
438.985	368.12
439.192	404.99
439.399	390.65
439.606	341.5
439.813	421.37
440.02	499.19
440.227	554.49
440.433	482.81
440.64	441.85
440.847	355.83
441.054	456.19
441.261	554.49
441.467	531.96
441.674	435.71
441.881	603.64
442.088	513.53
442.294	652.79
442.501	591.35
442.708	660.98
442.914	609.78
443.121	671.22
443.328	740.85
443.534	747
443.741	736.76
443.948	663.03
444.154	785.91
444.361	990.7
444.568	824.82
444.774	919.03
444.981	794.1
445.187	1007.09
445.394	935.41
445.6	863.73
445.807	1119.73
446.013	1039.86
446.22	1013.23
446.426	1144.3
446.633	1265.13
446.839	1377.77
447.046	1258.99
447.252	1375.72
447.459	1353.2
447.665	1410.54
447.871	1555.94
448.078	1676.77
448.284	1539.56
448.491	1762.79
448.697	1807.84
448.903	1775.08
449.11	1932.77
449.316	1844.71
449.522	2061.79
449.728	1897.96
449.935	2176.48
450.141	2110.94
450.347	2420.19
450.553	2221.53
450.76	2192.86
450.966	2352.6
451.172	2555.35
451.378	2622.94
451.584	2711
451.791	2915.8
451.997	2856.4
452.203	2917.84
452.409	3347.92
452.615	3268.05
452.821	3231.18
453.027	3163.6
453.233	3565
453.44	3560.91
453.646	3843.53
453.852	3775.94
454.058	4044.23
454.264	4228.54
454.47	4459.96
454.676	4337.09
454.882	4851.13
455.088	4543.93
455.294	4961.72
455.5	5348.78
455.705	5486
455.911	5553.58
456.117	5555.63
456.323	5930.41
456.529	5698.99
456.735	6219.17
456.941	6671.77
457.147	6706.59
457.352	6929.81
457.558	7110.04
457.764	7648.65
457.97	7798.15
458.176	8007.05
458.381	8375.68
458.587	8605.05
458.793	9143.67
458.999	8947.06
459.204	10272.1
459.41	10716.51
459.616	10462.56
459.821	10919.26
460.027	11296.08
460.233	11767.12
460.438	12303.68
460.644	12715.33
460.85	12686.65
461.055	13456.69
461.261	13901.1
461.466	13802.8
461.672	13956.4
461.878	15592.72
462.083	15172.89
462.289	15686.93
462.494	16407.81
462.7	16350.47
462.905	16440.58
463.111	18324.71
463.316	19098.84
463.522	19299.55
463.727	19983.57
463.932	20778.18
464.138	21202.11
464.343	22230.19
464.549	22338.73
464.754	24046.74
464.959	24433.8
465.165	25199.74
465.37	24749.19
465.575	24888.45
465.781	26494.06
465.986	27333.73
466.191	26954.85
466.397	27309.15
466.602	26670.19
466.807	27788.38
467.012	28435.53
467.218	29123.65
467.423	28892.23
467.628	29707.32
467.833	31624.22
468.038	30845.99
468.244	30008.37
468.449	32107.54
468.654	31112.23
468.859	31392.8
469.064	31378.47
469.269	30370.86
469.474	30702.64
469.679	31439.9
469.885	30657.58
470.09	31052.84
470.295	31128.61
470.5	30587.95
470.705	30686.25
470.91	30217.27
471.115	29879.35
471.32	30194.74
471.525	30268.47
471.73	29060.16
471.935	28908.61
472.139	27728.98
472.344	28181.59
472.549	27984.98
472.754	26961
472.959	26637.42
473.164	25807.99
473.369	25402.49
473.574	26043.51
473.778	25631.86
473.983	25427.07
474.188	24931.46
474.393	23442.59
474.598	23694.49
474.802	22840.48
475.007	22867.11
475.212	22486.18
475.417	21298.36
475.621	21363.9
475.826	21099.71
476.031	20802.75
476.235	20323.53
476.44	20249.8
476.645	19549.4
476.849	19373.27
477.054	19021.02
477.259	18519.27
477.463	18879.71
477.668	18107.63
477.872	18398.44
478.077	17437.94
478.282	17065.21
478.486	16981.24
478.691	16858.37
478.895	16610.56
479.1	16520.45
479.304	16358.66
479.509	15807.76
479.713	16135.43
479.918	15699.22
480.122	15226.14
480.326	15580.43
480.531	15310.1
480.735	15254.81
480.94	14783.77
481.144	15400.21
481.348	14814.49
481.553	14988.57
481.757	14187.82
481.961	14478.63
482.166	14574.88
482.37	14628.13
482.574	14042.41
482.778	13978.92
482.983	14196.01
483.187	14136.62
483.391	13847.85
483.595	13487.41
483.8	13436.21
484.004	13542.71
484.208	13509.94
484.412	13255.99
484.616	13147.45
484.821	13133.11
485.025	12653.89
485.229	12528.96
485.433	12293.44
485.637	12223.81
485.841	12004.68
486.045	12074.31
486.249	11709.77
486.453	11509.07
486.657	11410.77
486.861	11550.03
487.065	11199.83
487.269	10843.48
487.473	10536.29
487.677	10698.08
487.881	10835.29
488.085	10136.93
488.289	10341.73
488.493	9852.27
488.697	9766.25
488.901	9659.76
489.105	9434.48
489.309	9500.02
489.512	9102.71
489.716	8902.01
489.92	8791.42
490.124	8668.54
490.328	8629.63
490.531	8168.84
490.735	8187.27
490.939	8060.29
491.143	8043.91
491.346	7804.3
491.55	7740.81
491.754	7544.2
491.958	7445.9
492.161	7320.98
492.365	7243.15
492.569	6827.42
492.772	6804.89
492.976	6847.9
493.18	6675.87
493.383	6761.88
493.587	6471.07
493.79	6540.7
493.994	6210.98
494.197	6346.14
494.401	6274.46
494.605	6131.11
494.808	6090.15
495.012	5981.6
495.215	6038.95
495.419	6084
495.622	5780.9
495.825	5780.9
496.029	5871.01
496.232	5959.08
496.436	5668.27
496.639	5946.79
496.843	5711.27
497.046	5793.19
497.249	5936.55
497.453	5889.45
497.656	5608.87
497.859	5582.25
498.063	5932.45
498.266	5940.65
498.469	5629.35
498.673	5731.75
498.876	5770.66
499.079	5737.9
499.282	5756.33
499.485	6041
499.689	5844.39
499.892	6000.04
500.095	5715.37
500.298	6063.52
500.501	5823.91
500.705	6002.08
500.908	6090.15
501.111	5967.27
501.314	6038.95
501.517	6337.95
501.72	6184.35
501.923	6266.27
502.126	6311.33
502.329	6581.66
502.532	6436.25
502.735	6362.53
502.938	6679.96
503.141	6702.49
503.344	6645.15
503.547	6862.23
503.75	6866.33
503.953	6776.22
504.156	7036.31
504.359	7175.57
504.562	7196.05
504.765	7341.46
504.968	7351.7
505.17	7413.13
505.373	7531.92
505.576	7736.71
505.779	7914.89
505.982	7749
506.185	8138.12
506.387	8064.39
506.59	8390.02
506.793	8404.35
506.996	8658.3
507.198	8746.36
507.401	8842.62
507.604	9160.05
507.807	9315.7
508.009	9327.99
508.212	9577.84
508.415	9796.97
508.617	9977.19
508.82	10186.08
509.022	10136.93
509.225	10597.73
509.428	10798.43
509.63	11009.37
509.833	10927.45
510.035	11613.52
510.238	11533.65
510.44	11900.23
510.643	12377.41
510.845	12582.21
511.048	12516.67
511.25	13043
511.453	13106.49
511.655	13817.13
511.858	13845.8
512.06	14032.17
512.262	14417.19
512.465	14705.95
512.667	14937.37
512.87	15205.66
513.072	15564.05
513.274	16153.87
513.477	16149.77
513.679	16870.65
513.881	17085.69
514.084	17317.11
514.286	17812.72
514.488	18232.55
514.69	18869.47
514.893	19174.62
515.095	19375.32
515.297	19719.38
515.499	20040.91
515.701	20894.91
515.904	21148.86
516.106	21437.62
516.308	21798.07
516.51	22580.39
516.712	22715.56
516.914	23061.66
517.116	23993.49
517.318	24026.26
517.52	24640.65
517.722	24935.56
517.925	25572.47
518.127	25762.93
518.329	26596.46
518.531	26637.42
518.733	27542.62
518.935	27806.81
519.136	28310.61
519.338	28939.33
519.54	29389.89
519.742	29828.15
519.944	30030.9
520.146	30676.01
520.348	31386.66
520.55	31722.52
520.752	31718.43
520.954	32685.07
521.155	32535.57
521.357	33104.9
521.559	33317.89
521.761	34219
521.963	33870.84
522.164	34649.07
522.366	35374.05
522.568	35240.93
522.77	35679.2
522.971	35937.24
523.173	35789.79
523.375	35986.39
523.576	36242.39
523.778	36291.54
523.98	37409.73
524.181	37278.66
524.383	36991.95
524.584	37942.21
524.786	37581.76
524.988	37284.81
525.189	37985.21
525.391	37841.85
525.592	38005.69
525.794	38484.92
525.995	37800.9
526.197	37821.37
526.398	38075.32
526.6	37770.18
526.801	37770.18
527.003	37546.95
527.204	37911.49
527.406	37952.44
527.607	37233.61
527.808	37467.08
528.01	36506.58
528.211	36725.71
528.412	37174.22
528.614	36907.98
528.815	36170.71
529.016	36559.83
529.218	35836.89
529.419	35673.06
529.62	35521.51
529.822	35109.86
530.023	34749.42
530.224	34182.13
530.425	34073.59
530.626	33377.28
530.828	33022.98
531.029	33684.48
531.23	32447.5
531.431	32209.94
531.632	32080.92
531.833	31687.71
532.035	31171.62
532.236	31042.6
532.437	31130.66
532.638	29948.98
532.839	30022.71
533.04	29822.01
533.241	29510.72
533.442	29510.72
533.643	28656.71
533.844	28114
534.045	28025.94
534.246	27358.3
534.447	26764.39
534.648	26827.88
534.849	26614.89
535.05	25810.04
535.251	25810.04
535.451	25451.64
535.652	25218.18
535.853	24880.26
536.054	24583.3
536.255	24460.43
536.456	23635.1
536.657	23463.07
536.857	23266.46
537.058	22729.89
537.259	22611.11
537.46	22303.92
537.66	21994.67
537.861	21679.29
538.062	21486.78
538.263	20925.63
538.463	20743.36
538.664	20516.04
538.865	20094.16
539.065	20108.49
539.266	19588.31
539.466	19377.37
539.667	19193.05
539.868	19442.9
540.068	18892
540.269	18582.76
540.469	18670.82
540.67	18152.68
540.87	18025.71
541.071	17843.44
541.271	17702.13
541.472	17501.43
541.672	17233.15
541.873	16801.02
542.073	16618.75
542.274	16874.75
542.474	16655.62
542.675	16334.09
542.875	16241.93
543.075	15672.59
543.276	15443.22
543.476	15861.01
543.676	15226.14
543.877	15363.35
544.077	15045.91
544.277	14806.3
544.478	14644.51
544.678	14595.36
544.878	14443.81
545.078	14259.49
545.279	14060.84
545.479	13538.61
545.679	13749.55
545.879	13651.25
546.079	13407.54
546.28	13292.85
546.48	12856.64
546.68	13145.4
546.88	12913.98
547.08	12741.95
547.28	12475.71
547.48	12102.98
547.68	12250.44
547.88	11900.23
548.081	11947.34
548.281	11693.39
548.481	11355.47
548.681	11529.55
548.881	11380.05
549.081	11351.38
549.28	11031.9
549.48	10825.05
549.68	10689.88
549.88	10761.56
550.08	10317.15
550.28	10491.23
550.48	10151.27
550.68	10057.06
550.88	9870.7
551.08	9608.56
551.279	9973.1
551.479	9426.29
551.679	9512.3
551.879	9131.38
552.079	8936.82
552.278	8983.93
552.478	9108.85
552.678	8959.35
552.878	8760.7
553.077	8480.13
553.277	8258.95
553.477	8213.89
553.676	8131.97
553.876	8021.38
554.076	7906.7
554.275	7710.09
554.475	7536.01
554.674	7558.54
554.874	7325.07
555.074	7212.43
555.273	7114.13
555.473	7050.64
555.672	6948.25
555.872	6712.73
556.071	6616.48
556.271	6737.31
556.47	6464.93
556.67	6188.45
556.869	6360.48
557.068	6149.54
557.268	5928.36
557.467	5774.76
557.667	5926.31
557.866	5770.66
558.065	5594.54
558.265	5539.24
558.464	5215.66
558.663	5350.83
558.863	5363.12
559.062	5311.92
559.261	5008.82
559.461	4939.19
559.66	4894.13
559.859	4722.1
560.058	4666.81
560.258	4631.99
560.457	4677.05
560.656	4769.21
560.855	4437.44
561.054	4478.4
561.253	4433.34
561.453	4328.89
561.652	4150.72
561.851	4322.75
562.05	4048.32
562.249	3880.39
562.448	4029.89
562.647	3847.62
562.846	3722.7
563.045	3763.65
563.244	3780.04
563.443	3524.04
563.642	3648.97
563.841	3681.74
564.04	3368.4
564.239	3534.28
564.438	3440.08
564.637	3276.24
564.836	3331.53
565.035	3196.37
565.234	3210.7
565.432	3155.41
565.631	3085.78
565.83	3061.2
566.029	2991.57
566.228	3040.72
566.427	2995.67
566.625	2772.44
566.824	2899.41
567.023	3014.1
567.222	2715.09
567.42	2700.76
567.619	2657.75
567.818	2799.06
568.016	2880.98
568.215	2670.04
568.414	2508.25
568.612	2485.72
568.811	2422.24
569.01	2414.04
569.208	2344.41
569.407	2346.46
569.605	2313.69
569.804	2209.25
570.002	2285.02
570.201	2024.93
570.4	2201.05
570.598	2016.74
570.797	2147.81
570.995	2131.42
571.193	2086.37
571.392	1938.91
571.59	1873.38
571.789	2004.45
571.987	2156
572.186	1949.15
572.384	1967.59
572.582	1875.43
572.781	1928.67
572.979	1705.45
573.177	1756.65
573.376	1777.12
573.574	1777.12
573.772	1631.72
573.971	1541.61
574.169	1596.9
574.367	1609.19
574.565	1574.38
574.763	1508.84
574.962	1521.13
575.16	1492.46
575.358	1428.97
575.556	1492.46
575.754	1322.48
575.952	1353.2
576.151	1463.79
576.349	1404.39
576.547	1254.89
576.745	1357.29
576.943	1357.29
577.141	1377.77
577.339	1189.36
577.537	1304.04
577.735	1334.76
577.933	1179.12
578.131	1199.6
578.329	1336.81
578.527	1144.3
578.725	1277.42
578.923	1013.23
579.121	1148.4
579.319	962.03
579.516	1082.86
579.714	1211.89
579.912	1000.94
580.11	982.51
580.308	939.51
580.506	927.22
580.704	863.73
580.901	898.55
581.099	1062.38
581.297	855.54
581.495	966.13
581.692	947.7
581.89	964.08
582.088	759.28
582.285	810.48
582.483	859.63
582.681	781.81
582.878	765.43
583.076	835.06
583.274	841.2
583.471	916.98
583.669	732.66
583.866	669.17
584.064	828.92
584.262	654.84
584.459	615.93
584.657	779.76
584.854	781.81
585.052	712.18
585.249	665.08
585.447	708.09
585.644	712.18
585.841	761.33
586.039	658.93
586.236	755.19
586.434	693.75
586.631	591.35
586.828	673.27
587.026	558.58
587.223	509.43
587.42	564.73
587.618	560.63
587.815	689.65
588.012	574.97
588.21	509.43
588.407	652.79
588.604	587.26
588.801	460.28
588.999	515.58
589.196	591.35
589.393	466.42
589.59	556.54
589.787	525.82
589.984	480.76
590.182	478.71
590.379	515.58
590.576	493.05
590.773	421.37
590.97	517.62
591.167	497.14
591.364	452.09
591.561	511.48
591.758	521.72
591.955	531.96
592.152	415.23
592.349	433.66
592.546	456.19
592.743	423.42
592.94	503.29
593.137	515.58
593.334	529.91
593.531	527.86
593.727	509.43
593.924	544.25
594.121	452.09
594.318	497.14
594.515	527.86
594.712	638.45
594.908	486.9
595.105	423.42
595.302	519.67
595.499	527.86
595.696	665.08
595.892	454.14
596.089	564.73
596.286	568.82
596.482	673.27
596.679	603.64
596.876	570.87
597.072	646.65
597.269	658.93
597.466	630.26
597.662	589.3
597.859	675.32
598.055	620.02
598.252	833.01
598.448	810.48
598.645	804.34
598.841	769.52
599.038	990.7
599.234	888.31
599.431	966.13
599.627	951.79
599.824	902.64
600.02	919.03
600.217	972.27
600.413	1066.48
600.609	1121.77
600.806	1365.48
601.002	1179.12
601.198	1039.86
601.395	1267.18
601.591	1297.9
601.787	1451.5
601.984	1441.26
602.18	1502.7
602.376	1471.98
602.572	1506.79
602.769	1691.11
602.965	1721.83
603.161	1664.49
603.357	1793.51
603.553	1973.73
603.75	1857
603.946	2053.6
604.142	2065.89
604.338	2194.91
604.534	2209.25
604.73	2280.93
604.926	2272.73
605.122	2416.09
605.318	2426.33
605.514	2498.01
605.71	2772.44
605.906	2866.64
606.102	2889.17
606.298	3001.81
606.494	3053.01
606.69	3239.37
606.886	3102.16
607.082	3120.59
607.278	3313.1
607.474	3360.2
607.67	3624.39
607.866	3411.4
608.062	3777.99
608.257	3821
608.453	3882.44
608.649	4074.95
608.845	4111.81
609.041	4173.25
609.236	4242.88
609.432	4433.34
609.628	4662.71
609.824	4806.07
610.019	4853.17
610.215	4939.19
610.411	5256.62
610.606	5260.72
610.802	5326.25
610.998	5510.57
611.193	5633.45
611.389	5764.52
611.584	5930.41
611.78	5954.98
611.976	6170.02
612.171	6688.15
612.367	6575.52
612.562	6645.15
612.758	6911.38
612.953	6895
613.149	7312.78
613.344	7421.33
613.539	7900.55
613.735	7859.59
613.93	8035.72
614.126	8387.97
614.321	8516.99
614.517	8813.95
614.712	8889.72
614.907	9141.62
615.103	9321.84
615.298	9411.95
615.493	9805.16
615.688	9928.04
615.884	10560.86
616.079	10526.05
616.274	10995.03
616.47	11111.77
616.665	11556.18
616.86	11502.93
617.055	11738.44
617.25	12358.98
617.445	12619.07
617.641	12729.66
617.836	13069.62
618.031	13069.62
618.226	14026.03
618.421	14150.95
618.616	14458.15
618.811	14769.44
619.006	15123.74
619.201	15314.2
619.396	15838.48
619.591	16127.24
619.786	16463.11
619.981	16692.48
620.176	17276.15
620.371	17321.21
620.566	17945.84
620.761	18435.3
620.956	18705.63
621.151	18801.89
621.346	19465.43
621.541	19258.59
621.735	20212.94
621.93	20315.34
622.125	20763.84
622.32	20946.11
622.515	21497.02
622.709	22002.86
622.904	22144.17
623.099	22453.42
623.294	23032.99
623.488	23430.3
623.683	23901.33
623.878	23995.54
624.072	24622.22
624.267	24599.69
624.462	25201.79
624.656	25486.46
624.851	26100.85
625.046	26221.68
625.24	27014.24
625.435	27028.58
625.629	27419.74
625.824	27972.69
626.018	28251.22
626.213	28085.33
626.407	29267.01
626.602	28871.75
626.796	29385.79
626.991	29731.9
627.185	30137.4
627.38	30204.98
627.574	30440.5
627.768	30512.17
627.963	30413.87
628.157	30741.55
628.352	31069.22
628.546	30710.83
628.74	31204.39
628.935	31271.97
629.129	30985.26
629.323	30792.75
629.517	30374.96
629.712	30463.02
629.906	30041.14
630.1	30155.83
630.294	29664.32
630.489	29594.68
630.683	29086.79
630.877	28642.38
631.071	28408.91
631.265	27874.39
631.459	27472.99
631.653	26616.94
631.848	26233.97
632.042	25803.89
632.236	25296
632.43	24448.14
632.624	23946.39
632.818	23088.29
633.012	22531.24
633.206	21896.37
633.4	21138.62
633.594	20319.43
633.788	20026.57
633.982	19281.11
634.176	18564.32
634.369	17675.51
634.563	17241.34
634.757	16389.38
634.951	15826.19
635.145	15187.22
635.339	14902.56
635.533	14030.12
635.726	13765.93
635.92	12864.83
636.114	12391.75
636.308	11885.9
636.501	11443.54
636.695	11103.57
636.889	10335.59
637.083	10003.82
637.276	9708.91
637.47	9362.8
637.664	8906.1
637.857	8715.64
638.051	8404.35
638.244	8060.29
638.438	7542.16
638.632	7378.32
638.825	6862.23
639.019	6802.84
639.212	6477.21
639.406	6258.08
639.599	6071.72
639.793	5768.62
639.986	5391.79
640.18	5422.51
640.373	5088.69
640.567	4810.17
640.76	4652.47
640.954	4462.01
641.147	4240.83
641.34	4234.69
641.534	4031.94
641.727	3995.08
641.92	3757.51
642.114	3560.91
642.307	3429.84
642.5	3388.88
642.694	3096.02
642.887	3112.4
643.08	3153.36
643.273	2840.02
643.467	2684.38
643.66	2635.22
643.853	2481.63
644.046	2452.95
644.239	2409.95
644.432	2332.12
644.626	2094.56
644.819	2047.46
645.012	1988.07
645.205	2020.83
645.398	1965.54
645.591	1773.03
645.784	1582.57
645.977	1594.86
646.17	1582.57
646.363	1502.7
646.556	1459.69
646.749	1322.48
646.942	1435.11
647.135	1351.15
647.328	1316.33
647.521	1238.51
647.714	1195.5
647.907	1164.78
648.099	1039.86
648.292	1195.5
648.485	1002.99
648.678	1013.23
648.871	859.63
649.064	974.32
649.256	837.11
649.449	761.33
649.642	740.85
649.835	675.32
650.027	665.08
650.22	804.34
650.413	624.12
650.605	730.61
650.798	632.31
650.991	648.69
651.183	560.63
651.376	667.13
651.568	577.02
651.761	562.68
651.954	552.44
652.146	589.3
652.339	523.77
652.531	474.62
652.724	353.79
652.916	439.8
653.109	300.54
653.301	411.13
653.494	544.25
653.686	312.83
653.879	542.2
654.071	376.31
654.263	353.79
654.456	402.94
654.648	521.72
654.84	429.56
655.033	226.81
655.225	491
655.417	280.06
655.61	519.67
655.802	372.22
655.994	331.26
656.186	155.13
656.379	333.31
656.571	280.06
656.763	212.48
656.955	157.18
657.148	253.44
657.34	296.44
657.532	261.63
657.724	253.44
657.916	253.44
658.108	243.2
658.3	226.81
658.492	310.78
658.684	142.85
658.876	282.11
659.068	140.8
659.26	132.61
659.452	110.08
659.644	200.19
659.836	378.36
660.028	194.05
660.22	187.9
660.412	93.69
660.604	198.14
660.796	173.57
660.988	314.88
661.18	157.18
661.372	245.24
661.563	155.13
661.755	167.42
661.947	34.3
662.139	75.26
662.331	138.75
662.522	165.37
662.714	99.84
662.906	93.69
663.097	163.33
663.289	99.84
663.481	69.12
663.673	208.38
663.864	95.74
664.056	116.22
664.247	83.45
664.439	181.76
664.631	173.57
664.822	124.41
665.014	26.11
665.205	54.78
665.397	65.02
665.588	177.66
665.78	34.3
665.971	167.42
666.163	79.36
666.354	155.13
666.546	48.64
666.737	65.02
666.929	30.21
667.12	97.79
667.311	103.93
667.503	24.06
667.694	167.42
667.885	136.7
668.077	185.85
668.268	17.92
668.459	108.03
668.651	175.61
668.842	144.89
669.033	79.36
669.224	-2.56
669.416	280.06
669.607	42.5
669.798	79.36
669.989	245.24
670.18	91.65
670.371	126.46
670.563	65.02
670.754	259.58
670.945	189.95
671.136	144.89
671.327	130.56
671.518	130.56
671.709	198.14
671.9	214.52
672.091	187.9
672.282	171.52
672.473	122.37
672.664	81.41
672.855	77.31
673.046	126.46
673.237	169.47
673.428	126.46
673.619	167.42
673.809	54.78
674	241.15
674.191	181.76
674.382	87.55
674.573	89.6
674.764	179.71
674.954	173.57
675.145	103.93
675.336	7.68
675.527	181.76
675.717	34.3
675.908	54.78
676.099	126.46
676.289	157.18
676.48	32.26
676.671	77.31
676.861	22.02
677.052	142.85
677.243	142.85
677.433	83.45
677.624	183.81
677.814	146.94
678.005	130.56
678.195	232.96
678.386	112.13
678.576	208.38
678.767	87.55
678.957	169.47
679.148	105.98
679.338	327.16
679.529	77.31
679.719	67.07
679.909	173.57
680.1	212.48
680.29	232.96
680.481	126.46
680.671	187.9
680.861	208.38
681.052	116.22
681.242	128.51
681.432	226.81
681.622	130.56
681.813	124.41
682.003	136.7
682.193	140.8
682.383	212.48
682.573	148.99
682.764	110.08
682.954	130.56
683.144	273.92
683.334	132.61
683.524	245.24
683.714	218.62
683.904	212.48
684.094	198.14
684.284	247.29
684.474	263.68
684.664	155.13
684.854	169.47
685.044	81.41
685.234	214.52
685.424	251.39
685.614	65.02
685.804	327.16
685.994	194.05
686.184	144.89
686.374	259.58
686.564	134.65
686.753	253.44
686.943	163.33
687.133	179.71
687.323	214.52
687.513	306.68
687.702	169.47
687.892	93.69
688.082	239.1
688.272	224.76
688.461	173.57
688.651	282.11
688.841	267.77
689.03	134.65
689.22	128.51
689.41	302.59
689.599	253.44
689.789	136.7
689.979	261.63
690.168	165.37
690.358	284.16
690.547	247.29
690.737	187.9
690.926	202.24
691.116	146.94
691.305	243.2
691.495	226.81
691.684	83.45
691.874	83.45
692.063	173.57
692.252	208.38
692.442	204.28
692.631	120.32
692.82	165.37
693.01	108.03
693.199	163.33
693.388	192
693.578	175.61
693.767	210.43
693.956	151.04
694.146	173.57
694.335	177.66
694.524	146.94
694.713	216.57
694.902	177.66
695.092	118.27
695.281	179.71
695.47	140.8
695.659	183.81
695.848	95.74
696.037	136.7
696.226	212.48
696.415	103.93
696.604	216.57
696.793	220.67
696.982	79.36
697.171	267.77
697.36	67.07
697.549	73.21
697.738	42.5
697.927	93.69
698.116	75.26
698.305	230.91
698.494	192
698.683	124.41
698.872	407.03
699.061	216.57
699.25	87.55
699.438	155.13
699.627	132.61
699.816	267.77
700.005	15.87
700.193	73.21
700.382	206.33
700.571	185.85
700.76	161.28
700.948	259.58
701.137	200.19
701.326	222.72
701.514	32.26
701.703	218.62
701.892	163.33
702.08	298.49
702.269	126.46
702.457	120.32
702.646	208.38
702.834	173.57
703.023	228.86
703.212	273.92
703.4	196.09
703.589	130.56
703.777	114.17
703.965	142.85
704.154	163.33
704.342	108.03
704.531	75.26
704.719	75.26
704.907	136.7
705.096	50.69
705.284	52.74
705.472	118.27
705.661	257.53
705.849	228.86
706.037	235
706.226	144.89
706.414	181.76
706.602	26.11
706.79	181.76
706.979	118.27
707.167	132.61
707.355	-51.71
707.543	148.99
707.731	228.86
707.919	85.5
708.107	167.42
708.296	151.04
708.484	79.36
708.672	161.28
708.86	169.47
709.048	120.32
709.236	83.45
709.424	118.27
709.612	196.09
709.8	24.06
709.988	161.28
710.176	257.53
710.364	198.14
710.551	99.84
710.739	155.13
710.927	93.69
711.115	171.52
711.303	249.34
711.491	155.13
711.679	48.64
711.866	298.49
712.054	222.72
712.242	120.32
712.43	261.63
712.617	112.13
712.805	177.66
712.993	140.8
713.181	62.98
713.368	228.86
713.556	105.98
713.744	85.5
713.931	355.83
714.119	220.67
714.306	175.61
714.494	148.99
714.682	124.41
714.869	134.65
715.057	157.18
715.244	54.78
715.432	210.43
715.619	124.41
715.807	142.85
715.994	132.61
716.182	177.66
716.369	226.81
716.556	157.18
716.744	163.33
716.931	44.54
717.119	210.43
717.306	165.37
717.493	167.42
717.681	148.99
717.868	122.37
718.055	214.52
718.242	105.98
718.43	202.24
718.617	247.29
718.804	140.8
718.991	253.44
719.179	189.95
719.366	153.09
719.553	235
719.74	151.04
719.927	99.84
720.114	196.09
720.301	122.37
720.488	71.17
720.676	130.56
720.863	251.39
721.05	263.68
721.237	140.8
721.424	224.76
721.611	224.76
721.798	140.8
721.985	214.52
722.172	224.76
722.358	181.76
722.545	290.3
722.732	175.61
722.919	316.92
723.106	204.28
723.293	134.65
723.48	235
723.667	95.74
723.853	216.57
724.04	210.43
724.227	230.91
724.414	118.27
724.6	247.29
724.787	271.87
724.974	345.59
725.161	148.99
725.347	44.54
725.534	196.09
725.72	321.02
725.907	302.59
726.094	300.54
726.28	185.85
726.467	120.32
726.653	114.17
726.84	329.21
727.027	359.93
727.213	220.67
727.4	267.77
727.586	116.22
727.773	216.57
727.959	189.95
728.145	237.05
728.332	206.33
728.518	167.42
728.705	288.25
728.891	210.43
729.077	263.68
729.264	148.99
729.45	136.7
729.636	275.96
729.823	286.2
730.009	349.69
730.195	161.28
730.382	257.53
730.568	126.46
730.754	237.05
730.94	161.28
731.126	167.42
731.313	261.63
731.499	232.96
731.685	280.06
731.871	294.4
732.057	239.1
732.243	232.96
732.429	212.48
732.615	347.64
732.801	257.53
732.987	210.43
733.173	214.52
733.359	202.24
733.545	296.44
733.731	169.47
733.917	284.16
734.103	329.21
734.289	296.44
734.475	214.52
734.661	333.31
734.847	267.77
735.033	230.91
735.219	239.1
735.404	173.57
735.59	192
735.776	284.16
735.962	331.26
736.148	323.07
736.333	294.4
736.519	230.91
736.705	189.95
736.89	237.05
737.076	198.14
737.262	161.28
737.447	210.43
737.633	269.82
737.819	308.73
738.004	292.35
738.19	335.35
738.375	237.05
738.561	380.41
738.747	232.96
738.932	169.47
739.118	376.31
739.303	323.07
739.489	364.03
739.674	259.58
739.859	192
740.045	312.83
740.23	296.44
740.416	148.99
740.601	306.68
740.786	241.15
740.972	218.62
741.157	243.2
741.342	161.28
741.528	151.04
741.713	353.79
741.898	173.57
742.084	204.28
742.269	349.69
742.454	235
742.639	366.07
742.824	210.43
743.01	337.4
743.195	308.73
743.38	265.72
743.565	230.91
743.75	226.81
743.935	278.01
744.12	302.59
744.305	216.57
744.49	194.05
744.675	267.77
744.86	185.85
745.045	300.54
745.23	210.43
745.415	220.67
745.6	359.93
745.785	179.71
745.97	325.12
746.155	355.83
746.34	318.97
746.525	278.01
746.71	331.26
746.895	87.55
747.079	218.62
747.264	251.39
747.449	341.5
747.634	321.02
747.819	288.25
748.003	171.52
748.188	200.19
748.373	235
748.557	253.44
748.742	263.68
748.927	148.99
749.111	214.52
749.296	148.99
749.481	181.76
749.665	196.09
749.85	179.71
750.034	224.76
750.219	259.58
750.404	235
750.588	216.57
750.773	110.08
750.957	148.99
751.141	159.23
751.326	183.81
751.51	101.89
751.695	153.09
751.879	181.76
752.064	339.45
752.248	173.57
752.432	294.4
752.617	280.06
752.801	220.67
752.985	120.32
753.17	257.53
753.354	212.48
753.538	216.57
753.722	148.99
753.907	124.41
754.091	99.84
754.275	204.28
754.459	140.8
754.643	73.21
754.828	171.52
755.012	189.95
755.196	161.28
755.38	204.28
755.564	132.61
755.748	198.14
755.932	204.28
756.116	177.66
756.3	218.62
756.484	140.8
756.668	155.13
756.852	138.75
757.036	157.18
757.22	159.23
757.404	101.89
757.588	140.8
757.772	202.24
757.956	230.91
758.14	257.53
758.323	122.37
758.507	118.27
758.691	151.04
758.875	181.76
759.059	241.15
759.242	140.8
759.426	126.46
759.61	171.52
759.794	118.27
759.977	226.81
760.161	329.21
760.345	314.88
760.528	222.72
760.712	95.74
760.895	189.95
761.079	124.41
761.263	58.88
761.446	118.27
761.63	187.9
761.813	202.24
761.997	91.65
762.18	110.08
762.364	120.32
762.547	11.78
762.731	144.89
762.914	146.94
763.098	44.54
763.281	87.55
763.464	15.87
763.648	165.37
763.831	116.22
764.015	77.31
764.198	200.19
764.381	110.08
764.564	85.5
764.748	140.8
764.931	171.52
765.114	89.6
765.297	173.57
765.481	34.3
765.664	167.42
765.847	83.45
766.03	255.48
766.213	-2.56
766.397	85.5
766.58	17.92
766.763	200.19
766.946	67.07
767.129	77.31
767.312	42.5
767.495	77.31
767.678	73.21
767.861	118.27
768.044	75.26
768.227	95.74
768.41	42.5
768.593	89.6
768.776	67.07
768.959	52.74
769.142	155.13
769.324	103.93
769.507	110.08
769.69	44.54
769.873	69.12
770.056	212.48
770.239	22.02
770.421	138.75
770.604	87.55
770.787	69.12
770.97	134.65
771.152	42.5
771.335	110.08
771.518	-43.52
771.7	202.24
771.883	214.52
772.066	89.6
772.248	118.27
772.431	185.85
772.613	153.09
772.796	42.5
772.978	124.41
773.161	167.42
773.343	40.45
773.526	19.97
773.708	-2.56
773.891	-80.38
774.073	5.63
774.256	54.78
774.438	241.15
774.621	79.36
774.803	118.27
774.985	97.79
775.168	83.45
775.35	77.31
775.532	108.03
775.715	34.3
775.897	177.66
776.079	13.82
776.261	81.41
776.444	58.88
776.626	91.65
776.808	30.21
776.99	26.11
777.173	-18.94
777.355	101.89
777.537	62.98
777.719	110.08
777.901	7.68
778.083	-39.42
778.265	-45.57
778.447	93.69
778.629	73.21
778.811	126.46
778.993	192
779.175	202.24
779.357	73.21
779.539	-41.47
779.721	56.83
779.903	108.03
780.085	44.54
780.267	67.07
780.449	32.26
780.631	116.22
780.812	181.76
780.994	-2.56
781.176	85.5
781.358	-12.8
781.54	-2.56
781.721	126.46
781.903	136.7
782.085	1.54
782.267	122.37
782.448	-43.52
782.63	99.84
782.812	71.17
782.993	67.07
783.175	155.13
783.357	-14.85
783.538	9.73
783.72	-23.04
783.901	87.55
784.083	146.94
784.264	5.63
784.446	-78.33
784.627	-39.42
784.809	17.92
784.99	-43.52
785.172	103.93
785.353	-12.8
785.535	60.93
785.716	-55.81
785.897	-31.23
786.079	-20.99
786.26	118.27
786.441	95.74
786.623	-66.05
786.804	19.97
786.985	124.41
787.167	62.98
787.348	19.97
787.529	-0.51
787.71	130.56
787.891	130.56
788.073	-64
788.254	-49.66
788.435	144.89
788.616	34.3
788.797	22.02
788.978	62.98
789.159	24.06
789.34	79.36
789.522	75.26
789.703	-25.09
789.884	62.98
790.065	65.02
790.246	148.99
790.427	-14.85
790.607	105.98
790.788	120.32
790.969	32.26
791.15	26.11
791.331	-53.76
791.512	24.06
791.693	-49.66
791.874	15.87
792.054	194.05
792.235	93.69
792.416	-6.66
792.597	-70.14
792.778	75.26
792.958	5.63
793.139	128.51
793.32	5.63
793.5	56.83
793.681	159.23
793.862	19.97
794.042	5.63
794.223	7.68
794.404	-0.51
794.584	-64
794.765	11.78
794.945	91.65
795.126	110.08
795.306	42.5
795.487	62.98
795.667	30.21
795.848	77.31
796.028	-10.75
796.209	-47.62
796.389	60.93
796.57	36.35
796.75	-88.57
796.93	-33.28
797.111	-35.33
797.291	26.11
797.471	69.12
797.652	5.63
797.832	3.58
798.012	50.69
798.192	3.58
798.373	-35.33
798.553	-20.99
798.733	62.98
798.913	-61.95
799.093	-27.14
799.274	71.17
799.454	28.16
799.634	85.5
799.814	75.26
799.994	91.65
800.174	62.98
800.354	13.82
800.534	-39.42
800.714	36.35
800.894	-72.19
801.074	-121.34
801.254	1.54
801.434	155.13
801.614	5.63
801.794	-33.28
801.974	1736.17
802.154	-43.52
802.334	83.45
802.514	-4.61
802.693	-59.9
802.873	17.92
803.053	163.33
803.233	30.21
803.413	13.82
803.592	-37.38
803.772	-55.81
803.952	-31.23
804.131	83.45
804.311	79.36
804.491	136.7
804.67	-47.62
804.85	-35.33
805.03	65.02
805.209	62.98
805.389	24.06
805.568	19.97
805.748	-12.8
805.928	95.74
806.107	42.5
806.287	65.02
806.466	22.02
806.646	-8.7
806.825	52.74
807.004	-76.29
807.184	38.4
807.363	87.55
807.543	52.74
807.722	-18.94
807.901	93.69
808.081	17.92
808.26	-53.76
808.439	28.16
808.619	7.68
808.798	-37.38
808.977	95.74
809.156	87.55
809.336	85.5
809.515	38.4
809.694	-27.14
809.873	-29.18
810.052	60.93
810.231	83.45
810.411	116.22
810.59	126.46
810.769	-31.23
810.948	48.64
811.127	-84.48
811.306	-102.91
811.485	-66.05
811.664	75.26
811.843	-41.47
812.022	-0.51
812.201	-33.28
812.38	-61.95
812.559	9.73
812.737	13.82
812.916	-104.96
813.095	-35.33
813.274	17.92
813.453	11.78
813.632	19.97
813.811	15.87
813.989	-78.33
814.168	-8.7
814.347	-86.53
814.526	-76.29
814.704	128.51
814.883	67.07
815.062	-49.66
815.24	13.82
815.419	-0.51
815.598	91.65
815.776	-82.43
815.955	56.83
816.133	-104.96
816.312	-49.66
816.49	-49.66
816.669	58.88
816.847	50.69
817.026	65.02
817.204	120.32
817.383	-33.28
817.561	-96.77
817.74	7.68
817.918	95.74
818.097	-133.63
818.275	-64
818.453	101.89
818.632	9.73
818.81	-68.09
818.988	-14.85
819.167	-100.86
819.345	-57.86
819.523	-35.33
819.701	5.63
819.879	101.89
820.058	85.5
820.236	-20.99
820.414	-8.7
820.592	-55.81
820.77	-25.09
820.948	-59.9
821.127	-20.99
821.305	-10.75
821.483	-8.7
821.661	65.02
821.839	28.16
822.017	-33.28
822.195	-37.38
822.373	65.02
822.551	-33.28
822.729	28.16
822.907	-8.7
823.085	42.5
823.262	5.63
823.44	26.11
823.618	-57.86
823.796	-27.14
823.974	-64
824.152	-72.19
824.329	-53.76
824.507	17.92
824.685	9.73
824.863	40.45
825.04	-64
825.218	22.02
825.396	-8.7
825.574	40.45
825.751	99.84
825.929	40.45
826.107	-41.47
826.284	26.11
826.462	17.92
826.639	-109.05
826.817	-33.28
826.994	-29.18
827.172	-25.09
827.349	140.8
827.527	7.68
827.704	-35.33
827.882	38.4
828.059	22.02
828.237	-94.72
828.414	108.03
828.591	-119.29
828.769	52.74
828.946	-57.86
829.124	11.78
829.301	17.92
829.478	40.45
829.655	-0.51
829.833	-23.04
830.01	-33.28
830.187	-12.8
830.364	50.69
830.542	40.45
830.719	91.65
830.896	-8.7
831.073	38.4
831.25	26.11
831.427	65.02
831.604	-66.05
831.782	-111.1
831.959	26.11
832.136	7.68
832.313	-20.99
832.49	-2.56
832.667	46.59
832.844	19.97
833.021	73.21
833.198	-41.47
833.374	1.54
833.551	138.75
833.728	-12.8
833.905	40.45
834.082	-139.77
834.259	-76.29
834.436	48.64
834.612	-78.33
834.789	34.3
834.966	9.73
835.143	-10.75
835.319	-29.18
835.496	-51.71
835.673	65.02
835.85	87.55
836.026	130.56
836.203	101.89
836.38	-43.52
836.556	-129.53
836.733	-59.9
836.909	91.65
837.086	-104.96
837.262	-51.71
837.439	-2.56
837.616	-29.18
837.792	-23.04
837.968	-55.81
838.145	-98.81
838.321	13.82
838.498	32.26
838.674	46.59
838.851	-25.09
839.027	19.97
839.203	-49.66
839.38	-4.61
839.556	-25.09
839.732	34.3
839.909	38.4
840.085	32.26
840.261	-25.09
840.437	13.82
840.614	-107.01
840.79	69.12
840.966	54.78
841.142	-18.94
841.318	5.63
841.494	56.83
841.671	87.55
841.847	-43.52
842.023	-51.71
842.199	56.83
842.375	140.8
842.551	-59.9
842.727	-49.66
842.903	67.07
843.079	-49.66
843.255	126.46
843.431	24.06
843.607	-8.7
843.783	-111.1
843.959	-31.23
844.134	-55.81
844.31	159.23
844.486	-84.48
844.662	-90.62
844.838	-27.14
845.013	-4.61
845.189	91.65
845.365	-6.66
845.541	15.87
845.716	36.35
845.892	46.59
846.068	-33.28
846.244	-98.81
846.419	5.63
846.595	-27.14
846.77	-12.8
846.946	105.98
847.122	-53.76
847.297	-0.51
847.473	122.37
847.648	-123.39
847.824	7.68
847.999	-102.91
848.175	-104.96
848.35	42.5
848.526	112.13
848.701	87.55
848.876	120.32
849.052	44.54
849.227	89.6
849.403	-33.28
849.578	-74.24
849.753	44.54
849.929	-31.23
850.104	-127.49
850.279	36.35
850.454	-55.81
850.63	42.5
850.805	-31.23
850.98	46.59
851.155	9.73
851.33	1.54
851.505	-121.34
851.681	116.22
851.856	-94.72
852.031	95.74
852.206	71.17
852.381	-119.29
852.556	-14.85
852.731	79.36
852.906	85.5
853.081	-20.99
853.256	17.92
853.431	58.88
853.606	-80.38
853.781	-14.85
853.956	-96.77
854.131	15.87
854.305	-12.8
854.48	-47.62
854.655	-0.51
854.83	-72.19
855.005	9.73
855.18	-53.76
855.354	-16.9
855.529	40.45
855.704	-6.66
855.879	22.02
856.053	-0.51
856.228	-18.94
856.403	-92.67
856.577	-10.75
856.752	-90.62
856.926	50.69
857.101	-49.66
857.276	-61.95
857.45	-14.85
857.625	62.98
857.799	58.88
857.974	19.97
858.148	-117.25
858.323	-33.28
858.497	-68.09
858.672	-68.09
858.846	-55.81
859.02	44.54
859.195	-35.33
859.369	-16.9
859.543	1.54
859.718	-2.56
859.892	-31.23
860.066	5.63
860.241	-61.95
860.415	-14.85
860.589	-18.94
860.763	-39.42
860.938	-14.85
861.112	-59.9
861.286	-51.71
861.46	1.54
861.634	-33.28
861.808	34.3
861.982	-23.04
862.157	-150.01
862.331	-123.39
862.505	-154.11
862.679	-88.57
862.853	-80.38
863.027	-8.7
863.201	161.28
863.375	-41.47
863.549	15.87
863.722	-2.56
863.896	130.56
864.07	-84.48
864.244	-53.76
864.418	34.3
864.592	60.93
864.766	-57.86
864.939	19.97
865.113	-66.05
865.287	159.23
865.461	-76.29
865.634	28.16
865.808	-23.04
865.982	-61.95
866.156	-8.7
866.329	-51.71
866.503	-18.94
866.676	58.88
866.85	-27.14
867.024	-18.94
867.197	95.74
867.371	15.87
867.544	9.73
867.718	-74.24
867.891	79.36
868.065	-154.11
868.238	40.45
868.412	13.82
868.585	-4.61
868.759	-133.63
868.932	-25.09
869.105	-92.67
869.279	-20.99
869.452	-10.75
869.625	38.4
869.799	34.3
869.972	-41.47
870.145	-113.15
870.319	46.59
870.492	-51.71
870.665	-0.51
870.838	-70.14
871.011	-57.86
871.185	7.68
871.358	-64
871.531	52.74
871.704	-55.81
871.877	-35.33
872.05	28.16
872.223	-100.86
872.396	-8.7
872.569	32.26
872.742	-88.57
872.915	-31.23
873.088	-143.87
873.261	-82.43
873.434	132.61
873.607	-47.62
873.78	69.12
873.953	-104.96
874.126	1.54
874.299	3.58
874.471	-61.95
874.644	-35.33
874.817	24.06
874.99	144.89
875.163	-76.29
875.335	67.07
875.508	-64
875.681	28.16
875.853	19.97
876.026	-6.66
876.199	17.92
876.371	-41.47
876.544	30.21
876.717	60.93
876.889	58.88
877.062	62.98
877.234	-100.86
877.407	-25.09
877.579	118.27
877.752	-12.8
877.924	97.79
878.097	19.97
878.269	-4.61
878.442	-12.8
878.614	60.93
878.786	36.35
878.959	9.73
879.131	28.16
879.303	-113.15
879.476	-70.14
879.648	116.22
879.82	-18.94
879.993	-59.9
880.165	-35.33
880.337	-64
880.509	-70.14
880.681	-80.38
880.854	-55.81
881.026	44.54
881.198	116.22
881.37	-59.9
881.542	19.97
881.714	-0.51
881.886	-41.47
882.058	1.54
882.23	54.78
882.402	48.64
882.574	30.21
882.746	30.21
882.918	85.5
883.09	-14.85
883.262	-45.57
883.434	24.06
883.606	-74.24
883.778	-39.42
883.95	138.75
884.122	-78.33
884.293	48.64
884.465	-29.18
884.637	42.5
884.809	-4.61
884.98	-27.14
885.152	-18.94
885.324	-39.42
885.496	-16.9
885.667	-113.15
885.839	-16.9
886.011	48.64
886.182	24.06
886.354	67.07
886.525	101.89
886.697	-14.85
886.869	-43.52
887.04	-70.14
887.212	112.13
887.383	130.56
887.555	26.11
887.726	-33.28
887.897	3.58
888.069	-6.66
888.24	36.35
888.412	-59.9
888.583	-119.29
888.754	-8.7
888.926	-121.34
889.097	-57.86
889.268	-80.38
889.44	-23.04
889.611	-102.91
889.782	-51.71
889.953	-47.62
890.125	50.69
890.296	-80.38
890.467	-6.66
890.638	-47.62
890.809	13.82
890.98	13.82
891.151	40.45
891.323	95.74
891.494	-31.23
891.665	-12.8
891.836	65.02
892.007	-2.56
892.178	-18.94
892.349	7.68
892.52	-18.94
892.691	-70.14
892.862	1.54
893.032	-107.01
893.203	-25.09
893.374	-6.66
893.545	103.93
893.716	30.21
893.887	40.45
894.057	-66.05
894.228	-104.96
894.399	-53.76
894.57	40.45
894.74	11.78
894.911	32.26
895.082	-113.15
895.253	-121.34
895.423	-96.77
895.594	-6.66
895.764	-18.94
895.935	-51.71
896.106	44.54
896.276	-115.2
896.447	24.06
896.617	-82.43
896.788	-45.57
896.958	-29.18
897.129	-68.09
897.299	-27.14
897.47	79.36
897.64	56.83
897.81	-6.66
897.981	40.45
898.151	-109.05
898.322	-20.99
898.492	67.07
898.662	-123.39
898.832	-51.71
899.003	17.92
899.173	-16.9
899.343	-4.61
899.513	-109.05
