Data from USB4F104151__9__09-24-53-324.txt Node

Date: Wed Feb 26 09:24:53 EST 2025
User: louis
Spectrometer: USB4F10415
Trigger mode: 4
Integration Time (sec): 1.000000E-1
Scans to average: 1
Electric dark correction enabled: true
Nonlinearity correction enabled: false
Boxcar width: 0
XAxis mode: Wavelengths
Number of Pixels in Spectrum: 3648
>>>>>Begin Spectral Data<<<<<
178.204	-343.55
178.424	-343.55
178.644	-343.55
178.864	-351.74
179.084	-327.16
179.304	76.29
179.524	33.28
179.744	-3.58
179.964	55.81
180.184	8.7
180.404	41.47
180.624	-40.45
180.844	-7.68
181.064	-81.41
181.283	35.33
181.503	-93.69
181.723	-24.06
181.943	-124.41
182.163	156.16
182.383	-1.54
182.602	94.72
182.822	180.73
183.042	94.72
183.262	6.66
183.482	18.94
183.701	68.09
183.921	33.28
184.141	-101.89
184.361	70.14
184.58	25.09
184.8	45.57
185.02	-15.87
185.239	145.92
185.459	20.99
185.679	78.33
185.898	-155.13
186.118	39.42
186.338	-17.92
186.557	123.39
186.777	-73.21
186.997	4.61
187.216	12.8
187.436	135.68
187.655	86.53
187.875	119.29
188.095	6.66
188.314	49.66
188.534	84.48
188.753	-58.88
188.973	16.9
189.192	107.01
189.412	-11.78
189.631	25.09
189.851	82.43
190.07	143.87
190.29	-58.88
190.509	23.04
190.729	39.42
190.948	98.81
191.168	193.02
191.387	4.61
191.607	80.38
191.826	41.47
192.045	-24.06
192.265	33.28
192.484	78.33
192.704	23.04
192.923	-24.06
193.142	147.97
193.362	12.8
193.581	170.49
193.8	20.99
194.02	64
194.239	-5.63
194.458	8.7
194.678	-15.87
194.897	49.66
195.116	-26.11
195.335	-7.68
195.555	123.39
195.774	16.9
195.993	41.47
196.212	-24.06
196.432	-22.02
196.651	-19.97
196.87	-38.4
197.089	131.58
197.308	82.43
197.528	61.95
197.747	-28.16
197.966	45.57
198.185	82.43
198.404	-24.06
198.623	72.19
198.842	51.71
199.062	98.81
199.281	150.01
199.5	31.23
199.719	8.7
199.938	18.94
200.157	27.14
200.376	8.7
200.595	66.05
200.814	2.56
201.033	41.47
201.252	152.06
201.471	51.71
201.69	109.05
201.909	25.09
202.128	41.47
202.347	31.23
202.566	33.28
202.785	-32.26
203.004	-3.58
203.223	184.83
203.442	49.66
203.661	-103.93
203.879	55.81
204.098	129.53
204.317	4.61
204.536	78.33
204.755	86.53
204.974	78.33
205.193	29.18
205.411	154.11
205.63	117.25
205.849	-28.16
206.068	-3.58
206.287	70.14
206.505	139.77
206.724	8.7
206.943	31.23
207.162	33.28
207.381	70.14
207.599	25.09
207.818	82.43
208.037	39.42
208.255	76.29
208.474	41.47
208.693	2.56
208.911	27.14
209.13	72.19
209.349	20.99
209.567	23.04
209.786	121.34
210.005	121.34
210.223	121.34
210.442	-40.45
210.661	14.85
210.879	90.62
211.098	12.8
211.316	141.82
211.535	102.91
211.753	6.66
211.972	68.09
212.191	25.09
212.409	6.66
212.628	53.76
212.846	-24.06
213.065	-5.63
213.283	100.86
213.502	39.42
213.72	53.76
213.938	0.51
214.157	25.09
214.375	64
214.594	31.23
214.812	84.48
215.031	41.47
215.249	27.14
215.467	4.61
215.686	-1.54
215.904	29.18
216.122	-40.45
216.341	80.38
216.559	29.18
216.778	8.7
216.996	107.01
217.214	10.75
217.432	-42.5
217.651	23.04
217.869	57.86
218.087	45.57
218.306	4.61
218.524	47.62
218.742	-62.98
218.96	90.62
219.179	57.86
219.397	43.52
219.615	197.12
219.833	43.52
220.051	-34.3
220.27	111.1
220.488	131.58
220.706	25.09
220.924	-19.97
221.142	-19.97
221.36	33.28
221.578	0.51
221.796	55.81
222.015	-24.06
222.233	-13.82
222.451	86.53
222.669	-58.88
222.887	57.86
223.105	-40.45
223.323	29.18
223.541	-9.73
223.759	72.19
223.977	-22.02
224.195	137.73
224.413	-15.87
224.631	39.42
224.849	94.72
225.067	184.83
225.285	16.9
225.503	-36.35
225.721	-89.6
225.939	57.86
226.157	-22.02
226.375	156.16
226.592	-62.98
226.81	10.75
227.028	16.9
227.246	94.72
227.464	90.62
227.682	92.67
227.9	104.96
228.117	86.53
228.335	20.99
228.553	90.62
228.771	-17.92
228.989	72.19
229.206	-26.11
229.424	-42.5
229.642	29.18
229.86	-38.4
230.077	72.19
230.295	66.05
230.513	94.72
230.731	6.66
230.948	98.81
231.166	115.2
231.384	0.51
231.601	-3.58
231.819	82.43
232.037	8.7
232.254	-58.88
232.472	57.86
232.689	-24.06
232.907	137.73
233.125	2.56
233.342	-32.26
233.56	0.51
233.777	66.05
233.995	88.57
234.213	129.53
234.43	49.66
234.648	-17.92
234.865	-26.11
235.083	-7.68
235.3	12.8
235.518	96.77
235.735	80.38
235.953	61.95
236.17	-19.97
236.388	25.09
236.605	-52.74
236.822	61.95
237.04	51.71
237.257	0.51
237.475	-56.83
237.692	-15.87
237.909	90.62
238.127	59.9
238.344	94.72
238.562	39.42
238.779	-19.97
238.996	-24.06
239.214	-91.65
239.431	84.48
239.648	-7.68
239.865	0.51
240.083	74.24
240.3	37.38
240.517	20.99
240.735	8.7
240.952	115.2
241.169	59.9
241.386	74.24
241.603	14.85
241.821	-36.35
242.038	64
242.255	86.53
242.472	-40.45
242.689	20.99
242.907	86.53
243.124	16.9
243.341	-28.16
243.558	51.71
243.775	8.7
243.992	-56.83
244.209	86.53
244.426	100.86
244.643	104.96
244.86	39.42
245.078	41.47
245.295	76.29
245.512	66.05
245.729	-48.64
245.946	39.42
246.163	14.85
246.38	-54.78
246.597	16.9
246.814	39.42
247.031	-19.97
247.248	31.23
247.464	102.91
247.681	59.9
247.898	20.99
248.115	14.85
248.332	-13.82
248.549	152.06
248.766	127.49
248.983	45.57
249.2	90.62
249.417	-38.4
249.633	16.9
249.85	84.48
250.067	39.42
250.284	33.28
250.501	53.76
250.717	113.15
250.934	-30.21
251.151	16.9
251.368	66.05
251.585	80.38
251.801	-9.73
252.018	-58.88
252.235	86.53
252.451	-24.06
252.668	41.47
252.885	74.24
253.102	-42.5
253.318	53.76
253.535	-22.02
253.752	-9.73
253.968	-7.68
254.185	-40.45
254.401	-15.87
254.618	117.25
254.835	-50.69
255.051	57.86
255.268	41.47
255.484	20.99
255.701	51.71
255.917	115.2
256.134	20.99
256.351	-56.83
256.567	-46.59
256.784	25.09
257	-114.17
257.217	92.67
257.433	8.7
257.65	51.71
257.866	115.2
258.082	-60.93
258.299	-46.59
258.515	12.8
258.732	64
258.948	-50.69
259.165	29.18
259.381	-1.54
259.597	6.66
259.814	4.61
260.03	-30.21
260.246	23.04
260.463	74.24
260.679	49.66
260.895	20.99
261.112	45.57
261.328	10.75
261.544	-40.45
261.761	154.11
261.977	47.62
262.193	-42.5
262.409	55.81
262.626	12.8
262.842	43.52
263.058	-7.68
263.274	100.86
263.49	0.51
263.707	123.39
263.923	8.7
264.139	-50.69
264.355	-13.82
264.571	61.95
264.787	104.96
265.004	121.34
265.22	8.7
265.436	-52.74
265.652	-13.82
265.868	12.8
266.084	-22.02
266.3	-44.54
266.516	-124.41
266.732	45.57
266.948	29.18
267.164	-28.16
267.38	25.09
267.596	53.76
267.812	96.77
268.028	16.9
268.244	29.18
268.46	-40.45
268.676	14.85
268.892	37.38
269.108	-26.11
269.324	-24.06
269.54	-34.3
269.756	104.96
269.972	-73.21
270.188	55.81
270.403	-79.36
270.619	57.86
270.835	88.57
271.051	-13.82
271.267	29.18
271.483	-60.93
271.698	137.73
271.914	43.52
272.13	12.8
272.346	4.61
272.562	-54.78
272.777	135.68
272.993	29.18
273.209	74.24
273.425	33.28
273.64	-79.36
273.856	107.01
274.072	-54.78
274.287	-114.17
274.503	51.71
274.719	78.33
274.934	-9.73
275.15	-24.06
275.366	72.19
275.581	-48.64
275.797	51.71
276.012	-54.78
276.228	49.66
276.444	27.14
276.659	43.52
276.875	-26.11
277.09	-36.35
277.306	-26.11
277.521	-5.63
277.737	-15.87
277.952	82.43
278.168	25.09
278.383	-40.45
278.599	78.33
278.814	55.81
279.03	82.43
279.245	127.49
279.461	66.05
279.676	82.43
279.892	-65.02
280.107	-44.54
280.322	-15.87
280.538	31.23
280.753	-40.45
280.969	123.39
281.184	-54.78
281.399	127.49
281.615	8.7
281.83	-24.06
282.045	-52.74
282.26	37.38
282.476	82.43
282.691	37.38
282.906	53.76
283.122	98.81
283.337	33.28
283.552	104.96
283.767	-105.98
283.983	160.25
284.198	-5.63
284.413	90.62
284.628	-65.02
284.843	47.62
285.058	-24.06
285.274	-17.92
285.489	16.9
285.704	66.05
285.919	-22.02
286.134	61.95
286.349	-17.92
286.564	-26.11
286.779	139.77
286.995	49.66
287.21	-50.69
287.425	-40.45
287.64	18.94
287.855	-24.06
288.07	23.04
288.285	37.38
288.5	70.14
288.715	49.66
288.93	64
289.145	-32.26
289.36	90.62
289.575	-32.26
289.79	94.72
290.004	119.29
290.219	102.91
290.434	-22.02
290.649	18.94
290.864	0.51
291.079	-22.02
291.294	104.96
291.509	55.81
291.724	12.8
291.938	-19.97
292.153	6.66
292.368	-9.73
292.583	80.38
292.798	39.42
293.012	39.42
293.227	68.09
293.442	-44.54
293.657	123.39
293.871	119.29
294.086	33.28
294.301	168.45
294.516	109.05
294.73	88.57
294.945	-24.06
295.16	4.61
295.374	127.49
295.589	59.9
295.804	94.72
296.018	72.19
296.233	160.25
296.447	82.43
296.662	-22.02
296.877	111.1
297.091	45.57
297.306	-11.78
297.52	45.57
297.735	76.29
297.949	12.8
298.164	78.33
298.378	64
298.593	-28.16
298.807	-89.6
299.022	25.09
299.236	90.62
299.451	20.99
299.665	-9.73
299.88	98.81
300.094	23.04
300.309	8.7
300.523	117.25
300.737	33.28
300.952	29.18
301.166	12.8
301.381	-65.02
301.595	27.14
301.809	10.75
302.024	61.95
302.238	-97.79
302.452	88.57
302.667	14.85
302.881	68.09
303.095	156.16
303.309	64
303.524	-46.59
303.738	57.86
303.952	-22.02
304.166	39.42
304.381	-71.17
304.595	123.39
304.809	53.76
305.023	33.28
305.237	-26.11
305.452	57.86
305.666	119.29
305.88	-1.54
306.094	-32.26
306.308	57.86
306.522	129.53
306.736	25.09
306.95	119.29
307.164	74.24
307.379	61.95
307.593	150.01
307.807	37.38
308.021	125.44
308.235	23.04
308.449	-81.41
308.663	-22.02
308.877	111.1
309.091	-46.59
309.305	6.66
309.519	-110.08
309.733	109.05
309.947	47.62
310.161	74.24
310.374	119.29
310.588	98.81
310.802	-40.45
311.016	-7.68
311.23	31.23
311.444	10.75
311.658	27.14
311.872	59.9
312.085	88.57
312.299	129.53
312.513	53.76
312.727	66.05
312.941	-28.16
313.154	23.04
313.368	-3.58
313.582	-11.78
313.796	18.94
314.009	23.04
314.223	115.2
314.437	43.52
314.651	66.05
314.864	2.56
315.078	-46.59
315.292	-34.3
315.505	-15.87
315.719	86.53
315.933	16.9
316.146	-19.97
316.36	12.8
316.573	41.47
316.787	23.04
317.001	57.86
317.214	25.09
317.428	66.05
317.641	-50.69
317.855	-34.3
318.068	41.47
318.282	96.77
318.495	180.73
318.709	78.33
318.922	-73.21
319.136	162.3
319.349	104.96
319.563	-1.54
319.776	72.19
319.99	-95.74
320.203	96.77
320.417	43.52
320.63	8.7
320.843	123.39
321.057	-46.59
321.27	16.9
321.483	23.04
321.697	66.05
321.91	16.9
322.124	135.68
322.337	33.28
322.55	-5.63
322.763	25.09
322.977	47.62
323.19	-15.87
323.403	4.61
323.617	45.57
323.83	35.33
324.043	-9.73
324.256	16.9
324.469	-24.06
324.683	49.66
324.896	-7.68
325.109	8.7
325.322	-97.79
325.535	70.14
325.748	4.61
325.962	37.38
326.175	20.99
326.388	43.52
326.601	102.91
326.814	-22.02
327.027	70.14
327.24	154.11
327.453	-62.98
327.666	20.99
327.879	66.05
328.092	37.38
328.305	49.66
328.518	-50.69
328.731	-9.73
328.944	86.53
329.157	74.24
329.37	-36.35
329.583	100.86
329.796	78.33
330.009	-69.12
330.222	76.29
330.435	76.29
330.648	47.62
330.861	0.51
331.073	35.33
331.286	104.96
331.499	37.38
331.712	-36.35
331.925	41.47
332.138	-32.26
332.35	80.38
332.563	-101.89
332.776	119.29
332.989	-7.68
333.202	-22.02
333.414	33.28
333.627	-36.35
333.84	125.44
334.053	-9.73
334.265	-58.88
334.478	78.33
334.691	-13.82
334.903	68.09
335.116	-7.68
335.329	-7.68
335.541	88.57
335.754	172.54
335.966	20.99
336.179	88.57
336.392	-28.16
336.604	8.7
336.817	104.96
337.029	68.09
337.242	23.04
337.454	-1.54
337.667	35.33
337.88	160.25
338.092	29.18
338.305	29.18
338.517	6.66
338.729	78.33
338.942	131.58
339.154	51.71
339.367	-7.68
339.579	-3.58
339.792	14.85
340.004	70.14
340.217	78.33
340.429	98.81
340.641	0.51
340.854	-17.92
341.066	-48.64
341.278	125.44
341.491	154.11
341.703	33.28
341.915	14.85
342.128	98.81
342.34	45.57
342.552	8.7
342.764	39.42
342.977	12.8
343.189	47.62
343.401	16.9
343.613	-44.54
343.826	23.04
344.038	35.33
344.25	64
344.462	-34.3
344.674	29.18
344.886	-44.54
345.099	33.28
345.311	25.09
345.523	27.14
345.735	-97.79
345.947	127.49
346.159	78.33
346.371	10.75
346.583	49.66
346.795	207.36
347.007	49.66
347.219	-7.68
347.431	-56.83
347.643	-19.97
347.855	45.57
348.067	119.29
348.279	-110.08
348.491	-1.54
348.703	127.49
348.915	-44.54
349.127	59.9
349.339	41.47
349.551	18.94
349.763	53.76
349.975	74.24
350.187	78.33
350.399	115.2
350.61	86.53
350.822	102.91
351.034	84.48
351.246	20.99
351.458	113.15
351.669	41.47
351.881	45.57
352.093	53.76
352.305	102.91
352.517	64
352.728	31.23
352.94	29.18
353.152	111.1
353.363	-75.26
353.575	25.09
353.787	74.24
353.999	41.47
354.21	98.81
354.422	43.52
354.633	14.85
354.845	6.66
355.057	41.47
355.268	72.19
355.48	35.33
355.692	-11.78
355.903	-11.78
356.115	-40.45
356.326	14.85
356.538	104.96
356.749	12.8
356.961	111.1
357.172	-32.26
357.384	-26.11
357.595	131.58
357.807	-36.35
358.018	-34.3
358.23	29.18
358.441	135.68
358.653	78.33
358.864	72.19
359.075	43.52
359.287	47.62
359.498	100.86
359.709	78.33
359.921	72.19
360.132	49.66
360.344	12.8
360.555	0.51
360.766	66.05
360.977	8.7
361.189	119.29
361.4	-7.68
361.611	104.96
361.823	86.53
362.034	0.51
362.245	-65.02
362.456	-36.35
362.667	35.33
362.879	-40.45
363.09	53.76
363.301	18.94
363.512	-3.58
363.723	-79.36
363.935	-24.06
364.146	66.05
364.357	23.04
364.568	47.62
364.779	-65.02
364.99	82.43
365.201	23.04
365.412	86.53
365.623	-26.11
365.834	78.33
366.045	72.19
366.256	70.14
366.467	-26.11
366.678	-7.68
366.889	66.05
367.1	35.33
367.311	72.19
367.522	-7.68
367.733	82.43
367.944	41.47
368.155	-15.87
368.366	20.99
368.577	82.43
368.788	88.57
368.999	35.33
369.209	-5.63
369.42	139.77
369.631	219.64
369.842	94.72
370.053	-34.3
370.264	111.1
370.474	-19.97
370.685	-15.87
370.896	0.51
371.107	139.77
371.317	20.99
371.528	-1.54
371.739	107.01
371.95	74.24
372.16	18.94
372.371	14.85
372.582	-3.58
372.792	100.86
373.003	70.14
373.214	41.47
373.424	80.38
373.635	25.09
373.846	127.49
374.056	0.51
374.267	27.14
374.477	-5.63
374.688	8.7
374.898	98.81
375.109	68.09
375.319	0.51
375.53	61.95
375.74	47.62
375.951	4.61
376.161	102.91
376.372	98.81
376.582	39.42
376.793	53.76
377.003	16.9
377.214	31.23
377.424	88.57
377.635	0.51
377.845	-15.87
378.055	115.2
378.266	-52.74
378.476	12.8
378.686	23.04
378.897	86.53
379.107	127.49
379.317	61.95
379.528	78.33
379.738	57.86
379.948	14.85
380.158	176.64
380.369	49.66
380.579	104.96
380.789	-9.73
380.999	82.43
381.21	117.25
381.42	227.84
381.63	-32.26
381.84	31.23
382.05	86.53
382.261	64
382.471	78.33
382.681	16.9
382.891	195.07
383.101	64
383.311	80.38
383.521	61.95
383.731	102.91
383.941	12.8
384.151	-7.68
384.361	57.86
384.571	53.76
384.781	25.09
384.991	139.77
385.201	170.49
385.411	115.2
385.621	55.81
385.831	41.47
386.041	45.57
386.251	4.61
386.461	88.57
386.671	12.8
386.881	66.05
387.091	-24.06
387.301	82.43
387.511	33.28
387.72	49.66
387.93	51.71
388.14	-7.68
388.35	45.57
388.56	111.1
388.769	96.77
388.979	41.47
389.189	39.42
389.399	-7.68
389.609	127.49
389.818	98.81
390.028	57.86
390.238	55.81
390.447	45.57
390.657	123.39
390.867	86.53
391.076	-71.17
391.286	55.81
391.496	8.7
391.705	-42.5
391.915	190.97
392.125	80.38
392.334	-56.83
392.544	129.53
392.753	80.38
392.963	-67.07
393.172	12.8
393.382	-15.87
393.591	205.31
393.801	39.42
394.01	137.73
394.22	113.15
394.429	55.81
394.639	-75.26
394.848	39.42
395.058	135.68
395.267	-13.82
395.477	119.29
395.686	135.68
395.895	162.3
396.105	193.02
396.314	78.33
396.524	96.77
396.733	4.61
396.942	102.91
397.152	127.49
397.361	78.33
397.57	82.43
397.78	-28.16
397.989	66.05
398.198	168.45
398.407	86.53
398.617	51.71
398.826	64
399.035	33.28
399.244	102.91
399.453	72.19
399.663	90.62
399.872	49.66
400.081	-28.16
400.29	121.34
400.499	-15.87
400.708	94.72
400.917	0.51
401.127	-48.64
401.336	41.47
401.545	129.53
401.754	94.72
401.963	98.81
402.172	10.75
402.381	-97.79
402.59	41.47
402.799	45.57
403.008	80.38
403.217	104.96
403.426	92.67
403.635	-13.82
403.844	45.57
404.053	84.48
404.262	8.7
404.471	131.58
404.68	41.47
404.888	-9.73
405.097	-3.58
405.306	61.95
405.515	107.01
405.724	64
405.933	139.77
406.142	0.51
406.35	14.85
406.559	74.24
406.768	-9.73
406.977	102.91
407.185	154.11
407.394	49.66
407.603	0.51
407.812	115.2
408.02	123.39
408.229	72.19
408.438	104.96
408.646	-32.26
408.855	-1.54
409.064	20.99
409.272	6.66
409.481	100.86
409.69	-65.02
409.898	4.61
410.107	33.28
410.315	76.29
410.524	-69.12
410.733	45.57
410.941	-15.87
411.15	57.86
411.358	113.15
411.567	143.87
411.775	41.47
411.984	66.05
412.192	16.9
412.401	-22.02
412.609	172.54
412.818	107.01
413.026	102.91
413.234	25.09
413.443	47.62
413.651	-1.54
413.86	6.66
414.068	102.91
414.276	203.26
414.485	-48.64
414.693	135.68
414.901	129.53
415.11	31.23
415.318	61.95
415.526	55.81
415.734	49.66
415.943	-9.73
416.151	98.81
416.359	82.43
416.567	72.19
416.776	31.23
416.984	80.38
417.192	172.54
417.4	49.66
417.608	37.38
417.817	-52.74
418.025	96.77
418.233	111.1
418.441	-32.26
418.649	-48.64
418.857	76.29
419.065	156.16
419.273	-17.92
419.481	16.9
419.689	88.57
419.897	66.05
420.105	-9.73
420.313	141.82
420.521	164.35
420.729	154.11
420.937	16.9
421.145	33.28
421.353	182.78
421.561	145.92
421.769	184.83
421.977	61.95
422.185	137.73
422.393	-1.54
422.601	180.73
422.809	61.95
423.017	20.99
423.224	2.56
423.432	61.95
423.64	41.47
423.848	57.86
424.056	-26.11
424.263	102.91
424.471	33.28
424.679	115.2
424.887	-15.87
425.094	115.2
425.302	78.33
425.51	31.23
425.718	135.68
425.925	88.57
426.133	16.9
426.341	238.08
426.548	31.23
426.756	70.14
426.964	90.62
427.171	2.56
427.379	96.77
427.586	66.05
427.794	176.64
428.001	158.21
428.209	74.24
428.417	168.45
428.624	102.91
428.832	131.58
429.039	107.01
429.247	82.43
429.454	57.86
429.662	274.94
429.869	160.25
430.076	143.87
430.284	94.72
430.491	250.36
430.699	119.29
430.906	133.63
431.114	104.96
431.321	139.77
431.528	107.01
431.736	219.64
431.943	178.69
432.15	170.49
432.358	213.5
432.565	195.07
432.772	61.95
432.979	135.68
433.187	193.02
433.394	254.46
433.601	70.14
433.808	219.64
434.016	242.17
434.223	203.26
434.43	254.46
434.637	293.37
434.844	301.56
435.052	303.61
435.259	143.87
435.466	285.18
435.673	250.36
435.88	195.07
436.087	287.23
436.294	311.8
436.501	360.95
436.708	315.9
436.915	303.61
437.122	360.95
437.329	371.19
437.537	385.53
437.743	326.14
437.95	426.49
438.157	401.91
438.364	342.52
438.571	426.49
438.778	418.3
438.985	512.5
439.192	397.82
439.399	463.35
439.606	455.16
439.813	524.79
440.02	561.66
440.227	651.77
440.433	569.85
440.64	635.38
440.847	481.78
441.054	668.15
441.261	684.53
441.467	657.91
441.674	766.45
441.881	778.74
442.088	743.92
442.294	813.56
442.501	758.26
442.708	870.9
442.914	872.95
443.121	893.43
443.328	975.35
443.534	999.92
443.741	979.44
443.948	965.11
444.154	1090.03
444.361	1294.83
444.568	1151.47
444.774	1184.24
444.981	1008.11
445.187	1346.03
445.394	1247.72
445.6	1255.92
445.807	1489.39
446.013	1315.31
446.22	1362.41
446.426	1507.82
446.633	1661.41
446.839	1798.63
447.046	1571.3
447.252	1780.2
447.459	1849.83
447.665	1815.01
447.871	1997.28
448.078	2187.74
448.284	2064.86
448.491	2165.21
448.697	2425.31
448.903	2394.59
449.11	2470.36
449.316	2445.79
449.522	2585.05
449.728	2644.44
449.935	2785.75
450.141	2816.47
450.347	3076.56
450.553	3043.79
450.76	3236.3
450.966	3310.03
451.172	3369.42
451.378	3426.76
451.584	3465.68
451.791	3891.65
451.997	3983.81
452.203	4018.63
452.409	4217.28
452.615	4342.21
452.821	4133.31
453.027	4350.4
453.233	4934.07
453.44	4647.35
453.646	5020.08
453.852	5247.41
454.058	5398.96
454.264	5515.69
454.47	5978.53
454.676	5865.89
454.882	6289.82
455.088	6056.36
455.294	6629.79
455.5	7061.91
455.705	7307.66
455.911	7344.53
456.117	7498.13
456.323	7793.03
456.529	8044.93
456.735	8583.55
456.941	8878.46
457.147	9159.03
457.352	9447.79
457.558	9662.83
457.764	10355.04
457.97	10641.76
458.176	10768.73
458.381	11440.47
458.587	11583.82
458.793	12142.92
458.999	12194.12
459.204	13791.53
459.41	14422.31
459.616	13762.86
459.821	14883.1
460.027	15563.03
460.233	16175.37
460.438	16206.09
460.644	17449.21
460.85	17281.27
461.055	18217.19
461.261	18907.36
461.466	18254.06
461.672	18909.41
461.878	21209.28
462.083	20994.24
462.289	21534.9
462.494	22341.8
462.7	22347.95
462.905	22673.57
463.111	24580.23
463.316	25600.12
463.522	25981.04
463.727	27285.6
463.932	27928.66
464.138	28743.75
464.343	30287.92
464.549	30107.7
464.754	32579.6
464.959	33331.2
465.165	33667.07
465.37	33593.34
465.575	33923.07
465.781	35952.6
465.986	36796.37
466.191	36378.58
466.397	36917.2
466.602	35768.29
466.807	37912.51
467.012	38434.74
467.218	39471.01
467.423	39325.61
467.628	40433.56
467.833	42588.02
468.038	41301.9
468.244	40458.13
468.449	43040.62
468.654	41883.52
468.859	42033.02
469.064	42045.31
469.269	40511.38
469.474	41107.34
469.679	42706.8
469.885	41197.45
470.09	41877.38
470.295	41957.25
470.5	40488.85
470.705	41310.09
470.91	40591.25
471.115	40292.25
471.32	40404.89
471.525	40210.33
471.73	38948.78
471.935	38797.23
472.139	37201.86
472.344	37875.65
472.549	37095.37
472.754	36505.55
472.959	35854.3
473.164	34760.69
473.369	34353.14
473.574	35174.38
473.778	34377.72
473.983	33810.43
474.188	33087.5
474.393	31803.42
474.598	31705.12
474.802	30687.28
475.007	30625.84
475.212	30001.21
475.417	29067.33
475.621	28387.41
475.826	28528.72
476.031	27766.87
476.235	27160.67
476.44	26867.81
476.645	26359.92
476.849	26175.6
477.054	25753.72
477.259	25198.72
477.463	25219.2
477.668	24242.32
477.872	24457.35
478.077	24092.82
478.282	22847.65
478.486	23204
478.691	22864.04
478.895	22329.52
479.1	22325.42
479.304	22147.25
479.509	21741.75
479.713	21948.59
479.918	21078.21
480.122	20875.46
480.326	21262.52
480.531	21020.86
480.735	20654.28
480.94	20369.61
481.144	21053.63
481.348	19722.45
481.553	20066.51
481.757	19491.03
481.961	19955.92
482.166	19779.79
482.37	19648.72
482.574	19171.55
482.778	19259.61
482.983	19353.82
483.187	18630.88
483.391	18940.13
483.595	18809.06
483.8	18370.79
484.004	18520.29
484.208	18583.78
484.412	18116.84
484.616	18004.21
484.821	17441.01
485.025	17160.44
485.229	17273.08
485.433	16939.26
485.637	16754.94
485.841	16339.21
486.045	16017.68
486.249	16070.92
486.453	15749.39
486.657	15780.11
486.861	15638.8
487.065	15020.31
487.269	15001.88
487.473	14467.36
487.677	14762.27
487.881	14618.91
488.085	13977.9
488.289	13805.87
488.493	13549.87
488.697	13519.15
488.901	13181.24
489.105	12890.43
489.309	12572.99
489.512	12683.58
489.716	12271.94
489.92	12030.28
490.124	11858.25
490.328	11723.09
490.531	11362.64
490.735	11174.23
490.939	11133.27
491.143	10821.98
491.346	10713.44
491.55	10682.72
491.754	10359.14
491.958	10387.81
492.161	10097
492.365	10045.8
492.569	9697.64
492.772	9556.33
492.976	9595.25
493.18	9492.85
493.383	9347.44
493.587	9048.44
493.79	9236.85
493.994	8890.74
494.197	8767.87
494.401	8698.24
494.605	8626.56
494.808	8575.36
495.012	8481.15
495.215	8511.87
495.419	8386.94
495.622	8190.34
495.825	8286.59
496.029	8192.39
496.232	8257.92
496.436	7973.25
496.639	8169.86
496.843	8085.89
497.046	8071.56
497.249	8221.06
497.453	8108.42
497.656	8053.13
497.859	7969.16
498.063	8204.67
498.266	8243.59
498.469	8073.6
498.673	8022.41
498.876	8298.88
499.079	8092.04
499.282	8126.85
499.485	8698.24
499.689	8302.98
499.892	8298.88
500.095	8302.98
500.298	8577.41
500.501	8454.53
500.705	8651.13
500.908	8726.91
501.111	8651.13
501.314	8722.81
501.517	8870.26
501.72	8929.66
501.923	8786.3
502.126	9134.45
502.329	9359.73
502.532	9324.91
502.735	9312.63
502.938	9531.76
503.141	9470.32
503.344	9607.53
503.547	9888.11
503.75	9945.45
503.953	10129.77
504.156	10211.68
504.359	10205.54
504.562	10375.52
504.765	10518.88
504.968	10910.04
505.17	11043.16
505.373	11084.12
505.576	11223.38
505.779	11592.02
505.982	11524.43
506.185	11817.29
506.387	11882.83
506.59	12245.32
506.793	12433.73
506.996	12708.16
507.198	12966.2
507.401	13207.86
507.604	13257.01
507.807	13666.61
508.009	13801.77
508.212	14194.98
508.415	14610.72
508.617	14747.93
508.82	14909.72
509.022	15147.29
509.225	15714.58
509.428	15577.36
509.63	16271.62
509.833	16322.82
510.035	17211.64
510.238	16898.3
510.44	17594.61
510.643	18180.33
510.845	18225.39
511.048	18860.26
511.25	19054.81
511.453	19562.71
511.655	20236.49
511.858	20441.29
512.06	20883.65
512.262	21313.72
512.465	21465.27
512.667	22149.29
512.87	22720.68
513.072	23247.01
513.274	23820.44
513.477	24295.57
513.679	24959.11
513.881	25514.11
514.084	26132.59
514.286	26833
514.488	27054.18
514.69	27986
514.893	28467.28
515.095	28862.54
515.297	29698.11
515.499	30132.28
515.701	30380.08
515.904	31313.95
516.106	32059.41
516.308	32618.51
516.51	33507.33
516.712	33730.56
516.914	34605.04
517.116	35465.19
517.318	35895.26
517.52	36515.79
517.722	36982.73
517.925	37935.04
518.127	38623.15
518.329	39186.35
518.531	39298.98
518.733	40363.93
518.935	40839.06
519.136	41414.54
519.338	42469.24
519.54	43048.82
519.742	43530.09
519.944	43870.05
520.146	44969.81
520.348	45762.37
520.55	45956.93
520.752	46327.61
520.954	47181.62
521.155	47154.99
521.357	48138.02
521.559	48750.36
521.761	49604.36
521.963	49772.3
522.164	49823.5
522.366	50341.63
522.568	51017.46
522.77	51277.55
522.971	51930.86
523.173	52088.55
523.375	52319.97
523.576	52309.73
523.778	52668.12
523.98	53532.37
524.181	53847.75
524.383	53542.61
524.584	54011.59
524.786	54056.65
524.988	54023.88
525.189	54228.68
525.391	54537.92
525.592	54224.58
525.794	54486.72
525.995	54208.2
526.197	54056.65
526.398	54191.81
526.6	54400.71
526.801	54044.36
527.003	53939.91
527.204	54003.4
527.406	54019.78
527.607	53405.39
527.808	53872.33
528.01	52813.53
528.211	52307.68
528.412	53331.67
528.614	52723.42
528.815	51949.29
529.016	52578.01
529.218	50736.89
529.419	50876.15
529.62	50499.33
529.822	49901.32
530.023	49469.2
530.224	49202.96
530.425	48891.67
530.626	47836.97
530.828	47204.14
531.029	48101.15
531.23	46843.7
531.431	46581.56
531.632	46065.47
531.833	45567.82
532.035	44672.85
532.236	44662.61
532.437	44169.05
532.638	43462.5
532.839	43358.06
533.04	42975.09
533.241	41670.53
533.442	41871.23
533.643	40980.37
533.844	40370.07
534.045	39942.05
534.246	39460.77
534.447	38823.86
534.648	38428.6
534.849	37842.88
535.05	37238.73
535.251	37271.5
535.451	36421.59
535.652	36196.31
535.853	35430.37
536.054	35065.83
536.255	34623.47
536.456	34027.51
536.657	33863.68
536.857	33273.86
537.058	32405.52
537.259	32458.77
537.46	31987.74
537.66	31492.13
537.861	31426.59
538.062	30437.42
538.263	30400.56
538.463	29835.32
538.664	29509.69
538.865	29427.77
539.065	29102.15
539.266	28117.07
539.466	28674.12
539.667	27768.92
539.868	27588.7
540.068	27170.91
540.269	26812.52
540.469	26820.71
540.67	25899.12
540.87	25858.17
541.071	25489.53
541.271	25317.5
541.472	25010.31
541.672	24969.35
541.873	24529.03
542.073	23984.27
542.274	24191.12
542.474	23617.69
542.675	23271.58
542.875	23373.98
543.075	23013.54
543.276	22509.74
543.476	22847.65
543.676	21831.86
543.877	22186.16
544.077	21637.3
544.277	21596.34
544.478	21321.91
544.678	21215.42
544.878	20648.13
545.078	20662.47
545.279	20273.35
545.479	19740.88
545.679	19499.22
545.879	19441.88
546.079	19800.27
546.28	19265.75
546.48	19040.48
546.68	19050.72
546.88	18628.84
547.08	18444.52
547.28	17897.71
547.48	17715.44
547.68	17561.84
547.88	17357.05
548.081	17381.62
548.281	16906.49
548.481	16703.75
548.681	16593.15
548.881	16302.34
549.081	16365.83
549.28	15962.38
549.48	15608.08
549.68	15487.25
549.88	15626.51
550.08	14981.4
550.28	14872.86
550.48	14967.07
550.68	14592.29
550.88	14493.99
551.08	13979.95
551.279	14285.09
551.479	13789.49
551.679	13646.13
551.879	13318.45
552.079	13414.71
552.278	13156.66
552.478	12771.65
552.678	12517.7
552.878	12529.98
553.077	12069.19
553.277	11934.03
553.477	11993.42
553.676	11792.72
553.876	11735.37
554.076	11389.27
554.275	11327.83
554.475	10985.82
554.674	10813.79
554.874	10656.09
555.074	10553.69
555.273	10350.95
555.473	10221.92
555.672	10109.29
555.872	10070.37
556.071	9709.93
556.271	9797.99
556.47	9204.08
556.67	9142.64
556.869	9027.96
557.068	8847.74
557.268	8900.98
557.467	8708.48
557.667	8634.75
557.866	8327.55
558.065	8237.44
558.265	8006.02
558.464	7838.09
558.663	7879.05
558.863	7670.15
559.062	7678.35
559.261	7530.89
559.461	7453.07
559.66	7162.26
559.859	7068.05
560.058	7088.53
560.258	6834.58
560.457	6773.14
560.656	6893.97
560.855	6623.64
561.054	6549.92
561.253	6543.77
561.453	6289.82
561.652	6185.38
561.851	6085.03
562.05	5956.01
562.249	5855.65
562.448	6076.84
562.647	5675.43
562.846	5536.17
563.045	5681.58
563.244	5454.25
563.443	5530.03
563.642	5183.92
563.841	5271.98
564.04	4968.88
564.239	5198.26
564.438	5034.42
564.637	4960.69
564.836	4876.73
565.035	4856.25
565.234	4678.07
565.432	4716.98
565.631	4528.57
565.83	4506.04
566.029	4510.14
566.228	4405.69
566.427	4448.7
566.625	4170.18
566.824	4096.45
567.023	4159.94
567.222	4096.45
567.42	4067.78
567.619	4053.44
567.818	4073.92
568.016	4026.82
568.215	3697.1
568.414	3715.53
568.612	3707.34
568.811	3787.21
569.01	3553.74
569.208	3477.96
569.407	3490.25
569.605	3494.35
569.804	3273.17
570.002	3373.52
570.201	3279.31
570.4	3232.21
570.598	3226.06
570.797	3131.86
570.995	3035.6
571.193	3031.51
571.392	3013.07
571.59	2853.33
571.789	3019.22
571.987	2982.35
572.186	2941.4
572.384	2736.6
572.582	2818.52
572.781	2808.28
572.979	2552.28
573.177	2429.4
573.376	2671.06
573.574	2630.1
573.772	2456.03
573.971	2462.17
574.169	2353.63
574.367	2408.92
574.565	2456.03
574.763	2339.29
574.962	2189.79
575.16	2253.28
575.358	2195.93
575.556	2281.95
575.754	2081.25
575.952	2146.78
576.151	2179.55
576.349	2122.21
576.547	1991.14
576.745	2007.52
576.943	1892.84
577.141	1937.89
577.339	1876.45
577.537	1823.2
577.735	1819.11
577.933	1892.84
578.131	1812.96
578.329	1884.64
578.527	1677.8
578.725	1735.14
578.923	1585.64
579.121	1821.16
579.319	1454.57
579.516	1565.16
579.714	1712.61
579.912	1573.35
580.11	1458.67
580.308	1507.82
580.506	1384.94
580.704	1358.32
580.901	1450.47
581.099	1634.79
581.297	1348.08
581.495	1389.03
581.692	1352.17
581.89	1421.8
582.088	1225.2
582.285	1253.87
582.483	1208.81
582.681	1262.06
582.878	1202.67
583.076	1245.68
583.274	1174
583.471	1255.92
583.669	1137.13
583.866	1090.03
584.064	1098.22
584.262	1147.37
584.459	1032.69
584.657	1151.47
584.854	1135.09
585.052	1038.83
585.249	1006.06
585.447	1018.35
585.644	963.06
585.841	1032.69
586.039	1057.26
586.236	1020.4
586.434	1008.11
586.631	938.48
586.828	965.11
587.026	958.96
587.223	836.08
587.42	913.91
587.618	874.99
587.815	1034.74
588.012	905.71
588.21	809.46
588.407	858.61
588.604	868.85
588.801	788.98
588.999	801.27
589.196	889.33
589.393	780.79
589.59	842.23
589.787	737.78
589.984	836.08
590.182	836.08
590.379	735.73
590.576	877.04
590.773	737.78
590.97	786.93
591.167	766.45
591.364	778.74
591.561	770.55
591.758	809.46
591.955	750.07
592.152	745.97
592.349	776.69
592.546	711.16
592.743	694.77
592.94	688.63
593.137	754.16
593.334	846.32
593.531	870.9
593.727	678.39
593.924	709.11
594.121	811.51
594.318	741.88
594.515	791.03
594.712	954.87
594.908	829.94
595.105	723.44
595.302	817.65
595.499	893.43
595.696	944.63
595.892	786.93
596.089	915.95
596.286	893.43
596.482	1038.83
596.679	952.82
596.876	911.86
597.072	1063.41
597.269	1032.69
597.466	1126.89
597.662	1028.59
597.859	1155.57
598.055	1210.86
598.252	1210.86
598.448	1126.89
598.645	1280.49
598.841	1272.3
599.038	1362.41
599.234	1429.99
599.431	1524.2
599.627	1577.45
599.824	1546.73
600.02	1626.6
600.217	1761.77
600.413	1823.2
600.609	1831.4
600.806	2079.2
601.002	2036.19
601.198	1980.9
601.395	2138.59
601.591	2245.09
601.787	2300.38
601.984	2466.27
602.18	2501.08
602.376	2525.66
602.572	2673.11
602.769	2841.04
602.965	2804.18
603.161	3043.79
603.357	3168.72
603.553	3138
603.75	3193.3
603.946	3426.76
604.142	3490.25
604.338	3762.63
604.534	3838.41
604.73	3813.83
604.926	3959.24
605.122	4338.11
605.318	4227.52
605.514	4366.78
605.71	4452.8
605.906	4649.4
606.102	4790.71
606.298	5011.89
606.494	5190.06
606.69	5376.43
606.886	5452.2
607.082	5534.12
607.278	5644.71
607.474	5767.59
607.67	6101.41
607.866	6166.95
608.062	6336.93
608.257	6531.48
608.453	6750.62
608.649	7016.85
608.845	7059.86
609.041	7467.41
609.236	7541.13
609.432	7971.21
609.628	8059.27
609.824	8190.34
610.019	8286.59
610.215	8577.41
610.411	9001.33
610.606	9046.39
610.802	9464.18
610.998	9621.87
611.193	10017.13
611.389	10080.61
611.584	10469.73
611.78	10549.6
611.976	10680.67
612.171	11481.42
612.367	11522.38
612.562	11807.05
612.758	12026.18
612.953	12130.63
613.149	12759.36
613.344	13168.95
613.539	13535.54
613.735	13922.6
613.93	14199.08
614.126	14508.32
614.321	15104.28
614.517	15272.21
614.712	15919.37
614.907	15581.46
615.103	16822.53
615.298	17103.1
615.493	17508.6
615.688	17666.29
615.884	18374.89
616.079	18778.34
616.274	19325.15
616.47	19521.75
616.665	20185.29
616.86	20551.88
617.055	21536.95
617.25	21457.08
617.445	22216.88
617.641	22552.74
617.836	23656.6
618.031	23359.64
618.226	24717.45
618.421	24766.6
618.616	26126.45
618.811	25847.93
619.006	27254.88
619.201	27152.48
619.396	28250.19
619.591	28371.02
619.786	29642.81
619.981	29816.89
620.176	30920.74
620.371	31051.81
620.566	31641.63
620.761	32466.96
620.956	33468.42
621.151	33617.92
621.346	34473.97
621.541	34721.77
621.735	36167.64
621.93	35827.68
622.125	37085.13
622.32	36956.11
622.515	38139.83
622.709	38797.23
622.904	39569.32
623.099	40077.21
623.294	40789.91
623.488	41482.12
623.683	42692.47
623.878	42841.97
624.072	43454.31
624.267	44255.07
624.462	44967.76
624.656	45147.98
624.851	46452.54
625.046	46999.35
625.24	47906.6
625.435	48422.69
625.629	48936.73
625.824	49268.5
626.018	50255.62
626.213	49864.46
626.407	51029.75
626.602	50894.58
626.796	52139.75
626.991	52983.51
627.185	52815.58
627.38	52999.9
627.574	53272.28
627.768	53728.97
627.963	53980.87
628.157	54070.98
628.352	54316.74
628.546	54177.48
628.74	55092.92
628.935	53892.81
629.129	54535.87
629.323	53833.42
629.517	53919.43
629.712	53165.78
629.906	53114.58
630.1	52250.34
630.294	52053.73
630.489	51259.12
630.683	51599.08
630.877	49798.92
631.071	49030.93
631.265	48590.62
631.459	47353.65
631.653	46653.24
631.848	45911.88
632.042	44506.97
632.236	43921.25
632.43	42454.9
632.624	41748.35
632.818	40392.6
633.012	38916.01
633.206	37756.86
633.4	36802.51
633.594	34945
633.788	34572.27
633.982	33538.05
634.176	32073.75
634.369	30648.36
634.563	29438.01
634.757	28479.57
634.951	27887.7
635.145	26232.94
635.339	25651.32
635.533	24359.05
635.726	23629.98
635.92	22349.99
636.114	21641.4
636.308	20637.89
636.501	20119.76
636.695	19232.99
636.889	18292.97
637.083	17592.56
637.276	17076.48
637.47	16001.29
637.664	15640.85
637.857	14870.81
638.051	14594.34
638.244	13715.76
638.438	13179.19
638.632	12785.98
638.825	11983.18
639.019	11721.04
639.212	11229.52
639.406	10920.28
639.599	10428.77
639.793	10086.76
639.986	9582.96
640.18	9179.51
640.373	9001.33
640.567	8610.17
640.76	8200.58
640.954	7903.62
641.147	7432.59
641.34	7336.34
641.534	7086.48
641.727	6904.21
641.92	6705.56
642.114	6359.45
642.307	5976.48
642.5	5964.2
642.694	5384.62
642.887	5372.33
643.08	5333.42
643.273	5058.99
643.467	4778.42
643.66	4641.21
643.853	4399.55
644.046	4184.51
644.239	4129.22
644.432	3953.09
644.626	3639.75
644.819	3660.23
645.012	3504.59
645.205	3424.72
645.398	3240.4
645.591	3084.75
645.784	2882
645.977	2879.96
646.17	2744.79
646.363	2603.48
646.556	2638.3
646.749	2406.88
646.942	2466.27
647.135	2386.4
647.328	2169.31
647.521	2073.06
647.714	2007.52
647.907	1950.18
648.099	1806.82
648.292	1847.78
648.485	1688.04
648.678	1667.56
648.871	1604.07
649.064	1528.3
649.256	1475.05
649.449	1429.99
649.642	1315.31
649.835	1393.13
650.027	1257.96
650.22	1339.88
650.413	1311.21
650.605	1253.87
650.798	1108.46
650.991	1071.6
651.183	1069.55
651.376	1038.83
651.568	1036.78
651.761	1010.16
651.954	809.46
652.146	874.99
652.339	860.66
652.531	924.15
652.724	811.51
652.916	735.73
653.109	598.52
653.301	813.56
653.494	774.64
653.686	717.3
653.879	805.36
654.071	672.25
654.263	639.48
654.456	623.09
654.648	754.16
654.84	606.71
655.033	508.41
655.225	680.44
655.417	500.22
655.61	629.24
655.802	561.66
655.994	662.01
656.186	440.83
656.379	571.9
656.571	522.74
656.763	444.92
656.955	426.49
657.148	459.26
657.34	481.78
657.532	385.53
657.724	410.11
657.916	438.78
658.108	512.5
658.3	426.49
658.492	434.68
658.684	422.39
658.876	391.67
659.068	197.12
659.26	320
659.452	262.65
659.644	342.52
659.836	465.4
660.028	350.71
660.22	301.56
660.412	281.08
660.604	320
660.796	317.95
660.988	320
661.18	311.8
661.372	352.76
661.563	256.51
661.755	307.71
661.947	221.69
662.139	147.97
662.331	211.45
662.522	313.85
662.714	131.58
662.906	240.12
663.097	242.17
663.289	221.69
663.481	131.58
663.673	281.08
663.864	248.32
664.056	270.84
664.247	180.73
664.439	207.36
664.631	285.18
664.822	287.23
665.014	154.11
665.205	180.73
665.397	178.69
665.588	186.88
665.78	147.97
665.971	246.27
666.163	172.54
666.354	150.01
666.546	123.39
666.737	139.77
666.929	180.73
667.12	201.21
667.311	262.65
667.503	160.25
667.694	178.69
667.885	197.12
668.077	231.93
668.268	88.57
668.459	125.44
668.651	246.27
668.842	254.46
669.033	131.58
669.224	145.92
669.416	332.28
669.607	242.17
669.798	78.33
669.989	328.19
670.18	160.25
670.371	172.54
670.563	92.67
670.754	254.46
670.945	207.36
671.136	201.21
671.327	43.52
671.518	197.12
671.709	238.08
671.9	182.78
672.091	268.8
672.282	160.25
672.473	135.68
672.664	139.77
672.855	152.06
673.046	287.23
673.237	266.75
673.428	197.12
673.619	301.56
673.809	164.35
674	279.04
674.191	254.46
674.382	195.07
674.573	240.12
674.764	221.69
674.954	233.98
675.145	152.06
675.336	197.12
675.527	213.5
675.717	74.24
675.908	205.31
676.099	225.79
676.289	252.41
676.48	188.93
676.671	217.6
676.861	139.77
677.052	260.6
677.243	221.69
677.433	221.69
677.624	274.94
677.814	324.09
678.005	131.58
678.195	350.71
678.386	203.26
678.576	190.97
678.767	229.88
678.957	272.89
679.148	385.53
679.338	406.01
679.529	254.46
679.719	246.27
679.909	348.67
680.1	369.15
680.29	303.61
680.481	211.45
680.671	266.75
680.861	303.61
681.052	348.67
681.242	254.46
681.432	285.18
681.622	360.95
681.813	264.7
682.003	303.61
682.193	270.84
682.383	295.42
682.573	344.57
682.764	186.88
682.954	346.62
683.144	330.23
683.334	260.6
683.524	215.55
683.714	377.34
683.904	336.38
684.094	330.23
684.284	393.72
684.474	465.4
684.664	395.77
684.854	315.9
685.044	287.23
685.234	315.9
685.424	342.52
685.614	320
685.804	487.93
685.994	344.57
686.184	328.19
686.374	330.23
686.564	352.76
686.753	363
686.943	295.42
687.133	330.23
687.323	385.53
687.513	381.43
687.702	401.91
687.892	338.43
688.082	377.34
688.272	406.01
688.461	397.82
688.651	449.02
688.841	391.67
689.03	328.19
689.22	311.8
689.41	397.82
689.599	328.19
689.789	399.87
689.979	414.2
690.168	295.42
690.358	360.95
690.547	348.67
690.737	328.19
690.926	311.8
691.116	385.53
691.305	356.86
691.495	403.96
691.684	213.5
691.874	365.05
692.063	336.38
692.252	377.34
692.442	350.71
692.631	299.52
692.82	276.99
693.01	383.48
693.199	279.04
693.388	317.95
693.578	293.37
693.767	348.67
693.956	336.38
694.146	328.19
694.335	291.32
694.524	238.08
694.713	358.91
694.902	260.6
695.092	238.08
695.281	252.41
695.47	279.04
695.659	276.99
695.848	320
696.037	334.33
696.226	422.39
696.415	250.36
696.604	467.45
696.793	389.63
696.982	387.58
697.171	408.06
697.36	256.51
697.549	299.52
697.738	258.56
697.927	256.51
698.116	180.73
698.305	330.23
698.494	285.18
698.683	328.19
698.872	434.68
699.061	283.13
699.25	383.48
699.438	317.95
699.627	287.23
699.816	377.34
700.005	242.17
700.193	301.56
700.382	348.67
700.571	303.61
700.76	313.85
700.948	340.47
701.137	352.76
701.326	299.52
701.514	188.93
701.703	244.22
701.892	301.56
702.08	451.07
702.269	281.08
702.457	266.75
702.646	291.32
702.834	270.84
703.023	315.9
703.212	279.04
703.4	270.84
703.589	254.46
703.777	240.12
703.965	186.88
704.154	246.27
704.342	211.45
704.531	285.18
704.719	283.13
704.907	336.38
705.096	231.93
705.284	283.13
705.472	229.88
705.661	313.85
705.849	328.19
706.037	371.19
706.226	379.39
706.414	352.76
706.602	311.8
706.79	317.95
706.979	252.41
707.167	317.95
707.355	158.21
707.543	307.71
707.731	285.18
707.919	180.73
708.107	256.51
708.296	209.4
708.484	246.27
708.672	285.18
708.86	340.47
709.048	299.52
709.236	184.83
709.424	281.08
709.612	342.52
709.8	225.79
709.988	334.33
710.176	406.01
710.364	324.09
710.551	213.5
710.739	258.56
710.927	233.98
711.115	342.52
711.303	285.18
711.491	397.82
711.679	301.56
711.866	360.95
712.054	287.23
712.242	336.38
712.43	422.39
712.617	266.75
712.805	401.91
712.993	254.46
713.181	242.17
713.368	348.67
713.556	311.8
713.744	289.28
713.931	430.59
714.119	352.76
714.306	264.7
714.494	287.23
714.682	346.62
714.869	268.8
715.057	270.84
715.244	279.04
715.432	342.52
715.619	225.79
715.807	291.32
715.994	254.46
716.182	338.43
716.369	352.76
716.556	438.78
716.744	324.09
716.931	254.46
717.119	252.41
717.306	383.48
717.493	389.63
717.681	221.69
717.868	221.69
718.055	381.43
718.242	342.52
718.43	377.34
718.617	352.76
718.804	328.19
718.991	381.43
719.179	399.87
719.366	313.85
719.553	358.91
719.74	408.06
719.927	344.57
720.114	315.9
720.301	299.52
720.488	348.67
720.676	233.98
720.863	367.1
721.05	416.25
721.237	365.05
721.424	397.82
721.611	363
721.798	274.94
721.985	295.42
722.172	311.8
722.358	360.95
722.545	449.02
722.732	246.27
722.919	408.06
723.106	365.05
723.293	379.39
723.48	320
723.667	336.38
723.853	453.11
724.04	408.06
724.227	512.5
724.414	326.14
724.6	459.26
724.787	526.84
724.974	406.01
725.161	338.43
725.347	299.52
725.534	369.15
725.72	428.54
725.907	410.11
726.094	516.6
726.28	401.91
726.467	297.47
726.653	434.68
726.84	498.17
727.027	508.41
727.213	356.86
727.4	391.67
727.586	410.11
727.773	385.53
727.959	420.35
728.145	385.53
728.332	326.14
728.518	414.2
728.705	385.53
728.891	363
729.077	465.4
729.264	332.28
729.45	320
729.636	467.45
729.823	414.2
730.009	328.19
730.195	424.44
730.382	420.35
730.568	397.82
730.754	526.84
730.94	311.8
731.126	399.87
731.313	449.02
731.499	426.49
731.685	422.39
731.871	375.29
732.057	410.11
732.243	541.18
732.429	430.59
732.615	582.14
732.801	510.46
732.987	451.07
733.173	360.95
733.359	320
733.545	444.92
733.731	311.8
733.917	553.46
734.103	518.65
734.289	422.39
734.475	438.78
734.661	584.18
734.847	426.49
735.033	440.83
735.219	473.59
735.404	406.01
735.59	360.95
735.776	473.59
735.962	459.26
736.148	483.83
736.333	592.37
736.519	477.69
736.705	449.02
736.89	498.17
737.076	406.01
737.262	457.21
737.447	483.83
737.633	360.95
737.819	459.26
738.004	418.3
738.19	434.68
738.375	459.26
738.561	401.91
738.747	428.54
738.932	395.77
739.118	616.95
739.303	547.32
739.489	465.4
739.674	389.63
739.859	410.11
740.045	522.74
740.23	440.83
740.416	285.18
740.601	471.54
740.786	412.15
740.972	403.96
741.157	399.87
741.342	379.39
741.528	317.95
741.713	555.51
741.898	446.97
742.084	508.41
742.269	475.64
742.454	457.21
742.639	494.07
742.824	377.34
743.01	549.37
743.195	619
743.38	483.83
743.565	471.54
743.75	451.07
743.935	410.11
744.12	428.54
744.305	432.63
744.49	395.77
744.675	467.45
744.86	373.24
745.045	408.06
745.23	424.44
745.415	432.63
745.6	469.5
745.785	365.05
745.97	467.45
746.155	492.02
746.34	508.41
746.525	410.11
746.71	449.02
746.895	418.3
747.079	354.81
747.264	389.63
747.449	367.1
747.634	393.72
747.819	377.34
748.003	399.87
748.188	301.56
748.373	457.21
748.557	363
748.742	399.87
748.927	293.37
749.111	401.91
749.296	410.11
749.481	408.06
749.665	387.58
749.85	338.43
750.034	416.25
750.219	414.2
750.404	340.47
750.588	358.91
750.773	297.47
750.957	309.76
751.141	369.15
751.326	397.82
751.51	305.66
751.695	373.24
751.879	377.34
752.064	514.55
752.248	383.48
752.432	473.59
752.617	360.95
752.801	317.95
752.985	266.75
753.17	373.24
753.354	449.02
753.538	358.91
753.722	215.55
753.907	309.76
754.091	217.6
754.275	328.19
754.459	293.37
754.643	211.45
754.828	371.19
755.012	320
755.196	201.21
755.38	293.37
755.564	303.61
755.748	254.46
755.932	344.57
756.116	320
756.3	375.29
756.484	254.46
756.668	344.57
756.852	240.12
757.036	328.19
757.22	285.18
757.404	242.17
757.588	193.02
757.772	389.63
757.956	297.47
758.14	295.42
758.323	174.59
758.507	272.89
758.691	221.69
758.875	285.18
759.059	350.71
759.242	172.54
759.426	268.8
759.61	270.84
759.794	184.83
759.977	270.84
760.161	379.39
760.345	281.08
760.528	330.23
760.712	186.88
760.895	211.45
761.079	250.36
761.263	117.25
761.446	229.88
761.63	213.5
761.813	246.27
761.997	168.45
762.18	248.32
762.364	324.09
762.547	176.64
762.731	207.36
762.914	268.8
763.098	248.32
763.281	164.35
763.464	190.97
763.648	164.35
763.831	178.69
764.015	223.74
764.198	211.45
764.381	172.54
764.564	221.69
764.748	242.17
764.931	246.27
765.114	225.79
765.297	258.56
765.481	115.2
765.664	92.67
765.847	186.88
766.03	270.84
766.213	133.63
766.397	190.97
766.58	164.35
766.763	113.15
766.946	147.97
767.129	250.36
767.312	141.82
767.495	184.83
767.678	147.97
767.861	170.49
768.044	174.59
768.227	127.49
768.41	57.86
768.593	109.05
768.776	233.98
768.959	117.25
769.142	242.17
769.324	147.97
769.507	158.21
769.69	90.62
769.873	166.4
770.056	303.61
770.239	123.39
770.421	205.31
770.604	205.31
770.787	164.35
770.97	184.83
771.152	166.4
771.335	182.78
771.518	64
771.7	201.21
771.883	221.69
772.066	129.53
772.248	107.01
772.431	190.97
772.613	115.2
772.796	139.77
772.978	225.79
773.161	238.08
773.343	76.29
773.526	41.47
773.708	64
773.891	113.15
774.073	76.29
774.256	123.39
774.438	211.45
774.621	82.43
774.803	170.49
774.985	166.4
775.168	143.87
775.35	162.3
775.532	221.69
775.715	8.7
775.897	119.29
776.079	74.24
776.261	152.06
776.444	74.24
776.626	49.66
776.808	94.72
776.99	8.7
777.173	113.15
777.355	47.62
777.537	135.68
777.719	33.28
777.901	27.14
778.083	-22.02
778.265	-32.26
778.447	184.83
778.629	61.95
778.811	80.38
778.993	119.29
779.175	88.57
779.357	57.86
779.539	25.09
779.721	107.01
779.903	90.62
780.085	147.97
780.267	55.81
780.449	43.52
780.631	145.92
780.812	127.49
780.994	-7.68
781.176	57.86
781.358	37.38
781.54	64
781.721	90.62
781.903	170.49
782.085	53.76
782.267	131.58
782.448	-26.11
782.63	31.23
782.812	68.09
782.993	20.99
783.175	100.86
783.357	41.47
783.538	74.24
783.72	-40.45
783.901	88.57
784.083	82.43
784.264	90.62
784.446	29.18
784.627	-36.35
784.809	147.97
784.99	162.3
785.172	64
785.353	72.19
785.535	66.05
785.716	-1.54
785.897	-46.59
786.079	51.71
786.26	33.28
786.441	72.19
786.623	10.75
786.804	29.18
786.985	107.01
787.167	139.77
787.348	0.51
787.529	29.18
787.71	123.39
787.891	55.81
788.073	39.42
788.254	6.66
788.435	182.78
788.616	68.09
788.797	-108.03
788.978	6.66
789.159	-17.92
789.34	55.81
789.522	61.95
789.703	-32.26
789.884	61.95
790.065	59.9
790.246	111.1
790.427	80.38
790.607	205.31
790.788	121.34
790.969	12.8
791.15	61.95
791.331	-15.87
791.512	27.14
791.693	6.66
791.874	41.47
792.054	143.87
792.235	53.76
792.416	0.51
792.597	-5.63
792.778	39.42
792.958	4.61
793.139	158.21
793.32	29.18
793.5	31.23
793.681	53.76
793.862	88.57
794.042	29.18
794.223	-89.6
794.404	12.8
794.584	-11.78
794.765	8.7
794.945	115.2
795.126	61.95
795.306	123.39
795.487	37.38
795.667	4.61
795.848	39.42
796.028	61.95
796.209	94.72
796.389	86.53
796.57	16.9
796.75	-95.74
796.93	-7.68
797.111	-7.68
797.291	-42.5
797.471	14.85
797.652	41.47
797.832	-13.82
798.012	102.91
798.192	39.42
798.373	66.05
798.553	35.33
798.733	45.57
798.913	-32.26
799.093	-7.68
799.274	25.09
799.454	162.3
799.634	53.76
799.814	25.09
799.994	0.51
800.174	68.09
800.354	47.62
800.534	-103.93
800.714	47.62
800.894	-36.35
801.074	-48.64
801.254	-15.87
801.434	143.87
801.614	-11.78
801.794	-24.06
801.974	1503.72
802.154	-1.54
802.334	55.81
802.514	-50.69
802.693	12.8
802.873	29.18
803.053	72.19
803.233	31.23
803.413	70.14
803.592	0.51
803.772	-42.5
803.952	31.23
804.131	-73.21
804.311	66.05
804.491	94.72
804.67	-1.54
804.85	-40.45
805.03	119.29
805.209	59.9
805.389	8.7
805.568	2.56
805.748	-40.45
805.928	29.18
806.107	20.99
806.287	-7.68
806.466	29.18
806.646	2.56
806.825	33.28
807.004	-3.58
807.184	45.57
807.363	6.66
807.543	14.85
807.722	-3.58
807.901	74.24
808.081	45.57
808.26	-85.5
808.439	-15.87
808.619	-17.92
808.798	-75.26
808.977	0.51
809.156	51.71
809.336	23.04
809.515	57.86
809.694	-26.11
809.873	-28.16
810.052	37.38
810.231	66.05
810.411	41.47
810.59	137.73
810.769	35.33
810.948	-13.82
811.127	-130.56
811.306	4.61
811.485	-50.69
811.664	94.72
811.843	-7.68
812.022	57.86
812.201	8.7
812.38	-9.73
812.559	-34.3
812.737	-11.78
812.916	-58.88
813.095	-34.3
813.274	14.85
813.453	2.56
813.632	-7.68
813.811	82.43
813.989	-24.06
814.168	64
814.347	-97.79
814.526	-52.74
814.704	64
814.883	47.62
815.062	-56.83
815.24	41.47
815.419	-32.26
815.598	55.81
815.776	-85.5
815.955	-44.54
816.133	-114.17
816.312	12.8
816.49	-15.87
816.669	57.86
816.847	-26.11
817.026	-3.58
817.204	4.61
817.383	72.19
817.561	23.04
817.74	4.61
817.918	0.51
818.097	-48.64
818.275	-69.12
818.453	33.28
818.632	4.61
818.81	25.09
818.988	-15.87
819.167	43.52
819.345	57.86
819.523	-105.98
819.701	8.7
819.879	55.81
820.058	14.85
820.236	2.56
820.414	33.28
820.592	-24.06
820.77	59.9
820.948	-79.36
821.127	-50.69
821.305	-9.73
821.483	-65.02
821.661	-32.26
821.839	4.61
822.017	-44.54
822.195	-44.54
822.373	94.72
822.551	47.62
822.729	27.14
822.907	6.66
823.085	14.85
823.262	47.62
823.44	64
823.618	8.7
823.796	10.75
823.974	12.8
824.152	-42.5
824.329	-36.35
824.507	31.23
824.685	16.9
824.863	29.18
825.04	-34.3
825.218	12.8
825.396	72.19
825.574	-17.92
825.751	-24.06
825.929	41.47
826.107	-81.41
826.284	-9.73
826.462	-11.78
826.639	-93.69
826.817	6.66
826.994	16.9
827.172	-91.65
827.349	113.15
827.527	55.81
827.704	-69.12
827.882	96.77
828.059	55.81
828.237	14.85
828.414	35.33
828.591	-62.98
828.769	2.56
828.946	-50.69
829.124	64
829.301	10.75
829.478	-3.58
829.655	74.24
829.833	12.8
830.01	-148.99
830.187	-1.54
830.364	41.47
830.542	2.56
830.719	86.53
830.896	33.28
831.073	-19.97
831.25	-3.58
831.427	-11.78
831.604	-26.11
831.782	-30.21
831.959	78.33
832.136	12.8
832.313	-32.26
832.49	-30.21
832.667	18.94
832.844	-65.02
833.021	121.34
833.198	-7.68
833.374	25.09
833.551	-24.06
833.728	-91.65
833.905	39.42
834.082	-97.79
834.259	-11.78
834.436	129.53
834.612	-52.74
834.789	98.81
834.966	41.47
835.143	-3.58
835.319	-79.36
835.496	37.38
835.673	-7.68
835.85	33.28
836.026	80.38
836.203	-5.63
836.38	-50.69
836.556	-44.54
836.733	-28.16
836.909	104.96
837.086	14.85
837.262	-114.17
837.439	78.33
837.616	-58.88
837.792	-40.45
837.968	-15.87
838.145	-52.74
838.321	-93.69
838.498	80.38
838.674	-22.02
838.851	6.66
839.027	-13.82
839.203	-81.41
839.38	78.33
839.556	10.75
839.732	45.57
839.909	-99.84
840.085	4.61
840.261	-36.35
840.437	41.47
840.614	-58.88
840.79	82.43
840.966	41.47
841.142	-24.06
841.318	35.33
841.494	6.66
841.671	86.53
841.847	4.61
842.023	-83.45
842.199	25.09
842.375	25.09
842.551	-105.98
842.727	-5.63
842.903	137.73
843.079	-60.93
843.255	45.57
843.431	-13.82
843.607	18.94
843.783	-71.17
843.959	4.61
844.134	8.7
844.31	121.34
844.486	-26.11
844.662	-69.12
844.838	-7.68
845.013	-19.97
845.189	104.96
845.365	8.7
845.541	-19.97
845.716	-56.83
845.892	8.7
846.068	45.57
846.244	0.51
846.419	47.62
846.595	-54.78
846.77	-54.78
846.946	41.47
847.122	-73.21
847.297	-42.5
847.473	25.09
847.648	-81.41
847.824	29.18
847.999	-132.61
848.175	41.47
848.35	23.04
848.526	141.82
848.701	-15.87
848.876	27.14
849.052	70.14
849.227	-79.36
849.403	-17.92
849.578	-110.08
849.753	14.85
849.929	-7.68
850.104	-26.11
850.279	-19.97
850.454	6.66
850.63	47.62
850.805	29.18
850.98	-28.16
851.155	-65.02
851.33	-69.12
851.505	-105.98
851.681	139.77
851.856	-114.17
852.031	-9.73
852.206	39.42
852.381	-50.69
852.556	-50.69
852.731	39.42
852.906	29.18
853.081	-17.92
853.256	41.47
853.431	-1.54
853.606	-67.07
853.781	-79.36
853.956	-81.41
854.131	41.47
854.305	-87.55
854.48	41.47
854.655	-77.31
854.83	2.56
855.005	-71.17
855.18	-60.93
855.354	-3.58
855.529	43.52
855.704	-15.87
855.879	20.99
856.053	-93.69
856.228	-3.58
856.403	-1.54
856.577	31.23
856.752	-101.89
856.926	-50.69
857.101	-7.68
857.276	-110.08
857.45	61.95
857.625	82.43
857.799	-17.92
857.974	-40.45
858.148	-48.64
858.323	25.09
858.497	-122.37
858.672	-54.78
858.846	-32.26
859.02	-79.36
859.195	-101.89
859.369	25.09
859.543	-7.68
859.718	25.09
859.892	78.33
860.066	6.66
860.241	-50.69
860.415	-52.74
860.589	-40.45
860.763	2.56
860.938	-11.78
861.112	-17.92
861.286	33.28
861.46	-7.68
861.634	-15.87
861.808	66.05
861.982	-69.12
862.157	-105.98
862.331	-3.58
862.505	-87.55
862.679	2.56
862.853	-73.21
863.027	-58.88
863.201	74.24
863.375	-83.45
863.549	45.57
863.722	55.81
863.896	57.86
864.07	-75.26
864.244	-13.82
864.418	141.82
864.592	-56.83
864.766	8.7
864.939	74.24
865.113	-22.02
865.287	39.42
865.461	-42.5
865.634	2.56
865.808	-19.97
865.982	-118.27
866.156	-60.93
866.329	-42.5
866.503	-7.68
866.676	94.72
866.85	-17.92
867.024	-73.21
867.197	-19.97
867.371	-32.26
867.544	31.23
867.718	-75.26
867.891	14.85
868.065	-114.17
868.238	61.95
868.412	39.42
868.585	-24.06
868.759	-50.69
868.932	-7.68
869.105	-116.22
869.279	2.56
869.452	-56.83
869.625	-13.82
869.799	-95.74
869.972	-89.6
870.145	-48.64
870.319	33.28
870.492	-48.64
870.665	-99.84
870.838	-56.83
871.011	-81.41
871.185	-67.07
871.358	-42.5
871.531	129.53
871.704	25.09
871.877	16.9
872.05	8.7
872.223	-69.12
872.396	94.72
872.569	-32.26
872.742	-93.69
872.915	-32.26
873.088	10.75
873.261	-120.32
873.434	-3.58
873.607	-7.68
873.78	47.62
873.953	-118.27
874.126	-11.78
874.299	-60.93
874.471	4.61
874.644	-30.21
874.817	35.33
874.99	55.81
875.163	-54.78
875.335	70.14
875.508	-58.88
875.681	23.04
875.853	-26.11
876.026	0.51
876.199	49.66
876.371	-7.68
876.544	78.33
876.717	74.24
876.889	-36.35
877.062	-11.78
877.234	-60.93
877.407	-60.93
877.579	2.56
877.752	-26.11
877.924	-1.54
878.097	16.9
878.269	-9.73
878.442	-7.68
878.614	33.28
878.786	-85.5
878.959	39.42
879.131	-40.45
879.303	-81.41
879.476	-17.92
879.648	111.1
879.82	-79.36
879.993	-52.74
880.165	-48.64
880.337	-67.07
880.509	14.85
880.681	-32.26
880.854	-60.93
881.026	47.62
881.198	70.14
881.37	-50.69
881.542	-7.68
881.714	-44.54
881.886	-7.68
882.058	6.66
882.23	16.9
882.402	-32.26
882.574	43.52
882.746	39.42
882.918	16.9
883.09	51.71
883.262	12.8
883.434	-44.54
883.606	-118.27
883.778	-26.11
883.95	57.86
884.122	-81.41
884.293	23.04
884.465	4.61
884.637	41.47
884.809	0.51
884.98	29.18
885.152	12.8
885.324	49.66
885.496	-28.16
885.667	0.51
885.839	-58.88
886.011	59.9
886.182	-19.97
886.354	-1.54
886.525	-69.12
886.697	55.81
886.869	-67.07
887.04	-28.16
887.212	70.14
887.383	37.38
887.555	4.61
887.726	12.8
887.897	-65.02
888.069	-46.59
888.24	31.23
888.412	-34.3
888.583	-62.98
888.754	-52.74
888.926	-155.13
889.097	16.9
889.268	-151.04
889.44	-42.5
889.611	-105.98
889.782	-42.5
889.953	-67.07
890.125	0.51
890.296	-132.61
890.467	-77.31
890.638	-73.21
890.809	-30.21
890.98	-34.3
891.151	-7.68
891.323	115.2
891.494	-44.54
891.665	4.61
891.836	0.51
892.007	-65.02
892.178	86.53
892.349	55.81
892.52	0.51
892.691	-3.58
892.862	-81.41
893.032	-108.03
893.203	-54.78
893.374	-40.45
893.545	55.81
893.716	-48.64
893.887	45.57
894.057	-24.06
894.228	23.04
894.399	-110.08
894.57	57.86
894.74	-7.68
894.911	10.75
895.082	33.28
895.253	-105.98
895.423	-17.92
895.594	-32.26
895.764	-17.92
895.935	-89.6
896.106	23.04
896.276	-36.35
896.447	8.7
896.617	-28.16
896.788	-1.54
896.958	-118.27
897.129	-77.31
897.299	6.66
897.47	104.96
897.64	20.99
897.81	-19.97
897.981	-22.02
898.151	-24.06
898.322	-24.06
898.492	-11.78
898.662	-95.74
898.832	-77.31
899.003	-79.36
899.173	33.28
899.343	-30.21
899.513	-52.74
