Data from USB4F104151__60__11-30-50-265.txt Node

Date: Wed Feb 26 11:30:50 EST 2025
User: louis
Spectrometer: USB4F10415
Trigger mode: 4
Integration Time (sec): 1.000000E-1
Scans to average: 1
Electric dark correction enabled: true
Nonlinearity correction enabled: false
Boxcar width: 0
XAxis mode: Wavelengths
Number of Pixels in Spectrum: 3648
>>>>>Begin Spectral Data<<<<<
178.204	-449.53
178.424	-449.53
178.644	-449.53
178.864	-424.95
179.084	-398.33
179.304	31.74
179.524	-3.07
179.744	-50.18
179.964	-25.6
180.184	-21.5
180.404	50.18
180.624	19.46
180.844	-25.6
181.064	44.03
181.283	7.17
181.503	-44.03
181.723	17.41
181.943	-158.72
182.163	128
182.383	-7.17
182.602	103.42
182.822	175.1
183.042	117.76
183.262	-11.26
183.482	-84.99
183.701	5.12
183.921	37.89
184.141	31.74
184.361	130.05
184.58	9.22
184.8	50.18
185.02	-62.46
185.239	35.84
185.459	70.65
185.679	97.28
185.898	-68.61
186.118	97.28
186.338	-1.02
186.557	39.94
186.777	-82.94
186.997	-64.51
187.216	9.22
187.436	207.87
187.655	70.65
187.875	64.51
188.095	-27.65
188.314	76.8
188.534	113.66
188.753	-9.22
188.973	117.76
189.192	142.33
189.412	-50.18
189.631	5.12
189.851	76.8
190.07	160.77
190.29	-1.02
190.509	-37.89
190.729	19.46
190.948	72.7
191.168	246.78
191.387	56.32
191.607	-35.84
191.826	87.04
192.045	-41.98
192.265	-84.99
192.484	99.33
192.704	87.04
192.923	46.08
193.142	220.16
193.362	87.04
193.581	91.13
193.8	3.07
194.02	66.56
194.239	11.26
194.458	132.09
194.678	44.03
194.897	-27.65
195.116	82.94
195.335	17.41
195.555	25.6
195.774	50.18
195.993	130.05
196.212	13.31
196.432	-7.17
196.651	41.98
196.87	27.65
197.089	232.44
197.308	1.02
197.528	107.52
197.747	-93.18
197.966	19.46
198.185	56.32
198.404	-37.89
198.623	64.51
198.842	64.51
199.062	7.17
199.281	113.66
199.5	-3.07
199.719	60.42
199.938	72.7
200.157	39.94
200.376	70.65
200.595	144.38
200.814	29.7
201.033	-56.32
201.252	140.29
201.471	-1.02
201.69	80.89
201.909	-3.07
202.128	70.65
202.347	29.7
202.566	-9.22
202.785	-31.74
203.004	-52.22
203.223	226.3
203.442	-23.55
203.661	-74.75
203.879	50.18
204.098	142.33
204.317	58.37
204.536	152.57
204.755	21.5
204.974	27.65
205.193	-33.79
205.411	82.94
205.63	158.72
205.849	107.52
206.068	48.13
206.287	-9.22
206.505	123.9
206.724	-1.02
206.943	-9.22
207.162	56.32
207.381	60.42
207.599	-17.41
207.818	-21.5
208.037	-66.56
208.255	19.46
208.474	64.51
208.693	19.46
208.911	41.98
209.13	29.7
209.349	50.18
209.567	66.56
209.786	31.74
210.005	136.19
210.223	19.46
210.442	-166.91
210.661	52.22
210.879	87.04
211.098	72.7
211.316	50.18
211.535	44.03
211.753	-46.08
211.972	56.32
212.191	-52.22
212.409	-56.32
212.628	93.18
212.846	27.65
213.065	21.5
213.283	95.23
213.502	25.6
213.72	9.22
213.938	35.84
214.157	46.08
214.375	66.56
214.594	21.5
214.812	33.79
215.031	19.46
215.249	60.42
215.467	111.61
215.686	-5.12
215.904	68.61
216.122	13.31
216.341	148.48
216.559	33.79
216.778	68.61
216.996	146.43
217.214	33.79
217.432	-17.41
217.651	-29.7
217.869	39.94
218.087	3.07
218.306	-1.02
218.524	15.36
218.742	1.02
218.96	64.51
219.179	44.03
219.397	-87.04
219.615	285.69
219.833	109.57
220.051	-89.09
220.27	72.7
220.488	78.85
220.706	31.74
220.924	-29.7
221.142	-9.22
221.36	84.99
221.578	27.65
221.796	54.27
222.015	1.02
222.233	-15.36
222.451	150.53
222.669	-23.55
222.887	78.85
223.105	-7.17
223.323	3.07
223.541	3.07
223.759	76.8
223.977	9.22
224.195	164.86
224.413	60.42
224.631	97.28
224.849	-29.7
225.067	191.49
225.285	-33.79
225.503	-19.46
225.721	-128
225.939	21.5
226.157	21.5
226.375	185.34
226.592	19.46
226.81	62.46
227.028	54.27
227.246	107.52
227.464	52.22
227.682	138.24
227.9	78.85
228.117	58.37
228.335	33.79
228.553	97.28
228.771	41.98
228.989	44.03
229.206	111.61
229.424	-89.09
229.642	37.89
229.86	-29.7
230.077	121.85
230.295	-48.13
230.513	82.94
230.731	5.12
230.948	195.58
231.166	195.58
231.384	19.46
231.601	-11.26
231.819	166.91
232.037	1.02
232.254	-23.55
232.472	48.13
232.689	13.31
232.907	87.04
233.125	62.46
233.342	15.36
233.56	19.46
233.777	9.22
233.995	93.18
234.213	148.48
234.43	80.89
234.648	35.84
234.865	-37.89
235.083	97.28
235.3	56.32
235.518	91.13
235.735	60.42
235.953	93.18
236.17	5.12
236.388	70.65
236.605	31.74
236.822	87.04
237.04	105.47
237.257	-3.07
237.475	-54.27
237.692	84.99
237.909	117.76
238.127	-54.27
238.344	78.85
238.562	11.26
238.779	-15.36
238.996	-58.37
239.214	35.84
239.431	68.61
239.648	-66.56
239.865	115.71
240.083	117.76
240.3	64.51
240.517	95.23
240.735	-31.74
240.952	78.85
241.169	68.61
241.386	46.08
241.603	3.07
241.821	-41.98
242.038	80.89
242.255	72.7
242.472	-91.13
242.689	-58.37
242.907	48.13
243.124	31.74
243.341	33.79
243.558	-58.37
243.775	-41.98
243.992	-39.94
244.209	5.12
244.426	179.2
244.643	74.75
244.86	27.65
245.078	35.84
245.295	64.51
245.512	-15.36
245.729	-29.7
245.946	23.55
246.163	46.08
246.38	37.89
246.597	76.8
246.814	-11.26
247.031	25.6
247.248	68.61
247.464	107.52
247.681	5.12
247.898	78.85
248.115	109.57
248.332	-25.6
248.549	62.46
248.766	74.75
248.983	19.46
249.2	11.26
249.417	128
249.633	-44.03
249.85	3.07
250.067	62.46
250.284	115.71
250.501	31.74
250.717	84.99
250.934	-3.07
251.151	54.27
251.368	-21.5
251.585	37.89
251.801	105.47
252.018	-1.02
252.235	84.99
252.451	-60.42
252.668	-52.22
252.885	146.43
253.102	70.65
253.318	9.22
253.535	25.6
253.752	-46.08
253.968	-5.12
254.185	-99.33
254.401	44.03
254.618	-50.18
254.835	-13.31
255.051	162.81
255.268	74.75
255.484	119.81
255.701	48.13
255.917	99.33
256.134	15.36
256.351	21.5
256.567	1.02
256.784	-33.79
257	-82.94
257.217	44.03
257.433	80.89
257.65	82.94
257.866	107.52
258.082	-107.52
258.299	-29.7
258.515	72.7
258.732	-1.02
258.948	-7.17
259.165	76.8
259.381	3.07
259.597	23.55
259.814	31.74
260.03	-1.02
260.246	39.94
260.463	160.77
260.679	164.86
260.895	64.51
261.112	93.18
261.328	48.13
261.544	37.89
261.761	142.33
261.977	-25.6
262.193	-115.71
262.409	54.27
262.626	44.03
262.842	-13.31
263.058	-95.23
263.274	7.17
263.49	5.12
263.707	44.03
263.923	130.05
264.139	-13.31
264.355	23.55
264.571	117.76
264.787	-13.31
265.004	121.85
265.22	-44.03
265.436	-7.17
265.652	-46.08
265.868	105.47
266.084	-46.08
266.3	17.41
266.516	-44.03
266.732	44.03
266.948	-46.08
267.164	-1.02
267.38	66.56
267.596	87.04
267.812	140.29
268.028	97.28
268.244	37.89
268.46	46.08
268.676	52.22
268.892	48.13
269.108	-103.42
269.324	-29.7
269.54	-68.61
269.756	68.61
269.972	-70.65
270.188	84.99
270.403	13.31
270.619	87.04
270.835	93.18
271.051	31.74
271.267	-11.26
271.483	-3.07
271.698	70.65
271.914	-11.26
272.13	-33.79
272.346	37.89
272.562	15.36
272.777	87.04
272.993	-11.26
273.209	-46.08
273.425	158.72
273.64	-97.28
273.856	144.38
274.072	-25.6
274.287	58.37
274.503	54.27
274.719	150.53
274.934	-48.13
275.15	-52.22
275.366	25.6
275.581	31.74
275.797	37.89
276.012	74.75
276.228	-1.02
276.444	76.8
276.659	113.66
276.875	-19.46
277.09	19.46
277.306	-58.37
277.521	58.37
277.737	5.12
277.952	52.22
278.168	52.22
278.383	-19.46
278.599	62.46
278.814	62.46
279.03	-27.65
279.245	132.09
279.461	17.41
279.676	48.13
279.892	-39.94
280.107	-60.42
280.322	-56.32
280.538	99.33
280.753	5.12
280.969	107.52
281.184	52.22
281.399	134.14
281.615	39.94
281.83	62.46
282.045	-91.13
282.26	70.65
282.476	-70.65
282.691	84.99
282.906	64.51
283.122	76.8
283.337	37.89
283.552	101.37
283.767	15.36
283.983	175.1
284.198	-13.31
284.413	80.89
284.628	-5.12
284.843	29.7
285.058	140.29
285.274	39.94
285.489	-33.79
285.704	125.95
285.919	-7.17
286.134	93.18
286.349	37.89
286.564	7.17
286.779	123.9
286.995	31.74
287.21	-56.32
287.425	50.18
287.64	-1.02
287.855	23.55
288.07	-29.7
288.285	-29.7
288.5	113.66
288.715	91.13
288.93	-93.18
289.145	-25.6
289.36	41.98
289.575	31.74
289.79	168.96
290.004	-13.31
290.219	109.57
290.434	-44.03
290.649	-80.89
290.864	-13.31
291.079	74.75
291.294	5.12
291.509	113.66
291.724	-11.26
291.938	70.65
292.153	-5.12
292.368	17.41
292.583	13.31
292.798	54.27
293.012	76.8
293.227	41.98
293.442	-56.32
293.657	66.56
293.871	35.84
294.086	27.65
294.301	150.53
294.516	117.76
294.73	21.5
294.945	-41.98
295.16	29.7
295.374	105.47
295.589	107.52
295.804	-50.18
296.018	48.13
296.233	113.66
296.447	19.46
296.662	7.17
296.877	150.53
297.091	31.74
297.306	21.5
297.52	-5.12
297.735	35.84
297.949	62.46
298.164	-31.74
298.378	66.56
298.593	-66.56
298.807	-37.89
299.022	19.46
299.236	154.62
299.451	31.74
299.665	39.94
299.88	25.6
300.094	107.52
300.309	29.7
300.523	13.31
300.737	74.75
300.952	64.51
301.166	134.14
301.381	-115.71
301.595	11.26
301.809	-9.22
302.024	21.5
302.238	-60.42
302.452	168.96
302.667	-33.79
302.881	136.19
303.095	39.94
303.309	74.75
303.524	-52.22
303.738	-3.07
303.952	-23.55
304.166	-17.41
304.381	-68.61
304.595	128
304.809	-3.07
305.023	74.75
305.237	62.46
305.452	17.41
305.666	54.27
305.88	171.01
306.094	97.28
306.308	130.05
306.522	87.04
306.736	60.42
306.95	41.98
307.164	52.22
307.379	-11.26
307.593	150.53
307.807	60.42
308.021	111.61
308.235	97.28
308.449	-113.66
308.663	-35.84
308.877	185.34
309.091	23.55
309.305	52.22
309.519	-103.42
309.733	70.65
309.947	-13.31
310.161	44.03
310.374	78.85
310.588	93.18
310.802	-52.22
311.016	-60.42
311.23	105.47
311.444	-23.55
311.658	-41.98
311.872	64.51
312.085	125.95
312.299	115.71
312.513	189.44
312.727	7.17
312.941	21.5
313.154	35.84
313.368	-54.27
313.582	5.12
313.796	21.5
314.009	64.51
314.223	113.66
314.437	64.51
314.651	21.5
314.864	-60.42
315.078	50.18
315.292	-50.18
315.505	-9.22
315.719	117.76
315.933	76.8
316.146	-11.26
316.36	11.26
316.573	128
316.787	93.18
317.001	44.03
317.214	44.03
317.428	37.89
317.641	-17.41
317.855	62.46
318.068	74.75
318.282	-5.12
318.495	58.37
318.709	35.84
318.922	-60.42
319.136	162.81
319.349	11.26
319.563	-48.13
319.776	35.84
319.99	-48.13
320.203	35.84
320.417	52.22
320.63	134.14
320.843	197.63
321.057	-9.22
321.27	89.09
321.483	93.18
321.697	128
321.91	46.08
322.124	17.41
322.337	39.94
322.55	-7.17
322.763	-33.79
322.977	-1.02
323.19	23.55
323.403	101.37
323.617	35.84
323.83	95.23
324.043	-113.66
324.256	113.66
324.469	-76.8
324.683	136.19
324.896	62.46
325.109	37.89
325.322	-50.18
325.535	19.46
325.748	74.75
325.962	-39.94
326.175	-48.13
326.388	78.85
326.601	138.24
326.814	1.02
327.027	41.98
327.24	166.91
327.453	-89.09
327.666	31.74
327.879	123.9
328.092	134.14
328.305	97.28
328.518	-58.37
328.731	15.36
328.944	44.03
329.157	31.74
329.37	11.26
329.583	164.86
329.796	105.47
330.009	-50.18
330.222	173.05
330.435	117.76
330.648	-19.46
330.861	48.13
331.073	33.79
331.286	33.79
331.499	46.08
331.712	-89.09
331.925	7.17
332.138	64.51
332.35	142.33
332.563	-15.36
332.776	107.52
332.989	-35.84
333.202	44.03
333.414	9.22
333.627	41.98
333.84	19.46
334.053	3.07
334.265	-39.94
334.478	-23.55
334.691	70.65
334.903	78.85
335.116	-91.13
335.329	78.85
335.541	78.85
335.754	156.67
335.966	44.03
336.179	56.32
336.392	46.08
336.604	-84.99
336.817	50.18
337.029	-9.22
337.242	-21.5
337.454	146.43
337.667	1.02
337.88	150.53
338.092	70.65
338.305	62.46
338.517	37.89
338.729	93.18
338.942	109.57
339.154	-58.37
339.367	-31.74
339.579	103.42
339.792	-27.65
340.004	107.52
340.217	-33.79
340.429	15.36
340.641	-3.07
340.854	13.31
341.066	-64.51
341.278	168.96
341.491	93.18
341.703	-17.41
341.915	-80.89
342.128	119.81
342.34	152.57
342.552	-17.41
342.764	41.98
342.977	62.46
343.189	70.65
343.401	15.36
343.613	-15.36
343.826	15.36
344.038	-70.65
344.25	78.85
344.462	-3.07
344.674	31.74
344.886	17.41
345.099	78.85
345.311	19.46
345.523	13.31
345.735	-60.42
345.947	54.27
346.159	64.51
346.371	-13.31
346.583	-50.18
346.795	185.34
347.007	-101.37
347.219	-3.07
347.431	-29.7
347.643	130.05
347.855	5.12
348.067	64.51
348.279	-97.28
348.491	84.99
348.703	84.99
348.915	64.51
349.127	-37.89
349.339	44.03
349.551	-5.12
349.763	84.99
349.975	19.46
350.187	152.57
350.399	76.8
350.61	132.09
350.822	21.5
351.034	37.89
351.246	80.89
351.458	144.38
351.669	50.18
351.881	115.71
352.093	93.18
352.305	162.81
352.517	76.8
352.728	60.42
352.94	54.27
353.152	3.07
353.363	-31.74
353.575	50.18
353.787	162.81
353.999	25.6
354.21	154.62
354.422	-105.47
354.633	89.09
354.845	-54.27
355.057	50.18
355.268	17.41
355.48	142.33
355.692	9.22
355.903	91.13
356.115	31.74
356.326	-15.36
356.538	125.95
356.749	113.66
356.961	84.99
357.172	72.7
357.384	-21.5
357.595	240.64
357.807	56.32
358.018	-52.22
358.23	19.46
358.441	107.52
358.653	7.17
358.864	46.08
359.075	-13.31
359.287	56.32
359.498	123.9
359.709	99.33
359.921	13.31
360.132	62.46
360.344	68.61
360.555	-17.41
360.766	21.5
360.977	70.65
361.189	101.37
361.4	-39.94
361.611	113.66
361.823	136.19
362.034	19.46
362.245	-95.23
362.456	19.46
362.667	66.56
362.879	-41.98
363.09	62.46
363.301	111.61
363.512	-37.89
363.723	9.22
363.935	-52.22
364.146	142.33
364.357	-48.13
364.568	58.37
364.779	-9.22
364.99	91.13
365.201	39.94
365.412	128
365.623	-1.02
365.834	52.22
366.045	58.37
366.256	64.51
366.467	11.26
366.678	-46.08
366.889	25.6
367.1	11.26
367.311	166.91
367.522	-41.98
367.733	27.65
367.944	23.55
368.155	-21.5
368.366	111.61
368.577	166.91
368.788	142.33
368.999	-33.79
369.209	89.09
369.42	150.53
369.631	173.05
369.842	46.08
370.053	-9.22
370.264	23.55
370.474	37.89
370.685	70.65
370.896	93.18
371.107	107.52
371.317	5.12
371.528	-17.41
371.739	144.38
371.95	64.51
372.16	158.72
372.371	3.07
372.582	109.57
372.792	39.94
373.003	-15.36
373.214	123.9
373.424	64.51
373.635	-56.32
373.846	99.33
374.056	66.56
374.267	101.37
374.477	64.51
374.688	5.12
374.898	80.89
375.109	74.75
375.319	-1.02
375.53	68.61
375.74	70.65
375.951	-46.08
376.161	103.42
376.372	140.29
376.582	-13.31
376.793	52.22
377.003	23.55
377.214	-101.37
377.424	70.65
377.635	82.94
377.845	-54.27
378.055	173.05
378.266	-76.8
378.476	-19.46
378.686	56.32
378.897	66.56
379.107	91.13
379.317	101.37
379.528	78.85
379.738	60.42
379.948	-54.27
380.158	150.53
380.369	39.94
380.579	123.9
380.789	27.65
380.999	78.85
381.21	154.62
381.42	138.24
381.63	60.42
381.84	132.09
382.05	68.61
382.261	171.01
382.471	113.66
382.681	-27.65
382.891	179.2
383.101	56.32
383.311	7.17
383.521	-58.37
383.731	23.55
383.941	48.13
384.151	46.08
384.361	-5.12
384.571	56.32
384.781	13.31
384.991	209.92
385.201	107.52
385.411	97.28
385.621	58.37
385.831	123.9
386.041	91.13
386.251	46.08
386.461	121.85
386.671	31.74
386.881	97.28
387.091	11.26
387.301	107.52
387.511	-1.02
387.72	33.79
387.93	64.51
388.14	37.89
388.35	21.5
388.56	154.62
388.769	37.89
388.979	-39.94
389.189	-35.84
389.399	39.94
389.609	76.8
389.818	31.74
390.028	56.32
390.238	15.36
390.447	-31.74
390.657	19.46
390.867	50.18
391.076	-121.85
391.286	82.94
391.496	64.51
391.705	76.8
391.915	121.85
392.125	168.96
392.334	3.07
392.544	101.37
392.753	21.5
392.963	11.26
393.172	64.51
393.382	-56.32
393.591	150.53
393.801	15.36
394.01	107.52
394.22	66.56
394.429	-7.17
394.639	-48.13
394.848	125.95
395.058	52.22
395.267	7.17
395.477	95.23
395.686	46.08
395.895	271.36
396.105	144.38
396.314	54.27
396.524	50.18
396.733	21.5
396.942	130.05
397.152	72.7
397.361	109.57
397.57	50.18
397.78	87.04
397.989	115.71
398.198	238.59
398.407	91.13
398.617	19.46
398.826	66.56
399.035	-60.42
399.244	134.14
399.453	50.18
399.663	144.38
399.872	25.6
400.081	-31.74
400.29	150.53
400.499	-1.02
400.708	150.53
400.917	1.02
401.127	56.32
401.336	-19.46
401.545	162.81
401.754	125.95
401.963	99.33
402.172	62.46
402.381	-89.09
402.59	-58.37
402.799	62.46
403.008	58.37
403.217	68.61
403.426	62.46
403.635	-25.6
403.844	101.37
404.053	-9.22
404.262	46.08
404.471	187.39
404.68	15.36
404.888	29.7
405.097	21.5
405.306	123.9
405.515	99.33
405.724	-1.02
405.933	56.32
406.142	62.46
406.35	109.57
406.559	-68.61
406.768	82.94
406.977	164.86
407.185	27.65
407.394	128
407.603	15.36
407.812	-5.12
408.02	160.77
408.229	46.08
408.438	78.85
408.646	7.17
408.855	68.61
409.064	111.61
409.272	44.03
409.481	99.33
409.69	25.6
409.898	-29.7
410.107	72.7
410.315	158.72
410.524	-33.79
410.733	113.66
410.941	33.79
411.15	128
411.358	128
411.567	148.48
411.775	15.36
411.984	15.36
412.192	148.48
412.401	74.75
412.609	132.09
412.818	166.91
413.026	91.13
413.234	-13.31
413.443	74.75
413.651	-46.08
413.86	27.65
414.068	115.71
414.276	199.68
414.485	-41.98
414.693	115.71
414.901	234.49
415.11	60.42
415.318	52.22
415.526	87.04
415.734	76.8
415.943	64.51
416.151	142.33
416.359	78.85
416.567	128
416.776	134.14
416.984	58.37
417.192	222.2
417.4	95.23
417.608	76.8
417.817	-1.02
418.025	105.47
418.233	154.62
418.441	3.07
418.649	3.07
418.857	64.51
419.065	166.91
419.273	74.75
419.481	76.8
419.689	58.37
419.897	60.42
420.105	-39.94
420.313	74.75
420.521	113.66
420.729	128
420.937	3.07
421.145	-27.65
421.353	132.09
421.561	230.4
421.769	113.66
421.977	70.65
422.185	107.52
422.393	39.94
422.601	191.49
422.809	80.89
423.017	68.61
423.224	35.84
423.432	99.33
423.64	56.32
423.848	130.05
424.056	-9.22
424.263	152.57
424.471	68.61
424.679	150.53
424.887	37.89
425.094	179.2
425.302	142.33
425.51	76.8
425.718	160.77
425.925	76.8
426.133	29.7
426.341	201.72
426.548	29.7
426.756	82.94
426.964	166.91
427.171	-23.55
427.379	56.32
427.586	64.51
427.794	195.58
428.001	62.46
428.209	103.42
428.417	244.73
428.624	142.33
428.832	142.33
429.039	80.89
429.247	109.57
429.454	191.49
429.662	224.25
429.869	130.05
430.076	156.67
430.284	179.2
430.491	214.01
430.699	160.77
430.906	216.06
431.114	111.61
431.321	226.3
431.528	179.2
431.736	91.13
431.943	125.95
432.15	177.15
432.358	199.68
432.565	273.4
432.772	-7.17
432.979	316.41
433.187	201.72
433.394	234.49
433.601	185.34
433.808	267.26
434.016	236.54
434.223	273.4
434.43	244.73
434.637	279.55
434.844	295.93
435.052	283.64
435.259	267.26
435.466	330.75
435.673	283.64
435.88	373.75
436.087	373.75
436.294	386.04
436.501	322.56
436.708	345.08
436.915	379.9
437.122	422.91
437.329	330.75
437.537	398.33
437.743	408.57
437.95	535.54
438.157	439.29
438.364	429.05
438.571	470.01
438.778	496.63
438.985	408.57
439.192	517.11
439.399	502.78
439.606	603.13
439.813	644.09
440.02	646.13
440.227	801.78
440.433	646.13
440.64	601.08
440.847	592.89
441.054	738.29
441.261	777.2
441.467	779.25
441.674	693.24
441.881	922.61
442.088	779.25
442.294	801.78
442.501	852.98
442.708	943.09
442.914	986.1
443.121	988.14
443.328	1090.54
443.534	1147.89
443.741	1131.5
443.948	1041.39
444.154	1227.76
444.361	1281
444.568	1219.57
444.774	1254.38
444.981	1129.45
445.187	1373.16
445.394	1407.98
445.6	1407.98
445.807	1627.11
446.013	1465.32
446.22	1561.58
446.426	1745.89
446.633	1836
446.839	1962.98
447.046	1725.41
447.252	2046.94
447.459	2114.53
447.665	2061.28
447.871	2159.58
448.078	2341.85
448.284	2384.86
448.491	2442.2
448.697	2597.85
448.903	2630.62
449.11	2704.34
449.316	2692.05
449.522	2900.95
449.728	3085.26
449.935	3091.41
450.141	3107.79
450.347	3439.56
450.553	3294.16
450.76	3580.87
450.966	3627.98
451.172	3623.88
451.378	3886.02
451.584	3894.21
451.791	4197.31
451.997	4387.77
452.203	4416.44
452.409	4717.5
452.615	4799.41
452.821	4643.77
453.027	4772.79
453.233	5360.56
453.44	5133.23
453.646	5548.97
453.852	5684.14
454.058	6144.93
454.264	6048.68
454.47	6382.49
454.676	6640.54
454.882	7158.67
455.088	6912.92
455.294	7295.89
455.5	7740.3
455.705	8190.85
455.911	8305.54
456.117	8491.9
456.323	9022.33
456.529	8940.41
456.735	9360.24
456.941	9735.02
457.147	10150.76
457.352	10419.04
457.558	10845.02
457.764	11502.42
457.97	11731.79
458.176	12307.27
458.381	12528.45
458.587	13308.72
458.793	13445.94
458.999	13833
459.204	15340.31
459.41	15874.83
459.616	15477.52
459.821	16667.39
460.027	17390.33
460.233	18313.96
460.438	18193.13
460.644	19122.91
460.85	19647.19
461.055	20415.18
461.261	21369.53
461.466	20638.41
461.672	21056.19
461.878	23767.7
462.083	23306.91
462.289	24097.42
462.494	24787.59
462.7	25156.22
462.905	25285.25
463.111	27400.8
463.316	28797.51
463.522	29188.67
463.727	30106.16
463.932	31484.45
464.138	32225.81
464.343	33604.1
464.549	34292.21
464.754	36217.3
464.959	37071.31
465.165	37958.08
465.37	37757.38
465.575	37534.15
465.781	40198.55
465.986	41148.81
466.191	40751.51
466.397	41023.89
466.602	40051.1
466.807	42473.85
467.012	42905.97
467.218	43690.34
467.423	43807.08
467.628	44906.83
467.833	47116.59
468.038	46094.66
468.244	45261.13
468.449	47986.98
468.654	46707
468.859	46768.44
469.064	46958.9
469.269	45533.51
469.474	46262.59
469.679	47319.34
469.885	46326.08
470.09	47075.63
470.295	46915.89
470.5	45689.16
470.705	45918.53
470.91	44798.29
471.115	44765.52
471.32	45220.17
471.525	45058.38
471.73	43362.67
471.935	42987.89
472.139	41755.01
472.344	41890.18
472.549	41349.51
472.754	40501.65
472.959	40272.28
473.164	38482.36
473.369	38009.28
473.574	38922.67
473.778	37960.12
473.983	37167.56
474.188	37145.03
474.393	35140.07
474.598	34939.37
474.802	34114.04
475.007	33657.34
475.212	33417.73
475.417	32317.97
475.621	31693.34
475.826	31543.84
476.031	30728.75
476.235	30265.91
476.44	30110.26
476.645	29518.4
476.849	29045.32
477.054	28568.14
477.259	27787.86
477.463	27914.84
477.668	27046.5
477.872	27218.53
478.077	26149.49
478.282	25680.5
478.486	25959.03
478.691	25129.6
478.895	25191.04
479.1	24816.26
479.304	24836.74
479.509	23720.6
479.713	24171.15
479.918	23728.79
480.122	23419.55
480.326	23642.78
480.531	23308.96
480.735	22852.26
480.94	23022.24
481.144	23153.31
481.348	22149.81
481.553	22370.99
481.757	21881.52
481.961	21750.45
482.166	22172.33
482.37	21717.68
482.574	21494.46
482.778	21222.08
482.983	21699.25
483.187	21009.09
483.391	21172.92
483.595	20775.62
483.8	20398.79
484.004	20394.7
484.208	20597.45
484.412	19987.15
484.616	19794.64
484.821	19817.17
485.025	19165.92
485.229	19368.66
485.433	19008.22
485.637	18660.07
485.841	18561.76
486.045	18389.74
486.249	18180.84
486.453	17566.45
486.657	17761.01
486.861	17234.68
487.065	16687.87
487.269	16896.77
487.473	16294.66
487.677	16435.97
487.881	16161.55
488.085	15577.87
488.289	15596.31
488.493	15104.79
488.697	15035.16
488.901	14695.2
489.105	14519.07
489.309	14269.22
489.512	14183.21
489.716	13634.35
489.92	13542.19
490.124	13318.96
490.328	13179.7
490.531	12872.51
490.735	12624.7
490.939	12315.46
491.143	11844.43
491.346	11897.67
491.55	11770.7
491.754	11383.63
491.958	11676.49
492.161	11008.86
492.365	10910.55
492.569	10894.17
492.772	10455.9
492.976	10609.5
493.18	10359.65
493.383	10318.69
493.587	10132.33
493.79	10091.37
493.994	9712.49
494.197	9653.1
494.401	9937.77
494.605	9495.41
494.808	9667.44
495.012	9298.8
495.215	9393.01
495.419	9458.54
495.622	9225.08
495.825	9028.47
496.029	9186.16
496.232	9065.33
496.436	9059.19
496.639	9542.51
496.843	9110.39
497.046	9044.85
497.249	9143.16
497.453	9075.57
497.656	9245.55
497.859	9194.36
498.063	9311.09
498.266	9331.57
498.469	8932.22
498.673	9034.61
498.876	8962.94
499.079	9298.8
499.282	8946.55
499.485	9636.72
499.689	9352.05
499.892	9464.69
500.095	9479.02
500.298	9534.32
500.501	9528.17
500.705	9714.54
500.908	9855.85
501.111	9851.75
501.314	9710.44
501.517	10138.47
501.72	10048.36
501.923	9902.95
502.126	10277.73
502.329	10640.22
502.532	10292.07
502.735	10500.96
502.938	10830.68
503.141	10769.24
503.344	10949.46
503.547	10967.9
503.75	11098.97
503.953	11217.75
504.156	11436.88
504.359	11658.06
504.562	11582.29
504.765	11993.93
504.968	12147.53
505.17	12333.89
505.373	12522.3
505.576	12591.94
505.779	12782.4
505.982	13040.44
506.185	13521.71
506.387	13374.26
506.59	13730.61
506.793	14183.21
506.996	13976.36
507.198	14699.3
507.401	14650.14
507.604	15051.55
507.807	15325.97
508.009	15782.67
508.212	15706.9
508.415	16341.77
508.617	16567.04
508.82	16802.56
509.022	16943.87
509.225	17611.51
509.428	17797.87
509.63	18176.75
509.833	18592.48
510.035	19374.81
510.238	19188.44
510.44	19825.36
510.643	20447.94
510.845	20710.08
511.048	20902.59
511.25	21498.55
511.453	21924.53
511.655	23009.95
511.858	23100.06
512.06	23823
512.262	24027.79
512.465	24384.14
512.667	25127.55
512.87	25713.27
513.072	26081.91
513.274	27075.17
513.477	27785.82
513.679	28183.12
513.881	28707.4
514.084	29196.87
514.286	29811.26
514.488	30327.35
514.69	31732.25
514.893	32082.45
515.095	32868.87
515.297	33452.55
515.499	33976.83
515.701	34605.55
515.904	35234.28
516.106	35736.03
516.308	36473.3
516.51	37439.94
516.712	38027.71
516.914	38998.44
517.116	39850.4
517.318	40167.84
517.52	41093.52
517.722	41294.22
517.925	42441.08
518.127	43166.06
518.329	44226.91
518.531	44061.02
518.733	45660.49
518.935	46299.45
519.136	46432.57
519.338	47579.43
519.54	48040.23
519.742	48802.07
519.944	48896.28
520.146	50706.68
520.348	51149.04
520.55	51368.18
520.752	52424.93
520.954	53383.38
521.155	52642.01
521.357	53981.38
521.559	54429.89
521.761	55349.43
521.963	55652.53
522.164	56015.02
522.366	56346.79
522.568	56936.6
522.77	56936.6
522.971	58300.55
523.173	58251.4
523.375	58388.61
523.576	58372.23
523.778	58605.7
523.98	59377.78
524.181	59523.19
524.383	59920.49
524.584	60076.14
524.786	60026.99
524.988	59891.82
525.189	60223.59
525.391	60407.91
525.592	60409.96
525.794	60465.25
525.995	60715.11
526.197	60250.22
526.398	60498.02
526.6	60323.94
526.801	60037.23
527.003	60074.09
527.204	59779.18
527.406	59693.17
527.607	59814
527.808	59336.82
528.01	58417.28
528.211	58331.27
528.412	58534.02
528.614	58228.87
528.815	58028.17
529.016	57956.49
529.218	56885.4
529.419	56766.62
529.62	56027.31
529.822	55257.27
530.023	55240.89
530.224	54782.14
530.425	54089.93
530.626	53149.91
530.828	52349.15
531.029	53338.32
531.23	52017.38
531.431	51351.79
531.632	51161.33
531.833	50635
532.035	49836.3
532.236	49400.08
532.437	49355.02
532.638	47853.86
532.839	47933.73
533.04	47190.32
533.241	46354.75
533.442	46190.91
533.643	45758.79
533.844	44538.2
534.045	44347.74
534.246	43344.23
534.447	43161.97
534.648	42547.57
534.849	41695.62
535.05	40753.55
535.251	41122.19
535.451	40515.99
535.652	40120.73
535.853	39139.75
536.054	38648.24
536.255	38752.69
536.456	37679.55
536.657	38375.86
536.857	36524.5
537.058	36600.27
537.259	36133.34
537.46	35422.69
537.66	34820.59
537.861	34525.68
538.062	34062.84
538.263	33780.22
538.463	33196.55
538.664	32717.32
538.865	32801.29
539.065	32238.1
539.266	31527.45
539.466	31623.71
539.667	30618.16
539.868	30876.2
540.068	30134.84
540.269	29973.05
540.469	29637.18
540.67	29297.22
540.87	29200.96
541.071	28881.48
541.271	28639.82
541.472	27810.39
541.672	27593.31
541.873	27374.17
542.073	26661.48
542.274	26905.19
542.474	26696.3
542.675	26153.58
542.875	26073.71
543.075	25604.73
543.276	24801.93
543.476	25117.31
543.676	24685.19
543.877	24521.35
544.077	24375.95
544.277	23863.96
544.478	23755.41
544.678	23761.56
544.878	23128.74
545.078	22919.84
545.279	22315.69
545.479	22264.49
545.679	22031.02
545.879	21760.69
546.079	21777.08
546.28	21318.33
546.48	20918.98
546.68	21021.38
546.88	20947.65
547.08	20404.94
547.28	19903.18
547.48	19923.66
547.68	19907.28
547.88	19258.07
548.081	19073.76
548.281	18911.97
548.481	18840.29
548.681	18594.53
548.881	18490.09
549.081	18078.44
549.28	17728.24
549.48	17797.87
549.68	17152.76
549.88	17308.41
550.08	16679.68
550.28	16696.07
550.48	16577.28
550.68	16306.95
550.88	16063.24
551.08	15672.08
551.279	15493.91
551.479	15209.24
551.679	15256.34
551.879	15022.87
552.079	14824.22
552.278	14529.31
552.478	14400.29
552.678	14148.39
552.878	14017.32
553.077	13587.25
553.277	13339.44
553.477	13386.55
553.676	13073.21
553.876	12985.15
554.076	12495.68
554.275	12458.82
554.475	12381
554.674	12030.79
554.874	11983.69
555.074	11709.26
555.273	11598.67
555.473	11406.16
555.672	11187.03
555.872	11062.1
556.071	10957.66
556.271	10863.45
556.47	10634.08
556.67	10421.09
556.869	10263.4
557.068	10117.99
557.268	9798.51
557.467	9671.53
557.667	9522.03
557.866	9423.73
558.065	9218.93
558.265	9110.39
558.464	8950.65
558.663	8889.21
558.863	8610.68
559.062	8629.12
559.261	8246.15
559.461	8432.51
559.66	8078.21
559.859	8057.73
560.058	7861.13
560.258	7848.84
560.457	7590.8
560.656	7775.11
560.855	7404.43
561.054	7410.57
561.253	7183.25
561.453	7105.43
561.652	6822.81
561.851	6896.53
562.05	6744.99
562.249	6536.09
562.448	6779.8
562.647	6263.71
562.846	6374.3
563.045	6538.14
563.244	6210.47
563.443	6097.83
563.642	5772.2
563.841	5960.61
564.04	5925.8
564.239	5827.5
564.438	5618.6
564.637	5419.95
564.836	5503.92
565.035	5456.81
565.234	5256.11
565.432	5381.04
565.631	5127.09
565.83	5067.7
566.029	4963.25
566.228	4989.88
566.427	5024.69
566.625	4641.72
566.824	4809.65
567.023	4776.89
567.222	4516.8
567.42	4697.02
567.619	4551.61
567.818	4467.64
568.016	4379.58
568.215	4420.54
568.414	4426.68
568.612	4412.35
568.811	4238.27
569.01	4041.67
569.208	3869.64
569.407	4004.8
569.605	4025.28
569.804	3838.92
570.002	3875.78
570.201	3800.01
570.4	3767.24
570.598	3701.7
570.797	3498.95
570.995	3496.91
571.193	3421.13
571.392	3515.34
571.59	3275.73
571.789	3406.8
571.987	3433.42
572.186	3390.41
572.384	3046.35
572.582	3228.62
572.781	3171.28
572.979	3007.44
573.177	3103.7
573.376	3048.4
573.574	3136.46
573.772	2784.21
573.971	2984.91
574.169	2683.86
574.367	2798.55
574.565	2726.87
574.763	2651.1
574.962	2716.63
575.16	2587.61
575.358	2335.71
575.556	2515.93
575.754	2493.4
575.952	2434.01
576.151	2456.54
576.349	2339.8
576.547	2151.39
576.745	2235.36
576.943	2298.84
577.141	2130.91
577.339	2104.29
577.537	2055.14
577.735	2173.92
577.933	2018.27
578.131	1993.7
578.329	2180.06
578.527	2024.42
578.725	2108.38
578.923	1833.96
579.121	1911.78
579.319	1788.9
579.516	1913.83
579.714	1991.65
579.912	1858.53
580.11	1663.97
580.308	1645.54
580.506	1653.73
580.704	1496.04
580.901	1582.06
581.099	1743.85
581.297	1588.2
581.495	1543.14
581.692	1586.15
581.89	1647.59
582.088	1565.67
582.285	1575.91
582.483	1401.83
582.681	1467.37
582.878	1434.6
583.076	1444.84
583.274	1520.62
583.471	1584.1
583.669	1321.96
583.866	1121.26
584.064	1268.72
584.262	1176.56
584.459	1305.58
584.657	1244.14
584.854	1244.14
585.052	1270.76
585.249	1211.37
585.447	1188.85
585.644	1043.44
585.841	1215.47
586.039	1207.28
586.236	1158.13
586.434	1055.73
586.631	1022.96
586.828	988.14
587.026	1012.72
587.223	955.38
587.42	1059.82
587.618	1039.34
587.815	1104.88
588.012	951.28
588.21	1031.15
588.407	1010.67
588.604	1053.68
588.801	912.37
588.999	975.86
589.196	1053.68
589.393	955.38
589.59	926.71
589.787	932.85
589.984	920.56
590.182	996.34
590.379	850.93
590.576	912.37
590.773	893.94
590.97	883.7
591.167	951.28
591.364	941.04
591.561	863.22
591.758	1027.06
591.955	932.85
592.152	918.51
592.349	900.08
592.546	883.7
592.743	814.07
592.94	863.22
593.137	947.19
593.334	963.57
593.531	990.19
593.727	955.38
593.924	836.6
594.121	912.37
594.318	916.47
594.515	941.04
594.712	1096.69
594.908	1022.96
595.105	883.7
595.302	1098.74
595.499	969.71
595.696	1057.78
595.892	926.71
596.089	1076.21
596.286	969.71
596.482	1139.69
596.679	1090.54
596.876	1080.3
597.072	1186.8
597.269	1209.33
597.466	1270.76
597.662	1250.28
597.859	1238
598.055	1303.53
598.252	1348.59
598.448	1446.89
598.645	1491.95
598.841	1512.42
599.038	1680.36
599.234	1698.79
599.431	1651.69
599.627	1758.18
599.824	1854.44
600.02	1926.11
600.217	1903.59
600.413	2114.53
600.609	2087.9
600.806	2462.68
601.002	2309.08
601.198	2372.57
601.395	2495.45
601.591	2620.38
601.787	2536.41
601.984	2745.3
602.18	2890.71
602.376	3054.55
602.572	3066.83
602.769	3316.69
602.965	3275.73
603.161	3427.28
603.357	3607.5
603.553	3820.49
603.75	3701.7
603.946	3808.2
604.142	4074.43
604.338	4209.6
604.534	4459.45
604.73	4430.78
604.926	4502.46
605.122	4821.94
605.318	4858.81
605.514	5098.42
605.71	5262.26
605.906	5540.78
606.102	5477.29
606.298	5823.4
606.494	6120.35
606.69	6192.03
606.886	6171.55
607.082	6382.49
607.278	6744.99
607.474	6669.21
607.67	7082.9
607.866	6986.65
608.062	7306.13
608.257	7549.84
608.453	7562.12
608.649	8100.74
608.845	8289.15
609.041	8539.01
609.236	8835.96
609.432	8817.53
609.628	9016.18
609.824	9651.05
610.019	9450.35
610.215	9886.57
610.411	10169.19
610.606	10290.02
610.802	10662.75
610.998	11033.43
611.193	11438.93
611.389	11520.85
611.584	11854.67
611.78	12012.36
611.976	12372.8
612.171	12841.79
612.367	13216.57
612.562	13415.22
612.758	13464.37
612.953	14021.42
613.149	14625.57
613.344	14826.27
613.539	15690.51
613.735	15670.03
613.93	16384.77
614.126	16309
614.321	17283.83
614.517	17515.25
614.712	17953.52
614.907	18186.99
615.103	19002.08
615.298	19110.62
615.493	20079.31
615.688	20255.43
615.884	21007.04
616.079	21209.79
616.274	21967.54
616.47	22649.51
616.665	22905.51
616.86	23646.87
617.055	24177.3
617.25	24832.65
617.445	25473.66
617.641	25995.89
617.836	26593.9
618.031	26987.11
618.226	28103.25
618.421	28482.13
618.616	29497.92
618.811	29786.68
619.006	30673.45
619.201	30814.76
619.396	32215.57
619.591	32147.99
619.786	33307.14
619.981	33417.73
620.176	34697.71
620.371	35035.63
620.566	36315.61
620.761	36735.44
620.956	37687.74
621.151	37880.25
621.346	38889.9
621.541	39354.79
621.735	40694.16
621.93	41159.05
622.125	41632.13
622.32	42197.37
622.515	43465.06
622.709	44144.99
622.904	44622.17
623.099	45707.59
623.294	46391.61
623.488	46928.18
623.683	47763.75
623.878	48169.25
624.072	49355.02
624.267	50159.87
624.462	50950.39
624.656	50714.87
624.851	52400.35
625.046	52560.09
625.24	54268.1
625.435	54112.45
625.629	55351.48
625.824	55316.66
626.018	56539.3
626.213	55986.35
626.407	57178.26
626.602	57387.16
626.796	58202.25
626.991	58763.39
627.185	59183.22
627.38	59359.35
627.574	59773.04
627.768	59857.01
627.963	59658.35
628.157	59969.64
628.352	60604.52
628.546	59746.42
628.74	60809.31
628.935	60047.47
629.129	60514.4
629.323	59648.11
629.517	59154.55
629.712	58765.44
629.906	58693.76
630.1	57524.37
630.294	57501.84
630.489	56148.14
630.683	55990.44
630.877	54513.86
631.071	53698.76
631.265	53131.48
631.459	51972.33
631.653	50530.56
631.848	49717.51
632.042	48322.85
632.236	47616.3
632.43	45807.94
632.624	44994.9
632.818	42971.5
633.012	41638.28
633.206	40698.26
633.4	39326.12
633.594	37863.87
633.788	36737.49
633.982	35598.82
634.176	34372.08
634.369	32995.85
634.563	31777.31
634.757	30331.44
634.951	29434.43
635.145	28219.99
635.339	27167.33
635.533	25846.39
635.726	24916.61
635.92	23548.57
636.114	22835.88
636.308	22067.89
636.501	21027.52
636.695	20259.53
636.889	19389.14
637.083	18367.21
637.276	17607.41
637.47	16941.82
637.664	16448.26
637.857	15573.78
638.051	15303.45
638.244	14703.39
638.438	14033.71
638.632	13509.43
638.825	12911.42
639.019	12356.42
639.212	11918.15
639.406	11422.55
639.599	10795.87
639.793	10713.95
639.986	10031.97
640.18	10011.5
640.373	9327.47
640.567	8700.8
640.76	8502.14
640.954	8498.05
641.147	7781.26
641.34	7543.69
641.534	7492.49
641.727	7265.17
641.92	6917.01
642.114	6605.72
642.307	6478.75
642.5	6276
642.694	5845.93
642.887	5718.95
643.08	5598.12
643.273	5335.98
643.467	5254.06
643.66	4823.99
643.853	4617.15
644.046	4535.23
644.239	4383.68
644.432	4041.67
644.626	3857.35
644.819	3675.08
645.012	3701.7
645.205	3562.44
645.398	3441.61
645.591	3306.45
645.784	3232.72
645.977	3001.3
646.17	2917.33
646.363	2911.19
646.556	2649.05
646.749	2440.15
646.942	2597.85
647.135	2507.74
647.328	2204.64
647.521	2292.7
647.714	2098.14
647.907	2085.86
648.099	1971.17
648.292	1942.5
648.485	1922.02
648.678	1833.96
648.871	1692.65
649.064	1684.45
649.256	1577.96
649.449	1496.04
649.642	1389.55
649.835	1530.86
650.027	1414.12
650.22	1395.69
650.413	1250.28
650.605	1225.71
650.798	1207.28
650.991	1182.7
651.183	1010.67
651.376	1149.93
651.568	1047.54
651.761	1053.68
651.954	1104.88
652.146	869.36
652.339	986.1
652.531	992.24
652.724	855.03
652.916	791.54
653.109	644.09
653.301	836.6
653.494	865.27
653.686	732.15
653.879	881.65
654.071	775.16
654.263	697.33
654.456	687.09
654.648	652.28
654.84	650.23
655.033	590.84
655.225	723.96
655.417	535.54
655.61	668.66
655.802	599.03
655.994	629.75
656.186	467.96
656.379	478.2
656.571	490.49
656.763	508.92
656.955	482.3
657.148	465.91
657.34	529.4
657.532	457.72
657.724	369.66
657.916	463.86
658.108	474.1
658.3	484.34
658.492	383.99
658.684	293.88
658.876	449.53
659.068	289.79
659.26	193.53
659.452	326.65
659.644	396.28
659.836	453.63
660.028	304.12
660.22	302.08
660.412	347.13
660.604	320.51
660.796	306.17
660.988	340.99
661.18	269.31
661.372	332.79
661.563	250.88
661.755	297.98
661.947	187.39
662.139	177.15
662.331	254.97
662.522	181.25
662.714	232.44
662.906	254.97
663.097	183.29
663.289	234.49
663.481	179.2
663.673	224.25
663.864	250.88
664.056	259.07
664.247	107.52
664.439	214.01
664.631	187.39
664.822	209.92
665.014	211.96
665.205	144.38
665.397	154.62
665.588	211.96
665.78	179.2
665.971	211.96
666.163	179.2
666.354	187.39
666.546	179.2
666.737	232.44
666.929	138.24
667.12	68.61
667.311	285.69
667.503	199.68
667.694	248.83
667.885	244.73
668.077	195.58
668.268	46.08
668.459	207.87
668.651	291.84
668.842	183.29
669.033	31.74
669.224	146.43
669.416	369.66
669.607	74.75
669.798	74.75
669.989	265.21
670.18	74.75
670.371	216.06
670.563	64.51
670.754	189.44
670.945	140.29
671.136	171.01
671.327	58.37
671.518	121.85
671.709	279.55
671.9	185.34
672.091	240.64
672.282	158.72
672.473	119.81
672.664	103.42
672.855	130.05
673.046	185.34
673.237	164.86
673.428	111.61
673.619	164.86
673.809	97.28
674	254.97
674.191	183.29
674.382	109.57
674.573	113.66
674.764	84.99
674.954	199.68
675.145	60.42
675.336	99.33
675.527	68.61
675.717	134.14
675.908	95.23
676.099	130.05
676.289	140.29
676.48	44.03
676.671	214.01
676.861	222.2
677.052	177.15
677.243	134.14
677.433	187.39
677.624	150.53
677.814	130.05
678.005	107.52
678.195	234.49
678.386	84.99
678.576	140.29
678.767	56.32
678.957	91.13
679.148	205.82
679.338	232.44
679.529	138.24
679.719	244.73
679.909	183.29
680.1	220.16
680.29	285.69
680.481	58.37
680.671	230.4
680.861	273.4
681.052	183.29
681.242	117.76
681.432	240.64
681.622	222.2
681.813	105.47
682.003	111.61
682.193	156.67
682.383	248.83
682.573	82.94
682.764	119.81
682.954	195.58
683.144	230.4
683.334	136.19
683.524	181.25
683.714	261.12
683.904	236.54
684.094	130.05
684.284	220.16
684.474	297.98
684.664	275.45
684.854	234.49
685.044	123.9
685.234	175.1
685.424	193.53
685.614	175.1
685.804	476.15
685.994	242.68
686.184	277.5
686.374	289.79
686.564	216.06
686.753	291.84
686.943	109.57
687.133	168.96
687.323	179.2
687.513	304.12
687.702	177.15
687.892	187.39
688.082	293.88
688.272	189.44
688.461	220.16
688.651	359.42
688.841	211.96
689.03	185.34
689.22	201.72
689.41	257.02
689.599	277.5
689.789	162.81
689.979	300.03
690.168	254.97
690.358	283.64
690.547	230.4
690.737	207.87
690.926	338.94
691.116	209.92
691.305	287.74
691.495	250.88
691.684	183.29
691.874	128
692.063	228.35
692.252	238.59
692.442	214.01
692.631	138.24
692.82	197.63
693.01	183.29
693.199	250.88
693.388	361.47
693.578	185.34
693.767	238.59
693.956	248.83
694.146	195.58
694.335	267.26
694.524	107.52
694.713	293.88
694.902	80.89
695.092	179.2
695.281	218.11
695.47	232.44
695.659	236.54
695.848	211.96
696.037	201.72
696.226	293.88
696.415	197.63
696.604	300.03
696.793	338.94
696.982	187.39
697.171	416.76
697.36	267.26
697.549	236.54
697.738	164.86
697.927	211.96
698.116	74.75
698.305	283.64
698.494	199.68
698.683	191.49
698.872	365.56
699.061	267.26
699.25	248.83
699.438	220.16
699.627	160.77
699.816	254.97
700.005	93.18
700.193	162.81
700.382	191.49
700.571	142.33
700.76	220.16
700.948	244.73
701.137	287.74
701.326	232.44
701.514	119.81
701.703	195.58
701.892	228.35
702.08	392.19
702.269	236.54
702.457	201.72
702.646	252.92
702.834	152.57
703.023	297.98
703.212	418.81
703.4	232.44
703.589	156.67
703.777	160.77
703.965	242.68
704.154	207.87
704.342	175.1
704.531	181.25
704.719	236.54
704.907	330.75
705.096	115.71
705.284	197.63
705.472	244.73
705.661	222.2
705.849	330.75
706.037	353.27
706.226	277.5
706.414	224.25
706.602	160.77
706.79	263.16
706.979	138.24
707.167	168.96
707.355	152.57
707.543	222.2
707.731	226.3
707.919	193.53
708.107	138.24
708.296	181.25
708.484	117.76
708.672	240.64
708.86	230.4
709.048	183.29
709.236	152.57
709.424	195.58
709.612	248.83
709.8	9.22
709.988	287.74
710.176	252.92
710.364	336.89
710.551	224.25
710.739	232.44
710.927	265.21
711.115	226.3
711.303	345.08
711.491	271.36
711.679	177.15
711.866	242.68
712.054	259.07
712.242	308.22
712.43	357.37
712.617	263.16
712.805	304.12
712.993	228.35
713.181	109.57
713.368	304.12
713.556	195.58
713.744	205.82
713.931	437.24
714.119	242.68
714.306	160.77
714.494	281.6
714.682	107.52
714.869	144.38
715.057	216.06
715.244	113.66
715.432	287.74
715.619	148.48
715.807	152.57
715.994	246.78
716.182	232.44
716.369	218.11
716.556	324.6
716.744	101.37
716.931	121.85
717.119	306.17
717.306	185.34
717.493	248.83
717.681	93.18
717.868	236.54
718.055	355.32
718.242	203.77
718.43	248.83
718.617	279.55
718.804	175.1
718.991	293.88
719.179	250.88
719.366	318.46
719.553	257.02
719.74	211.96
719.927	240.64
720.114	267.26
720.301	230.4
720.488	254.97
720.676	115.71
720.863	295.93
721.05	324.6
721.237	246.78
721.424	310.27
721.611	324.6
721.798	173.05
721.985	259.07
722.172	230.4
722.358	283.64
722.545	369.66
722.732	248.83
722.919	322.56
723.106	304.12
723.293	209.92
723.48	259.07
723.667	197.63
723.853	273.4
724.04	285.69
724.227	343.03
724.414	187.39
724.6	351.23
724.787	359.42
724.974	420.86
725.161	244.73
725.347	306.17
725.534	240.64
725.72	302.08
725.907	386.04
726.094	369.66
726.28	250.88
726.467	228.35
726.653	185.34
726.84	429.05
727.027	367.61
727.213	234.49
727.4	293.88
727.586	353.27
727.773	279.55
727.959	265.21
728.145	306.17
728.332	320.51
728.518	314.36
728.705	297.98
728.891	359.42
729.077	201.72
729.264	211.96
729.45	334.84
729.636	316.41
729.823	263.16
730.009	351.23
730.195	310.27
730.382	334.84
730.568	271.36
730.754	297.98
730.94	267.26
731.126	324.6
731.313	297.98
731.499	347.13
731.685	279.55
731.871	318.46
732.057	316.41
732.243	367.61
732.429	265.21
732.615	373.75
732.801	308.22
732.987	285.69
733.173	310.27
733.359	259.07
733.545	345.08
733.731	236.54
733.917	287.74
734.103	332.79
734.289	338.94
734.475	232.44
734.661	422.91
734.847	240.64
735.033	277.5
735.219	437.24
735.404	334.84
735.59	275.45
735.776	214.01
735.962	363.51
736.148	359.42
736.333	408.57
736.519	183.29
736.705	218.11
736.89	277.5
737.076	316.41
737.262	220.16
737.447	265.21
737.633	244.73
737.819	381.95
738.004	310.27
738.19	318.46
738.375	416.76
738.561	263.16
738.747	338.94
738.932	193.53
739.118	470.01
739.303	459.77
739.489	330.75
739.674	295.93
739.859	269.31
740.045	328.7
740.23	373.75
740.416	162.81
740.601	353.27
740.786	402.43
740.972	218.11
741.157	320.51
741.342	211.96
741.528	304.12
741.713	465.91
741.898	293.88
742.084	330.75
742.269	336.89
742.454	312.32
742.639	330.75
742.824	293.88
743.01	429.05
743.195	437.24
743.38	353.27
743.565	302.08
743.75	304.12
743.935	259.07
744.12	394.23
744.305	203.77
744.49	343.03
744.675	326.65
744.86	332.79
745.045	334.84
745.23	269.31
745.415	318.46
745.6	490.49
745.785	242.68
745.97	474.1
746.155	320.51
746.34	336.89
746.525	336.89
746.71	351.23
746.895	222.2
747.079	164.86
747.264	281.6
747.449	433.15
747.634	277.5
747.819	277.5
748.003	269.31
748.188	230.4
748.373	297.98
748.557	314.36
748.742	271.36
748.927	345.08
749.111	187.39
749.296	279.55
749.481	291.84
749.665	197.63
749.85	254.97
750.034	304.12
750.219	228.35
750.404	269.31
750.588	252.92
750.773	224.25
750.957	285.69
751.141	254.97
751.326	300.03
751.51	177.15
751.695	214.01
751.879	224.25
752.064	314.36
752.248	261.12
752.432	334.84
752.617	283.64
752.801	306.17
752.985	195.58
753.17	338.94
753.354	238.59
753.538	263.16
753.722	191.49
753.907	236.54
754.091	160.77
754.275	273.4
754.459	191.49
754.643	111.61
754.828	289.79
755.012	214.01
755.196	193.53
755.38	222.2
755.564	218.11
755.748	224.25
755.932	345.08
756.116	203.77
756.3	289.79
756.484	166.91
756.668	283.64
756.852	130.05
757.036	195.58
757.22	177.15
757.404	144.38
757.588	193.53
757.772	232.44
757.956	199.68
758.14	314.36
758.323	134.14
758.507	195.58
758.691	162.81
758.875	201.72
759.059	275.45
759.242	193.53
759.426	154.62
759.61	228.35
759.794	181.25
759.977	234.49
760.161	408.57
760.345	261.12
760.528	326.65
760.712	115.71
760.895	181.25
761.079	125.95
761.263	56.32
761.446	101.37
761.63	84.99
761.813	195.58
761.997	44.03
762.18	160.77
762.364	189.44
762.547	70.65
762.731	89.09
762.914	150.53
763.098	117.76
763.281	148.48
763.464	152.57
763.648	95.23
763.831	168.96
764.015	97.28
764.198	177.15
764.381	154.62
764.564	150.53
764.748	166.91
764.931	261.12
765.114	95.23
765.297	136.19
765.481	105.47
765.664	117.76
765.847	89.09
766.03	259.07
766.213	99.33
766.397	152.57
766.58	44.03
766.763	109.57
766.946	134.14
767.129	117.76
767.312	60.42
767.495	123.9
767.678	111.61
767.861	136.19
768.044	142.33
768.227	15.36
768.41	113.66
768.593	78.85
768.776	187.39
768.959	128
769.142	152.57
769.324	158.72
769.507	144.38
769.69	62.46
769.873	191.49
770.056	248.83
770.239	158.72
770.421	209.92
770.604	195.58
770.787	54.27
770.97	136.19
771.152	37.89
771.335	164.86
771.518	80.89
771.7	191.49
771.883	240.64
772.066	11.26
772.248	56.32
772.431	203.77
772.613	166.91
772.796	130.05
772.978	78.85
773.161	238.59
773.343	80.89
773.526	91.13
773.708	5.12
773.891	52.22
774.073	146.43
774.256	91.13
774.438	205.82
774.621	89.09
774.803	183.29
774.985	125.95
775.168	230.4
775.35	72.7
775.532	7.17
775.715	121.85
775.897	125.95
776.079	105.47
776.261	146.43
776.444	74.75
776.626	105.47
776.808	68.61
776.99	27.65
777.173	115.71
777.355	56.32
777.537	191.49
777.719	91.13
777.901	80.89
778.083	168.96
778.265	50.18
778.447	199.68
778.629	33.79
778.811	128
778.993	199.68
779.175	56.32
779.357	-3.07
779.539	9.22
779.721	44.03
779.903	168.96
780.085	113.66
780.267	134.14
780.449	13.31
780.631	207.87
780.812	123.9
780.994	60.42
781.176	76.8
781.358	27.65
781.54	97.28
781.721	132.09
781.903	107.52
782.085	25.6
782.267	80.89
782.448	25.6
782.63	3.07
782.812	1.02
782.993	74.75
783.175	91.13
783.357	-5.12
783.538	52.22
783.72	27.65
783.901	64.51
784.083	60.42
784.264	99.33
784.446	-3.07
784.627	-17.41
784.809	123.9
784.99	72.7
785.172	136.19
785.353	31.74
785.535	50.18
785.716	3.07
785.897	41.98
786.079	-21.5
786.26	84.99
786.441	132.09
786.623	-19.46
786.804	56.32
786.985	148.48
787.167	107.52
787.348	52.22
787.529	19.46
787.71	175.1
787.891	11.26
788.073	-50.18
788.254	-23.55
788.435	130.05
788.616	-15.36
788.797	-31.74
788.978	87.04
789.159	11.26
789.34	91.13
789.522	64.51
789.703	21.5
789.884	29.7
790.065	101.37
790.246	171.01
790.427	-25.6
790.607	185.34
790.788	103.42
790.969	-95.23
791.15	60.42
791.331	5.12
791.512	-27.65
791.693	-21.5
791.874	19.46
792.054	162.81
792.235	113.66
792.416	-37.89
792.597	5.12
792.778	60.42
792.958	66.56
793.139	58.37
793.32	66.56
793.5	-84.99
793.681	115.71
793.862	84.99
794.042	-1.02
794.223	-39.94
794.404	-39.94
794.584	-58.37
794.765	97.28
794.945	5.12
795.126	44.03
795.306	195.58
795.487	-13.31
795.667	-33.79
795.848	31.74
796.028	31.74
796.209	35.84
796.389	52.22
796.57	80.89
796.75	-23.55
796.93	87.04
797.111	-72.7
797.291	25.6
797.471	144.38
797.652	1.02
797.832	-5.12
798.012	76.8
798.192	48.13
798.373	-97.28
798.553	25.6
798.733	95.23
798.913	-64.51
799.093	39.94
799.274	-35.84
799.454	56.32
799.634	48.13
799.814	130.05
799.994	41.98
800.174	121.85
800.354	33.79
800.534	-119.81
800.714	50.18
800.894	-76.8
801.074	-33.79
801.254	-37.89
801.434	82.94
801.614	-46.08
801.794	-72.7
801.974	1700.84
802.154	-23.55
802.334	56.32
802.514	-56.32
802.693	31.74
802.873	-17.41
803.053	64.51
803.233	25.6
803.413	-41.98
803.592	-5.12
803.772	-33.79
803.952	-74.75
804.131	-99.33
804.311	93.18
804.491	101.37
804.67	-11.26
804.85	-7.17
805.03	56.32
805.209	197.63
805.389	-58.37
805.568	9.22
805.748	-35.84
805.928	66.56
806.107	66.56
806.287	-13.31
806.466	115.71
806.646	-76.8
806.825	-17.41
807.004	-44.03
807.184	74.75
807.363	15.36
807.543	5.12
807.722	-101.37
807.901	95.23
808.081	27.65
808.26	-105.47
808.439	11.26
808.619	-9.22
808.798	-46.08
808.977	9.22
809.156	87.04
809.336	60.42
809.515	121.85
809.694	-27.65
809.873	-31.74
810.052	166.91
810.231	125.95
810.411	9.22
810.59	52.22
810.769	5.12
810.948	39.94
811.127	-74.75
811.306	-62.46
811.485	-107.52
811.664	111.61
811.843	37.89
812.022	5.12
812.201	-35.84
812.38	5.12
812.559	-21.5
812.737	29.7
812.916	-68.61
813.095	-70.65
813.274	101.37
813.453	9.22
813.632	80.89
813.811	68.61
813.989	-74.75
814.168	-1.02
814.347	-72.7
814.526	54.27
814.704	74.75
814.883	103.42
815.062	-50.18
815.24	29.7
815.419	-23.55
815.598	5.12
815.776	-66.56
815.955	103.42
816.133	-113.66
816.312	7.17
816.49	-101.37
816.669	-1.02
816.847	-44.03
817.026	50.18
817.204	1.02
817.383	-17.41
817.561	-58.37
817.74	46.08
817.918	-41.98
818.097	1.02
818.275	-56.32
818.453	62.46
818.632	35.84
818.81	33.79
818.988	15.36
819.167	-48.13
819.345	-13.31
819.523	-3.07
819.701	93.18
819.879	5.12
820.058	33.79
820.236	56.32
820.414	35.84
820.592	-33.79
820.77	-23.55
820.948	31.74
821.127	-25.6
821.305	23.55
821.483	-103.42
821.661	41.98
821.839	-25.6
822.017	-15.36
822.195	-56.32
822.373	109.57
822.551	-23.55
822.729	54.27
822.907	9.22
823.085	72.7
823.262	39.94
823.44	-25.6
823.618	39.94
823.796	-13.31
823.974	-70.65
824.152	5.12
824.329	-54.27
824.507	31.74
824.685	33.79
824.863	-89.09
825.04	44.03
825.218	27.65
825.396	-15.36
825.574	-50.18
825.751	-15.36
825.929	70.65
826.107	-84.99
826.284	7.17
826.462	29.7
826.639	-52.22
826.817	-74.75
826.994	-87.04
827.172	-115.71
827.349	211.96
827.527	17.41
827.704	-11.26
827.882	-27.65
828.059	39.94
828.237	-74.75
828.414	87.04
828.591	-160.77
828.769	11.26
828.946	-17.41
829.124	3.07
829.301	17.41
829.478	9.22
829.655	29.7
829.833	56.32
830.01	-134.14
830.187	9.22
830.364	-44.03
830.542	-19.46
830.719	46.08
830.896	31.74
831.073	33.79
831.25	35.84
831.427	80.89
831.604	23.55
831.782	-31.74
831.959	37.89
832.136	-19.46
832.313	9.22
832.49	-64.51
832.667	-1.02
832.844	-41.98
833.021	89.09
833.198	5.12
833.374	62.46
833.551	62.46
833.728	-95.23
833.905	93.18
834.082	-105.47
834.259	74.75
834.436	115.71
834.612	-89.09
834.789	25.6
834.966	-52.22
835.143	91.13
835.319	-27.65
835.496	160.77
835.673	-41.98
835.85	-1.02
836.026	13.31
836.203	99.33
836.38	-91.13
836.556	-54.27
836.733	-66.56
836.909	109.57
837.086	-15.36
837.262	-107.52
837.439	-50.18
837.616	-56.32
837.792	-33.79
837.968	-29.7
838.145	-80.89
838.321	29.7
838.498	78.85
838.674	82.94
838.851	44.03
839.027	-99.33
839.203	17.41
839.38	13.31
839.556	-5.12
839.732	11.26
839.909	9.22
840.085	80.89
840.261	1.02
840.437	23.55
840.614	-23.55
840.79	35.84
840.966	64.51
841.142	-11.26
841.318	-97.28
841.494	21.5
841.671	74.75
841.847	-64.51
842.023	-25.6
842.199	41.98
842.375	80.89
842.551	-84.99
842.727	-87.04
842.903	62.46
843.079	-3.07
843.255	37.89
843.431	-19.46
843.607	29.7
843.783	-146.43
843.959	64.51
844.134	3.07
844.31	80.89
844.486	-50.18
844.662	-84.99
844.838	-52.22
845.013	9.22
845.189	48.13
845.365	19.46
845.541	-74.75
845.716	17.41
845.892	99.33
846.068	-82.94
846.244	-89.09
846.419	87.04
846.595	-111.61
846.77	-80.89
846.946	23.55
847.122	-29.7
847.297	-87.04
847.473	117.76
847.648	-89.09
847.824	15.36
847.999	-125.95
848.175	11.26
848.35	64.51
848.526	76.8
848.701	35.84
848.876	19.46
849.052	66.56
849.227	27.65
849.403	-41.98
849.578	-33.79
849.753	46.08
849.929	-15.36
850.104	-76.8
850.279	-93.18
850.454	66.56
850.63	72.7
850.805	-33.79
850.98	11.26
851.155	27.65
851.33	25.6
851.505	-173.05
851.681	154.62
851.856	21.5
852.031	11.26
852.206	76.8
852.381	-44.03
852.556	35.84
852.731	46.08
852.906	-25.6
853.081	29.7
853.256	125.95
853.431	-66.56
853.606	-37.89
853.781	-105.47
853.956	-82.94
854.131	68.61
854.305	-60.42
854.48	-29.7
854.655	-78.85
854.83	-82.94
855.005	19.46
855.18	31.74
855.354	-1.02
855.529	-3.07
855.704	-15.36
855.879	33.79
856.053	-44.03
856.228	-25.6
856.403	-70.65
856.577	-25.6
856.752	-68.61
856.926	80.89
857.101	-21.5
857.276	-29.7
857.45	9.22
857.625	87.04
857.799	52.22
857.974	17.41
858.148	-89.09
858.323	37.89
858.497	35.84
858.672	-1.02
858.846	5.12
859.02	39.94
859.195	-44.03
859.369	7.17
859.543	-21.5
859.718	48.13
859.892	-46.08
860.066	17.41
860.241	-66.56
860.415	13.31
860.589	-33.79
860.763	3.07
860.938	-62.46
861.112	-5.12
861.286	-33.79
861.46	41.98
861.634	-7.17
861.808	37.89
861.982	-52.22
862.157	-179.2
862.331	-56.32
862.505	-154.62
862.679	-35.84
862.853	-46.08
863.027	-21.5
863.201	173.05
863.375	-48.13
863.549	-35.84
863.722	54.27
863.896	37.89
864.07	-87.04
864.244	-37.89
864.418	11.26
864.592	-68.61
864.766	-37.89
864.939	-68.61
865.113	-41.98
865.287	41.98
865.461	-5.12
865.634	-23.55
865.808	-1.02
865.982	-39.94
866.156	-117.76
866.329	-166.91
866.503	50.18
866.676	29.7
866.85	3.07
867.024	-84.99
867.197	64.51
867.371	27.65
867.544	29.7
867.718	-91.13
867.891	3.07
868.065	-84.99
868.238	27.65
868.412	101.37
868.585	-9.22
868.759	-56.32
868.932	-41.98
869.105	-11.26
869.279	13.31
869.452	-19.46
869.625	76.8
869.799	-21.5
869.972	-117.76
870.145	-74.75
870.319	72.7
870.492	-99.33
870.665	-5.12
870.838	-60.42
871.011	-91.13
871.185	-41.98
871.358	-5.12
871.531	13.31
871.704	19.46
871.877	-41.98
872.05	-58.37
872.223	-64.51
872.396	70.65
872.569	54.27
872.742	-78.85
872.915	-19.46
873.088	-39.94
873.261	-17.41
873.434	25.6
873.607	-44.03
873.78	64.51
873.953	-82.94
874.126	-1.02
874.299	-13.31
874.471	-35.84
874.644	-50.18
874.817	44.03
874.99	80.89
875.163	25.6
875.335	-33.79
875.508	-9.22
875.681	62.46
875.853	-52.22
876.026	-58.37
876.199	50.18
876.371	-1.02
876.544	-58.37
876.717	-37.89
876.889	5.12
877.062	48.13
877.234	-23.55
877.407	-84.99
877.579	-44.03
877.752	-1.02
877.924	35.84
878.097	-39.94
878.269	-25.6
878.442	-35.84
878.614	64.51
878.786	-27.65
878.959	60.42
879.131	-3.07
879.303	-97.28
879.476	-7.17
879.648	82.94
879.82	-21.5
879.993	-80.89
880.165	-44.03
880.337	-119.81
880.509	-91.13
880.681	-119.81
880.854	-101.37
881.026	62.46
881.198	130.05
881.37	-9.22
881.542	-11.26
881.714	-80.89
881.886	-99.33
882.058	64.51
882.23	21.5
882.402	-101.37
882.574	19.46
882.746	-3.07
882.918	91.13
883.09	-52.22
883.262	21.5
883.434	-29.7
883.606	-164.86
883.778	-68.61
883.95	144.38
884.122	-125.95
884.293	33.79
884.465	-39.94
884.637	97.28
884.809	3.07
884.98	3.07
885.152	39.94
885.324	31.74
885.496	-109.57
885.667	-50.18
885.839	-37.89
886.011	87.04
886.182	-56.32
886.354	39.94
886.525	9.22
886.697	7.17
886.869	-84.99
887.04	-50.18
887.212	91.13
887.383	39.94
887.555	-21.5
887.726	-39.94
887.897	-76.8
888.069	37.89
888.24	27.65
888.412	-91.13
888.583	13.31
888.754	-11.26
888.926	-21.5
889.097	-78.85
889.268	-117.76
889.44	35.84
889.611	-66.56
889.782	-99.33
889.953	-95.23
890.125	52.22
890.296	-46.08
890.467	-9.22
890.638	-19.46
890.809	5.12
890.98	-41.98
891.151	-52.22
891.323	50.18
891.494	-3.07
891.665	44.03
891.836	-23.55
892.007	-5.12
892.178	39.94
892.349	37.89
892.52	-9.22
892.691	7.17
892.862	5.12
893.032	-105.47
893.203	-123.9
893.374	-9.22
893.545	25.6
893.716	-25.6
893.887	23.55
894.057	-23.55
894.228	31.74
894.399	-101.37
894.57	121.85
894.74	-48.13
894.911	-3.07
895.082	-37.89
895.253	-56.32
895.423	7.17
895.594	46.08
895.764	-52.22
895.935	-62.46
896.106	13.31
896.276	-70.65
896.447	17.41
896.617	-87.04
896.788	-123.9
896.958	-64.51
897.129	-82.94
897.299	-123.9
897.47	76.8
897.64	35.84
897.81	-39.94
897.981	-9.22
898.151	-80.89
898.322	-5.12
898.492	41.98
898.662	-70.65
898.832	-29.7
899.003	-68.61
899.173	82.94
899.343	-35.84
899.513	-152.57
