Data from USB4F104151__21__10-23-41-245.txt Node

Date: Wed Feb 26 10:23:41 EST 2025
User: louis
Spectrometer: USB4F10415
Trigger mode: 4
Integration Time (sec): 1.000000E-1
Scans to average: 1
Electric dark correction enabled: true
Nonlinearity correction enabled: false
Boxcar width: 0
XAxis mode: Wavelengths
Number of Pixels in Spectrum: 3648
>>>>>Begin Spectral Data<<<<<
178.204	-385.36
178.424	-385.36
178.644	-385.36
178.864	-405.84
179.084	-383.31
179.304	34.47
179.524	-80.21
179.744	71.34
179.964	-96.6
180.184	9.9
180.404	93.87
180.624	-37.2
180.844	-14.68
181.064	-18.77
181.283	9.9
181.503	-22.87
181.723	50.86
181.943	-63.83
182.163	124.58
182.383	48.81
182.602	-8.53
182.822	104.11
183.042	85.67
183.262	-59.73
183.482	-51.54
183.701	52.91
183.921	32.43
184.141	-8.53
184.361	9.9
184.58	38.57
184.8	-26.96
185.02	-55.64
185.239	106.15
185.459	85.67
185.679	52.91
185.898	-82.26
186.118	13.99
186.338	34.47
186.557	149.16
186.777	-12.63
186.997	13.99
187.216	46.76
187.436	198.31
187.655	5.8
187.875	126.63
188.095	-20.82
188.314	206.5
188.534	151.21
188.753	-6.49
188.973	63.15
189.192	138.92
189.412	46.76
189.631	9.9
189.851	79.53
190.07	116.39
190.29	-100.69
190.509	-51.54
190.729	50.86
190.948	102.06
191.168	247.46
191.387	67.24
191.607	106.15
191.826	69.29
192.045	50.86
192.265	-49.49
192.484	93.87
192.704	44.71
192.923	-63.83
193.142	155.3
193.362	102.06
193.581	132.78
193.8	75.43
194.02	126.63
194.239	-16.73
194.458	48.81
194.678	-14.68
194.897	38.57
195.116	50.86
195.335	48.81
195.555	-10.58
195.774	-20.82
195.993	59.05
196.212	9.9
196.432	28.33
196.651	-4.44
196.87	-41.3
197.089	212.65
197.308	44.71
197.528	57
197.747	-100.69
197.966	22.19
198.185	165.54
198.404	18.09
198.623	138.92
198.842	122.54
199.062	42.67
199.281	116.39
199.5	40.62
199.719	20.14
199.938	83.63
200.157	79.53
200.376	30.38
200.595	138.92
200.814	22.19
201.033	-6.49
201.252	81.58
201.471	50.86
201.69	116.39
201.909	28.33
202.128	40.62
202.347	28.33
202.566	-10.58
202.785	-39.25
203.004	1.71
203.223	210.6
203.442	71.34
203.661	22.19
203.879	34.47
204.098	61.1
204.317	-2.39
204.536	91.82
204.755	118.44
204.974	100.01
205.193	67.24
205.411	100.01
205.63	67.24
205.849	63.15
206.068	-65.88
206.287	-53.59
206.505	120.49
206.724	16.04
206.943	-41.3
207.162	-41.3
207.381	-14.68
207.599	11.95
207.818	73.39
208.037	-12.63
208.255	71.34
208.474	65.19
208.693	-29.01
208.911	-69.97
209.13	77.48
209.349	71.34
209.567	40.62
209.786	87.72
210.005	112.3
210.223	54.95
210.442	-104.79
210.661	44.71
210.879	13.99
211.098	-65.88
211.316	97.96
211.535	110.25
211.753	71.34
211.972	106.15
212.191	22.19
212.409	9.9
212.628	108.2
212.846	-80.21
213.065	46.76
213.283	161.45
213.502	100.01
213.72	67.24
213.938	22.19
214.157	26.28
214.375	97.96
214.594	73.39
214.812	24.23
215.031	-8.53
215.249	13.99
215.467	140.97
215.686	1.71
215.904	36.52
216.122	-16.73
216.341	134.82
216.559	79.53
216.778	188.07
216.996	167.59
217.214	-49.49
217.432	-31.06
217.651	-104.79
217.869	46.76
218.087	40.62
218.306	9.9
218.524	77.48
218.742	11.95
218.96	71.34
219.179	30.38
219.397	-18.77
219.615	245.41
219.833	52.91
220.051	106.15
220.27	122.54
220.488	85.67
220.706	79.53
220.924	-8.53
221.142	-6.49
221.36	85.67
221.578	-2.39
221.796	28.33
222.015	30.38
222.233	-8.53
222.451	108.2
222.669	-61.78
222.887	52.91
223.105	-4.44
223.323	-33.11
223.541	5.8
223.759	38.57
223.977	61.1
224.195	190.12
224.413	28.33
224.631	34.47
224.849	16.04
225.067	165.54
225.285	-14.68
225.503	-65.88
225.721	-143.7
225.939	61.1
226.157	5.8
226.375	214.7
226.592	-61.78
226.81	-22.87
227.028	149.16
227.246	42.67
227.464	-4.44
227.682	149.16
227.9	52.91
228.117	52.91
228.335	-8.53
228.553	3.75
228.771	95.91
228.989	61.1
229.206	3.75
229.424	28.33
229.642	22.19
229.86	-51.54
230.077	112.3
230.295	69.29
230.513	93.87
230.731	143.02
230.948	116.39
231.166	134.82
231.384	16.04
231.601	-26.96
231.819	143.02
232.037	-33.11
232.254	-33.11
232.472	-29.01
232.689	-16.73
232.907	63.15
233.125	32.43
233.342	28.33
233.56	40.62
233.777	36.52
233.995	-20.82
234.213	122.54
234.43	50.86
234.648	24.23
234.865	48.81
235.083	57
235.3	124.58
235.518	93.87
235.735	116.39
235.953	13.99
236.17	9.9
236.388	26.28
236.605	93.87
236.822	7.85
237.04	136.87
237.257	20.14
237.475	-49.49
237.692	-35.16
237.909	48.81
238.127	16.04
238.344	79.53
238.562	-0.34
238.779	-45.4
238.996	5.8
239.214	65.19
239.431	95.91
239.648	-14.68
239.865	95.91
240.083	67.24
240.3	-31.06
240.517	-8.53
240.735	40.62
240.952	188.07
241.169	120.49
241.386	48.81
241.603	20.14
241.821	9.9
242.038	83.63
242.255	87.72
242.472	-26.96
242.689	46.76
242.907	44.71
243.124	-18.77
243.341	16.04
243.558	-12.63
243.775	-61.78
243.992	-61.78
244.209	63.15
244.426	169.64
244.643	46.76
244.86	-49.49
245.078	61.1
245.295	38.57
245.512	5.8
245.729	-22.87
245.946	54.95
246.163	36.52
246.38	-39.25
246.597	-20.82
246.814	30.38
247.031	11.95
247.248	9.9
247.464	5.8
247.681	79.53
247.898	116.39
248.115	81.58
248.332	-16.73
248.549	181.93
248.766	89.77
248.983	52.91
249.2	87.72
249.417	91.82
249.633	-61.78
249.85	104.11
250.067	-29.01
250.284	44.71
250.501	40.62
250.717	30.38
250.934	-57.68
251.151	9.9
251.368	5.8
251.585	114.34
251.801	9.9
252.018	-26.96
252.235	104.11
252.451	-106.84
252.668	-24.92
252.885	138.92
253.102	7.85
253.318	-4.44
253.535	22.19
253.752	11.95
253.968	-0.34
254.185	-33.11
254.401	46.76
254.618	44.71
254.835	-67.92
255.051	93.87
255.268	46.76
255.484	61.1
255.701	-4.44
255.917	75.43
256.134	-29.01
256.351	3.75
256.567	-90.45
256.784	30.38
257	-61.78
257.217	100.01
257.433	48.81
257.65	77.48
257.866	104.11
258.082	-57.68
258.299	-55.64
258.515	13.99
258.732	11.95
258.948	5.8
259.165	-20.82
259.381	28.33
259.597	100.01
259.814	-33.11
260.03	-8.53
260.246	-20.82
260.463	171.69
260.679	208.55
260.895	16.04
261.112	59.05
261.328	-67.92
261.544	-4.44
261.761	204.46
261.977	24.23
262.193	-45.4
262.409	177.83
262.626	48.81
262.842	-20.82
263.058	42.67
263.274	13.99
263.49	5.8
263.707	61.1
263.923	102.06
264.139	-55.64
264.355	50.86
264.571	91.82
264.787	97.96
265.004	110.25
265.22	-37.2
265.436	7.85
265.652	34.47
265.868	91.82
266.084	-117.08
266.3	91.82
266.516	-8.53
266.732	-29.01
266.948	61.1
267.164	42.67
267.38	83.63
267.596	116.39
267.812	231.08
268.028	77.48
268.244	-4.44
268.46	54.95
268.676	54.95
268.892	67.24
269.108	44.71
269.324	-10.58
269.54	18.09
269.756	65.19
269.972	-12.63
270.188	-2.39
270.403	-43.35
270.619	40.62
270.835	102.06
271.051	32.43
271.267	-76.12
271.483	5.8
271.698	42.67
271.914	57
272.13	-18.77
272.346	-57.68
272.562	65.19
272.777	85.67
272.993	44.71
273.209	-39.25
273.425	75.43
273.64	-49.49
273.856	81.58
274.072	-35.16
274.287	-8.53
274.503	77.48
274.719	97.96
274.934	-10.58
275.15	-98.64
275.366	-61.78
275.581	-90.45
275.797	-31.06
276.012	42.67
276.228	-0.34
276.444	13.99
276.659	89.77
276.875	-33.11
277.09	13.99
277.306	-22.87
277.521	-18.77
277.737	69.29
277.952	46.76
278.168	28.33
278.383	18.09
278.599	112.3
278.814	50.86
279.03	54.95
279.245	85.67
279.461	3.75
279.676	196.26
279.892	-39.25
280.107	-67.92
280.322	-82.26
280.538	97.96
280.753	-26.96
280.969	-4.44
281.184	65.19
281.399	118.44
281.615	-90.45
281.83	26.28
282.045	-63.83
282.26	-14.68
282.476	38.57
282.691	44.71
282.906	5.8
283.122	-22.87
283.337	-31.06
283.552	65.19
283.767	-49.49
283.983	110.25
284.198	36.52
284.413	30.38
284.628	-63.83
284.843	34.47
285.058	91.82
285.274	24.23
285.489	20.14
285.704	54.95
285.919	20.14
286.134	71.34
286.349	1.71
286.564	-121.17
286.779	149.16
286.995	87.72
287.21	-90.45
287.425	34.47
287.64	57
287.855	30.38
288.07	-51.54
288.285	100.01
288.5	140.97
288.715	11.95
288.93	-53.59
289.145	-16.73
289.36	116.39
289.575	13.99
289.79	97.96
290.004	-0.34
290.219	175.78
290.434	-61.78
290.649	-20.82
290.864	36.52
291.079	30.38
291.294	-12.63
291.509	59.05
291.724	48.81
291.938	-43.35
292.153	30.38
292.368	-12.63
292.583	69.29
292.798	59.05
293.012	42.67
293.227	106.15
293.442	-10.58
293.657	75.43
293.871	13.99
294.086	83.63
294.301	192.17
294.516	63.15
294.73	110.25
294.945	1.71
295.16	-20.82
295.374	65.19
295.589	91.82
295.804	-104.79
296.018	38.57
296.233	77.48
296.447	54.95
296.662	-35.16
296.877	89.77
297.091	134.82
297.306	20.14
297.52	57
297.735	91.82
297.949	61.1
298.164	-18.77
298.378	38.57
298.593	-41.3
298.807	7.85
299.022	97.96
299.236	173.74
299.451	26.28
299.665	20.14
299.88	-22.87
300.094	22.19
300.309	-20.82
300.523	-24.92
300.737	-45.4
300.952	50.86
301.166	85.67
301.381	-18.77
301.595	1.71
301.809	85.67
302.024	-4.44
302.238	9.9
302.452	116.39
302.667	-8.53
302.881	159.4
303.095	34.47
303.309	9.9
303.524	44.71
303.738	-16.73
303.952	24.23
304.166	81.58
304.381	-117.08
304.595	128.68
304.809	-35.16
305.023	95.91
305.237	22.19
305.452	-2.39
305.666	85.67
305.88	50.86
306.094	50.86
306.308	32.43
306.522	120.49
306.736	20.14
306.95	126.63
307.164	11.95
307.379	52.91
307.593	108.2
307.807	112.3
308.021	69.29
308.235	65.19
308.449	-55.64
308.663	5.8
308.877	192.17
309.091	52.91
309.305	-35.16
309.519	-51.54
309.733	130.73
309.947	-76.12
310.161	22.19
310.374	120.49
310.588	122.54
310.802	-39.25
311.016	-2.39
311.23	93.87
311.444	-33.11
311.658	42.67
311.872	138.92
312.085	128.68
312.299	155.3
312.513	147.11
312.727	46.76
312.941	-14.68
313.154	34.47
313.368	26.28
313.582	136.87
313.796	48.81
314.009	13.99
314.223	143.02
314.437	75.43
314.651	87.72
314.864	22.19
315.078	52.91
315.292	-67.92
315.505	-16.73
315.719	54.95
315.933	34.47
316.146	32.43
316.36	-59.73
316.573	138.92
316.787	48.81
317.001	120.49
317.214	-39.25
317.428	106.15
317.641	-26.96
317.855	18.09
318.068	11.95
318.282	44.71
318.495	202.41
318.709	91.82
318.922	16.04
319.136	97.96
319.349	114.34
319.563	40.62
319.776	169.64
319.99	-53.59
320.203	73.39
320.417	11.95
320.63	106.15
320.843	165.54
321.057	24.23
321.27	-104.79
321.483	132.78
321.697	95.91
321.91	48.81
322.124	124.58
322.337	46.76
322.55	-24.92
322.763	22.19
322.977	44.71
323.19	-59.73
323.403	7.85
323.617	73.39
323.83	59.05
324.043	28.33
324.256	22.19
324.469	-47.44
324.683	128.68
324.896	52.91
325.109	36.52
325.322	-35.16
325.535	97.96
325.748	114.34
325.962	61.1
326.175	-6.49
326.388	44.71
326.601	120.49
326.814	-10.58
327.027	42.67
327.24	114.34
327.453	-123.22
327.666	18.09
327.879	124.58
328.092	151.21
328.305	89.77
328.518	-2.39
328.731	-33.11
328.944	18.09
329.157	-0.34
329.37	20.14
329.583	179.88
329.796	110.25
330.009	-45.4
330.222	11.95
330.435	124.58
330.648	83.63
330.861	46.76
331.073	52.91
331.286	114.34
331.499	-12.63
331.712	-18.77
331.925	63.15
332.138	-18.77
332.35	102.06
332.563	-22.87
332.776	145.06
332.989	20.14
333.202	36.52
333.414	-10.58
333.627	-2.39
333.84	-24.92
334.053	1.71
334.265	-20.82
334.478	-74.07
334.691	5.8
334.903	38.57
335.116	-31.06
335.329	50.86
335.541	85.67
335.754	167.59
335.966	-72.02
336.179	32.43
336.392	-24.92
336.604	-22.87
336.817	54.95
337.029	16.04
337.242	89.77
337.454	57
337.667	42.67
337.88	75.43
338.092	36.52
338.305	112.3
338.517	-33.11
338.729	-6.49
338.942	77.48
339.154	-55.64
339.367	-6.49
339.579	54.95
339.792	18.09
340.004	120.49
340.217	-16.73
340.429	5.8
340.641	-65.88
340.854	-37.2
341.066	-6.49
341.278	102.06
341.491	124.58
341.703	100.01
341.915	-78.16
342.128	102.06
342.34	3.75
342.552	-65.88
342.764	-8.53
342.977	-67.92
343.189	128.68
343.401	48.81
343.613	-63.83
343.826	9.9
344.038	-26.96
344.25	63.15
344.462	-33.11
344.674	-35.16
344.886	52.91
345.099	63.15
345.311	-10.58
345.523	-29.01
345.735	-69.97
345.947	11.95
346.159	-67.92
346.371	18.09
346.583	-41.3
346.795	79.53
347.007	52.91
347.219	71.34
347.431	-67.92
347.643	128.68
347.855	-24.92
348.067	181.93
348.279	-57.68
348.491	-37.2
348.703	173.74
348.915	32.43
349.127	34.47
349.339	93.87
349.551	-6.49
349.763	57
349.975	-33.11
350.187	116.39
350.399	89.77
350.61	85.67
350.822	3.75
351.034	65.19
351.246	-51.54
351.458	126.63
351.669	67.24
351.881	102.06
352.093	138.92
352.305	91.82
352.517	73.39
352.728	-2.39
352.94	-2.39
353.152	3.75
353.363	11.95
353.575	20.14
353.787	108.2
353.999	1.71
354.21	173.74
354.422	-14.68
354.633	22.19
354.845	34.47
355.057	65.19
355.268	-22.87
355.48	22.19
355.692	1.71
355.903	16.04
356.115	-65.88
356.326	-172.37
356.538	140.97
356.749	75.43
356.961	97.96
357.172	18.09
357.384	3.75
357.595	202.41
357.807	30.38
358.018	-18.77
358.23	120.49
358.441	173.74
358.653	77.48
358.864	93.87
359.075	-63.83
359.287	122.54
359.498	124.58
359.709	106.15
359.921	-31.06
360.132	91.82
360.344	91.82
360.555	-12.63
360.766	102.06
360.977	-47.44
361.189	85.67
361.4	-14.68
361.611	57
361.823	202.41
362.034	32.43
362.245	-41.3
362.456	54.95
362.667	83.63
362.879	1.71
363.09	28.33
363.301	89.77
363.512	61.1
363.723	-35.16
363.935	-55.64
364.146	157.35
364.357	-26.96
364.568	106.15
364.779	-78.16
364.99	143.02
365.201	-8.53
365.412	114.34
365.623	-18.77
365.834	69.29
366.045	79.53
366.256	73.39
366.467	9.9
366.678	11.95
366.889	11.95
367.1	-10.58
367.311	95.91
367.522	-67.92
367.733	112.3
367.944	36.52
368.155	-41.3
368.366	91.82
368.577	97.96
368.788	85.67
368.999	-61.78
369.209	36.52
369.42	165.54
369.631	304.81
369.842	116.39
370.053	-10.58
370.264	73.39
370.474	-6.49
370.685	34.47
370.896	9.9
371.107	192.17
371.317	-18.77
371.528	85.67
371.739	95.91
371.95	5.8
372.16	50.86
372.371	-72.02
372.582	46.76
372.792	71.34
373.003	22.19
373.214	9.9
373.424	50.86
373.635	-63.83
373.846	108.2
374.056	36.52
374.267	40.62
374.477	75.43
374.688	-2.39
374.898	54.95
375.109	5.8
375.319	38.57
375.53	50.86
375.74	83.63
375.951	85.67
376.161	54.95
376.372	89.77
376.582	-22.87
376.793	110.25
377.003	-10.58
377.214	71.34
377.424	34.47
377.635	-29.01
377.845	-65.88
378.055	143.02
378.266	-18.77
378.476	-6.49
378.686	54.95
378.897	126.63
379.107	132.78
379.317	65.19
379.528	-14.68
379.738	79.53
379.948	36.52
380.158	54.95
380.369	69.29
380.579	85.67
380.789	48.81
380.999	128.68
381.21	116.39
381.42	247.46
381.63	-43.35
381.84	104.11
382.05	48.81
382.261	77.48
382.471	108.2
382.681	69.29
382.891	155.3
383.101	85.67
383.311	-67.92
383.521	-8.53
383.731	89.77
383.941	108.2
384.151	36.52
384.361	-67.92
384.571	95.91
384.781	52.91
384.991	222.89
385.201	165.54
385.411	102.06
385.621	54.95
385.831	59.05
386.041	79.53
386.251	11.95
386.461	54.95
386.671	-22.87
386.881	13.99
387.091	-33.11
387.301	91.82
387.511	71.34
387.72	42.67
387.93	122.54
388.14	-18.77
388.35	71.34
388.56	147.11
388.769	48.81
388.979	104.11
389.189	11.95
389.399	46.76
389.609	81.58
389.818	87.72
390.028	50.86
390.238	79.53
390.447	-72.02
390.657	87.72
390.867	-18.77
391.076	-86.36
391.286	32.43
391.496	26.28
391.705	97.96
391.915	108.2
392.125	87.72
392.334	44.71
392.544	126.63
392.753	30.38
392.963	-16.73
393.172	46.76
393.382	59.05
393.591	192.17
393.801	71.34
394.01	126.63
394.22	95.91
394.429	-16.73
394.639	59.05
394.848	3.75
395.058	9.9
395.267	30.38
395.477	34.47
395.686	30.38
395.895	159.4
396.105	233.13
396.314	77.48
396.524	28.33
396.733	5.8
396.942	38.57
397.152	132.78
397.361	102.06
397.57	61.1
397.78	22.19
397.989	165.54
398.198	151.21
398.407	50.86
398.617	91.82
398.826	38.57
399.035	73.39
399.244	89.77
399.453	28.33
399.663	28.33
399.872	63.15
400.081	-94.55
400.29	161.45
400.499	-61.78
400.708	65.19
400.917	83.63
401.127	18.09
401.336	34.47
401.545	181.93
401.754	132.78
401.963	122.54
402.172	-14.68
402.381	-4.44
402.59	-4.44
402.799	81.58
403.008	183.98
403.217	18.09
403.426	108.2
403.635	3.75
403.844	22.19
404.053	57
404.262	-8.53
404.471	212.65
404.68	57
404.888	26.28
405.097	69.29
405.306	11.95
405.515	108.2
405.724	73.39
405.933	48.81
406.142	155.3
406.35	147.11
406.559	38.57
406.768	-41.3
406.977	173.74
407.185	100.01
407.394	34.47
407.603	-39.25
407.812	73.39
408.02	75.43
408.229	108.2
408.438	13.99
408.646	-55.64
408.855	110.25
409.064	93.87
409.272	-29.01
409.481	59.05
409.69	3.75
409.898	-33.11
410.107	59.05
410.315	85.67
410.524	-14.68
410.733	83.63
410.941	-4.44
411.15	128.68
411.358	57
411.567	122.54
411.775	11.95
411.984	-10.58
412.192	75.43
412.401	-63.83
412.609	155.3
412.818	122.54
413.026	7.85
413.234	-12.63
413.443	5.8
413.651	-112.98
413.86	30.38
414.068	40.62
414.276	67.24
414.485	-16.73
414.693	235.18
414.901	95.91
415.11	-8.53
415.318	34.47
415.526	104.11
415.734	91.82
415.943	36.52
416.151	145.06
416.359	7.85
416.567	30.38
416.776	138.92
416.984	40.62
417.192	120.49
417.4	63.15
417.608	-29.01
417.817	-6.49
418.025	61.1
418.233	231.08
418.441	-14.68
418.649	3.75
418.857	69.29
419.065	210.6
419.273	-78.16
419.481	-31.06
419.689	28.33
419.897	5.8
420.105	-37.2
420.313	108.2
420.521	245.41
420.729	42.67
420.937	91.82
421.145	48.81
421.353	116.39
421.561	124.58
421.769	13.99
421.977	-63.83
422.185	165.54
422.393	-39.25
422.601	67.24
422.809	79.53
423.017	5.8
423.224	83.63
423.432	59.05
423.64	-16.73
423.848	134.82
424.056	-2.39
424.263	155.3
424.471	11.95
424.679	108.2
424.887	-14.68
425.094	83.63
425.302	40.62
425.51	11.95
425.718	116.39
425.925	-16.73
426.133	79.53
426.341	136.87
426.548	13.99
426.756	54.95
426.964	87.72
427.171	81.58
427.379	59.05
427.586	57
427.794	132.78
428.001	128.68
428.209	46.76
428.417	132.78
428.624	81.58
428.832	30.38
429.039	69.29
429.247	149.16
429.454	83.63
429.662	196.26
429.869	138.92
430.076	122.54
430.284	165.54
430.491	188.07
430.699	108.2
430.906	196.26
431.114	114.34
431.321	104.11
431.528	93.87
431.736	67.24
431.943	91.82
432.15	132.78
432.358	159.4
432.565	282.28
432.772	48.81
432.979	257.7
433.187	140.97
433.394	183.98
433.601	100.01
433.808	171.69
434.016	210.6
434.223	206.5
434.43	194.22
434.637	263.85
434.844	231.08
435.052	186.02
435.259	214.7
435.466	233.13
435.673	229.03
435.88	255.65
436.087	282.28
436.294	315.05
436.501	267.94
436.708	216.74
436.915	321.19
437.122	372.39
437.329	290.47
437.537	247.46
437.743	321.19
437.95	458.4
438.157	333.48
438.364	292.52
438.571	366.25
438.778	448.16
438.985	421.54
439.192	478.88
439.399	409.25
439.606	409.25
439.813	550.56
440.02	503.46
440.227	609.95
440.433	542.37
440.64	495.27
440.847	554.66
441.054	446.12
441.261	712.35
441.467	548.51
441.674	603.81
441.881	700.06
442.088	636.58
442.294	749.22
442.501	761.5
442.708	843.42
442.914	706.21
443.121	837.28
443.328	902.81
443.534	855.71
443.741	937.63
443.948	863.9
444.154	1037.98
444.361	1119.9
444.568	1083.03
444.774	988.83
444.981	972.44
445.187	1175.19
445.394	1177.24
445.6	1269.4
445.807	1246.87
446.013	1224.34
446.22	1121.95
446.426	1314.45
446.633	1410.71
446.839	1689.23
447.046	1371.8
447.252	1582.74
447.459	1681.04
447.665	1590.93
447.871	1808.02
448.078	1914.51
448.284	1865.36
448.491	1912.46
448.697	2076.3
448.903	2082.44
449.11	2184.84
449.316	2209.42
449.522	2381.45
449.728	2373.25
449.935	2512.52
450.141	2453.13
450.347	2721.41
450.553	2619.01
450.76	2752.13
450.966	2926.21
451.172	3065.47
451.378	3083.9
451.584	3210.87
451.791	3419.77
451.997	3432.05
452.203	3561.08
452.409	3767.92
452.615	3880.56
452.821	3802.74
453.027	3874.42
453.233	4392.55
453.44	4226.67
453.646	4310.63
453.852	4638.31
454.058	4748.9
454.264	4812.39
454.47	5152.35
454.676	5279.32
454.882	5652.05
455.088	5508.69
455.294	5701.2
455.5	6043.21
455.705	6493.77
455.911	6524.49
456.117	6717
456.323	6891.07
456.529	6843.97
456.735	7509.56
456.941	7577.14
457.147	8164.91
457.352	8246.83
457.558	8599.08
457.764	9096.74
457.97	9201.18
458.176	9451.03
458.381	10040.85
458.587	10223.12
458.793	10751.49
458.999	10522.12
459.204	11892.21
459.41	12498.41
459.616	12344.81
459.821	13051.36
460.027	13651.42
460.233	14243.28
460.438	14464.46
460.644	15250.88
460.85	15058.37
461.055	15738.3
461.261	16455.09
461.466	16340.4
461.672	16838.06
461.878	18507.15
462.083	18214.29
462.289	18668.94
462.494	19684.73
462.7	19436.93
462.905	19555.71
463.111	21366.12
463.316	22543.7
463.522	23074.12
463.727	23610.69
463.932	24608.05
464.138	25339.18
464.343	26021.15
464.549	26357.02
464.754	28402.94
464.959	29160.69
465.165	29537.51
465.37	29408.49
465.575	29318.38
465.781	31397.07
465.986	32060.61
466.191	31747.27
466.397	32152.77
466.602	31114.45
466.807	32855.22
467.012	33678.5
467.218	34165.92
467.423	34702.49
467.628	35347.6
467.833	37096.56
468.038	36473.98
468.244	35757.19
468.449	37436.53
468.654	37088.37
468.859	36859
469.064	37055.61
469.269	35933.32
469.474	36367.49
469.679	37512.3
469.885	36140.16
470.09	37428.34
470.295	36859
470.5	36445.31
470.705	36437.12
470.91	35497.1
471.115	35249.3
471.32	35900.55
471.525	35232.91
471.73	34458.78
471.935	34403.49
472.139	33289.39
472.344	33307.82
472.549	32691.38
472.754	31935.68
472.959	31356.11
473.164	30354.65
473.369	30121.18
473.574	30706.9
473.778	30491.87
473.983	29742.31
474.188	29328.62
474.393	27811.07
474.598	27757.83
474.802	27077.9
475.007	26565.91
475.212	26905.87
475.417	25543.97
475.621	25218.35
475.826	24993.07
476.031	24296.76
476.235	23825.73
476.44	23788.86
476.645	23174.47
476.849	23223.62
477.054	22701.39
477.259	22031.71
477.463	22031.71
477.668	21370.21
477.872	21394.79
478.077	20776.3
478.282	20055.42
478.486	20012.41
478.691	19965.31
478.895	19559.81
479.1	19461.51
479.304	19406.21
479.509	18816.4
479.713	19199.37
479.918	18523.54
480.122	18245.01
480.326	18392.47
480.531	18224.53
480.735	18075.03
480.94	17790.36
481.144	18339.22
481.348	17397.15
481.553	17526.18
481.757	17229.22
481.961	17192.36
482.166	17341.86
482.37	17087.91
482.574	16686.51
482.778	16838.06
482.983	16741.8
483.187	16532.91
483.391	16293.3
483.595	16059.83
483.8	15818.17
484.004	15961.53
484.208	15863.22
484.412	15666.62
484.616	15668.67
484.821	15293.89
485.025	14718.41
485.229	14886.34
485.433	14734.79
485.637	14708.17
485.841	14196.18
486.045	14374.35
486.249	14032.34
486.453	13508.06
486.657	13430.24
486.861	13395.42
487.065	13112.8
487.269	13139.43
487.473	12516.84
487.677	12697.06
487.881	12475.88
488.085	12119.54
488.289	11906.55
488.493	11539.96
488.697	11554.3
488.901	11421.18
489.105	11380.22
489.309	10933.76
489.512	10888.71
489.716	10751.49
489.92	10305.04
490.124	10100.24
490.328	10135.06
490.531	9932.31
490.735	9858.58
490.939	9455.13
491.143	9195.04
491.346	9143.84
491.55	9262.62
491.754	8689.19
491.958	8646.18
492.161	8554.02
492.365	8492.59
492.569	8076.85
492.772	8021.55
492.976	8027.7
493.18	7804.47
493.383	7976.5
493.587	7599.67
493.79	7579.19
493.994	7194.17
494.197	7595.57
494.401	7175.74
494.605	7259.71
494.808	7083.58
495.012	7104.06
495.215	7140.93
495.419	7095.87
495.622	6803.01
495.825	6909.51
496.029	6794.82
496.232	6925.89
496.436	6553.16
496.639	6850.11
496.843	6696.52
497.046	6575.69
497.249	6569.54
497.453	6590.02
497.656	6604.36
497.859	6571.59
498.063	6813.25
498.266	6874.69
498.469	6368.84
498.673	6731.33
498.876	6680.13
499.079	6516.3
499.282	6481.48
499.485	7013.95
499.689	6708.8
499.892	6643.27
500.095	6610.5
500.298	6639.17
500.501	6653.51
500.705	6807.11
500.908	6962.75
501.111	6823.49
501.314	7073.34
501.517	7134.78
501.72	7028.29
501.923	7124.54
502.126	7083.58
502.329	7255.61
502.532	7282.24
502.735	7333.43
502.938	7484.98
503.141	7241.28
503.344	7659.06
503.547	7663.16
503.75	7704.12
503.953	7804.47
504.156	8044.08
504.359	8005.17
504.562	7874.1
504.765	8244.78
504.968	8390.19
505.17	8326.7
505.373	8408.62
505.576	8703.53
505.779	8775.2
505.982	8873.51
506.185	9068.06
506.387	9053.73
506.59	9248.29
506.793	9451.03
506.996	9428.51
507.198	9831.96
507.401	9856.53
507.604	10145.3
507.807	10302.99
508.009	10466.83
508.212	10618.38
508.415	10587.66
508.617	10993.15
508.82	11093.51
509.022	11331.07
509.225	11787.77
509.428	11558.39
509.63	12213.74
509.833	12178.93
510.035	12778.98
510.238	12699.11
510.44	12971.49
510.643	13426.14
510.845	13792.73
511.048	13657.56
511.25	14106.07
511.453	14151.12
511.655	14972.36
511.858	14896.58
512.06	15578.56
512.262	15685.05
512.465	16002.49
512.667	16416.18
512.87	16696.75
513.072	16952.74
513.274	17671.58
513.477	17544.61
513.679	17898.91
513.881	18515.34
514.084	18830.73
514.286	19213.7
514.488	19625.34
514.69	20233.59
514.893	20462.96
515.095	20653.42
515.297	21142.89
515.499	21775.71
515.701	22267.22
515.904	22697.3
516.106	22936.91
516.308	23622.98
516.51	24198.46
516.712	24143.16
516.914	24952.11
517.116	25310.5
517.318	25779.49
517.52	25914.66
517.722	26563.86
517.925	27157.77
518.127	27669.76
518.329	28300.54
518.531	28280.06
518.733	29240.56
518.935	29193.45
519.136	29512.94
519.338	30407.9
519.54	30450.91
519.742	31263.95
519.944	31241.42
520.146	31884.48
520.348	32470.2
520.55	32689.34
520.752	33328.3
520.954	33475.76
521.155	33565.87
521.357	33969.32
521.559	34620.57
521.761	35671.18
521.963	35687.56
522.164	35837.06
522.366	35482.77
522.568	36490.37
522.77	36203.65
522.971	37153.91
523.173	36555.9
523.375	37203.06
523.576	37399.66
523.778	37350.51
523.98	37760.11
524.181	37936.23
524.383	37985.38
524.584	38298.72
524.786	38024.29
524.988	37796.97
525.189	38286.43
525.391	38685.79
525.592	38605.92
525.794	38540.38
525.995	38409.31
526.197	38304.87
526.398	38526.05
526.6	38800.47
526.801	38218.85
527.003	38335.59
527.204	38147.17
527.406	37792.87
527.607	37661.8
527.808	37704.81
528.01	36791.42
528.211	37117.04
528.412	37153.91
528.614	36926.58
528.815	36709.5
529.016	36775.03
529.218	36027.52
529.419	35720.33
529.62	35597.45
529.822	35048.6
530.023	34784.41
530.224	34518.17
530.425	34231.46
530.626	33348.78
530.828	33098.93
531.029	33377.45
531.23	32724.15
531.431	32298.17
531.632	32109.76
531.833	31796.42
532.035	31057.1
532.236	30833.88
532.437	30942.42
532.638	30518.49
532.839	29777.12
533.04	29830.37
533.241	28929.27
533.442	29211.88
533.643	28245.24
533.844	27712.77
534.045	27802.88
534.246	26993.93
534.447	27067.66
534.648	26805.52
534.849	26258.71
535.05	25738.53
535.251	25351.46
535.451	25216.3
535.652	24888.62
535.853	24528.18
536.054	24517.94
536.255	23950.65
536.456	23446.85
536.657	23500.1
536.857	22904.14
537.058	22474.07
537.259	22308.18
537.46	22017.37
537.66	21550.43
537.861	21253.48
538.062	21359.97
538.263	20718.96
538.463	20653.42
538.664	20467.06
538.865	20051.32
539.065	19942.78
539.266	19578.24
539.466	19574.14
539.667	19008.9
539.868	19348.87
540.068	18470.29
540.269	18554.26
540.469	18384.27
540.67	18144.66
540.87	17847.71
541.071	17591.71
541.271	17737.12
541.472	17038.76
541.672	16919.98
541.873	16600.49
542.073	16274.87
542.274	16604.59
542.474	16051.64
542.675	15898.04
542.875	16096.69
543.075	15500.73
543.276	15627.71
543.476	15384
543.676	15312.32
543.877	15316.42
544.077	14898.63
544.277	14890.44
544.478	14652.88
544.678	14505.42
544.878	14196.18
545.078	14040.53
545.279	13848.02
545.479	13555.16
545.679	13475.29
545.879	13426.14
546.079	13155.81
546.28	13004.26
546.48	13039.08
546.68	12938.73
546.88	12729.83
547.08	12463.6
547.28	12312.05
547.48	12072.43
547.68	12068.34
547.88	11894.26
548.081	11765.24
548.281	11445.76
548.481	11367.93
548.681	11376.13
548.881	11286.01
549.081	11032.07
549.28	11023.87
549.48	10948.1
549.68	10604.04
549.88	10386.96
550.08	10272.27
550.28	10321.42
550.48	9983.51
550.68	10139.15
550.88	9926.16
551.08	9434.65
551.279	9453.08
551.479	9209.37
551.679	9444.89
551.879	9027.1
552.079	9121.31
552.278	8846.88
552.478	8869.41
552.678	8592.94
552.878	8486.44
553.077	8128.05
553.277	8234.54
553.477	8058.42
553.676	8050.22
553.876	7921.2
554.076	7558.71
554.275	7687.73
554.475	7355.96
554.674	7454.26
554.874	7214.65
555.074	7091.77
555.273	6981.18
555.473	6987.33
555.672	6751.81
555.872	6788.68
556.071	6815.3
556.271	6639.17
556.47	6266.44
556.67	6295.11
556.869	6129.23
557.068	6157.9
557.268	6032.97
557.467	5881.42
557.667	5862.99
557.866	5598.81
558.065	5445.21
558.265	5527.13
558.464	5320.28
558.663	5391.96
558.863	5365.34
559.062	5121.63
559.261	4851.3
559.461	5127.77
559.66	5013.09
559.859	4709.99
560.058	4701.79
560.258	4566.63
560.457	4820.58
560.656	4757.09
560.855	4441.7
561.054	4406.89
561.253	4474.47
561.453	4410.98
561.652	4327.02
561.851	4257.39
562.05	4009.58
562.249	3991.15
562.448	4095.6
562.647	3929.71
562.846	3743.35
563.045	3835.5
563.244	3651.19
563.443	3788.4
563.642	3503.73
563.841	3761.78
564.04	3430.01
564.239	3587.7
564.438	3456.63
564.637	3389.05
564.836	3370.62
565.035	3257.98
565.234	3245.69
565.432	3268.22
565.631	3159.67
565.83	3061.37
566.029	3006.08
566.228	3016.32
566.427	3098.24
566.625	2868.86
566.824	3051.13
567.023	2875.01
567.222	2754.18
567.42	2811.52
567.619	2823.81
567.818	2672.26
568.016	2864.77
568.215	2635.39
568.414	2700.93
568.612	2604.67
568.811	2492.04
569.01	2481.8
569.208	2440.84
569.407	2489.99
569.605	2426.5
569.804	2299.53
570.002	2309.77
570.201	2262.66
570.4	2379.4
570.598	2328.2
570.797	2190.99
570.995	2021
571.193	2176.65
571.392	2121.35
571.59	1998.48
571.789	2164.36
571.987	2055.82
572.186	1978
572.384	1881.74
572.582	1896.08
572.781	1971.85
572.979	1808.02
573.177	1842.83
573.376	1752.72
573.574	1873.55
573.772	1646.23
573.971	1648.27
574.169	1599.12
574.367	1785.49
574.565	1597.07
574.763	1607.31
574.962	1664.66
575.16	1515.16
575.358	1414.81
575.556	1459.86
575.754	1517.2
575.952	1482.39
576.151	1470.1
576.349	1455.76
576.547	1324.69
576.745	1349.27
576.943	1400.47
577.141	1367.7
577.339	1234.58
577.537	1330.84
577.735	1388.18
577.933	1232.54
578.131	1197.72
578.329	1332.89
578.527	1193.62
578.725	1253.02
578.923	1138.33
579.121	1296.02
579.319	960.16
579.516	1085.08
579.714	1367.7
579.912	1136.28
580.11	900.76
580.308	1031.83
580.506	1025.69
580.704	990.88
580.901	1029.79
581.099	1029.79
581.297	884.38
581.495	976.54
581.692	904.86
581.89	997.02
582.088	1011.36
582.285	882.33
582.483	968.35
582.681	853.66
582.878	921.24
583.076	831.13
583.274	863.9
583.471	841.37
583.669	908.96
583.866	771.74
584.064	792.22
584.262	738.98
584.459	784.03
584.657	769.69
584.854	923.29
585.052	751.26
585.249	833.18
585.447	683.68
585.644	745.12
585.841	816.8
586.039	743.07
586.236	714.4
586.434	665.25
586.631	632.48
586.828	665.25
587.026	675.49
587.223	511.65
587.42	597.67
587.618	667.3
587.815	657.06
588.012	665.25
588.21	564.9
588.407	622.24
588.604	614.05
588.801	612
588.999	519.84
589.196	667.3
589.393	536.23
589.59	581.28
589.787	505.51
589.984	548.51
590.182	575.14
590.379	485.03
590.576	618.15
590.773	542.37
590.97	478.88
591.167	579.23
591.364	568.99
591.561	581.28
591.758	648.86
591.955	564.9
592.152	444.07
592.349	493.22
592.546	491.17
592.743	480.93
592.94	556.71
593.137	497.32
593.334	505.51
593.531	511.65
593.727	507.55
593.924	487.08
594.121	472.74
594.318	472.74
594.515	585.38
594.712	710.3
594.908	693.92
595.105	442.02
595.302	589.47
595.499	622.24
595.696	738.98
595.892	507.55
596.089	616.1
596.286	568.99
596.482	763.55
596.679	628.39
596.876	538.27
597.072	718.5
597.269	636.58
597.466	704.16
597.662	667.3
597.859	812.7
598.055	724.64
598.252	759.46
598.448	857.76
598.645	882.33
598.841	845.47
599.038	992.92
599.234	972.44
599.431	958.11
599.627	1033.88
599.824	1066.65
600.02	1087.13
600.217	1011.36
600.413	1162.9
600.609	1138.33
600.806	1482.39
601.002	1345.17
601.198	1357.46
601.395	1433.24
601.591	1443.48
601.787	1504.92
601.984	1638.03
602.18	1578.64
602.376	1603.22
602.572	1783.44
602.769	1871.5
602.965	1791.63
603.161	2008.72
603.357	1998.48
603.553	2190.99
603.75	2111.11
603.946	2313.86
604.142	2309.77
604.338	2508.42
604.534	2363.01
604.73	2461.32
604.926	2653.83
605.122	2934.4
605.318	2877.05
605.514	2932.35
605.71	2813.57
605.906	3131
606.102	3165.82
606.298	3237.5
606.494	3374.71
606.69	3483.25
606.886	3419.77
607.082	3565.17
607.278	3804.78
607.474	3843.7
607.67	3882.61
607.866	3839.6
608.062	4275.82
608.257	4329.06
608.453	4314.73
608.649	4544.1
608.845	4554.34
609.041	4574.82
609.236	5062.24
609.432	4892.26
609.628	5131.87
609.824	5273.18
610.019	5500.5
610.215	5566.04
610.411	5889.62
610.606	6008.4
610.802	5981.78
610.998	6235.72
611.193	6372.94
611.389	6434.38
611.584	6614.6
611.78	6717
611.976	6882.88
612.171	7366.2
612.367	7589.43
612.562	7640.63
612.758	7706.17
612.953	7951.92
613.149	8347.18
613.344	8308.27
613.539	8775.2
613.735	8961.57
613.93	9276.96
614.126	9373.21
614.321	9612.82
614.517	9868.82
614.712	10106.38
614.907	10640.9
615.103	10481.16
615.298	10862.08
615.493	11062.79
615.688	11206.14
615.884	12035.57
616.079	11970.04
616.274	12389.87
616.47	12590.57
616.665	12897.77
616.86	13428.19
617.055	13651.42
617.25	13950.42
617.445	14429.65
617.641	14519.76
617.836	15246.79
618.031	15232.45
618.226	15977.91
618.421	15939
618.616	16469.42
618.811	16575.92
619.006	17245.6
619.201	17440.16
619.396	17714.59
619.591	18230.68
619.786	18687.37
619.981	18918.79
620.176	19744.13
620.371	19709.31
620.566	20538.74
620.761	20890.99
620.956	21495.14
621.151	21503.33
621.346	22152.54
621.541	22211.93
621.735	22973.77
621.93	23031.12
622.125	23870.78
622.32	24034.62
622.515	24501.56
622.709	24898.86
622.904	25781.54
623.099	25732.39
623.294	26545.43
623.488	26604.82
623.683	27657.48
623.878	27104.53
624.072	28327.16
624.267	28431.61
624.462	28984.56
624.656	29644.01
624.851	30137.57
625.046	30280.92
625.24	30776.53
625.435	30829.78
625.629	31300.81
625.824	31814.85
626.018	32500.92
626.213	32019.65
626.407	32955.57
626.602	32986.29
626.796	33983.65
626.991	34262.18
627.185	34489.5
627.38	34286.75
627.574	34970.77
627.768	35241.1
627.963	35105.94
628.157	35310.74
628.352	35585.16
628.546	35179.67
628.74	36037.76
628.935	35290.26
629.129	36060.29
629.323	35105.94
629.517	35230.87
629.712	34942.1
629.906	34577.56
630.1	34569.37
630.294	34712.73
630.489	33506.48
630.683	33926.31
630.877	32732.34
631.071	32136.38
631.265	32376
631.459	31796.42
631.653	30809.3
631.848	30156
632.042	28998.9
632.236	28818.67
632.43	28052.73
632.624	27249.93
632.818	26686.74
633.012	25845.02
633.206	25017.64
633.4	24180.03
633.594	22875.47
633.788	22828.37
633.982	21908.83
634.176	21515.62
634.369	20368.76
634.563	19852.67
634.757	18879.88
634.951	18376.08
635.145	17345.95
635.339	16989.61
635.533	16000.44
635.726	15664.57
635.92	14908.87
636.114	14288.34
636.308	13790.68
636.501	13254.11
636.695	12670.44
636.889	12174.83
637.083	11755
637.276	11331.07
637.47	10630.66
637.664	10376.72
637.857	10155.54
638.051	9678.36
638.244	9098.78
638.438	8762.92
638.632	8580.65
638.825	7917.11
639.019	7859.76
639.212	7573.05
639.406	7192.12
639.599	6897.22
639.793	6735.43
639.986	6389.32
640.18	6213.2
640.373	5852.75
640.567	5525.08
640.76	5486.17
640.954	5215.84
641.147	4896.35
641.34	4828.77
641.534	4701.79
641.727	4646.5
641.92	4406.89
642.114	4281.96
642.307	3968.62
642.5	3894.9
642.694	3714.67
642.887	3489.4
643.08	3518.07
643.273	3335.8
643.467	3255.93
643.66	3051.13
643.853	2875.01
644.046	2836.1
644.239	2860.67
644.432	2627.2
644.626	2565.76
644.819	2297.48
645.012	2426.5
645.205	2297.48
645.398	2248.33
645.591	2076.3
645.784	1861.26
645.977	1769.1
646.17	1865.36
646.363	1797.78
646.556	1726.1
646.749	1670.8
646.942	1564.31
647.135	1468.05
647.328	1463.96
647.521	1394.33
647.714	1330.84
647.907	1375.89
648.099	1293.97
648.292	1185.43
648.485	1144.47
648.678	1119.9
648.871	1144.47
649.064	1072.79
649.256	929.44
649.449	966.3
649.642	898.72
649.835	892.57
650.027	847.52
650.22	839.33
650.413	829.09
650.605	857.76
650.798	757.41
650.991	769.69
651.183	741.02
651.376	759.46
651.568	657.06
651.761	624.29
651.954	644.77
652.146	550.56
652.339	718.5
652.531	642.72
652.724	501.41
652.916	446.12
653.109	431.78
653.301	519.84
653.494	503.46
653.686	511.65
653.879	558.75
654.071	497.32
654.263	396.96
654.456	431.78
654.648	515.75
654.84	364.2
655.033	390.82
655.225	493.22
655.417	249.51
655.61	433.83
655.802	392.87
655.994	491.17
656.186	296.61
656.379	370.34
656.571	319.14
656.763	345.77
656.955	300.71
657.148	192.17
657.34	351.91
657.532	218.79
657.724	204.46
657.916	226.98
658.108	327.33
658.3	323.24
658.492	198.31
658.684	175.78
658.876	331.43
659.068	186.02
659.26	97.96
659.452	145.06
659.644	255.65
659.836	394.92
660.028	253.61
660.22	210.6
660.412	247.46
660.604	210.6
660.796	186.02
660.988	308.9
661.18	296.61
661.372	288.42
661.563	106.15
661.755	181.93
661.947	128.68
662.139	149.16
662.331	171.69
662.522	214.7
662.714	100.01
662.906	52.91
663.097	231.08
663.289	73.39
663.481	89.77
663.673	155.3
663.864	202.41
664.056	177.83
664.247	63.15
664.439	253.61
664.631	124.58
664.822	186.02
665.014	108.2
665.205	28.33
665.397	132.78
665.588	91.82
665.78	153.26
665.971	106.15
666.163	36.52
666.354	183.98
666.546	42.67
666.737	110.25
666.929	63.15
667.12	52.91
667.311	114.34
667.503	114.34
667.694	87.72
667.885	188.07
668.077	183.98
668.268	97.96
668.459	175.78
668.651	63.15
668.842	153.26
669.033	42.67
669.224	-10.58
669.416	255.65
669.607	52.91
669.798	7.85
669.989	222.89
670.18	44.71
670.371	128.68
670.563	67.24
670.754	151.21
670.945	122.54
671.136	151.21
671.327	7.85
671.518	83.63
671.709	206.5
671.9	171.69
672.091	214.7
672.282	50.86
672.473	83.63
672.664	30.38
672.855	104.11
673.046	175.78
673.237	167.59
673.428	175.78
673.619	165.54
673.809	71.34
674	63.15
674.191	235.18
674.382	175.78
674.573	102.06
674.764	87.72
674.954	200.36
675.145	28.33
675.336	38.57
675.527	91.82
675.717	69.29
675.908	106.15
676.099	100.01
676.289	192.17
676.48	7.85
676.671	93.87
676.861	83.63
677.052	75.43
677.243	59.05
677.433	91.82
677.624	114.34
677.814	149.16
678.005	102.06
678.195	177.83
678.386	11.95
678.576	59.05
678.767	67.24
678.957	130.73
679.148	179.88
679.338	167.59
679.529	153.26
679.719	124.58
679.909	183.98
680.1	194.22
680.29	114.34
680.481	67.24
680.671	173.74
680.861	161.45
681.052	128.68
681.242	71.34
681.432	69.29
681.622	50.86
681.813	91.82
682.003	186.02
682.193	16.04
682.383	194.22
682.573	87.72
682.764	149.16
682.954	124.58
683.144	226.98
683.334	89.77
683.524	143.02
683.714	183.98
683.904	143.02
684.094	71.34
684.284	204.46
684.474	241.32
684.664	210.6
684.854	251.56
685.044	220.84
685.234	204.46
685.424	134.82
685.614	85.67
685.804	265.89
685.994	208.55
686.184	151.21
686.374	231.08
686.564	155.3
686.753	196.26
686.943	89.77
687.133	157.35
687.323	249.51
687.513	243.37
687.702	194.22
687.892	138.92
688.082	245.41
688.272	229.03
688.461	108.2
688.651	325.29
688.841	233.13
689.03	181.93
689.22	179.88
689.41	200.36
689.599	241.32
689.789	122.54
689.979	257.7
690.168	77.48
690.358	216.74
690.547	226.98
690.737	231.08
690.926	147.11
691.116	126.63
691.305	288.42
691.495	265.89
691.684	106.15
691.874	128.68
692.063	140.97
692.252	243.37
692.442	165.54
692.631	124.58
692.82	140.97
693.01	214.7
693.199	120.49
693.388	202.41
693.578	73.39
693.767	190.12
693.956	186.02
694.146	147.11
694.335	214.7
694.524	73.39
694.713	208.55
694.902	87.72
695.092	136.87
695.281	161.45
695.47	192.17
695.659	130.73
695.848	218.79
696.037	132.78
696.226	171.69
696.415	210.6
696.604	267.94
696.793	173.74
696.982	85.67
697.171	259.75
697.36	183.98
697.549	167.59
697.738	34.47
697.927	124.58
698.116	20.14
698.305	183.98
698.494	177.83
698.683	175.78
698.872	267.94
699.061	140.97
699.25	112.3
699.438	159.4
699.627	161.45
699.816	333.48
700.005	22.19
700.193	120.49
700.382	212.65
700.571	153.26
700.76	212.65
700.948	202.41
701.137	198.31
701.326	200.36
701.514	85.67
701.703	237.22
701.892	140.97
702.08	288.42
702.269	161.45
702.457	167.59
702.646	167.59
702.834	163.5
703.023	190.12
703.212	202.41
703.4	128.68
703.589	63.15
703.777	110.25
703.965	130.73
704.154	46.76
704.342	75.43
704.531	140.97
704.719	130.73
704.907	177.83
705.096	91.82
705.284	67.24
705.472	126.63
705.661	177.83
705.849	134.82
706.037	140.97
706.226	194.22
706.414	114.34
706.602	48.81
706.79	161.45
706.979	87.72
707.167	161.45
707.355	48.81
707.543	85.67
707.731	138.92
707.919	110.25
708.107	190.12
708.296	155.3
708.484	93.87
708.672	216.74
708.86	263.85
709.048	140.97
709.236	20.14
709.424	151.21
709.612	151.21
709.8	30.38
709.988	42.67
710.176	153.26
710.364	214.7
710.551	210.6
710.739	118.44
710.927	108.2
711.115	145.06
711.303	192.17
711.491	300.71
711.679	108.2
711.866	186.02
712.054	126.63
712.242	208.55
712.43	138.92
712.617	71.34
712.805	192.17
712.993	130.73
713.181	59.05
713.368	192.17
713.556	136.87
713.744	63.15
713.931	290.47
714.119	132.78
714.306	124.58
714.494	42.67
714.682	112.3
714.869	24.23
715.057	188.07
715.244	77.48
715.432	204.46
715.619	138.92
715.807	155.3
715.994	222.89
716.182	229.03
716.369	224.94
716.556	216.74
716.744	52.91
716.931	48.81
717.119	159.4
717.306	179.88
717.493	194.22
717.681	102.06
717.868	143.02
718.055	198.31
718.242	93.87
718.43	188.07
718.617	222.89
718.804	126.63
718.991	249.51
719.179	159.4
719.366	241.32
719.553	288.42
719.74	179.88
719.927	192.17
720.114	177.83
720.301	100.01
720.488	116.39
720.676	138.92
720.863	306.85
721.05	231.08
721.237	224.94
721.424	247.46
721.611	118.44
721.798	89.77
721.985	177.83
722.172	257.7
722.358	130.73
722.545	267.94
722.732	198.31
722.919	284.33
723.106	274.09
723.293	194.22
723.48	267.94
723.667	138.92
723.853	241.32
724.04	229.03
724.227	282.28
724.414	79.53
724.6	249.51
724.787	335.53
724.974	313
725.161	169.64
725.347	65.19
725.534	306.85
725.72	179.88
725.907	329.38
726.094	224.94
726.28	136.87
726.467	194.22
726.653	188.07
726.84	315.05
727.027	308.9
727.213	265.89
727.4	183.98
727.586	257.7
727.773	276.13
727.959	163.5
728.145	274.09
728.332	261.8
728.518	208.55
728.705	282.28
728.891	192.17
729.077	274.09
729.264	126.63
729.45	216.74
729.636	269.99
729.823	239.27
730.009	278.18
730.195	280.23
730.382	317.09
730.568	120.49
730.754	231.08
730.94	331.43
731.126	233.13
731.313	226.98
731.499	214.7
731.685	304.81
731.871	226.98
732.057	362.15
732.243	364.2
732.429	315.05
732.615	335.53
732.801	288.42
732.987	249.51
733.173	206.5
733.359	202.41
733.545	249.51
733.731	245.41
733.917	366.25
734.103	331.43
734.289	255.65
734.475	198.31
734.661	339.62
734.847	274.09
735.033	239.27
735.219	319.14
735.404	251.56
735.59	130.73
735.776	210.6
735.962	247.46
736.148	300.71
736.333	337.57
736.519	128.68
736.705	224.94
736.89	288.42
737.076	218.79
737.262	173.74
737.447	243.37
737.633	255.65
737.819	382.63
738.004	267.94
738.19	280.23
738.375	382.63
738.561	300.71
738.747	327.33
738.932	179.88
739.118	462.5
739.303	302.76
739.489	335.53
739.674	224.94
739.859	204.46
740.045	317.09
740.23	302.76
740.416	163.5
740.601	276.13
740.786	294.57
740.972	233.13
741.157	267.94
741.342	249.51
741.528	257.7
741.713	341.67
741.898	288.42
742.084	278.18
742.269	296.61
742.454	347.81
742.639	382.63
742.824	308.9
743.01	376.48
743.195	437.92
743.38	235.18
743.565	302.76
743.75	274.09
743.935	327.33
744.12	341.67
744.305	288.42
744.49	220.84
744.675	257.7
744.86	286.37
745.045	317.09
745.23	253.61
745.415	278.18
745.6	399.01
745.785	241.32
745.97	327.33
746.155	335.53
746.34	276.13
746.525	278.18
746.71	345.77
746.895	210.6
747.079	253.61
747.264	210.6
747.449	292.52
747.634	345.77
747.819	249.51
748.003	245.41
748.188	198.31
748.373	317.09
748.557	286.37
748.742	300.71
748.927	315.05
749.111	216.74
749.296	300.71
749.481	255.65
749.665	327.33
749.85	122.54
750.034	237.22
750.219	280.23
750.404	220.84
750.588	269.99
750.773	237.22
750.957	265.89
751.141	229.03
751.326	292.52
751.51	157.35
751.695	226.98
751.879	214.7
752.064	386.72
752.248	212.65
752.432	288.42
752.617	304.81
752.801	317.09
752.985	130.73
753.17	319.14
753.354	261.8
753.538	216.74
753.722	143.02
753.907	163.5
754.091	173.74
754.275	292.52
754.459	79.53
754.643	134.82
754.828	198.31
755.012	269.99
755.196	149.16
755.38	210.6
755.564	231.08
755.748	186.02
755.932	206.5
756.116	173.74
756.3	192.17
756.484	157.35
756.668	122.54
756.852	128.68
757.036	183.98
757.22	183.98
757.404	222.89
757.588	116.39
757.772	269.99
757.956	122.54
758.14	329.38
758.323	102.06
758.507	220.84
758.691	108.2
758.875	196.26
759.059	329.38
759.242	120.49
759.426	134.82
759.61	153.26
759.794	91.82
759.977	296.61
760.161	325.29
760.345	255.65
760.528	169.64
760.712	192.17
760.895	276.13
761.079	81.58
761.263	54.95
761.446	91.82
761.63	179.88
761.813	261.8
761.997	108.2
762.18	157.35
762.364	194.22
762.547	1.71
762.731	143.02
762.914	220.84
763.098	69.29
763.281	81.58
763.464	93.87
763.648	179.88
763.831	95.91
764.015	34.47
764.198	231.08
764.381	110.25
764.564	114.34
764.748	165.54
764.931	83.63
765.114	132.78
765.297	202.41
765.481	91.82
765.664	120.49
765.847	122.54
766.03	261.8
766.213	118.44
766.397	87.72
766.58	67.24
766.763	183.98
766.946	100.01
767.129	161.45
767.312	89.77
767.495	65.19
767.678	63.15
767.861	89.77
768.044	54.95
768.227	36.52
768.41	136.87
768.593	134.82
768.776	159.4
768.959	151.21
769.142	177.83
769.324	124.58
769.507	126.63
769.69	89.77
769.873	83.63
770.056	224.94
770.239	91.82
770.421	181.93
770.604	116.39
770.787	79.53
770.97	163.5
771.152	20.14
771.335	85.67
771.518	48.81
771.7	192.17
771.883	222.89
772.066	79.53
772.248	83.63
772.431	159.4
772.613	85.67
772.796	108.2
772.978	161.45
773.161	212.65
773.343	71.34
773.526	30.38
773.708	-43.35
773.891	54.95
774.073	95.91
774.256	46.76
774.438	255.65
774.621	34.47
774.803	32.43
774.985	95.91
775.168	102.06
775.35	36.52
775.532	147.11
775.715	20.14
775.897	-6.49
776.079	52.91
776.261	226.98
776.444	85.67
776.626	40.62
776.808	100.01
776.99	30.38
777.173	130.73
777.355	-12.63
777.537	52.91
777.719	77.48
777.901	-6.49
778.083	16.04
778.265	-8.53
778.447	163.5
778.629	50.86
778.811	100.01
778.993	77.48
779.175	26.28
779.357	59.05
779.539	-29.01
779.721	-20.82
779.903	11.95
780.085	85.67
780.267	50.86
780.449	24.23
780.631	91.82
780.812	114.34
780.994	-12.63
781.176	-41.3
781.358	75.43
781.54	38.57
781.721	9.9
781.903	183.98
782.085	67.24
782.267	65.19
782.448	-72.02
782.63	-84.31
782.812	44.71
782.993	128.68
783.175	44.71
783.357	18.09
783.538	61.1
783.72	-2.39
783.901	46.76
784.083	93.87
784.264	79.53
784.446	9.9
784.627	34.47
784.809	83.63
784.99	61.1
785.172	65.19
785.353	97.96
785.535	57
785.716	11.95
785.897	-39.25
786.079	-45.4
786.26	18.09
786.441	13.99
786.623	-39.25
786.804	42.67
786.985	-8.53
787.167	77.48
787.348	-55.64
787.529	38.57
787.71	224.94
787.891	120.49
788.073	-37.2
788.254	-78.16
788.435	196.26
788.616	11.95
788.797	-14.68
788.978	93.87
789.159	-20.82
789.34	26.28
789.522	22.19
789.703	57
789.884	59.05
790.065	67.24
790.246	149.16
790.427	-6.49
790.607	124.58
790.788	114.34
790.969	-49.49
791.15	28.33
791.331	36.52
791.512	75.43
791.693	-39.25
791.874	-29.01
792.054	210.6
792.235	118.44
792.416	-41.3
792.597	-24.92
792.778	57
792.958	44.71
793.139	87.72
793.32	63.15
793.5	-61.78
793.681	116.39
793.862	110.25
794.042	38.57
794.223	-80.21
794.404	-82.26
794.584	-6.49
794.765	22.19
794.945	63.15
795.126	63.15
795.306	46.76
795.487	22.19
795.667	-14.68
795.848	89.77
796.028	11.95
796.209	-12.63
796.389	67.24
796.57	44.71
796.75	48.81
796.93	-0.34
797.111	-39.25
797.291	9.9
797.471	91.82
797.652	-26.96
797.832	-94.55
798.012	50.86
798.192	42.67
798.373	-37.2
798.553	81.58
798.733	71.34
798.913	-108.88
799.093	22.19
799.274	-24.92
799.454	91.82
799.634	67.24
799.814	73.39
799.994	75.43
800.174	83.63
800.354	-33.11
800.534	-90.45
800.714	36.52
800.894	-121.17
801.074	-57.68
801.254	-2.39
801.434	95.91
801.614	24.23
801.794	-102.74
801.974	1939.09
802.154	52.91
802.334	87.72
802.514	-31.06
802.693	-2.39
802.873	-86.36
803.053	134.82
803.233	75.43
803.413	5.8
803.592	-35.16
803.772	-65.88
803.952	46.76
804.131	-14.68
804.311	9.9
804.491	54.95
804.67	-51.54
804.85	18.09
805.03	61.1
805.209	95.91
805.389	-12.63
805.568	-14.68
805.748	-84.31
805.928	28.33
806.107	108.2
806.287	75.43
806.466	46.76
806.646	-26.96
806.825	30.38
807.004	-53.59
807.184	102.06
807.363	48.81
807.543	-24.92
807.722	-104.79
807.901	132.78
808.081	73.39
808.26	-153.94
808.439	-35.16
808.619	46.76
808.798	-4.44
808.977	22.19
809.156	-37.2
809.336	16.04
809.515	61.1
809.694	-16.73
809.873	7.85
810.052	93.87
810.231	120.49
810.411	-26.96
810.59	20.14
810.769	9.9
810.948	87.72
811.127	-129.36
811.306	-49.49
811.485	-90.45
811.664	120.49
811.843	-35.16
812.022	-4.44
812.201	-72.02
812.38	-14.68
812.559	-33.11
812.737	-12.63
812.916	-123.22
813.095	-16.73
813.274	89.77
813.453	46.76
813.632	30.38
813.811	114.34
813.989	-2.39
814.168	54.95
814.347	-133.46
814.526	-94.55
814.704	116.39
814.883	128.68
815.062	-84.31
815.24	110.25
815.419	-115.03
815.598	36.52
815.776	-112.98
815.955	-33.11
816.133	-82.26
816.312	-53.59
816.49	-137.56
816.669	-31.06
816.847	-22.87
817.026	-18.77
817.204	-29.01
817.383	54.95
817.561	-6.49
817.74	-22.87
817.918	-8.53
818.097	-39.25
818.275	-20.82
818.453	22.19
818.632	63.15
818.81	-20.82
818.988	-24.92
819.167	16.04
819.345	-43.35
819.523	3.75
819.701	16.04
819.879	-26.96
820.058	-22.87
820.236	44.71
820.414	13.99
820.592	42.67
820.77	52.91
820.948	-12.63
821.127	-37.2
821.305	-4.44
821.483	-57.68
821.661	59.05
821.839	11.95
822.017	59.05
822.195	-39.25
822.373	38.57
822.551	9.9
822.729	134.82
822.907	9.9
823.085	-22.87
823.262	79.53
823.44	-51.54
823.618	-20.82
823.796	-35.16
823.974	-24.92
824.152	-14.68
824.329	-59.73
824.507	24.23
824.685	52.91
824.863	93.87
825.04	-18.77
825.218	38.57
825.396	-61.78
825.574	36.52
825.751	7.85
825.929	9.9
826.107	-82.26
826.284	-51.54
826.462	-33.11
826.639	-47.44
826.817	-94.55
826.994	-8.53
827.172	-143.7
827.349	85.67
827.527	50.86
827.704	-39.25
827.882	85.67
828.059	-47.44
828.237	-51.54
828.414	63.15
828.591	-133.46
828.769	-4.44
828.946	-61.78
829.124	91.82
829.301	110.25
829.478	26.28
829.655	1.71
829.833	22.19
830.01	-88.4
830.187	-31.06
830.364	24.23
830.542	-20.82
830.719	75.43
830.896	89.77
831.073	-0.34
831.25	50.86
831.427	83.63
831.604	-88.4
831.782	-63.83
831.959	-8.53
832.136	-0.34
832.313	-90.45
832.49	-80.21
832.667	61.1
832.844	-53.59
833.021	30.38
833.198	-4.44
833.374	9.9
833.551	57
833.728	-61.78
833.905	120.49
834.082	-29.01
834.259	42.67
834.436	134.82
834.612	-12.63
834.789	59.05
834.966	-20.82
835.143	40.62
835.319	-108.88
835.496	85.67
835.673	46.76
835.85	116.39
836.026	-37.2
836.203	100.01
836.38	-61.78
836.556	-29.01
836.733	-6.49
836.909	116.39
837.086	-65.88
837.262	-69.97
837.439	-35.16
837.616	-39.25
837.792	-0.34
837.968	-51.54
838.145	-6.49
838.321	-26.96
838.498	-24.92
838.674	44.71
838.851	-8.53
839.027	1.71
839.203	-24.92
839.38	-6.49
839.556	-106.84
839.732	36.52
839.909	-14.68
840.085	-47.44
840.261	-10.58
840.437	20.14
840.614	-22.87
840.79	67.24
840.966	112.3
841.142	-86.36
841.318	-94.55
841.494	44.71
841.671	63.15
841.847	-18.77
842.023	-115.03
842.199	16.04
842.375	91.82
842.551	-198.99
842.727	-110.93
842.903	114.34
843.079	-22.87
843.255	75.43
843.431	-10.58
843.607	-12.63
843.783	-174.42
843.959	-4.44
844.134	-84.31
844.31	44.71
844.486	-92.5
844.662	-24.92
844.838	-31.06
845.013	22.19
845.189	65.19
845.365	40.62
845.541	83.63
845.716	-8.53
845.892	104.11
846.068	-76.12
846.244	-82.26
846.419	22.19
846.595	-69.97
846.77	-67.92
846.946	69.29
847.122	-47.44
847.297	13.99
847.473	100.01
847.648	-115.03
847.824	16.04
847.999	-121.17
848.175	-51.54
848.35	9.9
848.526	18.09
848.701	59.05
848.876	-6.49
849.052	42.67
849.227	-69.97
849.403	-6.49
849.578	7.85
849.753	20.14
849.929	-80.21
850.104	-123.22
850.279	-4.44
850.454	7.85
850.63	65.19
850.805	1.71
850.98	-33.11
851.155	-33.11
851.33	26.28
851.505	20.14
851.681	89.77
851.856	-49.49
852.031	-33.11
852.206	11.95
852.381	-108.88
852.556	-18.77
852.731	36.52
852.906	59.05
853.081	-14.68
853.256	3.75
853.431	-72.02
853.606	-2.39
853.781	-119.12
853.956	-153.94
854.131	20.14
854.305	-24.92
854.48	-67.92
854.655	-96.6
854.83	-43.35
855.005	-31.06
855.18	13.99
855.354	-59.73
855.529	20.14
855.704	-12.63
855.879	57
856.053	-133.46
856.228	-26.96
856.403	-67.92
856.577	40.62
856.752	-82.26
856.926	-10.58
857.101	38.57
857.276	-76.12
857.45	-33.11
857.625	-12.63
857.799	30.38
857.974	-49.49
858.148	-90.45
858.323	-51.54
858.497	7.85
858.672	-14.68
858.846	-98.64
859.02	59.05
859.195	-108.88
859.369	-4.44
859.543	30.38
859.718	-22.87
859.892	-6.49
860.066	-24.92
860.241	-22.87
860.415	-20.82
860.589	11.95
860.763	-47.44
860.938	-6.49
861.112	44.71
861.286	-33.11
861.46	-37.2
861.634	22.19
861.808	-45.4
861.982	-74.07
862.157	-117.08
862.331	-108.88
862.505	-86.36
862.679	-8.53
862.853	-92.5
863.027	65.19
863.201	130.73
863.375	-10.58
863.549	61.1
863.722	-43.35
863.896	147.11
864.07	-90.45
864.244	-4.44
864.418	44.71
864.592	13.99
864.766	-33.11
864.939	-53.59
865.113	5.8
865.287	59.05
865.461	-80.21
865.634	-24.92
865.808	77.48
865.982	-90.45
866.156	-49.49
866.329	-74.07
866.503	-18.77
866.676	97.96
866.85	61.1
867.024	-35.16
867.197	40.62
867.371	1.71
867.544	-22.87
867.718	-104.79
867.891	32.43
868.065	-129.36
868.238	-22.87
868.412	48.81
868.585	-35.16
868.759	-2.39
868.932	-10.58
869.105	-94.55
869.279	-80.21
869.452	-49.49
869.625	28.33
869.799	26.28
869.972	-86.36
870.145	-55.64
870.319	69.29
870.492	-65.88
870.665	-41.3
870.838	-110.93
871.011	-86.36
871.185	-14.68
871.358	-43.35
871.531	50.86
871.704	-33.11
871.877	-43.35
872.05	-47.44
872.223	-69.97
872.396	46.76
872.569	30.38
872.742	-61.78
872.915	63.15
873.088	-76.12
873.261	-69.97
873.434	50.86
873.607	-49.49
873.78	81.58
873.953	-162.13
874.126	16.04
874.299	-2.39
874.471	5.8
874.644	-69.97
874.817	93.87
874.99	-12.63
875.163	-31.06
875.335	30.38
875.508	-29.01
875.681	57
875.853	-20.82
876.026	-22.87
876.199	32.43
876.371	38.57
876.544	-26.96
876.717	-8.53
876.889	-59.73
877.062	-8.53
877.234	-67.92
877.407	-67.92
877.579	-80.21
877.752	79.53
877.924	16.04
878.097	16.04
878.269	13.99
878.442	36.52
878.614	1.71
878.786	-57.68
878.959	20.14
879.131	30.38
879.303	-92.5
879.476	-24.92
879.648	110.25
879.82	-4.44
879.993	-61.78
880.165	-90.45
880.337	-92.5
880.509	26.28
880.681	-72.02
880.854	-80.21
881.026	40.62
881.198	120.49
881.37	-18.77
881.542	1.71
881.714	-65.88
881.886	18.09
882.058	11.95
882.23	-29.01
882.402	3.75
882.574	-6.49
882.746	38.57
882.918	61.1
883.09	24.23
883.262	-37.2
883.434	-76.12
883.606	-125.27
883.778	-51.54
883.95	69.29
884.122	3.75
884.293	61.1
884.465	-18.77
884.637	61.1
884.809	-69.97
884.98	-37.2
885.152	22.19
885.324	38.57
885.496	-115.03
885.667	-59.73
885.839	-29.01
886.011	59.05
886.182	13.99
886.354	52.91
886.525	22.19
886.697	28.33
886.869	-53.59
887.04	-51.54
887.212	44.71
887.383	28.33
887.555	1.71
887.726	-84.31
887.897	-170.32
888.069	44.71
888.24	18.09
888.412	-72.02
888.583	-18.77
888.754	-31.06
888.926	-110.93
889.097	-94.55
889.268	-117.08
889.44	38.57
889.611	-98.64
889.782	-80.21
889.953	-72.02
890.125	95.91
890.296	-106.84
890.467	-16.73
890.638	-80.21
890.809	-0.34
890.98	3.75
891.151	1.71
891.323	97.96
891.494	11.95
891.665	-123.22
891.836	-2.39
892.007	-43.35
892.178	-76.12
892.349	-29.01
892.52	-90.45
892.691	11.95
892.862	-39.25
893.032	-127.32
893.203	-35.16
893.374	-47.44
893.545	46.76
893.716	-29.01
893.887	59.05
894.057	-51.54
894.228	-6.49
894.399	-51.54
894.57	106.15
894.74	20.14
894.911	30.38
895.082	-31.06
895.253	22.19
895.423	-43.35
895.594	28.33
895.764	30.38
895.935	-110.93
896.106	24.23
896.276	-158.03
896.447	46.76
896.617	-112.98
896.788	-133.46
896.958	-6.49
897.129	-53.59
897.299	-104.79
897.47	100.01
897.64	52.91
897.81	-88.4
897.981	-47.44
898.151	-76.12
898.322	7.85
898.492	59.05
898.662	-174.42
898.832	-29.01
899.003	-78.16
899.173	16.04
899.343	-47.44
899.513	-41.3
