Data from USB4F104151__6__09-24-38-426.txt Node

Date: Wed Feb 26 09:24:38 EST 2025
User: louis
Spectrometer: USB4F10415
Trigger mode: 4
Integration Time (sec): 1.000000E-1
Scans to average: 1
Electric dark correction enabled: true
Nonlinearity correction enabled: false
Boxcar width: 0
XAxis mode: Wavelengths
Number of Pixels in Spectrum: 3648
>>>>>Begin Spectral Data<<<<<
178.204	-343.89
178.424	-343.89
178.644	-343.89
178.864	-356.18
179.084	-290.64
179.304	-34.64
179.524	-32.6
179.744	8.36
179.964	-10.07
180.184	69.8
180.404	61.61
180.624	-22.36
180.844	-22.36
181.064	-65.36
181.283	39.08
181.503	6.31
181.723	2.22
181.943	-42.84
182.163	207.02
182.383	-1.88
182.602	30.89
182.822	133.29
183.042	129.19
183.262	-28.5
183.482	20.65
183.701	96.43
183.921	57.51
184.141	82.09
184.361	30.89
184.58	59.56
184.8	71.85
185.02	28.84
185.239	45.23
185.459	77.99
185.679	116.9
185.898	-65.36
186.118	61.61
186.338	114.86
186.557	41.13
186.777	-65.36
186.997	26.79
187.216	96.43
187.436	229.54
187.655	61.61
187.875	69.8
188.095	14.51
188.314	172.2
188.534	151.72
188.753	-1.88
188.973	57.51
189.192	129.19
189.412	49.32
189.631	14.51
189.851	69.8
190.07	131.24
190.29	-57.17
190.509	108.71
190.729	82.09
190.948	67.75
191.168	276.65
191.387	86.19
191.607	-40.79
191.826	59.56
192.045	96.43
192.265	82.09
192.484	16.55
192.704	-18.26
192.923	18.6
193.142	186.54
193.362	57.51
193.581	114.86
193.8	108.71
194.02	110.76
194.239	39.08
194.458	127.14
194.678	59.56
194.897	14.51
195.116	61.61
195.335	8.36
195.555	12.46
195.774	6.31
195.993	145.58
196.212	26.79
196.432	45.23
196.651	61.61
196.87	69.8
197.089	204.97
197.308	129.19
197.528	129.19
197.747	-65.36
197.966	75.95
198.185	116.9
198.404	6.31
198.623	69.8
198.842	28.84
199.062	114.86
199.281	80.04
199.5	41.13
199.719	170.15
199.938	80.04
200.157	65.71
200.376	61.61
200.595	86.19
200.814	141.48
201.033	110.76
201.252	90.28
201.471	100.52
201.69	102.57
201.909	131.24
202.128	73.9
202.347	102.57
202.566	10.41
202.785	-14.17
203.004	-34.64
203.223	219.3
203.442	84.14
203.661	14.51
203.879	151.72
204.098	227.5
204.317	22.7
204.536	131.24
204.755	88.23
204.974	131.24
205.193	57.51
205.411	104.62
205.63	98.47
205.849	94.38
206.068	22.7
206.287	-3.93
206.505	73.9
206.724	-20.31
206.943	4.27
207.162	28.84
207.381	125.1
207.599	0.17
207.818	0.17
208.037	73.9
208.255	34.99
208.474	88.23
208.693	98.47
208.911	28.84
209.13	114.86
209.349	110.76
209.567	47.27
209.786	121
210.005	0.17
210.223	22.7
210.442	-89.94
210.661	57.51
210.879	75.95
211.098	86.19
211.316	80.04
211.535	96.43
211.753	133.29
211.972	135.34
212.191	49.32
212.409	22.7
212.628	129.19
212.846	4.27
213.065	80.04
213.283	118.95
213.502	90.28
213.72	20.65
213.938	43.18
214.157	-28.5
214.375	137.38
214.594	73.9
214.812	55.47
215.031	57.51
215.249	-38.74
215.467	110.76
215.686	61.61
215.904	125.1
216.122	96.43
216.341	133.29
216.559	96.43
216.778	61.61
216.996	108.71
217.214	-16.21
217.432	43.18
217.651	0.17
217.869	71.85
218.087	51.37
218.306	90.28
218.524	84.14
218.742	84.14
218.96	114.86
219.179	-42.84
219.397	65.71
219.615	147.62
219.833	155.82
220.051	-3.93
220.27	24.75
220.488	114.86
220.706	59.56
220.924	8.36
221.142	80.04
221.36	53.42
221.578	16.55
221.796	73.9
222.015	22.7
222.233	10.41
222.451	204.97
222.669	22.7
222.887	114.86
223.105	49.32
223.323	4.27
223.541	-24.4
223.759	-1.88
223.977	59.56
224.195	143.53
224.413	98.47
224.631	30.89
224.849	-1.88
225.067	178.34
225.285	-59.22
225.503	41.13
225.721	-87.89
225.939	41.13
226.157	41.13
226.375	196.78
226.592	-3.93
226.81	49.32
227.028	118.95
227.246	106.67
227.464	82.09
227.682	96.43
227.9	145.58
228.117	102.57
228.335	106.67
228.553	-5.97
228.771	98.47
228.989	53.42
229.206	94.38
229.424	-53.08
229.642	32.94
229.86	-51.03
230.077	149.67
230.295	116.9
230.513	127.14
230.731	61.61
230.948	159.91
231.166	229.54
231.384	61.61
231.601	20.65
231.819	133.29
232.037	39.08
232.254	57.51
232.472	96.43
232.689	-8.02
232.907	118.95
233.125	-28.5
233.342	47.27
233.56	-12.12
233.777	57.51
233.995	32.94
234.213	149.67
234.43	57.51
234.648	69.8
234.865	20.65
235.083	92.33
235.3	-30.55
235.518	77.99
235.735	153.77
235.953	41.13
236.17	4.27
236.388	106.67
236.605	141.48
236.822	51.37
237.04	82.09
237.257	53.42
237.475	-36.69
237.692	-38.74
237.909	121
238.127	14.51
238.344	106.67
238.562	8.36
238.779	-22.36
238.996	-48.98
239.214	8.36
239.431	94.38
239.648	-48.98
239.865	127.14
240.083	26.79
240.3	32.94
240.517	16.55
240.735	-30.55
240.952	149.67
241.169	139.43
241.386	-10.07
241.603	51.37
241.821	30.89
242.038	127.14
242.255	-1.88
242.472	16.55
242.689	30.89
242.907	63.66
243.124	16.55
243.341	45.23
243.558	24.75
243.775	-65.36
243.992	-63.32
244.209	100.52
244.426	188.58
244.643	71.85
244.86	43.18
245.078	63.66
245.295	118.95
245.512	53.42
245.729	28.84
245.946	84.14
246.163	110.76
246.38	-10.07
246.597	63.66
246.814	32.94
247.031	82.09
247.248	63.66
247.464	102.57
247.681	8.36
247.898	100.52
248.115	143.53
248.332	98.47
248.549	96.43
248.766	174.25
248.983	110.76
249.2	14.51
249.417	82.09
249.633	67.75
249.85	102.57
250.067	20.65
250.284	61.61
250.501	57.51
250.717	65.71
250.934	49.32
251.151	-18.26
251.368	114.86
251.585	47.27
251.801	26.79
252.018	-32.6
252.235	41.13
252.451	-51.03
252.668	16.55
252.885	94.38
253.102	51.37
253.318	24.75
253.535	8.36
253.752	39.08
253.968	65.71
254.185	12.46
254.401	108.71
254.618	80.04
254.835	12.46
255.051	104.62
255.268	57.51
255.484	82.09
255.701	30.89
255.917	82.09
256.134	8.36
256.351	104.62
256.567	-51.03
256.784	51.37
257	-30.55
257.217	88.23
257.433	127.14
257.65	51.37
257.866	118.95
258.082	-32.6
258.299	8.36
258.515	16.55
258.732	96.43
258.948	-1.88
259.165	94.38
259.381	-51.03
259.597	114.86
259.814	88.23
260.03	0.17
260.246	-32.6
260.463	104.62
260.679	108.71
260.895	20.65
261.112	77.99
261.328	61.61
261.544	47.27
261.761	65.71
261.977	-36.69
262.193	-34.64
262.409	49.32
262.626	133.29
262.842	65.71
263.058	61.61
263.274	118.95
263.49	80.04
263.707	84.14
263.923	41.13
264.139	24.75
264.355	6.31
264.571	135.34
264.787	39.08
265.004	164.01
265.22	65.71
265.436	-20.31
265.652	121
265.868	63.66
266.084	-57.17
266.3	98.47
266.516	69.8
266.732	139.43
266.948	82.09
267.164	14.51
267.38	39.08
267.596	6.31
267.812	155.82
268.028	22.7
268.244	32.94
268.46	12.46
268.676	-1.88
268.892	49.32
269.108	-5.97
269.324	-22.36
269.54	-14.17
269.756	147.62
269.972	10.41
270.188	8.36
270.403	-36.69
270.619	37.03
270.835	73.9
271.051	88.23
271.267	41.13
271.483	-3.93
271.698	18.6
271.914	20.65
272.13	-8.02
272.346	4.27
272.562	34.99
272.777	102.57
272.993	24.75
273.209	12.46
273.425	-5.97
273.64	-40.79
273.856	63.66
274.072	28.84
274.287	61.61
274.503	65.71
274.719	49.32
274.934	8.36
275.15	-53.08
275.366	90.28
275.581	-40.79
275.797	86.19
276.012	30.89
276.228	14.51
276.444	57.51
276.659	114.86
276.875	24.75
277.09	47.27
277.306	24.75
277.521	184.49
277.737	55.47
277.952	88.23
278.168	147.62
278.383	82.09
278.599	16.55
278.814	84.14
279.03	77.99
279.245	180.39
279.461	24.75
279.676	63.66
279.892	-24.4
280.107	-46.93
280.322	-57.17
280.538	100.52
280.753	-20.31
280.969	47.27
281.184	104.62
281.399	127.14
281.615	67.75
281.83	82.09
282.045	-57.17
282.26	10.41
282.476	57.51
282.691	114.86
282.906	-1.88
283.122	141.48
283.337	49.32
283.552	69.8
283.767	34.99
283.983	123.05
284.198	86.19
284.413	47.27
284.628	6.31
284.843	47.27
285.058	22.7
285.274	69.8
285.489	-14.17
285.704	8.36
285.919	-14.17
286.134	86.19
286.349	2.22
286.564	4.27
286.779	164.01
286.995	65.71
287.21	-57.17
287.425	114.86
287.64	80.04
287.855	-22.36
288.07	-44.88
288.285	67.75
288.5	123.05
288.715	110.76
288.93	82.09
289.145	32.94
289.36	139.43
289.575	-8.02
289.79	106.67
290.004	-10.07
290.219	96.43
290.434	-28.5
290.649	-36.69
290.864	24.75
291.079	80.04
291.294	90.28
291.509	30.89
291.724	26.79
291.938	14.51
292.153	75.95
292.368	-55.12
292.583	69.8
292.798	114.86
293.012	55.47
293.227	57.51
293.442	28.84
293.657	73.9
293.871	139.43
294.086	41.13
294.301	168.1
294.516	32.94
294.73	20.65
294.945	-42.84
295.16	-53.08
295.374	112.81
295.589	114.86
295.804	-28.5
296.018	69.8
296.233	118.95
296.447	73.9
296.662	57.51
296.877	184.49
297.091	92.33
297.306	49.32
297.52	47.27
297.735	88.23
297.949	-3.93
298.164	102.57
298.378	30.89
298.593	-18.26
298.807	-63.32
299.022	24.75
299.236	200.87
299.451	10.41
299.665	-18.26
299.88	88.23
300.094	53.42
300.309	8.36
300.523	69.8
300.737	45.23
300.952	98.47
301.166	104.62
301.381	-67.41
301.595	0.17
301.809	96.43
302.024	55.47
302.238	49.32
302.452	86.19
302.667	94.38
302.881	82.09
303.095	106.67
303.309	14.51
303.524	-8.02
303.738	53.42
303.952	53.42
304.166	49.32
304.381	-87.89
304.595	118.95
304.809	-48.98
305.023	147.62
305.237	47.27
305.452	-8.02
305.666	61.61
305.88	43.18
306.094	121
306.308	6.31
306.522	94.38
306.736	26.79
306.95	92.33
307.164	104.62
307.379	-1.88
307.593	135.34
307.807	63.66
308.021	49.32
308.235	45.23
308.449	-28.5
308.663	139.43
308.877	145.58
309.091	20.65
309.305	153.77
309.519	-10.07
309.733	114.86
309.947	45.23
310.161	84.14
310.374	26.79
310.588	174.25
310.802	73.9
311.016	20.65
311.23	65.71
311.444	53.42
311.658	92.33
311.872	82.09
312.085	121
312.299	147.62
312.513	65.71
312.727	43.18
312.941	24.75
313.154	139.43
313.368	86.19
313.582	47.27
313.796	98.47
314.009	73.9
314.223	90.28
314.437	125.1
314.651	131.24
314.864	-18.26
315.078	86.19
315.292	-40.79
315.505	-28.5
315.719	73.9
315.933	73.9
316.146	-8.02
316.36	80.04
316.573	98.47
316.787	86.19
317.001	-8.02
317.214	6.31
317.428	82.09
317.641	14.51
317.855	39.08
318.068	133.29
318.282	39.08
318.495	147.62
318.709	49.32
318.922	30.89
319.136	110.76
319.349	116.9
319.563	65.71
319.776	114.86
319.99	-81.75
320.203	73.9
320.417	45.23
320.63	73.9
320.843	118.95
321.057	82.09
321.27	-22.36
321.483	59.56
321.697	108.71
321.91	121
322.124	61.61
322.337	106.67
322.55	-59.22
322.763	47.27
322.977	104.62
323.19	43.18
323.403	86.19
323.617	61.61
323.83	135.34
324.043	121
324.256	51.37
324.469	-24.4
324.683	178.34
324.896	41.13
325.109	-10.07
325.322	-12.12
325.535	139.43
325.748	37.03
325.962	-3.93
326.175	16.55
326.388	47.27
326.601	145.58
326.814	30.89
327.027	123.05
327.24	196.78
327.453	4.27
327.666	59.56
327.879	100.52
328.092	123.05
328.305	63.66
328.518	69.8
328.731	-83.8
328.944	71.85
329.157	104.62
329.37	32.94
329.583	172.2
329.796	139.43
330.009	-24.4
330.222	106.67
330.435	51.37
330.648	127.14
330.861	12.46
331.073	41.13
331.286	98.47
331.499	69.8
331.712	-24.4
331.925	65.71
332.138	147.62
332.35	98.47
332.563	49.32
332.776	94.38
332.989	-53.08
333.202	75.95
333.414	51.37
333.627	114.86
333.84	-18.26
334.053	51.37
334.265	24.75
334.478	86.19
334.691	77.99
334.903	57.51
335.116	16.55
335.329	24.75
335.541	82.09
335.754	114.86
335.966	-57.17
336.179	47.27
336.392	80.04
336.604	24.75
336.817	110.76
337.029	82.09
337.242	118.95
337.454	137.38
337.667	-32.6
337.88	172.2
338.092	47.27
338.305	127.14
338.517	-40.79
338.729	102.57
338.942	145.58
339.154	-48.98
339.367	-67.41
339.579	147.62
339.792	14.51
340.004	106.67
340.217	24.75
340.429	24.75
340.641	-36.69
340.854	69.8
341.066	-3.93
341.278	71.85
341.491	168.1
341.703	88.23
341.915	-28.5
342.128	129.19
342.34	41.13
342.552	-12.12
342.764	65.71
342.977	24.75
343.189	71.85
343.401	92.33
343.613	-96.08
343.826	90.28
344.038	37.03
344.25	69.8
344.462	65.71
344.674	14.51
344.886	69.8
345.099	41.13
345.311	90.28
345.523	32.94
345.735	-48.98
345.947	123.05
346.159	30.89
346.371	18.6
346.583	90.28
346.795	225.45
347.007	30.89
347.219	32.94
347.431	63.66
347.643	73.9
347.855	10.41
348.067	137.38
348.279	39.08
348.491	61.61
348.703	106.67
348.915	-24.4
349.127	16.55
349.339	-16.21
349.551	24.75
349.763	82.09
349.975	84.14
350.187	188.58
350.399	30.89
350.61	6.31
350.822	82.09
351.034	32.94
351.246	-57.17
351.458	34.99
351.669	80.04
351.881	147.62
352.093	45.23
352.305	43.18
352.517	86.19
352.728	71.85
352.94	110.76
353.152	77.99
353.363	-3.93
353.575	65.71
353.787	155.82
353.999	37.03
354.21	178.34
354.422	75.95
354.633	-36.69
354.845	65.71
355.057	20.65
355.268	73.9
355.48	116.9
355.692	-5.97
355.903	49.32
356.115	-16.21
356.326	-28.5
356.538	73.9
356.749	127.14
356.961	207.02
357.172	-26.45
357.384	0.17
357.595	194.73
357.807	-28.5
358.018	20.65
358.23	-10.07
358.441	153.77
358.653	77.99
358.864	86.19
359.075	24.75
359.287	71.85
359.498	114.86
359.709	94.38
359.921	82.09
360.132	100.52
360.344	90.28
360.555	41.13
360.766	4.27
360.977	4.27
361.189	100.52
361.4	28.84
361.611	159.91
361.823	104.62
362.034	-12.12
362.245	-44.88
362.456	51.37
362.667	131.24
362.879	28.84
363.09	67.75
363.301	65.71
363.512	143.53
363.723	41.13
363.935	37.03
364.146	110.76
364.357	26.79
364.568	82.09
364.779	-18.26
364.99	118.95
365.201	28.84
365.412	188.58
365.623	-116.56
365.834	82.09
366.045	121
366.256	34.99
366.467	114.86
366.678	47.27
366.889	110.76
367.1	49.32
367.311	59.56
367.522	6.31
367.733	20.65
367.944	86.19
368.155	129.19
368.366	131.24
368.577	80.04
368.788	90.28
368.999	18.6
369.209	24.75
369.42	219.3
369.631	266.41
369.842	131.24
370.053	-110.42
370.264	100.52
370.474	39.08
370.685	-28.5
370.896	-1.88
371.107	65.71
371.317	39.08
371.528	121
371.739	133.29
371.95	61.61
372.16	88.23
372.371	24.75
372.582	14.51
372.792	73.9
373.003	57.51
373.214	77.99
373.424	34.99
373.635	45.23
373.846	82.09
374.056	0.17
374.267	57.51
374.477	61.61
374.688	-32.6
374.898	32.94
375.109	106.67
375.319	32.94
375.53	129.19
375.74	114.86
375.951	-89.94
376.161	129.19
376.372	139.43
376.582	-14.17
376.793	73.9
377.003	63.66
377.214	37.03
377.424	65.71
377.635	-3.93
377.845	34.99
378.055	75.95
378.266	6.31
378.476	8.36
378.686	61.61
378.897	51.37
379.107	86.19
379.317	73.9
379.528	45.23
379.738	22.7
379.948	-46.93
380.158	88.23
380.369	30.89
380.579	112.81
380.789	49.32
380.999	43.18
381.21	86.19
381.42	196.78
381.63	-44.88
381.84	133.29
382.05	80.04
382.261	116.9
382.471	41.13
382.681	4.27
382.891	98.47
383.101	71.85
383.311	-16.21
383.521	-8.02
383.731	98.47
383.941	82.09
384.151	-22.36
384.361	32.94
384.571	65.71
384.781	137.38
384.991	116.9
385.201	110.76
385.411	118.95
385.621	41.13
385.831	106.67
386.041	82.09
386.251	106.67
386.461	94.38
386.671	92.33
386.881	77.99
387.091	18.6
387.301	80.04
387.511	53.42
387.72	71.85
387.93	102.57
388.14	10.41
388.35	98.47
388.56	149.67
388.769	57.51
388.979	32.94
389.189	22.7
389.399	-53.08
389.609	147.62
389.818	192.68
390.028	34.99
390.238	55.47
390.447	-32.6
390.657	98.47
390.867	49.32
391.076	28.84
391.286	118.95
391.496	47.27
391.705	49.32
391.915	186.54
392.125	98.47
392.334	10.41
392.544	102.57
392.753	61.61
392.963	82.09
393.172	57.51
393.382	47.27
393.591	202.92
393.801	47.27
394.01	184.49
394.22	147.62
394.429	45.23
394.639	86.19
394.848	82.09
395.058	73.9
395.267	6.31
395.477	151.72
395.686	28.84
395.895	104.62
396.105	145.58
396.314	51.37
396.524	32.94
396.733	59.56
396.942	106.67
397.152	73.9
397.361	88.23
397.57	108.71
397.78	49.32
397.989	71.85
398.198	237.74
398.407	43.18
398.617	73.9
398.826	82.09
399.035	53.42
399.244	106.67
399.453	41.13
399.663	106.67
399.872	82.09
400.081	4.27
400.29	104.62
400.499	41.13
400.708	118.95
400.917	2.22
401.127	45.23
401.336	39.08
401.545	131.24
401.754	90.28
401.963	139.43
402.172	-1.88
402.381	0.17
402.59	-3.93
402.799	69.8
403.008	194.73
403.217	121
403.426	133.29
403.635	0.17
403.844	63.66
404.053	28.84
404.262	73.9
404.471	127.14
404.68	73.9
404.888	61.61
405.097	51.37
405.306	73.9
405.515	-32.6
405.724	49.32
405.933	204.97
406.142	59.56
406.35	135.34
406.559	65.71
406.768	49.32
406.977	250.02
407.185	45.23
407.394	98.47
407.603	86.19
407.812	102.57
408.02	168.1
408.229	32.94
408.438	114.86
408.646	4.27
408.855	24.75
409.064	137.38
409.272	-30.55
409.481	80.04
409.69	39.08
409.898	8.36
410.107	86.19
410.315	178.34
410.524	-24.4
410.733	80.04
410.941	53.42
411.15	86.19
411.358	116.9
411.567	184.49
411.775	86.19
411.984	22.7
412.192	98.47
412.401	39.08
412.609	121
412.818	166.06
413.026	143.53
413.234	14.51
413.443	12.46
413.651	-12.12
413.86	-10.07
414.068	213.16
414.276	80.04
414.485	12.46
414.693	69.8
414.901	196.78
415.11	123.05
415.318	65.71
415.526	57.51
415.734	211.11
415.943	65.71
416.151	102.57
416.359	14.51
416.567	43.18
416.776	114.86
416.984	116.9
417.192	145.58
417.4	-57.17
417.608	4.27
417.817	84.14
418.025	147.62
418.233	131.24
418.441	63.66
418.649	-30.55
418.857	98.47
419.065	164.01
419.273	102.57
419.481	39.08
419.689	51.37
419.897	4.27
420.105	-8.02
420.313	106.67
420.521	137.38
420.729	166.06
420.937	49.32
421.145	10.41
421.353	106.67
421.561	153.77
421.769	118.95
421.977	22.7
422.185	82.09
422.393	75.95
422.601	141.48
422.809	106.67
423.017	121
423.224	112.81
423.432	137.38
423.64	90.28
423.848	139.43
424.056	47.27
424.263	233.64
424.471	37.03
424.679	118.95
424.887	69.8
425.094	55.47
425.302	213.16
425.51	57.51
425.718	141.48
425.925	82.09
426.133	59.56
426.341	194.73
426.548	41.13
426.756	63.66
426.964	123.05
427.171	69.8
427.379	47.27
427.586	77.99
427.794	114.86
428.001	114.86
428.209	125.1
428.417	164.01
428.624	80.04
428.832	155.82
429.039	55.47
429.247	90.28
429.454	90.28
429.662	213.16
429.869	104.62
430.076	104.62
430.284	123.05
430.491	231.59
430.699	75.95
430.906	209.06
431.114	153.77
431.321	184.49
431.528	114.86
431.736	198.82
431.943	168.1
432.15	196.78
432.358	217.26
432.565	178.34
432.772	37.03
432.979	256.17
433.187	170.15
433.394	170.15
433.601	159.91
433.808	235.69
434.016	209.06
434.223	233.64
434.43	264.36
434.637	319.65
434.844	231.59
435.052	194.73
435.259	333.99
435.466	307.37
435.673	260.26
435.88	278.69
436.087	323.75
436.294	301.22
436.501	303.27
436.708	260.26
436.915	295.08
437.122	411.81
437.329	327.85
437.537	268.45
437.743	331.94
437.95	383.14
438.157	389.28
438.364	426.15
438.571	401.57
438.778	442.53
438.985	407.72
439.192	544.93
439.399	450.72
439.606	499.88
439.813	585.89
440.02	684.19
440.227	655.52
440.433	579.75
440.64	583.84
440.847	512.16
441.054	579.75
441.261	782.49
441.467	567.46
441.674	614.56
441.881	706.72
442.088	680.1
442.294	815.26
442.501	762.02
442.708	755.87
442.914	792.73
443.121	831.65
443.328	897.18
443.534	950.43
443.741	940.19
443.948	874.65
444.154	1032.35
444.361	1187.99
444.568	1130.65
444.774	1081.5
444.981	995.48
445.187	1271.96
445.394	1089.69
445.6	1161.37
445.807	1380.5
446.013	1304.73
446.22	1306.77
446.426	1435.8
446.633	1503.38
446.839	1605.78
447.046	1570.96
447.252	1683.6
447.459	1767.57
447.665	1726.61
447.871	1802.38
448.078	2091.15
448.284	1949.84
448.491	1976.46
448.697	2203.79
448.903	2316.42
449.11	2250.89
449.316	2291.85
449.522	2470.02
449.728	2539.65
449.935	2592.9
450.141	2570.37
450.347	2924.67
450.553	2838.66
450.76	2838.66
450.966	2994.3
451.172	3135.61
451.378	3358.84
451.584	3268.73
451.791	3496.05
451.997	3588.21
452.203	3547.25
452.409	3915.89
452.615	3903.6
452.821	4077.68
453.027	4020.33
453.233	4612.2
453.44	4321.38
453.646	4548.71
453.852	4853.86
454.058	5027.93
454.264	5017.69
454.47	5324.89
454.676	5292.12
454.882	6000.72
455.088	5662.8
455.294	5881.94
455.5	6367.31
455.705	6617.16
455.911	6840.39
456.117	6897.73
456.323	7243.84
456.529	7327.8
456.735	7893.04
456.941	8112.17
457.147	8546.34
457.352	8558.63
457.558	8796.2
457.764	9406.49
457.97	9680.92
458.176	10018.83
458.381	10352.65
458.587	10412.04
458.793	11309.05
458.999	11149.31
459.204	12611.56
459.41	12824.55
459.616	12910.57
459.821	13244.38
460.027	14174.16
460.233	14772.17
460.438	14905.29
460.644	15699.9
460.85	16043.96
461.055	16662.44
461.261	17125.29
461.466	16957.35
461.672	17223.59
461.878	19105.67
462.083	19066.76
462.289	19382.15
462.494	20135.8
462.7	20580.21
462.905	20483.95
463.111	22523.73
463.316	23639.87
463.522	23742.27
463.727	24524.6
463.932	25571.11
464.138	26648.34
464.343	27561.73
464.549	27711.24
464.754	29689.57
464.959	30719.7
465.165	31030.99
465.37	31221.45
465.575	30639.83
465.781	32870.07
465.986	33863.33
466.191	33277.61
466.397	33640.11
466.602	32892.6
466.807	34563.74
467.012	35184.27
467.218	35624.59
467.423	36136.58
467.628	36947.57
467.833	38766.17
468.038	38004.33
468.244	37647.98
468.449	39224.92
468.654	38522.46
468.859	38471.26
469.064	38811.23
469.269	37676.65
469.474	37926.5
469.679	38936.15
469.885	37926.5
470.09	38469.22
470.295	38504.03
470.5	37647.98
470.705	38010.47
470.91	37516.91
471.115	36566.65
471.32	37291.63
471.525	37203.57
471.73	35858.06
471.935	35612.3
472.139	34100.9
472.344	34207.39
472.549	34254.5
472.754	33713.83
472.959	32958.13
473.164	31794.89
473.369	31194.83
473.574	32042.69
473.778	31346.38
473.983	31205.07
474.188	30541.53
474.393	28831.47
474.598	29112.05
474.802	28311.29
475.007	27965.18
475.212	27684.61
475.417	26482.45
475.621	26302.23
475.826	26189.6
476.031	25597.73
476.235	24911.66
476.44	25009.97
476.645	24375.09
476.849	23844.67
477.054	23813.95
477.259	22845.26
477.463	22921.04
477.668	22521.68
477.872	22300.5
478.077	21890.91
478.282	21186.41
478.486	21106.54
478.691	20717.42
478.895	20440.95
479.1	20412.28
479.304	20309.88
479.509	19785.6
479.713	19844.99
479.918	19701.63
480.122	19124.1
480.326	19187.59
480.531	19357.57
480.735	18808.72
480.94	18591.63
481.144	19195.78
481.348	18296.72
481.553	18292.63
481.757	17948.57
481.961	18165.65
482.166	18120.6
482.37	17991.58
482.574	17354.66
482.778	17422.24
482.983	17680.28
483.187	17399.71
483.391	17328.03
483.595	17119.14
483.8	16482.22
484.004	16693.16
484.208	16605.1
484.412	16682.92
484.616	16267.19
484.821	16166.84
485.025	15519.68
485.229	15781.82
485.433	15278.02
485.637	15443.9
485.841	15038.41
486.045	15015.88
486.249	14745.55
486.453	14620.62
486.657	14520.27
486.861	14198.74
487.065	13889.49
487.269	13715.42
487.473	13408.22
487.677	13412.32
487.881	13336.54
488.085	12832.74
488.289	12984.29
488.493	12490.73
488.697	12435.44
488.901	12220.4
489.105	11800.57
489.309	11788.28
489.512	11538.43
489.716	11466.75
489.92	11237.38
490.124	10891.27
490.328	10895.36
490.531	10518.54
490.735	10512.39
490.939	10194.96
491.143	9951.25
491.346	9666.58
491.55	9789.46
491.754	9572.38
491.958	9420.83
492.161	9150.5
492.365	9222.17
492.569	8962.08
492.772	8714.28
492.976	8822.82
493.18	8728.61
493.383	8568.87
493.587	8562.73
493.79	8364.08
493.994	7960.63
494.197	8187.95
494.401	8204.33
494.605	7827.51
494.808	8069.17
495.012	7745.59
495.215	7942.19
495.419	7776.31
495.622	7675.96
495.825	7546.94
496.029	7675.96
496.232	7600.18
496.436	7493.69
496.639	7712.82
496.843	7505.98
497.046	7430.2
497.249	7585.85
497.453	7639.09
497.656	7635
497.859	7342.14
498.063	7589.94
498.266	7544.89
498.469	7641.14
498.673	7497.78
498.876	7536.7
499.079	7551.03
499.282	7608.37
499.485	7890.99
499.689	7581.75
499.892	7987.25
500.095	7725.11
500.298	7999.54
500.501	7729.2
500.705	8194.09
500.908	8151.09
501.111	8118.32
501.314	8146.99
501.517	8448.04
501.72	8468.52
501.923	8468.52
502.126	8630.31
502.329	8826.92
502.532	8749.09
502.735	8831.01
502.938	9199.65
503.141	9121.82
503.344	9095.2
503.547	9246.75
503.75	9549.85
503.953	9429.02
504.156	9590.81
504.359	9547.8
504.562	9848.85
504.765	10287.12
504.968	10287.12
505.17	10401.8
505.373	10536.97
505.576	10633.22
505.779	10895.36
505.982	11016.19
506.185	11300.86
506.387	11370.49
506.59	11669.5
506.793	11612.15
506.996	11902.97
507.198	12417.01
507.401	12298.22
507.604	12765.16
507.807	13037.54
508.009	13109.22
508.212	13248.48
508.415	13557.72
508.617	13873.11
508.82	14340.05
509.022	14397.39
509.225	14985.16
509.428	15126.47
509.63	15640.51
509.833	15300.55
510.035	16347.06
510.238	16408.5
510.44	16848.81
510.643	17428.38
510.845	17569.69
511.048	17743.77
511.25	18315.16
511.453	18571.15
511.655	19500.93
511.858	19615.62
512.06	19838.84
512.262	20428.66
512.465	20635.5
512.667	21389.16
512.87	21774.17
513.072	22153.05
513.274	22964.04
513.477	23684.93
513.679	24035.13
513.881	24416.05
514.084	25212.71
514.286	25538.34
514.488	25909.02
514.69	26918.67
514.893	27064.08
515.095	27698.95
515.297	28335.87
515.499	28968.69
515.701	29564.65
515.904	30215.9
516.106	30682.84
516.308	31719.11
516.51	32704.18
516.712	32450.24
516.914	33318.57
517.116	33777.32
517.318	34694.81
517.52	35280.53
517.722	35915.4
517.925	36472.45
518.127	37148.28
518.329	37736.04
518.531	38180.45
518.733	39210.58
518.935	39702.09
519.136	39923.27
519.338	41166.39
519.54	41553.46
519.742	42053.16
519.944	42800.67
520.146	43636.24
520.348	44154.38
520.55	44647.94
520.752	45157.88
520.954	45577.72
521.155	45815.28
521.357	46675.43
521.559	47226.33
521.761	48477.64
521.963	48342.47
522.164	48661.96
522.366	48711.11
522.568	49800.63
522.77	50030
522.971	50556.33
523.173	50752.93
523.375	50836.9
523.576	51023.26
523.778	51234.2
523.98	52090.26
524.181	52110.74
524.383	52522.38
524.584	52768.13
524.786	52886.92
524.988	52489.61
525.189	53017.99
525.391	53114.24
525.592	53214.59
525.794	53493.11
525.995	52786.57
526.197	53126.53
526.398	53331.32
526.6	53104
526.801	53151.1
527.003	52626.82
527.204	52823.43
527.406	52716.93
527.607	52594.06
527.808	52299.15
528.01	51541.4
528.211	51770.77
528.412	51887.51
528.614	51176.86
528.815	51144.09
529.016	51105.18
529.218	50120.11
529.419	50138.54
529.62	49214.91
529.822	48553.41
530.023	48887.23
530.224	48426.44
530.425	47580.63
530.626	47101.4
530.828	46507.49
531.029	47179.23
531.23	45475.32
531.431	45428.21
531.632	45635.06
531.833	44598.79
532.035	44281.35
532.236	44013.07
532.437	43271.7
532.638	42647.07
532.839	41907.76
533.04	41659.95
533.241	40715.84
533.442	41053.75
533.643	40040.01
533.844	39796.3
534.045	39208.53
534.246	38250.08
534.447	38028.9
534.648	37246.58
534.849	37162.61
535.05	36361.86
535.251	36427.39
535.451	35477.13
535.652	35239.57
535.853	34649.75
536.054	34264.74
536.255	33926.82
536.456	33263.28
536.657	33369.77
536.857	32505.53
537.058	32190.14
537.259	31760.07
537.46	31399.63
537.66	30916.31
537.861	30852.82
538.062	29902.56
538.263	29550.31
538.463	29241.07
538.664	28888.82
538.865	28731.12
539.065	28696.31
539.266	27621.13
539.466	27834.11
539.667	26883.86
539.868	27166.48
540.068	26758.93
540.269	26386.2
540.469	26287.9
540.67	25216.81
540.87	25632.55
541.071	25147.18
541.271	25081.64
541.472	24506.16
541.672	24250.17
541.873	23783.23
542.073	23619.39
542.274	23484.23
542.474	23244.62
542.675	22624.08
542.875	22808.4
543.075	22820.69
543.276	21892.96
543.476	21935.96
543.676	21614.43
543.877	21757.79
544.077	21098.34
544.277	21022.57
544.478	20658.03
544.678	20883.31
544.878	20199.29
545.078	19941.24
545.279	19851.13
545.479	19779.45
545.679	19406.72
545.879	19187.59
546.079	19101.58
546.28	18745.23
546.48	18569.1
546.68	18519.95
546.88	18266
547.08	18163.61
547.28	17536.93
547.48	17258.4
547.68	17577.89
547.88	17307.55
548.081	16992.17
548.281	16598.96
548.481	16191.41
548.681	16345.01
548.881	16029.62
549.081	15843.26
549.28	15699.9
549.48	15552.45
549.68	15261.63
549.88	15062.98
550.08	14852.04
550.28	14507.98
550.48	14505.93
550.68	14350.29
550.88	14110.68
551.08	13836.25
551.279	13621.21
551.479	13461.47
551.679	13354.97
551.879	13053.92
552.079	12988.39
552.278	12632.04
552.478	12642.28
552.678	12308.46
552.878	12365.81
553.077	11997.17
553.277	11552.76
553.477	11636.73
553.676	11468.8
553.876	11286.53
554.076	11034.63
554.275	10999.81
554.475	10610.7
554.674	10659.85
554.874	10323.98
555.074	10160.14
555.273	10156.05
555.473	9969.68
555.672	9615.38
555.872	9555.99
556.071	9551.9
556.271	9404.44
556.47	9381.92
556.67	9109.54
556.869	8896.55
557.068	8669.22
557.268	8503.34
557.467	8497.19
557.667	8353.84
557.866	8077.36
558.065	8171.57
558.265	7921.71
558.464	7546.94
558.663	7743.54
558.863	7503.93
559.062	7448.63
559.261	7235.64
559.461	7270.46
559.66	7049.28
559.859	6912.07
560.058	6752.32
560.258	6660.17
560.457	6520.9
560.656	6608.97
560.855	6234.19
561.054	6332.49
561.253	6338.63
561.453	6176.84
561.652	6213.71
561.851	6004.82
562.05	5675.09
562.249	5869.65
562.448	5873.75
562.647	5558.36
562.846	5480.54
563.045	5494.87
563.244	5400.66
563.443	5433.43
563.642	5091.42
563.841	5273.69
564.04	4937.82
564.239	4911.2
564.438	4835.42
564.637	4724.83
564.836	4896.86
565.035	4528.23
565.234	4620.39
565.432	4595.81
565.631	4462.69
565.83	4403.3
566.029	4366.44
566.228	4188.27
566.427	4229.23
566.625	4040.81
566.824	3997.81
567.023	3956.85
567.222	3936.37
567.42	3909.74
567.619	3889.26
567.818	3833.97
568.016	3842.16
568.215	3739.76
568.414	3711.09
568.612	3659.89
568.811	3522.68
569.01	3547.25
569.208	3580.02
569.407	3381.37
569.605	3311.74
569.804	3375.22
570.002	3229.82
570.201	3063.93
570.4	3129.47
570.598	3088.51
570.797	3221.63
570.995	3096.7
571.193	2979.97
571.392	2875.52
571.59	2781.31
571.789	2850.94
571.987	2758.78
572.186	2842.75
572.384	2711.68
572.582	2746.5
572.781	2771.07
572.979	2449.54
573.177	2588.8
573.376	2547.84
573.574	2510.98
573.772	2474.12
573.971	2381.96
574.169	2347.14
574.367	2416.77
574.565	2314.38
574.763	2142.35
574.962	2199.69
575.16	2183.31
575.358	2158.73
575.556	2087.05
575.754	2138.25
575.952	2021.52
576.151	1986.7
576.349	2064.52
576.547	1882.25
576.745	2011.28
576.943	1845.39
577.141	1845.39
577.339	1718.42
577.537	1857.68
577.735	1992.84
577.933	1818.77
578.131	1753.23
578.329	1892.49
578.527	1661.07
578.725	1732.75
578.923	1538.2
579.121	1618.07
579.319	1491.09
579.516	1517.72
579.714	1656.98
579.912	1554.58
580.11	1437.84
580.308	1489.04
580.506	1409.17
580.704	1296.53
580.901	1364.12
581.099	1339.54
581.297	1376.41
581.495	1360.02
581.692	1317.01
581.89	1417.37
582.088	1269.91
582.285	1218.71
582.483	1134.75
582.681	1190.04
582.878	1249.43
583.076	1278.1
583.274	1284.25
583.471	1228.95
583.669	1087.64
583.866	1126.55
584.064	1075.35
584.262	1020.06
584.459	940.19
584.657	1101.98
584.854	1110.17
585.052	1030.3
585.249	1097.88
585.447	1040.54
585.644	888.99
585.841	1011.87
586.039	1075.35
586.236	942.24
586.434	884.89
586.631	886.94
586.828	831.65
587.026	917.66
587.223	845.98
587.42	843.93
587.618	884.89
587.815	954.52
588.012	798.88
588.21	860.32
588.407	868.51
588.604	839.84
588.801	839.84
588.999	727.2
589.196	805.02
589.393	837.79
589.59	784.54
589.787	813.21
589.984	778.4
590.182	864.41
590.379	708.77
590.576	790.69
590.773	792.73
590.97	749.73
591.167	721.06
591.364	751.78
591.561	811.17
591.758	802.97
591.955	708.77
592.152	768.16
592.349	692.38
592.546	778.4
592.743	686.24
592.94	680.1
593.137	778.4
593.334	807.07
593.531	733.34
593.727	796.83
593.924	796.83
594.121	856.22
594.318	671.9
594.515	696.48
594.712	880.8
594.908	800.93
595.105	659.62
595.302	862.37
595.499	766.11
595.696	905.37
595.892	661.66
596.089	909.47
596.286	774.3
596.482	905.37
596.679	845.98
596.876	829.6
597.072	991.39
597.269	1011.87
597.466	802.97
597.662	983.2
597.859	882.85
598.055	1079.45
598.252	1054.87
598.448	1165.46
598.645	1179.8
598.841	1155.23
599.038	1368.21
599.234	1407.13
599.431	1360.02
599.627	1380.5
599.824	1323.16
600.02	1433.75
600.217	1456.28
600.413	1583.25
600.609	1669.27
600.806	1822.86
601.002	1738.9
601.198	1771.66
601.395	1865.87
601.591	1990.8
601.787	2103.43
601.984	2144.39
602.18	2279.56
602.376	2203.79
602.572	2406.53
602.769	2494.6
602.965	2494.6
603.161	2732.16
603.357	2736.26
603.553	2920.57
603.75	2740.35
603.946	3047.55
604.142	3125.37
604.338	3178.62
604.534	3270.78
604.73	3348.6
604.926	3424.37
605.122	3586.16
605.318	3696.75
605.514	3735.67
605.71	3899.5
605.906	4049
606.102	4130.92
606.298	4298.86
606.494	4593.76
606.69	4663.4
606.886	4700.26
607.082	4669.54
607.278	4964.45
607.474	5124.19
607.67	5306.46
607.866	5316.7
608.062	5570.65
608.257	5636.18
608.453	5742.68
608.649	6025.29
608.845	6142.03
609.041	6287.43
609.236	6617.16
609.432	6488.14
609.628	6914.11
609.824	7045.18
610.019	7237.69
610.215	7411.77
610.411	7751.73
610.606	7829.56
610.802	7831.6
610.998	8327.21
611.193	8296.49
611.389	8587.3
611.584	8857.64
611.78	8917.03
611.976	9224.22
612.171	9693.21
612.367	9742.36
612.562	10043.41
612.758	10321.93
612.953	10389.52
613.149	10731.53
613.344	11104.26
613.539	11425.79
613.735	11612.15
613.93	12163.06
614.126	12185.58
614.321	12738.54
614.517	13033.44
614.712	13184.99
614.907	13467.61
615.103	13995.99
615.298	14073.81
615.493	14888.9
615.688	14761.93
615.884	15882.17
616.079	15753.15
616.274	16316.34
616.47	16580.53
616.665	17127.33
616.86	17350.56
617.055	18022.3
617.25	18243.48
617.445	19101.58
617.641	19359.62
617.836	19775.36
618.031	20162.42
618.226	20969.32
618.421	21202.79
618.616	21647.2
618.811	21735.26
619.006	22767.44
619.201	22785.87
619.396	23756.61
619.591	23826.24
619.786	24911.66
619.981	25024.3
620.176	25896.74
620.371	26025.76
620.566	26826.51
620.761	27131.66
620.956	28145.41
621.151	28079.87
621.346	29183.73
621.541	29398.76
621.735	30271.2
621.93	30549.72
622.125	31123.15
622.32	31162.06
622.515	32392.89
622.709	32732.86
622.904	33564.33
623.099	33969.83
623.294	34635.42
623.488	35045.01
623.683	36007.56
623.878	35989.13
624.072	36986.49
624.267	37564.01
624.462	38243.94
624.656	38248.04
624.851	39546.45
625.046	39939.66
625.24	40443.46
625.435	40789.56
625.629	41319.99
625.824	42061.35
626.018	42661.41
626.213	42292.77
626.407	43517.46
626.602	43386.39
626.796	43910.67
626.991	44762.62
627.185	44801.54
627.38	45270.52
627.574	45555.19
627.768	45231.61
627.963	45780.46
628.157	45813.23
628.352	46339.56
628.546	46134.76
628.74	46472.68
628.935	45948.4
629.129	46061.04
629.323	45508.08
629.517	45641.2
629.712	45518.32
629.906	45471.22
630.1	44330.5
630.294	44566.02
630.489	44097.03
630.683	43357.72
630.877	42378.79
631.071	41772.59
631.265	41297.46
631.459	40216.13
631.653	39769.68
631.848	39337.55
632.042	37877.35
632.236	37617.26
632.43	36267.65
632.624	35274.38
632.818	33836.71
633.012	33087.15
633.206	32286.4
633.4	31151.82
633.594	29611.75
633.788	29198.06
633.982	28243.71
634.176	27430.66
634.369	26382.1
634.563	25192.23
634.757	24053.56
634.951	23785.28
635.145	22734.67
635.339	21643.1
635.533	20756.33
635.726	20066.17
635.92	19167.11
636.114	18153.37
636.308	17649.57
636.501	16826.28
636.695	16371.63
636.889	15712.19
637.083	14688.2
637.276	14536.65
637.47	13799.38
637.664	13309.92
637.857	12867.56
638.051	12009.46
638.244	11991.03
638.438	11257.85
638.632	10829.83
638.825	10166.29
639.019	9918.48
639.212	9625.62
639.406	9281.57
639.599	8992.8
639.793	8572.97
639.986	8212.53
640.18	7958.58
640.373	7487.54
640.567	7241.79
640.76	6889.54
640.954	6799.43
641.147	6486.09
641.34	6137.93
641.534	6025.29
641.727	5777.49
641.92	5599.32
642.114	5439.58
642.307	5214.3
642.5	4894.82
642.694	4651.11
642.887	4454.5
643.08	4528.23
643.273	4331.62
643.467	4157.55
643.66	3960.94
643.853	3745.91
644.046	3784.82
644.239	3455.09
644.432	3373.18
644.626	3041.4
644.819	3113.08
645.012	3039.36
645.205	2912.38
645.398	2826.37
645.591	2685.06
645.784	2519.17
645.977	2384.01
646.17	2492.55
646.363	2277.51
646.556	2087.05
646.749	2097.29
646.942	2052.24
647.135	2023.56
647.328	1923.21
647.521	1747.09
647.714	1671.31
647.907	1699.98
648.099	1595.54
648.292	1736.85
648.485	1548.44
648.678	1454.23
648.871	1384.6
649.064	1357.97
649.256	1325.21
649.449	1212.57
649.642	1173.66
649.835	1183.9
650.027	1093.79
650.22	1161.37
650.413	1081.5
650.605	1120.41
650.798	1007.77
650.991	995.48
651.183	942.24
651.376	934.04
651.568	919.71
651.761	784.54
651.954	874.65
652.146	841.89
652.339	762.02
652.531	778.4
652.724	704.67
652.916	665.76
653.109	561.31
653.301	759.97
653.494	604.32
653.686	610.47
653.879	809.12
654.071	643.23
654.263	557.22
654.456	469.16
654.648	598.18
654.84	463.01
655.033	448.68
655.225	559.27
655.417	399.52
655.61	516.26
655.802	540.83
655.994	579.75
656.186	387.24
656.379	532.64
656.571	336.04
656.763	426.15
656.955	346.28
657.148	385.19
657.34	516.26
657.532	344.23
657.724	364.71
657.916	436.39
658.108	432.29
658.3	487.59
658.492	342.18
658.684	333.99
658.876	475.3
659.068	317.61
659.26	194.73
659.452	237.74
659.644	401.57
659.836	424.1
660.028	379.04
660.22	198.82
660.412	274.6
660.604	204.97
660.796	293.03
660.988	397.48
661.18	243.88
661.372	262.31
661.563	333.99
661.755	254.12
661.947	225.45
662.139	207.02
662.331	192.68
662.522	268.45
662.714	200.87
662.906	301.22
663.097	299.17
663.289	192.68
663.481	133.29
663.673	200.87
663.864	229.54
664.056	262.31
664.247	108.71
664.439	325.8
664.631	213.16
664.822	215.21
665.014	180.39
665.205	96.43
665.397	211.11
665.588	258.21
665.78	174.25
665.971	161.96
666.163	147.62
666.354	284.84
666.546	149.67
666.737	202.92
666.929	211.11
667.12	213.16
667.311	229.54
667.503	172.2
667.694	245.93
667.885	239.78
668.077	319.65
668.268	98.47
668.459	221.35
668.651	178.34
668.842	184.49
669.033	137.38
669.224	106.67
669.416	336.04
669.607	192.68
669.798	157.86
669.989	321.7
670.18	135.34
670.371	274.6
670.563	127.14
670.754	288.93
670.945	233.64
671.136	188.58
671.327	125.1
671.518	266.41
671.709	336.04
671.9	237.74
672.091	299.17
672.282	235.69
672.473	194.73
672.664	188.58
672.855	213.16
673.046	319.65
673.237	247.97
673.428	299.17
673.619	266.41
673.809	245.93
674	323.75
674.191	282.79
674.382	270.5
674.573	215.21
674.764	295.08
674.954	245.93
675.145	178.34
675.336	186.54
675.527	180.39
675.717	200.87
675.908	192.68
676.099	295.08
676.289	319.65
676.48	198.82
676.671	258.21
676.861	250.02
677.052	274.6
677.243	247.97
677.433	268.45
677.624	268.45
677.814	333.99
678.005	303.27
678.195	397.48
678.386	325.8
678.576	327.85
678.767	254.12
678.957	336.04
679.148	286.89
679.338	377
679.529	327.85
679.719	256.17
679.909	323.75
680.1	366.76
680.29	360.61
680.481	235.69
680.671	426.15
680.861	356.52
681.052	397.48
681.242	303.27
681.432	393.38
681.622	368.81
681.813	200.87
682.003	358.57
682.193	286.89
682.383	417.96
682.573	315.56
682.764	340.13
682.954	329.89
683.144	393.38
683.334	374.95
683.524	323.75
683.714	364.71
683.904	344.23
684.094	399.52
684.284	311.46
684.474	452.77
684.664	411.81
684.854	446.63
685.044	327.85
685.234	297.13
685.424	442.53
685.614	368.81
685.804	473.25
685.994	356.52
686.184	393.38
686.374	440.48
686.564	438.44
686.753	358.57
686.943	254.12
687.133	368.81
687.323	358.57
687.513	399.52
687.702	327.85
687.892	350.37
688.082	440.48
688.272	473.25
688.461	344.23
688.651	508.07
688.841	420
689.03	315.56
689.22	413.86
689.41	508.07
689.599	354.47
689.789	336.04
689.979	467.11
690.168	401.57
690.358	372.9
690.547	352.42
690.737	409.76
690.926	327.85
691.116	346.28
691.305	417.96
691.495	401.57
691.684	303.27
691.874	385.19
692.063	325.8
692.252	454.82
692.442	407.72
692.631	377
692.82	331.94
693.01	317.61
693.199	272.55
693.388	397.48
693.578	321.7
693.767	393.38
693.956	393.38
694.146	336.04
694.335	354.47
694.524	268.45
694.713	389.28
694.902	284.84
695.092	282.79
695.281	362.66
695.47	299.17
695.659	250.02
695.848	340.13
696.037	262.31
696.226	381.09
696.415	420
696.604	424.1
696.793	432.29
696.982	354.47
697.171	372.9
697.36	276.65
697.549	364.71
697.738	299.17
697.927	286.89
698.116	204.97
698.305	323.75
698.494	391.33
698.683	317.61
698.872	401.57
699.061	327.85
699.25	299.17
699.438	368.81
699.627	305.32
699.816	434.34
700.005	254.12
700.193	282.79
700.382	342.18
700.571	346.28
700.76	317.61
700.948	424.1
701.137	327.85
701.326	377
701.514	235.69
701.703	395.43
701.892	274.6
702.08	524.45
702.269	323.75
702.457	286.89
702.646	344.23
702.834	268.45
703.023	393.38
703.212	374.95
703.4	340.13
703.589	278.69
703.777	245.93
703.965	293.03
704.154	250.02
704.342	266.41
704.531	227.5
704.719	307.37
704.907	463.01
705.096	282.79
705.284	286.89
705.472	295.08
705.661	356.52
705.849	393.38
706.037	413.86
706.226	325.8
706.414	417.96
706.602	282.79
706.79	282.79
706.979	241.83
707.167	344.23
707.355	245.93
707.543	336.04
707.731	336.04
707.919	354.47
708.107	311.46
708.296	286.89
708.484	290.98
708.672	313.51
708.86	315.56
709.048	331.94
709.236	317.61
709.424	354.47
709.612	231.59
709.8	155.82
709.988	315.56
710.176	356.52
710.364	415.91
710.551	319.65
710.739	319.65
710.927	245.93
711.115	301.22
711.303	307.37
711.491	401.57
711.679	338.09
711.866	352.42
712.054	262.31
712.242	352.42
712.43	366.76
712.617	286.89
712.805	385.19
712.993	313.51
713.181	270.5
713.368	391.33
713.556	309.41
713.744	354.47
713.931	518.31
714.119	372.9
714.306	352.42
714.494	295.08
714.682	311.46
714.869	319.65
715.057	221.35
715.244	262.31
715.432	370.85
715.619	254.12
715.807	286.89
715.994	301.22
716.182	327.85
716.369	413.86
716.556	377
716.744	284.84
716.931	383.14
717.119	352.42
717.306	264.36
717.493	379.04
717.681	368.81
717.868	352.42
718.055	463.01
718.242	315.56
718.43	377
718.617	393.38
718.804	315.56
718.991	450.72
719.179	323.75
719.366	483.49
719.553	321.7
719.74	356.52
719.927	331.94
720.114	299.17
720.301	260.26
720.488	348.33
720.676	358.57
720.863	391.33
721.05	532.64
721.237	413.86
721.424	409.76
721.611	327.85
721.798	311.46
721.985	356.52
722.172	360.61
722.358	352.42
722.545	434.34
722.732	411.81
722.919	377
723.106	432.29
723.293	358.57
723.48	385.19
723.667	325.8
723.853	434.34
724.04	442.53
724.227	514.21
724.414	368.81
724.6	450.72
724.787	510.11
724.974	430.24
725.161	417.96
725.347	278.69
725.534	307.37
725.72	434.34
725.907	381.09
726.094	428.2
726.28	442.53
726.467	397.48
726.653	362.66
726.84	508.07
727.027	510.11
727.213	471.2
727.4	442.53
727.586	491.68
727.773	377
727.959	389.28
728.145	426.15
728.332	411.81
728.518	354.47
728.705	442.53
728.891	333.99
729.077	401.57
729.264	415.91
729.45	426.15
729.636	493.73
729.823	436.39
730.009	489.64
730.195	420
730.382	415.91
730.568	409.76
730.754	479.4
730.94	417.96
731.126	463.01
731.313	467.11
731.499	493.73
731.685	538.79
731.871	250.02
732.057	485.54
732.243	503.97
732.429	510.11
732.615	475.3
732.801	493.73
732.987	479.4
733.173	385.19
733.359	442.53
733.545	391.33
733.731	370.85
733.917	516.26
734.103	499.88
734.289	520.35
734.475	413.86
734.661	614.56
734.847	444.58
735.033	530.59
735.219	585.89
735.404	430.24
735.59	479.4
735.776	512.16
735.962	532.64
736.148	479.4
736.333	526.5
736.519	483.49
736.705	428.2
736.89	493.73
737.076	479.4
737.262	391.33
737.447	450.72
737.633	411.81
737.819	446.63
738.004	487.59
738.19	542.88
738.375	493.73
738.561	487.59
738.747	483.49
738.932	379.04
739.118	563.36
739.303	540.83
739.489	491.68
739.674	393.38
739.859	397.48
740.045	413.86
740.23	458.92
740.416	417.96
740.601	536.74
740.786	524.45
740.972	401.57
741.157	452.77
741.342	508.07
741.528	442.53
741.713	493.73
741.898	483.49
742.084	452.77
742.269	530.59
742.454	411.81
742.639	456.87
742.824	467.11
743.01	483.49
743.195	557.22
743.38	346.28
743.565	487.59
743.75	456.87
743.935	446.63
744.12	493.73
744.305	290.98
744.49	426.15
744.675	409.76
744.86	442.53
745.045	442.53
745.23	442.53
745.415	372.9
745.6	510.11
745.785	430.24
745.97	485.54
746.155	524.45
746.34	491.68
746.525	420
746.71	571.55
746.895	440.48
747.079	368.81
747.264	426.15
747.449	475.3
747.634	448.68
747.819	430.24
748.003	372.9
748.188	329.89
748.373	544.93
748.557	520.35
748.742	450.72
748.927	413.86
749.111	381.09
749.296	370.85
749.481	393.38
749.665	356.52
749.85	401.57
750.034	424.1
750.219	477.35
750.404	295.08
750.588	381.09
750.773	305.32
750.957	399.52
751.141	354.47
751.326	381.09
751.51	290.98
751.695	315.56
751.879	315.56
752.064	442.53
752.248	413.86
752.432	483.49
752.617	413.86
752.801	417.96
752.985	299.17
753.17	358.57
753.354	282.79
753.538	377
753.722	301.22
753.907	252.07
754.091	313.51
754.275	354.47
754.459	262.31
754.643	270.5
754.828	352.42
755.012	338.09
755.196	245.93
755.38	344.23
755.564	237.74
755.748	262.31
755.932	374.95
756.116	354.47
756.3	358.57
756.484	344.23
756.668	245.93
756.852	209.06
757.036	307.37
757.22	311.46
757.404	217.26
757.588	256.17
757.772	243.88
757.956	270.5
758.14	358.57
758.323	325.8
758.507	372.9
758.691	282.79
758.875	340.13
759.059	352.42
759.242	243.88
759.426	233.64
759.61	235.69
759.794	192.68
759.977	313.51
760.161	415.91
760.345	360.61
760.528	307.37
760.712	340.13
760.895	286.89
761.079	233.64
761.263	168.1
761.446	194.73
761.63	293.03
761.813	209.06
761.997	137.38
762.18	268.45
762.364	276.65
762.547	129.19
762.731	211.11
762.914	219.3
763.098	241.83
763.281	215.21
763.464	219.3
763.648	243.88
763.831	184.49
764.015	207.02
764.198	268.45
764.381	196.78
764.564	247.97
764.748	141.48
764.931	293.03
765.114	184.49
765.297	245.93
765.481	237.74
765.664	123.05
765.847	180.39
766.03	243.88
766.213	225.45
766.397	258.21
766.58	170.15
766.763	200.87
766.946	143.53
767.129	164.01
767.312	172.2
767.495	229.54
767.678	170.15
767.861	151.72
768.044	211.11
768.227	211.11
768.41	213.16
768.593	184.49
768.776	90.28
768.959	118.95
769.142	239.78
769.324	221.35
769.507	106.67
769.69	116.9
769.873	151.72
770.056	344.23
770.239	123.05
770.421	223.4
770.604	213.16
770.787	123.05
770.97	198.82
771.152	137.38
771.335	260.26
771.518	73.9
771.7	282.79
771.883	241.83
772.066	172.2
772.248	178.34
772.431	170.15
772.613	254.12
772.796	207.02
772.978	170.15
773.161	227.5
773.343	102.57
773.526	88.23
773.708	53.42
773.891	41.13
774.073	229.54
774.256	8.36
774.438	227.5
774.621	164.01
774.803	235.69
774.985	192.68
775.168	241.83
775.35	112.81
775.532	204.97
775.715	96.43
775.897	172.2
776.079	71.85
776.261	131.24
776.444	131.24
776.626	112.81
776.808	241.83
776.99	143.53
777.173	59.56
777.355	149.67
777.537	170.15
777.719	157.86
777.901	90.28
778.083	80.04
778.265	92.33
778.447	161.96
778.629	71.85
778.811	131.24
778.993	82.09
779.175	164.01
779.357	141.48
779.539	4.27
779.721	188.58
779.903	121
780.085	63.66
780.267	98.47
780.449	88.23
780.631	151.72
780.812	178.34
780.994	73.9
781.176	168.1
781.358	32.94
781.54	63.66
781.721	168.1
781.903	172.2
782.085	114.86
782.267	94.38
782.448	59.56
782.63	57.51
782.812	88.23
782.993	215.21
783.175	98.47
783.357	41.13
783.538	20.65
783.72	49.32
783.901	102.57
784.083	106.67
784.264	123.05
784.446	106.67
784.627	57.51
784.809	90.28
784.99	94.38
785.172	73.9
785.353	80.04
785.535	147.62
785.716	22.7
785.897	47.27
786.079	80.04
786.26	80.04
786.441	106.67
786.623	2.22
786.804	47.27
786.985	102.57
787.167	190.63
787.348	-16.21
787.529	43.18
787.71	145.58
787.891	118.95
788.073	90.28
788.254	-104.28
788.435	204.97
788.616	90.28
788.797	32.94
788.978	77.99
789.159	77.99
789.34	82.09
789.522	20.65
789.703	57.51
789.884	82.09
790.065	14.51
790.246	194.73
790.427	-3.93
790.607	231.59
790.788	204.97
790.969	-16.21
791.15	24.75
791.331	16.55
791.512	47.27
791.693	6.31
791.874	123.05
792.054	159.91
792.235	90.28
792.416	45.23
792.597	10.41
792.778	114.86
792.958	69.8
793.139	49.32
793.32	121
793.5	30.89
793.681	63.66
793.862	82.09
794.042	82.09
794.223	-53.08
794.404	77.99
794.584	-38.74
794.765	14.51
794.945	98.47
795.126	32.94
795.306	159.91
795.487	30.89
795.667	106.67
795.848	57.51
796.028	4.27
796.209	14.51
796.389	28.84
796.57	77.99
796.75	61.61
796.93	-3.93
797.111	45.23
797.291	116.9
797.471	108.71
797.652	20.65
797.832	22.7
798.012	90.28
798.192	57.51
798.373	39.08
798.553	-48.98
798.733	41.13
798.913	-10.07
799.093	-5.97
799.274	39.08
799.454	51.37
799.634	47.27
799.814	116.9
799.994	90.28
800.174	137.38
800.354	-34.64
800.534	-1.88
800.714	61.61
800.894	37.03
801.074	-55.12
801.254	-44.88
801.434	137.38
801.614	49.32
801.794	-75.6
801.974	1513.62
802.154	4.27
802.334	114.86
802.514	32.94
802.693	96.43
802.873	-5.97
803.053	110.76
803.233	47.27
803.413	24.75
803.592	-32.6
803.772	-1.88
803.952	-10.07
804.131	-3.93
804.311	123.05
804.491	123.05
804.67	57.51
804.85	10.41
805.03	90.28
805.209	108.71
805.389	41.13
805.568	39.08
805.748	-12.12
805.928	39.08
806.107	63.66
806.287	96.43
806.466	73.9
806.646	-67.41
806.825	63.66
807.004	-42.84
807.184	45.23
807.363	90.28
807.543	-18.26
807.722	37.03
807.901	147.62
808.081	102.57
808.26	-110.42
808.439	73.9
808.619	28.84
808.798	41.13
808.977	61.61
809.156	118.95
809.336	-12.12
809.515	77.99
809.694	-57.17
809.873	24.75
810.052	65.71
810.231	-32.6
810.411	8.36
810.59	63.66
810.769	37.03
810.948	98.47
811.127	-114.52
811.306	71.85
811.485	26.79
811.664	147.62
811.843	49.32
812.022	-28.5
812.201	24.75
812.38	14.51
812.559	10.41
812.737	106.67
812.916	-18.26
813.095	-22.36
813.274	41.13
813.453	20.65
813.632	73.9
813.811	65.71
813.989	-73.56
814.168	73.9
814.347	-59.22
814.526	30.89
814.704	98.47
814.883	73.9
815.062	65.71
815.24	112.81
815.419	-40.79
815.598	16.55
815.776	-71.51
815.955	59.56
816.133	-57.17
816.312	28.84
816.49	41.13
816.669	65.71
816.847	-3.93
817.026	49.32
817.204	24.75
817.383	4.27
817.561	14.51
817.74	26.79
817.918	47.27
818.097	32.94
818.275	16.55
818.453	82.09
818.632	-3.93
818.81	-89.94
818.988	-51.03
819.167	41.13
819.345	0.17
819.523	-8.02
819.701	90.28
819.879	24.75
820.058	49.32
820.236	80.04
820.414	55.47
820.592	26.79
820.77	61.61
820.948	-1.88
821.127	-36.69
821.305	43.18
821.483	24.75
821.661	141.48
821.839	20.65
822.017	28.84
822.195	73.9
822.373	82.09
822.551	16.55
822.729	16.55
822.907	-14.17
823.085	82.09
823.262	39.08
823.44	-38.74
823.618	-28.5
823.796	73.9
823.974	49.32
824.152	14.51
824.329	-3.93
824.507	47.27
824.685	-24.4
824.863	-12.12
825.04	90.28
825.218	49.32
825.396	102.57
825.574	49.32
825.751	55.47
825.929	133.29
826.107	-44.88
826.284	34.99
826.462	30.89
826.639	-32.6
826.817	4.27
826.994	-5.97
827.172	-100.18
827.349	114.86
827.527	69.8
827.704	53.42
827.882	100.52
828.059	47.27
828.237	-24.4
828.414	80.04
828.591	-77.65
828.769	41.13
828.946	-8.02
829.124	80.04
829.301	96.43
829.478	98.47
829.655	-1.88
829.833	-32.6
830.01	-108.37
830.187	32.94
830.364	-36.69
830.542	41.13
830.719	84.14
830.896	71.85
831.073	65.71
831.25	108.71
831.427	88.23
831.604	24.75
831.782	-12.12
831.959	32.94
832.136	77.99
832.313	45.23
832.49	-38.74
832.667	108.71
832.844	37.03
833.021	26.79
833.198	34.99
833.374	0.17
833.551	28.84
833.728	6.31
833.905	69.8
834.082	-135
834.259	22.7
834.436	86.19
834.612	-32.6
834.789	41.13
834.966	37.03
835.143	14.51
835.319	-53.08
835.496	61.61
835.673	55.47
835.85	41.13
836.026	41.13
836.203	61.61
836.38	24.75
836.556	-36.69
836.733	-48.98
836.909	51.37
837.086	4.27
837.262	-67.41
837.439	-48.98
837.616	-98.13
837.792	8.36
837.968	-1.88
838.145	-26.45
838.321	-65.36
838.498	24.75
838.674	49.32
838.851	61.61
839.027	14.51
839.203	0.17
839.38	94.38
839.556	2.22
839.732	104.62
839.909	88.23
840.085	12.46
840.261	6.31
840.437	57.51
840.614	-59.22
840.79	143.53
840.966	59.56
841.142	75.95
841.318	-5.97
841.494	47.27
841.671	39.08
841.847	-10.07
842.023	16.55
842.199	69.8
842.375	82.09
842.551	-102.23
842.727	8.36
842.903	98.47
843.079	-51.03
843.255	116.9
843.431	-20.31
843.607	14.51
843.783	-106.32
843.959	57.51
844.134	-59.22
844.31	39.08
844.486	-12.12
844.662	-10.07
844.838	-18.26
845.013	32.94
845.189	112.81
845.365	16.55
845.541	32.94
845.716	82.09
845.892	37.03
846.068	-46.93
846.244	-34.64
846.419	57.51
846.595	-26.45
846.77	-20.31
846.946	32.94
847.122	-22.36
847.297	30.89
847.473	155.82
847.648	-83.8
847.824	80.04
847.999	-100.18
848.175	-24.4
848.35	28.84
848.526	63.66
848.701	65.71
848.876	90.28
849.052	98.47
849.227	-14.17
849.403	30.89
849.578	63.66
849.753	98.47
849.929	32.94
850.104	-28.5
850.279	-22.36
850.454	-32.6
850.63	65.71
850.805	65.71
850.98	75.95
851.155	53.42
851.33	4.27
851.505	-61.27
851.681	106.67
851.856	47.27
852.031	63.66
852.206	4.27
852.381	-44.88
852.556	41.13
852.731	108.71
852.906	77.99
853.081	30.89
853.256	65.71
853.431	71.85
853.606	-48.98
853.781	-65.36
853.956	-16.21
854.131	53.42
854.305	-16.21
854.48	-20.31
854.655	-65.36
854.83	-32.6
855.005	30.89
855.18	30.89
855.354	30.89
855.529	-57.17
855.704	-61.27
855.879	61.61
856.053	-24.4
856.228	18.6
856.403	8.36
856.577	-28.5
856.752	-59.22
856.926	43.18
857.101	94.38
857.276	-26.45
857.45	18.6
857.625	26.79
857.799	32.94
857.974	16.55
858.148	-38.74
858.323	-3.93
858.497	98.47
858.672	-51.03
858.846	-42.84
859.02	100.52
859.195	8.36
859.369	12.46
859.543	10.41
859.718	-12.12
859.892	-59.22
860.066	8.36
860.241	-57.17
860.415	-16.21
860.589	-53.08
860.763	-40.79
860.938	59.56
861.112	92.33
861.286	-10.07
861.46	8.36
861.634	39.08
861.808	55.47
861.982	-10.07
862.157	-42.84
862.331	-32.6
862.505	-132.95
862.679	-40.79
862.853	16.55
863.027	-28.5
863.201	192.68
863.375	-34.64
863.549	45.23
863.722	90.28
863.896	112.81
864.07	4.27
864.244	-34.64
864.418	100.52
864.592	-61.27
864.766	86.19
864.939	-8.02
865.113	-3.93
865.287	47.27
865.461	-48.98
865.634	0.17
865.808	16.55
865.982	-30.55
866.156	-22.36
866.329	-85.84
866.503	-18.26
866.676	57.51
866.85	39.08
867.024	0.17
867.197	-1.88
867.371	2.22
867.544	45.23
867.718	-36.69
867.891	37.03
868.065	-89.94
868.238	-26.45
868.412	55.47
868.585	-59.22
868.759	-16.21
868.932	-8.02
869.105	-61.27
869.279	67.75
869.452	-40.79
869.625	47.27
869.799	16.55
869.972	-34.64
870.145	28.84
870.319	45.23
870.492	30.89
870.665	-57.17
870.838	0.17
871.011	-157.52
871.185	-1.88
871.358	-14.17
871.531	-5.97
871.704	-30.55
871.877	24.75
872.05	-8.02
872.223	-57.17
872.396	61.61
872.569	80.04
872.742	-81.75
872.915	20.65
873.088	-22.36
873.261	-1.88
873.434	55.47
873.607	-59.22
873.78	20.65
873.953	-1.88
874.126	2.22
874.299	-5.97
874.471	-46.93
874.644	-61.27
874.817	30.89
874.99	75.95
875.163	12.46
875.335	4.27
875.508	-42.84
875.681	131.24
875.853	24.75
876.026	45.23
876.199	77.99
876.371	98.47
876.544	-36.69
876.717	-24.4
876.889	30.89
877.062	12.46
877.234	-137.04
877.407	-20.31
877.579	-24.4
877.752	-16.21
877.924	8.36
878.097	55.47
878.269	24.75
878.442	-1.88
878.614	-57.17
878.786	8.36
878.959	20.65
879.131	8.36
879.303	-81.75
879.476	-20.31
879.648	82.09
879.82	-42.84
879.993	-32.6
880.165	12.46
880.337	-100.18
880.509	-83.8
880.681	-51.03
880.854	55.47
881.026	43.18
881.198	127.14
881.37	47.27
881.542	49.32
881.714	53.42
881.886	-24.4
882.058	24.75
882.23	16.55
882.402	-22.36
882.574	-65.36
882.746	82.09
882.918	121
883.09	24.75
883.262	2.22
883.434	57.51
883.606	-85.84
883.778	-28.5
883.95	151.72
884.122	-73.56
884.293	61.61
884.465	32.94
884.637	45.23
884.809	-44.88
884.98	8.36
885.152	2.22
885.324	20.65
885.496	-32.6
885.667	8.36
885.839	-30.55
886.011	112.81
886.182	-57.17
886.354	24.75
886.525	8.36
886.697	-10.07
886.869	-32.6
887.04	6.31
887.212	88.23
887.383	43.18
887.555	24.75
887.726	-65.36
887.897	-67.41
888.069	-24.4
888.24	16.55
888.412	86.19
888.583	-30.55
888.754	67.75
888.926	-147.28
889.097	-71.51
889.268	-67.41
889.44	-1.88
889.611	-71.51
889.782	-14.17
889.953	-12.12
890.125	77.99
890.296	14.51
890.467	-40.79
890.638	-24.4
890.809	-57.17
890.98	24.75
891.151	45.23
891.323	96.43
891.494	32.94
891.665	8.36
891.836	-67.41
892.007	0.17
892.178	57.51
892.349	32.94
892.52	-26.45
892.691	-69.46
892.862	45.23
893.032	-40.79
893.203	-42.84
893.374	-1.88
893.545	30.89
893.716	-77.65
893.887	59.56
894.057	-53.08
894.228	-28.5
894.399	-22.36
894.57	67.75
894.74	-44.88
894.911	-18.26
895.082	-28.5
895.253	-30.55
895.423	16.55
895.594	80.04
895.764	96.43
895.935	2.22
896.106	0.17
896.276	6.31
896.447	16.55
896.617	-100.18
896.788	-8.02
896.958	12.46
897.129	-77.65
897.299	-77.65
897.47	118.95
897.64	98.47
897.81	73.9
897.981	4.27
898.151	-24.4
898.322	-16.21
898.492	34.99
898.662	-38.74
898.832	4.27
899.003	-89.94
899.173	-8.02
899.343	-26.45
899.513	-59.22
