Data from USB4F104151__10__09-24-57-325.txt Node

Date: Wed Feb 26 09:24:57 EST 2025
User: louis
Spectrometer: USB4F10415
Trigger mode: 4
Integration Time (sec): 1.000000E-1
Scans to average: 1
Electric dark correction enabled: true
Nonlinearity correction enabled: false
Boxcar width: 0
XAxis mode: Wavelengths
Number of Pixels in Spectrum: 3648
>>>>>Begin Spectral Data<<<<<
178.204	-357.88
178.424	-357.88
178.644	-357.88
178.864	-349.69
179.084	-386.55
179.304	6.66
179.524	-26.11
179.744	45.57
179.964	70.14
180.184	-3.58
180.404	-28.16
180.624	-26.11
180.844	49.66
181.064	-42.5
181.283	-17.92
181.503	-75.26
181.723	47.62
181.943	-97.79
182.163	111.1
182.383	16.9
182.602	37.38
182.822	72.19
183.042	-1.54
183.262	-77.31
183.482	29.18
183.701	20.99
183.921	-1.54
184.141	-7.68
184.361	47.62
184.58	4.61
184.8	-13.82
185.02	-79.36
185.239	74.24
185.459	68.09
185.679	84.48
185.898	-118.27
186.118	-11.78
186.338	-30.21
186.557	72.19
186.777	-75.26
186.997	-28.16
187.216	-11.78
187.436	102.91
187.655	57.86
187.875	55.81
188.095	-67.07
188.314	82.43
188.534	111.1
188.753	-67.07
188.973	64
189.192	123.39
189.412	-11.78
189.631	2.56
189.851	-3.58
190.07	133.63
190.29	-46.59
190.509	47.62
190.729	2.56
190.948	55.81
191.168	244.22
191.387	94.72
191.607	-69.12
191.826	74.24
192.045	-3.58
192.265	-36.35
192.484	43.52
192.704	35.33
192.923	14.85
193.142	158.21
193.362	35.33
193.581	-22.02
193.8	64
194.02	64
194.239	51.71
194.458	111.1
194.678	39.42
194.897	-32.26
195.116	84.48
195.335	53.76
195.555	76.29
195.774	-46.59
195.993	43.52
196.212	6.66
196.432	-30.21
196.651	-91.65
196.87	2.56
197.089	219.64
197.308	37.38
197.528	-28.16
197.747	-46.59
197.966	-28.16
198.185	158.21
198.404	-30.21
198.623	29.18
198.842	78.33
199.062	80.38
199.281	74.24
199.5	74.24
199.719	43.52
199.938	72.19
200.157	129.53
200.376	47.62
200.595	78.33
200.814	-1.54
201.033	-36.35
201.252	68.09
201.471	72.19
201.69	-9.73
201.909	-56.83
202.128	74.24
202.347	-36.35
202.566	-30.21
202.785	-140.8
203.004	-60.93
203.223	244.22
203.442	-17.92
203.661	-138.75
203.879	123.39
204.098	100.86
204.317	-77.31
204.536	166.4
204.755	109.05
204.974	70.14
205.193	-42.5
205.411	133.63
205.63	66.05
205.849	78.33
206.068	-17.92
206.287	-1.54
206.505	57.86
206.724	-52.74
206.943	-60.93
207.162	-132.61
207.381	98.81
207.599	20.99
207.818	6.66
208.037	-24.06
208.255	0.51
208.474	25.09
208.693	133.63
208.911	-40.45
209.13	35.33
209.349	68.09
209.567	41.47
209.786	39.42
210.005	55.81
210.223	53.76
210.442	-124.41
210.661	-5.63
210.879	104.96
211.098	-19.97
211.316	70.14
211.535	113.15
211.753	-9.73
211.972	10.75
212.191	14.85
212.409	84.48
212.628	27.14
212.846	51.71
213.065	86.53
213.283	59.9
213.502	96.77
213.72	-24.06
213.938	31.23
214.157	-7.68
214.375	72.19
214.594	-48.64
214.812	31.23
215.031	-1.54
215.249	18.94
215.467	25.09
215.686	29.18
215.904	39.42
216.122	-3.58
216.341	78.33
216.559	-34.3
216.778	102.91
216.996	88.57
217.214	55.81
217.432	-15.87
217.651	-101.89
217.869	-19.97
218.087	-11.78
218.306	-3.58
218.524	31.23
218.742	31.23
218.96	76.29
219.179	64
219.397	18.94
219.615	135.68
219.833	113.15
220.051	-75.26
220.27	57.86
220.488	41.47
220.706	43.52
220.924	0.51
221.142	-52.74
221.36	35.33
221.578	-34.3
221.796	-1.54
222.015	-28.16
222.233	45.57
222.451	72.19
222.669	-3.58
222.887	53.76
223.105	4.61
223.323	23.04
223.541	23.04
223.759	70.14
223.977	-1.54
224.195	104.96
224.413	96.77
224.631	18.94
224.849	64
225.067	109.05
225.285	31.23
225.503	43.52
225.721	-157.18
225.939	-1.54
226.157	-22.02
226.375	242.17
226.592	41.47
226.81	27.14
227.028	27.14
227.246	98.81
227.464	25.09
227.682	82.43
227.9	53.76
228.117	53.76
228.335	68.09
228.553	-17.92
228.771	10.75
228.989	-32.26
229.206	72.19
229.424	-30.21
229.642	29.18
229.86	-91.65
230.077	129.53
230.295	31.23
230.513	23.04
230.731	27.14
230.948	137.73
231.166	170.49
231.384	4.61
231.601	-44.54
231.819	53.76
232.037	2.56
232.254	-85.5
232.472	-5.63
232.689	-9.73
232.907	107.01
233.125	-11.78
233.342	6.66
233.56	-62.98
233.777	-58.88
233.995	0.51
234.213	96.77
234.43	18.94
234.648	-13.82
234.865	-5.63
235.083	49.66
235.3	-83.45
235.518	-13.82
235.735	57.86
235.953	78.33
236.17	-69.12
236.388	-7.68
236.605	-17.92
236.822	47.62
237.04	100.86
237.257	4.61
237.475	23.04
237.692	4.61
237.909	100.86
238.127	39.42
238.344	35.33
238.562	14.85
238.779	-99.84
238.996	-56.83
239.214	16.9
239.431	76.29
239.648	4.61
239.865	92.67
240.083	117.25
240.3	8.7
240.517	-28.16
240.735	10.75
240.952	109.05
241.169	104.96
241.386	2.56
241.603	51.71
241.821	-62.98
242.038	109.05
242.255	82.43
242.472	-62.98
242.689	78.33
242.907	8.7
243.124	14.85
243.341	35.33
243.558	-9.73
243.775	-60.93
243.992	-75.26
244.209	139.77
244.426	180.73
244.643	-5.63
244.86	25.09
245.078	74.24
245.295	78.33
245.512	-5.63
245.729	-44.54
245.946	29.18
246.163	39.42
246.38	-34.3
246.597	39.42
246.814	76.29
247.031	72.19
247.248	-11.78
247.464	23.04
247.681	31.23
247.898	37.38
248.115	14.85
248.332	47.62
248.549	80.38
248.766	66.05
248.983	-3.58
249.2	68.09
249.417	147.97
249.633	55.81
249.85	59.9
250.067	-26.11
250.284	-22.02
250.501	68.09
250.717	-26.11
250.934	-46.59
251.151	-7.68
251.368	-34.3
251.585	-5.63
251.801	35.33
252.018	8.7
252.235	45.57
252.451	-99.84
252.668	-67.07
252.885	111.1
253.102	0.51
253.318	14.85
253.535	0.51
253.752	16.9
253.968	-9.73
254.185	-50.69
254.401	35.33
254.618	41.47
254.835	-15.87
255.051	127.49
255.268	70.14
255.484	25.09
255.701	49.66
255.917	2.56
256.134	-5.63
256.351	-3.58
256.567	-58.88
256.784	-9.73
257	-77.31
257.217	129.53
257.433	29.18
257.65	6.66
257.866	88.57
258.082	-50.69
258.299	-11.78
258.515	25.09
258.732	14.85
258.948	-58.88
259.165	43.52
259.381	76.29
259.597	43.52
259.814	92.67
260.03	6.66
260.246	-40.45
260.463	98.81
260.679	152.06
260.895	29.18
261.112	74.24
261.328	39.42
261.544	-42.5
261.761	137.73
261.977	-7.68
262.193	-85.5
262.409	-11.78
262.626	-9.73
262.842	31.23
263.058	-50.69
263.274	72.19
263.49	51.71
263.707	68.09
263.923	-38.4
264.139	-112.13
264.355	-26.11
264.571	86.53
264.787	68.09
265.004	113.15
265.22	31.23
265.436	-36.35
265.652	-13.82
265.868	31.23
266.084	-36.35
266.3	-13.82
266.516	-40.45
266.732	41.47
266.948	-19.97
267.164	-19.97
267.38	61.95
267.596	-17.92
267.812	182.78
268.028	-5.63
268.244	37.38
268.46	10.75
268.676	47.62
268.892	43.52
269.108	-36.35
269.324	25.09
269.54	-50.69
269.756	29.18
269.972	-3.58
270.188	2.56
270.403	-73.21
270.619	-26.11
270.835	6.66
271.051	137.73
271.267	-9.73
271.483	-46.59
271.698	33.28
271.914	115.2
272.13	4.61
272.346	16.9
272.562	20.99
272.777	72.19
272.993	20.99
273.209	-58.88
273.425	23.04
273.64	-65.02
273.856	68.09
274.072	2.56
274.287	4.61
274.503	104.96
274.719	102.91
274.934	23.04
275.15	-44.54
275.366	14.85
275.581	-28.16
275.797	55.81
276.012	55.81
276.228	-28.16
276.444	72.19
276.659	107.01
276.875	-67.07
277.09	-26.11
277.306	72.19
277.521	72.19
277.737	-13.82
277.952	41.47
278.168	4.61
278.383	31.23
278.599	27.14
278.814	68.09
279.03	31.23
279.245	70.14
279.461	-69.12
279.676	20.99
279.892	-112.13
280.107	6.66
280.322	-69.12
280.538	43.52
280.753	-24.06
280.969	-3.58
281.184	31.23
281.399	137.73
281.615	-36.35
281.83	23.04
282.045	2.56
282.26	-71.17
282.476	2.56
282.691	51.71
282.906	64
283.122	113.15
283.337	12.8
283.552	-48.64
283.767	-17.92
283.983	84.48
284.198	-46.59
284.413	55.81
284.628	-24.06
284.843	-38.4
285.058	12.8
285.274	-46.59
285.489	0.51
285.704	74.24
285.919	-52.74
286.134	-22.02
286.349	61.95
286.564	20.99
286.779	78.33
286.995	92.67
287.21	-58.88
287.425	84.48
287.64	-34.3
287.855	45.57
288.07	-112.13
288.285	55.81
288.5	88.57
288.715	68.09
288.93	-11.78
289.145	-65.02
289.36	92.67
289.575	-87.55
289.79	104.96
290.004	33.28
290.219	49.66
290.434	2.56
290.649	45.57
290.864	39.42
291.079	-1.54
291.294	74.24
291.509	45.57
291.724	-85.5
291.938	-116.22
292.153	2.56
292.368	-1.54
292.583	-17.92
292.798	18.94
293.012	8.7
293.227	59.9
293.442	-36.35
293.657	18.94
293.871	150.01
294.086	-26.11
294.301	107.01
294.516	64
294.73	10.75
294.945	-60.93
295.16	27.14
295.374	37.38
295.589	98.81
295.804	-60.93
296.018	35.33
296.233	94.72
296.447	23.04
296.662	-7.68
296.877	88.57
297.091	80.38
297.306	4.61
297.52	-40.45
297.735	14.85
297.949	47.62
298.164	-38.4
298.378	86.53
298.593	-13.82
298.807	-9.73
299.022	-17.92
299.236	59.9
299.451	-19.97
299.665	6.66
299.88	-13.82
300.094	31.23
300.309	29.18
300.523	47.62
300.737	-5.63
300.952	-3.58
301.166	125.44
301.381	-15.87
301.595	53.76
301.809	27.14
302.024	-75.26
302.238	-97.79
302.452	125.44
302.667	10.75
302.881	115.2
303.095	66.05
303.309	0.51
303.524	6.66
303.738	45.57
303.952	-1.54
304.166	-3.58
304.381	-93.69
304.595	131.58
304.809	10.75
305.023	10.75
305.237	25.09
305.452	14.85
305.666	66.05
305.88	47.62
306.094	29.18
306.308	51.71
306.522	111.1
306.736	0.51
306.95	25.09
307.164	-1.54
307.379	20.99
307.593	121.34
307.807	104.96
308.021	43.52
308.235	23.04
308.449	-95.74
308.663	-19.97
308.877	264.7
309.091	20.99
309.305	-26.11
309.519	-114.17
309.733	78.33
309.947	35.33
310.161	43.52
310.374	64
310.588	127.49
310.802	-126.46
311.016	-40.45
311.23	55.81
311.444	-50.69
311.658	-67.07
311.872	129.53
312.085	96.77
312.299	88.57
312.513	109.05
312.727	39.42
312.941	-110.08
313.154	76.29
313.368	-5.63
313.582	74.24
313.796	-3.58
314.009	78.33
314.223	80.38
314.437	23.04
314.651	61.95
314.864	-54.78
315.078	14.85
315.292	-24.06
315.505	-30.21
315.719	-56.83
315.933	68.09
316.146	8.7
316.36	-48.64
316.573	37.38
316.787	88.57
317.001	55.81
317.214	-22.02
317.428	45.57
317.641	-44.54
317.855	-34.3
318.068	55.81
318.282	59.9
318.495	178.69
318.709	70.14
318.922	-5.63
319.136	129.53
319.349	94.72
319.563	-17.92
319.776	-85.5
319.99	-58.88
320.203	88.57
320.417	-89.6
320.63	88.57
320.843	195.07
321.057	-13.82
321.27	64
321.483	37.38
321.697	107.01
321.91	-13.82
322.124	72.19
322.337	6.66
322.55	-52.74
322.763	-13.82
322.977	35.33
323.19	-89.6
323.403	-17.92
323.617	100.86
323.83	94.72
324.043	-15.87
324.256	139.77
324.469	-56.83
324.683	96.77
324.896	12.8
325.109	-26.11
325.322	-62.98
325.535	47.62
325.748	102.91
325.962	10.75
326.175	43.52
326.388	129.53
326.601	115.2
326.814	45.57
327.027	0.51
327.24	176.64
327.453	-101.89
327.666	-17.92
327.879	96.77
328.092	43.52
328.305	23.04
328.518	12.8
328.731	-26.11
328.944	0.51
329.157	33.28
329.37	-38.4
329.583	119.29
329.796	78.33
330.009	-62.98
330.222	39.42
330.435	96.77
330.648	-40.45
330.861	-26.11
331.073	2.56
331.286	70.14
331.499	35.33
331.712	2.56
331.925	-9.73
332.138	-32.26
332.35	80.38
332.563	-17.92
332.776	76.29
332.989	27.14
333.202	-62.98
333.414	18.94
333.627	-44.54
333.84	-60.93
334.053	27.14
334.265	-46.59
334.478	-85.5
334.691	61.95
334.903	145.92
335.116	16.9
335.329	-28.16
335.541	78.33
335.754	121.34
335.966	-71.17
336.179	-3.58
336.392	-38.4
336.604	-26.11
336.817	100.86
337.029	-26.11
337.242	61.95
337.454	2.56
337.667	25.09
337.88	31.23
338.092	86.53
338.305	51.71
338.517	4.61
338.729	78.33
338.942	78.33
339.154	-75.26
339.367	-69.12
339.579	-5.63
339.792	4.61
340.004	45.57
340.217	-34.3
340.429	-26.11
340.641	-30.21
340.854	-7.68
341.066	20.99
341.278	80.38
341.491	86.53
341.703	59.9
341.915	-60.93
342.128	88.57
342.34	-46.59
342.552	39.42
342.764	55.81
342.977	-9.73
343.189	53.76
343.401	23.04
343.613	-67.07
343.826	43.52
344.038	-46.59
344.25	-22.02
344.462	-48.64
344.674	23.04
344.886	45.57
345.099	-89.6
345.311	-7.68
345.523	-22.02
345.735	-101.89
345.947	37.38
346.159	-26.11
346.371	35.33
346.583	-42.5
346.795	158.21
347.007	-32.26
347.219	-11.78
347.431	-13.82
347.643	119.29
347.855	-3.58
348.067	82.43
348.279	-126.46
348.491	2.56
348.703	29.18
348.915	-42.5
349.127	-5.63
349.339	66.05
349.551	-50.69
349.763	68.09
349.975	-11.78
350.187	43.52
350.399	125.44
350.61	10.75
350.822	29.18
351.034	61.95
351.246	113.15
351.458	-50.69
351.669	109.05
351.881	111.1
352.093	92.67
352.305	90.62
352.517	90.62
352.728	14.85
352.94	20.99
353.152	72.19
353.363	-1.54
353.575	10.75
353.787	94.72
353.999	72.19
354.21	166.4
354.422	-1.54
354.633	-62.98
354.845	12.8
355.057	-15.87
355.268	51.71
355.48	78.33
355.692	0.51
355.903	-1.54
356.115	-54.78
356.326	-67.07
356.538	129.53
356.749	102.91
356.961	154.11
357.172	-34.3
357.384	-58.88
357.595	221.69
357.807	-13.82
358.018	8.7
358.23	31.23
358.441	102.91
358.653	66.05
358.864	49.66
359.075	-77.31
359.287	25.09
359.498	94.72
359.709	70.14
359.921	-17.92
360.132	92.67
360.344	92.67
360.555	23.04
360.766	41.47
360.977	6.66
361.189	59.9
361.4	-9.73
361.611	102.91
361.823	35.33
362.034	45.57
362.245	-69.12
362.456	-75.26
362.667	-1.54
362.879	-42.5
363.09	-17.92
363.301	-5.63
363.512	35.33
363.723	6.66
363.935	-77.31
364.146	100.86
364.357	-36.35
364.568	90.62
364.779	-99.84
364.99	115.2
365.201	-60.93
365.412	74.24
365.623	-11.78
365.834	-34.3
366.045	10.75
366.256	80.38
366.467	88.57
366.678	39.42
366.889	39.42
367.1	49.66
367.311	68.09
367.522	-34.3
367.733	43.52
367.944	-1.54
368.155	45.57
368.366	59.9
368.577	55.81
368.788	39.42
368.999	-112.13
369.209	-1.54
369.42	178.69
369.631	123.39
369.842	70.14
370.053	-9.73
370.264	29.18
370.474	-34.3
370.685	35.33
370.896	25.09
371.107	47.62
371.317	-3.58
371.528	31.23
371.739	150.01
371.95	55.81
372.16	61.95
372.371	-52.74
372.582	20.99
372.792	76.29
373.003	78.33
373.214	49.66
373.424	29.18
373.635	-34.3
373.846	104.96
374.056	29.18
374.267	-9.73
374.477	55.81
374.688	-50.69
374.898	109.05
375.109	37.38
375.319	86.53
375.53	27.14
375.74	35.33
375.951	23.04
376.161	49.66
376.372	-1.54
376.582	6.66
376.793	-46.59
377.003	-44.54
377.214	-58.88
377.424	59.9
377.635	8.7
377.845	-83.45
378.055	135.68
378.266	-1.54
378.476	53.76
378.686	125.44
378.897	18.94
379.107	84.48
379.317	72.19
379.528	31.23
379.738	39.42
379.948	-56.83
380.158	104.96
380.369	29.18
380.579	115.2
380.789	-5.63
380.999	68.09
381.21	64
381.42	131.58
381.63	88.57
381.84	35.33
382.05	-3.58
382.261	131.58
382.471	123.39
382.681	-34.3
382.891	82.43
383.101	0.51
383.311	-13.82
383.521	-79.36
383.731	102.91
383.941	64
384.151	55.81
384.361	27.14
384.571	2.56
384.781	64
384.991	137.73
385.201	113.15
385.411	14.85
385.621	18.94
385.831	2.56
386.041	49.66
386.251	-9.73
386.461	111.1
386.671	12.8
386.881	-11.78
387.091	61.95
387.301	27.14
387.511	82.43
387.72	23.04
387.93	2.56
388.14	-73.21
388.35	14.85
388.56	31.23
388.769	90.62
388.979	47.62
389.189	-34.3
389.399	64
389.609	88.57
389.818	49.66
390.028	-36.35
390.238	64
390.447	-71.17
390.657	64
390.867	-1.54
391.076	-24.06
391.286	51.71
391.496	6.66
391.705	64
391.915	55.81
392.125	86.53
392.334	-44.54
392.544	70.14
392.753	20.99
392.963	-34.3
393.172	66.05
393.382	-50.69
393.591	129.53
393.801	35.33
394.01	129.53
394.22	43.52
394.429	-9.73
394.639	-13.82
394.848	20.99
395.058	53.76
395.267	64
395.477	6.66
395.686	64
395.895	111.1
396.105	145.92
396.314	57.86
396.524	-17.92
396.733	6.66
396.942	117.25
397.152	20.99
397.361	88.57
397.57	39.42
397.78	100.86
397.989	6.66
398.198	102.91
398.407	25.09
398.617	-3.58
398.826	47.62
399.035	-26.11
399.244	94.72
399.453	-13.82
399.663	51.71
399.872	55.81
400.081	27.14
400.29	111.1
400.499	-26.11
400.708	47.62
400.917	6.66
401.127	51.71
401.336	-28.16
401.545	135.68
401.754	78.33
401.963	100.86
402.172	14.85
402.381	-99.84
402.59	64
402.799	86.53
403.008	123.39
403.217	37.38
403.426	18.94
403.635	-28.16
403.844	-42.5
404.053	37.38
404.262	-19.97
404.471	55.81
404.68	68.09
404.888	-42.5
405.097	-7.68
405.306	72.19
405.515	39.42
405.724	68.09
405.933	64
406.142	14.85
406.35	100.86
406.559	-36.35
406.768	47.62
406.977	109.05
407.185	76.29
407.394	-1.54
407.603	-32.26
407.812	64
408.02	131.58
408.229	10.75
408.438	12.8
408.646	2.56
408.855	14.85
409.064	39.42
409.272	33.28
409.481	61.95
409.69	4.61
409.898	27.14
410.107	8.7
410.315	100.86
410.524	53.76
410.733	84.48
410.941	33.28
411.15	113.15
411.358	18.94
411.567	43.52
411.775	-17.92
411.984	35.33
412.192	59.9
412.401	-46.59
412.609	127.49
412.818	80.38
413.026	59.9
413.234	51.71
413.443	45.57
413.651	-13.82
413.86	-52.74
414.068	162.3
414.276	141.82
414.485	6.66
414.693	104.96
414.901	125.44
415.11	61.95
415.318	20.99
415.526	-22.02
415.734	96.77
415.943	25.09
416.151	145.92
416.359	29.18
416.567	-9.73
416.776	102.91
416.984	72.19
417.192	158.21
417.4	2.56
417.608	0.51
417.817	18.94
418.025	129.53
418.233	150.01
418.441	12.8
418.649	-87.55
418.857	137.73
419.065	78.33
419.273	-1.54
419.481	18.94
419.689	64
419.897	-1.54
420.105	-85.5
420.313	174.59
420.521	137.73
420.729	98.81
420.937	-54.78
421.145	-50.69
421.353	84.48
421.561	125.44
421.769	135.68
421.977	4.61
422.185	39.42
422.393	59.9
422.601	125.44
422.809	127.49
423.017	-9.73
423.224	96.77
423.432	70.14
423.64	8.7
423.848	100.86
424.056	-65.02
424.263	92.67
424.471	-9.73
424.679	4.61
424.887	-36.35
425.094	100.86
425.302	23.04
425.51	47.62
425.718	129.53
425.925	53.76
426.133	59.9
426.341	166.4
426.548	47.62
426.756	61.95
426.964	64
427.171	-13.82
427.379	102.91
427.586	64
427.794	45.57
428.001	109.05
428.209	113.15
428.417	135.68
428.624	139.77
428.832	61.95
429.039	55.81
429.247	39.42
429.454	27.14
429.662	111.1
429.869	135.68
430.076	78.33
430.284	111.1
430.491	143.87
430.699	117.25
430.906	166.4
431.114	199.16
431.321	109.05
431.528	129.53
431.736	131.58
431.943	154.11
432.15	190.97
432.358	104.96
432.565	240.12
432.772	51.71
432.979	219.64
433.187	6.66
433.394	285.18
433.601	88.57
433.808	231.93
434.016	309.76
434.223	217.6
434.43	270.84
434.637	123.39
434.844	186.88
435.052	223.74
435.259	164.35
435.466	238.08
435.673	299.52
435.88	322.04
436.087	276.99
436.294	268.8
436.501	383.48
436.708	301.56
436.915	365.05
437.122	363
437.329	272.89
437.537	387.58
437.743	338.43
437.95	449.02
438.157	424.44
438.364	365.05
438.571	373.24
438.778	371.19
438.985	467.45
439.192	442.87
439.399	422.39
439.606	496.12
439.813	520.7
440.02	594.42
440.227	633.33
440.433	481.78
440.64	582.14
440.847	485.88
441.054	610.81
441.261	768.5
441.467	647.67
441.674	616.95
441.881	657.91
442.088	688.63
442.294	668.15
442.501	711.16
442.708	768.5
442.914	817.65
443.121	768.5
443.328	907.76
443.534	1004.02
443.741	891.38
443.948	881.14
444.154	1006.06
444.361	1184.24
444.568	979.44
444.774	1073.65
444.981	1020.4
445.187	1116.65
445.394	1235.44
445.6	1120.75
445.807	1364.46
446.013	1260.01
446.22	1294.83
446.426	1493.48
446.633	1532.39
446.839	1638.89
447.046	1485.29
447.252	1710.57
447.459	1634.79
447.665	1673.7
447.871	1810.92
448.078	1991.14
448.284	1894.88
448.491	2028
448.697	2157.02
448.903	2316.76
449.11	2333.15
449.316	2288.09
449.522	2257.37
449.728	2531.8
449.935	2587.1
450.141	2736.6
450.347	2773.46
450.553	2740.69
450.76	2845.14
450.966	3158.48
451.172	3178.96
451.378	3307.98
451.584	3236.3
451.791	3682.76
451.997	3686.86
452.203	3799.49
452.409	3873.22
452.615	4049.35
452.821	3971.52
453.027	4043.2
453.233	4585.91
453.44	4299.2
453.646	4741.56
453.852	4911.54
454.058	5118.39
454.264	5157.3
454.47	5575.08
454.676	5511.6
454.882	6013.35
455.088	5781.93
455.294	6042.02
455.5	6594.97
455.705	7092.63
455.911	6764.95
456.117	7072.15
456.323	7256.47
456.529	7276.94
456.735	8087.94
456.941	8241.54
457.147	8530.3
457.352	8890.74
457.558	8978.81
457.764	9623.92
457.97	9894.25
458.176	10156.39
458.381	10768.73
458.587	10897.75
458.793	11489.62
458.999	11374.93
459.204	12951.87
459.41	13537.59
459.616	13119.8
459.821	13981.99
460.027	14692.64
460.233	15345.94
460.438	15333.65
460.644	15954.19
460.85	16337.16
461.055	17105.15
461.261	18024.68
461.466	17522.93
461.672	17828.08
461.878	20043.98
462.083	19413.21
462.289	20486.34
462.494	21008.58
462.7	21223.61
462.905	21233.85
463.111	23132.32
463.316	24141.97
463.522	24371.34
463.727	25393.28
463.932	26323.05
464.138	27408.48
464.343	28409.93
464.549	28385.36
464.754	30394.42
464.959	31113.25
465.165	31840.28
465.37	31950.87
465.575	31723.55
465.781	33734.65
465.986	35090.41
466.191	34197.49
466.397	34336.76
466.602	33955.83
466.807	35921.88
467.012	35968.99
467.218	36896.72
467.423	37171.14
467.628	38191.03
467.833	39600.04
468.038	39147.43
468.244	38635.44
468.449	40394.65
468.654	39626.66
468.859	39851.94
469.064	39688.1
469.269	39022.51
469.474	39321.51
469.679	40230.81
469.885	38901.68
470.09	39776.16
470.295	39821.22
470.5	38772.66
470.705	39200.68
470.91	38176.7
471.115	37726.14
471.32	38807.47
471.525	37896.13
471.73	36919.24
471.935	36921.29
472.139	35745.76
472.344	35465.19
472.549	35192.81
472.754	34818.03
472.959	34004.99
473.164	32552.98
473.369	32593.93
473.574	33431.55
473.778	32514.06
473.983	32428.05
474.188	31698.97
474.393	29743.16
474.598	30216.24
474.802	29067.33
475.007	28958.79
475.212	28725.32
475.417	27943
475.621	27134.05
475.826	27166.82
476.031	26083.44
476.235	25606.27
476.44	25720.95
476.645	24965.25
476.849	24776.84
477.054	24449.16
477.259	23662.74
477.463	24006.8
477.668	22931.62
477.872	23220.38
478.077	22251.69
478.282	21700.79
478.486	21602.49
478.691	21694.64
478.895	21452.98
479.1	21211.32
479.304	21229.76
479.509	20224.2
479.713	20773.06
479.918	20021.45
480.122	19591.38
480.326	19937.49
480.531	19792.08
480.735	19560.66
480.94	18985.18
481.144	20052.17
481.348	18702.56
481.553	18897.12
481.757	18260.2
481.961	18931.94
482.166	18866.4
482.37	18653.41
482.574	18090.22
482.778	18157.8
482.983	18284.78
483.187	17899.76
483.391	17948.91
483.595	17539.32
483.8	17303.8
484.004	17295.61
484.208	17471.73
484.412	17027.32
484.616	16802.05
484.821	16630.02
485.025	16034.06
485.229	15960.33
485.433	15958.28
485.637	15673.62
485.841	15372.57
486.045	15425.81
486.249	15339.8
486.453	14893.34
486.657	14704.93
486.861	14887.2
487.065	14043.43
487.269	14119.21
487.473	13627.7
487.677	13855.02
487.881	13814.06
488.085	13146.42
488.289	13089.08
488.493	12785.98
488.697	12730.69
488.901	12417.35
489.105	12122.44
489.309	12312.9
489.512	11749.71
489.716	11514.19
489.92	11340.11
490.124	11143.51
490.328	11014.49
490.531	10592.61
490.735	10647.9
490.939	10393.95
491.143	10074.47
491.346	10094.95
491.55	9722.22
491.754	9546.09
491.958	9482.61
492.161	9474.42
492.365	9181.56
492.569	9105.78
492.772	8892.79
492.976	8853.88
493.18	8485.25
493.383	8606.08
493.587	8436.1
493.79	8280.45
493.994	8128.9
494.197	8024.45
494.401	8112.52
494.605	7827.85
494.808	8024.45
495.012	7868.81
495.215	7784.84
495.419	7631.24
495.622	7578
495.825	7510.41
496.029	7348.62
496.232	7641.48
496.436	7350.67
496.639	7448.97
496.843	7461.26
497.046	7416.21
497.249	7375.25
497.453	7401.87
497.656	7260.56
497.859	7285.14
498.063	7229.84
498.266	7453.07
498.469	7154.07
498.673	7326.1
498.876	7504.27
499.079	7305.62
499.282	7248.27
499.485	7530.89
499.689	7428.49
499.892	7498.13
500.095	7516.56
500.298	7453.07
500.501	7664.01
500.705	7764.36
500.908	7829.9
501.111	7920.01
501.314	7758.22
501.517	7813.51
501.72	8020.36
501.923	7795.08
502.126	8239.49
502.329	8388.99
502.532	8198.53
502.735	8378.75
502.938	8513.92
503.141	8403.33
503.344	8558.97
503.547	8630.65
503.75	8698.24
503.953	8894.84
504.156	9015.67
504.359	9077.11
504.562	9169.27
504.765	9288.05
504.968	9548.14
505.17	9595.25
505.373	9783.66
505.576	9953.64
505.779	10078.57
505.982	9892.2
506.185	10428.77
506.387	10559.84
506.59	10465.63
506.793	10899.8
506.996	10932.57
507.198	11549.01
507.401	11307.35
507.604	11753.8
507.807	11776.33
508.009	11856.2
508.212	12052.81
508.415	12331.33
508.617	12816.7
508.82	13001.02
509.022	12910.91
509.225	13689.14
509.428	13781.29
509.63	14043.43
509.833	14135.59
510.035	14713.12
510.238	14711.07
510.44	15194.39
510.643	15644.95
510.845	15898.89
511.048	15948.04
511.25	16400.65
511.453	16634.11
511.655	17361.14
511.858	17760.5
512.06	18094.32
512.262	18311.4
512.465	18575.59
512.667	19263.71
512.87	19546.33
513.072	19806.42
513.274	20531.4
513.477	20973.76
513.679	21219.52
513.881	21653.69
514.084	22356.14
514.286	22497.45
514.488	23201.95
514.69	24070.29
514.893	24459.4
515.095	24619.14
515.297	25196.67
515.499	25763.96
515.701	26161.26
515.904	26880.1
516.106	27525.21
516.308	28078.16
516.51	28377.17
516.712	28719.18
516.914	29863.99
517.116	30076.98
517.318	30822.44
517.52	31334.43
517.722	31877.15
517.925	32311.31
518.127	32999.43
518.329	33634.3
518.531	33759.23
518.733	34875.37
518.935	35442.66
519.136	35596.26
519.338	36290.52
519.54	36947.92
519.742	37326.79
519.944	37629.89
520.146	38768.56
520.348	39094.19
520.55	39288.74
520.752	40114.08
520.954	41019.28
521.155	40828.82
521.357	41305.99
521.559	41856.9
521.761	42805.11
521.963	42758
522.164	43020.14
522.366	43503.46
522.568	43839.33
522.77	44126.05
522.971	44552.02
523.173	44527.45
523.375	45217.61
523.576	45250.38
523.778	45692.74
523.98	46393.15
524.181	45983.55
524.383	46344
524.584	46755.64
524.786	46681.91
524.988	46614.33
525.189	46944.05
525.391	46972.72
525.592	47025.97
525.794	47435.56
525.995	47236.91
526.197	46833.46
526.398	46810.93
526.6	47040.31
526.801	47128.37
527.003	46694.2
527.204	46618.42
527.406	46767.93
527.607	46288.7
527.808	46583.61
528.01	45440.84
528.211	45526.86
528.412	45997.89
528.614	45592.39
528.815	45094.74
529.016	45776.71
529.218	44439.39
529.419	44029.79
529.62	44173.15
529.822	43450.22
530.023	43011.95
530.224	42874.74
530.425	42491.77
530.626	41271.18
530.828	41205.64
531.029	41703.3
531.23	40300.44
531.431	39896.99
531.632	40034.21
531.833	39667.62
532.035	39411.62
532.236	38297.53
532.437	38170.55
532.638	37576.64
532.839	37087.18
533.04	36827.09
533.241	36102.11
533.442	36292.57
533.643	35145.7
533.844	34990.06
534.045	34809.84
534.246	33544.19
534.447	33511.42
534.648	33034.25
534.849	32827.4
535.05	31977.5
535.251	31852.57
535.451	31619.1
535.652	30857.26
535.853	30750.76
536.054	30492.72
536.255	29777.98
536.456	29048.9
536.657	29456.45
536.857	28620.88
537.058	28244.05
537.259	28239.95
537.46	27598.94
537.66	27138.15
537.861	26929.25
538.062	26632.3
538.263	26226.8
538.463	26075.25
538.664	25585.79
538.865	25208.96
539.065	25129.09
539.266	24498.31
539.466	24610.95
539.667	23662.74
539.868	23861.4
540.068	23623.83
540.269	23152.8
540.469	22904.99
540.67	22565.03
540.87	22476.97
541.071	21762.23
541.271	22012.08
541.472	21528.76
541.672	21201.08
541.873	21170.36
542.073	20801.73
542.274	20728
542.474	20066.51
542.675	20472.01
542.875	20011.21
543.075	19826.9
543.276	19353.82
543.476	19525.85
543.676	18958.56
543.877	19044.57
544.077	18835.68
544.277	18516.2
544.478	18278.63
544.678	18157.8
544.878	17686.77
545.078	17950.96
545.279	17451.25
545.479	17275.13
545.679	16945.41
545.879	16832.77
546.079	16892.16
546.28	16318.73
546.48	16032.01
546.68	16025.87
546.88	15931.66
547.08	15866.13
547.28	15575.31
547.48	15284.5
547.68	15264.02
547.88	14979.36
548.081	14977.31
548.281	14567.71
548.481	14549.28
548.681	14373.16
548.881	14289.19
549.081	13838.64
549.28	13981.99
549.48	13662.51
549.68	13295.93
549.88	13121.85
550.08	12964.15
550.28	12785.98
550.48	12792.12
550.68	12620.1
550.88	12351.81
551.08	11977.03
551.279	12089.67
551.479	11841.87
551.679	11749.71
551.879	11413.84
552.079	11325.78
552.278	11024.73
552.478	10951
552.678	10795.36
552.878	10766.68
553.077	10365.28
553.277	10197.35
553.477	10307.94
553.676	10248.55
553.876	9947.5
554.076	9650.54
554.275	9419.12
554.475	9400.69
554.674	9468.27
554.874	9171.32
555.074	8937.85
555.273	8860.02
555.473	8696.19
555.672	8579.45
555.872	8538.49
556.071	8524.16
556.271	8307.07
556.47	8024.45
556.67	7870.86
556.869	7571.85
557.068	7618.96
557.268	7598.48
557.467	7367.06
557.667	7315.86
557.866	7098.77
558.065	7141.78
558.265	6863.26
558.464	6861.21
558.663	6746.52
558.863	6551.96
559.062	6527.39
559.261	6392.22
559.461	6302.11
559.66	6195.62
559.859	5994.92
560.058	5992.87
560.258	5994.92
560.457	5818.79
560.656	5702.06
560.855	5523.88
561.054	5622.19
561.253	5403.05
561.453	5487.02
561.652	5267.89
561.851	5224.88
562.05	5110.19
562.249	5005.75
562.448	4848.05
562.647	4682.17
562.846	4708.79
563.045	4831.67
563.244	4833.72
563.443	4813.24
563.642	4377.02
563.841	4680.12
564.04	4291.01
564.239	4387.26
564.438	4272.57
564.637	4305.34
564.836	4149.7
565.035	4073.92
565.234	4020.67
565.432	3985.86
565.631	3996.1
565.83	3897.8
566.029	3842.5
566.228	3731.91
566.427	3807.69
566.625	3621.32
566.824	3619.27
567.023	3559.88
567.222	3449.29
567.42	3430.86
567.619	3373.52
567.818	3310.03
568.016	3451.34
568.215	3240.4
568.414	3340.75
568.612	3205.58
568.811	3158.48
569.01	3002.83
569.208	2996.69
569.407	3062.23
569.605	2974.16
569.804	2800.09
570.002	2980.31
570.201	2634.2
570.4	2720.21
570.598	2746.84
570.797	2623.96
570.995	2630.1
571.193	2669.02
571.392	2658.78
571.59	2511.32
571.789	2460.12
571.987	2445.79
572.186	2492.89
572.384	2359.77
572.582	2410.97
572.781	2394.59
572.979	2245.09
573.177	2191.84
573.376	2290.14
573.574	2189.79
573.772	2136.54
573.971	1997.28
574.169	1970.66
574.367	2009.57
574.565	1970.66
574.763	1964.51
574.962	1882.6
575.16	1843.68
575.358	1866.21
575.556	1876.45
575.754	1894.88
575.952	1763.81
576.151	1784.29
576.349	1784.29
576.547	1556.97
576.745	1782.24
576.943	1675.75
577.141	1638.89
577.339	1667.56
577.537	1554.92
577.735	1640.93
577.933	1536.49
578.131	1450.47
578.329	1497.58
578.527	1374.7
578.725	1477.1
578.923	1341.93
579.121	1432.04
579.319	1214.96
579.516	1366.51
579.714	1526.25
579.912	1186.29
580.11	1241.58
580.308	1206.77
580.506	1153.52
580.704	1161.71
580.901	1133.04
581.099	1264.11
581.297	1180.14
581.495	1141.23
581.692	1143.28
581.89	1143.28
582.088	1008.11
582.285	1167.85
582.483	1001.97
582.681	1038.83
582.878	997.87
583.076	1047.02
583.274	1036.78
583.471	1128.94
583.669	1026.54
583.866	930.29
584.064	924.15
584.262	854.51
584.459	920.05
584.657	926.19
584.854	971.25
585.052	938.48
585.249	913.91
585.447	907.76
585.644	760.31
585.841	907.76
586.039	850.42
586.236	866.8
586.434	797.17
586.631	788.98
586.828	823.8
587.026	760.31
587.223	733.68
587.42	758.26
587.618	805.36
587.815	897.52
588.012	717.3
588.21	764.4
588.407	694.77
588.604	748.02
588.801	637.43
588.999	653.81
589.196	702.97
589.393	629.24
589.59	692.73
589.787	592.37
589.984	641.53
590.182	766.45
590.379	606.71
590.576	662.01
590.773	637.43
590.97	733.68
591.167	729.59
591.364	625.14
591.561	612.85
591.758	692.73
591.955	598.52
592.152	635.38
592.349	621.05
592.546	604.66
592.743	612.85
592.94	639.48
593.137	588.28
593.334	678.39
593.531	657.91
593.727	530.94
593.924	670.2
594.121	608.76
594.318	698.87
594.515	694.77
594.712	815.6
594.908	659.96
595.105	551.42
595.302	666.1
595.499	748.02
595.696	817.65
595.892	698.87
596.089	754.16
596.286	686.58
596.482	807.41
596.679	719.35
596.876	707.06
597.072	915.95
597.269	784.88
597.466	977.39
597.662	870.9
597.859	791.03
598.055	952.82
598.252	981.49
598.448	1004.02
598.645	1051.12
598.841	1171.95
599.038	1165.81
599.234	1149.42
599.431	1227.25
599.627	1260.01
599.824	1407.47
600.02	1270.25
600.217	1405.42
600.413	1421.8
600.609	1513.96
600.806	1882.6
601.002	1698.28
601.198	1587.69
601.395	1837.54
601.591	1749.48
601.787	1931.75
601.984	1946.08
602.18	2064.86
602.376	2101.73
602.572	2279.9
602.769	2363.87
602.965	2281.95
603.161	2558.42
603.357	2494.94
603.553	2580.95
603.75	2652.63
603.946	2767.32
604.142	2959.83
604.338	3004.88
604.534	3127.76
604.73	3148.24
604.926	3090.9
605.122	3512.78
605.318	3422.67
605.514	3684.81
605.71	3703.24
605.906	3850.69
606.102	3834.31
606.298	4174.27
606.494	4276.67
606.69	4295.1
606.886	4405.69
607.082	4565.43
607.278	4766.14
607.474	4907.45
607.67	5126.58
607.866	5079.47
608.062	5427.63
608.257	5372.33
608.453	5527.98
608.649	5837.22
608.845	5853.61
609.041	6095.27
609.236	6205.86
609.432	6318.5
609.628	6560.16
609.824	6740.38
610.019	6861.21
610.215	7174.55
610.411	7276.94
610.606	7696.78
610.802	7528.85
610.998	7932.29
611.193	8204.67
611.389	8284.55
611.584	8515.97
611.78	8618.36
611.976	8837.5
612.171	9154.93
612.367	9345.39
612.562	9617.77
612.758	9830.76
612.953	9953.64
613.149	10426.72
613.344	10680.67
613.539	10879.32
613.735	11407.7
613.93	11573.58
614.126	11794.76
614.321	12345.67
614.517	12425.54
614.712	12785.98
614.907	13037.88
615.103	13553.97
615.298	13707.57
615.493	14018.86
615.688	14491.94
615.884	15016.22
616.079	15014.17
616.274	15728.91
616.47	16005.39
616.665	16333.06
616.86	16894.21
617.055	16947.45
617.25	17780.98
617.445	18174.19
617.641	18415.85
617.836	18884.83
618.031	19161.31
618.226	20084.94
618.421	20324.55
618.616	21242.04
618.811	21188.8
619.006	21784.76
619.201	22104.24
619.396	22870.18
619.591	22909.09
619.786	23908.5
619.981	24262.8
620.176	24977.54
620.371	25239.68
620.566	25831.54
620.761	26300.53
620.956	27381.85
621.151	27408.48
621.346	28055.64
621.541	28192.85
621.735	29151.3
621.93	29509.69
622.125	29845.56
622.32	30031.93
622.515	30847.02
622.709	31576.09
622.904	32235.54
623.099	32395.28
623.294	33777.66
623.488	33548.29
623.683	34779.12
623.878	34615.28
624.072	35620.83
624.267	36216.79
624.462	36687.82
624.656	36872.14
624.851	38008.76
625.046	38430.65
625.24	38748.08
625.435	39356.33
625.629	40046.49
625.824	40222.62
626.018	40898.45
626.213	40495
626.407	41680.77
626.602	41086.86
626.796	42848.11
626.991	42729.33
627.185	43202.41
627.38	43423.59
627.574	43636.58
627.768	43814.76
627.963	44132.19
628.157	44412.76
628.352	44697.43
628.546	44359.52
628.74	44539.74
628.935	44441.43
629.129	44679
629.323	43687.78
629.517	43863.91
629.712	43962.21
629.906	43474.79
630.1	42764.15
630.294	43048.82
630.489	42127.23
630.683	42055.55
630.877	41166.73
631.071	40501.14
631.265	39956.38
631.459	39190.44
631.653	38137.79
631.848	37552.07
632.042	36405.2
632.236	36378.58
632.43	34725.87
632.624	34260.98
632.818	32917.51
633.012	32178.2
633.206	31111.21
633.4	30261.3
633.594	28966.98
633.788	28598.35
633.982	27271.26
634.176	26484.84
634.369	25352.32
634.563	24027.28
634.757	23212.19
634.951	22628.52
635.145	22057.14
635.339	21135.55
635.533	20111.57
635.726	19423.45
635.92	18295.02
636.114	17807.6
636.308	16945.41
636.501	16359.69
636.695	15759.63
636.889	15096.09
637.083	14555.43
637.276	13713.71
637.47	13162.81
637.664	12540.22
637.857	12073.29
638.051	11970.89
638.244	11049.3
638.438	10901.85
638.632	10432.86
638.825	9830.76
639.019	9562.48
639.212	9097.59
639.406	9017.72
639.599	8448.38
639.793	8190.34
639.986	7631.24
640.18	7543.18
640.373	7256.47
640.567	6951.32
640.76	6650.27
640.954	6468
641.147	6017.44
641.34	5953.96
641.534	5869.99
641.727	5683.63
641.92	5337.52
642.114	5159.35
642.307	4886.97
642.5	4704.7
642.694	4487.61
642.887	4256.19
643.08	4188.61
643.273	4221.38
643.467	3822.02
643.66	3725.77
643.853	3678.66
644.046	3414.48
644.239	3385.8
644.432	3099.09
644.626	2996.69
644.819	2980.31
645.012	2857.43
645.205	2781.65
645.398	2750.93
645.591	2490.84
645.784	2413.02
645.977	2388.44
646.17	2140.64
646.363	2251.23
646.556	2066.91
646.749	2040.29
646.942	1829.35
647.135	1878.5
647.328	1755.62
647.521	1692.13
647.714	1698.28
647.907	1563.11
648.099	1509.86
648.292	1499.63
648.485	1399.27
648.678	1282.54
648.871	1317.36
649.064	1237.49
649.256	1165.81
649.449	1133.04
649.642	1133.04
649.835	950.77
650.027	1104.37
650.22	1143.28
650.413	1032.69
650.605	993.78
650.798	883.19
650.991	784.88
651.183	850.42
651.376	748.02
651.568	920.05
651.761	748.02
651.954	772.6
652.146	711.16
652.339	725.49
652.531	760.31
652.724	580.09
652.916	588.28
653.109	580.09
653.301	637.43
653.494	567.8
653.686	594.42
653.879	637.43
654.071	555.51
654.263	424.44
654.456	498.17
654.648	485.88
654.84	485.88
655.033	416.25
655.225	444.92
655.417	395.77
655.61	569.85
655.802	489.98
655.994	514.55
656.186	350.71
656.379	424.44
656.571	309.76
656.763	414.2
656.955	326.14
657.148	406.01
657.34	416.25
657.532	354.81
657.724	268.8
657.916	299.52
658.108	317.95
658.3	299.52
658.492	338.43
658.684	229.88
658.876	338.43
659.068	291.32
659.26	64
659.452	188.93
659.644	289.28
659.836	303.61
660.028	250.36
660.22	246.27
660.412	307.71
660.604	168.45
660.796	297.47
660.988	334.33
661.18	260.6
661.372	276.99
661.563	227.84
661.755	268.8
661.947	119.29
662.139	166.4
662.331	199.16
662.522	143.87
662.714	158.21
662.906	172.54
663.097	195.07
663.289	143.87
663.481	59.9
663.673	135.68
663.864	209.4
664.056	209.4
664.247	104.96
664.439	209.4
664.631	137.73
664.822	201.21
665.014	139.77
665.205	203.26
665.397	139.77
665.588	145.92
665.78	203.26
665.971	141.82
666.163	64
666.354	145.92
666.546	76.29
666.737	119.29
666.929	102.91
667.12	39.42
667.311	150.01
667.503	178.69
667.694	207.36
667.885	178.69
668.077	133.63
668.268	37.38
668.459	248.32
668.651	104.96
668.842	113.15
669.033	27.14
669.224	8.7
669.416	293.37
669.607	84.48
669.798	152.06
669.989	207.36
670.18	109.05
670.371	256.51
670.563	59.9
670.754	225.79
670.945	152.06
671.136	242.17
671.327	80.38
671.518	109.05
671.709	248.32
671.9	150.01
672.091	213.5
672.282	98.81
672.473	182.78
672.664	64
672.855	123.39
673.046	129.53
673.237	203.26
673.428	35.33
673.619	141.82
673.809	133.63
674	225.79
674.191	207.36
674.382	135.68
674.573	158.21
674.764	160.25
674.954	168.45
675.145	104.96
675.336	156.16
675.527	96.77
675.717	129.53
675.908	137.73
676.099	133.63
676.289	166.4
676.48	57.86
676.671	250.36
676.861	104.96
677.052	219.64
677.243	164.35
677.433	121.34
677.624	168.45
677.814	219.64
678.005	137.73
678.195	276.99
678.386	109.05
678.576	154.11
678.767	72.19
678.957	127.49
679.148	268.8
679.338	330.23
679.529	199.16
679.719	127.49
679.909	184.83
680.1	266.75
680.29	211.45
680.481	94.72
680.671	268.8
680.861	195.07
681.052	276.99
681.242	246.27
681.432	246.27
681.622	182.78
681.813	164.35
682.003	172.54
682.193	119.29
682.383	184.83
682.573	231.93
682.764	154.11
682.954	215.55
683.144	276.99
683.334	186.88
683.524	154.11
683.714	279.04
683.904	258.56
684.094	231.93
684.284	236.03
684.474	293.37
684.664	197.12
684.854	215.55
685.044	152.06
685.234	252.41
685.424	137.73
685.614	221.69
685.804	356.86
685.994	272.89
686.184	287.23
686.374	272.89
686.564	213.5
686.753	260.6
686.943	143.87
687.133	176.64
687.323	260.6
687.513	276.99
687.702	260.6
687.892	199.16
688.082	145.92
688.272	281.08
688.461	182.78
688.651	324.09
688.841	354.81
689.03	203.26
689.22	211.45
689.41	291.32
689.599	313.85
689.789	211.45
689.979	317.95
690.168	244.22
690.358	303.61
690.547	211.45
690.737	231.93
690.926	117.25
691.116	375.29
691.305	276.99
691.495	227.84
691.684	209.4
691.874	123.39
692.063	193.02
692.252	309.76
692.442	215.55
692.631	225.79
692.82	170.49
693.01	215.55
693.199	184.83
693.388	260.6
693.578	256.51
693.767	358.91
693.956	301.56
694.146	264.7
694.335	240.12
694.524	199.16
694.713	324.09
694.902	227.84
695.092	162.3
695.281	274.94
695.47	219.64
695.659	203.26
695.848	205.31
696.037	285.18
696.226	272.89
696.415	258.56
696.604	315.9
696.793	217.6
696.982	250.36
697.171	363
697.36	236.03
697.549	145.92
697.738	104.96
697.927	236.03
698.116	174.59
698.305	238.08
698.494	139.77
698.683	231.93
698.872	342.52
699.061	176.64
699.25	215.55
699.438	227.84
699.627	170.49
699.816	340.47
700.005	182.78
700.193	213.5
700.382	360.95
700.571	207.36
700.76	252.41
700.948	203.26
701.137	227.84
701.326	330.23
701.514	203.26
701.703	258.56
701.892	197.12
702.08	422.39
702.269	203.26
702.457	186.88
702.646	209.4
702.834	199.16
703.023	201.21
703.212	190.97
703.4	211.45
703.589	117.25
703.777	125.44
703.965	180.73
704.154	225.79
704.342	270.84
704.531	193.02
704.719	244.22
704.907	289.28
705.096	184.83
705.284	154.11
705.472	256.51
705.661	279.04
705.849	250.36
706.037	279.04
706.226	203.26
706.414	215.55
706.602	209.4
706.79	260.6
706.979	236.03
707.167	227.84
707.355	154.11
707.543	227.84
707.731	178.69
707.919	125.44
708.107	182.78
708.296	215.55
708.484	80.38
708.672	270.84
708.86	227.84
709.048	197.12
709.236	252.41
709.424	225.79
709.612	242.17
709.8	109.05
709.988	209.4
710.176	223.74
710.364	307.71
710.551	209.4
710.739	186.88
710.927	236.03
711.115	154.11
711.303	240.12
711.491	322.04
711.679	131.58
711.866	219.64
712.054	180.73
712.242	250.36
712.43	285.18
712.617	233.98
712.805	227.84
712.993	219.64
713.181	80.38
713.368	334.33
713.556	193.02
713.744	152.06
713.931	379.39
714.119	223.74
714.306	184.83
714.494	260.6
714.682	211.45
714.869	178.69
715.057	231.93
715.244	178.69
715.432	276.99
715.619	195.07
715.807	209.4
715.994	217.6
716.182	219.64
716.369	268.8
716.556	262.65
716.744	182.78
716.931	281.08
717.119	225.79
717.306	248.32
717.493	276.99
717.681	258.56
717.868	158.21
718.055	264.7
718.242	143.87
718.43	289.28
718.617	410.11
718.804	158.21
718.991	274.94
719.179	231.93
719.366	315.9
719.553	287.23
719.74	236.03
719.927	170.49
720.114	317.95
720.301	188.93
720.488	158.21
720.676	211.45
720.863	272.89
721.05	356.86
721.237	276.99
721.424	219.64
721.611	248.32
721.798	170.49
721.985	240.12
722.172	209.4
722.358	227.84
722.545	266.75
722.732	270.84
722.919	334.33
723.106	301.56
723.293	258.56
723.48	295.42
723.667	295.42
723.853	270.84
724.04	311.8
724.227	313.85
724.414	250.36
724.6	285.18
724.787	348.67
724.974	344.57
725.161	338.43
725.347	281.08
725.534	297.47
725.72	379.39
725.907	354.81
726.094	272.89
726.28	283.13
726.467	229.88
726.653	233.98
726.84	367.1
727.027	383.48
727.213	254.46
727.4	297.47
727.586	365.05
727.773	313.85
727.959	250.36
728.145	225.79
728.332	266.75
728.518	244.22
728.705	274.94
728.891	324.09
729.077	326.14
729.264	197.12
729.45	293.37
729.636	313.85
729.823	297.47
730.009	317.95
730.195	348.67
730.382	334.33
730.568	195.07
730.754	285.18
730.94	356.86
731.126	270.84
731.313	317.95
731.499	326.14
731.685	301.56
731.871	307.71
732.057	363
732.243	348.67
732.429	350.71
732.615	434.68
732.801	348.67
732.987	291.32
733.173	268.8
733.359	209.4
733.545	264.7
733.731	344.57
733.917	416.25
734.103	371.19
734.289	367.1
734.475	309.76
734.661	498.17
734.847	397.82
735.033	375.29
735.219	391.67
735.404	295.42
735.59	281.08
735.776	332.28
735.962	383.48
736.148	375.29
736.333	387.58
736.519	391.67
736.705	330.23
736.89	332.28
737.076	383.48
737.262	256.51
737.447	242.17
737.633	326.14
737.819	227.84
738.004	397.82
738.19	385.53
738.375	446.97
738.561	350.71
738.747	395.77
738.932	285.18
739.118	481.78
739.303	408.06
739.489	399.87
739.674	322.04
739.859	229.88
740.045	346.62
740.23	381.43
740.416	176.64
740.601	350.71
740.786	252.41
740.972	289.28
741.157	324.09
741.342	248.32
741.528	227.84
741.713	383.48
741.898	225.79
742.084	385.53
742.269	326.14
742.454	334.33
742.639	414.2
742.824	399.87
743.01	453.11
743.195	393.72
743.38	287.23
743.565	305.66
743.75	395.77
743.935	395.77
744.12	387.58
744.305	307.71
744.49	281.08
744.675	371.19
744.86	238.08
745.045	358.91
745.23	387.58
745.415	305.66
745.6	463.35
745.785	268.8
745.97	354.81
746.155	377.34
746.34	309.76
746.525	330.23
746.71	406.01
746.895	301.56
747.079	223.74
747.264	274.94
747.449	406.01
747.634	395.77
747.819	285.18
748.003	279.04
748.188	203.26
748.373	403.96
748.557	375.29
748.742	215.55
748.927	324.09
749.111	223.74
749.296	317.95
749.481	330.23
749.665	272.89
749.85	227.84
750.034	291.32
750.219	258.56
750.404	279.04
750.588	195.07
750.773	291.32
750.957	274.94
751.141	190.97
751.326	274.94
751.51	158.21
751.695	207.36
751.879	221.69
752.064	395.77
752.248	264.7
752.432	295.42
752.617	334.33
752.801	299.52
752.985	322.04
753.17	360.95
753.354	233.98
753.538	369.15
753.722	203.26
753.907	168.45
754.091	227.84
754.275	264.7
754.459	145.92
754.643	297.47
754.828	256.51
755.012	266.75
755.196	168.45
755.38	156.16
755.564	170.49
755.748	209.4
755.932	248.32
756.116	258.56
756.3	233.98
756.484	170.49
756.668	211.45
756.852	90.62
757.036	199.16
757.22	217.6
757.404	143.87
757.588	238.08
757.772	297.47
757.956	244.22
758.14	299.52
758.323	205.31
758.507	274.94
758.691	49.66
758.875	242.17
759.059	250.36
759.242	266.75
759.426	258.56
759.61	195.07
759.794	154.11
759.977	299.52
760.161	363
760.345	250.36
760.528	227.84
760.712	164.35
760.895	256.51
761.079	233.98
761.263	86.53
761.446	117.25
761.63	201.21
761.813	283.13
761.997	82.43
762.18	150.01
762.364	203.26
762.547	111.1
762.731	137.73
762.914	180.73
763.098	166.4
763.281	164.35
763.464	94.72
763.648	129.53
763.831	88.57
764.015	133.63
764.198	184.83
764.381	141.82
764.564	143.87
764.748	107.01
764.931	205.31
765.114	137.73
765.297	244.22
765.481	111.1
765.664	162.3
765.847	86.53
766.03	203.26
766.213	47.62
766.397	168.45
766.58	-22.02
766.763	166.4
766.946	86.53
767.129	78.33
767.312	78.33
767.495	113.15
767.678	96.77
767.861	129.53
768.044	104.96
768.227	143.87
768.41	72.19
768.593	88.57
768.776	147.97
768.959	41.47
769.142	174.59
769.324	111.1
769.507	137.73
769.69	117.25
769.873	92.67
770.056	264.7
770.239	86.53
770.421	195.07
770.604	74.24
770.787	94.72
770.97	152.06
771.152	100.86
771.335	166.4
771.518	45.57
771.7	233.98
771.883	205.31
772.066	29.18
772.248	53.76
772.431	182.78
772.613	119.29
772.796	104.96
772.978	162.3
773.161	244.22
773.343	78.33
773.526	86.53
773.708	61.95
773.891	64
774.073	113.15
774.256	39.42
774.438	174.59
774.621	37.38
774.803	162.3
774.985	55.81
775.168	152.06
775.35	129.53
775.532	104.96
775.715	137.73
775.897	133.63
776.079	2.56
776.261	141.82
776.444	-28.16
776.626	178.69
776.808	-13.82
776.99	-15.87
777.173	86.53
777.355	37.38
777.537	59.9
777.719	64
777.901	12.8
778.083	18.94
778.265	2.56
778.447	193.02
778.629	94.72
778.811	88.57
778.993	139.77
779.175	74.24
779.357	141.82
779.539	53.76
779.721	137.73
779.903	127.49
780.085	68.09
780.267	80.38
780.449	37.38
780.631	117.25
780.812	166.4
780.994	119.29
781.176	39.42
781.358	35.33
781.54	41.47
781.721	135.68
781.903	131.58
782.085	53.76
782.267	104.96
782.448	-1.54
782.63	55.81
782.812	12.8
782.993	133.63
783.175	102.91
783.357	27.14
783.538	61.95
783.72	-11.78
783.901	18.94
784.083	94.72
784.264	-1.54
784.446	-87.55
784.627	8.7
784.809	115.2
784.99	-60.93
785.172	59.9
785.353	-1.54
785.535	61.95
785.716	23.04
785.897	-1.54
786.079	51.71
786.26	84.48
786.441	-5.63
786.623	12.8
786.804	-19.97
786.985	-22.02
787.167	100.86
787.348	59.9
787.529	29.18
787.71	190.97
787.891	96.77
788.073	-28.16
788.254	-19.97
788.435	53.76
788.616	12.8
788.797	10.75
788.978	84.48
789.159	-44.54
789.34	72.19
789.522	72.19
789.703	41.47
789.884	66.05
790.065	-24.06
790.246	137.73
790.427	-38.4
790.607	121.34
790.788	-15.87
790.969	-46.59
791.15	88.57
791.331	-67.07
791.512	-17.92
791.693	-17.92
791.874	0.51
792.054	156.16
792.235	109.05
792.416	23.04
792.597	-3.58
792.778	94.72
792.958	86.53
793.139	82.43
793.32	39.42
793.5	-44.54
793.681	68.09
793.862	31.23
794.042	-15.87
794.223	-140.8
794.404	12.8
794.584	-15.87
794.765	-5.63
794.945	23.04
795.126	96.77
795.306	61.95
795.487	-28.16
795.667	-91.65
795.848	55.81
796.028	-26.11
796.209	88.57
796.389	43.52
796.57	-22.02
796.75	-15.87
796.93	-1.54
797.111	-112.13
797.291	0.51
797.471	-13.82
797.652	4.61
797.832	-15.87
798.012	90.62
798.192	-34.3
798.373	-15.87
798.553	14.85
798.733	41.47
798.913	23.04
799.093	-77.31
799.274	27.14
799.454	29.18
799.634	82.43
799.814	68.09
799.994	53.76
800.174	70.14
800.354	-54.78
800.534	-93.69
800.714	31.23
800.894	-46.59
801.074	-75.26
801.254	-46.59
801.434	72.19
801.614	-60.93
801.794	-58.88
801.974	1534.44
802.154	-9.73
802.334	29.18
802.514	-62.98
802.693	-34.3
802.873	86.53
803.053	170.49
803.233	18.94
803.413	18.94
803.592	-3.58
803.772	-26.11
803.952	45.57
804.131	-67.07
804.311	10.75
804.491	31.23
804.67	-30.21
804.85	-9.73
805.03	-24.06
805.209	-34.3
805.389	31.23
805.568	-69.12
805.748	-13.82
805.928	-28.16
806.107	45.57
806.287	41.47
806.466	70.14
806.646	-15.87
806.825	29.18
807.004	-44.54
807.184	72.19
807.363	35.33
807.543	41.47
807.722	-89.6
807.901	76.29
808.081	55.81
808.26	-95.74
808.439	-22.02
808.619	-26.11
808.798	29.18
808.977	33.28
809.156	31.23
809.336	25.09
809.515	55.81
809.694	-1.54
809.873	-67.07
810.052	47.62
810.231	88.57
810.411	14.85
810.59	88.57
810.769	31.23
810.948	64
811.127	-56.83
811.306	41.47
811.485	-67.07
811.664	100.86
811.843	-7.68
812.022	-30.21
812.201	39.42
812.38	-15.87
812.559	-26.11
812.737	76.29
812.916	-105.98
813.095	-101.89
813.274	12.8
813.453	-3.58
813.632	10.75
813.811	-34.3
813.989	-103.93
814.168	64
814.347	-62.98
814.526	55.81
814.704	53.76
814.883	14.85
815.062	-42.5
815.24	80.38
815.419	-69.12
815.598	-79.36
815.776	-128.51
815.955	-26.11
816.133	-101.89
816.312	-71.17
816.49	-52.74
816.669	-48.64
816.847	-30.21
817.026	68.09
817.204	23.04
817.383	-44.54
817.561	-60.93
817.74	94.72
817.918	59.9
818.097	37.38
818.275	-3.58
818.453	55.81
818.632	-46.59
818.81	-9.73
818.988	-9.73
819.167	-56.83
819.345	31.23
819.523	-1.54
819.701	14.85
819.879	-9.73
820.058	39.42
820.236	14.85
820.414	-50.69
820.592	25.09
820.77	47.62
820.948	-48.64
821.127	-46.59
821.305	-11.78
821.483	-120.32
821.661	43.52
821.839	-11.78
822.017	-5.63
822.195	-69.12
822.373	61.95
822.551	31.23
822.729	51.71
822.907	-38.4
823.085	12.8
823.262	-50.69
823.44	-67.07
823.618	-34.3
823.796	76.29
823.974	-58.88
824.152	-13.82
824.329	4.61
824.507	-28.16
824.685	16.9
824.863	14.85
825.04	64
825.218	23.04
825.396	-30.21
825.574	-69.12
825.751	-26.11
825.929	43.52
826.107	-60.93
826.284	2.56
826.462	-77.31
826.639	-75.26
826.817	-34.3
826.994	-11.78
827.172	-71.17
827.349	80.38
827.527	70.14
827.704	-28.16
827.882	14.85
828.059	-46.59
828.237	-99.84
828.414	27.14
828.591	-173.57
828.769	25.09
828.946	-56.83
829.124	6.66
829.301	100.86
829.478	18.94
829.655	20.99
829.833	53.76
830.01	-81.41
830.187	70.14
830.364	-85.5
830.542	-85.5
830.719	70.14
830.896	12.8
831.073	-15.87
831.25	-30.21
831.427	18.94
831.604	-46.59
831.782	8.7
831.959	18.94
832.136	-48.64
832.313	-22.02
832.49	-46.59
832.667	10.75
832.844	-42.5
833.021	64
833.198	27.14
833.374	-46.59
833.551	-9.73
833.728	-87.55
833.905	80.38
834.082	-177.66
834.259	-30.21
834.436	55.81
834.612	-44.54
834.789	-11.78
834.966	-95.74
835.143	-9.73
835.319	-83.45
835.496	59.9
835.673	0.51
835.85	33.28
836.026	-62.98
836.203	37.38
836.38	29.18
836.556	-3.58
836.733	-56.83
836.909	61.95
837.086	-67.07
837.262	-73.21
837.439	-71.17
837.616	-58.88
837.792	57.86
837.968	80.38
838.145	-101.89
838.321	-24.06
838.498	39.42
838.674	4.61
838.851	2.56
839.027	20.99
839.203	61.95
839.38	4.61
839.556	-62.98
839.732	59.9
839.909	-89.6
840.085	76.29
840.261	-38.4
840.437	-13.82
840.614	-56.83
840.79	74.24
840.966	-9.73
841.142	47.62
841.318	-110.08
841.494	12.8
841.671	4.61
841.847	-77.31
842.023	-83.45
842.199	20.99
842.375	45.57
842.551	-148.99
842.727	-83.45
842.903	72.19
843.079	-91.65
843.255	10.75
843.431	-1.54
843.607	84.48
843.783	-136.7
843.959	61.95
844.134	-17.92
844.31	80.38
844.486	-34.3
844.662	-50.69
844.838	39.42
845.013	-38.4
845.189	80.38
845.365	-5.63
845.541	-32.26
845.716	16.9
845.892	-52.74
846.068	-97.79
846.244	-91.65
846.419	-36.35
846.595	-50.69
846.77	-50.69
846.946	109.05
847.122	-58.88
847.297	-105.98
847.473	90.62
847.648	-140.8
847.824	-32.26
847.999	-136.7
848.175	0.51
848.35	-28.16
848.526	35.33
848.701	-17.92
848.876	64
849.052	55.81
849.227	-19.97
849.403	-24.06
849.578	-38.4
849.753	6.66
849.929	-24.06
850.104	-71.17
850.279	2.56
850.454	-9.73
850.63	14.85
850.805	10.75
850.98	31.23
851.155	-99.84
851.33	-22.02
851.505	-42.5
851.681	96.77
851.856	-44.54
852.031	55.81
852.206	-13.82
852.381	-42.5
852.556	-5.63
852.731	64
852.906	-34.3
853.081	2.56
853.256	111.1
853.431	23.04
853.606	-44.54
853.781	-46.59
853.956	-159.23
854.131	6.66
854.305	-83.45
854.48	-30.21
854.655	-85.5
854.83	-79.36
855.005	-60.93
855.18	-50.69
855.354	-103.93
855.529	23.04
855.704	-69.12
855.879	61.95
856.053	-69.12
856.228	-24.06
856.403	-87.55
856.577	14.85
856.752	-58.88
856.926	20.99
857.101	-52.74
857.276	-97.79
857.45	35.33
857.625	-17.92
857.799	-13.82
857.974	-83.45
858.148	-58.88
858.323	-22.02
858.497	-44.54
858.672	-132.61
858.846	-108.03
859.02	10.75
859.195	-128.51
859.369	-48.64
859.543	2.56
859.718	39.42
859.892	37.38
860.066	-26.11
860.241	-22.02
860.415	27.14
860.589	-3.58
860.763	-22.02
860.938	-77.31
861.112	37.38
861.286	-69.12
861.46	-26.11
861.634	-1.54
861.808	43.52
861.982	-40.45
862.157	-75.26
862.331	-36.35
862.505	-69.12
862.679	-136.7
862.853	-3.58
863.027	-50.69
863.201	94.72
863.375	-34.3
863.549	-60.93
863.722	-36.35
863.896	72.19
864.07	-26.11
864.244	18.94
864.418	0.51
864.592	-46.59
864.766	-32.26
864.939	-85.5
865.113	-26.11
865.287	-7.68
865.461	-36.35
865.634	-9.73
865.808	-36.35
865.982	-56.83
866.156	-81.41
866.329	-95.74
866.503	49.66
866.676	94.72
866.85	4.61
867.024	-42.5
867.197	31.23
867.371	4.61
867.544	18.94
867.718	-83.45
867.891	88.57
868.065	-52.74
868.238	20.99
868.412	53.76
868.585	-60.93
868.759	-83.45
868.932	-62.98
869.105	-85.5
869.279	-34.3
869.452	-140.8
869.625	-19.97
869.799	-38.4
869.972	-54.78
870.145	-95.74
870.319	135.68
870.492	37.38
870.665	-3.58
870.838	-60.93
871.011	-99.84
871.185	-89.6
871.358	-91.65
871.531	23.04
871.704	-58.88
871.877	31.23
872.05	-24.06
872.223	-77.31
872.396	-5.63
872.569	-1.54
872.742	-67.07
872.915	14.85
873.088	-36.35
873.261	-79.36
873.434	37.38
873.607	2.56
873.78	96.77
873.953	4.61
874.126	-13.82
874.299	4.61
874.471	-79.36
874.644	-36.35
874.817	31.23
874.99	59.9
875.163	37.38
875.335	35.33
875.508	33.28
875.681	-69.12
875.853	-50.69
876.026	-112.13
876.199	70.14
876.371	-67.07
876.544	-9.73
876.717	-67.07
876.889	-32.26
877.062	-28.16
877.234	-58.88
877.407	-42.5
877.579	-118.27
877.752	-30.21
877.924	-52.74
878.097	-15.87
878.269	27.14
878.442	2.56
878.614	12.8
878.786	25.09
878.959	-62.98
879.131	23.04
879.303	-105.98
879.476	-77.31
879.648	-1.54
879.82	-85.5
879.993	-46.59
880.165	-62.98
880.337	-67.07
880.509	4.61
880.681	-101.89
880.854	20.99
881.026	18.94
881.198	104.96
881.37	-56.83
881.542	-69.12
881.714	-52.74
881.886	-3.58
882.058	49.66
882.23	-52.74
882.402	-60.93
882.574	-3.58
882.746	41.47
882.918	96.77
883.09	-3.58
883.262	-34.3
883.434	23.04
883.606	-95.74
883.778	31.23
883.95	84.48
884.122	-24.06
884.293	96.77
884.465	27.14
884.637	8.7
884.809	-26.11
884.98	4.61
885.152	43.52
885.324	-30.21
885.496	-38.4
885.667	-5.63
885.839	-50.69
886.011	123.39
886.182	18.94
886.354	51.71
886.525	-17.92
886.697	-1.54
886.869	-165.37
887.04	-9.73
887.212	49.66
887.383	84.48
887.555	20.99
887.726	6.66
887.897	4.61
888.069	0.51
888.24	80.38
888.412	-26.11
888.583	-1.54
888.754	-1.54
888.926	-71.17
889.097	-71.17
889.268	-163.33
889.44	-34.3
889.611	-130.56
889.782	-50.69
889.953	-116.22
890.125	0.51
890.296	-52.74
890.467	-60.93
890.638	-95.74
890.809	-34.3
890.98	-32.26
891.151	6.66
891.323	8.7
891.494	-36.35
891.665	-44.54
891.836	-44.54
892.007	14.85
892.178	-34.3
892.349	-56.83
892.52	-54.78
892.691	76.29
892.862	27.14
893.032	-22.02
893.203	-34.3
893.374	-11.78
893.545	-1.54
893.716	-58.88
893.887	78.33
894.057	-81.41
894.228	-44.54
894.399	-30.21
894.57	49.66
894.74	-69.12
894.911	-30.21
895.082	-60.93
895.253	-3.58
895.423	109.05
895.594	160.25
895.764	-62.98
895.935	-32.26
896.106	16.9
896.276	-148.99
896.447	-1.54
896.617	-52.74
896.788	-75.26
896.958	-108.03
897.129	-7.68
897.299	-42.5
897.47	53.76
897.64	-3.58
897.81	31.23
897.981	27.14
898.151	-46.59
898.322	-32.26
898.492	55.81
898.662	-52.74
898.832	-58.88
899.003	-1.54
899.173	29.18
899.343	-83.45
899.513	-81.41
