Data from USB4F104151__4__10-22-16-555.txt Node

Date: Wed Feb 26 10:22:16 EST 2025
User: louis
Spectrometer: USB4F10415
Trigger mode: 4
Integration Time (sec): 1.000000E-1
Scans to average: 1
Electric dark correction enabled: true
Nonlinearity correction enabled: false
Boxcar width: 0
XAxis mode: Wavelengths
Number of Pixels in Spectrum: 3648
>>>>>Begin Spectral Data<<<<<
178.204	-447.31
178.424	-447.31
178.644	-447.31
178.864	-414.54
179.084	-414.54
179.304	48.3
179.524	3.24
179.744	-41.81
179.964	91.31
180.184	-27.48
180.404	-21.33
180.624	17.58
180.844	7.34
181.064	-29.52
181.283	13.48
181.503	-105.3
181.723	44.2
181.943	-115.54
182.163	152.74
182.383	-29.52
182.602	46.25
182.822	89.26
183.042	3.24
183.262	66.73
183.482	-4.95
183.701	66.73
183.921	107.69
184.141	31.91
184.361	3.24
184.58	-23.38
184.8	27.82
185.02	-62.29
185.239	158.89
185.459	60.59
185.679	122.02
185.898	-54.1
186.118	68.78
186.338	72.87
186.557	101.55
186.777	3.24
186.997	56.49
187.216	44.2
187.436	203.94
187.655	27.82
187.875	162.98
188.095	13.48
188.314	181.42
188.534	138.41
188.753	-97.11
188.973	185.51
189.192	117.93
189.412	46.25
189.631	44.2
189.851	105.64
190.07	150.7
190.29	36.01
190.509	-2.9
190.729	15.53
190.948	91.31
191.168	240.81
191.387	115.88
191.607	9.39
191.826	105.64
192.045	-47.96
192.265	15.53
192.484	124.07
192.704	25.77
192.923	-41.81
193.142	111.78
193.362	140.46
193.581	179.37
193.8	152.74
194.02	140.46
194.239	1.19
194.458	138.41
194.678	27.82
194.897	3.24
195.116	64.68
195.335	76.97
195.555	87.21
195.774	33.96
195.993	93.35
196.212	-4.95
196.432	23.72
196.651	19.63
196.87	3.24
197.089	263.33
197.308	113.83
197.528	-2.9
197.747	-9.05
197.966	89.26
198.185	68.78
198.404	60.59
198.623	79.02
198.842	64.68
199.062	152.74
199.281	140.46
199.5	33.96
199.719	111.78
199.938	142.5
200.157	105.64
200.376	93.35
200.595	58.54
200.814	19.63
201.033	27.82
201.252	162.98
201.471	-2.9
201.69	109.74
201.909	31.91
202.128	74.92
202.347	91.31
202.566	109.74
202.785	-47.96
203.004	3.24
203.223	281.77
203.442	101.55
203.661	-33.62
203.879	150.7
204.098	228.52
204.317	-35.67
204.536	36.01
204.755	126.12
204.974	117.93
205.193	44.2
205.411	140.46
205.63	76.97
205.849	79.02
206.068	31.91
206.287	25.77
206.505	124.07
206.724	36.01
206.943	-82.77
207.162	-21.33
207.381	23.72
207.599	-43.86
207.818	74.92
208.037	-64.34
208.255	44.2
208.474	89.26
208.693	95.4
208.911	38.06
209.13	126.12
209.349	95.4
209.567	70.83
209.786	56.49
210.005	113.83
210.223	-4.95
210.442	-103.25
210.661	115.88
210.879	70.83
211.098	36.01
211.316	-62.29
211.535	124.07
211.753	105.64
211.972	99.5
212.191	27.82
212.409	21.67
212.628	113.83
212.846	-62.29
213.065	142.5
213.283	50.35
213.502	64.68
213.72	48.3
213.938	40.11
214.157	56.49
214.375	50.35
214.594	87.21
214.812	105.64
215.031	70.83
215.249	-54.1
215.467	66.73
215.686	83.11
215.904	62.63
216.122	91.31
216.341	95.4
216.559	15.53
216.778	113.83
216.996	179.37
217.214	11.43
217.432	-29.52
217.651	-78.68
217.869	101.55
218.087	21.67
218.306	-50
218.524	70.83
218.742	29.87
218.96	76.97
219.179	-17.24
219.397	48.3
219.615	228.52
219.833	179.37
220.051	-72.53
220.27	85.16
220.488	130.22
220.706	44.2
220.924	-54.1
221.142	36.01
221.36	42.15
221.578	81.07
221.796	-19.29
222.015	31.91
222.233	46.25
222.451	119.98
222.669	-29.52
222.887	50.35
223.105	11.43
223.323	81.07
223.541	-74.58
223.759	7.34
223.977	52.39
224.195	134.31
224.413	93.35
224.631	81.07
224.849	42.15
225.067	162.98
225.285	21.67
225.503	1.19
225.721	-76.63
225.939	11.43
226.157	48.3
226.375	183.46
226.592	50.35
226.81	50.35
227.028	109.74
227.246	169.13
227.464	122.02
227.682	122.02
227.9	66.73
228.117	126.12
228.335	56.49
228.553	3.24
228.771	105.64
228.989	103.59
229.206	76.97
229.424	15.53
229.642	-0.85
229.86	-4.95
230.077	173.22
230.295	85.16
230.513	175.27
230.731	83.11
230.948	212.14
231.166	83.11
231.384	-17.24
231.601	-2.9
231.819	199.85
232.037	79.02
232.254	-17.24
232.472	25.77
232.689	-23.38
232.907	175.27
233.125	7.34
233.342	-27.48
233.56	62.63
233.777	58.54
233.995	21.67
234.213	165.03
234.43	138.41
234.648	76.97
234.865	-4.95
235.083	33.96
235.3	119.98
235.518	36.01
235.735	95.4
235.953	76.97
236.17	105.64
236.388	72.87
236.605	113.83
236.822	128.17
237.04	117.93
237.257	64.68
237.475	-45.91
237.692	38.06
237.909	70.83
238.127	40.11
238.344	36.01
238.562	31.91
238.779	-25.43
238.996	-11.09
239.214	25.77
239.431	126.12
239.648	13.48
239.865	48.3
240.083	109.74
240.3	50.35
240.517	3.24
240.735	-35.67
240.952	142.5
241.169	38.06
241.386	117.93
241.603	117.93
241.821	23.72
242.038	103.59
242.255	54.44
242.472	-4.95
242.689	103.59
242.907	89.26
243.124	83.11
243.341	-7
243.558	-29.52
243.775	-84.82
243.992	-23.38
244.209	42.15
244.426	189.61
244.643	50.35
244.86	70.83
245.078	169.13
245.295	48.3
245.512	15.53
245.729	-13.14
245.946	58.54
246.163	48.3
246.38	-11.09
246.597	50.35
246.814	38.06
247.031	48.3
247.248	42.15
247.464	79.02
247.681	50.35
247.898	81.07
248.115	15.53
248.332	44.2
248.549	154.79
248.766	162.98
248.983	50.35
249.2	101.55
249.417	48.3
249.633	-25.43
249.85	199.85
250.067	-29.52
250.284	-17.24
250.501	79.02
250.717	64.68
250.934	-84.82
251.151	58.54
251.368	-41.81
251.585	17.58
251.801	85.16
252.018	-0.85
252.235	111.78
252.451	-50
252.668	70.83
252.885	113.83
253.102	60.59
253.318	70.83
253.535	-50
253.752	5.29
253.968	-25.43
254.185	-47.96
254.401	72.87
254.618	124.07
254.835	-17.24
255.051	136.36
255.268	83.11
255.484	56.49
255.701	62.63
255.917	76.97
256.134	50.35
256.351	38.06
256.567	-15.19
256.784	50.35
257	7.34
257.217	66.73
257.433	136.36
257.65	91.31
257.866	119.98
258.082	-29.52
258.299	68.78
258.515	105.64
258.732	38.06
258.948	-58.2
259.165	46.25
259.381	-11.09
259.597	58.54
259.814	13.48
260.03	-52.05
260.246	13.48
260.463	146.6
260.679	124.07
260.895	93.35
261.112	48.3
261.328	25.77
261.544	-31.57
261.761	146.6
261.977	-31.57
262.193	-84.82
262.409	72.87
262.626	46.25
262.842	46.25
263.058	7.34
263.274	97.45
263.49	95.4
263.707	107.69
263.923	74.92
264.139	-43.86
264.355	33.96
264.571	148.65
264.787	124.07
265.004	119.98
265.22	76.97
265.436	-103.25
265.652	38.06
265.868	134.31
266.084	-41.81
266.3	64.68
266.516	-52.05
266.732	79.02
266.948	11.43
267.164	27.82
267.38	113.83
267.596	58.54
267.812	109.74
268.028	7.34
268.244	122.02
268.46	113.83
268.676	31.91
268.892	66.73
269.108	-13.14
269.324	11.43
269.54	-45.91
269.756	134.31
269.972	-19.29
270.188	46.25
270.403	-107.35
270.619	-47.96
270.835	64.68
271.051	42.15
271.267	3.24
271.483	13.48
271.698	48.3
271.914	81.07
272.13	52.39
272.346	-7
272.562	38.06
272.777	177.32
272.993	-13.14
273.209	-39.76
273.425	113.83
273.64	-37.72
273.856	62.63
274.072	7.34
274.287	-50
274.503	70.83
274.719	85.16
274.934	-13.14
275.15	9.39
275.366	115.88
275.581	19.63
275.797	64.68
276.012	72.87
276.228	-37.72
276.444	117.93
276.659	105.64
276.875	-33.62
277.09	7.34
277.306	-31.57
277.521	119.98
277.737	44.2
277.952	126.12
278.168	76.97
278.383	13.48
278.599	95.4
278.814	130.22
279.03	44.2
279.245	113.83
279.461	44.2
279.676	81.07
279.892	-2.9
280.107	29.87
280.322	42.15
280.538	122.02
280.753	-82.77
280.969	113.83
281.184	-23.38
281.399	124.07
281.615	50.35
281.83	91.31
282.045	29.87
282.26	-21.33
282.476	85.16
282.691	93.35
282.906	-7
283.122	52.39
283.337	27.82
283.552	113.83
283.767	-7
283.983	62.63
284.198	44.2
284.413	95.4
284.628	-7
284.843	19.63
285.058	109.74
285.274	-4.95
285.489	-39.76
285.704	40.11
285.919	11.43
286.134	25.77
286.349	70.83
286.564	44.2
286.779	89.26
286.995	58.54
287.21	7.34
287.425	76.97
287.64	3.24
287.855	52.39
288.07	-80.72
288.285	101.55
288.5	169.13
288.715	42.15
288.93	62.63
289.145	-82.77
289.36	101.55
289.575	21.67
289.79	115.88
290.004	15.53
290.219	113.83
290.434	-23.38
290.649	7.34
290.864	62.63
291.079	85.16
291.294	74.92
291.509	50.35
291.724	13.48
291.938	-9.05
292.153	5.29
292.368	19.63
292.583	122.02
292.798	126.12
293.012	38.06
293.227	101.55
293.442	-29.52
293.657	107.69
293.871	79.02
294.086	-0.85
294.301	199.85
294.516	117.93
294.73	27.82
294.945	46.25
295.16	58.54
295.374	152.74
295.589	107.69
295.804	25.77
296.018	29.87
296.233	132.26
296.447	-0.85
296.662	52.39
296.877	130.22
297.091	3.24
297.306	74.92
297.52	33.96
297.735	50.35
297.949	31.91
298.164	1.19
298.378	15.53
298.593	60.59
298.807	64.68
299.022	21.67
299.236	169.13
299.451	-21.33
299.665	13.48
299.88	-29.52
300.094	95.4
300.309	97.45
300.523	79.02
300.737	-2.9
300.952	111.78
301.166	122.02
301.381	3.24
301.595	50.35
301.809	66.73
302.024	99.5
302.238	11.43
302.452	105.64
302.667	124.07
302.881	136.36
303.095	87.21
303.309	87.21
303.524	-7
303.738	3.24
303.952	9.39
304.166	74.92
304.381	-27.48
304.595	177.32
304.809	13.48
305.023	5.29
305.237	79.02
305.452	13.48
305.666	99.5
305.88	107.69
306.094	85.16
306.308	70.83
306.522	109.74
306.736	117.93
306.95	81.07
307.164	50.35
307.379	7.34
307.593	179.37
307.807	183.46
308.021	117.93
308.235	93.35
308.449	-70.48
308.663	58.54
308.877	140.46
309.091	70.83
309.305	115.88
309.519	-101.2
309.733	167.08
309.947	-31.57
310.161	70.83
310.374	111.78
310.588	234.66
310.802	-33.62
311.016	-41.81
311.23	38.06
311.444	21.67
311.658	72.87
311.872	138.41
312.085	173.22
312.299	210.09
312.513	70.83
312.727	122.02
312.941	-21.33
313.154	3.24
313.368	79.02
313.582	48.3
313.796	33.96
314.009	72.87
314.223	111.78
314.437	21.67
314.651	138.41
314.864	42.15
315.078	5.29
315.292	-84.82
315.505	70.83
315.719	48.3
315.933	21.67
316.146	9.39
316.36	-37.72
316.573	31.91
316.787	99.5
317.001	99.5
317.214	-62.29
317.428	134.31
317.641	-15.19
317.855	48.3
318.068	93.35
318.282	27.82
318.495	165.03
318.709	-27.48
318.922	42.15
319.136	99.5
319.349	130.22
319.563	-37.72
319.776	38.06
319.99	-66.39
320.203	93.35
320.417	25.77
320.63	97.45
320.843	113.83
321.057	60.59
321.27	68.78
321.483	111.78
321.697	189.61
321.91	144.55
322.124	68.78
322.337	91.31
322.55	25.77
322.763	29.87
322.977	-0.85
323.19	-103.25
323.403	33.96
323.617	15.53
323.83	119.98
324.043	33.96
324.256	48.3
324.469	-4.95
324.683	115.88
324.896	31.91
325.109	128.17
325.322	-35.67
325.535	97.45
325.748	74.92
325.962	-35.67
326.175	79.02
326.388	54.44
326.601	111.78
326.814	68.78
327.027	91.31
327.24	175.27
327.453	-88.92
327.666	93.35
327.879	54.44
328.092	126.12
328.305	70.83
328.518	72.87
328.731	3.24
328.944	11.43
329.157	70.83
329.37	11.43
329.583	175.27
329.796	122.02
330.009	-27.48
330.222	97.45
330.435	124.07
330.648	36.01
330.861	27.82
331.073	17.58
331.286	66.73
331.499	48.3
331.712	-35.67
331.925	70.83
332.138	81.07
332.35	124.07
332.563	31.91
332.776	68.78
332.989	36.01
333.202	-33.62
333.414	-2.9
333.627	44.2
333.84	58.54
334.053	27.82
334.265	27.82
334.478	15.53
334.691	31.91
334.903	1.19
335.116	79.02
335.329	-39.76
335.541	115.88
335.754	232.62
335.966	-7
336.179	9.39
336.392	9.39
336.604	46.25
336.817	152.74
337.029	150.7
337.242	19.63
337.454	111.78
337.667	-17.24
337.88	99.5
338.092	91.31
338.305	50.35
338.517	33.96
338.729	79.02
338.942	95.4
339.154	-33.62
339.367	-76.63
339.579	81.07
339.792	-111.44
340.004	93.35
340.217	5.29
340.429	81.07
340.641	5.29
340.854	-15.19
341.066	36.01
341.278	97.45
341.491	195.75
341.703	31.91
341.915	38.06
342.128	115.88
342.34	142.5
342.552	-68.44
342.764	97.45
342.977	13.48
343.189	44.2
343.401	79.02
343.613	-56.15
343.826	124.07
344.038	-60.24
344.25	154.79
344.462	60.59
344.674	72.87
344.886	105.64
345.099	83.11
345.311	103.59
345.523	-7
345.735	-35.67
345.947	146.6
346.159	15.53
346.371	5.29
346.583	42.15
346.795	287.91
347.007	81.07
347.219	60.59
347.431	-7
347.643	105.64
347.855	-25.43
348.067	87.21
348.279	3.24
348.491	46.25
348.703	154.79
348.915	1.19
349.127	11.43
349.339	3.24
349.551	76.97
349.763	62.63
349.975	-13.14
350.187	33.96
350.399	117.93
350.61	105.64
350.822	17.58
351.034	91.31
351.246	36.01
351.458	56.49
351.669	140.46
351.881	122.02
352.093	107.69
352.305	93.35
352.517	107.69
352.728	109.74
352.94	44.2
353.152	95.4
353.363	7.34
353.575	50.35
353.787	183.46
353.999	72.87
354.21	89.26
354.422	-7
354.633	74.92
354.845	91.31
355.057	169.13
355.268	40.11
355.48	173.22
355.692	-56.15
355.903	107.69
356.115	-13.14
356.326	-58.2
356.538	212.14
356.749	144.55
356.961	236.71
357.172	64.68
357.384	5.29
357.595	214.18
357.807	-82.77
358.018	-41.81
358.23	85.16
358.441	136.36
358.653	107.69
358.864	93.35
359.075	-25.43
359.287	62.63
359.498	105.64
359.709	165.03
359.921	3.24
360.132	60.59
360.344	-7
360.555	-11.09
360.766	85.16
360.977	70.83
361.189	119.98
361.4	-66.39
361.611	156.84
361.823	130.22
362.034	40.11
362.245	15.53
362.456	113.83
362.667	165.03
362.879	-21.33
363.09	5.29
363.301	117.93
363.512	105.64
363.723	-13.14
363.935	36.01
364.146	87.21
364.357	76.97
364.568	50.35
364.779	-62.29
364.99	128.17
365.201	-70.48
365.412	128.17
365.623	-66.39
365.834	99.5
366.045	124.07
366.256	81.07
366.467	105.64
366.678	27.82
366.889	64.68
367.1	-76.63
367.311	27.82
367.522	52.39
367.733	64.68
367.944	-4.95
368.155	44.2
368.366	81.07
368.577	169.13
368.788	81.07
368.999	-21.33
369.209	60.59
369.42	285.86
369.631	228.52
369.842	95.4
370.053	46.25
370.264	124.07
370.474	-47.96
370.685	21.67
370.896	40.11
371.107	156.84
371.317	-29.52
371.528	13.48
371.739	173.22
371.95	97.45
372.16	126.12
372.371	-11.09
372.582	-58.2
372.792	111.78
373.003	62.63
373.214	36.01
373.424	-29.52
373.635	5.29
373.846	81.07
374.056	9.39
374.267	-2.9
374.477	81.07
374.688	27.82
374.898	89.26
375.109	91.31
375.319	64.68
375.53	15.53
375.74	130.22
375.951	13.48
376.161	113.83
376.372	150.7
376.582	27.82
376.793	-19.29
377.003	-33.62
377.214	19.63
377.424	105.64
377.635	36.01
377.845	13.48
378.055	167.08
378.266	-39.76
378.476	27.82
378.686	117.93
378.897	-23.38
379.107	70.83
379.317	58.54
379.528	19.63
379.738	91.31
379.948	-56.15
380.158	62.63
380.369	60.59
380.579	150.7
380.789	33.96
380.999	93.35
381.21	142.5
381.42	234.66
381.63	89.26
381.84	117.93
382.05	81.07
382.261	134.31
382.471	132.26
382.681	-7
382.891	144.55
383.101	124.07
383.311	-27.48
383.521	-4.95
383.731	97.45
383.941	122.02
384.151	70.83
384.361	50.35
384.571	58.54
384.781	5.29
384.991	169.13
385.201	95.4
385.411	152.74
385.621	89.26
385.831	15.53
386.041	148.65
386.251	21.67
386.461	109.74
386.671	27.82
386.881	60.59
387.091	62.63
387.301	91.31
387.511	87.21
387.72	62.63
387.93	103.59
388.14	-56.15
388.35	83.11
388.56	101.55
388.769	109.74
388.979	48.3
389.189	-7
389.399	56.49
389.609	130.22
389.818	177.32
390.028	138.41
390.238	107.69
390.447	13.48
390.657	74.92
390.867	60.59
391.076	-29.52
391.286	3.24
391.496	5.29
391.705	101.55
391.915	95.4
392.125	81.07
392.334	-47.96
392.544	124.07
392.753	48.3
392.963	13.48
393.172	15.53
393.382	-31.57
393.591	226.47
393.801	58.54
394.01	74.92
394.22	130.22
394.429	64.68
394.639	-4.95
394.848	160.94
395.058	46.25
395.267	74.92
395.477	85.16
395.686	101.55
395.895	285.86
396.105	242.85
396.314	72.87
396.524	87.21
396.733	-4.95
396.942	87.21
397.152	146.6
397.361	130.22
397.57	81.07
397.78	11.43
397.989	83.11
398.198	115.88
398.407	68.78
398.617	64.68
398.826	19.63
399.035	50.35
399.244	109.74
399.453	44.2
399.663	19.63
399.872	54.44
400.081	-47.96
400.29	132.26
400.499	-50
400.708	160.94
400.917	74.92
401.127	-2.9
401.336	81.07
401.545	201.9
401.754	160.94
401.963	181.42
402.172	85.16
402.381	-9.05
402.59	31.91
402.799	29.87
403.008	109.74
403.217	62.63
403.426	64.68
403.635	83.11
403.844	103.59
404.053	1.19
404.262	91.31
404.471	214.18
404.68	83.11
404.888	7.34
405.097	97.45
405.306	76.97
405.515	140.46
405.724	23.72
405.933	40.11
406.142	81.07
406.35	171.18
406.559	66.73
406.768	-17.24
406.977	177.32
407.185	17.58
407.394	64.68
407.603	-58.2
407.812	111.78
408.02	122.02
408.229	50.35
408.438	85.16
408.646	-15.19
408.855	38.06
409.064	99.5
409.272	44.2
409.481	103.59
409.69	-2.9
409.898	31.91
410.107	58.54
410.315	105.64
410.524	-7
410.733	-4.95
410.941	27.82
411.15	146.6
411.358	146.6
411.567	117.93
411.775	74.92
411.984	107.69
412.192	128.17
412.401	83.11
412.609	154.79
412.818	144.55
413.026	79.02
413.234	85.16
413.443	46.25
413.651	-47.96
413.86	74.92
414.068	171.18
414.276	142.5
414.485	46.25
414.693	152.74
414.901	246.95
415.11	21.67
415.318	76.97
415.526	132.26
415.734	109.74
415.943	56.49
416.151	91.31
416.359	-31.57
416.567	81.07
416.776	126.12
416.984	165.03
417.192	203.94
417.4	-25.43
417.608	21.67
417.817	33.96
418.025	179.37
418.233	117.93
418.441	5.29
418.649	-47.96
418.857	189.61
419.065	79.02
419.273	-50
419.481	105.64
419.689	27.82
419.897	23.72
420.105	52.39
420.313	60.59
420.521	205.99
420.729	212.14
420.937	-9.05
421.145	9.39
421.353	95.4
421.561	187.56
421.769	107.69
421.977	68.78
422.185	171.18
422.393	38.06
422.601	177.32
422.809	66.73
423.017	5.29
423.224	93.35
423.432	130.22
423.64	126.12
423.848	130.22
424.056	74.92
424.263	158.89
424.471	23.72
424.679	130.22
424.887	-0.85
425.094	109.74
425.302	93.35
425.51	95.4
425.718	165.03
425.925	76.97
426.133	62.63
426.341	253.09
426.548	58.54
426.756	81.07
426.964	122.02
427.171	87.21
427.379	25.77
427.586	25.77
427.794	97.45
428.001	95.4
428.209	33.96
428.417	124.07
428.624	187.56
428.832	126.12
429.039	72.87
429.247	66.73
429.454	162.98
429.662	183.46
429.869	103.59
430.076	191.66
430.284	263.33
430.491	136.36
430.699	113.83
430.906	240.81
431.114	152.74
431.321	199.85
431.528	101.55
431.736	134.31
431.943	103.59
432.15	148.65
432.358	160.94
432.565	283.81
432.772	38.06
432.979	169.13
433.187	154.79
433.394	216.23
433.601	113.83
433.808	183.46
434.016	287.91
434.223	154.79
434.43	212.14
434.637	232.62
434.844	271.53
435.052	191.66
435.259	212.14
435.466	318.63
435.673	292.01
435.88	357.54
436.087	371.88
436.294	337.06
436.501	349.35
436.708	294.05
436.915	261.29
437.122	400.55
437.329	220.33
437.537	384.16
437.743	279.72
437.95	339.11
438.157	238.76
438.364	314.53
438.571	359.59
438.778	412.84
438.985	455.84
439.192	461.99
439.399	359.59
439.606	318.63
439.813	482.47
440.02	625.83
440.227	574.63
440.433	502.95
440.64	421.03
440.847	511.14
441.054	507.04
441.261	668.83
441.467	593.06
441.674	548
441.881	664.74
442.088	535.71
442.294	740.51
442.501	715.94
442.708	806.05
442.914	691.36
443.121	908.44
443.328	853.15
443.534	785.57
443.741	824.48
443.948	771.23
444.154	1033.37
444.361	986.27
444.568	902.3
444.774	869.53
444.981	902.3
445.187	1088.67
445.394	1004.7
445.6	1035.42
445.807	1131.67
446.013	1186.97
446.22	1109.15
446.426	1275.03
446.633	1395.86
446.839	1387.67
447.046	1234.07
447.252	1424.53
447.459	1494.16
447.665	1475.73
447.871	1721.49
448.078	1723.54
448.284	1711.25
448.491	1793.17
448.697	1864.85
448.903	2004.11
449.11	2073.74
449.316	1977.48
449.522	2227.34
449.728	2249.86
449.935	2284.68
450.141	2264.2
450.347	2464.9
450.553	2489.48
450.76	2518.15
450.966	2591.88
451.172	2786.43
451.378	2696.32
451.584	2829.44
451.791	3148.92
451.997	3073.15
452.203	3210.36
452.409	3392.63
452.615	3552.37
452.821	3425.4
453.027	3378.3
453.233	3998.83
453.44	3820.66
453.646	3935.34
453.852	4277.35
454.058	4410.47
454.264	4437.09
454.47	4811.87
454.676	4768.87
454.882	5190.75
455.088	5043.29
455.294	5368.92
455.5	5530.71
455.705	5919.82
455.911	5971.02
456.117	6143.05
456.323	6405.19
456.529	6292.55
456.735	6902.85
456.941	7021.63
457.147	7404.6
457.352	7459.9
457.558	7763
457.764	8209.45
457.97	8539.18
458.176	8653.86
458.381	9272.35
458.587	9309.21
458.793	9890.84
458.999	9894.93
459.204	11000.83
459.41	11207.68
459.616	11039.75
459.821	11838.45
460.027	12561.39
460.233	13126.63
460.438	13083.62
460.644	13560.8
460.85	13784.02
461.055	14576.59
461.261	15082.44
461.466	14867.4
461.672	15289.28
461.878	16792.49
462.083	16698.28
462.289	16982.95
462.494	17638.3
462.7	17869.72
462.905	18113.43
463.111	19516.29
463.316	20519.79
463.522	20687.73
463.727	21588.83
463.932	22342.49
464.138	22922.06
464.343	23964.48
464.549	23927.61
464.754	25951.01
464.959	26444.57
465.165	26850.06
465.37	26671.89
465.575	26444.57
465.781	28281.6
465.986	29332.2
466.191	29192.94
466.397	29139.69
466.602	28705.52
466.807	30206.69
467.012	30677.72
467.218	30900.95
467.423	31236.81
467.628	32342.72
467.833	33845.93
468.038	32848.57
468.244	32611
468.449	34122.4
468.654	33383.09
468.859	33391.28
469.064	33145.52
469.269	32778.93
469.474	33143.47
469.679	33772.2
469.885	32801.46
470.09	33161.9
470.295	33268.4
470.5	32584.38
470.705	32744.12
470.91	32101.06
471.115	31640.26
471.32	31974.08
471.525	31748.81
471.73	30931.67
471.935	30563.03
472.139	29307.63
472.344	29430.51
472.549	29524.71
472.754	28865.27
472.959	28242.68
473.164	27241.23
473.369	27007.76
473.574	27726.6
473.778	27001.61
473.983	26651.41
474.188	26268.44
474.393	25039.66
474.598	24718.13
474.802	24345.4
475.007	23849.79
475.212	23855.93
475.417	22782.8
475.621	22461.27
475.826	22154.07
476.031	21724
476.235	21433.19
476.44	21457.76
476.645	20532.08
476.849	20570.99
477.054	20228.98
477.259	19915.64
477.463	19757.95
477.668	18813.84
477.872	19192.71
478.077	18707.34
478.282	18365.33
478.486	18051.99
478.691	17808.28
478.895	17583.01
479.1	17648.54
479.304	17302.43
479.509	16669.61
479.713	17183.65
479.918	16772.01
480.122	16386.99
480.326	16247.73
480.531	16632.75
480.735	16200.63
480.94	16065.46
481.144	16249.78
481.348	15793.08
481.553	15823.8
481.757	15260.61
481.961	15485.89
482.166	15655.87
482.37	15254.47
482.574	14676.94
482.778	15109.06
482.983	15139.78
483.187	14678.99
483.391	14697.42
483.595	14386.13
483.8	14177.23
484.004	14388.18
484.208	14367.7
484.412	14111.7
484.616	14142.42
484.821	13810.65
485.025	13437.92
485.229	13573.08
485.433	13235.17
485.637	12995.56
485.841	12915.69
486.045	12635.11
486.249	12555.24
486.453	12473.32
486.657	12162.03
486.861	12377.07
487.065	11793.4
487.269	11805.69
487.473	11277.31
487.677	11584.51
487.881	11328.51
488.085	11043.84
488.289	10951.68
488.493	10646.54
488.697	10798.09
488.901	10402.83
489.105	10105.87
489.309	9831.44
489.512	9919.51
489.716	9890.84
489.92	9528.35
490.124	9346.08
490.328	9434.14
490.531	8969.25
490.735	8995.87
490.939	8778.79
491.143	8485.93
491.346	8530.98
491.55	8666.15
491.754	8234.03
491.958	8195.12
492.161	7975.98
492.365	8004.66
492.569	7730.23
492.772	7728.18
492.976	7732.28
493.18	7662.65
493.383	7521.34
493.587	7418.94
493.79	7515.19
493.994	7107.65
494.197	7130.17
494.401	7068.73
494.605	7109.69
494.808	7201.85
495.012	6886.47
495.215	7203.9
495.419	6882.37
495.622	6857.79
495.825	6677.57
496.029	6745.16
496.232	6857.79
496.436	6702.15
496.639	6925.38
496.843	6755.4
497.046	6796.35
497.249	6947.9
497.453	6868.03
497.656	6896.71
497.859	6761.54
498.063	6954.05
498.266	6900.8
498.469	6880.32
498.673	6788.16
498.876	6849.6
499.079	6855.75
499.282	6888.51
499.485	7271.48
499.689	7025.73
499.892	7330.87
500.095	7259.2
500.298	7425.08
500.501	7208
500.705	7517.24
500.908	7535.67
501.111	7748.66
501.314	7666.74
501.517	7760.95
501.72	7836.72
501.923	7779.38
502.126	7771.19
502.329	8258.6
502.532	8127.53
502.735	8258.6
502.938	8516.65
503.141	8557.61
503.344	8586.28
503.547	8803.36
503.75	8655.91
503.953	9042.98
504.156	9067.55
504.359	9118.75
504.562	9145.38
504.765	9567.26
504.968	9724.95
505.17	9804.82
505.373	9763.86
505.576	10056.72
505.779	10230.8
505.982	10581
506.185	10599.43
506.387	10695.69
506.59	11000.83
506.793	11219.97
506.996	11385.85
507.198	11682.81
507.401	11918.32
507.604	12159.99
507.807	12153.84
508.009	12530.67
508.212	12911.59
508.415	13034.47
508.617	13243.36
508.82	13358.05
509.022	13640.67
509.225	13949.91
509.428	14236.63
509.63	14531.53
509.833	14613.45
510.035	15598.52
510.238	15563.71
510.44	16061.37
510.643	16360.37
510.845	16645.04
511.048	16743.34
511.25	17507.23
511.453	17615.77
511.655	18561.94
511.858	18443.15
512.06	19030.92
512.262	19428.23
512.465	19624.83
512.667	20464.5
512.87	20577.14
513.072	21117.8
513.274	21625.7
513.477	21969.76
513.679	22598.48
513.881	22879.05
514.084	23331.65
514.286	23794.5
514.488	24339.26
514.69	25275.18
514.893	25609
515.095	25848.61
515.297	26839.83
515.499	27097.87
515.701	27749.12
515.904	28156.67
516.106	28938.99
516.308	29291.24
516.51	30188.25
516.712	30642.9
516.914	30708.44
517.116	31449.8
517.318	32125.63
517.52	32670.39
517.722	33043.12
517.925	33796.77
518.127	34620.06
518.329	35209.87
518.531	34919.06
518.733	36027.01
518.935	36516.48
519.136	36940.41
519.338	37753.45
519.54	38079.08
519.742	38541.92
519.944	39150.17
520.146	39830.09
520.348	39854.67
520.55	40665.66
520.752	41284.15
520.954	42154.54
521.155	41888.3
521.357	42736.16
521.559	43231.77
521.761	43717.14
521.963	43915.79
522.164	44311.05
522.366	44775.94
522.568	45591.03
522.77	45343.22
522.971	46203.37
523.173	45646.32
523.375	46103.02
523.576	45607.41
523.778	46510.56
523.98	46729.7
524.181	47010.27
524.383	46713.31
524.584	47389.14
524.786	47577.56
524.988	47501.78
525.189	47811.03
525.391	48064.97
525.592	47653.33
525.794	47256.03
525.995	47651.28
526.197	47337.94
526.398	47243.74
526.6	47192.54
526.801	46948.83
527.003	46991.84
527.204	46817.76
527.406	47000.03
527.607	46588.39
527.808	46612.96
528.01	45132.28
528.211	45715.95
528.412	46176.75
528.614	45539.83
528.815	45103.61
529.016	45249.02
529.218	44032.52
529.419	43936.27
529.62	43321.88
529.822	43106.84
530.023	42537.51
530.224	42187.3
530.425	42244.65
530.626	41509.43
530.828	40440.39
531.029	41353.78
531.23	40141.38
531.431	39907.91
531.632	39273.04
531.833	39074.39
532.035	38378.08
532.236	37878.38
532.437	37894.76
532.638	36905.59
532.839	36569.72
533.04	36299.39
533.241	35646.09
533.442	35441.29
533.643	35160.72
533.844	34509.47
534.045	34108.07
534.246	33088.18
534.447	33051.31
534.648	32729.78
534.849	32068.29
535.05	31654.6
535.251	31447.75
535.451	30767.83
535.652	30595.8
535.853	30020.32
536.054	30038.75
536.255	29706.98
536.456	28805.88
536.657	28824.31
536.857	27753.22
537.058	27075.34
537.259	27335.43
537.46	27050.77
537.66	26743.57
537.861	26465.05
538.062	26006.3
538.263	25658.15
538.463	25236.27
538.664	25154.35
538.865	24570.68
539.065	24462.13
539.266	24122.17
539.466	24017.72
539.667	23487.3
539.868	23421.77
540.068	23020.36
540.269	22768.46
540.469	22317.91
540.67	22221.66
540.87	21912.41
541.071	21584.74
541.271	21310.31
541.472	21144.42
541.672	21033.83
541.873	20669.3
542.073	20087.67
542.274	20290.42
542.474	19895.16
542.675	19798.91
542.875	19596.16
543.075	19213.19
543.276	18789.26
543.476	18998.15
543.676	18471.82
543.877	18606.99
544.077	18195.35
544.277	18213.78
544.478	18066.33
544.678	17730.46
544.878	17189.8
545.078	17425.31
545.279	16890.79
545.479	16733.1
545.679	16829.35
545.879	16622.51
546.079	16423.86
546.28	15848.38
546.48	15872.95
546.68	15950.78
546.88	15418.3
547.08	15528.89
547.28	15096.77
547.48	15098.82
547.68	14977.99
547.88	14660.55
548.081	14560.2
548.281	14019.54
548.481	14140.37
548.681	13937.62
548.881	13691.87
549.081	13714.39
549.28	13442.01
549.48	13003.75
549.68	13192.16
549.88	12852.2
550.08	12827.62
550.28	12502
550.48	12393.45
550.68	12209.14
550.88	12024.82
551.08	11820.02
551.279	11742.2
551.479	11492.35
551.679	11498.49
551.879	11207.68
552.079	11138.05
552.278	10660.87
552.478	10689.54
552.678	10542.09
552.878	10529.8
553.077	10386.44
553.277	9907.22
553.477	9976.85
553.676	9823.25
553.876	9647.13
554.076	9430.04
554.275	9294.88
554.475	9215.01
554.674	8979.49
554.874	8746.02
555.074	8680.49
555.273	8604.71
555.473	8522.79
555.672	8502.31
555.872	8098.86
556.071	8219.69
556.271	7949.36
556.47	7875.63
556.67	7752.76
556.869	7515.19
557.068	7550.01
557.268	7392.31
557.467	7144.51
557.667	7228.48
557.866	6908.99
558.065	6802.5
558.265	6691.91
558.464	6677.57
558.663	6487.11
558.863	6540.36
559.062	6593.61
559.261	6050.89
559.461	6302.79
559.66	6159.44
559.859	5848.15
560.058	5860.43
560.258	5602.39
560.457	5506.13
560.656	5727.32
560.855	5495.89
561.054	5633.11
561.253	5377.11
561.453	5332.06
561.652	5231.71
561.851	5284.95
562.05	4901.98
562.249	4834.4
562.448	4924.51
562.647	4781.15
562.846	4871.26
563.045	4775.01
563.244	4656.23
563.443	4727.91
563.642	4375.66
563.841	4439.14
564.04	4363.37
564.239	4285.55
564.438	4217.96
564.637	4109.42
564.836	3947.63
565.035	4052.08
565.234	3933.29
565.432	3945.58
565.631	3849.33
565.83	3873.9
566.029	3857.52
566.228	3796.08
566.427	3746.93
566.625	3449.97
566.824	3644.53
567.023	3380.34
567.222	3513.46
567.42	3435.64
567.619	3482.74
567.818	3456.12
568.016	3437.69
568.215	3335.29
568.414	3298.42
568.612	3144.83
568.811	3097.72
569.01	2995.32
569.208	2915.45
569.407	3034.24
569.605	2868.35
569.804	2841.73
570.002	2831.49
570.201	2851.97
570.4	2698.37
570.598	2612.35
570.797	2679.94
570.995	2559.11
571.193	2622.59
571.392	2595.97
571.59	2331.78
571.789	2608.26
571.987	2532.48
572.186	2591.88
572.384	2358.41
572.582	2335.88
572.781	2421.89
572.979	2278.54
573.177	2329.74
573.376	2262.15
573.574	2385.03
573.772	2096.27
573.971	2004.11
574.169	1936.53
574.367	2172.04
574.565	2010.25
574.763	1977.48
574.962	1983.63
575.16	1930.38
575.358	1911.95
575.556	1903.76
575.754	1870.99
575.952	1832.08
576.151	1750.16
576.349	1948.81
576.547	1709.2
576.745	1838.22
576.943	1735.82
577.141	1629.33
577.339	1553.55
577.537	1559.7
577.735	1623.19
577.933	1612.95
578.131	1381.53
578.329	1641.62
578.527	1508.5
578.725	1563.79
578.923	1322.13
579.121	1473.68
579.319	1219.74
579.516	1328.28
579.714	1555.6
579.912	1379.48
580.11	1275.03
580.308	1281.18
580.506	1141.91
580.704	1152.15
580.901	1184.92
581.099	1250.46
581.297	1232.02
581.495	1227.93
581.692	1189.02
581.89	1303.7
582.088	1141.91
582.285	1219.74
582.483	1152.15
582.681	1041.56
582.878	1084.57
583.076	1051.8
583.274	1057.95
583.471	1182.87
583.669	963.74
583.866	904.35
584.064	898.2
584.262	930.97
584.459	806.05
584.657	1006.75
584.854	1086.62
585.052	973.98
585.249	988.32
585.447	943.26
585.644	797.85
585.841	900.25
586.039	875.68
586.236	1016.99
586.434	879.77
586.631	689.31
586.828	806.05
587.026	894.11
587.223	773.28
587.42	728.22
587.618	855.2
587.815	885.92
588.012	756.9
588.21	812.19
588.407	834.72
588.604	804
588.801	697.5
588.999	758.94
589.196	748.7
589.393	658.59
589.59	687.26
589.787	738.46
589.984	724.13
590.182	756.9
590.379	660.64
590.576	613.54
590.773	730.27
590.97	619.68
591.167	666.78
591.364	693.41
591.561	656.54
591.758	742.56
591.955	715.94
592.152	722.08
592.349	687.26
592.546	650.4
592.743	588.96
592.94	652.45
593.137	705.7
593.334	746.66
593.531	720.03
593.727	693.41
593.924	705.7
594.121	636.06
594.318	636.06
594.515	775.33
594.712	830.62
594.908	826.53
595.105	584.87
595.302	717.98
595.499	668.83
595.696	748.7
595.892	679.07
596.089	756.9
596.286	756.9
596.482	922.78
596.679	797.85
596.876	679.07
597.072	885.92
597.269	859.29
597.466	861.34
597.662	890.01
597.859	818.33
598.055	961.69
598.252	1014.94
598.448	1119.39
598.645	1053.85
598.841	1156.25
599.038	1207.45
599.234	1272.98
599.431	1119.39
599.627	1293.46
599.824	1242.26
600.02	1311.89
600.217	1303.7
600.413	1318.04
600.609	1582.23
600.806	1678.48
601.002	1545.36
601.198	1588.37
601.395	1619.09
601.591	1703.06
601.787	1766.54
601.984	1858.7
602.18	1881.23
602.376	1940.62
602.572	2213
602.769	2227.34
602.965	2133.13
603.161	2346.12
603.357	2407.56
603.553	2542.72
603.75	2606.21
603.946	2528.39
604.142	2618.5
604.338	2864.25
604.534	2921.6
604.73	3017.85
604.926	3017.85
605.122	3196.03
605.318	3310.71
605.514	3337.34
605.71	3368.06
605.906	3671.15
606.102	3644.53
606.298	3843.18
606.494	3949.68
606.69	4226.15
606.886	4113.52
607.082	4258.92
607.278	4367.46
607.474	4478.05
607.67	4514.92
607.866	4684.9
608.062	4936.8
608.257	4883.55
608.453	5020.77
608.649	5213.28
608.845	5252.19
609.041	5397.59
609.236	5694.55
609.432	5796.95
609.628	6102.09
609.824	6233.16
610.019	6294.6
610.215	6435.91
610.411	6726.72
610.606	6917.19
610.802	6896.71
610.998	7199.8
611.193	7511.1
611.389	7504.95
611.584	7863.35
611.78	7885.87
611.976	8129.58
612.171	8573.99
612.367	8657.96
612.562	8846.37
612.758	8938.53
612.953	8969.25
613.149	9577.5
613.344	9673.75
613.539	10050.58
613.735	10374.16
613.93	10591.24
614.126	10730.5
614.321	11215.87
614.517	11461.63
614.712	11592.7
614.907	11975.67
615.103	12465.13
615.298	12608.49
615.493	12827.62
615.688	13179.87
615.884	13704.15
616.079	13757.4
616.274	14463.95
616.47	14562.25
616.665	15147.97
616.86	15360.96
617.055	15705.02
617.25	16171.96
617.445	16409.52
617.641	16636.84
617.836	17413.02
618.031	17646.49
618.226	18021.27
618.421	18492.3
618.616	18973.58
618.811	19139.46
619.006	19899.26
619.201	20169.59
619.396	21037.93
619.591	20984.68
619.786	21820.25
619.981	21676.9
620.176	22805.33
620.371	22958.92
620.566	23538.5
620.761	24224.57
620.956	24478.52
621.151	24570.68
621.346	25568.04
621.541	25742.11
621.735	26737.43
621.93	26630.93
622.125	27433.74
622.32	27511.56
622.515	28070.65
622.709	28726
622.904	29655.78
623.099	30053.09
623.294	30583.51
623.488	30728.92
623.683	31484.62
623.878	31675.08
624.072	32750.26
624.267	32584.38
624.462	33376.94
624.656	33764.01
624.851	34366.11
625.046	35142.29
625.24	35517.07
625.435	35486.35
625.629	36156.03
625.824	36424.32
626.018	37503.6
626.213	37087.86
626.407	38277.73
626.602	38179.43
626.796	39015
626.991	39002.71
627.185	39504.46
627.38	39854.67
627.574	40116.81
627.768	39764.56
627.963	39801.42
628.157	40571.46
628.352	40884.79
628.546	40206.92
628.74	40856.12
628.935	39797.32
629.129	40555.07
629.323	40143.43
629.517	40325.7
629.712	39776.84
629.906	39416.4
630.1	39260.76
630.294	38851.16
630.489	38244.96
630.683	38126.18
630.877	37067.38
631.071	36430.46
631.265	36217.47
631.459	35093.14
631.653	34454.17
631.848	33974.95
632.042	32957.11
632.236	32299.71
632.43	31457.99
632.624	30651.09
632.818	29575.91
633.012	28863.22
633.206	28005.12
633.4	27579.14
633.594	25867.04
633.788	25664.29
633.982	24484.66
634.176	23739.2
634.369	22674.26
634.563	21824.35
634.757	20945.77
634.951	20517.75
635.145	19403.65
635.339	18903.95
635.533	17894.3
635.726	17318.82
635.92	16466.86
636.114	15948.73
636.308	15021
636.501	14683.08
636.695	14091.22
636.889	13485.02
637.083	12962.79
637.276	12428.27
637.47	12043.25
637.664	11537.4
637.857	11039.75
638.051	10707.98
638.244	10298.38
638.438	9610.26
638.632	9544.73
638.825	8936.48
639.019	8584.23
639.212	8234.03
639.406	8090.67
639.599	7754.8
639.793	7547.96
639.986	6984.77
640.18	6761.54
640.373	6585.41
640.567	6253.64
640.76	6175.82
640.954	5837.91
641.147	5565.53
641.34	5434.46
641.534	5366.87
641.727	5092.44
641.92	4940.9
642.114	4596.84
642.307	4463.72
642.5	4389.99
642.694	4170.86
642.887	3867.76
643.08	4027.5
643.273	3775.6
643.467	3566.71
643.66	3355.77
643.853	3308.66
644.046	3126.39
644.239	3120.25
644.432	2954.37
644.626	2661.51
644.819	2634.88
645.012	2745.47
645.205	2559.11
645.398	2370.69
645.591	2286.73
645.784	2165.9
645.977	2116.75
646.17	2063.5
646.363	1952.91
646.556	1969.29
646.749	1838.22
646.942	1830.03
647.135	1692.82
647.328	1608.85
647.521	1625.23
647.714	1604.75
647.907	1356.95
648.099	1461.4
648.292	1510.55
648.485	1346.71
648.678	1287.32
648.871	1242.26
649.064	1160.34
649.256	1160.34
649.449	1006.75
649.642	939.16
649.835	982.17
650.027	984.22
650.22	1055.9
650.413	963.74
650.605	978.08
650.798	826.53
650.991	797.85
651.183	785.57
651.376	834.72
651.568	896.16
651.761	636.06
651.954	711.84
652.146	736.42
652.339	711.84
652.531	662.69
652.724	519.33
652.916	599.2
653.109	539.81
653.301	679.07
653.494	638.11
653.686	513.19
653.879	629.92
654.071	552.1
654.263	382.12
654.456	427.17
654.648	502.95
654.84	548
655.033	421.03
655.225	527.52
655.417	306.34
655.61	525.47
655.802	466.08
655.994	502.95
656.186	263.33
656.379	437.41
656.571	306.34
656.763	363.69
656.955	277.67
657.148	300.2
657.34	380.07
657.532	294.05
657.724	314.53
657.916	367.78
658.108	466.08
658.3	353.45
658.492	294.05
658.684	255.14
658.876	361.64
659.068	261.29
659.26	205.99
659.452	261.29
659.644	234.66
659.836	343.21
660.028	283.81
660.22	195.75
660.412	257.19
660.604	179.37
660.796	242.85
660.988	298.15
661.18	214.18
661.372	244.9
661.563	212.14
661.755	277.67
661.947	40.11
662.139	162.98
662.331	169.13
662.522	173.22
662.714	156.84
662.906	185.51
663.097	199.85
663.289	171.18
663.481	33.96
663.673	197.8
663.864	152.74
664.056	263.33
664.247	113.83
664.439	228.52
664.631	140.46
664.822	187.56
665.014	201.9
665.205	124.07
665.397	185.51
665.588	187.56
665.78	201.9
665.971	242.85
666.163	210.09
666.354	193.7
666.546	107.69
666.737	66.73
666.929	144.55
667.12	128.17
667.311	136.36
667.503	101.55
667.694	128.17
667.885	236.71
668.077	150.7
668.268	19.63
668.459	103.59
668.651	119.98
668.842	152.74
669.033	-17.24
669.224	70.83
669.416	320.68
669.607	97.45
669.798	42.15
669.989	244.9
670.18	66.73
670.371	226.47
670.563	83.11
670.754	228.52
670.945	158.89
671.136	140.46
671.327	85.16
671.518	242.85
671.709	244.9
671.9	226.47
672.091	255.14
672.282	109.74
672.473	101.55
672.664	79.02
672.855	91.31
673.046	158.89
673.237	148.65
673.428	103.59
673.619	113.83
673.809	158.89
674	203.94
674.191	150.7
674.382	117.93
674.573	144.55
674.764	148.65
674.954	216.23
675.145	36.01
675.336	91.31
675.527	36.01
675.717	97.45
675.908	128.17
676.099	134.31
676.289	36.01
676.48	130.22
676.671	152.74
676.861	113.83
677.052	113.83
677.243	224.42
677.433	54.44
677.624	199.85
677.814	175.27
678.005	158.89
678.195	234.66
678.386	-15.19
678.576	124.07
678.767	-25.43
678.957	165.03
679.148	148.65
679.338	302.25
679.529	144.55
679.719	97.45
679.909	185.51
680.1	175.27
680.29	230.57
680.481	5.29
680.671	138.41
680.861	210.09
681.052	191.66
681.242	138.41
681.432	165.03
681.622	117.93
681.813	89.26
682.003	179.37
682.193	50.35
682.383	109.74
682.573	160.94
682.764	132.26
682.954	205.99
683.144	226.47
683.334	97.45
683.524	201.9
683.714	197.8
683.904	156.84
684.094	124.07
684.284	177.32
684.474	214.18
684.664	203.94
684.854	171.18
685.044	201.9
685.234	113.83
685.424	251.05
685.614	103.59
685.804	224.42
685.994	226.47
686.184	148.65
686.374	115.88
686.564	156.84
686.753	97.45
686.943	60.59
687.133	130.22
687.323	160.94
687.513	271.53
687.702	222.38
687.892	107.69
688.082	201.9
688.272	179.37
688.461	177.32
688.651	277.67
688.841	277.67
689.03	136.36
689.22	138.41
689.41	162.98
689.599	160.94
689.789	107.69
689.979	373.92
690.168	158.89
690.358	203.94
690.547	255.14
690.737	62.63
690.926	208.04
691.116	154.79
691.305	257.19
691.495	302.25
691.684	66.73
691.874	124.07
692.063	222.38
692.252	197.8
692.442	187.56
692.631	52.39
692.82	83.11
693.01	201.9
693.199	162.98
693.388	277.67
693.578	195.75
693.767	154.79
693.956	158.89
694.146	154.79
694.335	175.27
694.524	197.8
694.713	199.85
694.902	52.39
695.092	31.91
695.281	179.37
695.47	109.74
695.659	126.12
695.848	140.46
696.037	130.22
696.226	197.8
696.415	185.51
696.604	289.96
696.793	140.46
696.982	162.98
697.171	267.43
697.36	97.45
697.549	111.78
697.738	11.43
697.927	124.07
698.116	183.46
698.305	167.08
698.494	144.55
698.683	101.55
698.872	335.01
699.061	124.07
699.25	117.93
699.438	265.38
699.627	44.2
699.816	296.1
700.005	83.11
700.193	117.93
700.382	203.94
700.571	249
700.76	238.76
700.948	238.76
701.137	203.94
701.326	205.99
701.514	74.92
701.703	189.61
701.892	195.75
702.08	345.25
702.269	150.7
702.457	105.64
702.646	187.56
702.834	130.22
703.023	197.8
703.212	292.01
703.4	148.65
703.589	124.07
703.777	144.55
703.965	74.92
704.154	126.12
704.342	81.07
704.531	142.5
704.719	117.93
704.907	208.04
705.096	140.46
705.284	89.26
705.472	136.36
705.661	148.65
705.849	167.08
706.037	208.04
706.226	185.51
706.414	201.9
706.602	76.97
706.79	240.81
706.979	117.93
707.167	111.78
707.355	17.58
707.543	228.52
707.731	185.51
707.919	107.69
708.107	128.17
708.296	68.78
708.484	38.06
708.672	220.33
708.86	97.45
709.048	177.32
709.236	136.36
709.424	177.32
709.612	173.22
709.8	74.92
709.988	79.02
710.176	249
710.364	148.65
710.551	68.78
710.739	128.17
710.927	56.49
711.115	246.95
711.303	220.33
711.491	304.29
711.679	103.59
711.866	216.23
712.054	146.6
712.242	246.95
712.43	281.77
712.617	140.46
712.805	279.72
712.993	119.98
713.181	122.02
713.368	197.8
713.556	160.94
713.744	130.22
713.931	337.06
714.119	251.05
714.306	128.17
714.494	91.31
714.682	162.98
714.869	87.21
715.057	189.61
715.244	138.41
715.432	203.94
715.619	146.6
715.807	162.98
715.994	173.22
716.182	201.9
716.369	300.2
716.556	220.33
716.744	48.3
716.931	150.7
717.119	218.28
717.306	173.22
717.493	203.94
717.681	212.14
717.868	148.65
718.055	152.74
718.242	130.22
718.43	222.38
718.617	279.72
718.804	203.94
718.991	285.86
719.179	140.46
719.366	249
719.553	183.46
719.74	203.94
719.927	183.46
720.114	205.99
720.301	150.7
720.488	148.65
720.676	83.11
720.863	292.01
721.05	267.43
721.237	296.1
721.424	224.42
721.611	132.26
721.798	152.74
721.985	171.18
722.172	197.8
722.358	175.27
722.545	214.18
722.732	277.67
722.919	335.01
723.106	193.7
723.293	228.52
723.48	349.35
723.667	210.09
723.853	304.29
724.04	263.33
724.227	351.4
724.414	152.74
724.6	271.53
724.787	263.33
724.974	337.06
725.161	242.85
725.347	122.02
725.534	246.95
725.72	324.77
725.907	318.63
726.094	232.62
726.28	281.77
726.467	134.31
726.653	126.12
726.84	332.97
727.027	281.77
727.213	226.47
727.4	314.53
727.586	308.39
727.773	175.27
727.959	244.9
728.145	208.04
728.332	271.53
728.518	230.57
728.705	263.33
728.891	255.14
729.077	294.05
729.264	97.45
729.45	257.19
729.636	388.26
729.823	255.14
730.009	249
730.195	287.91
730.382	287.91
730.568	173.22
730.754	271.53
730.94	255.14
731.126	273.57
731.313	277.67
731.499	263.33
731.685	249
731.871	324.77
732.057	347.3
732.243	273.57
732.429	316.58
732.615	322.73
732.801	349.35
732.987	249
733.173	332.97
733.359	287.91
733.545	283.81
733.731	265.38
733.917	406.69
734.103	322.73
734.289	255.14
734.475	228.52
734.661	369.83
734.847	296.1
735.033	230.57
735.219	281.77
735.404	306.34
735.59	269.48
735.776	285.86
735.962	324.77
736.148	400.55
736.333	367.78
736.519	310.44
736.705	300.2
736.89	324.77
737.076	244.9
737.262	203.94
737.447	216.23
737.633	343.21
737.819	308.39
738.004	332.97
738.19	312.49
738.375	328.87
738.561	373.92
738.747	242.85
738.932	234.66
739.118	451.75
739.303	410.79
739.489	404.64
739.674	351.4
739.859	238.76
740.045	347.3
740.23	371.88
740.416	179.37
740.601	357.54
740.786	265.38
740.972	312.49
741.157	259.24
741.342	232.62
741.528	199.85
741.713	402.6
741.898	271.53
742.084	187.56
742.269	310.44
742.454	355.49
742.639	289.96
742.824	320.68
743.01	359.59
743.195	371.88
743.38	265.38
743.565	238.76
743.75	328.87
743.935	349.35
744.12	425.12
744.305	162.98
744.49	238.76
744.675	175.27
744.86	320.68
745.045	347.3
745.23	267.43
745.415	292.01
745.6	347.3
745.785	220.33
745.97	345.25
746.155	337.06
746.34	396.45
746.525	273.57
746.71	308.39
746.895	160.94
747.079	189.61
747.264	302.25
747.449	294.05
747.634	359.59
747.819	304.29
748.003	337.06
748.188	193.7
748.373	339.11
748.557	367.78
748.742	298.15
748.927	292.01
749.111	212.14
749.296	259.24
749.481	271.53
749.665	316.58
749.85	146.6
750.034	363.69
750.219	257.19
750.404	236.71
750.588	310.44
750.773	230.57
750.957	246.95
751.141	218.28
751.326	308.39
751.51	111.78
751.695	140.46
751.879	197.8
752.064	296.1
752.248	220.33
752.432	330.92
752.617	322.73
752.801	326.82
752.985	150.7
753.17	259.24
753.354	236.71
753.538	271.53
753.722	167.08
753.907	203.94
754.091	140.46
754.275	259.24
754.459	189.61
754.643	142.5
754.828	226.47
755.012	185.51
755.196	156.84
755.38	277.67
755.564	119.98
755.748	191.66
755.932	218.28
756.116	283.81
756.3	201.9
756.484	158.89
756.668	285.86
756.852	126.12
757.036	173.22
757.22	230.57
757.404	158.89
757.588	165.03
757.772	281.77
757.956	232.62
758.14	312.49
758.323	54.44
758.507	259.24
758.691	183.46
758.875	265.38
759.059	208.04
759.242	99.5
759.426	253.09
759.61	193.7
759.794	97.45
759.977	234.66
760.161	429.22
760.345	304.29
760.528	279.72
760.712	183.46
760.895	185.51
761.079	191.66
761.263	134.31
761.446	156.84
761.63	140.46
761.813	212.14
761.997	113.83
762.18	187.56
762.364	214.18
762.547	40.11
762.731	138.41
762.914	140.46
763.098	183.46
763.281	128.17
763.464	101.55
763.648	146.6
763.831	126.12
764.015	136.36
764.198	158.89
764.381	89.26
764.564	185.51
764.748	193.7
764.931	136.36
765.114	109.74
765.297	189.61
765.481	64.68
765.664	167.08
765.847	74.92
766.03	201.9
766.213	40.11
766.397	167.08
766.58	11.43
766.763	257.19
766.946	130.22
767.129	29.87
767.312	117.93
767.495	130.22
767.678	89.26
767.861	122.02
768.044	140.46
768.227	136.36
768.41	128.17
768.593	103.59
768.776	156.84
768.959	83.11
769.142	171.18
769.324	126.12
769.507	107.69
769.69	154.79
769.873	74.92
770.056	232.62
770.239	109.74
770.421	177.32
770.604	181.42
770.787	165.03
770.97	76.97
771.152	105.64
771.335	128.17
771.518	97.45
771.7	220.33
771.883	226.47
772.066	54.44
772.248	115.88
772.431	150.7
772.613	113.83
772.796	107.69
772.978	111.78
773.161	222.38
773.343	91.31
773.526	91.31
773.708	58.54
773.891	109.74
774.073	113.83
774.256	150.7
774.438	160.94
774.621	79.02
774.803	56.49
774.985	72.87
775.168	134.31
775.35	56.49
775.532	138.41
775.715	60.59
775.897	140.46
776.079	66.73
776.261	124.07
776.444	42.15
776.626	89.26
776.808	128.17
776.99	93.35
777.173	148.65
777.355	83.11
777.537	101.55
777.719	175.27
777.901	142.5
778.083	21.67
778.265	5.29
778.447	140.46
778.629	36.01
778.811	36.01
778.993	107.69
779.175	226.47
779.357	101.55
779.539	54.44
779.721	29.87
779.903	126.12
780.085	40.11
780.267	136.36
780.449	66.73
780.631	158.89
780.812	214.18
780.994	160.94
781.176	29.87
781.358	9.39
781.54	29.87
781.721	87.21
781.903	122.02
782.085	107.69
782.267	142.5
782.448	48.3
782.63	-2.9
782.812	152.74
782.993	173.22
783.175	103.59
783.357	-9.05
783.538	167.08
783.72	52.39
783.901	85.16
784.083	58.54
784.264	58.54
784.446	7.34
784.627	-39.76
784.809	60.59
784.99	-29.52
785.172	148.65
785.353	83.11
785.535	119.98
785.716	48.3
785.897	58.54
786.079	-11.09
786.26	44.2
786.441	87.21
786.623	-25.43
786.804	-43.86
786.985	130.22
787.167	81.07
787.348	40.11
787.529	5.29
787.71	224.42
787.891	85.16
788.073	81.07
788.254	-31.57
788.435	134.31
788.616	138.41
788.797	-17.24
788.978	15.53
789.159	25.77
789.34	97.45
789.522	60.59
789.703	38.06
789.884	-17.24
790.065	42.15
790.246	167.08
790.427	42.15
790.607	208.04
790.788	158.89
790.969	46.25
791.15	52.39
791.331	23.72
791.512	-33.62
791.693	-74.58
791.874	-17.24
792.054	216.23
792.235	119.98
792.416	-74.58
792.597	-4.95
792.778	64.68
792.958	107.69
793.139	91.31
793.32	50.35
793.5	-21.33
793.681	105.64
793.862	132.26
794.042	-27.48
794.223	1.19
794.404	48.3
794.584	-60.24
794.765	27.82
794.945	79.02
795.126	58.54
795.306	183.46
795.487	21.67
795.667	9.39
795.848	19.63
796.028	5.29
796.209	19.63
796.389	85.16
796.57	13.48
796.75	50.35
796.93	21.67
797.111	-7
797.291	72.87
797.471	91.31
797.652	40.11
797.832	-13.14
798.012	81.07
798.192	-2.9
798.373	-58.2
798.553	17.58
798.733	64.68
798.913	13.48
799.093	64.68
799.274	21.67
799.454	5.29
799.634	93.35
799.814	76.97
799.994	48.3
800.174	101.55
800.354	36.01
800.534	-68.44
800.714	60.59
800.894	-0.85
801.074	-43.86
801.254	1.19
801.434	81.07
801.614	-4.95
801.794	-17.24
801.974	1907.85
802.154	-17.24
802.334	146.6
802.514	-78.68
802.693	31.91
802.873	-15.19
803.053	177.32
803.233	40.11
803.413	44.2
803.592	-23.38
803.772	25.77
803.952	101.55
804.131	-80.72
804.311	144.55
804.491	113.83
804.67	9.39
804.85	-4.95
805.03	13.48
805.209	171.18
805.389	11.43
805.568	-17.24
805.748	52.39
805.928	93.35
806.107	85.16
806.287	72.87
806.466	29.87
806.646	81.07
806.825	66.73
807.004	40.11
807.184	60.59
807.363	144.55
807.543	58.54
807.722	-39.76
807.901	113.83
808.081	119.98
808.26	-162.64
808.439	38.06
808.619	-17.24
808.798	-56.15
808.977	38.06
809.156	31.91
809.336	46.25
809.515	89.26
809.694	64.68
809.873	9.39
810.052	105.64
810.231	60.59
810.411	99.5
810.59	54.44
810.769	-31.57
810.948	95.4
811.127	-93.01
811.306	17.58
811.485	-9.05
811.664	134.31
811.843	54.44
812.022	27.82
812.201	-33.62
812.38	-23.38
812.559	-50
812.737	124.07
812.916	-54.1
813.095	-15.19
813.274	15.53
813.453	-19.29
813.632	27.82
813.811	136.36
813.989	-121.68
814.168	44.2
814.347	-50
814.526	-90.96
814.704	99.5
814.883	85.16
815.062	-50
815.24	-43.86
815.419	-78.68
815.598	54.44
815.776	-93.01
815.955	31.91
816.133	-37.72
816.312	-15.19
816.49	-7
816.669	-2.9
816.847	23.72
817.026	62.63
817.204	-29.52
817.383	-0.85
817.561	-68.44
817.74	19.63
817.918	-47.96
818.097	15.53
818.275	-39.76
818.453	79.02
818.632	29.87
818.81	-74.58
818.988	-9.05
819.167	-21.33
819.345	58.54
819.523	-21.33
819.701	83.11
819.879	5.29
820.058	72.87
820.236	-4.95
820.414	99.5
820.592	-0.85
820.77	-15.19
820.948	-4.95
821.127	-2.9
821.305	103.59
821.483	-39.76
821.661	83.11
821.839	25.77
822.017	29.87
822.195	-9.05
822.373	62.63
822.551	70.83
822.729	15.53
822.907	-86.87
823.085	23.72
823.262	50.35
823.44	11.43
823.618	38.06
823.796	38.06
823.974	-41.81
824.152	-7
824.329	74.92
824.507	66.73
824.685	21.67
824.863	23.72
825.04	7.34
825.218	99.5
825.396	-54.1
825.574	-9.05
825.751	103.59
825.929	15.53
826.107	-31.57
826.284	52.39
826.462	13.48
826.639	-74.58
826.817	-78.68
826.994	11.43
827.172	7.34
827.349	128.17
827.527	56.49
827.704	70.83
827.882	54.44
828.059	-9.05
828.237	7.34
828.414	101.55
828.591	-105.3
828.769	9.39
828.946	-88.92
829.124	95.4
829.301	89.26
829.478	-68.44
829.655	48.3
829.833	29.87
830.01	-101.2
830.187	13.48
830.364	58.54
830.542	13.48
830.719	105.64
830.896	56.49
831.073	17.58
831.25	-2.9
831.427	21.67
831.604	70.83
831.782	-4.95
831.959	7.34
832.136	21.67
832.313	13.48
832.49	-68.44
832.667	3.24
832.844	-47.96
833.021	89.26
833.198	1.19
833.374	60.59
833.551	5.29
833.728	-23.38
833.905	70.83
834.082	-146.26
834.259	11.43
834.436	101.55
834.612	-64.34
834.789	31.91
834.966	54.44
835.143	-27.48
835.319	-29.52
835.496	-29.52
835.673	3.24
835.85	48.3
836.026	5.29
836.203	48.3
836.38	-101.2
836.556	-66.39
836.733	-131.92
836.909	60.59
837.086	3.24
837.262	-111.44
837.439	85.16
837.616	-72.53
837.792	70.83
837.968	-23.38
838.145	-101.2
838.321	23.72
838.498	76.97
838.674	29.87
838.851	50.35
839.027	-0.85
839.203	-27.48
839.38	89.26
839.556	-43.86
839.732	70.83
839.909	-17.24
840.085	62.63
840.261	17.58
840.437	17.58
840.614	-4.95
840.79	50.35
840.966	52.39
841.142	83.11
841.318	-41.81
841.494	68.78
841.671	-25.43
841.847	-4.95
842.023	-33.62
842.199	38.06
842.375	160.94
842.551	-70.48
842.727	-88.92
842.903	185.51
843.079	-93.01
843.255	79.02
843.431	7.34
843.607	31.91
843.783	-74.58
843.959	89.26
844.134	-19.29
844.31	72.87
844.486	17.58
844.662	-37.72
844.838	-25.43
845.013	40.11
845.189	109.74
845.365	117.93
845.541	29.87
845.716	48.3
845.892	54.44
846.068	-19.29
846.244	-90.96
846.419	85.16
846.595	-19.29
846.77	-50
846.946	-23.38
847.122	36.01
847.297	62.63
847.473	136.36
847.648	-70.48
847.824	-39.76
847.999	-142.16
848.175	-31.57
848.35	-19.29
848.526	81.07
848.701	85.16
848.876	62.63
849.052	89.26
849.227	-2.9
849.403	-45.91
849.578	40.11
849.753	7.34
849.929	91.31
850.104	-72.53
850.279	-62.29
850.454	23.72
850.63	68.78
850.805	-11.09
850.98	-17.24
851.155	-33.62
851.33	74.92
851.505	-2.9
851.681	167.08
851.856	-23.38
852.031	33.96
852.206	66.73
852.381	-50
852.556	87.21
852.731	19.63
852.906	42.15
853.081	-0.85
853.256	91.31
853.431	-21.33
853.606	-21.33
853.781	-68.44
853.956	-60.24
854.131	36.01
854.305	-56.15
854.48	-35.67
854.655	-17.24
854.83	-13.14
855.005	-64.34
855.18	-2.9
855.354	15.53
855.529	13.48
855.704	-64.34
855.879	95.4
856.053	-86.87
856.228	33.96
856.403	-95.06
856.577	50.35
856.752	-60.24
856.926	21.67
857.101	-4.95
857.276	-99.16
857.45	19.63
857.625	60.59
857.799	-4.95
857.974	85.16
858.148	-93.01
858.323	95.4
858.497	-50
858.672	-54.1
858.846	-9.05
859.02	83.11
859.195	-70.48
859.369	31.91
859.543	9.39
859.718	29.87
859.892	-2.9
860.066	-50
860.241	-68.44
860.415	-33.62
860.589	29.87
860.763	-56.15
860.938	-97.11
861.112	72.87
861.286	-142.16
861.46	36.01
861.634	-25.43
861.808	62.63
861.982	1.19
862.157	-70.48
862.331	-47.96
862.505	-50
862.679	-68.44
862.853	-21.33
863.027	-95.06
863.201	122.02
863.375	-47.96
863.549	50.35
863.722	-15.19
863.896	126.12
864.07	-45.91
864.244	-56.15
864.418	126.12
864.592	-33.62
864.766	79.02
864.939	-0.85
865.113	50.35
865.287	46.25
865.461	-35.67
865.634	27.82
865.808	-4.95
865.982	-39.76
866.156	1.19
866.329	-140.12
866.503	38.06
866.676	33.96
866.85	29.87
867.024	-21.33
867.197	105.64
867.371	56.49
867.544	13.48
867.718	-50
867.891	138.41
868.065	-39.76
868.238	17.58
868.412	66.73
868.585	60.59
868.759	-58.2
868.932	-7
869.105	-64.34
869.279	48.3
869.452	-66.39
869.625	119.98
869.799	-35.67
869.972	-101.2
870.145	-23.38
870.319	54.44
870.492	-0.85
870.665	9.39
870.838	-39.76
871.011	-123.73
871.185	-78.68
871.358	-23.38
871.531	-21.33
871.704	-7
871.877	29.87
872.05	-35.67
872.223	-37.72
872.396	31.91
872.569	83.11
872.742	-95.06
872.915	113.83
873.088	-23.38
873.261	-66.39
873.434	25.77
873.607	70.83
873.78	50.35
873.953	-74.58
874.126	25.77
874.299	-35.67
874.471	27.82
874.644	7.34
874.817	79.02
874.99	99.5
875.163	-35.67
875.335	150.7
875.508	29.87
875.681	107.69
875.853	-7
876.026	19.63
876.199	40.11
876.371	-9.05
876.544	-21.33
876.717	-21.33
876.889	-29.52
877.062	44.2
877.234	-129.88
877.407	-68.44
877.579	-43.86
877.752	11.43
877.924	54.44
878.097	66.73
878.269	27.82
878.442	52.39
878.614	11.43
878.786	54.44
878.959	13.48
879.131	-4.95
879.303	-82.77
879.476	-64.34
879.648	-19.29
879.82	21.67
879.993	13.48
880.165	19.63
880.337	-50
880.509	-66.39
880.681	-29.52
880.854	-68.44
881.026	40.11
881.198	189.61
881.37	50.35
881.542	76.97
881.714	-41.81
881.886	-13.14
882.058	48.3
882.23	74.92
882.402	-13.14
882.574	-54.1
882.746	29.87
882.918	105.64
883.09	7.34
883.262	-41.81
883.434	58.54
883.606	-109.4
883.778	-35.67
883.95	111.78
884.122	-54.1
884.293	29.87
884.465	-68.44
884.637	103.59
884.809	-39.76
884.98	68.78
885.152	31.91
885.324	58.54
885.496	-82.77
885.667	-39.76
885.839	-45.91
886.011	44.2
886.182	81.07
886.354	60.59
886.525	1.19
886.697	27.82
886.869	-39.76
887.04	5.29
887.212	93.35
887.383	115.88
887.555	36.01
887.726	-23.38
887.897	-37.72
888.069	-37.72
888.24	83.11
888.412	21.67
888.583	-54.1
888.754	1.19
888.926	-99.16
889.097	-60.24
889.268	-125.78
889.44	29.87
889.611	-70.48
889.782	-33.62
889.953	-45.91
890.125	72.87
890.296	-23.38
890.467	-27.48
890.638	1.19
890.809	-82.77
890.98	29.87
891.151	-25.43
891.323	83.11
891.494	-21.33
891.665	68.78
891.836	27.82
892.007	-93.01
892.178	54.44
892.349	-29.52
892.52	-107.35
892.691	58.54
892.862	-58.2
893.032	-103.25
893.203	-64.34
893.374	21.67
893.545	146.6
893.716	-15.19
893.887	83.11
894.057	-84.82
894.228	-19.29
894.399	-31.57
894.57	81.07
894.74	68.78
894.911	29.87
895.082	5.29
895.253	-138.07
895.423	5.29
895.594	83.11
895.764	15.53
895.935	-131.92
896.106	17.58
896.276	-29.52
896.447	52.39
896.617	-29.52
896.788	-90.96
896.958	-37.72
897.129	15.53
897.299	-11.09
897.47	91.31
897.64	177.32
897.81	66.73
897.981	48.3
898.151	-70.48
898.322	21.67
898.492	11.43
898.662	-84.82
898.832	-39.76
899.003	-21.33
899.173	79.02
899.343	-31.57
899.513	-50
