Data from USB4F104151__86__11-31-35-860.txt Node

Date: Wed Feb 26 11:31:35 EST 2025
User: louis
Spectrometer: USB4F10415
Trigger mode: 4
Integration Time (sec): 1.000000E-1
Scans to average: 1
Electric dark correction enabled: true
Nonlinearity correction enabled: false
Boxcar width: 0
XAxis mode: Wavelengths
Number of Pixels in Spectrum: 3648
>>>>>Begin Spectral Data<<<<<
178.204	-350.54
178.424	-350.54
178.644	-350.54
178.864	-461.13
179.084	-379.22
179.304	71.34
179.524	-53.59
179.744	32.43
179.964	93.87
180.184	54.95
180.404	26.28
180.624	-10.58
180.844	-33.11
181.064	-119.12
181.283	-16.73
181.503	-43.35
181.723	-2.39
181.943	-108.88
182.163	153.26
182.383	-57.68
182.602	44.71
182.822	97.96
183.042	65.19
183.262	-14.68
183.482	-0.34
183.701	30.38
183.921	95.91
184.141	-57.68
184.361	124.58
184.58	81.58
184.8	50.86
185.02	54.95
185.239	104.11
185.459	85.67
185.679	157.35
185.898	-96.6
186.118	-2.39
186.338	67.24
186.557	71.34
186.777	-47.44
186.997	-14.68
187.216	48.81
187.436	138.92
187.655	69.29
187.875	75.43
188.095	-4.44
188.314	177.83
188.534	61.1
188.753	-61.78
188.973	151.21
189.192	186.02
189.412	20.14
189.631	48.81
189.851	73.39
190.07	179.88
190.29	-67.92
190.509	69.29
190.729	-37.2
190.948	147.11
191.168	206.5
191.387	100.01
191.607	18.09
191.826	36.52
192.045	9.9
192.265	46.76
192.484	20.14
192.704	42.67
192.923	-127.32
193.142	59.05
193.362	97.96
193.581	95.91
193.8	24.23
194.02	114.34
194.239	36.52
194.458	118.44
194.678	46.76
194.897	-24.92
195.116	30.38
195.335	100.01
195.555	143.02
195.774	-22.87
195.993	102.06
196.212	1.71
196.432	-135.51
196.651	36.52
196.87	38.57
197.089	192.17
197.308	44.71
197.528	128.68
197.747	-16.73
197.966	63.15
198.185	149.16
198.404	18.09
198.623	149.16
198.842	54.95
199.062	126.63
199.281	138.92
199.5	36.52
199.719	18.09
199.938	67.24
200.157	30.38
200.376	122.54
200.595	118.44
200.814	100.01
201.033	-49.49
201.252	157.35
201.471	130.73
201.69	50.86
201.909	77.48
202.128	-14.68
202.347	20.14
202.566	34.47
202.785	-29.01
203.004	5.8
203.223	249.51
203.442	20.14
203.661	-55.64
203.879	67.24
204.098	89.77
204.317	-55.64
204.536	118.44
204.755	16.04
204.974	140.97
205.193	61.1
205.411	143.02
205.63	102.06
205.849	28.33
206.068	-35.16
206.287	-49.49
206.505	57
206.724	-10.58
206.943	9.9
207.162	63.15
207.381	110.25
207.599	85.67
207.818	50.86
208.037	-0.34
208.255	42.67
208.474	79.53
208.693	77.48
208.911	-43.35
209.13	87.72
209.349	73.39
209.567	83.63
209.786	83.63
210.005	138.92
210.223	18.09
210.442	-4.44
210.661	30.38
210.879	65.19
211.098	61.1
211.316	18.09
211.535	22.19
211.753	171.69
211.972	95.91
212.191	-47.44
212.409	-16.73
212.628	63.15
212.846	-74.07
213.065	46.76
213.283	71.34
213.502	3.75
213.72	20.14
213.938	42.67
214.157	16.04
214.375	100.01
214.594	59.05
214.812	16.04
215.031	-22.87
215.249	-29.01
215.467	83.63
215.686	9.9
215.904	79.53
216.122	44.71
216.341	143.02
216.559	97.96
216.778	65.19
216.996	165.54
217.214	-35.16
217.432	32.43
217.651	-49.49
217.869	54.95
218.087	26.28
218.306	26.28
218.524	46.76
218.742	57
218.96	116.39
219.179	38.57
219.397	-20.82
219.615	192.17
219.833	173.74
220.051	-49.49
220.27	138.92
220.488	85.67
220.706	46.76
220.924	-29.01
221.142	-16.73
221.36	59.05
221.578	77.48
221.796	61.1
222.015	61.1
222.233	104.11
222.451	169.64
222.669	-78.16
222.887	100.01
223.105	-2.39
223.323	61.1
223.541	-39.25
223.759	83.63
223.977	102.06
224.195	36.52
224.413	130.73
224.631	24.23
224.849	114.34
225.067	218.79
225.285	1.71
225.503	-12.63
225.721	-72.02
225.939	46.76
226.157	48.81
226.375	251.56
226.592	13.99
226.81	57
227.028	155.3
227.246	132.78
227.464	128.68
227.682	93.87
227.9	91.82
228.117	28.33
228.335	63.15
228.553	-20.82
228.771	-69.97
228.989	-24.92
229.206	100.01
229.424	-63.83
229.642	38.57
229.86	3.75
230.077	110.25
230.295	116.39
230.513	50.86
230.731	104.11
230.948	206.5
231.166	118.44
231.384	-29.01
231.601	-22.87
231.819	159.4
232.037	7.85
232.254	-53.59
232.472	-20.82
232.689	16.04
232.907	63.15
233.125	-47.44
233.342	-74.07
233.56	-37.2
233.777	-49.49
233.995	7.85
234.213	132.78
234.43	79.53
234.648	16.04
234.865	36.52
235.083	61.1
235.3	54.95
235.518	126.63
235.735	134.82
235.953	59.05
236.17	18.09
236.388	-22.87
236.605	-51.54
236.822	134.82
237.04	63.15
237.257	32.43
237.475	-65.88
237.692	91.82
237.909	38.57
238.127	-43.35
238.344	140.97
238.562	63.15
238.779	-20.82
238.996	-39.25
239.214	50.86
239.431	11.95
239.648	13.99
239.865	63.15
240.083	89.77
240.3	87.72
240.517	-86.36
240.735	54.95
240.952	136.87
241.169	50.86
241.386	93.87
241.603	-33.11
241.821	-14.68
242.038	95.91
242.255	85.67
242.472	-53.59
242.689	102.06
242.907	57
243.124	65.19
243.341	36.52
243.558	-29.01
243.775	32.43
243.992	-65.88
244.209	153.26
244.426	192.17
244.643	67.24
244.86	79.53
245.078	65.19
245.295	46.76
245.512	63.15
245.729	-4.44
245.946	59.05
246.163	-41.3
246.38	7.85
246.597	85.67
246.814	59.05
247.031	26.28
247.248	38.57
247.464	91.82
247.681	44.71
247.898	36.52
248.115	97.96
248.332	-0.34
248.549	93.87
248.766	122.54
248.983	95.91
249.2	110.25
249.417	71.34
249.633	-20.82
249.85	85.67
250.067	16.04
250.284	-6.49
250.501	81.58
250.717	85.67
250.934	-57.68
251.151	-39.25
251.368	83.63
251.585	48.81
251.801	11.95
252.018	20.14
252.235	120.49
252.451	-51.54
252.668	40.62
252.885	102.06
253.102	40.62
253.318	-41.3
253.535	-2.39
253.752	-43.35
253.968	69.29
254.185	-47.44
254.401	20.14
254.618	13.99
254.835	59.05
255.051	140.97
255.268	44.71
255.484	36.52
255.701	-10.58
255.917	52.91
256.134	-61.78
256.351	26.28
256.567	-84.31
256.784	48.81
257	-88.4
257.217	93.87
257.433	106.15
257.65	57
257.866	85.67
258.082	-96.6
258.299	-61.78
258.515	112.3
258.732	38.57
258.948	-6.49
259.165	18.09
259.381	-29.01
259.597	132.78
259.814	73.39
260.03	11.95
260.246	83.63
260.463	179.88
260.679	97.96
260.895	54.95
261.112	65.19
261.328	65.19
261.544	42.67
261.761	181.93
261.977	-20.82
262.193	-100.69
262.409	67.24
262.626	59.05
262.842	13.99
263.058	38.57
263.274	65.19
263.49	38.57
263.707	89.77
263.923	118.44
264.139	-39.25
264.355	61.1
264.571	63.15
264.787	63.15
265.004	163.5
265.22	124.58
265.436	3.75
265.652	46.76
265.868	32.43
266.084	-22.87
266.3	18.09
266.516	-72.02
266.732	22.19
266.948	-24.92
267.164	-67.92
267.38	171.69
267.596	16.04
267.812	140.97
268.028	-20.82
268.244	69.29
268.46	91.82
268.676	5.8
268.892	20.14
269.108	-37.2
269.324	-35.16
269.54	3.75
269.756	153.26
269.972	-74.07
270.188	-24.92
270.403	32.43
270.619	18.09
270.835	40.62
271.051	-18.77
271.267	11.95
271.483	-51.54
271.698	69.29
271.914	61.1
272.13	30.38
272.346	46.76
272.562	-20.82
272.777	54.95
272.993	-29.01
273.209	-22.87
273.425	67.24
273.64	-55.64
273.856	77.48
274.072	-33.11
274.287	1.71
274.503	9.9
274.719	81.58
274.934	-82.26
275.15	-82.26
275.366	-39.25
275.581	9.9
275.797	40.62
276.012	145.06
276.228	26.28
276.444	5.8
276.659	124.58
276.875	5.8
277.09	-31.06
277.306	97.96
277.521	-8.53
277.737	44.71
277.952	124.58
278.168	93.87
278.383	16.04
278.599	20.14
278.814	120.49
279.03	28.33
279.245	194.22
279.461	110.25
279.676	140.97
279.892	-47.44
280.107	-8.53
280.322	36.52
280.538	42.67
280.753	-76.12
280.969	11.95
281.184	65.19
281.399	77.48
281.615	26.28
281.83	32.43
282.045	-80.21
282.26	-39.25
282.476	52.91
282.691	110.25
282.906	110.25
283.122	102.06
283.337	-45.4
283.552	69.29
283.767	-2.39
283.983	104.11
284.198	-33.11
284.413	89.77
284.628	-96.6
284.843	50.86
285.058	50.86
285.274	-14.68
285.489	11.95
285.704	89.77
285.919	38.57
286.134	44.71
286.349	46.76
286.564	52.91
286.779	157.35
286.995	-2.39
287.21	52.91
287.425	134.82
287.64	-14.68
287.855	177.83
288.07	-26.96
288.285	42.67
288.5	143.02
288.715	77.48
288.93	50.86
289.145	-29.01
289.36	91.82
289.575	7.85
289.79	212.65
290.004	-12.63
290.219	143.02
290.434	44.71
290.649	7.85
290.864	1.71
291.079	16.04
291.294	28.33
291.509	85.67
291.724	-29.01
291.938	-0.34
292.153	63.15
292.368	87.72
292.583	48.81
292.798	89.77
293.012	32.43
293.227	36.52
293.442	-22.87
293.657	91.82
293.871	143.02
294.086	57
294.301	89.77
294.516	149.16
294.73	5.8
294.945	18.09
295.16	67.24
295.374	124.58
295.589	16.04
295.804	-37.2
296.018	57
296.233	75.43
296.447	18.09
296.662	22.19
296.877	134.82
297.091	44.71
297.306	48.81
297.52	-59.73
297.735	59.05
297.949	36.52
298.164	34.47
298.378	34.47
298.593	-49.49
298.807	-14.68
299.022	65.19
299.236	155.3
299.451	-37.2
299.665	-10.58
299.88	104.11
300.094	65.19
300.309	-61.78
300.523	69.29
300.737	28.33
300.952	69.29
301.166	79.53
301.381	-24.92
301.595	7.85
301.809	38.57
302.024	18.09
302.238	11.95
302.452	149.16
302.667	61.1
302.881	134.82
303.095	110.25
303.309	34.47
303.524	-57.68
303.738	24.23
303.952	11.95
304.166	32.43
304.381	-110.93
304.595	163.5
304.809	-10.58
305.023	97.96
305.237	59.05
305.452	30.38
305.666	69.29
305.88	114.34
306.094	93.87
306.308	83.63
306.522	50.86
306.736	83.63
306.95	89.77
307.164	30.38
307.379	11.95
307.593	106.15
307.807	163.5
308.021	95.91
308.235	130.73
308.449	-151.89
308.663	-10.58
308.877	167.59
309.091	36.52
309.305	112.3
309.519	-65.88
309.733	93.87
309.947	-39.25
310.161	87.72
310.374	32.43
310.588	136.87
310.802	36.52
311.016	46.76
311.23	52.91
311.444	-31.06
311.658	-45.4
311.872	169.64
312.085	54.95
312.299	124.58
312.513	104.11
312.727	38.57
312.941	-53.59
313.154	50.86
313.368	36.52
313.582	18.09
313.796	44.71
314.009	83.63
314.223	112.3
314.437	116.39
314.651	75.43
314.864	42.67
315.078	-43.35
315.292	-49.49
315.505	54.95
315.719	128.68
315.933	79.53
316.146	28.33
316.36	32.43
316.573	110.25
316.787	100.01
317.001	42.67
317.214	3.75
317.428	46.76
317.641	-53.59
317.855	-51.54
318.068	69.29
318.282	28.33
318.495	249.51
318.709	136.87
318.922	26.28
319.136	149.16
319.349	67.24
319.563	34.47
319.776	100.01
319.99	-67.92
320.203	134.82
320.417	9.9
320.63	110.25
320.843	186.02
321.057	65.19
321.27	57
321.483	114.34
321.697	120.49
321.91	46.76
322.124	89.77
322.337	75.43
322.55	-0.34
322.763	61.1
322.977	48.81
323.19	1.71
323.403	67.24
323.617	-2.39
323.83	173.74
324.043	-31.06
324.256	-33.11
324.469	-51.54
324.683	100.01
324.896	3.75
325.109	1.71
325.322	-65.88
325.535	83.63
325.748	104.11
325.962	3.75
326.175	3.75
326.388	85.67
326.601	87.72
326.814	75.43
327.027	7.85
327.24	122.54
327.453	-98.64
327.666	126.63
327.879	226.98
328.092	124.58
328.305	16.04
328.518	-47.44
328.731	-61.78
328.944	-59.73
329.157	75.43
329.37	1.71
329.583	151.21
329.796	173.74
330.009	-0.34
330.222	102.06
330.435	46.76
330.648	-24.92
330.861	59.05
331.073	-0.34
331.286	136.87
331.499	26.28
331.712	-39.25
331.925	48.81
332.138	52.91
332.35	140.97
332.563	48.81
332.776	130.73
332.989	-43.35
333.202	-2.39
333.414	-29.01
333.627	5.8
333.84	28.33
334.053	85.67
334.265	-88.4
334.478	81.58
334.691	-31.06
334.903	22.19
335.116	-10.58
335.329	85.67
335.541	1.71
335.754	136.87
335.966	-53.59
336.179	-0.34
336.392	7.85
336.604	32.43
336.817	100.01
337.029	61.1
337.242	-2.39
337.454	61.1
337.667	42.67
337.88	91.82
338.092	28.33
338.305	79.53
338.517	-22.87
338.729	65.19
338.942	81.58
339.154	-121.17
339.367	-96.6
339.579	104.11
339.792	-33.11
340.004	59.05
340.217	42.67
340.429	85.67
340.641	9.9
340.854	-55.64
341.066	36.52
341.278	157.35
341.491	134.82
341.703	22.19
341.915	5.8
342.128	173.74
342.34	95.91
342.552	-31.06
342.764	7.85
342.977	59.05
343.189	18.09
343.401	24.23
343.613	50.86
343.826	61.1
344.038	-78.16
344.25	104.11
344.462	-24.92
344.674	69.29
344.886	7.85
345.099	116.39
345.311	91.82
345.523	48.81
345.735	-49.49
345.947	65.19
346.159	65.19
346.371	38.57
346.583	-6.49
346.795	210.6
347.007	32.43
347.219	3.75
347.431	-20.82
347.643	104.11
347.855	-53.59
348.067	196.26
348.279	-41.3
348.491	-72.02
348.703	83.63
348.915	22.19
349.127	-61.78
349.339	73.39
349.551	-6.49
349.763	77.48
349.975	40.62
350.187	102.06
350.399	145.06
350.61	44.71
350.822	3.75
351.034	124.58
351.246	54.95
351.458	100.01
351.669	108.2
351.881	126.63
352.093	89.77
352.305	143.02
352.517	42.67
352.728	79.53
352.94	81.58
353.152	50.86
353.363	-55.64
353.575	100.01
353.787	161.45
353.999	46.76
354.21	130.73
354.422	-102.74
354.633	11.95
354.845	50.86
355.057	77.48
355.268	18.09
355.48	110.25
355.692	-115.03
355.903	44.71
356.115	-29.01
356.326	-72.02
356.538	153.26
356.749	52.91
356.961	87.72
357.172	28.33
357.384	3.75
357.595	235.18
357.807	-33.11
358.018	71.34
358.23	44.71
358.441	132.78
358.653	16.04
358.864	52.91
359.075	-47.44
359.287	18.09
359.498	42.67
359.709	54.95
359.921	34.47
360.132	22.19
360.344	54.95
360.555	-8.53
360.766	71.34
360.977	-69.97
361.189	140.97
361.4	-14.68
361.611	114.34
361.823	97.96
362.034	42.67
362.245	-41.3
362.456	16.04
362.667	83.63
362.879	-153.94
363.09	54.95
363.301	40.62
363.512	-2.39
363.723	44.71
363.935	-41.3
364.146	50.86
364.357	40.62
364.568	59.05
364.779	46.76
364.99	136.87
365.201	-24.92
365.412	69.29
365.623	-94.55
365.834	122.54
366.045	-22.87
366.256	59.05
366.467	46.76
366.678	-31.06
366.889	-0.34
367.1	-10.58
367.311	110.25
367.522	-20.82
367.733	-37.2
367.944	63.15
368.155	3.75
368.366	61.1
368.577	44.71
368.788	91.82
368.999	5.8
369.209	118.44
369.42	202.41
369.631	249.51
369.842	36.52
370.053	59.05
370.264	57
370.474	-22.87
370.685	-6.49
370.896	13.99
371.107	134.82
371.317	110.25
371.528	71.34
371.739	75.43
371.95	16.04
372.16	65.19
372.371	-22.87
372.582	46.76
372.792	65.19
373.003	79.53
373.214	71.34
373.424	155.3
373.635	-115.03
373.846	87.72
374.056	7.85
374.267	26.28
374.477	48.81
374.688	-39.25
374.898	20.14
375.109	-8.53
375.319	-0.34
375.53	114.34
375.74	130.73
375.951	20.14
376.161	91.82
376.372	177.83
376.582	22.19
376.793	157.35
377.003	5.8
377.214	-12.63
377.424	89.77
377.635	50.86
377.845	-39.25
378.055	147.11
378.266	-31.06
378.476	3.75
378.686	75.43
378.897	7.85
379.107	61.1
379.317	16.04
379.528	-10.58
379.738	97.96
379.948	-26.96
380.158	40.62
380.369	-0.34
380.579	110.25
380.789	71.34
380.999	48.81
381.21	95.91
381.42	192.17
381.63	22.19
381.84	46.76
382.05	136.87
382.261	67.24
382.471	128.68
382.681	-4.44
382.891	173.74
383.101	52.91
383.311	-14.68
383.521	46.76
383.731	110.25
383.941	79.53
384.151	-78.16
384.361	54.95
384.571	69.29
384.781	30.38
384.991	163.5
385.201	181.93
385.411	61.1
385.621	63.15
385.831	36.52
386.041	69.29
386.251	40.62
386.461	87.72
386.671	20.14
386.881	143.02
387.091	67.24
387.301	147.11
387.511	61.1
387.72	3.75
387.93	13.99
388.14	-96.6
388.35	7.85
388.56	124.58
388.769	91.82
388.979	22.19
389.189	-115.03
389.399	126.63
389.609	63.15
389.818	67.24
390.028	95.91
390.238	89.77
390.447	46.76
390.657	69.29
390.867	-4.44
391.076	-61.78
391.286	-6.49
391.496	-0.34
391.705	120.49
391.915	46.76
392.125	167.59
392.334	9.9
392.544	128.68
392.753	46.76
392.963	73.39
393.172	24.23
393.382	20.14
393.591	128.68
393.801	-33.11
394.01	134.82
394.22	100.01
394.429	42.67
394.639	24.23
394.848	13.99
395.058	61.1
395.267	5.8
395.477	30.38
395.686	61.1
395.895	169.64
396.105	128.68
396.314	69.29
396.524	116.39
396.733	38.57
396.942	126.63
397.152	65.19
397.361	77.48
397.57	34.47
397.78	54.95
397.989	81.58
398.198	167.59
398.407	-4.44
398.617	61.1
398.826	-6.49
399.035	-4.44
399.244	20.14
399.453	11.95
399.663	54.95
399.872	75.43
400.081	-20.82
400.29	155.3
400.499	-63.83
400.708	159.4
400.917	-12.63
401.127	-4.44
401.336	-6.49
401.545	208.55
401.754	67.24
401.963	36.52
402.172	-16.73
402.381	9.9
402.59	71.34
402.799	67.24
403.008	102.06
403.217	44.71
403.426	130.73
403.635	3.75
403.844	79.53
404.053	-6.49
404.262	65.19
404.471	157.35
404.68	140.97
404.888	34.47
405.097	69.29
405.306	79.53
405.515	85.67
405.724	1.71
405.933	34.47
406.142	108.2
406.35	73.39
406.559	-22.87
406.768	28.33
406.977	132.78
407.185	42.67
407.394	83.63
407.603	-16.73
407.812	100.01
408.02	102.06
408.229	30.38
408.438	30.38
408.646	-59.73
408.855	40.62
409.064	71.34
409.272	3.75
409.481	89.77
409.69	-43.35
409.898	-2.39
410.107	73.39
410.315	155.3
410.524	-45.4
410.733	-12.63
410.941	67.24
411.15	71.34
411.358	52.91
411.567	106.15
411.775	18.09
411.984	110.25
412.192	126.63
412.401	-76.12
412.609	122.54
412.818	130.73
413.026	46.76
413.234	30.38
413.443	69.29
413.651	-63.83
413.86	26.28
414.068	40.62
414.276	157.35
414.485	-43.35
414.693	118.44
414.901	163.5
415.11	100.01
415.318	83.63
415.526	34.47
415.734	-6.49
415.943	11.95
416.151	163.5
416.359	81.58
416.567	61.1
416.776	67.24
416.984	93.87
417.192	163.5
417.4	50.86
417.608	-43.35
417.817	-47.44
418.025	81.58
418.233	192.17
418.441	11.95
418.649	-49.49
418.857	108.2
419.065	171.69
419.273	-10.58
419.481	52.91
419.689	69.29
419.897	38.57
420.105	-0.34
420.313	20.14
420.521	208.55
420.729	93.87
420.937	61.1
421.145	-41.3
421.353	97.96
421.561	151.21
421.769	61.1
421.977	69.29
422.185	114.34
422.393	85.67
422.601	100.01
422.809	18.09
423.017	73.39
423.224	102.06
423.432	130.73
423.64	-6.49
423.848	83.63
424.056	50.86
424.263	198.31
424.471	-88.4
424.679	114.34
424.887	-98.64
425.094	61.1
425.302	67.24
425.51	-2.39
425.718	87.72
425.925	16.04
426.133	97.96
426.341	214.7
426.548	-0.34
426.756	9.9
426.964	157.35
427.171	48.81
427.379	59.05
427.586	36.52
427.794	106.15
428.001	65.19
428.209	40.62
428.417	177.83
428.624	97.96
428.832	89.77
429.039	26.28
429.247	83.63
429.454	145.06
429.662	126.63
429.869	214.7
430.076	54.95
430.284	157.35
430.491	222.89
430.699	114.34
430.906	167.59
431.114	149.16
431.321	179.88
431.528	13.99
431.736	108.2
431.943	136.87
432.15	95.91
432.358	173.74
432.565	229.03
432.772	61.1
432.979	159.4
433.187	91.82
433.394	204.46
433.601	138.92
433.808	241.32
434.016	243.37
434.223	206.5
434.43	274.09
434.637	177.83
434.844	263.85
435.052	177.83
435.259	233.13
435.466	345.77
435.673	194.22
435.88	296.61
436.087	278.18
436.294	360.1
436.501	235.18
436.708	255.65
436.915	265.89
437.122	401.06
437.329	216.74
437.537	368.29
437.743	331.43
437.95	362.15
438.157	196.26
438.364	315.05
438.571	376.48
438.778	386.72
438.985	394.92
439.192	351.91
439.399	378.53
439.606	485.03
439.813	423.59
440.02	542.37
440.227	513.7
440.433	458.4
440.64	442.02
440.847	431.78
441.054	573.09
441.261	632.48
441.467	550.56
441.674	528.03
441.881	683.68
442.088	571.04
442.294	655.01
442.501	738.98
442.708	741.02
442.914	726.69
443.121	747.17
443.328	857.76
443.534	833.18
443.741	843.42
443.948	722.59
444.154	824.99
444.361	1103.51
444.568	984.73
444.774	917.15
444.981	863.9
445.187	1078.94
445.394	1042.07
445.6	988.83
445.807	1248.92
446.013	1121.95
446.22	1119.9
446.426	1273.5
446.633	1388.18
446.839	1607.31
447.046	1267.35
447.252	1504.92
447.459	1445.52
447.665	1468.05
447.871	1676.95
448.078	1801.87
448.284	1775.25
448.491	1814.16
448.697	1998.48
448.903	2051.72
449.11	1998.48
449.316	2041.48
449.522	2090.63
449.728	2260.62
449.935	2307.72
450.141	2268.81
450.347	2508.42
450.553	2446.98
450.76	2494.08
450.966	2735.74
451.172	2741.89
451.378	2858.62
451.584	3020.41
451.791	3184.25
451.997	3169.91
452.203	3329.66
452.409	3501.69
452.615	3667.57
452.821	3419.77
453.027	3559.03
453.233	3976.81
453.44	3923.57
453.646	4081.26
453.852	4175.47
454.058	4437.61
454.264	4441.7
454.47	4857.44
454.676	4933.22
454.882	5213.79
455.088	5115.48
455.294	5135.96
455.5	5781.07
455.705	6096.46
455.911	6014.54
456.117	6262.35
456.323	6307.4
456.529	6327.88
456.735	6966.85
456.941	7169.6
457.147	7519.8
457.352	7734.84
457.558	7976.5
457.764	8551.98
457.97	8543.78
458.176	8920.61
458.381	9537.05
458.587	9334.3
458.793	9999.89
458.999	9946.64
459.204	11210.24
459.41	11544.06
459.616	11275.77
459.821	11933.17
460.027	12692.97
460.233	13401.57
460.438	13102.56
460.644	14044.63
460.85	14224.85
461.055	14687.69
461.261	15414.72
461.466	15162.82
461.672	15422.91
461.878	17358.24
462.083	16893.35
462.289	17417.63
462.494	18023.83
462.7	18476.43
462.905	18472.34
463.111	19826.04
463.316	20974.95
463.522	21470.56
463.727	22261.08
463.932	22945.1
464.138	23381.32
464.343	24474.93
464.549	24759.6
464.754	26344.73
464.959	27082
465.165	27458.82
465.37	27165.96
465.575	27550.98
465.781	28992.75
465.986	30080.22
466.191	29816.04
466.397	29932.77
466.602	29236.46
466.807	30860.5
467.012	31472.84
467.218	31595.72
467.423	31999.17
467.628	32705.72
467.833	34817.18
468.038	33739.94
468.244	32965.81
468.449	35144.85
468.654	34315.42
468.859	34647.19
469.064	34319.52
469.269	33410.22
469.474	33809.57
469.679	34370.72
469.885	33612.97
470.09	34604.19
470.295	34055.33
470.5	33359.02
470.705	33483.95
470.91	32732.34
471.115	32406.72
471.32	32996.53
471.525	33072.31
471.73	31769.8
471.935	31671.5
472.139	30442.71
472.344	30153.95
472.549	30084.32
472.754	29746.4
472.959	28747
473.164	28136.7
473.369	27823.36
473.574	28562.68
473.778	27849.99
473.983	27536.65
474.188	27049.23
474.393	25808.16
474.598	25521.45
474.802	24986.93
475.007	24671.54
475.212	24583.48
475.417	23528.77
475.621	23090.51
475.826	23276.87
476.031	22510.93
476.235	21757.28
476.44	21910.88
476.645	21351.78
476.849	21288.29
477.054	20804.97
477.259	20290.93
477.463	20458.87
477.668	19832.19
477.872	19672.45
478.077	19283.33
478.282	18857.35
478.486	18693.52
478.691	18140.57
478.895	18496.91
479.1	18107.8
479.304	17921.43
479.509	17167.78
479.713	17808.79
479.918	17108.39
480.122	16553.39
480.326	16846.25
480.531	17141.16
480.735	16750
480.94	16221.62
481.144	17014.18
481.348	16188.85
481.553	16266.67
481.757	15801.79
481.961	15918.52
482.166	15912.38
482.37	15707.58
482.574	15179.2
482.778	15207.87
482.983	15396.29
483.187	15310.27
483.391	15142.34
483.595	14996.93
483.8	14530
484.004	14976.45
484.208	14867.91
484.412	14368.21
484.616	14521.81
484.821	14286.29
485.025	13868.5
485.229	14026.2
485.433	13626.84
485.637	13651.42
485.841	13073.89
486.045	13104.61
486.249	12979.68
486.453	12695.02
486.657	12662.25
486.861	12295.66
487.065	12162.55
487.269	12154.35
487.473	11509.24
487.677	11693.56
487.881	11785.72
488.085	11326.97
488.289	11138.56
488.493	10966.53
488.697	10903.04
488.901	10458.64
489.105	10372.62
489.309	10259.98
489.512	10128.91
489.716	9909.78
489.92	9618.97
490.124	9489.95
490.328	9463.32
490.531	9195.04
490.735	9262.62
490.939	8932.9
491.143	8662.57
491.346	8435.24
491.55	8515.11
491.754	8398.38
491.958	8293.93
492.161	8113.71
492.365	8039.98
492.569	7923.25
492.772	7536.18
492.976	7790.13
493.18	7472.7
493.383	7482.94
493.587	7265.85
493.79	7169.6
493.994	7196.22
494.197	6907.46
494.401	7038.53
494.605	6899.27
494.808	6952.51
495.012	6743.62
495.215	6725.19
495.419	6798.91
495.622	6635.08
495.825	6618.69
496.029	6571.59
496.232	6657.61
496.436	6366.79
496.639	6635.08
496.843	6428.23
497.046	6448.71
497.249	6798.91
497.453	6516.3
497.656	6532.68
497.859	6489.67
498.063	6479.43
498.266	6608.45
498.469	6579.78
498.673	6385.23
498.876	6553.16
499.079	6626.89
499.282	6633.03
499.485	6925.89
499.689	6712.9
499.892	6602.31
500.095	6800.96
500.298	6909.51
500.501	6800.96
500.705	7030.34
500.908	7038.53
501.111	7020.1
501.314	6987.33
501.517	7040.58
501.72	7261.76
501.923	7210.56
502.126	7384.63
502.329	7650.87
502.532	7532.09
502.735	7484.98
502.938	7796.28
503.141	7820.85
503.344	7802.42
503.547	8095.28
503.75	7878.19
503.953	8134.19
504.156	8273.45
504.359	8283.69
504.562	8470.06
504.765	8746.53
504.968	8904.23
505.17	8900.13
505.373	9002.53
505.576	9268.77
505.779	9121.31
505.982	9332.25
506.185	9723.41
506.387	9631.26
506.59	10051.09
506.793	10239.5
506.996	10268.17
507.198	10538.51
507.401	10745.35
507.604	10980.87
507.807	11195.9
508.009	11394.56
508.212	11666.94
508.415	11574.78
508.617	12109.3
508.82	12281.33
509.022	12326.38
509.225	12854.76
509.428	13209.06
509.63	13225.44
509.833	13645.27
510.035	14097.88
510.238	14218.71
510.44	14476.75
510.643	14759.37
510.845	15297.99
511.048	15484.35
511.25	15660.48
511.453	16053.69
511.655	16858.54
511.858	16911.78
512.06	17345.95
512.262	17733.02
512.465	17884.57
512.667	18460.05
512.87	18886.03
513.072	19189.13
513.274	19916.15
513.477	20047.22
513.679	20770.16
513.881	21253.48
514.084	21671.26
514.286	22013.27
514.488	22480.21
514.69	23129.42
514.893	23754.05
515.095	23983.42
515.297	24818.99
515.499	25027.88
515.701	25748.77
515.904	26221.85
516.106	26694.93
516.308	27383.05
516.51	27974.91
516.712	28572.92
516.914	29238.51
517.116	29668.58
517.318	30125.28
517.52	31024.34
517.722	31546.57
517.925	31782.09
518.127	32775.35
518.329	33012.91
518.531	33500.33
518.733	34215.07
518.935	34780.31
519.136	34948.25
519.338	35972.23
519.54	36467.84
519.742	37207.15
519.944	37401.71
520.146	38657.12
520.348	39171.16
520.55	39091.29
520.752	39703.63
520.954	40469.57
521.155	40336.45
521.357	41188.41
521.559	42249.25
521.761	42894.36
521.963	43054.11
522.164	43303.96
522.366	43062.3
522.568	44278.79
522.77	44368.9
522.971	45265.91
523.173	44798.98
523.375	45569.01
523.576	45896.69
523.778	46130.15
523.98	46691.3
524.181	47053.79
524.383	46928.86
524.584	47289.31
524.786	47174.62
524.988	47227.87
525.189	47670.23
525.391	47682.52
525.592	47608.79
525.794	47756.24
525.995	47696.85
526.197	47793.11
526.398	47463.38
526.6	47907.79
526.801	47834.06
527.003	47731.67
527.204	47684.56
527.406	47674.32
527.607	47277.02
527.808	47573.97
528.01	46386.15
528.211	46418.92
528.412	46892
528.614	46306.28
528.815	45861.87
529.016	46506.98
529.218	45138.94
529.419	45331.45
529.62	44678.14
529.822	44401.67
530.023	43963.4
530.224	44346.37
530.425	43064.35
530.626	42384.42
530.828	42058.79
531.029	42677.28
531.23	41462.83
531.431	40848.44
531.632	40672.32
531.833	40653.89
532.035	39687.25
532.236	39527.5
532.437	39429.2
532.638	38497.38
532.839	38292.58
533.04	38026.34
533.241	37002.36
533.442	37033.08
533.643	36150.4
533.844	35697.8
534.045	35513.48
534.246	34639
534.447	34712.73
534.648	34014.37
534.849	34018.47
535.05	33346.73
535.251	32836.79
535.451	32275.65
535.652	31941.83
535.853	31458.51
536.054	31446.22
536.255	30848.21
536.456	30274.78
536.657	30115.04
536.857	29539.56
537.058	28964.08
537.259	29111.53
537.46	28572.92
537.66	27778.31
537.861	27544.84
538.062	27219.21
538.263	27008.27
538.463	26711.32
538.664	26432.79
538.865	26041.63
539.065	25795.87
539.266	25052.46
539.466	25290.02
539.667	24495.41
539.868	24413.49
540.068	24141.11
540.269	23909.69
540.469	23819.58
540.67	23336.26
540.87	23604.55
541.071	22803.79
541.271	22699.34
541.472	22238.55
541.672	22318.42
541.873	21751.13
542.073	21216.61
542.274	21609.82
542.474	21157.22
542.675	20909.42
542.875	20907.37
543.075	20854.12
543.276	19737.98
543.476	20071.8
543.676	19885.44
543.877	19596.67
544.077	19154.31
544.277	19225.99
544.478	18904.46
544.678	18820.49
544.878	18427.28
545.078	17972.63
545.279	17816.99
545.479	17730.97
545.679	17771.93
545.879	17472.93
546.079	17388.96
546.28	16922.02
546.48	16743.85
546.68	16838.06
546.88	16702.89
547.08	16283.06
547.28	16260.53
547.48	15941.05
547.68	15961.53
547.88	15404.48
548.081	15480.25
548.281	15111.62
548.481	14904.78
548.681	14771.66
548.881	14532.04
549.081	14380.5
549.28	14149.07
549.48	14153.17
549.68	13942.23
549.88	13856.22
550.08	13415.9
550.28	13305.31
550.48	13303.26
550.68	13041.12
550.88	12707.3
551.08	12778.98
551.279	12596.71
551.479	12191.22
551.679	12060.15
551.879	11591.16
552.079	11755
552.278	11439.61
552.478	11603.45
552.678	11326.97
552.878	11296.25
553.077	11009.54
553.277	10702.34
553.477	10716.68
553.676	10509.83
553.876	10331.66
554.076	10112.53
554.275	9938.45
554.475	9737.75
554.674	9737.75
554.874	9633.3
555.074	9205.28
555.273	9137.7
555.473	9049.63
555.672	9076.26
555.872	8695.33
556.071	8640.04
556.271	8635.94
556.47	8492.59
556.67	8203.82
556.869	8156.72
557.068	8039.98
557.268	7759.41
557.467	7716.4
557.667	7798.32
557.866	7624.25
558.065	7265.85
558.265	7147.07
558.464	6993.47
558.663	6972.99
558.863	6874.69
559.062	6823.49
559.261	6594.12
559.461	6669.89
559.66	6559.3
559.859	6366.79
560.058	6227.53
560.258	6159.95
560.457	6016.59
560.656	6051.41
560.855	5527.13
561.054	5887.57
561.253	5799.51
561.453	5557.85
561.652	5654.1
561.851	5529.17
562.05	5271.13
562.249	5150.3
562.448	5242.46
562.647	5170.78
562.846	5072.48
563.045	4955.74
563.244	4814.43
563.443	4890.21
563.642	4724.32
563.841	4738.66
564.04	4593.25
564.239	4574.82
564.438	4232.81
564.637	4501.09
564.836	4185.71
565.035	4243.05
565.234	4103.79
565.432	4136.56
565.631	4150.89
565.83	4202.09
566.029	3841.65
566.228	3960.43
566.427	3892.85
566.625	3653.23
566.824	3681.91
567.023	3718.77
567.222	3573.36
567.42	3665.52
567.619	3585.65
567.818	3397.24
568.016	3622.52
568.215	3438.2
568.414	3282.55
568.612	3217.02
568.811	3257.98
569.01	3153.53
569.208	3200.63
569.407	3147.39
569.605	3106.43
569.804	2885.25
570.002	3010.17
570.201	2735.74
570.4	2963.07
570.598	2915.97
570.797	2752.13
570.995	2764.42
571.193	2727.55
571.392	2637.44
571.59	2592.39
571.789	2592.39
571.987	2580.1
572.186	2485.89
572.384	2453.13
572.582	2418.31
572.781	2436.74
572.979	2326.15
573.177	2365.06
573.376	2268.81
573.574	2303.62
573.772	2107.02
573.971	2051.72
574.169	2076.3
574.367	2195.08
574.565	1988.24
574.763	2004.62
574.962	2059.92
575.16	1851.02
575.358	1834.64
575.556	1838.73
575.754	1816.21
575.952	1750.67
576.151	1830.54
576.349	1840.78
576.547	1654.42
576.745	1754.77
576.943	1836.69
577.141	1695.38
577.339	1601.17
577.537	1678.99
577.735	1611.41
577.933	1613.46
578.131	1433.24
578.329	1640.08
578.527	1482.39
578.725	1554.07
578.923	1359.51
579.121	1443.48
579.319	1246.87
579.516	1402.52
579.714	1586.83
579.912	1361.56
580.11	1138.33
580.308	1371.8
580.506	1269.4
580.704	1156.76
580.901	1248.92
581.099	1365.65
581.297	1091.23
581.495	1218.2
581.692	1121.95
581.89	1347.22
582.088	1105.56
582.285	1119.9
582.483	1078.94
582.681	1019.55
582.878	1085.08
583.076	1052.31
583.274	1040.03
583.471	1058.46
583.669	947.87
583.866	843.42
584.064	876.19
584.262	882.33
584.459	902.81
584.657	945.82
584.854	980.64
585.052	943.77
585.249	908.96
585.447	902.81
585.644	804.51
585.841	1011.36
586.039	855.71
586.236	941.72
586.434	745.12
586.631	769.69
586.828	745.12
587.026	771.74
587.223	726.69
587.42	820.89
587.618	732.83
587.815	847.52
588.012	775.84
588.21	702.11
588.407	796.32
588.604	786.08
588.801	614.05
588.999	687.78
589.196	728.74
589.393	650.91
589.59	626.34
589.787	691.87
589.984	695.97
590.182	667.3
590.379	542.37
590.576	587.43
590.773	644.77
590.97	601.76
591.167	683.68
591.364	726.69
591.561	593.57
591.758	767.65
591.955	659.1
592.152	640.67
592.349	634.53
592.546	546.47
592.743	626.34
592.94	616.1
593.137	683.68
593.334	743.07
593.531	679.58
593.727	677.54
593.924	605.86
594.121	624.29
594.318	624.29
594.515	632.48
594.712	794.27
594.908	765.6
595.105	515.75
595.302	712.35
595.499	816.8
595.696	755.36
595.892	607.91
596.089	720.54
596.286	728.74
596.482	837.28
596.679	849.57
596.876	798.37
597.072	820.89
597.269	767.65
597.466	816.8
597.662	790.17
597.859	857.76
598.055	863.9
598.252	978.59
598.448	972.44
598.645	1015.45
598.841	1173.14
599.038	1226.39
599.234	1218.2
599.431	1078.94
599.627	1230.49
599.824	1298.07
600.02	1398.42
600.217	1228.44
600.413	1447.57
600.609	1392.28
600.806	1738.38
601.002	1570.45
601.198	1515.16
601.395	1633.94
601.591	1717.9
601.787	1957.52
601.984	1996.43
602.18	2016.91
602.376	2000.52
602.572	2117.26
602.769	2201.23
602.965	2209.42
603.161	2358.92
603.357	2393.73
603.553	2553.48
603.75	2492.04
603.946	2592.39
604.142	2653.83
604.338	2967.17
604.534	2862.72
604.73	2946.69
604.926	2969.21
605.122	3264.12
605.318	3200.63
605.514	3407.48
605.71	3456.63
605.906	3620.47
606.102	3688.05
606.298	3974.77
606.494	3919.47
606.69	4062.83
606.886	4064.88
607.082	4277.87
607.278	4277.87
607.474	4537.96
607.67	4591.2
607.866	4660.84
608.062	5031.52
608.257	5060.19
608.453	5205.6
608.649	5314.14
608.845	5260.89
609.041	5527.13
609.236	5772.88
609.432	5877.33
609.628	6155.85
609.824	6241.87
610.019	6266.44
610.215	6436.42
610.411	6778.44
610.606	6903.36
610.802	7073.34
610.998	7190.08
611.193	7482.94
611.389	7527.99
611.584	7794.23
611.78	7956.02
611.976	8050.22
612.171	8572.46
612.367	8699.43
612.562	8939.04
612.758	8906.27
612.953	9313.82
613.149	9725.46
613.344	9623.06
613.539	10243.6
613.735	10382.86
613.93	10456.59
614.126	10825.22
614.321	11212.29
614.517	11349.5
614.712	11537.91
614.907	11843.06
615.103	12250.61
615.298	12238.32
615.493	13014.5
615.688	12869.09
615.884	13764.06
616.079	13835.74
616.274	14290.38
616.47	14882.25
616.665	15041.99
616.86	15398.34
617.055	15441.34
617.25	15879.61
617.445	16811.43
617.641	16684.46
617.836	17010.09
618.031	17450.4
618.226	17929.63
618.421	18376.08
618.616	18822.54
618.811	19205.51
619.006	19750.27
619.201	19977.59
619.396	20684.14
619.591	20467.06
619.786	21722.46
619.981	21869.92
620.176	22502.74
620.371	22658.38
620.566	23170.38
620.761	23422.28
620.956	24493.36
621.151	24606
621.346	25171.24
621.541	25414.95
621.735	26109.21
621.93	25826.59
622.125	27114.76
622.32	27368.71
622.515	28022.02
622.709	28341.5
622.904	28718.32
623.099	29330.67
623.294	30065.89
623.488	30350.56
623.683	30895.32
623.878	31206.61
624.072	31734.98
624.267	32279.74
624.462	32945.33
624.656	33100.98
624.851	33950.88
625.046	34215.07
625.24	34731.16
625.435	34907.29
625.629	35493.01
625.824	35886.22
626.018	36922.49
626.213	36430.97
626.407	37588.08
626.602	37344.37
626.796	37868.65
626.991	37913.7
627.185	38980.7
627.38	39093.33
627.574	38798.43
627.768	39203.92
627.963	39423.06
628.157	39257.17
628.352	39740.49
628.546	38696.03
628.74	39779.4
628.935	39447.63
629.129	39658.57
629.323	39042.13
629.517	39064.66
629.712	39056.47
629.906	38446.18
630.1	37821.55
630.294	37925.99
630.489	36916.34
630.683	36711.55
630.877	35904.65
631.071	35474.57
631.265	35163.28
631.459	34348.19
631.653	33447.08
631.848	33031.35
632.042	31874.24
632.236	31376.59
632.43	30233.82
632.624	29623.53
632.818	28751.09
633.012	27546.89
633.206	26440.98
633.4	26391.83
633.594	25122.09
633.788	24290.62
633.982	23817.54
634.176	22652.24
634.369	21437.8
634.563	20862.32
634.757	20180.34
634.951	19559.81
635.145	18738.57
635.339	17964.44
635.533	17218.98
635.726	16788.91
635.92	15715.77
636.114	15070.66
636.308	14431.69
636.501	14001.62
636.695	13356.51
636.889	12819.94
637.083	12207.6
637.276	11777.53
637.47	11329.02
637.664	10767.88
637.857	10515.98
638.051	9856.53
638.244	9655.83
638.438	9283.1
638.632	9020.96
638.825	8218.16
639.019	8263.21
639.212	7953.97
639.406	7616.05
639.599	7171.65
639.793	6966.85
639.986	6581.83
640.18	6268.49
640.373	6088.27
640.567	5930.58
640.76	5713.49
640.954	5477.98
641.147	5197.4
641.34	4988.51
641.534	4787.81
641.727	4677.22
641.92	4671.08
642.114	4460.13
642.307	4206.19
642.5	4130.41
642.694	3901.04
642.887	3534.45
643.08	3782.26
643.273	3538.55
643.467	3423.86
643.66	3133.05
643.853	3053.18
644.046	2948.73
644.239	2760.32
644.432	2752.13
644.626	2528.9
644.819	2516.61
645.012	2440.84
645.205	2410.12
645.398	2340.49
645.591	2111.11
645.784	2115.21
645.977	1877.65
646.17	2008.72
646.363	1906.32
646.556	1605.27
646.749	1597.07
646.942	1586.83
647.135	1689.23
647.328	1586.83
647.521	1476.24
647.714	1400.47
647.907	1345.17
648.099	1287.83
648.292	1414.81
648.485	1261.21
648.678	1105.56
648.871	1132.19
649.064	1113.75
649.256	994.97
649.449	1042.07
649.642	925.34
649.835	906.91
650.027	796.32
650.22	951.96
650.413	800.41
650.605	806.56
650.798	743.07
650.991	749.22
651.183	720.54
651.376	702.11
651.568	747.17
651.761	741.02
651.954	728.74
652.146	638.62
652.339	671.39
652.531	630.43
652.724	497.32
652.916	564.9
653.109	364.2
653.301	650.91
653.494	593.57
653.686	482.98
653.879	581.28
654.071	560.8
654.263	472.74
654.456	452.26
654.648	501.41
654.84	456.36
655.033	327.33
655.225	511.65
655.417	306.85
655.61	503.46
655.802	558.75
655.994	499.36
656.186	304.81
656.379	376.48
656.571	294.57
656.763	362.15
656.955	368.29
657.148	351.91
657.34	384.68
657.532	300.71
657.724	261.8
657.916	286.37
658.108	407.2
658.3	308.9
658.492	339.62
658.684	202.41
658.876	396.96
659.068	151.21
659.26	177.83
659.452	218.79
659.644	331.43
659.836	376.48
660.028	202.41
660.22	245.41
660.412	251.56
660.604	173.74
660.796	233.13
660.988	292.52
661.18	183.98
661.372	267.94
661.563	194.22
661.755	143.02
661.947	93.87
662.139	130.73
662.331	202.41
662.522	132.78
662.714	126.63
662.906	77.48
663.097	153.26
663.289	188.07
663.481	34.47
663.673	155.3
663.864	138.92
664.056	249.51
664.247	26.28
664.439	315.05
664.631	173.74
664.822	165.54
665.014	196.26
665.205	95.91
665.397	130.73
665.588	181.93
665.78	145.06
665.971	140.97
666.163	67.24
666.354	171.69
666.546	149.16
666.737	108.2
666.929	157.35
667.12	147.11
667.311	114.34
667.503	91.82
667.694	108.2
667.885	210.6
668.077	173.74
668.268	28.33
668.459	167.59
668.651	200.36
668.842	85.67
669.033	87.72
669.224	83.63
669.416	323.24
669.607	138.92
669.798	42.67
669.989	194.22
670.18	212.65
670.371	237.22
670.563	11.95
670.754	179.88
670.945	128.68
671.136	253.61
671.327	122.54
671.518	308.9
671.709	263.85
671.9	218.79
672.091	253.61
672.282	188.07
672.473	192.17
672.664	77.48
672.855	181.93
673.046	282.28
673.237	300.71
673.428	208.55
673.619	186.02
673.809	214.7
674	220.84
674.191	177.83
674.382	97.96
674.573	65.19
674.764	226.98
674.954	272.04
675.145	95.91
675.336	171.69
675.527	134.82
675.717	159.4
675.908	237.22
676.099	89.77
676.289	202.41
676.48	128.68
676.671	196.26
676.861	188.07
677.052	177.83
677.243	104.11
677.433	114.34
677.624	249.51
677.814	306.85
678.005	181.93
678.195	323.24
678.386	104.11
678.576	210.6
678.767	91.82
678.957	224.94
679.148	212.65
679.338	323.24
679.529	317.09
679.719	239.27
679.909	265.89
680.1	325.29
680.29	265.89
680.481	124.58
680.671	224.94
680.861	241.32
681.052	321.19
681.242	202.41
681.432	231.08
681.622	177.83
681.813	204.46
682.003	257.7
682.193	140.97
682.383	345.77
682.573	290.47
682.764	296.61
682.954	243.37
683.144	335.53
683.334	269.99
683.524	216.74
683.714	347.81
683.904	333.48
684.094	245.41
684.284	339.62
684.474	390.82
684.664	349.86
684.854	368.29
685.044	294.57
685.234	335.53
685.424	388.77
685.614	284.33
685.804	417.44
685.994	394.92
686.184	380.58
686.374	358.05
686.564	388.77
686.753	261.8
686.943	233.13
687.133	300.71
687.323	300.71
687.513	362.15
687.702	233.13
687.892	280.23
688.082	376.48
688.272	392.87
688.461	323.24
688.651	585.38
688.841	353.96
689.03	323.24
689.22	364.2
689.41	364.2
689.599	319.14
689.789	282.28
689.979	429.73
690.168	364.2
690.358	339.62
690.547	317.09
690.737	286.37
690.926	325.29
691.116	421.54
691.305	319.14
691.495	403.11
691.684	220.84
691.874	253.61
692.063	257.7
692.252	364.2
692.442	425.64
692.631	286.37
692.82	259.75
693.01	319.14
693.199	300.71
693.388	288.42
693.578	296.61
693.767	364.2
693.956	360.1
694.146	341.67
694.335	372.39
694.524	272.04
694.713	472.74
694.902	212.65
695.092	329.38
695.281	384.68
695.47	325.29
695.659	300.71
695.848	333.48
696.037	235.18
696.226	362.15
696.415	356.01
696.604	419.49
696.793	366.25
696.982	300.71
697.171	399.01
697.36	251.56
697.549	280.23
697.738	255.65
697.927	272.04
698.116	255.65
698.305	417.44
698.494	366.25
698.683	239.27
698.872	399.01
699.061	265.89
699.25	345.77
699.438	331.43
699.627	278.18
699.816	495.27
700.005	196.26
700.193	261.8
700.382	310.95
700.571	345.77
700.76	239.27
700.948	239.27
701.137	437.92
701.326	378.53
701.514	202.41
701.703	204.46
701.892	245.41
702.08	364.2
702.269	267.94
702.457	214.7
702.646	337.57
702.834	335.53
703.023	347.81
703.212	358.05
703.4	327.33
703.589	216.74
703.777	237.22
703.965	229.03
704.154	362.15
704.342	259.75
704.531	243.37
704.719	302.76
704.907	347.81
705.096	284.33
705.284	183.98
705.472	224.94
705.661	409.25
705.849	298.66
706.037	298.66
706.226	263.85
706.414	290.47
706.602	190.12
706.79	351.91
706.979	327.33
707.167	280.23
707.355	186.02
707.543	306.85
707.731	249.51
707.919	280.23
708.107	253.61
708.296	269.99
708.484	186.02
708.672	296.61
708.86	282.28
709.048	343.72
709.236	292.52
709.424	313
709.612	319.14
709.8	249.51
709.988	229.03
710.176	310.95
710.364	382.63
710.551	308.9
710.739	300.71
710.927	214.7
711.115	368.29
711.303	374.44
711.491	411.3
711.679	284.33
711.866	269.99
712.054	390.82
712.242	376.48
712.43	362.15
712.617	253.61
712.805	345.77
712.993	272.04
713.181	226.98
713.368	323.24
713.556	347.81
713.744	282.28
713.931	497.32
714.119	417.44
714.306	315.05
714.494	304.81
714.682	235.18
714.869	200.36
715.057	323.24
715.244	261.8
715.432	337.57
715.619	241.32
715.807	278.18
715.994	255.65
716.182	341.67
716.369	382.63
716.556	407.2
716.744	208.55
716.931	241.32
717.119	356.01
717.306	290.47
717.493	382.63
717.681	274.09
717.868	306.85
718.055	353.96
718.242	315.05
718.43	294.57
718.617	378.53
718.804	259.75
718.991	421.54
719.179	386.72
719.366	280.23
719.553	382.63
719.74	327.33
719.927	292.52
720.114	308.9
720.301	192.17
720.488	296.61
720.676	220.84
720.863	392.87
721.05	466.6
721.237	370.34
721.424	360.1
721.611	384.68
721.798	272.04
721.985	343.72
722.172	366.25
722.358	306.85
722.545	257.7
722.732	337.57
722.919	425.64
723.106	315.05
723.293	292.52
723.48	362.15
723.667	290.47
723.853	491.17
724.04	317.09
724.227	421.54
724.414	286.37
724.6	331.43
724.787	579.23
724.974	536.23
725.161	364.2
725.347	243.37
725.534	396.96
725.72	313
725.907	499.36
726.094	409.25
726.28	325.29
726.467	317.09
726.653	333.48
726.84	470.69
727.027	444.07
727.213	366.25
727.4	460.45
727.586	362.15
727.773	323.24
727.959	388.77
728.145	413.35
728.332	345.77
728.518	337.57
728.705	460.45
728.891	356.01
729.077	421.54
729.264	360.1
729.45	396.96
729.636	487.08
729.823	407.2
730.009	429.73
730.195	390.82
730.382	452.26
730.568	351.91
730.754	460.45
730.94	390.82
731.126	448.16
731.313	356.01
731.499	409.25
731.685	487.08
731.871	528.03
732.057	421.54
732.243	409.25
732.429	419.49
732.615	493.22
732.801	351.91
732.987	429.73
733.173	433.83
733.359	425.64
733.545	423.59
733.731	343.72
733.917	419.49
734.103	435.88
734.289	513.7
734.475	380.58
734.661	679.58
734.847	313
735.033	364.2
735.219	427.68
735.404	405.16
735.59	372.39
735.776	321.19
735.962	413.35
736.148	460.45
736.333	478.88
736.519	472.74
736.705	331.43
736.89	321.19
737.076	515.75
737.262	329.38
737.447	306.85
737.633	358.05
737.819	437.92
738.004	335.53
738.19	392.87
738.375	487.08
738.561	562.85
738.747	439.97
738.932	290.47
739.118	513.7
739.303	468.64
739.489	460.45
739.674	399.01
739.859	304.81
740.045	605.86
740.23	421.54
740.416	345.77
740.601	495.27
740.786	323.24
740.972	315.05
741.157	427.68
741.342	339.62
741.528	343.72
741.713	476.84
741.898	368.29
742.084	464.55
742.269	313
742.454	405.16
742.639	536.23
742.824	356.01
743.01	513.7
743.195	501.41
743.38	444.07
743.565	409.25
743.75	460.45
743.935	409.25
744.12	505.51
744.305	267.94
744.49	339.62
744.675	353.96
744.86	327.33
745.045	470.69
745.23	433.83
745.415	335.53
745.6	530.08
745.785	372.39
745.97	485.03
746.155	433.83
746.34	423.59
746.525	433.83
746.71	442.02
746.895	308.9
747.079	417.44
747.264	356.01
747.449	458.4
747.634	360.1
747.819	444.07
748.003	341.67
748.188	245.41
748.373	392.87
748.557	308.9
748.742	425.64
748.927	405.16
749.111	284.33
749.296	390.82
749.481	423.59
749.665	347.81
749.85	243.37
750.034	433.83
750.219	413.35
750.404	333.48
750.588	353.96
750.773	249.51
750.957	259.75
751.141	399.01
751.326	417.44
751.51	255.65
751.695	306.85
751.879	349.86
752.064	456.36
752.248	356.01
752.432	466.6
752.617	286.37
752.801	353.96
752.985	265.89
753.17	454.31
753.354	294.57
753.538	335.53
753.722	216.74
753.907	308.9
754.091	245.41
754.275	290.47
754.459	267.94
754.643	276.13
754.828	269.99
755.012	257.7
755.196	231.08
755.38	259.75
755.564	194.22
755.748	384.68
755.932	327.33
756.116	229.03
756.3	339.62
756.484	114.34
756.668	259.75
756.852	171.69
757.036	231.08
757.22	198.31
757.404	253.61
757.588	231.08
757.772	253.61
757.956	167.59
758.14	319.14
758.323	161.45
758.507	204.46
758.691	183.98
758.875	288.42
759.059	353.96
759.242	171.69
759.426	265.89
759.61	253.61
759.794	196.26
759.977	278.18
760.161	433.83
760.345	351.91
760.528	267.94
760.712	173.74
760.895	192.17
761.079	204.46
761.263	120.49
761.446	97.96
761.63	179.88
761.813	409.25
761.997	112.3
762.18	143.02
762.364	315.05
762.547	100.01
762.731	200.36
762.914	145.06
763.098	253.61
763.281	163.5
763.464	188.07
763.648	122.54
763.831	100.01
764.015	83.63
764.198	243.37
764.381	97.96
764.564	222.89
764.748	143.02
764.931	206.5
765.114	124.58
765.297	200.36
765.481	114.34
765.664	202.41
765.847	83.63
766.03	231.08
766.213	151.21
766.397	95.91
766.58	155.3
766.763	288.42
766.946	169.64
767.129	132.78
767.312	140.97
767.495	147.11
767.678	122.54
767.861	143.02
768.044	145.06
768.227	220.84
768.41	155.3
768.593	108.2
768.776	237.22
768.959	128.68
769.142	300.71
769.324	108.2
769.507	124.58
769.69	167.59
769.873	157.35
770.056	331.43
770.239	69.29
770.421	151.21
770.604	132.78
770.787	112.3
770.97	163.5
771.152	100.01
771.335	126.63
771.518	95.91
771.7	167.59
771.883	171.69
772.066	128.68
772.248	110.25
772.431	226.98
772.613	149.16
772.796	89.77
772.978	93.87
773.161	155.3
773.343	102.06
773.526	110.25
773.708	36.52
773.891	-2.39
774.073	95.91
774.256	157.35
774.438	229.03
774.621	134.82
774.803	157.35
774.985	61.1
775.168	155.3
775.35	79.53
775.532	114.34
775.715	54.95
775.897	108.2
776.079	-12.63
776.261	130.73
776.444	110.25
776.626	122.54
776.808	110.25
776.99	61.1
777.173	77.48
777.355	167.59
777.537	54.95
777.719	100.01
777.901	40.62
778.083	67.24
778.265	-18.77
778.447	169.64
778.629	71.34
778.811	75.43
778.993	110.25
779.175	222.89
779.357	89.77
779.539	-47.44
779.721	24.23
779.903	153.26
780.085	-29.01
780.267	79.53
780.449	61.1
780.631	89.77
780.812	81.58
780.994	79.53
781.176	-10.58
781.358	1.71
781.54	-4.44
781.721	50.86
781.903	171.69
782.085	-12.63
782.267	143.02
782.448	-33.11
782.63	44.71
782.812	93.87
782.993	71.34
783.175	54.95
783.357	40.62
783.538	81.58
783.72	46.76
783.901	7.85
784.083	161.45
784.264	75.43
784.446	-37.2
784.627	-41.3
784.809	126.63
784.99	-20.82
785.172	145.06
785.353	30.38
785.535	48.81
785.716	54.95
785.897	-45.4
786.079	-2.39
786.26	-20.82
786.441	116.39
786.623	-92.5
786.804	34.47
786.985	48.81
787.167	87.72
787.348	7.85
787.529	-0.34
787.71	171.69
787.891	57
788.073	20.14
788.254	-24.92
788.435	87.72
788.616	-2.39
788.797	-76.12
788.978	89.77
789.159	7.85
789.34	177.83
789.522	30.38
789.703	-41.3
789.884	61.1
790.065	73.39
790.246	143.02
790.427	-12.63
790.607	120.49
790.788	114.34
790.969	-26.96
791.15	73.39
791.331	-4.44
791.512	54.95
791.693	-100.69
791.874	16.04
792.054	134.82
792.235	97.96
792.416	40.62
792.597	79.53
792.778	85.67
792.958	169.64
793.139	-37.2
793.32	67.24
793.5	-26.96
793.681	95.91
793.862	100.01
794.042	-29.01
794.223	-55.64
794.404	-65.88
794.584	-117.08
794.765	7.85
794.945	44.71
795.126	79.53
795.306	97.96
795.487	11.95
795.667	106.15
795.848	69.29
796.028	54.95
796.209	73.39
796.389	114.34
796.57	30.38
796.75	-86.36
796.93	79.53
797.111	-51.54
797.291	5.8
797.471	22.19
797.652	57
797.832	-43.35
798.012	116.39
798.192	-59.73
798.373	-31.06
798.553	-10.58
798.733	52.91
798.913	-20.82
799.093	18.09
799.274	40.62
799.454	79.53
799.634	75.43
799.814	122.54
799.994	81.58
800.174	67.24
800.354	69.29
800.534	-106.84
800.714	71.34
800.894	-74.07
801.074	-63.83
801.254	5.8
801.434	71.34
801.614	40.62
801.794	-33.11
801.974	1789.58
802.154	-33.11
802.334	57
802.514	1.71
802.693	-14.68
802.873	24.23
803.053	104.11
803.233	-8.53
803.413	-6.49
803.592	81.58
803.772	-31.06
803.952	50.86
804.131	-39.25
804.311	100.01
804.491	52.91
804.67	9.9
804.85	-14.68
805.03	102.06
805.209	69.29
805.389	-4.44
805.568	-6.49
805.748	83.63
805.928	7.85
806.107	28.33
806.287	38.57
806.466	16.04
806.646	-0.34
806.825	1.71
807.004	50.86
807.184	40.62
807.363	102.06
807.543	83.63
807.722	-51.54
807.901	93.87
808.081	67.24
808.26	-125.27
808.439	16.04
808.619	-20.82
808.798	-65.88
808.977	50.86
809.156	73.39
809.336	24.23
809.515	79.53
809.694	-98.64
809.873	-22.87
810.052	61.1
810.231	34.47
810.411	110.25
810.59	79.53
810.769	13.99
810.948	57
811.127	-135.51
811.306	-55.64
811.485	-45.4
811.664	102.06
811.843	24.23
812.022	7.85
812.201	-10.58
812.38	-65.88
812.559	-104.79
812.737	73.39
812.916	-129.36
813.095	-2.39
813.274	26.28
813.453	-26.96
813.632	61.1
813.811	50.86
813.989	-67.92
814.168	-45.4
814.347	-90.45
814.526	16.04
814.704	161.45
814.883	44.71
815.062	-57.68
815.24	71.34
815.419	-106.84
815.598	13.99
815.776	-37.2
815.955	11.95
816.133	-127.32
816.312	50.86
816.49	-82.26
816.669	-18.77
816.847	-59.73
817.026	1.71
817.204	-49.49
817.383	-31.06
817.561	-108.88
817.74	50.86
817.918	57
818.097	-57.68
818.275	1.71
818.453	57
818.632	13.99
818.81	-12.63
818.988	-43.35
819.167	40.62
819.345	20.14
819.523	-22.87
819.701	-12.63
819.879	50.86
820.058	-20.82
820.236	46.76
820.414	5.8
820.592	-12.63
820.77	-2.39
820.948	-33.11
821.127	-49.49
821.305	52.91
821.483	-69.97
821.661	40.62
821.839	42.67
822.017	-94.55
822.195	-2.39
822.373	73.39
822.551	-22.87
822.729	-22.87
822.907	-55.64
823.085	-8.53
823.262	20.14
823.44	-31.06
823.618	-53.59
823.796	13.99
823.974	-31.06
824.152	22.19
824.329	-14.68
824.507	81.58
824.685	71.34
824.863	-45.4
825.04	-24.92
825.218	30.38
825.396	40.62
825.574	3.75
825.751	36.52
825.929	54.95
826.107	-0.34
826.284	-0.34
826.462	73.39
826.639	-22.87
826.817	-127.32
826.994	42.67
827.172	-98.64
827.349	95.91
827.527	73.39
827.704	-2.39
827.882	32.43
828.059	50.86
828.237	-16.73
828.414	9.9
828.591	-149.84
828.769	-14.68
828.946	-61.78
829.124	59.05
829.301	11.95
829.478	24.23
829.655	48.81
829.833	67.24
830.01	-96.6
830.187	48.81
830.364	-104.79
830.542	7.85
830.719	118.44
830.896	40.62
831.073	-37.2
831.25	18.09
831.427	65.19
831.604	13.99
831.782	-35.16
831.959	42.67
832.136	-24.92
832.313	-37.2
832.49	-63.83
832.667	54.95
832.844	-2.39
833.021	63.15
833.198	30.38
833.374	13.99
833.551	59.05
833.728	-53.59
833.905	112.3
834.082	-98.64
834.259	24.23
834.436	22.19
834.612	-67.92
834.789	20.14
834.966	38.57
835.143	48.81
835.319	-41.3
835.496	-37.2
835.673	104.11
835.85	59.05
836.026	-29.01
836.203	110.25
836.38	-41.3
836.556	-112.98
836.733	-33.11
836.909	118.44
837.086	-18.77
837.262	-67.92
837.439	-29.01
837.616	-29.01
837.792	11.95
837.968	-2.39
838.145	-110.93
838.321	-10.58
838.498	73.39
838.674	67.24
838.851	30.38
839.027	-22.87
839.203	40.62
839.38	32.43
839.556	13.99
839.732	57
839.909	-26.96
840.085	73.39
840.261	-112.98
840.437	28.33
840.614	-65.88
840.79	83.63
840.966	75.43
841.142	63.15
841.318	-37.2
841.494	-24.92
841.671	52.91
841.847	-41.3
842.023	-59.73
842.199	-51.54
842.375	57
842.551	-61.78
842.727	-61.78
842.903	85.67
843.079	-110.93
843.255	87.72
843.431	40.62
843.607	-16.73
843.783	-119.12
843.959	26.28
844.134	-65.88
844.31	130.73
844.486	-14.68
844.662	-0.34
844.838	65.19
845.013	7.85
845.189	106.15
845.365	-2.39
845.541	-12.63
845.716	-0.34
845.892	104.11
846.068	59.05
846.244	-39.25
846.419	-0.34
846.595	-57.68
846.77	-69.97
846.946	140.97
847.122	3.75
847.297	-31.06
847.473	122.54
847.648	-135.51
847.824	24.23
847.999	-137.56
848.175	-24.92
848.35	-0.34
848.526	22.19
848.701	30.38
848.876	28.33
849.052	52.91
849.227	26.28
849.403	-37.2
849.578	-47.44
849.753	52.91
849.929	73.39
850.104	-88.4
850.279	-33.11
850.454	18.09
850.63	44.71
850.805	30.38
850.98	22.19
851.155	36.52
851.33	-8.53
851.505	-59.73
851.681	136.87
851.856	-96.6
852.031	-8.53
852.206	28.33
852.381	-53.59
852.556	28.33
852.731	73.39
852.906	52.91
853.081	24.23
853.256	83.63
853.431	1.71
853.606	-41.3
853.781	-76.12
853.956	-246.1
854.131	-14.68
854.305	-31.06
854.48	-63.83
854.655	-96.6
854.83	-90.45
855.005	-20.82
855.18	-47.44
855.354	59.05
855.529	54.95
855.704	7.85
855.879	81.58
856.053	-117.08
856.228	112.3
856.403	-104.79
856.577	67.24
856.752	-96.6
856.926	-6.49
857.101	16.04
857.276	-90.45
857.45	44.71
857.625	73.39
857.799	20.14
857.974	-61.78
858.148	-127.32
858.323	20.14
858.497	-72.02
858.672	-72.02
858.846	-74.07
859.02	57
859.195	-20.82
859.369	-24.92
859.543	-29.01
859.718	1.71
859.892	73.39
860.066	5.8
860.241	-39.25
860.415	-143.7
860.589	-41.3
860.763	-26.96
860.938	-39.25
861.112	-14.68
861.286	-88.4
861.46	-39.25
861.634	-16.73
861.808	-0.34
861.982	18.09
862.157	-76.12
862.331	-63.83
862.505	-80.21
862.679	-57.68
862.853	-20.82
863.027	5.8
863.201	65.19
863.375	-35.16
863.549	42.67
863.722	73.39
863.896	126.63
864.07	-90.45
864.244	-2.39
864.418	-10.58
864.592	61.1
864.766	16.04
864.939	-8.53
865.113	20.14
865.287	7.85
865.461	-108.88
865.634	-10.58
865.808	20.14
865.982	-82.26
866.156	-49.49
866.329	-125.27
866.503	13.99
866.676	61.1
866.85	40.62
867.024	-37.2
867.197	67.24
867.371	-0.34
867.544	28.33
867.718	-106.84
867.891	106.15
868.065	-18.77
868.238	11.95
868.412	42.67
868.585	85.67
868.759	-90.45
868.932	-35.16
869.105	-76.12
869.279	57
869.452	-57.68
869.625	61.1
869.799	-92.5
869.972	-96.6
870.145	1.71
870.319	11.95
870.492	-2.39
870.665	-90.45
870.838	-29.01
871.011	-127.32
871.185	13.99
871.358	-35.16
871.531	36.52
871.704	-49.49
871.877	-8.53
872.05	-16.73
872.223	-102.74
872.396	59.05
872.569	26.28
872.742	-90.45
872.915	22.19
873.088	-69.97
873.261	-47.44
873.434	50.86
873.607	11.95
873.78	63.15
873.953	-57.68
874.126	-4.44
874.299	48.81
874.471	-0.34
874.644	-49.49
874.817	38.57
874.99	87.72
875.163	28.33
875.335	20.14
875.508	-37.2
875.681	87.72
875.853	-18.77
876.026	30.38
876.199	54.95
876.371	-78.16
876.544	24.23
876.717	34.47
876.889	89.77
877.062	30.38
877.234	-37.2
877.407	5.8
877.579	-18.77
877.752	50.86
877.924	75.43
878.097	13.99
878.269	28.33
878.442	-74.07
878.614	-10.58
878.786	38.57
878.959	36.52
879.131	32.43
879.303	-129.36
879.476	-47.44
879.648	-8.53
879.82	-18.77
879.993	-39.25
880.165	-33.11
880.337	-112.98
880.509	-82.26
880.681	-49.49
880.854	-82.26
881.026	24.23
881.198	100.01
881.37	-55.64
881.542	-6.49
881.714	-94.55
881.886	50.86
882.058	42.67
882.23	7.85
882.402	65.19
882.574	54.95
882.746	104.11
882.918	46.76
883.09	42.67
883.262	11.95
883.434	65.19
883.606	-35.16
883.778	-47.44
883.95	30.38
884.122	-24.92
884.293	5.8
884.465	13.99
884.637	97.96
884.809	-84.31
884.98	-78.16
885.152	28.33
885.324	-8.53
885.496	-31.06
885.667	-65.88
885.839	57
886.011	63.15
886.182	38.57
886.354	9.9
886.525	-0.34
886.697	-10.58
886.869	-37.2
887.04	-49.49
887.212	97.96
887.383	112.3
887.555	-2.39
887.726	-0.34
887.897	24.23
888.069	-41.3
888.24	71.34
888.412	22.19
888.583	-39.25
888.754	-59.73
888.926	-47.44
889.097	-16.73
889.268	-84.31
889.44	13.99
889.611	-37.2
889.782	-104.79
889.953	-123.22
890.125	124.58
890.296	-67.92
890.467	-43.35
890.638	-2.39
890.809	-20.82
890.98	-88.4
891.151	67.24
891.323	130.73
891.494	57
891.665	-55.64
891.836	52.91
892.007	-55.64
892.178	-26.96
892.349	7.85
892.52	69.29
892.691	81.58
892.862	-69.97
893.032	-213.33
893.203	34.47
893.374	65.19
893.545	46.76
893.716	-53.59
893.887	18.09
894.057	-41.3
894.228	-0.34
894.399	5.8
894.57	83.63
894.74	-26.96
894.911	48.81
895.082	-57.68
895.253	-67.92
895.423	13.99
895.594	9.9
895.764	61.1
895.935	-117.08
896.106	-37.2
896.276	-18.77
896.447	85.67
896.617	-8.53
896.788	-2.39
896.958	-18.77
897.129	-49.49
897.299	-18.77
897.47	30.38
897.64	-8.53
897.81	20.14
897.981	28.33
898.151	-86.36
898.322	-8.53
898.492	79.53
898.662	-125.27
898.832	20.14
899.003	-31.06
899.173	5.8
899.343	-8.53
899.513	-78.16
