Data from USB4F104151__7__10-22-28-753.txt Node

Date: Wed Feb 26 10:22:28 EST 2025
User: louis
Spectrometer: USB4F10415
Trigger mode: 4
Integration Time (sec): 1.000000E-1
Scans to average: 1
Electric dark correction enabled: true
Nonlinearity correction enabled: false
Boxcar width: 0
XAxis mode: Wavelengths
Number of Pixels in Spectrum: 3648
>>>>>Begin Spectral Data<<<<<
178.204	-385.02
178.424	-385.02
178.644	-385.02
178.864	-407.55
179.084	-368.63
179.304	-75.77
179.524	-26.62
179.744	81.92
179.964	51.2
180.184	28.67
180.404	49.15
180.624	14.34
180.844	4.1
181.064	-77.82
181.283	-40.96
181.503	-8.19
181.723	0
181.943	-61.44
182.163	192.51
182.383	-8.19
182.602	49.15
182.822	79.87
183.042	139.26
183.262	-12.29
183.482	20.48
183.701	61.44
183.921	28.67
184.141	-30.72
184.361	26.62
184.58	86.01
184.8	92.16
185.02	6.14
185.239	167.93
185.459	83.97
185.679	139.26
185.898	-65.53
186.118	81.92
186.338	118.78
186.557	73.73
186.777	22.53
186.997	-16.38
187.216	88.06
187.436	135.17
187.655	49.15
187.875	98.3
188.095	12.29
188.314	178.17
188.534	86.01
188.753	-40.96
188.973	159.74
189.192	126.97
189.412	24.58
189.631	47.1
189.851	65.54
190.07	88.06
190.29	-40.96
190.509	-45.06
190.729	-8.19
190.948	86.01
191.168	215.04
191.387	51.2
191.607	65.54
191.826	88.06
192.045	88.06
192.265	-16.38
192.484	96.25
192.704	88.06
192.923	-71.68
193.142	174.08
193.362	131.07
193.581	225.28
193.8	47.1
194.02	83.97
194.239	53.25
194.458	129.02
194.678	-30.72
194.897	16.38
195.116	155.65
195.335	63.49
195.555	141.31
195.774	4.1
195.993	49.15
196.212	6.14
196.432	28.67
196.651	73.73
196.87	71.68
197.089	215.04
197.308	153.6
197.528	104.45
197.747	-90.11
197.966	26.62
198.185	194.56
198.404	0
198.623	184.32
198.842	129.02
199.062	145.41
199.281	174.08
199.5	-2.05
199.719	112.64
199.938	96.25
200.157	133.12
200.376	96.25
200.595	116.73
200.814	65.54
201.033	-55.3
201.252	204.8
201.471	106.49
201.69	172.03
201.909	106.49
202.128	151.55
202.347	122.88
202.566	83.97
202.785	-55.3
203.004	20.48
203.223	196.61
203.442	86.01
203.661	16.38
203.879	145.41
204.098	192.51
204.317	28.67
204.536	100.35
204.755	137.21
204.974	100.35
205.193	8.19
205.411	147.45
205.63	131.07
205.849	102.4
206.068	14.34
206.287	-28.67
206.505	180.22
206.724	22.53
206.943	67.58
207.162	40.96
207.381	83.97
207.599	-10.24
207.818	43.01
208.037	22.53
208.255	32.77
208.474	96.25
208.693	114.69
208.911	12.29
209.13	81.92
209.349	172.03
209.567	12.29
209.786	104.45
210.005	120.83
210.223	61.44
210.442	-69.63
210.661	6.14
210.879	176.13
211.098	20.48
211.316	102.4
211.535	116.73
211.753	88.06
211.972	114.69
212.191	2.05
212.409	61.44
212.628	81.92
212.846	63.49
213.065	102.4
213.283	133.12
213.502	49.15
213.72	81.92
213.938	69.63
214.157	30.72
214.375	94.21
214.594	32.77
214.812	104.45
215.031	34.82
215.249	45.06
215.467	67.58
215.686	180.22
215.904	49.15
216.122	67.58
216.341	221.18
216.559	55.3
216.778	61.44
216.996	182.27
217.214	61.44
217.432	0
217.651	-8.19
217.869	65.54
218.087	98.3
218.306	-24.58
218.524	147.45
218.742	32.77
218.96	59.39
219.179	49.15
219.397	24.58
219.615	249.85
219.833	94.21
220.051	32.77
220.27	108.54
220.488	135.17
220.706	112.64
220.924	-2.05
221.142	18.43
221.36	104.45
221.578	73.73
221.796	53.25
222.015	6.14
222.233	104.45
222.451	145.41
222.669	43.01
222.887	49.15
223.105	-22.53
223.323	-30.72
223.541	12.29
223.759	100.35
223.977	10.24
224.195	122.88
224.413	122.88
224.631	61.44
224.849	90.11
225.067	225.28
225.285	18.43
225.503	-75.77
225.721	-61.44
225.939	-36.86
226.157	43.01
226.375	210.94
226.592	0
226.81	69.63
227.028	124.93
227.246	126.97
227.464	141.31
227.682	122.88
227.9	75.77
228.117	104.45
228.335	61.44
228.553	14.34
228.771	28.67
228.989	92.16
229.206	81.92
229.424	45.06
229.642	24.58
229.86	-51.2
230.077	157.69
230.295	40.96
230.513	122.88
230.731	47.1
230.948	229.37
231.166	249.85
231.384	32.77
231.601	26.62
231.819	149.5
232.037	135.17
232.254	4.1
232.472	90.11
232.689	43.01
232.907	79.87
233.125	-20.48
233.342	-34.82
233.56	-10.24
233.777	-34.82
233.995	65.54
234.213	65.54
234.43	77.82
234.648	-49.15
234.865	49.15
235.083	65.54
235.3	79.87
235.518	61.44
235.735	172.03
235.953	73.73
236.17	28.67
236.388	59.39
236.605	43.01
236.822	124.93
237.04	112.64
237.257	61.44
237.475	-22.53
237.692	8.19
237.909	55.3
238.127	-8.19
238.344	98.3
238.562	6.14
238.779	-77.82
238.996	-96.25
239.214	77.82
239.431	116.73
239.648	28.67
239.865	118.78
240.083	94.21
240.3	-12.29
240.517	-26.62
240.735	10.24
240.952	153.6
241.169	51.2
241.386	45.06
241.603	104.45
241.821	-30.72
242.038	92.16
242.255	135.17
242.472	32.77
242.689	98.3
242.907	88.06
243.124	120.83
243.341	16.38
243.558	-2.05
243.775	-69.63
243.992	-22.53
244.209	106.49
244.426	245.76
244.643	108.54
244.86	69.63
245.078	67.58
245.295	129.02
245.512	45.06
245.729	-22.53
245.946	116.73
246.163	90.11
246.38	116.73
246.597	90.11
246.814	67.58
247.031	81.92
247.248	45.06
247.464	65.54
247.681	75.77
247.898	165.89
248.115	155.65
248.332	51.2
248.549	114.69
248.766	182.27
248.983	94.21
249.2	63.49
249.417	176.13
249.633	34.82
249.85	73.73
250.067	14.34
250.284	51.2
250.501	77.82
250.717	143.36
250.934	61.44
251.151	-14.34
251.368	77.82
251.585	6.14
251.801	77.82
252.018	-20.48
252.235	151.55
252.451	-10.24
252.668	2.05
252.885	169.98
253.102	83.97
253.318	47.1
253.535	124.93
253.752	51.2
253.968	8.19
254.185	-32.77
254.401	112.64
254.618	141.31
254.835	73.73
255.051	188.41
255.268	96.25
255.484	67.58
255.701	-16.38
255.917	20.48
256.134	-28.67
256.351	-10.24
256.567	6.14
256.784	88.06
257	-81.92
257.217	77.82
257.433	122.88
257.65	26.62
257.866	133.12
258.082	0
258.299	22.53
258.515	12.29
258.732	-90.11
258.948	22.53
259.165	0
259.381	22.53
259.597	79.87
259.814	-43.01
260.03	12.29
260.246	36.86
260.463	149.5
260.679	225.28
260.895	40.96
261.112	122.88
261.328	53.25
261.544	-59.39
261.761	194.56
261.977	-38.91
262.193	22.53
262.409	184.32
262.626	30.72
262.842	40.96
263.058	18.43
263.274	51.2
263.49	30.72
263.707	94.21
263.923	67.58
264.139	-20.48
264.355	59.39
264.571	139.26
264.787	116.73
265.004	141.31
265.22	14.34
265.436	-6.14
265.652	36.86
265.868	-53.25
266.084	-28.67
266.3	16.38
266.516	8.19
266.732	53.25
266.948	26.62
267.164	12.29
267.38	114.69
267.596	69.63
267.812	124.93
268.028	98.3
268.244	4.1
268.46	-6.14
268.676	61.44
268.892	36.86
269.108	67.58
269.324	-2.05
269.54	-36.86
269.756	186.37
269.972	20.48
270.188	20.48
270.403	-20.48
270.619	18.43
270.835	96.25
271.051	45.06
271.267	16.38
271.483	12.29
271.698	86.01
271.914	14.34
272.13	55.3
272.346	22.53
272.562	67.58
272.777	57.34
272.993	-4.1
273.209	43.01
273.425	114.69
273.64	-32.77
273.856	98.3
274.072	30.72
274.287	20.48
274.503	65.54
274.719	43.01
274.934	-75.77
275.15	-98.3
275.366	38.91
275.581	24.58
275.797	79.87
276.012	112.64
276.228	2.05
276.444	14.34
276.659	151.55
276.875	30.72
277.09	98.3
277.306	26.62
277.521	106.49
277.737	-14.34
277.952	112.64
278.168	79.87
278.383	12.29
278.599	55.3
278.814	26.62
279.03	69.63
279.245	165.89
279.461	77.82
279.676	81.92
279.892	-43.01
280.107	-10.24
280.322	38.91
280.538	40.96
280.753	-24.58
280.969	77.82
281.184	47.1
281.399	196.61
281.615	28.67
281.83	63.49
282.045	-8.19
282.26	-16.38
282.476	36.86
282.691	120.83
282.906	59.39
283.122	167.93
283.337	-32.77
283.552	63.49
283.767	-26.62
283.983	112.64
284.198	26.62
284.413	26.62
284.628	-12.29
284.843	65.54
285.058	86.01
285.274	-30.72
285.489	-8.19
285.704	208.89
285.919	-14.34
286.134	30.72
286.349	12.29
286.564	10.24
286.779	141.31
286.995	26.62
287.21	-120.83
287.425	65.54
287.64	24.58
287.855	14.34
288.07	-10.24
288.285	155.65
288.5	116.73
288.715	53.25
288.93	-20.48
289.145	-12.29
289.36	88.06
289.575	26.62
289.79	98.3
290.004	57.34
290.219	135.17
290.434	-26.62
290.649	20.48
290.864	8.19
291.079	16.38
291.294	49.15
291.509	100.35
291.724	24.58
291.938	75.77
292.153	49.15
292.368	26.62
292.583	63.49
292.798	110.59
293.012	65.54
293.227	83.97
293.442	-20.48
293.657	55.3
293.871	90.11
294.086	88.06
294.301	231.42
294.516	116.73
294.73	61.44
294.945	2.05
295.16	57.34
295.374	143.36
295.589	98.3
295.804	10.24
296.018	67.58
296.233	163.84
296.447	59.39
296.662	-32.77
296.877	157.69
297.091	16.38
297.306	53.25
297.52	16.38
297.735	88.06
297.949	59.39
298.164	12.29
298.378	51.2
298.593	-20.48
298.807	-34.82
299.022	34.82
299.236	190.46
299.451	-51.2
299.665	10.24
299.88	-18.43
300.094	159.74
300.309	28.67
300.523	114.69
300.737	-16.38
300.952	59.39
301.166	20.48
301.381	43.01
301.595	4.1
301.809	12.29
302.024	-22.53
302.238	26.62
302.452	122.88
302.667	36.86
302.881	135.17
303.095	18.43
303.309	126.97
303.524	40.96
303.738	36.86
303.952	45.06
304.166	129.02
304.381	-67.58
304.595	194.56
304.809	-12.29
305.023	32.77
305.237	36.86
305.452	69.63
305.666	118.78
305.88	161.79
306.094	77.82
306.308	67.58
306.522	61.44
306.736	86.01
306.95	59.39
307.164	6.14
307.379	30.72
307.593	96.25
307.807	159.74
308.021	71.68
308.235	49.15
308.449	-92.16
308.663	67.58
308.877	268.28
309.091	81.92
309.305	98.3
309.519	-61.44
309.733	94.21
309.947	0
310.161	129.02
310.374	153.6
310.588	137.21
310.802	12.29
311.016	18.43
311.23	77.82
311.444	12.29
311.658	67.58
311.872	135.17
312.085	88.06
312.299	149.5
312.513	184.32
312.727	88.06
312.941	-34.82
313.154	90.11
313.368	106.49
313.582	32.77
313.796	59.39
314.009	30.72
314.223	108.54
314.437	88.06
314.651	153.6
314.864	-32.77
315.078	104.45
315.292	-18.43
315.505	20.48
315.719	90.11
315.933	126.97
316.146	40.96
316.36	4.1
316.573	141.31
316.787	110.59
317.001	65.54
317.214	-40.96
317.428	-22.53
317.641	-69.63
317.855	28.67
318.068	83.97
318.282	147.45
318.495	135.17
318.709	110.59
318.922	30.72
319.136	163.84
319.349	57.34
319.563	-18.43
319.776	69.63
319.99	-36.86
320.203	120.83
320.417	-16.38
320.63	118.78
320.843	194.56
321.057	36.86
321.27	141.31
321.483	90.11
321.697	200.7
321.91	108.54
322.124	153.6
322.337	96.25
322.55	-81.92
322.763	98.3
322.977	-55.3
323.19	16.38
323.403	51.2
323.617	94.21
323.83	112.64
324.043	65.54
324.256	-4.1
324.469	-81.92
324.683	159.74
324.896	-45.06
325.109	143.36
325.322	-8.19
325.535	188.41
325.748	100.35
325.962	59.39
326.175	73.73
326.388	55.3
326.601	141.31
326.814	112.64
327.027	40.96
327.24	86.01
327.453	-40.96
327.666	147.45
327.879	118.78
328.092	106.49
328.305	20.48
328.518	-59.39
328.731	102.4
328.944	-32.77
329.157	94.21
329.37	92.16
329.583	223.23
329.796	182.27
330.009	-26.62
330.222	77.82
330.435	55.3
330.648	159.74
330.861	10.24
331.073	63.49
331.286	98.3
331.499	59.39
331.712	-20.48
331.925	36.86
332.138	8.19
332.35	100.35
332.563	32.77
332.776	124.93
332.989	12.29
333.202	40.96
333.414	100.35
333.627	36.86
333.84	14.34
334.053	86.01
334.265	55.3
334.478	2.05
334.691	26.62
334.903	77.82
335.116	-22.53
335.329	2.05
335.541	149.5
335.754	116.73
335.966	-14.34
336.179	53.25
336.392	-10.24
336.604	59.39
336.817	172.03
337.029	98.3
337.242	-12.29
337.454	38.91
337.667	67.58
337.88	229.37
338.092	135.17
338.305	102.4
338.517	18.43
338.729	67.58
338.942	165.89
339.154	-32.77
339.367	32.77
339.579	131.07
339.792	18.43
340.004	71.68
340.217	90.11
340.429	94.21
340.641	-49.15
340.854	-73.73
341.066	0
341.278	147.45
341.491	151.55
341.703	81.92
341.915	30.72
342.128	200.7
342.34	81.92
342.552	-32.77
342.764	8.19
342.977	55.3
343.189	81.92
343.401	96.25
343.613	-71.68
343.826	24.58
344.038	45.06
344.25	114.69
344.462	61.44
344.674	40.96
344.886	-20.48
345.099	167.93
345.311	102.4
345.523	86.01
345.735	-65.53
345.947	0
346.159	106.49
346.371	14.34
346.583	51.2
346.795	217.08
347.007	34.82
347.219	65.54
347.431	51.2
347.643	167.93
347.855	-73.73
348.067	155.65
348.279	-18.43
348.491	77.82
348.703	98.3
348.915	36.86
349.127	53.25
349.339	61.44
349.551	38.91
349.763	112.64
349.975	63.49
350.187	147.45
350.399	143.36
350.61	14.34
350.822	24.58
351.034	61.44
351.246	45.06
351.458	67.58
351.669	180.22
351.881	126.97
352.093	139.26
352.305	67.58
352.517	28.67
352.728	106.49
352.94	67.58
353.152	77.82
353.363	-38.91
353.575	106.49
353.787	184.32
353.999	75.77
354.21	139.26
354.422	38.91
354.633	83.97
354.845	147.45
355.057	-4.1
355.268	-24.58
355.48	139.26
355.692	8.19
355.903	61.44
356.115	-12.29
356.326	-12.29
356.538	133.12
356.749	75.77
356.961	129.02
357.172	49.15
357.384	-8.19
357.595	233.47
357.807	-32.77
358.018	73.73
358.23	100.35
358.441	174.08
358.653	131.07
358.864	55.3
359.075	38.91
359.287	131.07
359.498	155.65
359.709	90.11
359.921	-8.19
360.132	79.87
360.344	73.73
360.555	-2.05
360.766	51.2
360.977	8.19
361.189	112.64
361.4	38.91
361.611	43.01
361.823	102.4
362.034	108.54
362.245	-55.3
362.456	-38.91
362.667	81.92
362.879	-24.58
363.09	2.05
363.301	141.31
363.512	83.97
363.723	-63.49
363.935	32.77
364.146	151.55
364.357	6.14
364.568	96.25
364.779	-34.82
364.99	180.22
365.201	-4.1
365.412	129.02
365.623	-30.72
365.834	71.68
366.045	126.97
366.256	96.25
366.467	34.82
366.678	38.91
366.889	4.1
367.1	8.19
367.311	94.21
367.522	61.44
367.733	98.3
367.944	90.11
368.155	30.72
368.366	73.73
368.577	81.92
368.788	133.12
368.999	4.1
369.209	55.3
369.42	241.66
369.631	243.71
369.842	141.31
370.053	49.15
370.264	73.73
370.474	96.25
370.685	129.02
370.896	28.67
371.107	126.97
371.317	94.21
371.528	32.77
371.739	157.69
371.95	69.63
372.16	53.25
372.371	-4.1
372.582	36.86
372.792	49.15
373.003	90.11
373.214	-28.67
373.424	77.82
373.635	10.24
373.846	145.41
374.056	77.82
374.267	114.69
374.477	51.2
374.688	47.1
374.898	28.67
375.109	94.21
375.319	45.06
375.53	184.32
375.74	100.35
375.951	114.69
376.161	63.49
376.372	114.69
376.582	96.25
376.793	172.03
377.003	57.34
377.214	18.43
377.424	139.26
377.635	53.25
377.845	-4.1
378.055	120.83
378.266	6.14
378.476	28.67
378.686	108.54
378.897	92.16
379.107	141.31
379.317	112.64
379.528	32.77
379.738	79.87
379.948	14.34
380.158	104.45
380.369	28.67
380.579	110.59
380.789	26.62
380.999	43.01
381.21	96.25
381.42	118.78
381.63	28.67
381.84	43.01
382.05	116.73
382.261	145.41
382.471	151.55
382.681	14.34
382.891	198.65
383.101	104.45
383.311	-22.53
383.521	49.15
383.731	61.44
383.941	61.44
384.151	86.01
384.361	12.29
384.571	63.49
384.781	73.73
384.991	208.89
385.201	221.18
385.411	161.79
385.621	40.96
385.831	57.34
386.041	61.44
386.251	65.54
386.461	79.87
386.671	-34.82
386.881	96.25
387.091	77.82
387.301	133.12
387.511	98.3
387.72	49.15
387.93	126.97
388.14	-79.87
388.35	131.07
388.56	49.15
388.769	174.08
388.979	122.88
389.189	-4.1
389.399	16.38
389.609	32.77
389.818	67.58
390.028	43.01
390.238	112.64
390.447	22.53
390.657	69.63
390.867	12.29
391.076	-6.14
391.286	32.77
391.496	-4.1
391.705	65.54
391.915	196.61
392.125	129.02
392.334	34.82
392.544	139.26
392.753	47.1
392.963	22.53
393.172	67.58
393.382	14.34
393.591	153.6
393.801	26.62
394.01	180.22
394.22	90.11
394.429	83.97
394.639	-22.53
394.848	57.34
395.058	110.59
395.267	8.19
395.477	104.45
395.686	22.53
395.895	264.19
396.105	143.36
396.314	102.4
396.524	0
396.733	-6.14
396.942	100.35
397.152	116.73
397.361	96.25
397.57	110.59
397.78	83.97
397.989	86.01
398.198	215.04
398.407	-61.44
398.617	86.01
398.826	22.53
399.035	36.86
399.244	129.02
399.453	116.73
399.663	26.62
399.872	188.41
400.081	-59.39
400.29	190.46
400.499	-28.67
400.708	174.08
400.917	133.12
401.127	45.06
401.336	-2.05
401.545	116.73
401.754	190.46
401.963	149.5
402.172	63.49
402.381	-22.53
402.59	30.72
402.799	108.54
403.008	126.97
403.217	106.49
403.426	94.21
403.635	22.53
403.844	45.06
404.053	38.91
404.262	81.92
404.471	131.07
404.68	67.58
404.888	22.53
405.097	-22.53
405.306	83.97
405.515	153.6
405.724	77.82
405.933	94.21
406.142	73.73
406.35	176.13
406.559	20.48
406.768	77.82
406.977	157.69
407.185	61.44
407.394	139.26
407.603	-34.82
407.812	73.73
408.02	92.16
408.229	75.77
408.438	106.49
408.646	-22.53
408.855	2.05
409.064	86.01
409.272	34.82
409.481	98.3
409.69	22.53
409.898	18.43
410.107	20.48
410.315	36.86
410.524	14.34
410.733	65.54
410.941	34.82
411.15	180.22
411.358	32.77
411.567	172.03
411.775	108.54
411.984	88.06
412.192	79.87
412.401	32.77
412.609	163.84
412.818	120.83
413.026	118.78
413.234	-4.1
413.443	61.44
413.651	34.82
413.86	53.25
414.068	180.22
414.276	198.65
414.485	24.58
414.693	167.93
414.901	149.5
415.11	143.36
415.318	110.59
415.526	12.29
415.734	143.36
415.943	22.53
416.151	79.87
416.359	45.06
416.567	131.07
416.776	81.92
416.984	131.07
417.192	182.27
417.4	-51.2
417.608	4.1
417.817	0
418.025	114.69
418.233	161.79
418.441	-8.19
418.649	22.53
418.857	43.01
419.065	135.17
419.273	49.15
419.481	94.21
419.689	53.25
419.897	86.01
420.105	30.72
420.313	102.4
420.521	186.37
420.729	208.89
420.937	8.19
421.145	45.06
421.353	143.36
421.561	172.03
421.769	131.07
421.977	24.58
422.185	92.16
422.393	98.3
422.601	88.06
422.809	36.86
423.017	75.77
423.224	86.01
423.432	116.73
423.64	102.4
423.848	120.83
424.056	77.82
424.263	139.26
424.471	83.97
424.679	219.13
424.887	8.19
425.094	141.31
425.302	114.69
425.51	-24.58
425.718	184.32
425.925	163.84
426.133	22.53
426.341	176.13
426.548	124.93
426.756	94.21
426.964	65.54
427.171	38.91
427.379	100.35
427.586	106.49
427.794	96.25
428.001	204.8
428.209	-4.1
428.417	126.97
428.624	26.62
428.832	133.12
429.039	67.58
429.247	131.07
429.454	143.36
429.662	227.32
429.869	129.02
430.076	147.45
430.284	159.74
430.491	196.61
430.699	124.93
430.906	188.41
431.114	151.55
431.321	112.64
431.528	157.69
431.736	247.8
431.943	172.03
432.15	126.97
432.358	188.41
432.565	217.08
432.772	-4.1
432.979	235.52
433.187	143.36
433.394	208.89
433.601	131.07
433.808	292.86
434.016	215.04
434.223	217.08
434.43	292.86
434.637	286.72
434.844	204.8
435.052	278.52
435.259	311.29
435.466	239.61
435.673	307.2
435.88	198.65
436.087	301.05
436.294	299
436.501	258.04
436.708	284.67
436.915	282.62
437.122	393.21
437.329	245.76
437.537	239.61
437.743	290.81
437.95	440.31
438.157	397.31
438.364	350.2
438.571	419.83
438.778	481.27
438.985	430.07
439.192	491.51
439.399	417.79
439.606	389.11
439.813	479.22
440.02	571.38
440.227	655.35
440.433	516.09
440.64	522.23
440.847	468.98
441.054	540.66
441.261	688.12
441.467	636.92
441.674	561.14
441.881	581.62
442.088	544.76
442.294	753.65
442.501	784.37
442.708	778.23
442.914	858.1
443.121	786.42
443.328	765.94
443.534	956.4
443.741	804.85
443.948	802.8
444.154	942.07
444.361	1112.05
444.568	921.59
444.774	970.74
444.981	913.39
445.187	1062.9
445.394	1050.61
445.6	1093.62
445.807	1316.84
446.013	1257.45
446.22	1091.57
446.426	1339.37
446.633	1445.87
446.839	1484.78
447.046	1345.52
447.252	1535.98
447.459	1644.52
447.665	1587.18
447.871	1728.49
448.078	1880.04
448.284	1820.64
448.491	1871.84
448.697	1990.63
448.903	2084.83
449.11	2142.18
449.316	2070.5
449.522	2258.91
449.728	2373.6
449.935	2353.12
450.141	2394.08
450.347	2658.26
450.553	2557.91
450.76	2658.26
450.966	2904.02
451.172	2818.01
451.378	2918.36
451.584	2990.03
451.791	3317.71
451.997	3252.17
452.203	3344.33
452.409	3710.92
452.615	3704.78
452.821	3690.44
453.027	3762.12
453.233	4130.75
453.44	3977.16
453.646	4319.17
453.852	4343.74
454.058	4351.93
454.264	4669.37
454.47	5173.17
454.676	5089.2
454.882	5578.67
455.088	5279.66
455.294	5543.85
455.5	5996.45
455.705	6180.77
455.911	6125.47
456.117	6385.57
456.323	6733.72
456.529	6694.81
456.735	7153.55
456.941	7282.58
457.147	7585.68
457.352	7858.06
457.558	8081.28
457.764	8494.97
457.97	8652.67
458.176	9172.85
458.381	9664.36
458.587	9842.54
458.793	10133.35
458.999	10059.62
459.204	11568.98
459.41	11941.71
459.616	11843.4
459.821	12549.95
460.027	13131.58
460.233	13449.01
460.438	13496.11
460.644	14393.12
460.85	14483.24
461.055	15042.33
461.261	15683.34
461.466	15439.64
461.672	16002.83
461.878	17946.35
462.083	17479.41
462.289	17692.4
462.494	18677.47
462.7	18626.28
462.905	19115.74
463.111	20440.78
463.316	21530.3
463.522	21851.83
463.727	22359.72
463.932	23316.12
464.138	24372.88
464.343	24979.07
464.549	25417.34
464.754	26787.43
464.959	27936.34
465.165	28337.74
465.37	27848.28
465.575	27930.2
465.781	29894.2
465.986	30879.27
466.191	30047.8
466.397	30848.55
466.602	30293.55
466.807	31880.73
467.012	32204.31
467.218	32626.19
467.423	32978.44
467.628	33783.29
467.833	35354.08
468.038	34495.99
468.244	33785.34
468.449	35735.01
468.654	35046.89
468.859	34672.11
469.064	35034.6
469.269	34182.65
469.474	34782.7
469.679	35524.07
469.885	34457.07
470.09	35169.77
470.295	35210.73
470.5	34436.59
470.705	34606.58
470.91	33209.86
471.115	33459.71
471.32	33906.17
471.525	33715.71
471.73	32892.43
471.935	32032.28
472.139	31249.96
472.344	31770.14
472.549	31206.95
472.754	30860.84
472.959	29826.62
473.164	28784.2
473.369	28735.05
473.574	29398.59
473.778	28765.77
473.983	28137.04
474.188	27950.68
474.393	26367.6
474.598	26283.63
474.802	25837.17
475.007	25343.61
475.212	25257.6
475.417	23967.38
475.621	24194.7
475.826	23572.12
476.031	23068.32
476.235	22640.29
476.44	22601.38
476.645	21917.36
476.849	21841.59
477.054	21292.73
477.259	20807.36
477.463	20670.15
477.668	20430.54
477.872	20475.59
478.077	19814.1
478.282	19394.26
478.486	19003.1
478.691	18812.64
478.895	18986.72
479.1	18704.1
479.304	18552.55
479.509	17770.22
479.713	18153.19
479.918	17759.99
480.122	17268.47
480.326	17481.46
480.531	17512.18
480.735	16983.8
480.94	16701.19
481.144	17362.68
481.348	16502.53
481.553	16801.54
481.757	16080.65
481.961	16293.64
482.166	16480
482.37	15947.53
482.574	15892.24
482.778	15521.56
482.983	16076.55
483.187	15626
483.391	15609.62
483.595	15261.46
483.8	14974.75
484.004	15191.83
484.208	14964.51
484.412	14810.91
484.616	14847.77
484.821	14808.86
485.025	14085.93
485.229	14276.39
485.433	13815.6
485.637	13895.47
485.841	13666.1
486.045	13440.82
486.249	13387.57
486.453	12934.97
486.657	12969.79
486.861	12650.3
487.065	12214.09
487.269	12255.04
487.473	11933.51
487.677	12017.48
487.881	12064.58
488.085	11579.22
488.289	11468.62
488.493	11208.53
488.697	11112.28
488.901	11239.25
489.105	10841.95
489.309	10327.91
489.512	10297.19
489.716	10145.64
489.92	10004.33
490.124	9803.63
490.328	9617.26
490.531	9355.12
490.735	9201.52
490.939	9037.69
491.143	9060.21
491.346	8642.43
491.55	8761.21
491.754	8550.27
491.958	8310.66
492.161	8222.59
492.365	7982.98
492.569	7827.34
492.772	7784.33
492.976	7794.57
493.18	7614.35
493.383	7614.35
493.587	7452.56
493.79	7286.67
493.994	7038.87
494.197	7182.23
494.401	7010.2
494.605	6887.32
494.808	6999.96
495.012	6686.62
495.215	6674.33
495.419	6651.8
495.622	6637.47
495.825	6500.25
496.029	6580.12
496.232	6623.13
496.436	6369.18
496.639	6508.44
496.843	6240.16
497.046	6416.29
497.249	6571.93
497.453	6406.05
497.656	6375.33
497.859	6336.42
498.063	6356.89
498.266	6406.05
498.469	6404
498.673	6303.65
498.876	6201.25
499.079	6408.09
499.282	6463.39
499.485	6682.52
499.689	6533.02
499.892	6627.23
500.095	6428.57
500.298	6729.63
500.501	6545.31
500.705	6653.85
500.908	6584.22
501.111	6733.72
501.314	6860.7
501.517	6852.5
501.72	6983.57
501.923	6930.33
502.126	7108.5
502.329	7073.68
502.532	7118.74
502.735	7317.39
502.938	7399.31
503.141	7290.77
503.344	7311.25
503.547	7534.48
503.75	7561.1
503.953	7569.29
504.156	7688.07
504.359	7790.47
504.562	7876.49
504.765	8069
504.968	8224.64
505.17	8324.99
505.373	8163.2
505.576	8615.8
505.779	8589.18
505.982	8546.17
506.185	9035.64
506.387	8828.79
506.59	9166.71
506.793	9226.1
506.996	9523.05
507.198	9721.71
507.401	9686.89
507.604	9959.27
507.807	10018.66
508.009	10344.29
508.212	10604.38
508.415	10807.13
508.617	10930.01
508.82	10798.94
509.022	11218.77
509.225	11398.99
509.428	11603.79
509.63	12001.1
509.833	11886.41
510.035	12578.62
510.238	12349.25
510.44	12738.37
510.643	12924.73
510.845	13233.97
511.048	13524.79
511.25	13928.24
511.453	14202.66
511.655	14794.53
511.858	14673.7
512.06	15048.47
512.262	15402.77
512.465	15857.42
512.667	15935.24
512.87	16236.3
513.072	16848.64
513.274	17307.38
513.477	17649.39
513.679	18007.79
513.881	18183.91
514.084	18493.16
514.286	18816.74
514.488	19418.84
514.69	19969.74
514.893	20346.57
515.095	20502.22
515.297	21085.89
515.499	21444.28
515.701	21907.12
515.904	22324.91
516.106	22767.27
516.308	23410.33
516.51	23832.21
516.712	23969.43
516.914	24440.46
517.116	24979.07
517.318	25636.47
517.52	26130.03
517.722	26568.3
517.925	26861.16
518.127	27217.5
518.329	27756.12
518.531	27962.97
518.733	28266.06
518.935	29144.64
519.136	29308.48
519.338	30236.21
519.54	30492.21
519.742	30871.08
519.944	31436.32
520.146	31563.29
520.348	31981.08
520.55	32615.95
520.752	32968.2
520.954	33553.92
521.155	33347.08
521.357	33887.74
521.559	34211.32
521.761	35012.07
521.963	35093.99
522.164	35220.97
522.366	35284.45
522.568	35786.21
522.77	36476.37
522.971	36455.89
523.173	36574.67
523.375	37139.91
523.576	36845.01
523.778	37049.8
523.98	37768.64
524.181	37701.06
524.383	37526.98
524.584	37971.39
524.786	38137.27
524.988	37844.41
525.189	38204.86
525.391	38657.46
525.592	38051.26
525.794	38237.62
525.995	37940.67
526.197	38118.84
526.398	38278.58
526.6	38131.13
526.801	38071.74
527.003	38266.3
527.204	37467.59
527.406	37703.1
527.607	37371.33
527.808	37363.14
528.01	36466.13
528.211	36572.63
528.412	36902.35
528.614	36537.81
528.815	36290.01
529.016	36197.85
529.218	35593.7
529.419	35339.75
529.62	34602.48
529.822	34629.1
530.023	34485.75
530.224	34182.65
530.425	33756.67
530.626	33388.03
530.828	32593.42
531.029	33132.04
531.23	32101.91
531.431	32110.1
531.632	32026.14
531.833	31395.36
532.035	30963.24
532.236	30512.69
532.437	30522.93
532.638	29648.44
532.839	29550.14
533.04	29464.13
533.241	28556.88
533.442	28849.74
533.643	28376.65
533.844	27815.51
534.045	27477.6
534.246	26783.34
534.447	26699.37
534.648	26007.16
534.849	26257.01
535.05	25534.07
535.251	25128.58
535.451	25132.67
535.652	24764.04
535.853	24266.38
536.054	24143.5
536.255	23774.87
536.456	23064.22
536.657	23086.75
536.857	22619.81
537.058	22070.96
537.259	22384.3
537.46	21788.34
537.66	21331.64
537.861	21339.83
538.062	20805.31
538.263	20502.22
538.463	20369.1
538.664	20207.31
538.865	20016.85
539.065	19721.94
539.266	19033.82
539.466	19310.3
539.667	18912.99
539.868	18943.71
540.068	18564.84
540.269	18493.16
540.469	18198.25
540.67	17811.18
540.87	17501.94
541.071	17450.74
541.271	17362.68
541.472	17149.69
541.672	17084.16
541.873	16631.55
542.073	16168.71
542.274	16355.08
542.474	15920.91
542.675	15761.17
542.875	15740.69
543.075	15290.13
543.276	15124.25
543.476	15238.94
543.676	15066.91
543.877	14898.97
544.077	14849.82
544.277	14614.31
544.478	14317.35
544.678	14229.29
544.878	14190.38
545.078	13956.91
545.279	13825.84
545.479	13485.87
545.679	13334.32
545.879	13233.97
546.079	13195.06
546.28	13029.18
546.48	13033.27
546.68	12738.37
546.88	12492.61
547.08	12384.07
547.28	12281.67
547.48	11820.88
547.68	12232.52
547.88	11480.91
548.081	11726.67
548.281	11310.93
548.481	11310.93
548.681	11292.5
548.881	11024.22
549.081	11218.77
549.28	10864.47
549.48	10727.26
549.68	10624.86
549.88	10536.8
550.08	10264.42
550.28	9989.99
550.48	10088.29
550.68	9906.02
550.88	9762.67
551.08	9596.78
551.279	9398.13
551.479	9219.96
551.679	9203.57
551.879	8949.62
552.079	8882.04
552.278	8886.14
552.478	8789.88
552.678	8490.88
552.878	8464.25
553.077	8324.99
553.277	8175.49
553.477	8361.86
553.676	7767.95
553.876	7726.99
554.076	7819.14
554.275	7600.01
554.475	7454.61
554.674	7417.74
554.874	7262.1
555.074	7065.49
555.273	6885.27
555.473	6819.74
555.672	6616.99
555.872	6604.7
556.071	6537.12
556.271	6350.75
556.47	6393.76
556.67	6123.43
556.869	6152.1
557.068	6084.52
557.268	5928.87
557.467	5646.25
557.667	5941.16
557.866	5773.22
558.065	5527.47
558.265	5304.24
558.464	5259.18
558.663	5337.01
558.863	5148.59
559.062	5343.15
559.261	4978.61
559.461	5056.43
559.66	4939.7
559.859	4734.9
560.058	4806.58
560.258	4566.97
560.457	4528.06
560.656	4538.3
560.855	4353.98
561.054	4413.37
561.253	4315.07
561.453	4294.59
561.652	4102.08
561.851	4138.94
562.05	4018.11
562.249	3753.93
562.448	4069.31
562.647	3719.11
562.846	3803.08
563.045	3841.99
563.244	3624.9
563.443	3866.57
563.642	3547.08
563.841	3706.82
564.04	3592.14
564.239	3485.64
564.438	3475.4
564.637	3250.13
564.836	3270.61
565.035	3172.3
565.234	3100.62
565.432	3080.15
565.631	3334.09
565.83	3225.55
566.029	3117.01
566.228	2922.45
566.427	3059.67
566.625	2797.53
566.824	2852.82
567.023	2734.04
567.222	2883.54
567.42	2662.36
567.619	2772.95
567.818	2625.5
568.016	2822.1
568.215	2578.39
568.414	2514.91
568.612	2564.06
568.811	2537.43
569.01	2435.03
569.208	2445.27
569.407	2514.91
569.605	2363.36
569.804	2277.34
570.002	2330.59
570.201	2174.94
570.4	2306.01
570.598	2113.5
570.797	2205.66
570.995	2105.31
571.193	2174.94
571.392	2004.96
571.59	2004.96
571.789	2037.73
571.987	1941.47
572.186	1994.72
572.384	1972.19
572.582	1802.21
572.781	1949.67
572.979	1818.6
573.177	1705.96
573.376	1757.16
573.574	1877.99
573.772	1708.01
573.971	1517.54
574.169	1658.85
574.367	1761.25
574.565	1576.94
574.763	1497.07
574.962	1605.61
575.16	1644.52
575.358	1468.39
575.556	1470.44
575.754	1523.69
575.952	1497.07
576.151	1525.74
576.349	1544.17
576.547	1282.03
576.745	1337.32
576.943	1392.62
577.141	1329.13
577.339	1265.64
577.537	1302.51
577.735	1320.94
577.933	1234.93
578.131	1095.66
578.329	1366
578.527	1097.71
578.725	1271.79
578.923	974.83
579.121	1134.57
579.319	1030.13
579.516	1056.75
579.714	1230.83
579.912	1179.63
580.11	1028.08
580.308	1046.51
580.506	892.91
580.704	870.39
580.901	937.97
581.099	1048.56
581.297	1079.28
581.495	1030.13
581.692	1026.03
581.89	1112.05
582.088	890.87
582.285	964.59
582.483	786.42
582.681	837.62
582.878	872.43
583.076	872.43
583.274	802.8
583.471	878.58
583.669	890.87
583.866	665.59
584.064	772.08
584.262	647.16
584.459	724.98
584.657	708.6
584.854	780.28
585.052	815.09
585.249	745.46
585.447	737.27
585.644	606.2
585.841	696.31
586.039	776.18
586.236	700.41
586.434	716.79
586.631	673.78
586.828	688.12
587.026	624.63
587.223	561.14
587.42	636.92
587.618	669.69
587.815	702.45
588.012	612.34
588.21	571.38
588.407	653.3
588.604	694.26
588.801	618.49
588.999	589.82
589.196	679.93
589.393	542.71
589.59	622.58
589.787	634.87
589.984	626.68
590.182	616.44
590.379	528.38
590.576	634.87
590.773	438.27
590.97	468.98
591.167	647.16
591.364	636.92
591.561	520.18
591.758	559.1
591.955	569.34
592.152	595.96
592.349	487.42
592.546	567.29
592.743	557.05
592.94	563.19
593.137	657.4
593.334	589.82
593.531	616.44
593.727	585.72
593.924	622.58
594.121	501.75
594.318	516.09
594.515	591.86
594.712	649.21
594.908	587.77
595.105	475.13
595.302	526.33
595.499	589.82
595.696	770.04
595.892	540.66
596.089	659.45
596.286	569.34
596.482	776.18
596.679	716.79
596.876	645.11
597.072	669.69
597.269	649.21
597.466	712.69
597.662	686.07
597.859	724.98
598.055	770.04
598.252	872.43
598.448	888.82
598.645	890.87
598.841	942.07
599.038	950.26
599.234	1030.13
599.431	1124.33
599.627	1050.61
599.824	1107.95
600.02	1183.73
600.217	1120.24
600.413	1247.21
600.609	1198.06
600.806	1499.11
601.002	1404.91
601.198	1316.84
601.395	1570.79
601.591	1560.55
601.787	1546.22
601.984	1624.04
602.18	1570.79
602.376	1658.85
602.572	1923.04
602.769	1861.6
602.965	1918.95
603.161	2068.45
603.357	2158.56
603.553	2254.81
603.75	2064.35
603.946	2224.09
604.142	2351.07
604.338	2564.06
604.534	2441.18
604.73	2498.52
604.926	2656.22
605.122	2938.84
605.318	2820.05
605.514	3002.32
605.71	2961.36
605.906	3241.93
606.102	3190.74
606.298	3428.3
606.494	3401.68
606.69	3420.11
606.886	3565.51
607.082	3590.09
607.278	3803.08
607.474	3932.1
607.67	3878.85
607.866	3899.33
608.062	4255.68
608.257	4335.55
608.453	4460.48
608.649	4548.54
608.845	4501.44
609.041	4722.62
609.236	4923.32
609.432	5121.97
609.628	5324.72
609.824	5453.74
610.019	5394.35
610.215	5726.12
610.411	5924.77
610.606	5912.49
610.802	6131.62
610.998	6170.53
611.193	6424.48
611.389	6412.19
611.584	6770.58
611.78	6891.41
611.976	7301.01
612.171	7397.26
612.367	7389.07
612.562	7640.97
612.758	7960.45
612.953	7903.11
613.149	8286.08
613.344	8370.05
613.539	8716.15
613.735	8925.05
613.93	9260.91
614.126	9439.09
614.321	9811.82
614.517	9867.11
614.712	10014.57
614.907	10192.74
615.103	10770.27
615.298	10768.22
615.493	11208.53
615.688	11374.42
615.884	11855.69
616.079	11953.99
616.274	12584.77
616.47	12740.41
616.665	12840.76
616.86	13125.43
617.055	13412.15
617.25	14008.11
617.445	14274.34
617.641	14432.04
617.836	14874.4
618.031	15222.55
618.226	15695.63
618.421	16148.23
618.616	16592.64
618.811	16553.73
619.006	17407.73
619.201	17426.17
619.396	18011.89
619.591	17950.45
619.786	18726.63
619.981	19115.74
620.176	19771.09
620.371	19908.3
620.566	20428.49
620.761	20657.86
620.956	21579.45
621.151	21475
621.346	22279.85
621.541	21943.99
621.735	23162.53
621.93	23230.11
622.125	23658.13
622.32	23936.66
622.515	24516.23
622.709	24780.42
622.904	25206.4
623.099	25560.7
623.294	26506.86
623.488	26676.84
623.683	27424.35
623.878	27276.9
624.072	28098.13
624.267	28552.78
624.462	28997.19
624.656	29156.93
624.851	30053.94
625.046	29998.65
625.24	30672.43
625.435	30838.31
625.629	31684.12
625.824	31880.73
626.018	32183.83
626.213	32480.78
626.407	33197.57
626.602	33369.6
626.796	33994.23
626.991	33738.24
627.185	34430.45
627.38	34520.56
627.574	34838
627.768	35010.03
627.963	35089.9
628.157	35184.1
628.352	35726.81
628.546	34735.6
628.74	35694.05
628.935	35282.41
629.129	35460.58
629.323	34921.96
629.517	34932.2
629.712	34780.65
629.906	34483.7
630.1	34084.34
630.294	33981.95
630.489	33639.93
630.683	33721.85
630.877	32689.68
631.071	32134.68
631.265	31573.53
631.459	31223.33
631.653	30516.78
631.848	29888.06
632.042	28833.35
632.236	28511.82
632.43	27557.47
632.624	26984.04
632.818	26328.69
633.012	25329.28
633.206	24657.54
633.4	24053.39
633.594	22988.45
633.788	22484.65
633.982	21438.14
634.176	20987.58
634.369	20027.09
634.563	19388.12
634.757	18710.24
634.951	17962.73
635.145	17270.52
635.339	16682.75
635.533	16262.92
635.726	15466.26
635.92	14651.17
636.114	14333.73
636.308	13471.54
636.501	13186.87
636.695	12590.91
636.889	11835.21
637.083	11401.04
637.276	11089.75
637.47	10614.62
637.664	10166.12
637.857	9832.3
638.051	9496.43
638.244	8800.12
638.438	8646.52
638.632	8384.38
638.825	7899.02
639.019	7657.36
639.212	7208.85
639.406	7341.97
639.599	6766.49
639.793	6510.49
639.986	6113.19
640.18	6041.51
640.373	5978.02
640.567	5615.53
640.76	5236.66
640.954	5257.14
641.147	4923.32
641.34	4698.04
641.534	4739
641.727	4544.44
641.92	4392.89
642.114	4110.27
642.307	3958.72
642.5	3971.01
642.694	3604.43
642.887	3555.27
643.08	3563.47
643.273	3358.67
643.467	3088.34
643.66	3026.9
643.853	2828.24
644.046	2863.06
644.239	2746.33
644.432	2596.82
644.626	2504.67
644.819	2457.56
645.012	2342.88
645.205	2312.16
645.398	2328.54
645.591	2148.32
645.784	1912.8
645.977	1886.18
646.17	1765.35
646.363	1837.03
646.556	1722.34
646.749	1578.98
646.942	1632.23
647.135	1576.94
647.328	1511.4
647.521	1472.49
647.714	1292.27
647.907	1310.7
648.099	1169.39
648.292	1251.31
648.485	1279.98
648.678	1202.16
648.871	1046.51
649.064	1015.79
649.256	960.5
649.449	942.07
649.642	925.68
649.835	974.83
650.027	913.39
650.22	995.31
650.413	772.08
650.605	817.14
650.798	825.33
650.991	712.69
651.183	770.04
651.376	772.08
651.568	643.06
651.761	688.12
651.954	626.68
652.146	536.57
652.339	612.34
652.531	602.1
652.724	493.56
652.916	526.33
653.109	376.83
653.301	548.86
653.494	532.47
653.686	532.47
653.879	509.94
654.071	475.13
654.263	417.79
654.456	415.74
654.648	520.18
654.84	438.27
655.033	315.39
655.225	538.62
655.417	280.57
655.61	458.75
655.802	382.97
655.994	430.07
656.186	319.48
656.379	382.97
656.571	290.81
656.763	309.24
656.955	212.99
657.148	229.37
657.34	407.55
657.532	256
657.724	247.8
657.916	315.39
658.108	376.83
658.3	317.44
658.492	321.53
658.684	196.61
658.876	313.34
659.068	237.56
659.26	190.46
659.452	167.93
659.644	253.95
659.836	358.39
660.028	276.48
660.22	194.56
660.412	317.44
660.604	219.13
660.796	237.56
660.988	344.06
661.18	204.8
661.372	219.13
661.563	247.8
661.755	161.79
661.947	73.73
662.139	163.84
662.331	180.22
662.522	270.33
662.714	104.45
662.906	210.94
663.097	122.88
663.289	210.94
663.481	6.14
663.673	208.89
663.864	155.65
664.056	286.72
664.247	137.21
664.439	284.67
664.631	172.03
664.822	139.26
665.014	184.32
665.205	122.88
665.397	67.58
665.588	151.55
665.78	143.36
665.971	223.23
666.163	176.13
666.354	204.8
666.546	118.78
666.737	180.22
666.929	108.54
667.12	57.34
667.311	92.16
667.503	141.31
667.694	165.89
667.885	122.88
668.077	225.28
668.268	49.15
668.459	67.58
668.651	163.84
668.842	153.6
669.033	98.3
669.224	79.87
669.416	264.19
669.607	69.63
669.798	143.36
669.989	278.52
670.18	57.34
670.371	155.65
670.563	65.54
670.754	157.69
670.945	131.07
671.136	208.89
671.327	83.97
671.518	233.47
671.709	307.2
671.9	202.75
672.091	266.24
672.282	83.97
672.473	159.74
672.664	47.1
672.855	98.3
673.046	198.65
673.237	184.32
673.428	192.51
673.619	186.37
673.809	159.74
674	227.32
674.191	256
674.382	122.88
674.573	116.73
674.764	88.06
674.954	198.65
675.145	102.4
675.336	73.73
675.527	94.21
675.717	124.93
675.908	159.74
676.099	6.14
676.289	124.93
676.48	30.72
676.671	145.41
676.861	18.43
677.052	163.84
677.243	34.82
677.433	102.4
677.624	137.21
677.814	96.25
678.005	118.78
678.195	217.08
678.386	49.15
678.576	100.35
678.767	81.92
678.957	116.73
679.148	253.95
679.338	190.46
679.529	204.8
679.719	129.02
679.909	247.8
680.1	145.41
680.29	241.66
680.481	71.68
680.671	245.76
680.861	167.93
681.052	149.5
681.242	167.93
681.432	102.4
681.622	110.59
681.813	98.3
682.003	147.45
682.193	106.49
682.383	172.03
682.573	169.98
682.764	141.31
682.954	174.08
683.144	241.66
683.334	159.74
683.524	178.17
683.714	253.95
683.904	190.46
684.094	135.17
684.284	188.41
684.474	309.24
684.664	221.18
684.854	276.48
685.044	104.45
685.234	165.89
685.424	192.51
685.614	129.02
685.804	290.81
685.994	167.93
686.184	129.02
686.374	215.04
686.564	149.5
686.753	184.32
686.943	83.97
687.133	114.69
687.323	194.56
687.513	227.32
687.702	86.01
687.892	182.27
688.082	208.89
688.272	215.04
688.461	286.72
688.651	393.21
688.841	278.52
689.03	147.45
689.22	251.9
689.41	247.8
689.599	219.13
689.789	92.16
689.979	243.71
690.168	143.36
690.358	280.57
690.547	239.61
690.737	198.65
690.926	215.04
691.116	202.75
691.305	215.04
691.495	178.17
691.684	141.31
691.874	180.22
692.063	208.89
692.252	221.18
692.442	235.52
692.631	135.17
692.82	145.41
693.01	256
693.199	122.88
693.388	206.84
693.578	92.16
693.767	251.9
693.956	204.8
694.146	231.42
694.335	223.23
694.524	110.59
694.713	194.56
694.902	182.27
695.092	190.46
695.281	282.62
695.47	145.41
695.659	159.74
695.848	174.08
696.037	67.58
696.226	294.91
696.415	180.22
696.604	292.86
696.793	217.08
696.982	108.54
697.171	260.09
697.36	102.4
697.549	116.73
697.738	59.39
697.927	167.93
698.116	69.63
698.305	182.27
698.494	118.78
698.683	202.75
698.872	286.72
699.061	67.58
699.25	153.6
699.438	143.36
699.627	139.26
699.816	323.58
700.005	65.54
700.193	161.79
700.382	202.75
700.571	157.69
700.76	215.04
700.948	163.84
701.137	290.81
701.326	253.95
701.514	65.54
701.703	178.17
701.892	190.46
702.08	401.4
702.269	153.6
702.457	79.87
702.646	215.04
702.834	194.56
703.023	194.56
703.212	262.14
703.4	172.03
703.589	90.11
703.777	126.97
703.965	40.96
704.154	75.77
704.342	167.93
704.531	112.64
704.719	180.22
704.907	274.43
705.096	169.98
705.284	-6.14
705.472	149.5
705.661	161.79
705.849	182.27
706.037	223.23
706.226	251.9
706.414	104.45
706.602	172.03
706.79	239.61
706.979	141.31
707.167	233.47
707.355	49.15
707.543	176.13
707.731	225.28
707.919	204.8
708.107	192.51
708.296	114.69
708.484	120.83
708.672	217.08
708.86	174.08
709.048	196.61
709.236	108.54
709.424	212.99
709.612	221.18
709.8	90.11
709.988	159.74
710.176	239.61
710.364	215.04
710.551	178.17
710.739	200.7
710.927	194.56
711.115	118.78
711.303	325.63
711.491	235.52
711.679	114.69
711.866	192.51
712.054	137.21
712.242	251.9
712.43	235.52
712.617	135.17
712.805	204.8
712.993	137.21
713.181	98.3
713.368	276.48
713.556	163.84
713.744	104.45
713.931	329.72
714.119	251.9
714.306	151.55
714.494	155.65
714.682	141.31
714.869	71.68
715.057	174.08
715.244	55.3
715.432	196.61
715.619	172.03
715.807	145.41
715.994	186.37
716.182	192.51
716.369	237.56
716.556	264.19
716.744	36.86
716.931	186.37
717.119	239.61
717.306	118.78
717.493	223.23
717.681	147.45
717.868	159.74
718.055	280.57
718.242	210.94
718.43	245.76
718.617	282.62
718.804	184.32
718.991	270.33
719.179	188.41
719.366	249.85
719.553	210.94
719.74	212.99
719.927	159.74
720.114	196.61
720.301	151.55
720.488	167.93
720.676	114.69
720.863	223.23
721.05	311.29
721.237	221.18
721.424	329.72
721.611	245.76
721.798	163.84
721.985	143.36
722.172	282.62
722.358	202.75
722.545	262.14
722.732	260.09
722.919	321.53
723.106	180.22
723.293	180.22
723.48	256
723.667	188.41
723.853	235.52
724.04	210.94
724.227	325.63
724.414	210.94
724.6	245.76
724.787	294.91
724.974	360.44
725.161	192.51
725.347	219.13
725.534	239.61
725.72	182.27
725.907	319.48
726.094	208.89
726.28	219.13
726.467	212.99
726.653	194.56
726.84	278.52
727.027	380.92
727.213	231.42
727.4	272.38
727.586	251.9
727.773	245.76
727.959	212.99
728.145	296.96
728.332	237.56
728.518	182.27
728.705	309.24
728.891	256
729.077	274.43
729.264	206.84
729.45	239.61
729.636	356.35
729.823	251.9
730.009	364.54
730.195	303.1
730.382	229.37
730.568	198.65
730.754	278.52
730.94	360.44
731.126	284.67
731.313	323.58
731.499	229.37
731.685	309.24
731.871	346.11
732.057	217.08
732.243	309.24
732.429	309.24
732.615	362.49
732.801	270.33
732.987	215.04
733.173	358.39
733.359	280.57
733.545	292.86
733.731	292.86
733.917	335.87
734.103	288.76
734.289	282.62
734.475	296.96
734.661	434.17
734.847	294.91
735.033	305.15
735.219	319.48
735.404	301.05
735.59	247.8
735.776	251.9
735.962	417.79
736.148	344.06
736.333	370.68
736.519	356.35
736.705	256
736.89	309.24
737.076	301.05
737.262	251.9
737.447	237.56
737.633	251.9
737.819	407.55
738.004	331.77
738.19	364.54
738.375	358.39
738.561	360.44
738.747	307.2
738.932	237.56
739.118	493.56
739.303	436.22
739.489	311.29
739.674	233.47
739.859	284.67
740.045	378.87
740.23	317.44
740.416	233.47
740.601	299
740.786	333.82
740.972	247.8
741.157	288.76
741.342	282.62
741.528	221.18
741.713	387.07
741.898	309.24
742.084	260.09
742.269	311.29
742.454	317.44
742.639	311.29
742.824	329.72
743.01	329.72
743.195	382.97
743.38	276.48
743.565	327.68
743.75	305.15
743.935	284.67
744.12	405.5
744.305	241.66
744.49	305.15
744.675	212.99
744.86	256
745.045	335.87
745.23	352.25
745.415	325.63
745.6	505.85
745.785	229.37
745.97	354.3
746.155	395.26
746.34	407.55
746.525	253.95
746.71	364.54
746.895	225.28
747.079	288.76
747.264	321.53
747.449	331.77
747.634	442.36
747.819	315.39
748.003	204.8
748.188	284.67
748.373	372.73
748.557	301.05
748.742	278.52
748.927	260.09
749.111	235.52
749.296	186.37
749.481	362.49
749.665	358.39
749.85	215.04
750.034	292.86
750.219	319.48
750.404	233.47
750.588	268.28
750.773	167.93
750.957	198.65
751.141	241.66
751.326	378.87
751.51	212.99
751.695	202.75
751.879	196.61
752.064	446.46
752.248	278.52
752.432	356.35
752.617	323.58
752.801	292.86
752.985	260.09
753.17	278.52
753.354	327.68
753.538	317.44
753.722	219.13
753.907	241.66
754.091	73.73
754.275	331.77
754.459	188.41
754.643	143.36
754.828	217.08
755.012	262.14
755.196	83.97
755.38	251.9
755.564	153.6
755.748	202.75
755.932	190.46
756.116	245.76
756.3	292.86
756.484	196.61
756.668	229.37
756.852	194.56
757.036	186.37
757.22	245.76
757.404	145.41
757.588	184.32
757.772	235.52
757.956	157.69
758.14	278.52
758.323	184.32
758.507	256
758.691	217.08
758.875	249.85
759.059	245.76
759.242	155.65
759.426	155.65
759.61	221.18
759.794	163.84
759.977	239.61
760.161	374.78
760.345	301.05
760.528	204.8
760.712	253.95
760.895	241.66
761.079	110.59
761.263	129.02
761.446	145.41
761.63	153.6
761.813	321.53
761.997	110.59
762.18	196.61
762.364	266.24
762.547	-2.05
762.731	212.99
762.914	145.41
763.098	110.59
763.281	202.75
763.464	126.97
763.648	135.17
763.831	104.45
764.015	57.34
764.198	198.65
764.381	131.07
764.564	161.79
764.748	221.18
764.931	235.52
765.114	108.54
765.297	262.14
765.481	86.01
765.664	194.56
765.847	6.14
766.03	272.38
766.213	194.56
766.397	151.55
766.58	40.96
766.763	256
766.946	69.63
767.129	196.61
767.312	106.49
767.495	159.74
767.678	116.73
767.861	204.8
768.044	126.97
768.227	145.41
768.41	32.77
768.593	92.16
768.776	184.32
768.959	53.25
769.142	251.9
769.324	67.58
769.507	96.25
769.69	135.17
769.873	200.7
770.056	292.86
770.239	161.79
770.421	188.41
770.604	137.21
770.787	118.78
770.97	143.36
771.152	139.26
771.335	184.32
771.518	63.49
771.7	206.84
771.883	221.18
772.066	6.14
772.248	145.41
772.431	169.98
772.613	155.65
772.796	106.49
772.978	122.88
773.161	124.93
773.343	16.38
773.526	36.86
773.708	55.3
773.891	-16.38
774.073	116.73
774.256	92.16
774.438	210.94
774.621	104.45
774.803	147.45
774.985	172.03
775.168	169.98
775.35	155.65
775.532	151.55
775.715	75.77
775.897	194.56
776.079	63.49
776.261	36.86
776.444	104.45
776.626	71.68
776.808	126.97
776.99	14.34
777.173	143.36
777.355	122.88
777.537	79.87
777.719	86.01
777.901	49.15
778.083	36.86
778.265	2.05
778.447	116.73
778.629	65.54
778.811	120.83
778.993	167.93
779.175	176.13
779.357	100.35
779.539	24.58
779.721	59.39
779.903	137.21
780.085	34.82
780.267	92.16
780.449	135.17
780.631	139.26
780.812	143.36
780.994	104.45
781.176	55.3
781.358	-22.53
781.54	102.4
781.721	73.73
781.903	167.93
782.085	55.3
782.267	102.4
782.448	-24.58
782.63	73.73
782.812	79.87
782.993	116.73
783.175	65.54
783.357	67.58
783.538	28.67
783.72	22.53
783.901	51.2
784.083	75.77
784.264	122.88
784.446	22.53
784.627	-57.34
784.809	147.45
784.99	-61.44
785.172	98.3
785.353	32.77
785.535	67.58
785.716	86.01
785.897	14.34
786.079	34.82
786.26	38.91
786.441	30.72
786.623	32.77
786.804	45.06
786.985	16.38
787.167	139.26
787.348	36.86
787.529	94.21
787.71	196.61
787.891	114.69
788.073	40.96
788.254	-24.58
788.435	227.32
788.616	67.58
788.797	61.44
788.978	8.19
789.159	43.01
789.34	51.2
789.522	0
789.703	45.06
789.884	161.79
790.065	69.63
790.246	180.22
790.427	6.14
790.607	22.53
790.788	106.49
790.969	45.06
791.15	143.36
791.331	-36.86
791.512	55.3
791.693	6.14
791.874	53.25
792.054	202.75
792.235	116.73
792.416	-38.91
792.597	-16.38
792.778	63.49
792.958	69.63
793.139	135.17
793.32	38.91
793.5	8.19
793.681	86.01
793.862	20.48
794.042	77.82
794.223	-75.77
794.404	77.82
794.584	10.24
794.765	34.82
794.945	14.34
795.126	59.39
795.306	71.68
795.487	32.77
795.667	43.01
795.848	45.06
796.028	55.3
796.209	102.4
796.389	131.07
796.57	-26.62
796.75	51.2
796.93	-2.05
797.111	-24.58
797.291	-16.38
797.471	139.26
797.652	-51.2
797.832	-32.77
798.012	110.59
798.192	-6.14
798.373	-55.3
798.553	43.01
798.733	92.16
798.913	-26.62
799.093	-81.92
799.274	100.35
799.454	75.77
799.634	81.92
799.814	51.2
799.994	12.29
800.174	16.38
800.354	26.62
800.534	-57.34
800.714	86.01
800.894	-43.01
801.074	-49.15
801.254	20.48
801.434	126.97
801.614	-26.62
801.794	-86.01
801.974	1748.97
802.154	12.29
802.334	114.69
802.514	-110.59
802.693	8.19
802.873	-14.34
803.053	188.41
803.233	49.15
803.413	36.86
803.592	79.87
803.772	-71.68
803.952	38.91
804.131	-53.25
804.311	100.35
804.491	163.84
804.67	2.05
804.85	-83.97
805.03	49.15
805.209	81.92
805.389	30.72
805.568	-18.43
805.748	10.24
805.928	65.54
806.107	165.89
806.287	112.64
806.466	34.82
806.646	-59.39
806.825	45.06
807.004	45.06
807.184	88.06
807.363	83.97
807.543	65.54
807.722	-81.92
807.901	110.59
808.081	83.97
808.26	-169.98
808.439	38.91
808.619	88.06
808.798	-43.01
808.977	75.77
809.156	88.06
809.336	18.43
809.515	73.73
809.694	-45.06
809.873	-51.2
810.052	75.77
810.231	188.41
810.411	77.82
810.59	169.98
810.769	2.05
810.948	51.2
811.127	-59.39
811.306	-45.06
811.485	-8.19
811.664	245.76
811.843	75.77
812.022	55.3
812.201	-28.67
812.38	-12.29
812.559	8.19
812.737	90.11
812.916	-34.82
813.095	10.24
813.274	104.45
813.453	-10.24
813.632	63.49
813.811	110.59
813.989	-88.06
814.168	61.44
814.347	-83.97
814.526	-57.34
814.704	124.93
814.883	96.25
815.062	-126.97
815.24	57.34
815.419	10.24
815.598	83.97
815.776	-102.4
815.955	16.38
816.133	-63.49
816.312	73.73
816.49	-86.01
816.669	102.4
816.847	67.58
817.026	67.58
817.204	38.91
817.383	-28.67
817.561	49.15
817.74	61.44
817.918	108.54
818.097	20.48
818.275	2.05
818.453	40.96
818.632	133.12
818.81	16.38
818.988	2.05
819.167	-69.63
819.345	-10.24
819.523	-32.77
819.701	-8.19
819.879	8.19
820.058	61.44
820.236	-18.43
820.414	40.96
820.592	63.49
820.77	-20.48
820.948	-38.91
821.127	-45.06
821.305	12.29
821.483	77.82
821.661	110.59
821.839	53.25
822.017	-40.96
822.195	6.14
822.373	69.63
822.551	-18.43
822.729	65.54
822.907	67.58
823.085	69.63
823.262	32.77
823.44	8.19
823.618	-36.86
823.796	20.48
823.974	8.19
824.152	-36.86
824.329	6.14
824.507	-43.01
824.685	73.73
824.863	-26.62
825.04	100.35
825.218	40.96
825.396	28.67
825.574	55.3
825.751	-4.1
825.929	34.82
826.107	-22.53
826.284	49.15
826.462	67.58
826.639	-20.48
826.817	-61.44
826.994	77.82
827.172	-90.11
827.349	104.45
827.527	32.77
827.704	51.2
827.882	59.39
828.059	-8.19
828.237	-49.15
828.414	137.21
828.591	-124.93
828.769	-67.58
828.946	-8.19
829.124	102.4
829.301	96.25
829.478	18.43
829.655	-43.01
829.833	-10.24
830.01	-143.36
830.187	122.88
830.364	2.05
830.542	6.14
830.719	129.02
830.896	73.73
831.073	114.69
831.25	139.26
831.427	38.91
831.604	-38.91
831.782	2.05
831.959	57.34
832.136	-14.34
832.313	65.54
832.49	2.05
832.667	75.77
832.844	-36.86
833.021	118.78
833.198	-10.24
833.374	108.54
833.551	49.15
833.728	32.77
833.905	124.93
834.082	-94.21
834.259	-4.1
834.436	92.16
834.612	-12.29
834.789	108.54
834.966	8.19
835.143	49.15
835.319	-69.63
835.496	96.25
835.673	75.77
835.85	67.58
836.026	102.4
836.203	69.63
836.38	-30.72
836.556	-24.58
836.733	-57.34
836.909	153.6
837.086	73.73
837.262	-47.1
837.439	-81.92
837.616	18.43
837.792	32.77
837.968	-88.06
838.145	-110.59
838.321	-8.19
838.498	38.91
838.674	24.58
838.851	28.67
839.027	-71.68
839.203	20.48
839.38	65.54
839.556	-6.14
839.732	104.45
839.909	-38.91
840.085	94.21
840.261	-32.77
840.437	14.34
840.614	22.53
840.79	12.29
840.966	71.68
841.142	12.29
841.318	-43.01
841.494	102.4
841.671	55.3
841.847	-36.86
842.023	-92.16
842.199	24.58
842.375	108.54
842.551	-118.78
842.727	8.19
842.903	192.51
843.079	-20.48
843.255	55.3
843.431	-36.86
843.607	30.72
843.783	-86.01
843.959	24.58
844.134	-47.1
844.31	147.45
844.486	26.62
844.662	-24.58
844.838	-40.96
845.013	-6.14
845.189	94.21
845.365	26.62
845.541	36.86
845.716	40.96
845.892	69.63
846.068	-6.14
846.244	-24.58
846.419	40.96
846.595	-53.25
846.77	-34.82
846.946	32.77
847.122	-65.53
847.297	-51.2
847.473	102.4
847.648	-53.25
847.824	47.1
847.999	-67.58
848.175	26.62
848.35	8.19
848.526	124.93
848.701	114.69
848.876	43.01
849.052	118.78
849.227	-24.58
849.403	0
849.578	22.53
849.753	-34.82
849.929	-10.24
850.104	-90.11
850.279	2.05
850.454	57.34
850.63	40.96
850.805	75.77
850.98	40.96
851.155	-2.05
851.33	-2.05
851.505	-55.3
851.681	57.34
851.856	-79.87
852.031	86.01
852.206	69.63
852.381	-49.15
852.556	-20.48
852.731	30.72
852.906	10.24
853.081	6.14
853.256	88.06
853.431	-36.86
853.606	22.53
853.781	14.34
853.956	-77.82
854.131	169.98
854.305	6.14
854.48	47.1
854.655	26.62
854.83	-36.86
855.005	24.58
855.18	36.86
855.354	0
855.529	22.53
855.704	-18.43
855.879	38.91
856.053	-59.39
856.228	57.34
856.403	-22.53
856.577	8.19
856.752	-49.15
856.926	12.29
857.101	90.11
857.276	-57.34
857.45	108.54
857.625	28.67
857.799	18.43
857.974	38.91
858.148	-57.34
858.323	129.02
858.497	10.24
858.672	-38.91
858.846	-28.67
859.02	110.59
859.195	-67.58
859.369	22.53
859.543	-71.68
859.718	-8.19
859.892	12.29
860.066	18.43
860.241	-22.53
860.415	-10.24
860.589	-45.06
860.763	10.24
860.938	12.29
861.112	-4.1
861.286	-20.48
861.46	53.25
861.634	24.58
861.808	118.78
861.982	-26.62
862.157	-116.73
862.331	45.06
862.505	-131.07
862.679	-90.11
862.853	61.44
863.027	43.01
863.201	143.36
863.375	-104.45
863.549	-26.62
863.722	-12.29
863.896	161.79
864.07	-94.21
864.244	-10.24
864.418	65.54
864.592	20.48
864.766	16.38
864.939	-12.29
865.113	83.97
865.287	143.36
865.461	-14.34
865.634	-88.06
865.808	69.63
865.982	-22.53
866.156	-32.77
866.329	-38.91
866.503	16.38
866.676	94.21
866.85	38.91
867.024	-10.24
867.197	8.19
867.371	67.58
867.544	-49.15
867.718	-57.34
867.891	67.58
868.065	-65.53
868.238	-40.96
868.412	81.92
868.585	-45.06
868.759	32.77
868.932	-24.58
869.105	-86.01
869.279	6.14
869.452	-65.53
869.625	34.82
869.799	6.14
869.972	-108.54
870.145	-67.58
870.319	92.16
870.492	-90.11
870.665	-61.44
870.838	-96.25
871.011	-155.65
871.185	-40.96
871.358	8.19
871.531	69.63
871.704	-45.06
871.877	45.06
872.05	-16.38
872.223	-53.25
872.396	102.4
872.569	118.78
872.742	-114.69
872.915	-12.29
873.088	4.1
873.261	-86.01
873.434	96.25
873.607	0
873.78	114.69
873.953	-57.34
874.126	30.72
874.299	-6.14
874.471	16.38
874.644	-4.1
874.817	77.82
874.99	155.65
875.163	-61.44
875.335	59.39
875.508	8.19
875.681	153.6
875.853	0
876.026	-98.3
876.199	32.77
876.371	30.72
876.544	-32.77
876.717	-4.1
876.889	10.24
877.062	-26.62
877.234	-61.44
877.407	-38.91
877.579	-45.06
877.752	49.15
877.924	139.26
878.097	-10.24
878.269	81.92
878.442	77.82
878.614	77.82
878.786	86.01
878.959	45.06
879.131	63.49
879.303	-120.83
879.476	-8.19
879.648	40.96
879.82	-20.48
879.993	-36.86
880.165	-22.53
880.337	-110.59
880.509	-28.67
880.681	-38.91
880.854	-47.1
881.026	-22.53
881.198	196.61
881.37	-38.91
881.542	-36.86
881.714	8.19
881.886	-83.97
882.058	-65.53
882.23	-45.06
882.402	-20.48
882.574	20.48
882.746	28.67
882.918	159.74
883.09	26.62
883.262	-51.2
883.434	12.29
883.606	-120.83
883.778	-8.19
883.95	155.65
884.122	-65.53
884.293	10.24
884.465	-59.39
884.637	106.49
884.809	-38.91
884.98	40.96
885.152	-6.14
885.324	106.49
885.496	-49.15
885.667	-47.1
885.839	-102.4
886.011	88.06
886.182	83.97
886.354	81.92
886.525	12.29
886.697	18.43
886.869	-73.73
887.04	-34.82
887.212	108.54
887.383	178.17
887.555	12.29
887.726	-65.53
887.897	-63.49
888.069	-32.77
888.24	90.11
888.412	-49.15
888.583	69.63
888.754	22.53
888.926	-118.78
889.097	18.43
889.268	-159.74
889.44	30.72
889.611	-55.3
889.782	-38.91
889.953	-88.06
890.125	47.1
890.296	-143.36
890.467	-16.38
890.638	-57.34
890.809	-55.3
890.98	55.3
891.151	63.49
891.323	67.58
891.494	18.43
891.665	26.62
891.836	32.77
892.007	12.29
892.178	-8.19
892.349	-6.14
892.52	-61.44
892.691	-22.53
892.862	2.05
893.032	-151.55
893.203	28.67
893.374	63.49
893.545	67.58
893.716	-32.77
893.887	114.69
894.057	20.48
894.228	-96.25
894.399	-61.44
894.57	86.01
894.74	59.39
894.911	22.53
895.082	-49.15
895.253	-6.14
895.423	22.53
895.594	90.11
895.764	-6.14
895.935	-30.72
896.106	26.62
896.276	-28.67
896.447	16.38
896.617	-92.16
896.788	-90.11
896.958	-20.48
897.129	36.86
897.299	-71.68
897.47	126.97
897.64	18.43
897.81	-71.68
897.981	8.19
898.151	-36.86
898.322	100.35
898.492	-12.29
898.662	-63.49
898.832	16.38
899.003	59.39
899.173	-36.86
899.343	-65.53
899.513	-75.77
