Data from USB4F104151__69__11-30-58-964.txt Node

Date: Wed Feb 26 11:30:58 EST 2025
User: louis
Spectrometer: USB4F10415
Trigger mode: 4
Integration Time (sec): 1.000000E-1
Scans to average: 1
Electric dark correction enabled: true
Nonlinearity correction enabled: false
Boxcar width: 0
XAxis mode: Wavelengths
Number of Pixels in Spectrum: 3648
>>>>>Begin Spectral Data<<<<<
178.204	-401.23
178.424	-401.23
178.644	-401.23
178.864	-399.18
179.084	-411.47
179.304	-63.32
179.524	-8.02
179.744	116.9
179.964	39.08
180.184	-12.12
180.404	41.13
180.624	-79.7
180.844	26.79
181.064	-94.04
181.283	2.22
181.503	-53.08
181.723	84.14
181.943	-73.56
182.163	186.54
182.383	-1.88
182.602	123.05
182.822	223.4
183.042	178.34
183.262	71.85
183.482	-26.45
183.701	63.66
183.921	18.6
184.141	-73.56
184.361	57.51
184.58	166.06
184.8	73.9
185.02	12.46
185.239	139.43
185.459	77.99
185.679	149.67
185.898	-65.36
186.118	43.18
186.338	108.71
186.557	121
186.777	-75.6
186.997	26.79
187.216	4.27
187.436	202.92
187.655	147.62
187.875	127.14
188.095	10.41
188.314	241.83
188.534	86.19
188.753	-16.21
188.973	131.24
189.192	184.49
189.412	30.89
189.631	90.28
189.851	84.14
190.07	204.97
190.29	-40.79
190.509	71.85
190.729	88.23
190.948	180.39
191.168	258.21
191.387	86.19
191.607	77.99
191.826	137.38
192.045	90.28
192.265	49.32
192.484	77.99
192.704	77.99
192.923	-44.88
193.142	194.73
193.362	166.06
193.581	213.16
193.8	88.23
194.02	112.81
194.239	90.28
194.458	143.53
194.678	82.09
194.897	18.6
195.116	106.67
195.335	61.61
195.555	127.14
195.774	51.37
195.993	182.44
196.212	45.23
196.432	67.75
196.651	-44.88
196.87	102.57
197.089	254.12
197.308	129.19
197.528	116.9
197.747	-87.89
197.966	104.62
198.185	180.39
198.404	12.46
198.623	168.1
198.842	168.1
199.062	209.06
199.281	176.3
199.5	127.14
199.719	63.66
199.938	131.24
200.157	129.19
200.376	133.29
200.595	69.8
200.814	88.23
201.033	26.79
201.252	186.54
201.471	57.51
201.69	90.28
201.909	65.71
202.128	137.38
202.347	153.77
202.566	24.75
202.785	16.55
203.004	55.47
203.223	331.94
203.442	26.79
203.661	39.08
203.879	69.8
204.098	215.21
204.317	71.85
204.536	125.1
204.755	141.48
204.974	147.62
205.193	112.81
205.411	121
205.63	157.86
205.849	106.67
206.068	32.94
206.287	-24.4
206.505	143.53
206.724	92.33
206.943	-14.17
207.162	6.31
207.381	57.51
207.599	63.66
207.818	131.24
208.037	63.66
208.255	73.9
208.474	143.53
208.693	84.14
208.911	-14.17
209.13	22.7
209.349	96.43
209.567	67.75
209.786	73.9
210.005	145.58
210.223	65.71
210.442	-63.32
210.661	14.51
210.879	63.66
211.098	37.03
211.316	102.57
211.535	32.94
211.753	86.19
211.972	84.14
212.191	53.42
212.409	61.61
212.628	151.72
212.846	-1.88
213.065	127.14
213.283	86.19
213.502	51.37
213.72	88.23
213.938	34.99
214.157	114.86
214.375	96.43
214.594	28.84
214.812	69.8
215.031	63.66
215.249	137.38
215.467	112.81
215.686	65.71
215.904	20.65
216.122	0.17
216.341	118.95
216.559	125.1
216.778	98.47
216.996	149.67
217.214	123.05
217.432	51.37
217.651	-85.84
217.869	65.71
218.087	14.51
218.306	41.13
218.524	57.51
218.742	-1.88
218.96	178.34
219.179	86.19
219.397	69.8
219.615	227.5
219.833	164.01
220.051	22.7
220.27	170.15
220.488	123.05
220.706	71.85
220.924	108.71
221.142	-8.02
221.36	45.23
221.578	127.14
221.796	77.99
222.015	88.23
222.233	176.3
222.451	209.06
222.669	-3.93
222.887	135.34
223.105	49.32
223.323	110.76
223.541	-26.45
223.759	108.71
223.977	106.67
224.195	172.2
224.413	151.72
224.631	116.9
224.849	131.24
225.067	182.44
225.285	30.89
225.503	30.89
225.721	-114.52
225.939	92.33
226.157	43.18
226.375	295.08
226.592	12.46
226.81	28.84
227.028	229.54
227.246	153.77
227.464	90.28
227.682	200.87
227.9	133.29
228.117	75.95
228.335	69.8
228.553	141.48
228.771	53.42
228.989	108.71
229.206	61.61
229.424	80.04
229.642	26.79
229.86	37.03
230.077	118.95
230.295	106.67
230.513	96.43
230.731	102.57
230.948	256.17
231.166	278.69
231.384	63.66
231.601	0.17
231.819	231.59
232.037	67.75
232.254	59.56
232.472	55.47
232.689	118.95
232.907	207.02
233.125	-63.32
233.342	-18.26
233.56	-10.07
233.777	69.8
233.995	-5.97
234.213	137.38
234.43	123.05
234.648	34.99
234.865	63.66
235.083	22.7
235.3	116.9
235.518	53.42
235.735	129.19
235.953	139.43
236.17	112.81
236.388	133.29
236.605	47.27
236.822	133.29
237.04	202.92
237.257	69.8
237.475	22.7
237.692	94.38
237.909	182.44
238.127	-30.55
238.344	39.08
238.562	26.79
238.779	-75.6
238.996	-32.6
239.214	131.24
239.431	139.43
239.648	129.19
239.865	77.99
240.083	82.09
240.3	30.89
240.517	-36.69
240.735	24.75
240.952	168.1
241.169	123.05
241.386	18.6
241.603	49.32
241.821	51.37
242.038	129.19
242.255	168.1
242.472	-75.6
242.689	98.47
242.907	92.33
243.124	51.37
243.341	61.61
243.558	6.31
243.775	14.51
243.992	-69.46
244.209	151.72
244.426	190.63
244.643	75.95
244.86	28.84
245.078	73.9
245.295	41.13
245.512	37.03
245.729	-20.31
245.946	92.33
246.163	118.95
246.38	49.32
246.597	51.37
246.814	63.66
247.031	26.79
247.248	49.32
247.464	127.14
247.681	121
247.898	84.14
248.115	86.19
248.332	43.18
248.549	141.48
248.766	192.68
248.983	106.67
249.2	149.67
249.417	123.05
249.633	96.43
249.85	178.34
250.067	118.95
250.284	43.18
250.501	73.9
250.717	39.08
250.934	4.27
251.151	82.09
251.368	139.43
251.585	43.18
251.801	49.32
252.018	-57.17
252.235	211.11
252.451	18.6
252.668	47.27
252.885	77.99
253.102	88.23
253.318	-12.12
253.535	32.94
253.752	53.42
253.968	16.55
254.185	-51.03
254.401	104.62
254.618	65.71
254.835	39.08
255.051	159.91
255.268	139.43
255.484	73.9
255.701	116.9
255.917	129.19
256.134	20.65
256.351	86.19
256.567	-24.4
256.784	90.28
257	-14.17
257.217	18.6
257.433	108.71
257.65	86.19
257.866	211.11
258.082	-65.36
258.299	0.17
258.515	47.27
258.732	86.19
258.948	73.9
259.165	102.57
259.381	53.42
259.597	116.9
259.814	-14.17
260.03	49.32
260.246	43.18
260.463	88.23
260.679	77.99
260.895	80.04
261.112	-20.31
261.328	16.55
261.544	20.65
261.761	219.3
261.977	28.84
262.193	-71.51
262.409	139.43
262.626	45.23
262.842	-3.93
263.058	-26.45
263.274	131.24
263.49	69.8
263.707	108.71
263.923	73.9
264.139	26.79
264.355	22.7
264.571	24.75
264.787	94.38
265.004	182.44
265.22	41.13
265.436	39.08
265.652	55.47
265.868	59.56
266.084	-16.21
266.3	63.66
266.516	49.32
266.732	88.23
266.948	125.1
267.164	61.61
267.38	157.86
267.596	100.52
267.812	256.17
268.028	106.67
268.244	-14.17
268.46	98.47
268.676	-32.6
268.892	77.99
269.108	-22.36
269.324	8.36
269.54	-28.5
269.756	155.82
269.972	-61.27
270.188	34.99
270.403	-24.4
270.619	24.75
270.835	108.71
271.051	98.47
271.267	10.41
271.483	32.94
271.698	180.39
271.914	141.48
272.13	94.38
272.346	77.99
272.562	69.8
272.777	166.06
272.993	84.14
273.209	2.22
273.425	127.14
273.64	-46.93
273.856	139.43
274.072	-8.02
274.287	47.27
274.503	30.89
274.719	86.19
274.934	16.55
275.15	-63.32
275.366	88.23
275.581	43.18
275.797	65.71
276.012	47.27
276.228	47.27
276.444	-22.36
276.659	65.71
276.875	65.71
277.09	45.23
277.306	53.42
277.521	57.51
277.737	69.8
277.952	112.81
278.168	12.46
278.383	77.99
278.599	96.43
278.814	145.58
279.03	26.79
279.245	131.24
279.461	49.32
279.676	116.9
279.892	-38.74
280.107	34.99
280.322	4.27
280.538	131.24
280.753	22.7
280.969	61.61
281.184	92.33
281.399	182.44
281.615	24.75
281.83	90.28
282.045	20.65
282.26	32.94
282.476	75.95
282.691	166.06
282.906	159.91
283.122	92.33
283.337	71.85
283.552	112.81
283.767	63.66
283.983	88.23
284.198	43.18
284.413	110.76
284.628	-63.32
284.843	75.95
285.058	61.61
285.274	61.61
285.489	-14.17
285.704	106.67
285.919	77.99
286.134	-61.27
286.349	125.1
286.564	32.94
286.779	168.1
286.995	65.71
287.21	-5.97
287.425	6.31
287.64	30.89
287.855	141.48
288.07	-46.93
288.285	65.71
288.5	59.56
288.715	82.09
288.93	28.84
289.145	88.23
289.36	149.67
289.575	73.9
289.79	180.39
290.004	-104.28
290.219	131.24
290.434	14.51
290.649	24.75
290.864	39.08
291.079	-14.17
291.294	14.51
291.509	80.04
291.724	18.6
291.938	47.27
292.153	98.47
292.368	69.8
292.583	135.34
292.798	121
293.012	108.71
293.227	75.95
293.442	0.17
293.657	118.95
293.871	178.34
294.086	59.56
294.301	245.93
294.516	198.82
294.73	43.18
294.945	-48.98
295.16	-12.12
295.374	102.57
295.589	239.78
295.804	6.31
296.018	86.19
296.233	174.25
296.447	125.1
296.662	65.71
296.877	84.14
297.091	80.04
297.306	30.89
297.52	71.85
297.735	-1.88
297.949	110.76
298.164	59.56
298.378	69.8
298.593	63.66
298.807	14.51
299.022	-28.5
299.236	196.78
299.451	28.84
299.665	96.43
299.88	63.66
300.094	84.14
300.309	112.81
300.523	18.6
300.737	45.23
300.952	51.37
301.166	116.9
301.381	-36.69
301.595	39.08
301.809	98.47
302.024	75.95
302.238	-5.97
302.452	151.72
302.667	108.71
302.881	176.3
303.095	161.96
303.309	116.9
303.524	22.7
303.738	10.41
303.952	-53.08
304.166	57.51
304.381	-40.79
304.595	174.25
304.809	37.03
305.023	102.57
305.237	14.51
305.452	-28.5
305.666	67.75
305.88	71.85
306.094	166.06
306.308	147.62
306.522	-20.31
306.736	80.04
306.95	153.77
307.164	-28.5
307.379	77.99
307.593	176.3
307.807	155.82
308.021	84.14
308.235	34.99
308.449	-53.08
308.663	90.28
308.877	217.26
309.091	82.09
309.305	112.81
309.519	-55.12
309.733	196.78
309.947	-57.17
310.161	123.05
310.374	135.34
310.588	168.1
310.802	20.65
311.016	16.55
311.23	30.89
311.444	-46.93
311.658	129.19
311.872	172.2
312.085	137.38
312.299	123.05
312.513	153.77
312.727	59.56
312.941	22.7
313.154	123.05
313.368	92.33
313.582	69.8
313.796	116.9
314.009	20.65
314.223	116.9
314.437	69.8
314.651	135.34
314.864	-12.12
315.078	63.66
315.292	-22.36
315.505	94.38
315.719	133.29
315.933	69.8
316.146	-57.17
316.36	2.22
316.573	176.3
316.787	131.24
317.001	88.23
317.214	-38.74
317.428	118.95
317.641	55.47
317.855	16.55
318.068	153.77
318.282	100.52
318.495	157.86
318.709	45.23
318.922	28.84
319.136	204.97
319.349	141.48
319.563	106.67
319.776	94.38
319.99	28.84
320.203	123.05
320.417	133.29
320.63	186.54
320.843	147.62
321.057	84.14
321.27	47.27
321.483	75.95
321.697	172.2
321.91	90.28
322.124	69.8
322.337	84.14
322.55	-48.98
322.763	84.14
322.977	45.23
323.19	-12.12
323.403	61.61
323.617	170.15
323.83	145.58
324.043	61.61
324.256	123.05
324.469	-44.88
324.683	88.23
324.896	114.86
325.109	47.27
325.322	10.41
325.535	90.28
325.748	121
325.962	65.71
326.175	98.47
326.388	84.14
326.601	39.08
326.814	73.9
327.027	61.61
327.24	190.63
327.453	-28.5
327.666	55.47
327.879	172.2
328.092	114.86
328.305	155.82
328.518	-26.45
328.731	0.17
328.944	71.85
329.157	34.99
329.37	114.86
329.583	157.86
329.796	243.88
330.009	-53.08
330.222	180.39
330.435	149.67
330.648	125.1
330.861	14.51
331.073	73.9
331.286	121
331.499	73.9
331.712	30.89
331.925	24.75
332.138	123.05
332.35	57.51
332.563	6.31
332.776	135.34
332.989	12.46
333.202	39.08
333.414	37.03
333.627	55.47
333.84	51.37
334.053	47.27
334.265	-18.26
334.478	51.37
334.691	34.99
334.903	53.42
335.116	37.03
335.329	55.47
335.541	102.57
335.754	170.15
335.966	32.94
336.179	100.52
336.392	61.61
336.604	41.13
336.817	106.67
337.029	67.75
337.242	129.19
337.454	73.9
337.667	69.8
337.88	137.38
338.092	61.61
338.305	80.04
338.517	90.28
338.729	135.34
338.942	190.63
339.154	63.66
339.367	53.42
339.579	90.28
339.792	-46.93
340.004	73.9
340.217	92.33
340.429	32.94
340.641	0.17
340.854	55.47
341.066	45.23
341.278	98.47
341.491	215.21
341.703	82.09
341.915	24.75
342.128	98.47
342.34	112.81
342.552	55.47
342.764	45.23
342.977	-8.02
343.189	65.71
343.401	104.62
343.613	-3.93
343.826	22.7
344.038	-1.88
344.25	22.7
344.462	69.8
344.674	125.1
344.886	63.66
345.099	88.23
345.311	45.23
345.523	61.61
345.735	-77.65
345.947	84.14
346.159	43.18
346.371	61.61
346.583	30.89
346.795	215.21
347.007	37.03
347.219	69.8
347.431	16.55
347.643	161.96
347.855	43.18
348.067	217.26
348.279	-18.26
348.491	45.23
348.703	137.38
348.915	-5.97
349.127	-12.12
349.339	16.55
349.551	10.41
349.763	104.62
349.975	75.95
350.187	164.01
350.399	127.14
350.61	170.15
350.822	112.81
351.034	43.18
351.246	129.19
351.458	127.14
351.669	71.85
351.881	123.05
352.093	139.43
352.305	258.21
352.517	59.56
352.728	172.2
352.94	18.6
353.152	80.04
353.363	24.75
353.575	153.77
353.787	211.11
353.999	26.79
354.21	184.49
354.422	24.75
354.633	71.85
354.845	84.14
355.057	71.85
355.268	147.62
355.48	209.06
355.692	-44.88
355.903	69.8
356.115	8.36
356.326	-85.84
356.538	141.48
356.749	108.71
356.961	155.82
357.172	131.24
357.384	-30.55
357.595	237.74
357.807	63.66
358.018	4.27
358.23	0.17
358.441	153.77
358.653	69.8
358.864	125.1
359.075	-12.12
359.287	92.33
359.498	26.79
359.709	180.39
359.921	82.09
360.132	94.38
360.344	61.61
360.555	16.55
360.766	104.62
360.977	37.03
361.189	172.2
361.4	96.43
361.611	139.43
361.823	92.33
362.034	92.33
362.245	-8.02
362.456	88.23
362.667	145.58
362.879	-42.84
363.09	147.62
363.301	45.23
363.512	133.29
363.723	26.79
363.935	-28.5
364.146	84.14
364.357	10.41
364.568	12.46
364.779	-40.79
364.99	155.82
365.201	41.13
365.412	100.52
365.623	-110.42
365.834	16.55
366.045	98.47
366.256	178.34
366.467	116.9
366.678	65.71
366.889	127.14
367.1	30.89
367.311	164.01
367.522	77.99
367.733	45.23
367.944	51.37
368.155	73.9
368.366	118.95
368.577	178.34
368.788	123.05
368.999	63.66
369.209	39.08
369.42	123.05
369.631	272.55
369.842	98.47
370.053	10.41
370.264	157.86
370.474	98.47
370.685	53.42
370.896	88.23
371.107	168.1
371.317	112.81
371.528	75.95
371.739	153.77
371.95	192.68
372.16	100.52
372.371	-67.41
372.582	2.22
372.792	67.75
373.003	182.44
373.214	102.57
373.424	155.82
373.635	8.36
373.846	184.49
374.056	49.32
374.267	125.1
374.477	84.14
374.688	-10.07
374.898	112.81
375.109	172.2
375.319	123.05
375.53	92.33
375.74	114.86
375.951	37.03
376.161	137.38
376.372	164.01
376.582	43.18
376.793	155.82
377.003	-1.88
377.214	-10.07
377.424	123.05
377.635	30.89
377.845	-24.4
378.055	98.47
378.266	-10.07
378.476	18.6
378.686	86.19
378.897	92.33
379.107	147.62
379.317	73.9
379.528	8.36
379.738	114.86
379.948	34.99
380.158	143.53
380.369	43.18
380.579	43.18
380.789	82.09
380.999	82.09
381.21	153.77
381.42	184.49
381.63	39.08
381.84	80.04
382.05	161.96
382.261	174.25
382.471	73.9
382.681	41.13
382.891	116.9
383.101	65.71
383.311	18.6
383.521	-14.17
383.731	18.6
383.941	157.86
384.151	61.61
384.361	96.43
384.571	82.09
384.781	108.71
384.991	108.71
385.201	237.74
385.411	26.79
385.621	20.65
385.831	69.8
386.041	94.38
386.251	47.27
386.461	112.81
386.671	-22.36
386.881	104.62
387.091	104.62
387.301	114.86
387.511	92.33
387.72	22.7
387.93	118.95
388.14	24.75
388.35	100.52
388.56	131.24
388.769	106.67
388.979	59.56
389.189	59.56
389.399	84.14
389.609	61.61
389.818	-1.88
390.028	96.43
390.238	104.62
390.447	-85.84
390.657	22.7
390.867	129.19
391.076	-14.17
391.286	86.19
391.496	30.89
391.705	110.76
391.915	151.72
392.125	102.57
392.334	98.47
392.544	108.71
392.753	90.28
392.963	-48.98
393.172	75.95
393.382	-24.4
393.591	209.06
393.801	61.61
394.01	184.49
394.22	178.34
394.429	61.61
394.639	94.38
394.848	59.56
395.058	86.19
395.267	45.23
395.477	129.19
395.686	55.47
395.895	250.02
396.105	276.65
396.314	118.95
396.524	-1.88
396.733	6.31
396.942	155.82
397.152	4.27
397.361	82.09
397.57	100.52
397.78	53.42
397.989	73.9
398.198	262.31
398.407	77.99
398.617	-18.26
398.826	116.9
399.035	26.79
399.244	143.53
399.453	127.14
399.663	57.51
399.872	49.32
400.081	18.6
400.29	143.53
400.499	28.84
400.708	202.92
400.917	43.18
401.127	-42.84
401.336	20.65
401.545	145.58
401.754	86.19
401.963	186.54
402.172	71.85
402.381	12.46
402.59	53.42
402.799	133.29
403.008	149.67
403.217	102.57
403.426	28.84
403.635	41.13
403.844	82.09
404.053	88.23
404.262	43.18
404.471	176.3
404.68	170.15
404.888	96.43
405.097	26.79
405.306	49.32
405.515	90.28
405.724	98.47
405.933	123.05
406.142	123.05
406.35	82.09
406.559	98.47
406.768	147.62
406.977	155.82
407.185	75.95
407.394	61.61
407.603	-3.93
407.812	127.14
408.02	92.33
408.229	41.13
408.438	125.1
408.646	24.75
408.855	67.75
409.064	86.19
409.272	65.71
409.481	86.19
409.69	0.17
409.898	0.17
410.107	198.82
410.315	147.62
410.524	45.23
410.733	104.62
410.941	94.38
411.15	135.34
411.358	192.68
411.567	196.78
411.775	61.61
411.984	82.09
412.192	108.71
412.401	106.67
412.609	180.39
412.818	116.9
413.026	155.82
413.234	30.89
413.443	-24.4
413.651	77.99
413.86	73.9
414.068	202.92
414.276	239.78
414.485	-1.88
414.693	274.6
414.901	182.44
415.11	108.71
415.318	102.57
415.526	114.86
415.734	170.15
415.943	116.9
416.151	196.78
416.359	67.75
416.567	176.3
416.776	184.49
416.984	41.13
417.192	178.34
417.4	123.05
417.608	59.56
417.817	28.84
418.025	125.1
418.233	239.78
418.441	53.42
418.649	22.7
418.857	82.09
419.065	164.01
419.273	28.84
419.481	110.76
419.689	92.33
419.897	71.85
420.105	67.75
420.313	204.97
420.521	106.67
420.729	184.49
420.937	57.51
421.145	41.13
421.353	211.11
421.561	202.92
421.769	190.63
421.977	92.33
422.185	125.1
422.393	53.42
422.601	141.48
422.809	147.62
423.017	57.51
423.224	114.86
423.432	155.82
423.64	90.28
423.848	137.38
424.056	63.66
424.263	112.81
424.471	20.65
424.679	116.9
424.887	104.62
425.094	133.29
425.302	106.67
425.51	139.43
425.718	200.87
425.925	153.77
426.133	80.04
426.341	211.11
426.548	80.04
426.756	41.13
426.964	92.33
427.171	110.76
427.379	55.47
427.586	55.47
427.794	147.62
428.001	182.44
428.209	155.82
428.417	204.97
428.624	176.3
428.832	190.63
429.039	114.86
429.247	125.1
429.454	110.76
429.662	260.26
429.869	151.72
430.076	65.71
430.284	274.6
430.491	247.97
430.699	221.35
430.906	245.93
431.114	116.9
431.321	88.23
431.528	198.82
431.736	225.45
431.943	170.15
432.15	198.82
432.358	235.69
432.565	305.32
432.772	161.96
432.979	215.21
433.187	139.43
433.394	297.13
433.601	135.34
433.808	229.54
434.016	301.22
434.223	243.88
434.43	245.93
434.637	303.27
434.844	207.02
435.052	303.27
435.259	284.84
435.466	258.21
435.673	262.31
435.88	340.13
436.087	415.91
436.294	311.46
436.501	368.81
436.708	290.98
436.915	415.91
437.122	377
437.329	370.85
437.537	440.48
437.743	329.89
437.95	508.07
438.157	368.81
438.364	372.9
438.571	434.34
438.778	497.83
438.985	622.75
439.192	487.59
439.399	581.79
439.606	544.93
439.813	530.59
440.02	661.66
440.227	706.72
440.433	573.6
440.64	579.75
440.847	561.31
441.054	673.95
441.261	747.68
441.467	714.91
441.674	712.86
441.881	723.1
442.088	733.34
442.294	792.73
442.501	841.89
442.708	821.41
442.914	872.61
443.121	899.23
443.328	1044.63
443.534	1058.97
443.741	1040.54
443.948	893.09
444.154	1077.4
444.361	1233.05
444.568	1190.04
444.774	1208.47
444.981	1122.46
445.187	1280.15
445.394	1151.13
445.6	1300.63
445.807	1427.6
446.013	1435.8
446.22	1384.6
446.426	1611.92
446.633	1640.59
446.839	1882.25
447.046	1638.55
447.252	1714.32
447.459	1783.95
447.665	1882.25
447.871	2056.33
448.078	2037.9
448.284	2052.24
448.491	2113.67
448.697	2297.99
448.903	2431.11
449.11	2326.66
449.316	2332.81
449.522	2570.37
449.728	2740.35
449.935	2781.31
450.141	2762.88
450.347	2900.09
450.553	2936.96
450.76	2971.77
450.966	3266.68
451.172	3340.41
451.378	3592.31
451.584	3569.78
451.791	3811.44
451.997	3915.89
452.203	4024.43
452.409	4141.16
452.615	4245.61
452.821	4132.97
453.027	4270.19
453.233	4839.52
453.44	4663.4
453.646	4878.43
453.852	5103.71
454.058	5138.52
454.264	5400.66
454.47	5851.22
454.676	5804.11
454.882	6320.2
455.088	6051.92
455.294	6299.72
455.5	6910.02
455.705	7229.5
455.911	7383.1
456.117	7264.32
456.323	7755.83
456.529	7704.63
456.735	8382.51
456.941	8683.56
457.147	8968.23
457.352	9062.43
457.558	9377.82
457.764	10059.79
457.97	10309.65
458.176	10788.87
458.381	11427.84
458.587	11311.1
458.793	11739.13
458.999	11841.53
459.204	13496.28
459.41	13959.13
459.616	13783
459.821	14307.28
460.027	15017.93
460.233	15902.65
460.438	16121.78
460.644	16781.23
460.85	16930.73
461.055	17661.85
461.261	18696.08
461.466	18225.04
461.672	18601.87
461.878	20639.6
462.083	20780.91
462.289	20834.16
462.494	21669.73
462.7	21743.45
462.905	22314.84
463.111	23721.79
463.316	25212.71
463.522	25399.08
463.727	26367.77
463.932	27373.32
464.138	28030.72
464.343	29374.19
464.549	29611.75
464.754	31672.01
464.959	32691.9
465.165	32808.63
465.37	32786.1
465.575	32710.33
465.781	35083.92
465.986	35944.07
466.191	35534.48
466.397	36062.85
466.602	34989.72
466.807	37084.79
467.012	37666.41
467.218	38442.59
467.423	38260.32
467.628	39437.9
467.833	41414.19
468.038	40787.52
468.244	39941.71
468.449	42069.54
468.654	41307.7
468.859	40881.72
469.064	41393.72
469.269	40085.06
469.474	40232.52
469.679	41539.12
469.885	40388.16
470.09	41025.08
470.295	40908.35
470.5	40087.11
470.705	40527.42
470.91	39515.73
471.115	38958.68
471.32	39704.14
471.525	39581.26
471.73	38188.64
471.935	38180.45
472.139	36841.08
472.344	36986.49
472.549	36621.95
472.754	35456.65
472.959	34938.52
473.164	33875.62
473.369	33107.63
473.574	33937.06
473.778	33291.95
473.983	32808.63
474.188	32181.95
474.393	30783.19
474.598	31008.47
474.802	30078.69
475.007	29517.54
475.212	29552.36
475.417	27987.71
475.621	28192.51
475.826	27643.65
476.031	27078.41
476.235	26777.36
476.44	26423.06
476.645	25855.78
476.849	25253.67
477.054	24770.35
477.259	24399.67
477.463	24592.18
477.668	23904.06
477.872	23762.75
478.077	23129.93
478.282	22564.69
478.486	22320.98
478.691	22091.61
478.895	21811.04
479.1	21419.88
479.304	21895
479.509	20797.29
479.713	21196.65
479.918	20840.3
480.122	20150.14
480.326	20615.02
480.531	20227.96
480.735	20027.26
480.94	19847.04
481.144	20412.28
481.348	19435.39
481.553	19462.02
481.757	18952.07
481.961	19257.22
482.166	19320.71
482.37	19099.53
482.574	18669.45
482.778	18517.9
482.983	18890.63
483.187	18597.77
483.391	18309.01
483.595	17999.77
483.8	17938.33
484.004	17866.65
484.208	17825.69
484.412	17598.37
484.616	17448.86
484.821	17258.4
485.025	16445.36
485.229	16916.39
485.433	16562.09
485.637	16437.17
485.841	15988.66
486.045	15830.97
486.249	15644.6
486.453	15357.89
486.657	15347.65
486.861	14983.11
487.065	14673.87
487.269	14546.89
487.473	14194.64
487.677	14331.86
487.881	14131.16
488.085	13559.77
488.289	13391.84
488.493	13039.59
488.697	13420.51
488.901	12996.58
489.105	12464.11
489.309	12433.39
489.512	12230.64
489.716	11941.88
489.92	11726.84
490.124	11413.5
490.328	11560.95
490.531	11079.68
490.735	11139.07
490.939	10700.81
491.143	10405.9
491.346	10272.78
491.55	10172.43
491.754	10119.18
491.958	10067.99
492.161	9703.45
492.365	9666.58
492.569	9349.15
492.772	9361.44
492.976	9388.06
493.18	9056.29
493.383	9072.67
493.587	8781.86
493.79	8847.4
493.994	8583.21
494.197	8456.23
494.401	8632.36
494.605	8327.21
494.808	8214.57
495.012	8382.51
495.215	8333.36
495.419	8151.09
495.622	7934
495.825	7917.62
496.029	7819.32
496.232	7909.43
496.436	7606.33
496.639	7903.28
496.843	7888.95
497.046	7731.25
497.249	7946.29
497.453	7907.38
497.656	7866.42
497.859	7680.05
498.063	8017.97
498.266	7958.58
498.469	7813.17
498.673	7884.85
498.876	7952.43
499.079	7923.76
499.282	7770.16
499.485	8099.89
499.689	8040.5
499.892	8310.83
500.095	8060.98
500.298	8265.77
500.501	8161.33
500.705	8351.79
500.908	8468.52
501.111	8339.5
501.314	8458.28
501.517	8691.75
501.72	8683.56
501.923	8751.14
502.126	8781.86
502.329	8968.23
502.532	9093.15
502.735	9175.07
502.938	9201.69
503.141	9179.17
503.344	9326.62
503.547	9527.32
503.75	9693.21
503.953	9609.24
504.156	9807.89
504.359	10002.45
504.562	10151.95
504.765	10395.66
504.968	10477.58
505.17	10614.79
505.373	10528.78
505.576	11112.45
505.779	11001.86
505.982	11048.96
506.185	11493.37
506.387	11589.63
506.59	11743.22
506.793	12144.63
506.996	12294.13
507.198	12654.57
507.401	12767.21
507.604	12982.24
507.807	13162.47
508.009	13479.9
508.212	13619.16
508.415	13809.62
508.617	14153.68
508.82	14485.45
509.022	14688.2
509.225	15087.56
509.428	15255.49
509.63	15714.23
509.833	15706.04
510.035	16295.86
510.238	16668.59
510.44	16889.77
510.643	17512.35
510.845	17792.92
511.048	18212.76
511.25	18640.78
511.453	18894.73
511.655	19931
511.858	19814.27
512.06	20352.88
512.262	20717.42
512.465	20862.83
512.667	21491.55
512.87	22003.55
513.072	22470.48
513.274	23273.29
513.477	23213.9
513.679	23904.06
513.881	24538.93
514.084	25110.32
514.286	25407.27
514.488	25790.24
514.69	26978.06
514.893	27387.66
515.095	28004.1
515.297	28645.11
515.499	29308.65
515.701	29857.51
515.904	30627.54
516.106	31461.07
516.308	31762.12
516.51	32261.82
516.712	32802.49
516.914	33549.99
517.116	34158.24
517.318	34805.4
517.52	35339.92
517.722	35937.93
517.925	36789.88
518.127	37588.59
518.329	38348.39
518.531	38213.22
518.733	39503.44
518.935	40048.2
519.136	40531.52
519.338	41539.12
519.54	41920.04
519.742	42591.78
519.944	43484.69
520.146	43757.07
520.348	44887.55
520.55	44604.93
520.752	45110.78
520.954	46288.36
521.155	46003.69
521.357	47189.47
521.559	47766.99
521.761	48684.48
521.963	48707.01
522.164	48930.24
522.366	49712.56
522.568	49847.73
522.77	50079.15
522.971	50836.9
523.173	50599.33
523.375	50847.14
523.576	51160.48
523.778	51422.62
523.98	52221.33
524.181	52360.59
524.383	52362.64
524.584	52559.24
524.786	52635.02
524.988	52712.84
525.189	53114.24
525.391	53480.83
525.592	53403
525.794	53372.28
525.995	53161.34
526.197	53015.94
526.398	53144.96
526.6	53409.15
526.801	52845.96
527.003	53026.18
527.204	52577.67
527.406	52620.68
527.607	52520.33
527.808	52407.69
528.01	51436.95
528.211	52184.46
528.412	51932.56
528.614	51391.9
528.815	50818.47
529.016	50924.96
529.218	50124.21
529.419	49763.76
529.62	49376.7
529.822	48713.16
530.023	48266.7
530.224	48643.52
530.425	47678.93
530.626	47125.98
530.828	46552.55
531.029	46876.13
531.23	45759.98
531.431	45385.21
531.632	45291
531.833	44795.39
532.035	43593.23
532.236	43634.19
532.437	43447.83
532.638	42311.21
532.839	42176.04
533.04	42161.7
533.241	40511.04
533.442	40689.21
533.643	40035.91
533.844	39251.54
534.045	39284.31
534.246	38268.51
534.447	38024.81
534.648	37140.08
534.849	37035.64
535.05	36281.99
535.251	35856.01
535.451	35374.73
535.652	35118.74
535.853	34563.74
536.054	34176.67
536.255	33623.72
536.456	33187.5
536.657	33586.86
536.857	32298.69
537.058	31975.11
537.259	31766.21
537.46	31336.14
537.66	30578.39
537.861	30459.61
538.062	30047.97
538.263	29390.57
538.463	29257.45
538.664	28972.78
538.865	28577.53
539.065	28256
539.266	27916.03
539.466	27391.75
539.667	27031.31
539.868	27428.62
540.068	26625.81
540.269	25995.04
540.469	26115.87
540.67	25687.84
540.87	25618.21
541.071	24887.09
541.271	24829.74
541.472	24465.21
541.672	24166.2
541.873	23979.84
542.073	23531.33
542.274	23689.03
542.474	23201.61
542.675	22759.25
542.875	22601.55
543.075	22513.49
543.276	22112.09
543.476	22044.51
543.676	21497.7
543.877	21565.28
544.077	21370.72
544.277	21157.74
544.478	20766.57
544.678	20719.47
544.878	20383.6
545.078	19916.67
545.279	20025.21
545.479	19554.18
545.679	19423.11
545.879	19251.08
546.079	19115.91
546.28	18704.27
546.48	18409.36
546.68	18622.35
546.88	18368.4
547.08	17799.07
547.28	17577.89
547.48	17399.71
547.68	17371.04
547.88	17045.41
548.081	16760.75
548.281	16447.41
548.481	16394.16
548.681	16541.61
548.881	16119.73
549.081	15804.35
549.28	15484.86
549.48	15341.5
549.68	15255.49
549.88	15050.69
550.08	14788.55
550.28	14596.04
550.48	14559.18
550.68	14362.58
550.88	13725.66
551.08	13971.41
551.279	13707.23
551.479	13348.83
551.679	13467.61
551.879	12832.74
552.079	13119.46
552.278	12509.16
552.478	12677.1
552.678	12451.82
552.878	12324.85
553.077	11841.53
553.277	11685.88
553.477	11569.15
553.676	11554.81
553.876	11288.57
554.076	11311.1
554.275	10891.27
554.475	10555.4
554.674	10659.85
554.874	10469.39
555.074	10197.01
555.273	10123.28
555.473	10067.99
555.672	9748.5
555.872	9625.62
556.071	9539.61
556.271	9422.87
556.47	9269.28
556.67	8839.2
556.869	8798.24
557.068	8806.44
557.268	8636.45
557.467	8570.92
557.667	8527.91
557.866	8233.01
558.065	7901.23
558.265	7657.53
558.464	7749.68
558.663	7804.98
558.863	7635
559.062	7551.03
559.261	7227.45
559.461	7282.75
559.66	7077.95
559.859	6959.17
560.058	6717.51
560.258	6737.99
560.457	6545.48
560.656	6697.03
560.855	6424.65
561.054	6373.45
561.253	6242.38
561.453	6123.6
561.652	6158.41
561.851	6115.41
562.05	5970
562.249	5640.28
562.448	5597.27
562.647	5365.85
562.846	5660.76
563.045	5533.78
563.244	5494.87
563.443	5365.85
563.642	5181.53
563.841	5230.68
564.04	4974.69
564.239	4980.83
564.438	4872.29
564.637	4767.84
564.836	4782.18
565.035	4798.56
565.234	4595.81
565.432	4765.79
565.631	4554.85
565.83	4429.93
566.029	4427.88
566.228	4259.95
566.427	4313.19
566.625	4096.11
566.824	4122.73
567.023	3983.47
567.222	3831.92
567.42	4075.63
567.619	3989.61
567.818	3967.09
568.016	3844.21
568.215	3844.21
568.414	3729.52
568.612	3561.59
568.811	3557.49
569.01	3561.59
569.208	3436.66
569.407	3358.84
569.605	3293.3
569.804	3272.82
570.002	3367.03
570.201	3172.47
570.4	3250.3
570.598	3090.56
570.797	3197.05
570.995	3131.51
571.193	2926.72
571.392	3016.83
571.59	2996.35
571.789	2932.86
571.987	2916.48
572.186	2838.66
572.384	2707.59
572.582	2760.83
572.781	2764.93
572.979	2470.02
573.177	2687.11
573.376	2586.76
573.574	2584.71
573.772	2490.5
573.971	2420.87
574.169	2259.08
574.367	2273.42
574.565	2279.56
574.763	2089.1
574.962	2345.09
575.16	2166.92
575.358	2125.96
575.556	2115.72
575.754	2130.06
575.952	2072.72
576.151	2064.52
576.349	2056.33
576.547	1904.78
576.745	2113.67
576.943	2011.28
577.141	1935.5
577.339	1753.23
577.537	1800.34
577.735	1861.77
577.933	1730.7
578.131	1779.86
578.329	1853.58
578.527	1736.85
578.725	1687.7
578.923	1626.26
579.121	1736.85
579.319	1446.04
579.516	1546.39
579.714	1790.1
579.912	1591.44
580.11	1499.28
580.308	1482.9
580.506	1380.5
580.704	1278.1
580.901	1345.69
581.099	1487
581.297	1337.49
581.495	1323.16
581.692	1333.4
581.89	1456.28
582.088	1286.3
582.285	1323.16
582.483	1259.67
582.681	1261.72
582.878	1220.76
583.076	1124.51
583.274	1224.86
583.471	1343.64
583.669	1226.9
583.866	1044.63
584.064	1181.85
584.262	1065.11
584.459	1054.87
584.657	1083.55
584.854	1165.46
585.052	1159.32
585.249	1079.45
585.447	1058.97
585.644	950.43
585.841	1124.51
586.039	1034.39
586.236	1028.25
586.434	1009.82
586.631	950.43
586.828	909.47
587.026	915.61
587.223	903.32
587.42	925.85
587.618	932
587.815	1007.77
588.012	805.02
588.21	805.02
588.407	958.62
588.604	915.61
588.801	770.21
588.999	911.52
589.196	903.32
589.393	817.31
589.59	884.89
589.787	841.89
589.984	774.3
590.182	790.69
590.379	833.69
590.576	719.01
590.773	790.69
590.97	770.21
591.167	872.61
591.364	833.69
591.561	665.76
591.758	868.51
591.955	829.6
592.152	747.68
592.349	719.01
592.546	835.74
592.743	782.49
592.94	755.87
593.137	737.44
593.334	798.88
593.531	780.45
593.727	725.15
593.924	850.08
594.121	727.2
594.318	737.44
594.515	759.97
594.712	993.44
594.908	874.65
595.105	725.15
595.302	886.94
595.499	784.54
595.696	915.61
595.892	882.85
596.089	966.81
596.286	854.17
596.482	1058.97
596.679	934.04
596.876	932
597.072	1071.26
597.269	1026.2
597.466	1118.36
597.662	1108.12
597.859	1091.74
598.055	1108.12
598.252	1294.49
598.448	1192.09
598.645	1245.34
598.841	1280.15
599.038	1470.61
599.234	1607.83
599.431	1419.41
599.627	1497.24
599.824	1560.72
600.02	1489.04
600.217	1644.69
600.413	1671.31
600.609	1853.58
600.806	1992.84
601.002	1960.08
601.198	1937.55
601.395	2209.93
601.591	2125.96
601.787	2347.14
601.984	2343.05
602.18	2416.77
602.376	2637.95
602.572	2615.43
602.769	2783.36
602.965	2797.7
603.161	2918.53
603.357	2963.58
603.553	3168.38
603.75	3174.52
603.946	3242.11
604.142	3389.56
604.338	3582.07
604.534	3625.08
604.73	3840.11
604.926	3772.53
605.122	3954.8
605.318	4132.97
605.514	4206.7
605.71	4276.33
605.906	4608.1
606.102	4489.32
606.298	4933.73
606.494	4888.67
606.69	5156.96
606.886	5124.19
607.082	5206.11
607.278	5476.44
607.474	5625.94
607.67	5664.85
607.866	5861.46
608.062	6154.32
608.257	6375.5
608.453	6430.79
608.649	6844.48
608.845	6750.28
609.041	7063.61
609.236	7241.79
609.432	7407.67
609.628	7663.67
609.824	7870.51
610.019	7862.32
610.215	8083.5
610.411	8583.21
610.606	8871.97
610.802	8794.15
610.998	9099.3
611.193	9281.57
611.389	9396.25
611.584	9758.74
611.78	9816.08
611.976	10225.68
612.171	10377.23
612.367	10721.29
612.562	11112.45
612.758	11116.55
612.953	11493.37
613.149	11806.71
613.344	12201.97
613.539	12691.43
613.735	13193.19
613.93	13567.96
614.126	13393.89
614.321	14129.11
614.517	14411.73
614.712	14639.05
614.907	14985.16
615.103	15443.9
615.298	15593.4
615.493	16476.08
615.688	16527.28
615.884	17250.21
616.079	17299.36
616.274	18147.22
616.47	18425.75
616.665	18931.59
616.86	19013.51
617.055	19699.58
617.25	20092.79
617.445	21067.63
617.641	21258.09
617.836	21923.68
618.031	22081.37
618.226	22871.89
618.421	23119.69
618.616	24315.7
618.811	24622.9
619.006	25392.94
619.201	25696.03
619.396	26191.64
619.591	26308.38
619.786	27680.52
619.981	27901.7
620.176	28434.17
620.371	28784.37
620.566	29863.65
620.761	30211.81
620.956	31110.86
621.151	31268.56
621.346	31923.91
621.541	32057.03
621.735	33572.52
621.93	33586.86
622.125	34512.54
622.32	34797.21
622.515	35382.93
622.709	36384.38
622.904	36855.42
623.099	37594.73
623.294	38248.04
623.488	38362.72
623.683	39433.81
623.878	39687.76
624.072	40844.86
624.267	41897.52
624.462	41850.41
624.656	42079.78
624.851	43040.28
625.046	43480.6
625.24	44287.49
625.435	44875.26
625.629	45630.96
625.824	46085.61
626.018	46884.32
626.213	46204.39
626.407	47764.95
626.602	47678.93
626.796	48575.94
626.991	49034.69
627.185	49051.07
627.38	49440.18
627.574	49489.34
627.768	49440.18
627.963	49976.75
628.157	50101.68
628.352	50851.23
628.546	50030
628.74	50675.11
628.935	50116.01
629.129	50118.06
629.323	49724.85
629.517	49386.94
629.712	49128.89
629.906	48981.44
630.1	47832.53
630.294	47994.32
630.489	46972.38
630.683	47076.83
630.877	45882.86
631.071	45155.83
631.265	44504.58
631.459	43513.36
631.653	42728.99
631.848	41571.89
632.042	40369.73
632.236	39872.07
632.43	38432.35
632.624	37971.56
632.818	35706.51
633.012	34967.19
633.206	34084.51
633.4	33324.72
633.594	31487.69
633.788	30711.51
633.982	29820.64
634.176	28786.42
634.369	27545.35
634.563	26392.34
634.757	25200.43
634.951	24692.53
635.145	23834.43
635.339	22798.16
635.533	21675.87
635.726	21274.47
635.92	19861.37
636.114	19316.61
636.308	18392.98
636.501	17633.18
636.695	16998.31
636.889	16295.86
637.083	15767.48
637.276	15105.99
637.47	14200.79
637.664	13524.96
637.857	13377.5
638.051	12648.43
638.244	12185.58
638.438	11708.41
638.632	11272.19
638.825	10590.22
639.019	10491.91
639.212	10002.45
639.406	9510.94
639.599	9011.23
639.793	8947.75
639.986	8437.8
640.18	8208.43
640.373	7981.1
640.567	7395.39
640.76	7245.88
640.954	7030.85
641.147	6760.52
641.34	6463.56
641.534	6348.87
641.727	6004.82
641.92	5675.09
642.114	5691.48
642.307	5378.14
642.5	5222.49
642.694	4960.35
642.887	4806.75
643.08	4773.99
643.273	4401.26
643.467	4233.32
643.66	4042.86
643.853	3971.18
644.046	3975.28
644.239	3606.64
644.432	3489.91
644.626	3295.35
644.819	3231.87
645.012	3141.75
645.205	3033.21
645.398	2830.46
645.591	2748.54
645.784	2824.32
645.977	2711.68
646.17	2502.79
646.363	2402.44
646.556	2293.9
646.749	2183.31
646.942	2197.64
647.135	2140.3
647.328	1988.75
647.521	2027.66
647.714	1802.38
647.907	1742.99
648.099	1638.55
648.292	1722.51
648.485	1616.02
648.678	1495.19
648.871	1446.04
649.064	1353.88
649.256	1274.01
649.449	1278.1
649.642	1243.29
649.835	1218.71
650.027	1118.36
650.22	1237.14
650.413	1015.96
650.605	1089.69
650.798	1011.87
650.991	1024.16
651.183	925.85
651.376	919.71
651.568	880.8
651.761	884.89
651.954	913.56
652.146	837.79
652.339	850.08
652.531	874.65
652.724	700.58
652.916	665.76
653.109	581.79
653.301	802.97
653.494	784.54
653.686	667.81
653.879	807.07
654.071	669.86
654.263	696.48
654.456	542.88
654.648	700.58
654.84	598.18
655.033	485.54
655.225	608.42
655.417	379.04
655.61	610.47
655.802	553.12
655.994	516.26
656.186	409.76
656.379	532.64
656.571	456.87
656.763	432.29
656.955	360.61
657.148	514.21
657.34	499.88
657.532	381.09
657.724	399.52
657.916	397.48
658.108	469.16
658.3	426.15
658.492	510.11
658.684	278.69
658.876	444.58
659.068	270.5
659.26	217.26
659.452	274.6
659.644	399.52
659.836	366.76
660.028	342.18
660.22	233.64
660.412	299.17
660.604	333.99
660.796	282.79
660.988	356.52
661.18	295.08
661.372	344.23
661.563	299.17
661.755	241.83
661.947	237.74
662.139	268.45
662.331	387.24
662.522	303.27
662.714	225.45
662.906	252.07
663.097	282.79
663.289	225.45
663.481	102.57
663.673	286.89
663.864	184.49
664.056	209.06
664.247	225.45
664.439	243.88
664.631	260.26
664.822	231.59
665.014	229.54
665.205	190.63
665.397	192.68
665.588	237.74
665.78	252.07
665.971	293.03
666.163	125.1
666.354	237.74
666.546	110.76
666.737	159.91
666.929	141.48
667.12	127.14
667.311	215.21
667.503	137.38
667.694	135.34
667.885	221.35
668.077	213.16
668.268	90.28
668.459	174.25
668.651	198.82
668.842	200.87
669.033	131.24
669.224	55.47
669.416	368.81
669.607	127.14
669.798	53.42
669.989	256.17
670.18	129.19
670.371	155.82
670.563	108.71
670.754	260.26
670.945	164.01
671.136	200.87
671.327	141.48
671.518	268.45
671.709	329.89
671.9	204.97
672.091	266.41
672.282	166.06
672.473	161.96
672.664	92.33
672.855	170.15
673.046	225.45
673.237	221.35
673.428	184.49
673.619	305.32
673.809	235.69
674	297.13
674.191	198.82
674.382	112.81
674.573	182.44
674.764	135.34
674.954	268.45
675.145	82.09
675.336	184.49
675.527	155.82
675.717	133.29
675.908	114.86
676.099	108.71
676.289	145.58
676.48	86.19
676.671	239.78
676.861	188.58
677.052	272.55
677.243	164.01
677.433	108.71
677.624	157.86
677.814	221.35
678.005	168.1
678.195	270.5
678.386	92.33
678.576	135.34
678.767	116.9
678.957	252.07
679.148	286.89
679.338	301.22
679.529	268.45
679.719	157.86
679.909	282.79
680.1	243.88
680.29	239.78
680.481	45.23
680.671	233.64
680.861	266.41
681.052	247.97
681.242	178.34
681.432	215.21
681.622	227.5
681.813	172.2
682.003	235.69
682.193	123.05
682.383	266.41
682.573	135.34
682.764	280.74
682.954	145.58
683.144	342.18
683.334	231.59
683.524	198.82
683.714	217.26
683.904	295.08
684.094	254.12
684.284	229.54
684.474	278.69
684.664	272.55
684.854	237.74
685.044	233.64
685.234	241.83
685.424	301.22
685.614	176.3
685.804	350.37
685.994	274.6
686.184	315.56
686.374	268.45
686.564	333.99
686.753	278.69
686.943	196.78
687.133	252.07
687.323	202.92
687.513	274.6
687.702	243.88
687.892	274.6
688.082	331.94
688.272	307.37
688.461	266.41
688.651	364.71
688.841	307.37
689.03	172.2
689.22	170.15
689.41	209.06
689.599	237.74
689.789	190.63
689.979	360.61
690.168	315.56
690.358	397.48
690.547	295.08
690.737	272.55
690.926	301.22
691.116	276.65
691.305	331.94
691.495	243.88
691.684	184.49
691.874	221.35
692.063	272.55
692.252	354.47
692.442	338.09
692.631	235.69
692.82	168.1
693.01	295.08
693.199	254.12
693.388	233.64
693.578	254.12
693.767	309.41
693.956	342.18
694.146	254.12
694.335	389.28
694.524	213.16
694.713	264.36
694.902	217.26
695.092	225.45
695.281	241.83
695.47	221.35
695.659	233.64
695.848	268.45
696.037	254.12
696.226	274.6
696.415	233.64
696.604	389.28
696.793	303.27
696.982	276.65
697.171	303.27
697.36	274.6
697.549	319.65
697.738	63.66
697.927	243.88
698.116	153.77
698.305	319.65
698.494	319.65
698.683	172.2
698.872	446.63
699.061	274.6
699.25	211.11
699.438	245.93
699.627	215.21
699.816	426.15
700.005	159.91
700.193	274.6
700.382	340.13
700.571	317.61
700.76	186.54
700.948	336.04
701.137	315.56
701.326	211.11
701.514	168.1
701.703	295.08
701.892	282.79
702.08	407.72
702.269	196.78
702.457	235.69
702.646	329.89
702.834	260.26
703.023	321.7
703.212	313.51
703.4	231.59
703.589	196.78
703.777	164.01
703.965	278.69
704.154	213.16
704.342	121
704.531	204.97
704.719	202.92
704.907	262.31
705.096	170.15
705.284	139.43
705.472	280.74
705.661	282.79
705.849	327.85
706.037	360.61
706.226	295.08
706.414	282.79
706.602	123.05
706.79	325.8
706.979	207.02
707.167	239.78
707.355	84.14
707.543	241.83
707.731	327.85
707.919	202.92
708.107	239.78
708.296	182.44
708.484	123.05
708.672	268.45
708.86	207.02
709.048	194.73
709.236	256.17
709.424	338.09
709.612	252.07
709.8	135.34
709.988	301.22
710.176	311.46
710.364	338.09
710.551	147.62
710.739	278.69
710.927	268.45
711.115	282.79
711.303	344.23
711.491	399.52
711.679	157.86
711.866	270.5
712.054	280.74
712.242	372.9
712.43	401.57
712.617	209.06
712.805	305.32
712.993	225.45
713.181	155.82
713.368	288.93
713.556	250.02
713.744	245.93
713.931	454.82
714.119	295.08
714.306	258.21
714.494	252.07
714.682	264.36
714.869	184.49
715.057	254.12
715.244	161.96
715.432	280.74
715.619	217.26
715.807	276.65
715.994	262.31
716.182	301.22
716.369	358.57
716.556	325.8
716.744	157.86
716.931	196.78
717.119	250.02
717.306	178.34
717.493	303.27
717.681	168.1
717.868	215.21
718.055	323.75
718.242	178.34
718.43	209.06
718.617	372.9
718.804	254.12
718.991	301.22
719.179	315.56
719.366	288.93
719.553	235.69
719.74	274.6
719.927	237.74
720.114	282.79
720.301	229.54
720.488	207.02
720.676	194.73
720.863	342.18
721.05	405.67
721.237	307.37
721.424	290.98
721.611	354.47
721.798	198.82
721.985	233.64
722.172	276.65
722.358	286.89
722.545	295.08
722.732	389.28
722.919	420
723.106	350.37
723.293	278.69
723.48	311.46
723.667	274.6
723.853	383.14
724.04	313.51
724.227	422.05
724.414	245.93
724.6	284.84
724.787	467.11
724.974	481.44
725.161	329.89
725.347	247.97
725.534	254.12
725.72	360.61
725.907	385.19
726.094	333.99
726.28	209.06
726.467	252.07
726.653	258.21
726.84	391.33
727.027	370.85
727.213	348.33
727.4	340.13
727.586	327.85
727.773	387.24
727.959	239.78
728.145	305.32
728.332	379.04
728.518	344.23
728.705	354.47
728.891	319.65
729.077	331.94
729.264	254.12
729.45	260.26
729.636	354.47
729.823	331.94
730.009	446.63
730.195	364.71
730.382	385.19
730.568	223.4
730.754	350.37
730.94	323.75
731.126	379.04
731.313	401.57
731.499	321.7
731.685	379.04
731.871	348.33
732.057	458.92
732.243	426.15
732.429	325.8
732.615	438.44
732.801	352.42
732.987	338.09
733.173	383.14
733.359	362.66
733.545	417.96
733.731	282.79
733.917	503.97
734.103	368.81
734.289	415.91
734.475	315.56
734.661	518.31
734.847	344.23
735.033	342.18
735.219	463.01
735.404	331.94
735.59	272.55
735.776	280.74
735.962	301.22
736.148	442.53
736.333	420
736.519	389.28
736.705	354.47
736.89	407.72
737.076	336.04
737.262	336.04
737.447	340.13
737.633	381.09
737.819	434.34
738.004	372.9
738.19	311.46
738.375	463.01
738.561	403.62
738.747	424.1
738.932	356.52
739.118	479.4
739.303	352.42
739.489	391.33
739.674	346.28
739.859	260.26
740.045	395.43
740.23	372.9
740.416	207.02
740.601	356.52
740.786	393.38
740.972	323.75
741.157	340.13
741.342	264.36
741.528	286.89
741.713	391.33
741.898	317.61
742.084	405.67
742.269	305.32
742.454	469.16
742.639	393.38
742.824	297.13
743.01	495.78
743.195	411.81
743.38	377
743.565	364.71
743.75	331.94
743.935	426.15
744.12	399.52
744.305	331.94
744.49	325.8
744.675	360.61
744.86	356.52
745.045	465.06
745.23	409.76
745.415	364.71
745.6	477.35
745.785	327.85
745.97	401.57
746.155	407.72
746.34	403.62
746.525	354.47
746.71	415.91
746.895	274.6
747.079	264.36
747.264	278.69
747.449	323.75
747.634	481.44
747.819	340.13
748.003	272.55
748.188	286.89
748.373	288.93
748.557	331.94
748.742	360.61
748.927	278.69
749.111	282.79
749.296	247.97
749.481	393.38
749.665	313.51
749.85	268.45
750.034	311.46
750.219	270.5
750.404	252.07
750.588	352.42
750.773	204.97
750.957	323.75
751.141	266.41
751.326	389.28
751.51	241.83
751.695	290.98
751.879	276.65
752.064	469.16
752.248	305.32
752.432	368.81
752.617	325.8
752.801	344.23
752.985	301.22
753.17	381.09
753.354	344.23
753.538	307.37
753.722	258.21
753.907	184.49
754.091	229.54
754.275	403.62
754.459	153.77
754.643	250.02
754.828	233.64
755.012	333.99
755.196	145.58
755.38	237.74
755.564	252.07
755.748	241.83
755.932	352.42
756.116	303.27
756.3	336.04
756.484	174.25
756.668	239.78
756.852	155.82
757.036	192.68
757.22	215.21
757.404	186.54
757.588	217.26
757.772	225.45
757.956	231.59
758.14	342.18
758.323	153.77
758.507	360.61
758.691	153.77
758.875	239.78
759.059	237.74
759.242	135.34
759.426	227.5
759.61	198.82
759.794	182.44
759.977	297.13
760.161	430.24
760.345	364.71
760.528	303.27
760.712	252.07
760.895	231.59
761.079	223.4
761.263	155.82
761.446	116.9
761.63	235.69
761.813	299.17
761.997	141.48
762.18	176.3
762.364	245.93
762.547	112.81
762.731	125.1
762.914	217.26
763.098	164.01
763.281	180.39
763.464	100.52
763.648	223.4
763.831	239.78
764.015	141.48
764.198	202.92
764.381	151.72
764.564	229.54
764.748	178.34
764.931	215.21
765.114	133.29
765.297	260.26
765.481	139.43
765.664	196.78
765.847	219.3
766.03	250.02
766.213	180.39
766.397	186.54
766.58	125.1
766.763	172.2
766.946	149.67
767.129	174.25
767.312	196.78
767.495	164.01
767.678	127.14
767.861	172.2
768.044	137.38
768.227	137.38
768.41	96.43
768.593	174.25
768.776	129.19
768.959	133.29
769.142	258.21
769.324	135.34
769.507	147.62
769.69	139.43
769.873	168.1
770.056	286.89
770.239	102.57
770.421	239.78
770.604	227.5
770.787	166.06
770.97	168.1
771.152	63.66
771.335	204.97
771.518	73.9
771.7	231.59
771.883	264.36
772.066	141.48
772.248	170.15
772.431	213.16
772.613	137.38
772.796	102.57
772.978	159.91
773.161	196.78
773.343	75.95
773.526	135.34
773.708	53.42
773.891	-26.45
774.073	92.33
774.256	129.19
774.438	305.32
774.621	45.23
774.803	207.02
774.985	86.19
775.168	215.21
775.35	141.48
775.532	129.19
775.715	129.19
775.897	139.43
776.079	100.52
776.261	118.95
776.444	45.23
776.626	90.28
776.808	168.1
776.99	77.99
777.173	123.05
777.355	153.77
777.537	137.38
777.719	96.43
777.901	-44.88
778.083	94.38
778.265	34.99
778.447	147.62
778.629	61.61
778.811	108.71
778.993	139.43
779.175	141.48
779.357	104.62
779.539	-1.88
779.721	55.47
779.903	159.91
780.085	96.43
780.267	172.2
780.449	196.78
780.631	239.78
780.812	168.1
780.994	96.43
781.176	37.03
781.358	47.27
781.54	61.61
781.721	75.95
781.903	209.06
782.085	51.37
782.267	133.29
782.448	47.27
782.63	67.75
782.812	84.14
782.993	225.45
783.175	82.09
783.357	108.71
783.538	166.06
783.72	43.18
783.901	55.47
784.083	34.99
784.264	71.85
784.446	-16.21
784.627	22.7
784.809	149.67
784.99	55.47
785.172	69.8
785.353	18.6
785.535	69.8
785.716	-26.45
785.897	80.04
786.079	73.9
786.26	53.42
786.441	59.56
786.623	-51.03
786.804	-1.88
786.985	110.76
787.167	131.24
787.348	51.37
787.529	63.66
787.71	235.69
787.891	164.01
788.073	2.22
788.254	30.89
788.435	196.78
788.616	129.19
788.797	4.27
788.978	106.67
789.159	32.94
789.34	112.81
789.522	61.61
789.703	18.6
789.884	104.62
790.065	114.86
790.246	237.74
790.427	53.42
790.607	127.14
790.788	168.1
790.969	-46.93
791.15	73.9
791.331	90.28
791.512	24.75
791.693	-28.5
791.874	86.19
792.054	155.82
792.235	194.73
792.416	14.51
792.597	10.41
792.778	123.05
792.958	94.38
793.139	59.56
793.32	100.52
793.5	8.36
793.681	229.54
793.862	100.52
794.042	26.79
794.223	-12.12
794.404	10.41
794.584	-24.4
794.765	77.99
794.945	20.65
795.126	145.58
795.306	88.23
795.487	0.17
795.667	2.22
795.848	166.06
796.028	28.84
796.209	65.71
796.389	51.37
796.57	-3.93
796.75	-12.12
796.93	53.42
797.111	-8.02
797.291	49.32
797.471	125.1
797.652	-91.99
797.832	-22.36
798.012	121
798.192	-32.6
798.373	18.6
798.553	0.17
798.733	129.19
798.913	-87.89
799.093	4.27
799.274	118.95
799.454	28.84
799.634	116.9
799.814	20.65
799.994	86.19
800.174	53.42
800.354	55.47
800.534	-108.37
800.714	145.58
800.894	-77.65
801.074	-8.02
801.254	10.41
801.434	149.67
801.614	61.61
801.794	-44.88
801.974	1826.96
802.154	4.27
802.334	123.05
802.514	-65.36
802.693	84.14
802.873	22.7
803.053	176.3
803.233	67.75
803.413	57.51
803.592	22.7
803.772	41.13
803.952	34.99
804.131	-55.12
804.311	135.34
804.491	186.54
804.67	-26.45
804.85	8.36
805.03	80.04
805.209	16.55
805.389	20.65
805.568	-18.26
805.748	34.99
805.928	-16.21
806.107	131.24
806.287	49.32
806.466	88.23
806.646	41.13
806.825	-38.74
807.004	-55.12
807.184	116.9
807.363	153.77
807.543	86.19
807.722	-24.4
807.901	41.13
808.081	135.34
808.26	-108.37
808.439	8.36
808.619	71.85
808.798	34.99
808.977	71.85
809.156	159.91
809.336	73.9
809.515	110.76
809.694	-28.5
809.873	-1.88
810.052	90.28
810.231	127.14
810.411	106.67
810.59	110.76
810.769	26.79
810.948	96.43
811.127	-32.6
811.306	-38.74
811.485	32.94
811.664	104.62
811.843	26.79
812.022	28.84
812.201	24.75
812.38	-34.64
812.559	34.99
812.737	118.95
812.916	-96.08
813.095	-67.41
813.274	88.23
813.453	96.43
813.632	80.04
813.811	121
813.989	-14.17
814.168	28.84
814.347	-53.08
814.526	28.84
814.704	151.72
814.883	125.1
815.062	41.13
815.24	69.8
815.419	-32.6
815.598	63.66
815.776	-128.85
815.955	12.46
816.133	-32.6
816.312	-34.64
816.49	-87.89
816.669	37.03
816.847	88.23
817.026	90.28
817.204	51.37
817.383	102.57
817.561	-102.23
817.74	67.75
817.918	65.71
818.097	41.13
818.275	-16.21
818.453	90.28
818.632	-14.17
818.81	24.75
818.988	18.6
819.167	45.23
819.345	6.31
819.523	37.03
819.701	10.41
819.879	80.04
820.058	125.1
820.236	-24.4
820.414	12.46
820.592	6.31
820.77	-18.26
820.948	-18.26
821.127	-57.17
821.305	71.85
821.483	-71.51
821.661	49.32
821.839	24.75
822.017	6.31
822.195	-24.4
822.373	112.81
822.551	63.66
822.729	65.71
822.907	37.03
823.085	90.28
823.262	84.14
823.44	82.09
823.618	45.23
823.796	45.23
823.974	30.89
824.152	-16.21
824.329	20.65
824.507	12.46
824.685	39.08
824.863	37.03
825.04	45.23
825.218	123.05
825.396	51.37
825.574	90.28
825.751	37.03
825.929	110.76
826.107	-12.12
826.284	-42.84
826.462	106.67
826.639	-10.07
826.817	-51.03
826.994	14.51
827.172	-120.66
827.349	112.81
827.527	63.66
827.704	20.65
827.882	110.76
828.059	61.61
828.237	-5.97
828.414	55.47
828.591	-118.61
828.769	51.37
828.946	47.27
829.124	41.13
829.301	125.1
829.478	-32.6
829.655	26.79
829.833	45.23
830.01	-102.23
830.187	65.71
830.364	24.75
830.542	73.9
830.719	190.63
830.896	-5.97
831.073	77.99
831.25	129.19
831.427	69.8
831.604	69.8
831.782	-71.51
831.959	-3.93
832.136	12.46
832.313	75.95
832.49	-44.88
832.667	39.08
832.844	6.31
833.021	63.66
833.198	22.7
833.374	84.14
833.551	127.14
833.728	26.79
833.905	139.43
834.082	-106.32
834.259	34.99
834.436	114.86
834.612	-69.46
834.789	63.66
834.966	65.71
835.143	114.86
835.319	26.79
835.496	26.79
835.673	51.37
835.85	161.96
836.026	55.47
836.203	92.33
836.38	-3.93
836.556	-42.84
836.733	-30.55
836.909	137.38
837.086	-40.79
837.262	-94.04
837.439	88.23
837.616	-40.79
837.792	-18.26
837.968	65.71
838.145	-89.94
838.321	4.27
838.498	114.86
838.674	114.86
838.851	4.27
839.027	26.79
839.203	20.65
839.38	65.71
839.556	-32.6
839.732	127.14
839.909	26.79
840.085	98.47
840.261	0.17
840.437	-24.4
840.614	-10.07
840.79	137.38
840.966	90.28
841.142	65.71
841.318	-36.69
841.494	96.43
841.671	135.34
841.847	-44.88
842.023	-48.98
842.199	71.85
842.375	157.86
842.551	-128.85
842.727	-69.46
842.903	223.4
843.079	-59.22
843.255	67.75
843.431	-42.84
843.607	53.42
843.783	-102.23
843.959	32.94
844.134	-3.93
844.31	184.49
844.486	0.17
844.662	67.75
844.838	16.55
845.013	41.13
845.189	80.04
845.365	8.36
845.541	-3.93
845.716	37.03
845.892	80.04
846.068	-38.74
846.244	-1.88
846.419	73.9
846.595	63.66
846.77	6.31
846.946	108.71
847.122	16.55
847.297	-57.17
847.473	63.66
847.648	-28.5
847.824	39.08
847.999	-96.08
848.175	34.99
848.35	45.23
848.526	182.44
848.701	65.71
848.876	84.14
849.052	75.95
849.227	114.86
849.403	22.7
849.578	-16.21
849.753	59.56
849.929	-55.12
850.104	-85.84
850.279	88.23
850.454	39.08
850.63	32.94
850.805	12.46
850.98	65.71
851.155	-5.97
851.33	69.8
851.505	-44.88
851.681	170.15
851.856	-20.31
852.031	118.95
852.206	14.51
852.381	-20.31
852.556	49.32
852.731	49.32
852.906	61.61
853.081	39.08
853.256	118.95
853.431	0.17
853.606	28.84
853.781	-65.36
853.956	-55.12
854.131	14.51
854.305	10.41
854.48	6.31
854.655	-14.17
854.83	8.36
855.005	-3.93
855.18	57.51
855.354	-5.97
855.529	16.55
855.704	4.27
855.879	51.37
856.053	-26.45
856.228	59.56
856.403	-42.84
856.577	34.99
856.752	-38.74
856.926	-48.98
857.101	-1.88
857.276	-3.93
857.45	18.6
857.625	53.42
857.799	102.57
857.974	127.14
858.148	-85.84
858.323	69.8
858.497	82.09
858.672	-8.02
858.846	-34.64
859.02	118.95
859.195	-85.84
859.369	-20.31
859.543	18.6
859.718	39.08
859.892	82.09
860.066	55.47
860.241	53.42
860.415	0.17
860.589	-96.08
860.763	-10.07
860.938	-55.12
861.112	55.47
861.286	20.65
861.46	24.75
861.634	-16.21
861.808	57.51
861.982	20.65
862.157	-73.56
862.331	30.89
862.505	-79.7
862.679	-22.36
862.853	2.22
863.027	-24.4
863.201	106.67
863.375	-18.26
863.549	63.66
863.722	39.08
863.896	39.08
864.07	30.89
864.244	-75.6
864.418	88.23
864.592	45.23
864.766	118.95
864.939	20.65
865.113	-36.69
865.287	90.28
865.461	-51.03
865.634	73.9
865.808	18.6
865.982	32.94
866.156	-83.8
866.329	-14.17
866.503	-46.93
866.676	149.67
866.85	45.23
867.024	-28.5
867.197	30.89
867.371	49.32
867.544	88.23
867.718	-91.99
867.891	200.87
868.065	-89.94
868.238	45.23
868.412	18.6
868.585	71.85
868.759	6.31
868.932	67.75
869.105	-81.75
869.279	55.47
869.452	8.36
869.625	65.71
869.799	-22.36
869.972	-3.93
870.145	-44.88
870.319	32.94
870.492	-51.03
870.665	-87.89
870.838	-3.93
871.011	-98.13
871.185	-67.41
871.358	-71.51
871.531	16.55
871.704	43.18
871.877	47.27
872.05	-91.99
872.223	-67.41
872.396	59.56
872.569	43.18
872.742	-61.27
872.915	65.71
873.088	-42.84
873.261	-30.55
873.434	55.47
873.607	108.71
873.78	88.23
873.953	-8.02
874.126	24.75
874.299	32.94
874.471	-12.12
874.644	-10.07
874.817	30.89
874.99	108.71
875.163	-42.84
875.335	118.95
875.508	-57.17
875.681	127.14
875.853	-22.36
876.026	-48.98
876.199	30.89
876.371	30.89
876.544	-38.74
876.717	-55.12
876.889	2.22
877.062	57.51
877.234	-85.84
877.407	61.61
877.579	-55.12
877.752	71.85
877.924	59.56
878.097	12.46
878.269	49.32
878.442	2.22
878.614	92.33
878.786	73.9
878.959	2.22
879.131	98.47
879.303	-106.32
879.476	6.31
879.648	143.53
879.82	22.7
879.993	30.89
880.165	-12.12
880.337	-89.94
880.509	41.13
880.681	-34.64
880.854	-44.88
881.026	53.42
881.198	188.58
881.37	34.99
881.542	16.55
881.714	104.62
881.886	-71.51
882.058	61.61
882.23	24.75
882.402	-18.26
882.574	69.8
882.746	71.85
882.918	184.49
883.09	41.13
883.262	-55.12
883.434	59.56
883.606	-65.36
883.778	69.8
883.95	127.14
884.122	-79.7
884.293	106.67
884.465	102.57
884.637	30.89
884.809	71.85
884.98	-30.55
885.152	34.99
885.324	104.62
885.496	-53.08
885.667	-10.07
885.839	-26.45
886.011	137.38
886.182	61.61
886.354	137.38
886.525	63.66
886.697	10.41
886.869	-100.18
887.04	-36.69
887.212	121
887.383	168.1
887.555	16.55
887.726	10.41
887.897	14.51
888.069	-3.93
888.24	63.66
888.412	32.94
888.583	63.66
888.754	-26.45
888.926	-96.08
889.097	32.94
889.268	-87.89
889.44	55.47
889.611	-155.47
889.782	-48.98
889.953	-40.79
890.125	53.42
890.296	-73.56
890.467	-51.03
890.638	-24.4
890.809	8.36
890.98	37.03
891.151	41.13
891.323	100.52
891.494	37.03
891.665	80.04
891.836	-8.02
892.007	-22.36
892.178	123.05
892.349	45.23
892.52	-8.02
892.691	61.61
892.862	71.85
893.032	-46.93
893.203	-22.36
893.374	102.57
893.545	141.48
893.716	26.79
893.887	86.19
894.057	-40.79
894.228	-75.6
894.399	-106.32
894.57	110.76
894.74	30.89
894.911	4.27
895.082	-65.36
895.253	-1.88
895.423	37.03
895.594	82.09
895.764	88.23
895.935	-16.21
896.106	22.7
896.276	-57.17
896.447	65.71
896.617	0.17
896.788	-73.56
896.958	-48.98
897.129	12.46
897.299	-32.6
897.47	118.95
897.64	123.05
897.81	53.42
897.981	6.31
898.151	-24.4
898.322	-20.31
898.492	73.9
898.662	-61.27
898.832	-8.02
899.003	63.66
899.173	-5.97
899.343	-5.97
899.513	-63.32
