Data from USB4F104151__90__10-34-48-132.txt Node

Date: Wed Feb 26 10:34:48 EST 2025
User: louis
Spectrometer: USB4F10415
Trigger mode: 4
Integration Time (sec): 1.000000E-1
Scans to average: 1
Electric dark correction enabled: true
Nonlinearity correction enabled: false
Boxcar width: 0
XAxis mode: Wavelengths
Number of Pixels in Spectrum: 3648
>>>>>Begin Spectral Data<<<<<
178.204	-368.98
178.424	-368.98
178.644	-368.98
178.864	-471.37
179.084	-346.45
179.304	-12.63
179.524	-72.02
179.744	65.19
179.964	32.43
180.184	7.85
180.404	9.9
180.624	-24.92
180.844	-29.01
181.064	-69.97
181.283	40.62
181.503	-10.58
181.723	63.15
181.943	-41.3
182.163	165.54
182.383	-16.73
182.602	104.11
182.822	104.11
183.042	79.53
183.262	-53.59
183.482	44.71
183.701	32.43
183.921	71.34
184.141	-47.44
184.361	83.63
184.58	95.91
184.8	69.29
185.02	-0.34
185.239	34.47
185.459	83.63
185.679	89.77
185.898	-90.45
186.118	9.9
186.338	44.71
186.557	110.25
186.777	34.47
186.997	-55.64
187.216	24.23
187.436	247.46
187.655	16.04
187.875	65.19
188.095	44.71
188.314	83.63
188.534	138.92
188.753	30.38
188.973	81.58
189.192	116.39
189.412	-20.82
189.631	7.85
189.851	28.33
190.07	200.36
190.29	-51.54
190.509	-31.06
190.729	-4.44
190.948	177.83
191.168	292.52
191.387	63.15
191.607	24.23
191.826	71.34
192.045	5.8
192.265	36.52
192.484	110.25
192.704	30.38
192.923	-6.49
193.142	200.36
193.362	73.39
193.581	163.5
193.8	73.39
194.02	87.72
194.239	118.44
194.458	124.58
194.678	-0.34
194.897	16.04
195.116	63.15
195.335	140.97
195.555	63.15
195.774	32.43
195.993	116.39
196.212	61.1
196.432	11.95
196.651	-14.68
196.87	-29.01
197.089	218.79
197.308	30.38
197.528	63.15
197.747	-29.01
197.966	85.67
198.185	126.63
198.404	-14.68
198.623	143.02
198.842	116.39
199.062	89.77
199.281	32.43
199.5	63.15
199.719	71.34
199.938	20.14
200.157	79.53
200.376	118.44
200.595	122.54
200.814	71.34
201.033	36.52
201.252	140.97
201.471	57
201.69	93.87
201.909	-51.54
202.128	118.44
202.347	124.58
202.566	87.72
202.785	28.33
203.004	7.85
203.223	233.13
203.442	44.71
203.661	-47.44
203.879	75.43
204.098	89.77
204.317	22.19
204.536	134.82
204.755	44.71
204.974	186.02
205.193	34.47
205.411	194.22
205.63	100.01
205.849	52.91
206.068	28.33
206.287	1.71
206.505	210.6
206.724	100.01
206.943	-72.02
207.162	30.38
207.381	169.64
207.599	46.76
207.818	50.86
208.037	-39.25
208.255	-14.68
208.474	38.57
208.693	20.14
208.911	32.43
209.13	77.48
209.349	59.05
209.567	69.29
209.786	87.72
210.005	54.95
210.223	54.95
210.442	-6.49
210.661	36.52
210.879	91.82
211.098	9.9
211.316	42.67
211.535	118.44
211.753	16.04
211.972	159.4
212.191	-24.92
212.409	38.57
212.628	91.82
212.846	34.47
213.065	77.48
213.283	89.77
213.502	-0.34
213.72	130.73
213.938	7.85
214.157	-22.87
214.375	120.49
214.594	128.68
214.812	132.78
215.031	9.9
215.249	63.15
215.467	73.39
215.686	61.1
215.904	63.15
216.122	75.43
216.341	5.8
216.559	59.05
216.778	85.67
216.996	163.5
217.214	30.38
217.432	-18.77
217.651	-37.2
217.869	91.82
218.087	77.48
218.306	9.9
218.524	26.28
218.742	20.14
218.96	97.96
219.179	1.71
219.397	46.76
219.615	235.18
219.833	120.49
220.051	11.95
220.27	100.01
220.488	153.26
220.706	102.06
220.924	42.67
221.142	40.62
221.36	3.75
221.578	5.8
221.796	26.28
222.015	-47.44
222.233	52.91
222.451	151.21
222.669	-65.88
222.887	122.54
223.105	-10.58
223.323	67.24
223.541	-8.53
223.759	7.85
223.977	26.28
224.195	171.69
224.413	112.3
224.631	40.62
224.849	13.99
225.067	251.56
225.285	13.99
225.503	89.77
225.721	-49.49
225.939	71.34
226.157	16.04
226.375	218.79
226.592	1.71
226.81	54.95
227.028	63.15
227.246	97.96
227.464	1.71
227.682	38.57
227.9	44.71
228.117	42.67
228.335	95.91
228.553	36.52
228.771	36.52
228.989	104.11
229.206	61.1
229.424	38.57
229.642	100.01
229.86	-22.87
230.077	116.39
230.295	93.87
230.513	143.02
230.731	54.95
230.948	196.26
231.166	132.78
231.384	-20.82
231.601	16.04
231.819	159.4
232.037	38.57
232.254	-8.53
232.472	9.9
232.689	42.67
232.907	120.49
233.125	-4.44
233.342	-24.92
233.56	59.05
233.777	-33.11
233.995	44.71
234.213	114.34
234.43	126.63
234.648	57
234.865	-8.53
235.083	22.19
235.3	67.24
235.518	120.49
235.735	153.26
235.953	175.78
236.17	-8.53
236.388	87.72
236.605	1.71
236.822	165.54
237.04	151.21
237.257	48.81
237.475	-12.63
237.692	61.1
237.909	122.54
238.127	30.38
238.344	93.87
238.562	75.43
238.779	-59.73
238.996	-53.59
239.214	7.85
239.431	38.57
239.648	-49.49
239.865	89.77
240.083	85.67
240.3	-14.68
240.517	75.43
240.735	36.52
240.952	83.63
241.169	22.19
241.386	32.43
241.603	28.33
241.821	-20.82
242.038	7.85
242.255	42.67
242.472	-4.44
242.689	67.24
242.907	3.75
243.124	59.05
243.341	13.99
243.558	-14.68
243.775	-2.39
243.992	-33.11
244.209	106.15
244.426	212.65
244.643	67.24
244.86	48.81
245.078	26.28
245.295	38.57
245.512	-22.87
245.729	44.71
245.946	28.33
246.163	57
246.38	16.04
246.597	40.62
246.814	65.19
247.031	75.43
247.248	97.96
247.464	44.71
247.681	104.11
247.898	97.96
248.115	61.1
248.332	-86.36
248.549	110.25
248.766	173.74
248.983	81.58
249.2	100.01
249.417	77.48
249.633	9.9
249.85	124.58
250.067	-8.53
250.284	79.53
250.501	147.11
250.717	114.34
250.934	-59.73
251.151	-33.11
251.368	52.91
251.585	87.72
251.801	9.9
252.018	-20.82
252.235	11.95
252.451	9.9
252.668	-53.59
252.885	163.5
253.102	-16.73
253.318	-20.82
253.535	11.95
253.752	-10.58
253.968	-18.77
254.185	-47.44
254.401	32.43
254.618	54.95
254.835	63.15
255.051	97.96
255.268	97.96
255.484	77.48
255.701	3.75
255.917	69.29
256.134	40.62
256.351	95.91
256.567	-82.26
256.784	20.14
257	-59.73
257.217	171.69
257.433	34.47
257.65	42.67
257.866	147.11
258.082	-92.5
258.299	20.14
258.515	106.15
258.732	63.15
258.948	32.43
259.165	5.8
259.381	87.72
259.597	20.14
259.814	40.62
260.03	46.76
260.246	-31.06
260.463	196.26
260.679	134.82
260.895	44.71
261.112	93.87
261.328	7.85
261.544	9.9
261.761	153.26
261.977	-2.39
262.193	-18.77
262.409	71.34
262.626	85.67
262.842	85.67
263.058	-37.2
263.274	149.16
263.49	75.43
263.707	77.48
263.923	132.78
264.139	-108.88
264.355	81.58
264.571	79.53
264.787	89.77
265.004	251.56
265.22	11.95
265.436	-10.58
265.652	28.33
265.868	95.91
266.084	-12.63
266.3	77.48
266.516	9.9
266.732	48.81
266.948	134.82
267.164	-12.63
267.38	138.92
267.596	71.34
267.812	102.06
268.028	71.34
268.244	36.52
268.46	71.34
268.676	36.52
268.892	110.25
269.108	-35.16
269.324	-72.02
269.54	-43.35
269.756	87.72
269.972	-16.73
270.188	3.75
270.403	-78.16
270.619	-18.77
270.835	50.86
271.051	50.86
271.267	91.82
271.483	54.95
271.698	122.54
271.914	108.2
272.13	42.67
272.346	26.28
272.562	7.85
272.777	138.92
272.993	48.81
273.209	38.57
273.425	20.14
273.64	-6.49
273.856	130.73
274.072	-8.53
274.287	24.23
274.503	229.03
274.719	102.06
274.934	52.91
275.15	-74.07
275.366	34.47
275.581	-37.2
275.797	-4.44
276.012	93.87
276.228	-47.44
276.444	-37.2
276.659	52.91
276.875	-24.92
277.09	67.24
277.306	-16.73
277.521	126.63
277.737	93.87
277.952	69.29
278.168	38.57
278.383	95.91
278.599	40.62
278.814	61.1
279.03	104.11
279.245	91.82
279.461	81.58
279.676	157.35
279.892	-8.53
280.107	-67.92
280.322	5.8
280.538	24.23
280.753	-82.26
280.969	9.9
281.184	24.23
281.399	263.85
281.615	-4.44
281.83	87.72
282.045	-67.92
282.26	-90.45
282.476	118.44
282.691	122.54
282.906	50.86
283.122	36.52
283.337	13.99
283.552	122.54
283.767	52.91
283.983	93.87
284.198	40.62
284.413	42.67
284.628	-6.49
284.843	46.76
285.058	114.34
285.274	50.86
285.489	5.8
285.704	126.63
285.919	-69.97
286.134	85.67
286.349	11.95
286.564	-16.73
286.779	161.45
286.995	54.95
287.21	-59.73
287.425	67.24
287.64	13.99
287.855	57
288.07	-72.02
288.285	57
288.5	75.43
288.715	145.06
288.93	44.71
289.145	13.99
289.36	116.39
289.575	-16.73
289.79	126.63
290.004	52.91
290.219	132.78
290.434	11.95
290.649	-29.01
290.864	93.87
291.079	-12.63
291.294	87.72
291.509	67.24
291.724	-18.77
291.938	50.86
292.153	48.81
292.368	57
292.583	9.9
292.798	42.67
293.012	163.5
293.227	93.87
293.442	-22.87
293.657	75.43
293.871	157.35
294.086	-35.16
294.301	165.54
294.516	91.82
294.73	-0.34
294.945	-8.53
295.16	-29.01
295.374	161.45
295.589	95.91
295.804	36.52
296.018	52.91
296.233	42.67
296.447	95.91
296.662	-35.16
296.877	130.73
297.091	118.44
297.306	59.05
297.52	-4.44
297.735	85.67
297.949	108.2
298.164	75.43
298.378	67.24
298.593	32.43
298.807	-63.83
299.022	7.85
299.236	110.25
299.451	97.96
299.665	106.15
299.88	65.19
300.094	81.58
300.309	-12.63
300.523	91.82
300.737	-6.49
300.952	97.96
301.166	81.58
301.381	-55.64
301.595	-33.11
301.809	-29.01
302.024	65.19
302.238	-67.92
302.452	106.15
302.667	93.87
302.881	126.63
303.095	132.78
303.309	59.05
303.524	18.09
303.738	22.19
303.952	-12.63
304.166	87.72
304.381	-22.87
304.595	120.49
304.809	-45.4
305.023	52.91
305.237	42.67
305.452	-37.2
305.666	81.58
305.88	128.68
306.094	118.44
306.308	54.95
306.522	85.67
306.736	81.58
306.95	169.64
307.164	1.71
307.379	9.9
307.593	102.06
307.807	32.43
308.021	106.15
308.235	67.24
308.449	-33.11
308.663	9.9
308.877	224.94
309.091	52.91
309.305	110.25
309.519	-45.4
309.733	171.69
309.947	-49.49
310.161	59.05
310.374	120.49
310.588	153.26
310.802	9.9
311.016	-2.39
311.23	95.91
311.444	28.33
311.658	75.43
311.872	128.68
312.085	110.25
312.299	130.73
312.513	134.82
312.727	40.62
312.941	13.99
313.154	69.29
313.368	79.53
313.582	-18.77
313.796	46.76
314.009	50.86
314.223	124.58
314.437	120.49
314.651	61.1
314.864	5.8
315.078	-2.39
315.292	-67.92
315.505	38.57
315.719	30.38
315.933	87.72
316.146	104.11
316.36	20.14
316.573	159.4
316.787	61.1
317.001	79.53
317.214	-37.2
317.428	69.29
317.641	-26.96
317.855	63.15
318.068	61.1
318.282	30.38
318.495	188.07
318.709	75.43
318.922	32.43
319.136	183.98
319.349	108.2
319.563	75.43
319.776	46.76
319.99	-37.2
320.203	143.02
320.417	11.95
320.63	102.06
320.843	126.63
321.057	34.47
321.27	28.33
321.483	155.3
321.697	118.44
321.91	16.04
322.124	63.15
322.337	110.25
322.55	-24.92
322.763	34.47
322.977	24.23
323.19	-8.53
323.403	26.28
323.617	126.63
323.83	149.16
324.043	32.43
324.256	79.53
324.469	5.8
324.683	97.96
324.896	67.24
325.109	61.1
325.322	3.75
325.535	116.39
325.748	93.87
325.962	1.71
326.175	61.1
326.388	54.95
326.601	104.11
326.814	52.91
327.027	83.63
327.24	153.26
327.453	-59.73
327.666	36.52
327.879	106.15
328.092	108.2
328.305	106.15
328.518	30.38
328.731	9.9
328.944	-8.53
329.157	100.01
329.37	102.06
329.583	188.07
329.796	91.82
330.009	-65.88
330.222	159.4
330.435	100.01
330.648	59.05
330.861	-14.68
331.073	52.91
331.286	169.64
331.499	-26.96
331.712	-6.49
331.925	1.71
332.138	46.76
332.35	54.95
332.563	9.9
332.776	151.21
332.989	-82.26
333.202	16.04
333.414	42.67
333.627	16.04
333.84	-8.53
334.053	44.71
334.265	36.52
334.478	77.48
334.691	-59.73
334.903	79.53
335.116	32.43
335.329	22.19
335.541	52.91
335.754	87.72
335.966	11.95
336.179	34.47
336.392	3.75
336.604	71.34
336.817	106.15
337.029	36.52
337.242	54.95
337.454	85.67
337.667	63.15
337.88	134.82
338.092	-2.39
338.305	122.54
338.517	7.85
338.729	79.53
338.942	155.3
339.154	-67.92
339.367	-90.45
339.579	100.01
339.792	-31.06
340.004	95.91
340.217	73.39
340.429	122.54
340.641	28.33
340.854	32.43
341.066	48.81
341.278	143.02
341.491	202.41
341.703	28.33
341.915	52.91
342.128	30.38
342.34	73.39
342.552	-86.36
342.764	46.76
342.977	-14.68
343.189	73.39
343.401	7.85
343.613	-26.96
343.826	104.11
344.038	1.71
344.25	77.48
344.462	-24.92
344.674	100.01
344.886	42.67
345.099	-8.53
345.311	93.87
345.523	26.28
345.735	-135.51
345.947	61.1
346.159	65.19
346.371	54.95
346.583	42.67
346.795	181.93
347.007	22.19
347.219	134.82
347.431	57
347.643	83.63
347.855	63.15
348.067	171.69
348.279	-86.36
348.491	28.33
348.703	153.26
348.915	22.19
349.127	-24.92
349.339	1.71
349.551	28.33
349.763	124.58
349.975	73.39
350.187	44.71
350.399	116.39
350.61	104.11
350.822	34.47
351.034	114.34
351.246	50.86
351.458	77.48
351.669	85.67
351.881	30.38
352.093	108.2
352.305	91.82
352.517	79.53
352.728	93.87
352.94	65.19
353.152	124.58
353.363	-12.63
353.575	97.96
353.787	124.58
353.999	97.96
354.21	198.31
354.422	26.28
354.633	7.85
354.845	59.05
355.057	-2.39
355.268	95.91
355.48	89.77
355.692	-47.44
355.903	65.19
356.115	-22.87
356.326	-37.2
356.538	118.44
356.749	91.82
356.961	159.4
357.172	34.47
357.384	9.9
357.595	181.93
357.807	11.95
358.018	32.43
358.23	54.95
358.441	173.74
358.653	54.95
358.864	63.15
359.075	-33.11
359.287	130.73
359.498	118.44
359.709	108.2
359.921	36.52
360.132	116.39
360.344	28.33
360.555	42.67
360.766	24.23
360.977	-69.97
361.189	177.83
361.4	-24.92
361.611	140.97
361.823	124.58
362.034	-4.44
362.245	-86.36
362.456	46.76
362.667	59.05
362.879	-16.73
363.09	59.05
363.301	59.05
363.512	44.71
363.723	-33.11
363.935	11.95
364.146	118.44
364.357	13.99
364.568	89.77
364.779	-80.21
364.99	157.35
365.201	40.62
365.412	69.29
365.623	-6.49
365.834	126.63
366.045	36.52
366.256	83.63
366.467	85.67
366.678	26.28
366.889	-2.39
367.1	69.29
367.311	134.82
367.522	9.9
367.733	85.67
367.944	87.72
368.155	48.81
368.366	124.58
368.577	145.06
368.788	81.58
368.999	-6.49
369.209	52.91
369.42	196.26
369.631	231.08
369.842	97.96
370.053	91.82
370.264	102.06
370.474	-4.44
370.685	16.04
370.896	54.95
371.107	147.11
371.317	97.96
371.528	-61.78
371.739	114.34
371.95	89.77
372.16	65.19
372.371	-51.54
372.582	114.34
372.792	122.54
373.003	59.05
373.214	73.39
373.424	110.25
373.635	48.81
373.846	75.43
374.056	32.43
374.267	97.96
374.477	110.25
374.688	59.05
374.898	124.58
375.109	-14.68
375.319	77.48
375.53	140.97
375.74	116.39
375.951	42.67
376.161	13.99
376.372	179.88
376.582	-14.68
376.793	63.15
377.003	32.43
377.214	28.33
377.424	95.91
377.635	-14.68
377.845	59.05
378.055	134.82
378.266	-24.92
378.476	40.62
378.686	77.48
378.897	44.71
379.107	102.06
379.317	73.39
379.528	61.1
379.738	198.31
379.948	-33.11
380.158	157.35
380.369	48.81
380.579	116.39
380.789	24.23
380.999	110.25
381.21	114.34
381.42	106.15
381.63	20.14
381.84	116.39
382.05	28.33
382.261	212.65
382.471	143.02
382.681	28.33
382.891	190.12
383.101	75.43
383.311	-12.63
383.521	34.47
383.731	97.96
383.941	108.2
384.151	38.57
384.361	-0.34
384.571	73.39
384.781	190.12
384.991	157.35
385.201	118.44
385.411	73.39
385.621	138.92
385.831	73.39
386.041	34.47
386.251	1.71
386.461	104.11
386.671	-43.35
386.881	83.63
387.091	57
387.301	136.87
387.511	50.86
387.72	128.68
387.93	108.2
388.14	7.85
388.35	-14.68
388.56	116.39
388.769	122.54
388.979	9.9
389.189	-45.4
389.399	73.39
389.609	143.02
389.818	147.11
390.028	130.73
390.238	104.11
390.447	-33.11
390.657	79.53
390.867	7.85
391.076	-108.88
391.286	24.23
391.496	104.11
391.705	-18.77
391.915	177.83
392.125	46.76
392.334	22.19
392.544	159.4
392.753	71.34
392.963	7.85
393.172	40.62
393.382	-0.34
393.591	177.83
393.801	9.9
394.01	171.69
394.22	179.88
394.429	24.23
394.639	63.15
394.848	112.3
395.058	81.58
395.267	42.67
395.477	145.06
395.686	36.52
395.895	220.84
396.105	276.13
396.314	77.48
396.524	75.43
396.733	44.71
396.942	241.32
397.152	95.91
397.361	77.48
397.57	91.82
397.78	20.14
397.989	151.21
398.198	192.17
398.407	40.62
398.617	16.04
398.826	48.81
399.035	16.04
399.244	100.01
399.453	22.19
399.663	24.23
399.872	112.3
400.081	-35.16
400.29	159.4
400.499	-16.73
400.708	65.19
400.917	61.1
401.127	91.82
401.336	-14.68
401.545	169.64
401.754	179.88
401.963	75.43
402.172	26.28
402.381	-47.44
402.59	22.19
402.799	134.82
403.008	102.06
403.217	104.11
403.426	81.58
403.635	-69.97
403.844	71.34
404.053	44.71
404.262	40.62
404.471	161.45
404.68	95.91
404.888	57
405.097	75.43
405.306	26.28
405.515	97.96
405.724	34.47
405.933	116.39
406.142	106.15
406.35	104.11
406.559	28.33
406.768	50.86
406.977	120.49
407.185	120.49
407.394	124.58
407.603	32.43
407.812	61.1
408.02	145.06
408.229	3.75
408.438	28.33
408.646	-63.83
408.855	54.95
409.064	91.82
409.272	54.95
409.481	83.63
409.69	44.71
409.898	5.8
410.107	65.19
410.315	81.58
410.524	-18.77
410.733	75.43
410.941	-26.96
411.15	143.02
411.358	65.19
411.567	100.01
411.775	85.67
411.984	50.86
412.192	110.25
412.401	26.28
412.609	177.83
412.818	163.5
413.026	75.43
413.234	-45.4
413.443	18.09
413.651	28.33
413.86	44.71
414.068	145.06
414.276	143.02
414.485	73.39
414.693	186.02
414.901	186.02
415.11	71.34
415.318	104.11
415.526	30.38
415.734	132.78
415.943	73.39
416.151	179.88
416.359	16.04
416.567	110.25
416.776	87.72
416.984	145.06
417.192	192.17
417.4	3.75
417.608	65.19
417.817	-80.21
418.025	110.25
418.233	136.87
418.441	-65.88
418.649	-10.58
418.857	13.99
419.065	192.17
419.273	-22.87
419.481	28.33
419.689	-8.53
419.897	5.8
420.105	-12.63
420.313	106.15
420.521	132.78
420.729	177.83
420.937	30.38
421.145	-57.68
421.353	120.49
421.561	149.16
421.769	85.67
421.977	87.72
422.185	104.11
422.393	81.58
422.601	149.16
422.809	87.72
423.017	48.81
423.224	114.34
423.432	134.82
423.64	24.23
423.848	198.31
424.056	32.43
424.263	93.87
424.471	44.71
424.679	136.87
424.887	20.14
425.094	116.39
425.302	50.86
425.51	79.53
425.718	91.82
425.925	57
426.133	40.62
426.341	177.83
426.548	20.14
426.756	100.01
426.964	77.48
427.171	77.48
427.379	28.33
427.586	67.24
427.794	65.19
428.001	177.83
428.209	85.67
428.417	134.82
428.624	75.43
428.832	130.73
429.039	93.87
429.247	77.48
429.454	89.77
429.662	188.07
429.869	116.39
430.076	202.41
430.284	159.4
430.491	159.4
430.699	50.86
430.906	194.22
431.114	61.1
431.321	188.07
431.528	120.49
431.736	126.63
431.943	155.3
432.15	249.51
432.358	192.17
432.565	259.75
432.772	16.04
432.979	239.27
433.187	171.69
433.394	179.88
433.601	159.4
433.808	231.08
434.016	224.94
434.223	237.22
434.43	171.69
434.637	245.41
434.844	231.08
435.052	167.59
435.259	257.7
435.466	241.32
435.673	265.89
435.88	315.05
436.087	345.77
436.294	294.57
436.501	272.04
436.708	323.24
436.915	233.13
437.122	390.82
437.329	353.96
437.537	370.34
437.743	298.66
437.95	446.12
438.157	360.1
438.364	384.68
438.571	331.43
438.778	480.93
438.985	394.92
439.192	421.54
439.399	462.5
439.606	433.83
439.813	630.43
440.02	536.23
440.227	634.53
440.433	556.71
440.64	517.79
440.847	544.42
441.054	495.27
441.261	650.91
441.467	626.34
441.674	579.23
441.881	712.35
442.088	646.82
442.294	679.58
442.501	777.89
442.708	722.59
442.914	851.61
443.121	802.46
443.328	923.29
443.534	876.19
443.741	931.48
443.948	812.7
444.154	911
444.361	1179.29
444.568	947.87
444.774	1037.98
444.981	978.59
445.187	1203.86
445.394	1210.01
445.6	1117.85
445.807	1355.41
446.013	1312.41
446.22	1210.01
446.426	1386.13
446.633	1466
446.839	1597.07
447.046	1449.62
447.252	1554.07
447.459	1638.03
447.665	1646.23
447.871	1750.67
448.078	1994.38
448.284	1844.88
448.491	2002.57
448.697	2074.25
448.903	2233.99
449.11	2156.17
449.316	2096.78
449.522	2416.26
449.728	2385.54
449.935	2528.9
450.141	2576
450.347	2852.48
450.553	2565.76
450.76	2756.22
450.966	2850.43
451.172	2948.73
451.378	3098.24
451.584	3174.01
451.791	3335.8
451.997	3479.16
452.203	3452.53
452.409	3800.69
452.615	3841.65
452.821	3829.36
453.027	3880.56
453.233	4335.21
453.44	4140.65
453.646	4341.35
453.852	4632.16
454.058	4847.2
454.264	4968.03
454.47	5252.7
454.676	5203.55
454.882	5635.67
455.088	5379.67
455.294	5680.72
455.5	6065.74
455.705	6428.23
455.911	6383.18
456.117	6522.44
456.323	6921.79
456.529	6633.03
456.735	7566.9
456.941	7700.02
457.147	8089.14
457.352	8404.52
457.558	8578.6
457.764	9012.77
457.97	9365.02
458.176	9616.92
458.381	9870.87
458.587	10384.91
458.793	10712.58
458.999	10788.36
459.204	11855.35
459.41	12565.99
459.616	12242.42
459.821	13133.28
460.027	13837.78
460.233	14372.3
460.438	14122.45
460.644	14992.84
460.85	15148.48
461.055	15812.03
461.261	16725.42
461.466	16086.45
461.672	16412.08
461.878	18449.81
462.083	18374.03
462.289	18820.49
462.494	19758.46
462.7	19787.13
462.905	19797.37
463.111	21208.42
463.316	22400.34
463.522	22797.65
463.727	23477.57
463.932	24421.69
464.138	25300.26
464.343	26144.03
464.549	26369.3
464.754	28312.83
464.959	29072.62
465.165	29277.42
465.37	29392.11
465.575	29222.12
465.781	31311.05
465.986	32124.1
466.191	31663.3
466.397	31972.55
466.602	31081.68
466.807	32945.33
467.012	33281.2
467.218	33889.45
467.423	34323.61
467.628	35402.89
467.833	37207.15
468.038	35892.36
468.244	35644.55
468.449	37360.75
468.654	36658.3
468.859	36318.34
469.064	36500.61
469.269	35726.47
469.474	36189.31
469.679	37194.87
469.885	35982.47
470.09	36545.66
470.295	36850.81
470.5	36162.69
470.705	35976.33
470.91	35087.51
471.115	34811.03
471.32	35431.57
471.525	35093.65
471.73	34129.06
471.935	33629.35
472.139	32672.95
472.344	32347.33
472.549	32111.81
472.754	31835.33
472.959	30872.79
473.164	30223.58
473.369	29519.08
473.574	30715.09
473.778	29910.24
473.983	29103.34
474.188	28435.7
474.393	27483.4
474.598	27100.43
474.802	26791.19
475.007	26328.34
475.212	26199.32
475.417	25066.8
475.621	25021.74
475.826	24720.69
476.031	24040.76
476.235	23614.79
476.44	23612.74
476.645	22891.85
476.849	22695.25
477.054	22463.83
477.259	21884.25
477.463	21869.92
477.668	20901.23
477.872	21488.99
478.077	20618.61
478.282	20174.2
478.486	19985.79
478.691	19613.06
478.895	19453.31
479.1	19258.76
479.304	19287.43
479.509	18431.38
479.713	18888.07
479.918	18333.07
480.122	17960.34
480.326	18255.25
480.531	18126.23
480.735	17657.25
480.94	17538.46
481.144	17876.38
481.348	16924.07
481.553	17417.63
481.757	16917.93
481.961	17010.09
482.166	16944.55
482.37	16836.01
482.574	16354.74
482.778	16465.33
482.983	16627.12
483.187	16281.01
483.391	16229.81
483.595	15910.33
483.8	15869.37
484.004	15420.86
484.208	15644.09
484.412	15400.38
484.616	15160.77
484.821	15130.05
485.025	14538.19
485.229	14626.25
485.433	14271.95
485.637	14329.3
485.841	13981.14
486.045	13794.78
486.249	13831.64
486.453	13415.9
486.657	13389.28
486.861	13069.8
487.065	12695.02
487.269	12821.99
487.473	12346.86
487.677	12553.71
487.881	12303.85
488.085	11933.17
488.289	11845.11
488.493	11367.93
488.697	11552.25
488.901	11234.82
489.105	11169.28
489.309	11095.55
489.512	10675.72
489.716	10597.9
489.92	10233.36
490.124	9991.7
490.328	9954.83
490.531	9606.68
490.735	9698.84
490.939	9326.11
491.143	9102.88
491.346	8879.65
491.55	9063.97
491.754	8615.46
491.958	8685.09
492.161	8306.22
492.365	8287.79
492.569	8052.27
492.772	8013.36
492.976	7988.78
493.18	7769.65
493.383	7691.83
493.587	7599.67
493.79	7790.13
493.994	7337.53
494.197	7192.12
494.401	7593.53
494.605	7179.84
494.808	7028.29
495.012	7188.03
495.215	7120.45
495.419	7130.69
495.622	6837.83
495.825	6692.42
496.029	6760
496.232	6917.7
496.436	6538.82
496.639	6864.45
496.843	6635.08
497.046	6743.62
497.249	6721.09
497.453	6800.96
497.656	6542.92
497.859	6702.66
498.063	6729.28
498.266	6798.91
498.469	6542.92
498.673	6555.21
498.876	6776.39
499.079	6723.14
499.282	6661.7
499.485	6979.14
499.689	6886.98
499.892	7091.77
500.095	6854.21
500.298	6989.38
500.501	6819.39
500.705	7048.77
500.908	7202.36
501.111	7179.84
501.314	7325.24
501.517	7390.78
501.72	7468.6
501.923	7302.72
502.126	7419.45
502.329	7544.38
502.532	7710.26
502.735	7689.78
502.938	7947.83
503.141	7929.39
503.344	7863.86
503.547	8162.86
503.75	7796.28
503.953	8037.94
504.156	8349.23
504.359	8375.85
504.562	8408.62
504.765	8738.34
504.968	8853.03
505.17	8812.07
505.373	8906.27
505.576	9158.17
505.779	9250.33
505.982	9383.45
506.185	9618.97
506.387	9627.16
506.59	9836.05
506.793	10216.97
506.996	10139.15
507.198	10585.61
507.401	10448.4
507.604	10892.8
507.807	10823.17
508.009	11302.4
508.212	11439.61
508.415	11705.85
508.617	12097.01
508.82	11941.36
509.022	12082.67
509.225	12725.74
509.428	12615.15
509.63	13125.09
509.833	12924.39
510.035	14058.96
510.238	13843.93
510.44	14163.41
510.643	14603.72
510.845	14808.52
511.048	15099.33
511.25	15254.98
511.453	15818.17
511.655	16758.19
511.858	16616.88
512.06	16762.28
512.262	17313.19
512.465	17530.27
512.667	18105.75
512.87	18623.89
513.072	18666.89
513.274	19410.31
513.477	19862.91
513.679	20292.98
513.881	20620.66
514.084	20944.24
514.286	21517.67
514.488	21976.41
514.69	22791.5
514.893	22852.94
515.095	23416.13
515.297	23772.48
515.499	24397.11
515.701	24995.12
515.904	25797.92
516.106	26166.56
516.308	26799.38
516.51	27806.98
516.712	27536.65
516.914	28450.04
517.116	29127.92
517.318	29039.86
517.52	30149.85
517.722	30416.09
517.925	30581.98
518.127	31724.74
518.329	32189.63
518.531	32285.89
518.733	33782.95
518.935	34243.74
519.136	34151.59
519.338	35245.2
519.54	35773.58
519.742	36387.97
519.944	36551.8
520.146	37549.17
520.348	37741.67
520.55	38386.78
520.752	38675.55
520.954	39418.96
521.155	39326.8
521.357	40408.13
521.559	40821.82
521.761	41868.33
521.963	41526.32
522.164	42128.42
522.366	42355.75
522.568	43004.95
522.77	43129.88
522.971	44065.8
523.173	43807.76
523.375	44221.45
523.576	44039.18
523.778	44268.55
523.98	44973.05
524.181	45251.58
524.383	45650.93
524.584	45638.64
524.786	46005.23
524.988	45458.42
525.189	46033.9
525.391	46060.52
525.592	46394.34
525.794	46650.34
525.995	46199.79
526.197	46203.88
526.398	46109.68
526.6	46044.14
526.801	46216.17
527.003	46306.28
527.204	45900.78
527.406	46521.32
527.607	45235.19
527.808	45564.92
528.01	45020.16
528.211	45126.65
528.412	45313.02
528.614	44698.62
528.815	44604.42
529.016	44669.95
529.218	43813.9
529.419	43504.66
529.62	43041.82
529.822	43183.13
530.023	42716.19
530.224	42374.18
530.425	41854
530.626	41022.52
530.828	40768.57
531.029	41163.83
531.23	40565.82
531.431	39838.79
531.632	39928.91
531.833	39279.7
532.035	38779.99
532.236	38163.56
532.437	37782.63
532.638	37508.21
532.839	36861.05
533.04	36959.35
533.241	36121.73
533.442	35875.98
533.643	35136.66
533.844	34401.44
534.045	34647.19
534.246	33746.09
534.447	33412.27
534.648	32918.71
534.849	32621.75
535.05	31835.33
535.251	31898.82
535.451	31114.45
535.652	31100.11
535.853	30399.71
536.054	30356.7
536.255	30082.27
536.456	29064.43
536.657	29125.87
536.857	28151.04
537.058	28450.04
537.259	27968.77
537.46	27589.89
537.66	27202.83
537.861	27125
538.062	26828.05
538.263	26279.19
538.463	25672.99
538.664	25576.74
538.865	25269.55
539.065	25124.14
539.266	24278.33
539.466	24331.58
539.667	23625.03
539.868	24089.92
540.068	23551.3
540.269	22926.67
540.469	22891.85
540.67	22648.15
540.87	22377.81
541.071	22037.85
541.271	21785.95
541.472	21605.73
541.672	21257.57
541.873	20821.36
542.073	20475.25
542.274	20704.62
542.474	20139.38
542.675	20153.72
542.875	19959.16
543.075	19428.74
543.276	19303.81
543.476	19391.87
543.676	18693.52
543.877	18814.35
544.077	18660.75
544.277	18593.17
544.478	18242.96
544.678	18185.62
544.878	17880.47
545.078	17708.44
545.279	17481.12
545.479	17151.4
545.679	17186.21
545.879	16735.66
546.079	16741.8
546.28	16281.01
546.48	16563.63
546.68	16295.35
546.88	15955.38
547.08	15709.63
547.28	15605.18
547.48	15310.27
547.68	15353.28
547.88	14749.13
548.081	14908.87
548.281	14517.71
548.481	14355.92
548.681	14394.83
548.881	14294.48
549.081	13964.76
549.28	13520.35
549.48	13663.71
549.68	13368.8
549.88	13622.75
550.08	13000.16
550.28	12955.11
550.48	12682.73
550.68	12801.51
550.88	12334.57
551.08	12099.06
551.279	12066.29
551.479	11642.36
551.679	11597.31
551.879	11277.82
552.079	11431.42
552.278	11224.58
552.478	11148.8
552.678	10968.58
552.878	10839.56
553.077	10567.18
553.277	10090
553.477	10180.11
553.676	9956.88
553.876	9944.59
554.076	9610.78
554.275	9760.28
554.475	9192.99
554.674	9254.43
554.874	9217.57
555.074	8779.3
555.273	8873.51
555.473	8713.77
555.672	8621.61
555.872	8427.05
556.071	8515.11
556.271	8224.3
556.47	7996.98
556.67	8001.07
556.869	7755.32
557.068	7892.53
557.268	7544.38
557.467	7345.72
557.667	7202.36
557.866	7042.62
558.065	6999.62
558.265	7032.38
558.464	6780.48
558.663	6641.22
558.863	6579.78
559.062	6594.12
559.261	6413.9
559.461	6366.79
559.66	6129.23
559.859	6020.69
560.058	5758.55
560.258	5770.83
560.457	5662.29
560.656	6059.6
560.855	5639.76
561.054	5549.65
561.253	5353.05
561.453	5348.95
561.652	5426.78
561.851	5238.36
562.05	5181.02
562.249	4877.92
562.448	5064.29
562.647	4730.47
562.846	4789.86
563.045	4849.25
563.244	4640.36
563.443	4685.41
563.642	4398.7
563.841	4613.73
564.04	4234.86
564.239	4490.85
564.438	4212.33
564.637	4202.09
564.836	4118.12
565.035	3997.29
565.234	3882.61
565.432	3919.47
565.631	3929.71
565.83	3942
566.029	3747.44
566.228	3772.02
566.427	3704.43
566.625	3497.59
566.824	3491.45
567.023	3524.21
567.222	3444.34
567.42	3387
567.619	3485.3
567.818	3292.79
568.016	3432.05
568.215	3116.67
568.414	3182.2
568.612	3112.57
568.811	3090.04
569.01	2924.16
569.208	2920.06
569.407	3085.95
569.605	2905.73
569.804	2827.9
570.002	2870.91
570.201	2791.04
570.4	2623.11
570.598	2639.49
570.797	2694.79
570.995	2551.43
571.193	2590.34
571.392	2584.2
571.59	2348.68
571.789	2428.55
571.987	2371.21
572.186	2436.74
572.384	2356.87
572.582	2344.58
572.781	2338.44
572.979	2135.69
573.177	2186.89
573.376	2059.92
573.574	2174.6
573.772	2059.92
573.971	1971.85
574.169	1904.27
574.367	2076.3
574.565	1934.99
574.763	1961.61
574.962	1816.21
575.16	2029.2
575.358	1775.25
575.556	1709.71
575.754	1810.06
575.952	1674.9
576.151	1703.57
576.349	1738.38
576.547	1633.94
576.745	1564.31
576.943	1724.05
577.141	1586.83
577.339	1517.2
577.537	1578.64
577.735	1494.68
577.933	1564.31
578.131	1498.77
578.329	1543.83
578.527	1373.85
578.725	1361.56
578.923	1345.17
579.121	1416.85
579.319	1179.29
579.516	1267.35
579.714	1433.24
579.912	1289.88
580.11	1173.14
580.308	1265.3
580.506	1275.54
580.704	1123.99
580.901	1205.91
581.099	1234.58
581.297	1089.18
581.495	1025.69
581.692	1044.12
581.89	1136.28
582.088	1103.51
582.285	1115.8
582.483	1044.12
582.681	933.53
582.878	1072.79
583.076	1015.45
583.274	1058.46
583.471	1060.51
583.669	1062.55
583.866	827.04
584.064	816.8
584.262	777.89
584.459	902.81
584.657	861.85
584.854	964.25
585.052	865.95
585.249	974.49
585.447	913.05
585.644	751.26
585.841	925.34
586.039	808.61
586.236	861.85
586.434	802.46
586.631	759.46
586.828	767.65
587.026	798.37
587.223	712.35
587.42	702.11
587.618	716.45
587.815	788.13
588.012	757.41
588.21	695.97
588.407	747.17
588.604	724.64
588.801	575.14
588.999	710.3
589.196	663.2
589.393	573.09
589.59	634.53
589.787	663.2
589.984	673.44
590.182	667.3
590.379	577.19
590.576	716.45
590.773	607.91
590.97	560.8
591.167	732.83
591.364	597.67
591.561	605.86
591.758	710.3
591.955	630.43
592.152	599.71
592.349	558.75
592.546	532.13
592.743	571.04
592.94	628.39
593.137	673.44
593.334	636.58
593.531	661.15
593.727	663.2
593.924	640.67
594.121	587.43
594.318	568.99
594.515	616.1
594.712	786.08
594.908	738.98
595.105	581.28
595.302	687.78
595.499	636.58
595.696	749.22
595.892	599.71
596.089	757.41
596.286	644.77
596.482	704.16
596.679	741.02
596.876	712.35
597.072	806.56
597.269	741.02
597.466	773.79
597.662	847.52
597.859	810.65
598.055	876.19
598.252	1007.26
598.448	992.92
598.645	1078.94
598.841	1009.31
599.038	1226.39
599.234	1234.58
599.431	1070.75
599.627	1160.86
599.824	1384.09
600.02	1320.6
600.217	1324.69
600.413	1273.5
600.609	1390.23
600.806	1640.08
601.002	1470.1
601.198	1392.28
601.395	1709.71
601.591	1560.21
601.787	1674.9
601.984	1724.05
602.18	1828.49
602.376	1900.17
602.572	1990.28
602.769	2084.49
602.965	2195.08
603.161	2147.98
603.357	2320.01
603.553	2459.27
603.75	2279.05
603.946	2442.89
604.142	2578.05
604.338	2731.65
604.534	2723.46
604.73	2854.53
604.926	2801.28
605.122	3079.8
605.318	3176.06
605.514	3237.5
605.71	3327.61
605.906	3532.4
606.102	3479.16
606.298	3686
606.494	3839.6
606.69	3968.62
606.886	4005.49
607.082	4058.73
607.278	4148.84
607.474	4150.89
607.67	4425.32
607.866	4308.58
608.062	4775.52
608.257	4775.52
608.453	4976.22
608.649	5045.85
608.845	5123.68
609.041	5090.91
609.236	5453.4
609.432	5695.06
609.628	5848.66
609.824	6041.17
610.019	5916.24
610.215	6131.28
610.411	6426.18
610.606	6620.74
610.802	6723.14
610.998	6848.07
611.193	6880.83
611.389	7151.17
611.584	7360.06
611.78	7663.16
611.976	7591.48
612.171	8117.81
612.367	8414.76
612.562	8375.85
612.758	8574.5
612.953	8490.54
613.149	8855.08
613.344	9115.17
613.539	9575.96
613.735	9704.98
613.93	10055.19
614.126	10130.96
614.321	10784.26
614.517	10970.63
614.712	11128.32
614.907	11255.29
615.103	11873.78
615.298	11650.55
615.493	12260.85
615.688	12252.66
615.884	13065.7
616.079	12955.11
616.274	13518.3
616.47	13682.14
616.665	14243.28
616.86	14411.21
617.055	14765.51
617.25	15119.81
617.445	15707.58
617.641	15721.91
617.836	16262.58
618.031	16377.26
618.226	17309.09
618.421	17194.4
618.616	17733.02
618.811	18163.09
619.006	18926.99
619.201	18660.75
619.396	19490.18
619.591	19490.18
619.786	20036.98
619.981	20434.29
620.176	21108.07
620.371	21546.34
620.566	22080.86
620.761	22144.34
620.956	23168.33
621.151	23323.97
621.346	23870.78
621.541	23983.42
621.735	24978.73
621.93	25111.85
622.125	25582.88
622.32	25509.16
622.515	26516.76
622.709	26625.3
622.904	27290.89
623.099	27870.47
623.294	28511.48
623.488	28351.74
623.683	29322.48
623.878	29490.41
624.072	30385.37
624.267	30833.88
624.462	31188.17
624.656	31255.76
624.851	31925.44
625.046	32662.71
625.24	33182.9
625.435	33291.44
625.629	33690.79
625.824	34127.01
626.018	34839.7
626.213	34591.9
626.407	35177.62
626.602	35675.27
626.796	36263.04
626.991	36328.58
627.185	36908.15
627.38	36719.74
627.574	37237.87
627.768	37086.32
627.963	37448.82
628.157	37418.1
628.352	38003.81
628.546	37461.1
628.74	37921.9
628.935	37667.95
629.129	37753.96
629.323	37457.01
629.517	37389.42
629.712	37414
629.906	36965.49
630.1	36342.91
630.294	36799.61
630.489	35800.2
630.683	35769.48
630.877	34079.91
631.071	33993.89
631.265	33504.43
631.459	32775.35
631.653	32494.78
631.848	31526.09
632.042	31249.61
632.236	30385.37
632.43	29390.06
632.624	28351.74
632.818	27753.73
633.012	27079.95
633.206	25845.02
633.4	24931.63
633.594	24122.68
633.788	23465.28
633.982	22891.85
634.176	22068.57
634.369	21060.97
634.563	20290.93
634.757	19582.34
634.951	18881.93
635.145	18226.58
635.339	17257.89
635.533	16778.67
635.726	16233.91
635.92	15455.68
636.114	14511.57
636.308	14228.95
636.501	13651.42
636.695	13159.91
636.889	12334.57
637.083	11826.68
637.276	11421.18
637.47	11015.68
637.664	10466.83
637.857	10036.75
638.051	9747.99
638.244	9272.86
638.438	8988.19
638.632	8834.6
638.825	8183.34
639.019	8197.68
639.212	7564.86
639.406	7292.48
639.599	7028.29
639.793	6835.78
639.986	6420.04
640.18	6245.96
640.373	6073.93
640.567	5705.3
640.76	5451.35
640.954	5348.95
641.147	4959.84
641.34	4826.72
641.534	4920.93
641.727	4730.47
641.92	4431.46
642.114	4097.64
642.307	4111.98
642.5	3942
642.694	3792.5
642.887	3683.95
643.08	3683.95
643.273	3464.82
643.467	3206.78
643.66	3096.19
643.853	2985.6
644.046	2864.77
644.239	2743.94
644.432	2510.47
644.626	2385.54
644.819	2354.82
645.012	2293.38
645.205	2215.56
645.398	2281.1
645.591	2096.78
645.784	1928.85
645.977	1887.89
646.17	1900.17
646.363	1855.12
646.556	1746.58
646.749	1693.33
646.942	1621.65
647.135	1552.02
647.328	1527.44
647.521	1433.24
647.714	1382.04
647.907	1283.74
648.099	1187.48
648.292	1320.6
648.485	1234.58
648.678	1148.57
648.871	1050.27
649.064	1126.04
649.256	962.2
649.449	964.25
649.642	882.33
649.835	978.59
650.027	835.23
650.22	890.53
650.413	878.24
650.605	878.24
650.798	798.37
650.991	722.59
651.183	730.78
651.376	771.74
651.568	771.74
651.761	622.24
651.954	620.19
652.146	579.23
652.339	728.74
652.531	683.68
652.724	523.94
652.916	550.56
653.109	419.49
653.301	542.37
653.494	550.56
653.686	458.4
653.879	517.79
654.071	454.31
654.263	454.31
654.456	392.87
654.648	593.57
654.84	419.49
655.033	339.62
655.225	427.68
655.417	353.96
655.61	546.47
655.802	423.59
655.994	491.17
656.186	253.61
656.379	437.92
656.571	298.66
656.763	345.77
656.955	335.53
657.148	286.37
657.34	392.87
657.532	280.23
657.724	257.7
657.916	292.52
658.108	319.14
658.3	360.1
658.492	310.95
658.684	235.18
658.876	267.94
659.068	243.37
659.26	110.25
659.452	212.65
659.644	229.03
659.836	331.43
660.028	269.99
660.22	149.16
660.412	226.98
660.604	179.88
660.796	323.24
660.988	261.8
661.18	229.03
661.372	339.62
661.563	239.27
661.755	251.56
661.947	171.69
662.139	140.97
662.331	147.11
662.522	206.5
662.714	63.15
662.906	186.02
663.097	196.26
663.289	151.21
663.481	59.05
663.673	93.87
663.864	155.3
664.056	233.13
664.247	118.44
664.439	237.22
664.631	85.67
664.822	249.51
665.014	208.55
665.205	93.87
665.397	71.34
665.588	126.63
665.78	157.35
665.971	188.07
666.163	83.63
666.354	261.8
666.546	132.78
666.737	175.78
666.929	81.58
667.12	147.11
667.311	136.87
667.503	122.54
667.694	169.64
667.885	132.78
668.077	188.07
668.268	95.91
668.459	143.02
668.651	190.12
668.842	188.07
669.033	77.48
669.224	-4.44
669.416	243.37
669.607	104.11
669.798	63.15
669.989	222.89
670.18	102.06
670.371	183.98
670.563	81.58
670.754	167.59
670.945	190.12
671.136	216.74
671.327	46.76
671.518	198.31
671.709	333.48
671.9	165.54
672.091	302.76
672.282	155.3
672.473	110.25
672.664	38.57
672.855	40.62
673.046	126.63
673.237	183.98
673.428	147.11
673.619	181.93
673.809	100.01
674	190.12
674.191	216.74
674.382	188.07
674.573	126.63
674.764	204.46
674.954	202.41
675.145	140.97
675.336	97.96
675.527	120.49
675.717	81.58
675.908	97.96
676.099	130.73
676.289	204.46
676.48	81.58
676.671	151.21
676.861	136.87
677.052	130.73
677.243	143.02
677.433	171.69
677.624	204.46
677.814	181.93
678.005	138.92
678.195	239.27
678.386	112.3
678.576	183.98
678.767	145.06
678.957	198.31
679.148	237.22
679.338	274.09
679.529	247.46
679.719	188.07
679.909	245.41
680.1	310.95
680.29	224.94
680.481	85.67
680.671	284.33
680.861	255.65
681.052	153.26
681.242	85.67
681.432	274.09
681.622	284.33
681.813	130.73
682.003	188.07
682.193	134.82
682.383	200.36
682.573	159.4
682.764	192.17
682.954	229.03
683.144	317.09
683.334	161.45
683.524	214.7
683.714	261.8
683.904	247.46
684.094	220.84
684.284	220.84
684.474	253.61
684.664	288.42
684.854	202.41
685.044	116.39
685.234	186.02
685.424	290.47
685.614	231.08
685.804	388.77
685.994	366.25
686.184	306.85
686.374	274.09
686.564	263.85
686.753	218.79
686.943	149.16
687.133	161.45
687.323	177.83
687.513	269.99
687.702	255.65
687.892	200.36
688.082	267.94
688.272	300.71
688.461	276.13
688.651	304.81
688.841	175.78
689.03	224.94
689.22	251.56
689.41	331.43
689.599	235.18
689.789	198.31
689.979	353.96
690.168	224.94
690.358	267.94
690.547	243.37
690.737	251.56
690.926	267.94
691.116	300.71
691.305	265.89
691.495	233.13
691.684	147.11
691.874	224.94
692.063	251.56
692.252	204.46
692.442	253.61
692.631	153.26
692.82	165.54
693.01	224.94
693.199	218.79
693.388	255.65
693.578	149.16
693.767	343.72
693.956	216.74
694.146	192.17
694.335	235.18
694.524	192.17
694.713	224.94
694.902	93.87
695.092	206.5
695.281	298.66
695.47	175.78
695.659	231.08
695.848	224.94
696.037	194.22
696.226	257.7
696.415	224.94
696.604	261.8
696.793	253.61
696.982	198.31
697.171	343.72
697.36	224.94
697.549	208.55
697.738	91.82
697.927	50.86
698.116	151.21
698.305	208.55
698.494	292.52
698.683	165.54
698.872	331.43
699.061	194.22
699.25	212.65
699.438	224.94
699.627	175.78
699.816	310.95
700.005	132.78
700.193	222.89
700.382	269.99
700.571	249.51
700.76	186.02
700.948	317.09
701.137	231.08
701.326	272.04
701.514	77.48
701.703	298.66
701.892	300.71
702.08	405.16
702.269	200.36
702.457	167.59
702.646	208.55
702.834	177.83
703.023	190.12
703.212	245.41
703.4	194.22
703.589	165.54
703.777	183.98
703.965	122.54
704.154	202.41
704.342	118.44
704.531	122.54
704.719	249.51
704.907	280.23
705.096	124.58
705.284	163.5
705.472	216.74
705.661	280.23
705.849	251.56
706.037	249.51
706.226	204.46
706.414	249.51
706.602	206.5
706.79	253.61
706.979	247.46
707.167	202.41
707.355	116.39
707.543	253.61
707.731	202.41
707.919	138.92
708.107	145.06
708.296	79.53
708.484	97.96
708.672	157.35
708.86	188.07
709.048	171.69
709.236	151.21
709.424	313
709.612	212.65
709.8	24.23
709.988	136.87
710.176	315.05
710.364	296.61
710.551	143.02
710.739	124.58
710.927	143.02
711.115	274.09
711.303	327.33
711.491	313
711.679	130.73
711.866	274.09
712.054	163.5
712.242	251.56
712.43	276.13
712.617	171.69
712.805	208.55
712.993	153.26
713.181	153.26
713.368	245.41
713.556	233.13
713.744	95.91
713.931	360.1
714.119	251.56
714.306	143.02
714.494	212.65
714.682	173.74
714.869	120.49
715.057	179.88
715.244	85.67
715.432	202.41
715.619	116.39
715.807	173.74
715.994	143.02
716.182	196.26
716.369	292.52
716.556	253.61
716.744	163.5
716.931	95.91
717.119	327.33
717.306	304.81
717.493	255.65
717.681	226.98
717.868	251.56
718.055	308.9
718.242	233.13
718.43	245.41
718.617	198.31
718.804	116.39
718.991	292.52
719.179	251.56
719.366	372.39
719.553	360.1
719.74	196.26
719.927	224.94
720.114	272.04
720.301	102.06
720.488	161.45
720.676	159.4
720.863	265.89
721.05	351.91
721.237	220.84
721.424	253.61
721.611	194.22
721.798	134.82
721.985	153.26
722.172	173.74
722.358	222.89
722.545	288.42
722.732	233.13
722.919	226.98
723.106	247.46
723.293	233.13
723.48	186.02
723.667	263.85
723.853	333.48
724.04	339.62
724.227	265.89
724.414	181.93
724.6	310.95
724.787	409.25
724.974	374.44
725.161	231.08
725.347	229.03
725.534	212.65
725.72	331.43
725.907	362.15
726.094	245.41
726.28	161.45
726.467	202.41
726.653	224.94
726.84	329.38
727.027	382.63
727.213	175.78
727.4	241.32
727.586	186.02
727.773	310.95
727.959	186.02
728.145	220.84
728.332	343.72
728.518	257.7
728.705	181.93
728.891	267.94
729.077	251.56
729.264	183.98
729.45	190.12
729.636	319.14
729.823	263.85
730.009	409.25
730.195	333.48
730.382	315.05
730.568	212.65
730.754	317.09
730.94	269.99
731.126	278.18
731.313	325.29
731.499	257.7
731.685	333.48
731.871	274.09
732.057	300.71
732.243	313
732.429	253.61
732.615	360.1
732.801	315.05
732.987	224.94
733.173	333.48
733.359	255.65
733.545	257.7
733.731	345.77
733.917	290.47
734.103	325.29
734.289	241.32
734.475	263.85
734.661	497.32
734.847	319.14
735.033	308.9
735.219	317.09
735.404	220.84
735.59	188.07
735.776	235.18
735.962	294.57
736.148	313
736.333	341.67
736.519	200.36
736.705	267.94
736.89	378.53
737.076	233.13
737.262	218.79
737.447	292.52
737.633	300.71
737.819	403.11
738.004	290.47
738.19	298.66
738.375	335.53
738.561	325.29
738.747	372.39
738.932	224.94
739.118	405.16
739.303	304.81
739.489	313
739.674	222.89
739.859	259.75
740.045	356.01
740.23	319.14
740.416	100.01
740.601	310.95
740.786	319.14
740.972	165.54
741.157	190.12
741.342	143.02
741.528	190.12
741.713	331.43
741.898	245.41
742.084	245.41
742.269	304.81
742.454	298.66
742.639	329.38
742.824	341.67
743.01	362.15
743.195	442.02
743.38	235.18
743.565	241.32
743.75	331.43
743.935	351.91
744.12	280.23
744.305	175.78
744.49	304.81
744.675	331.43
744.86	276.13
745.045	222.89
745.23	282.28
745.415	235.18
745.6	376.48
745.785	165.54
745.97	396.96
746.155	286.37
746.34	325.29
746.525	302.76
746.71	353.96
746.895	208.55
747.079	210.6
747.264	190.12
747.449	272.04
747.634	296.61
747.819	288.42
748.003	235.18
748.188	165.54
748.373	337.57
748.557	384.68
748.742	247.46
748.927	261.8
749.111	276.13
749.296	276.13
749.481	356.01
749.665	333.48
749.85	132.78
750.034	235.18
750.219	140.97
750.404	173.74
750.588	214.7
750.773	190.12
750.957	169.64
751.141	214.7
751.326	313
751.51	212.65
751.695	159.4
751.879	257.7
752.064	296.61
752.248	192.17
752.432	372.39
752.617	282.28
752.801	353.96
752.985	183.98
753.17	327.33
753.354	265.89
753.538	243.37
753.722	206.5
753.907	255.65
754.091	188.07
754.275	231.08
754.459	126.63
754.643	173.74
754.828	241.32
755.012	261.8
755.196	79.53
755.38	206.5
755.564	147.11
755.748	208.55
755.932	265.89
756.116	294.57
756.3	192.17
756.484	167.59
756.668	177.83
756.852	91.82
757.036	261.8
757.22	177.83
757.404	173.74
757.588	140.97
757.772	175.78
757.956	226.98
758.14	278.18
758.323	140.97
758.507	218.79
758.691	114.34
758.875	257.7
759.059	296.61
759.242	171.69
759.426	177.83
759.61	188.07
759.794	85.67
759.977	218.79
760.161	366.25
760.345	247.46
760.528	222.89
760.712	190.12
760.895	239.27
761.079	95.91
761.263	91.82
761.446	112.3
761.63	179.88
761.813	257.7
761.997	136.87
762.18	128.68
762.364	188.07
762.547	93.87
762.731	38.57
762.914	136.87
763.098	140.97
763.281	85.67
763.464	91.82
763.648	157.35
763.831	124.58
764.015	114.34
764.198	169.64
764.381	208.55
764.564	208.55
764.748	138.92
764.931	198.31
765.114	95.91
765.297	196.26
765.481	28.33
765.664	104.11
765.847	120.49
766.03	269.99
766.213	26.28
766.397	112.3
766.58	73.39
766.763	159.4
766.946	85.67
767.129	81.58
767.312	75.43
767.495	100.01
767.678	3.75
767.861	83.63
768.044	104.11
768.227	40.62
768.41	104.11
768.593	114.34
768.776	179.88
768.959	77.48
769.142	249.51
769.324	61.1
769.507	192.17
769.69	61.1
769.873	112.3
770.056	224.94
770.239	104.11
770.421	151.21
770.604	97.96
770.787	130.73
770.97	48.81
771.152	50.86
771.335	79.53
771.518	34.47
771.7	247.46
771.883	214.7
772.066	46.76
772.248	159.4
772.431	192.17
772.613	126.63
772.796	26.28
772.978	106.15
773.161	153.26
773.343	100.01
773.526	79.53
773.708	-53.59
773.891	-63.83
774.073	151.21
774.256	106.15
774.438	247.46
774.621	65.19
774.803	69.29
774.985	40.62
775.168	151.21
775.35	20.14
775.532	132.78
775.715	-29.01
775.897	120.49
776.079	128.68
776.261	54.95
776.444	50.86
776.626	95.91
776.808	93.87
776.99	-8.53
777.173	128.68
777.355	20.14
777.537	75.43
777.719	11.95
777.901	13.99
778.083	9.9
778.265	-82.26
778.447	102.06
778.629	57
778.811	145.06
778.993	97.96
779.175	124.58
779.357	93.87
779.539	-41.3
779.721	100.01
779.903	130.73
780.085	67.24
780.267	161.45
780.449	77.48
780.631	97.96
780.812	77.48
780.994	30.38
781.176	87.72
781.358	-16.73
781.54	89.77
781.721	167.59
781.903	108.2
782.085	32.43
782.267	169.64
782.448	75.43
782.63	-26.96
782.812	128.68
782.993	181.93
783.175	130.73
783.357	59.05
783.538	44.71
783.72	-39.25
783.901	57
784.083	108.2
784.264	106.15
784.446	26.28
784.627	65.19
784.809	61.1
784.99	-12.63
785.172	132.78
785.353	67.24
785.535	63.15
785.716	-29.01
785.897	42.67
786.079	69.29
786.26	138.92
786.441	124.58
786.623	-10.58
786.804	-47.44
786.985	54.95
787.167	93.87
787.348	-4.44
787.529	38.57
787.71	245.41
787.891	100.01
788.073	24.23
788.254	-76.12
788.435	155.3
788.616	120.49
788.797	26.28
788.978	36.52
789.159	-31.06
789.34	-10.58
789.522	3.75
789.703	24.23
789.884	13.99
790.065	83.63
790.246	220.84
790.427	24.23
790.607	126.63
790.788	114.34
790.969	-0.34
791.15	89.77
791.331	-45.4
791.512	32.43
791.693	-35.16
791.874	-18.77
792.054	167.59
792.235	116.39
792.416	-49.49
792.597	1.71
792.778	81.58
792.958	93.87
793.139	104.11
793.32	28.33
793.5	-61.78
793.681	212.65
793.862	122.54
794.042	48.81
794.223	-24.92
794.404	36.52
794.584	-86.36
794.765	7.85
794.945	-10.58
795.126	36.52
795.306	61.1
795.487	63.15
795.667	50.86
795.848	57
796.028	42.67
796.209	34.47
796.389	91.82
796.57	13.99
796.75	-14.68
796.93	32.43
797.111	-10.58
797.291	89.77
797.471	112.3
797.652	20.14
797.832	81.58
798.012	54.95
798.192	-0.34
798.373	-14.68
798.553	50.86
798.733	24.23
798.913	-31.06
799.093	9.9
799.274	18.09
799.454	89.77
799.634	110.25
799.814	136.87
799.994	77.48
800.174	24.23
800.354	5.8
800.534	-86.36
800.714	118.44
800.894	3.75
801.074	-104.79
801.254	-2.39
801.434	136.87
801.614	38.57
801.794	-49.49
801.974	2023.05
802.154	-12.63
802.334	110.25
802.514	-43.35
802.693	-18.77
802.873	-26.96
803.053	79.53
803.233	42.67
803.413	65.19
803.592	-39.25
803.772	-78.16
803.952	11.95
804.131	-53.59
804.311	122.54
804.491	153.26
804.67	-35.16
804.85	-2.39
805.03	13.99
805.209	85.67
805.389	-6.49
805.568	-24.92
805.748	7.85
805.928	-29.01
806.107	69.29
806.287	11.95
806.466	89.77
806.646	38.57
806.825	-0.34
807.004	102.06
807.184	61.1
807.363	50.86
807.543	26.28
807.722	16.04
807.901	69.29
808.081	171.69
808.26	-133.46
808.439	61.1
808.619	22.19
808.798	16.04
808.977	75.43
809.156	83.63
809.336	44.71
809.515	106.15
809.694	-53.59
809.873	-8.53
810.052	9.9
810.231	143.02
810.411	85.67
810.59	179.88
810.769	-12.63
810.948	75.43
811.127	-80.21
811.306	-63.83
811.485	-0.34
811.664	128.68
811.843	7.85
812.022	20.14
812.201	-4.44
812.38	61.1
812.559	-8.53
812.737	106.15
812.916	-78.16
813.095	3.75
813.274	30.38
813.453	16.04
813.632	-18.77
813.811	79.53
813.989	-8.53
814.168	34.47
814.347	-59.73
814.526	1.71
814.704	120.49
814.883	192.17
815.062	3.75
815.24	77.48
815.419	-45.4
815.598	79.53
815.776	-57.68
815.955	63.15
816.133	-129.36
816.312	-29.01
816.49	-74.07
816.669	28.33
816.847	11.95
817.026	114.34
817.204	-22.87
817.383	-24.92
817.561	-59.73
817.74	1.71
817.918	7.85
818.097	-82.26
818.275	-29.01
818.453	-10.58
818.632	138.92
818.81	26.28
818.988	-47.44
819.167	-67.92
819.345	44.71
819.523	7.85
819.701	-0.34
819.879	59.05
820.058	104.11
820.236	-12.63
820.414	16.04
820.592	-31.06
820.77	1.71
820.948	-20.82
821.127	-22.87
821.305	20.14
821.483	-84.31
821.661	77.48
821.839	3.75
822.017	1.71
822.195	-14.68
822.373	75.43
822.551	38.57
822.729	69.29
822.907	-37.2
823.085	77.48
823.262	3.75
823.44	-35.16
823.618	-59.73
823.796	-33.11
823.974	38.57
824.152	-16.73
824.329	26.28
824.507	69.29
824.685	5.8
824.863	11.95
825.04	-24.92
825.218	83.63
825.396	50.86
825.574	26.28
825.751	26.28
825.929	7.85
826.107	-100.69
826.284	-6.49
826.462	44.71
826.639	16.04
826.817	-82.26
826.994	16.04
827.172	-37.2
827.349	173.74
827.527	79.53
827.704	52.91
827.882	73.39
828.059	65.19
828.237	50.86
828.414	54.95
828.591	-131.41
828.769	44.71
828.946	3.75
829.124	44.71
829.301	130.73
829.478	3.75
829.655	22.19
829.833	36.52
830.01	-98.64
830.187	71.34
830.364	50.86
830.542	89.77
830.719	120.49
830.896	71.34
831.073	13.99
831.25	69.29
831.427	22.19
831.604	65.19
831.782	-39.25
831.959	40.62
832.136	28.33
832.313	32.43
832.49	-72.02
832.667	11.95
832.844	-45.4
833.021	48.81
833.198	44.71
833.374	26.28
833.551	-49.49
833.728	18.09
833.905	138.92
834.082	-123.22
834.259	26.28
834.436	61.1
834.612	-37.2
834.789	91.82
834.966	36.52
835.143	52.91
835.319	-24.92
835.496	26.28
835.673	26.28
835.85	83.63
836.026	-0.34
836.203	11.95
836.38	-18.77
836.556	44.71
836.733	-39.25
836.909	69.29
837.086	67.24
837.262	-35.16
837.439	38.57
837.616	-8.53
837.792	-6.49
837.968	24.23
838.145	-127.32
838.321	42.67
838.498	73.39
838.674	67.24
838.851	-22.87
839.027	-92.5
839.203	-4.44
839.38	61.1
839.556	-76.12
839.732	79.53
839.909	34.47
840.085	63.15
840.261	24.23
840.437	89.77
840.614	9.9
840.79	75.43
840.966	13.99
841.142	30.38
841.318	-37.2
841.494	1.71
841.671	89.77
841.847	-37.2
842.023	-55.64
842.199	32.43
842.375	91.82
842.551	-33.11
842.727	-12.63
842.903	153.26
843.079	-121.17
843.255	81.58
843.431	36.52
843.607	79.53
843.783	-135.51
843.959	140.97
844.134	-8.53
844.31	79.53
844.486	5.8
844.662	18.09
844.838	-51.54
845.013	143.02
845.189	-4.44
845.365	30.38
845.541	-35.16
845.716	32.43
845.892	61.1
846.068	-65.88
846.244	-90.45
846.419	34.47
846.595	-61.78
846.77	-61.78
846.946	44.71
847.122	-102.74
847.297	-78.16
847.473	126.63
847.648	-121.17
847.824	-33.11
847.999	-104.79
848.175	42.67
848.35	20.14
848.526	57
848.701	38.57
848.876	69.29
849.052	79.53
849.227	16.04
849.403	-74.07
849.578	9.9
849.753	61.1
849.929	18.09
850.104	-90.45
850.279	-24.92
850.454	104.11
850.63	1.71
850.805	38.57
850.98	48.81
851.155	-59.73
851.33	20.14
851.505	-33.11
851.681	100.01
851.856	30.38
852.031	24.23
852.206	30.38
852.381	18.09
852.556	89.77
852.731	38.57
852.906	108.2
853.081	7.85
853.256	93.87
853.431	-84.31
853.606	-61.78
853.781	7.85
853.956	-29.01
854.131	-12.63
854.305	-69.97
854.48	108.2
854.655	-37.2
854.83	-37.2
855.005	36.52
855.18	24.23
855.354	-41.3
855.529	65.19
855.704	-82.26
855.879	63.15
856.053	-53.59
856.228	42.67
856.403	-90.45
856.577	-22.87
856.752	-92.5
856.926	5.8
857.101	28.33
857.276	-100.69
857.45	46.76
857.625	48.81
857.799	44.71
857.974	40.62
858.148	-18.77
858.323	-0.34
858.497	-63.83
858.672	-35.16
858.846	-61.78
859.02	-29.01
859.195	-20.82
859.369	22.19
859.543	-39.25
859.718	-39.25
859.892	24.23
860.066	46.76
860.241	-8.53
860.415	-22.87
860.589	5.8
860.763	-57.68
860.938	18.09
861.112	114.34
861.286	-6.49
861.46	3.75
861.634	-59.73
861.808	-8.53
861.982	-12.63
862.157	-96.6
862.331	-4.44
862.505	-61.78
862.679	-57.68
862.853	67.24
863.027	-61.78
863.201	118.44
863.375	-57.68
863.549	77.48
863.722	59.05
863.896	73.39
864.07	-2.39
864.244	44.71
864.418	85.67
864.592	-37.2
864.766	-20.82
864.939	79.53
865.113	-41.3
865.287	52.91
865.461	-67.92
865.634	38.57
865.808	-6.49
865.982	-53.59
866.156	-82.26
866.329	-100.69
866.503	7.85
866.676	3.75
866.85	-10.58
867.024	-43.35
867.197	48.81
867.371	1.71
867.544	50.86
867.718	-96.6
867.891	-39.25
868.065	-121.17
868.238	-88.4
868.412	89.77
868.585	-61.78
868.759	-22.87
868.932	-16.73
869.105	-45.4
869.279	7.85
869.452	-16.73
869.625	52.91
869.799	-53.59
869.972	-76.12
870.145	-20.82
870.319	106.15
870.492	-6.49
870.665	-10.58
870.838	16.04
871.011	-61.78
871.185	11.95
871.358	-18.77
871.531	46.76
871.704	-100.69
871.877	-43.35
872.05	-24.92
872.223	24.23
872.396	54.95
872.569	65.19
872.742	-121.17
872.915	-0.34
873.088	-37.2
873.261	-57.68
873.434	57
873.607	-26.96
873.78	97.96
873.953	-18.77
874.126	-22.87
874.299	3.75
874.471	-20.82
874.644	-16.73
874.817	-14.68
874.99	67.24
875.163	-0.34
875.335	34.47
875.508	-76.12
875.681	140.97
875.853	-65.88
876.026	69.29
876.199	24.23
876.371	-29.01
876.544	54.95
876.717	-41.3
876.889	-53.59
877.062	11.95
877.234	11.95
877.407	-166.23
877.579	3.75
877.752	36.52
877.924	87.72
878.097	36.52
878.269	5.8
878.442	18.09
878.614	11.95
878.786	5.8
878.959	52.91
879.131	24.23
879.303	-76.12
879.476	-14.68
879.648	36.52
879.82	112.3
879.993	-63.83
880.165	18.09
880.337	28.33
880.509	-55.64
880.681	-69.97
880.854	-35.16
881.026	52.91
881.198	192.17
881.37	-29.01
881.542	36.52
881.714	-31.06
881.886	1.71
882.058	-20.82
882.23	32.43
882.402	-31.06
882.574	52.91
882.746	20.14
882.918	69.29
883.09	3.75
883.262	-16.73
883.434	1.71
883.606	-104.79
883.778	-16.73
883.95	77.48
884.122	-33.11
884.293	28.33
884.465	-37.2
884.637	46.76
884.809	-37.2
884.98	-12.63
885.152	59.05
885.324	40.62
885.496	-0.34
885.667	-57.68
885.839	91.82
886.011	91.82
886.182	-29.01
886.354	75.43
886.525	20.14
886.697	-4.44
886.869	-96.6
887.04	-47.44
887.212	116.39
887.383	130.73
887.555	18.09
887.726	-67.92
887.897	-47.44
888.069	-4.44
888.24	-0.34
888.412	-4.44
888.583	9.9
888.754	-53.59
888.926	-129.36
889.097	-51.54
889.268	-69.97
889.44	67.24
889.611	-63.83
889.782	-49.49
889.953	-41.3
890.125	196.26
890.296	-35.16
890.467	-33.11
890.638	-82.26
890.809	11.95
890.98	-29.01
891.151	22.19
891.323	93.87
891.494	20.14
891.665	130.73
891.836	-41.3
892.007	30.38
892.178	24.23
892.349	-10.58
892.52	-33.11
892.691	30.38
892.862	-125.27
893.032	1.71
893.203	-53.59
893.374	-86.36
893.545	5.8
893.716	-33.11
893.887	87.72
894.057	-57.68
894.228	-35.16
894.399	-80.21
894.57	93.87
894.74	7.85
894.911	9.9
895.082	-24.92
895.253	-49.49
895.423	34.47
895.594	28.33
895.764	16.04
895.935	-84.31
896.106	34.47
896.276	-92.5
896.447	79.53
896.617	-133.46
896.788	-43.35
896.958	-31.06
897.129	-10.58
897.299	-76.12
897.47	134.82
897.64	59.05
897.81	1.71
897.981	42.67
898.151	32.43
898.322	48.81
898.492	11.95
898.662	-94.55
898.832	-20.82
899.003	-80.21
899.173	20.14
899.343	-49.49
899.513	-80.21
