Data from USB4F104151__24__10-23-57-943.txt Node

Date: Wed Feb 26 10:23:57 EST 2025
User: louis
Spectrometer: USB4F10415
Trigger mode: 4
Integration Time (sec): 1.000000E-1
Scans to average: 1
Electric dark correction enabled: true
Nonlinearity correction enabled: false
Boxcar width: 0
XAxis mode: Wavelengths
Number of Pixels in Spectrum: 3648
>>>>>Begin Spectral Data<<<<<
178.204	-373.58
178.424	-373.58
178.644	-373.58
178.864	-381.78
179.084	-336.72
179.304	29.87
179.524	-113.49
179.744	15.53
179.964	36.01
180.184	81.07
180.404	27.82
180.624	19.63
180.844	-29.52
181.064	-88.92
181.283	-0.85
181.503	-62.29
181.723	85.16
181.943	-45.91
182.163	201.9
182.383	-0.85
182.602	27.82
182.822	152.74
183.042	142.5
183.262	-68.44
183.482	31.91
183.701	40.11
183.921	-17.24
184.141	-50
184.361	103.59
184.58	50.35
184.8	21.67
185.02	1.19
185.239	185.51
185.459	117.93
185.679	126.12
185.898	-138.07
186.118	-13.14
186.338	134.31
186.557	79.02
186.777	-39.76
186.997	-15.19
187.216	91.31
187.436	130.22
187.655	83.11
187.875	107.69
188.095	-2.9
188.314	197.8
188.534	165.03
188.753	-33.62
188.973	134.31
189.192	195.75
189.412	29.87
189.631	62.63
189.851	31.91
190.07	218.28
190.29	-11.09
190.509	-39.76
190.729	83.11
190.948	183.46
191.168	302.25
191.387	152.74
191.607	60.59
191.826	76.97
192.045	52.39
192.265	-27.48
192.484	60.59
192.704	-7
192.923	-68.44
193.142	183.46
193.362	54.44
193.581	156.84
193.8	60.59
194.02	103.59
194.239	50.35
194.458	144.55
194.678	-27.48
194.897	-9.05
195.116	-7
195.335	42.15
195.555	29.87
195.774	-7
195.993	132.26
196.212	-0.85
196.432	40.11
196.651	-31.57
196.87	48.3
197.089	167.08
197.308	-0.85
197.528	146.6
197.747	-33.62
197.966	87.21
198.185	113.83
198.404	25.77
198.623	117.93
198.842	72.87
199.062	138.41
199.281	107.69
199.5	-17.24
199.719	89.26
199.938	109.74
200.157	48.3
200.376	97.45
200.595	117.93
200.814	44.2
201.033	-19.29
201.252	105.64
201.471	42.15
201.69	62.63
201.909	-27.48
202.128	93.35
202.347	36.01
202.566	31.91
202.785	-23.38
203.004	54.44
203.223	236.71
203.442	60.59
203.661	11.43
203.879	52.39
204.098	142.5
204.317	19.63
204.536	132.26
204.755	140.46
204.974	60.59
205.193	40.11
205.411	134.31
205.63	138.41
205.849	44.2
206.068	27.82
206.287	-23.38
206.505	72.87
206.724	50.35
206.943	-11.09
207.162	48.3
207.381	60.59
207.599	48.3
207.818	46.25
208.037	-15.19
208.255	-13.14
208.474	68.78
208.693	72.87
208.911	15.53
209.13	156.84
209.349	152.74
209.567	193.7
209.786	54.44
210.005	117.93
210.223	58.54
210.442	-60.24
210.661	97.45
210.879	136.36
211.098	70.83
211.316	9.39
211.535	74.92
211.753	76.97
211.972	-2.9
212.191	1.19
212.409	89.26
212.628	140.46
212.846	74.92
213.065	60.59
213.283	130.22
213.502	89.26
213.72	27.82
213.938	60.59
214.157	13.48
214.375	113.83
214.594	-29.52
214.812	124.07
215.031	25.77
215.249	76.97
215.467	81.07
215.686	38.06
215.904	11.43
216.122	81.07
216.341	87.21
216.559	-2.9
216.778	81.07
216.996	122.02
217.214	-27.48
217.432	44.2
217.651	-54.1
217.869	52.39
218.087	15.53
218.306	46.25
218.524	148.65
218.742	109.74
218.96	93.35
219.179	89.26
219.397	-4.95
219.615	187.56
219.833	40.11
220.051	-13.14
220.27	99.5
220.488	144.55
220.706	117.93
220.924	11.43
221.142	-13.14
221.36	81.07
221.578	42.15
221.796	33.96
222.015	60.59
222.233	62.63
222.451	199.85
222.669	-54.1
222.887	103.59
223.105	-9.05
223.323	27.82
223.541	13.48
223.759	97.45
223.977	7.34
224.195	249
224.413	167.08
224.631	-11.09
224.849	152.74
225.067	249
225.285	3.24
225.503	25.77
225.721	-29.52
225.939	95.4
226.157	25.77
226.375	208.04
226.592	64.68
226.81	99.5
227.028	62.63
227.246	124.07
227.464	44.2
227.682	58.54
227.9	115.88
228.117	52.39
228.335	68.78
228.553	91.31
228.771	-41.81
228.989	97.45
229.206	42.15
229.424	-2.9
229.642	-50
229.86	15.53
230.077	140.46
230.295	87.21
230.513	144.55
230.731	19.63
230.948	122.02
231.166	162.98
231.384	72.87
231.601	-84.82
231.819	238.76
232.037	-45.91
232.254	-19.29
232.472	46.25
232.689	-60.24
232.907	91.31
233.125	-37.72
233.342	81.07
233.56	38.06
233.777	38.06
233.995	5.29
234.213	83.11
234.43	19.63
234.648	81.07
234.865	21.67
235.083	136.36
235.3	19.63
235.518	175.27
235.735	224.42
235.953	87.21
236.17	68.78
236.388	-17.24
236.605	38.06
236.822	117.93
237.04	54.44
237.257	-15.19
237.475	-23.38
237.692	46.25
237.909	66.73
238.127	56.49
238.344	54.44
238.562	62.63
238.779	-45.91
238.996	-2.9
239.214	99.5
239.431	89.26
239.648	-23.38
239.865	56.49
240.083	197.8
240.3	3.24
240.517	-2.9
240.735	83.11
240.952	148.65
241.169	117.93
241.386	42.15
241.603	5.29
241.821	-76.63
242.038	119.98
242.255	175.27
242.472	66.73
242.689	23.72
242.907	13.48
243.124	62.63
243.341	44.2
243.558	11.43
243.775	-70.48
243.992	1.19
244.209	138.41
244.426	212.14
244.643	160.94
244.86	46.25
245.078	173.22
245.295	85.16
245.512	1.19
245.729	74.92
245.946	89.26
246.163	3.24
246.38	-13.14
246.597	46.25
246.814	54.44
247.031	23.72
247.248	44.2
247.464	103.59
247.681	60.59
247.898	64.68
248.115	109.74
248.332	-2.9
248.549	113.83
248.766	165.03
248.983	91.31
249.2	142.5
249.417	113.83
249.633	-35.67
249.85	74.92
250.067	85.16
250.284	79.02
250.501	13.48
250.717	111.78
250.934	70.83
251.151	48.3
251.368	52.39
251.585	128.17
251.801	40.11
252.018	60.59
252.235	36.01
252.451	-25.43
252.668	46.25
252.885	154.79
253.102	11.43
253.318	48.3
253.535	107.69
253.752	3.24
253.968	5.29
254.185	-113.49
254.401	52.39
254.618	56.49
254.835	25.77
255.051	156.84
255.268	111.78
255.484	1.19
255.701	64.68
255.917	74.92
256.134	-64.34
256.351	60.59
256.567	-72.53
256.784	25.77
257	-84.82
257.217	138.41
257.433	95.4
257.65	58.54
257.866	173.22
258.082	-45.91
258.299	60.59
258.515	93.35
258.732	-33.62
258.948	5.29
259.165	23.72
259.381	-56.15
259.597	76.97
259.814	-0.85
260.03	7.34
260.246	-39.76
260.463	144.55
260.679	160.94
260.895	60.59
261.112	74.92
261.328	81.07
261.544	5.29
261.761	162.98
261.977	13.48
262.193	-4.95
262.409	134.31
262.626	11.43
262.842	68.78
263.058	-9.05
263.274	224.42
263.49	33.96
263.707	52.39
263.923	136.36
264.139	-45.91
264.355	167.08
264.571	152.74
264.787	85.16
265.004	136.36
265.22	171.18
265.436	70.83
265.652	79.02
265.868	85.16
266.084	-17.24
266.3	13.48
266.516	3.24
266.732	21.67
266.948	76.97
267.164	-29.52
267.38	101.55
267.596	87.21
267.812	160.94
268.028	7.34
268.244	15.53
268.46	-21.33
268.676	52.39
268.892	9.39
269.108	-21.33
269.324	-31.57
269.54	-17.24
269.756	140.46
269.972	1.19
270.188	25.77
270.403	-78.68
270.619	48.3
270.835	85.16
271.051	60.59
271.267	52.39
271.483	-19.29
271.698	76.97
271.914	54.44
272.13	87.21
272.346	-15.19
272.562	89.26
272.777	70.83
272.993	-31.57
273.209	27.82
273.425	40.11
273.64	-45.91
273.856	87.21
274.072	-29.52
274.287	-23.38
274.503	64.68
274.719	50.35
274.934	-13.14
275.15	-74.58
275.366	93.35
275.581	46.25
275.797	29.87
276.012	126.12
276.228	-35.67
276.444	-13.14
276.659	146.6
276.875	-25.43
277.09	-17.24
277.306	23.72
277.521	81.07
277.737	48.3
277.952	144.55
278.168	68.78
278.383	72.87
278.599	44.2
278.814	113.83
279.03	40.11
279.245	210.09
279.461	29.87
279.676	132.26
279.892	29.87
280.107	36.01
280.322	19.63
280.538	105.64
280.753	-76.63
280.969	76.97
281.184	50.35
281.399	189.61
281.615	23.72
281.83	148.65
282.045	-58.2
282.26	9.39
282.476	130.22
282.691	158.89
282.906	99.5
283.122	52.39
283.337	-27.48
283.552	56.49
283.767	-43.86
283.983	93.35
284.198	13.48
284.413	87.21
284.628	-58.2
284.843	76.97
285.058	48.3
285.274	17.58
285.489	-119.64
285.704	115.88
285.919	-33.62
286.134	56.49
286.349	83.11
286.564	7.34
286.779	109.74
286.995	-41.81
287.21	-86.87
287.425	103.59
287.64	-19.29
287.855	33.96
288.07	-54.1
288.285	183.46
288.5	171.18
288.715	91.31
288.93	50.35
289.145	-11.09
289.36	13.48
289.575	-43.86
289.79	115.88
290.004	60.59
290.219	93.35
290.434	31.91
290.649	-23.38
290.864	21.67
291.079	31.91
291.294	130.22
291.509	-15.19
291.724	-4.95
291.938	-17.24
292.153	70.83
292.368	44.2
292.583	111.78
292.798	101.55
293.012	111.78
293.227	89.26
293.442	-9.05
293.657	93.35
293.871	128.17
294.086	50.35
294.301	228.52
294.516	175.27
294.73	46.25
294.945	-50
295.16	109.74
295.374	85.16
295.589	162.98
295.804	50.35
296.018	72.87
296.233	148.65
296.447	52.39
296.662	27.82
296.877	113.83
297.091	66.73
297.306	107.69
297.52	3.24
297.735	-0.85
297.949	13.48
298.164	21.67
298.378	11.43
298.593	-2.9
298.807	-9.05
299.022	-2.9
299.236	173.22
299.451	89.26
299.665	52.39
299.88	-19.29
300.094	56.49
300.309	44.2
300.523	56.49
300.737	5.29
300.952	128.17
301.166	113.83
301.381	-41.81
301.595	-19.29
301.809	42.15
302.024	64.68
302.238	-13.14
302.452	99.5
302.667	87.21
302.881	117.93
303.095	42.15
303.309	107.69
303.524	-13.14
303.738	79.02
303.952	-29.52
304.166	27.82
304.381	-84.82
304.595	140.46
304.809	-45.91
305.023	177.32
305.237	19.63
305.452	11.43
305.666	68.78
305.88	93.35
306.094	97.45
306.308	146.6
306.522	130.22
306.736	76.97
306.95	79.02
307.164	72.87
307.379	62.63
307.593	148.65
307.807	58.54
308.021	72.87
308.235	93.35
308.449	-29.52
308.663	101.55
308.877	251.05
309.091	31.91
309.305	76.97
309.519	-23.38
309.733	56.49
309.947	-136.02
310.161	103.59
310.374	173.22
310.588	113.83
310.802	9.39
311.016	25.77
311.23	76.97
311.444	-50
311.658	85.16
311.872	119.98
312.085	220.33
312.299	214.18
312.513	197.8
312.727	107.69
312.941	33.96
313.154	-37.72
313.368	76.97
313.582	21.67
313.796	48.3
314.009	7.34
314.223	146.6
314.437	70.83
314.651	107.69
314.864	-19.29
315.078	72.87
315.292	-41.81
315.505	-2.9
315.719	56.49
315.933	89.26
316.146	76.97
316.36	-45.91
316.573	175.27
316.787	17.58
317.001	150.7
317.214	9.39
317.428	126.12
317.641	-99.16
317.855	-35.67
318.068	-4.95
318.282	44.2
318.495	165.03
318.709	105.64
318.922	74.92
319.136	171.18
319.349	89.26
319.563	-13.14
319.776	74.92
319.99	-11.09
320.203	105.64
320.417	17.58
320.63	152.74
320.843	199.85
321.057	29.87
321.27	44.2
321.483	132.26
321.697	162.98
321.91	19.63
322.124	111.78
322.337	140.46
322.55	42.15
322.763	13.48
322.977	7.34
323.19	3.24
323.403	79.02
323.617	140.46
323.83	152.74
324.043	52.39
324.256	40.11
324.469	-37.72
324.683	68.78
324.896	95.4
325.109	52.39
325.322	-90.96
325.535	113.83
325.748	62.63
325.962	66.73
326.175	126.12
326.388	38.06
326.601	81.07
326.814	13.48
327.027	142.5
327.24	212.14
327.453	-103.25
327.666	64.68
327.879	109.74
328.092	70.83
328.305	132.26
328.518	1.19
328.731	15.53
328.944	-23.38
329.157	36.01
329.37	-41.81
329.583	199.85
329.796	44.2
330.009	-45.91
330.222	128.17
330.435	97.45
330.648	-0.85
330.861	48.3
331.073	31.91
331.286	132.26
331.499	56.49
331.712	23.72
331.925	54.44
332.138	97.45
332.35	99.5
332.563	-41.81
332.776	150.7
332.989	-64.34
333.202	-0.85
333.414	13.48
333.627	74.92
333.84	11.43
334.053	99.5
334.265	-82.77
334.478	25.77
334.691	31.91
334.903	79.02
335.116	-27.48
335.329	93.35
335.541	44.2
335.754	105.64
335.966	-56.15
336.179	48.3
336.392	1.19
336.604	40.11
336.817	5.29
337.029	81.07
337.242	105.64
337.454	148.65
337.667	54.44
337.88	193.7
338.092	115.88
338.305	132.26
338.517	-39.76
338.729	171.18
338.942	124.07
339.154	-60.24
339.367	-58.2
339.579	42.15
339.792	-56.15
340.004	66.73
340.217	58.54
340.429	46.25
340.641	-7
340.854	7.34
341.066	74.92
341.278	142.5
341.491	195.75
341.703	23.72
341.915	42.15
342.128	169.13
342.34	70.83
342.552	23.72
342.764	7.34
342.977	-7
343.189	124.07
343.401	31.91
343.613	3.24
343.826	103.59
344.038	3.24
344.25	-13.14
344.462	-17.24
344.674	62.63
344.886	21.67
345.099	52.39
345.311	115.88
345.523	40.11
345.735	-23.38
345.947	44.2
346.159	66.73
346.371	38.06
346.583	-41.81
346.795	242.85
347.007	29.87
347.219	117.93
347.431	38.06
347.643	173.22
347.855	38.06
348.067	191.66
348.279	-33.62
348.491	31.91
348.703	175.27
348.915	-2.9
349.127	44.2
349.339	119.98
349.551	1.19
349.763	19.63
349.975	60.59
350.187	91.31
350.399	191.66
350.61	-13.14
350.822	48.3
351.034	64.68
351.246	66.73
351.458	48.3
351.669	97.45
351.881	7.34
352.093	146.6
352.305	79.02
352.517	27.82
352.728	126.12
352.94	42.15
353.152	72.87
353.363	9.39
353.575	122.02
353.787	191.66
353.999	66.73
354.21	205.99
354.422	-4.95
354.633	25.77
354.845	36.01
355.057	48.3
355.268	46.25
355.48	183.46
355.692	-90.96
355.903	79.02
356.115	-80.72
356.326	13.48
356.538	175.27
356.749	50.35
356.961	70.83
357.172	33.96
357.384	-45.91
357.595	253.09
357.807	58.54
358.018	-37.72
358.23	44.2
358.441	154.79
358.653	66.73
358.864	15.53
359.075	-74.58
359.287	60.59
359.498	58.54
359.709	48.3
359.921	9.39
360.132	138.41
360.344	-9.05
360.555	-39.76
360.766	76.97
360.977	54.44
361.189	175.27
361.4	17.58
361.611	105.64
361.823	154.79
362.034	40.11
362.245	-37.72
362.456	56.49
362.667	50.35
362.879	-50
363.09	109.74
363.301	89.26
363.512	5.29
363.723	-17.24
363.935	134.31
364.146	136.36
364.357	70.83
364.568	76.97
364.779	-62.29
364.99	70.83
365.201	-62.29
365.412	152.74
365.623	-58.2
365.834	134.31
366.045	54.44
366.256	64.68
366.467	36.01
366.678	-7
366.889	74.92
367.1	19.63
367.311	17.58
367.522	-27.48
367.733	64.68
367.944	52.39
368.155	21.67
368.366	124.07
368.577	97.45
368.788	124.07
368.999	-41.81
369.209	70.83
369.42	298.15
369.631	173.22
369.842	117.93
370.053	85.16
370.264	136.36
370.474	-0.85
370.685	40.11
370.896	36.01
371.107	150.7
371.317	52.39
371.528	38.06
371.739	87.21
371.95	70.83
372.16	126.12
372.371	-13.14
372.582	13.48
372.792	132.26
373.003	158.89
373.214	27.82
373.424	79.02
373.635	-0.85
373.846	93.35
374.056	62.63
374.267	42.15
374.477	89.26
374.688	44.2
374.898	93.35
375.109	87.21
375.319	79.02
375.53	113.83
375.74	93.35
375.951	9.39
376.161	11.43
376.372	124.07
376.582	50.35
376.793	17.58
377.003	62.63
377.214	19.63
377.424	33.96
377.635	70.83
377.845	3.24
378.055	160.94
378.266	-68.44
378.476	23.72
378.686	60.59
378.897	64.68
379.107	136.36
379.317	111.78
379.528	76.97
379.738	115.88
379.948	-25.43
380.158	54.44
380.369	76.97
380.579	52.39
380.789	11.43
380.999	111.78
381.21	173.22
381.42	124.07
381.63	42.15
381.84	191.66
382.05	101.55
382.261	91.31
382.471	111.78
382.681	50.35
382.891	117.93
383.101	48.3
383.311	42.15
383.521	56.49
383.731	105.64
383.941	76.97
384.151	54.44
384.361	60.59
384.571	74.92
384.781	79.02
384.991	148.65
385.201	183.46
385.411	173.22
385.621	62.63
385.831	132.26
386.041	19.63
386.251	50.35
386.461	146.6
386.671	-25.43
386.881	134.31
387.091	9.39
387.301	42.15
387.511	9.39
387.72	74.92
387.93	195.75
388.14	-72.53
388.35	89.26
388.56	160.94
388.769	134.31
388.979	38.06
389.189	-11.09
389.399	70.83
389.609	85.16
389.818	83.11
390.028	89.26
390.238	105.64
390.447	27.82
390.657	138.41
390.867	83.11
391.076	-23.38
391.286	124.07
391.496	50.35
391.705	56.49
391.915	111.78
392.125	85.16
392.334	36.01
392.544	205.99
392.753	74.92
392.963	-19.29
393.172	58.54
393.382	56.49
393.591	158.89
393.801	27.82
394.01	158.89
394.22	74.92
394.429	122.02
394.639	9.39
394.848	87.21
395.058	91.31
395.267	31.91
395.477	128.17
395.686	138.41
395.895	201.9
396.105	238.76
396.314	31.91
396.524	44.2
396.733	33.96
396.942	128.17
397.152	64.68
397.361	128.17
397.57	40.11
397.78	109.74
397.989	60.59
398.198	136.36
398.407	46.25
398.617	25.77
398.826	19.63
399.035	60.59
399.244	122.02
399.453	36.01
399.663	-11.09
399.872	130.22
400.081	27.82
400.29	146.6
400.499	-15.19
400.708	81.07
400.917	44.2
401.127	27.82
401.336	21.67
401.545	107.69
401.754	201.9
401.963	48.3
402.172	54.44
402.381	-11.09
402.59	7.34
402.799	25.77
403.008	175.27
403.217	130.22
403.426	58.54
403.635	-121.68
403.844	56.49
404.053	124.07
404.262	66.73
404.471	148.65
404.68	31.91
404.888	29.87
405.097	17.58
405.306	136.36
405.515	124.07
405.724	40.11
405.933	124.07
406.142	85.16
406.35	122.02
406.559	7.34
406.768	46.25
406.977	126.12
407.185	111.78
407.394	101.55
407.603	31.91
407.812	68.78
408.02	115.88
408.229	70.83
408.438	160.94
408.646	-101.2
408.855	58.54
409.064	99.5
409.272	29.87
409.481	103.59
409.69	27.82
409.898	38.06
410.107	122.02
410.315	138.41
410.524	64.68
410.733	58.54
410.941	-4.95
411.15	165.03
411.358	132.26
411.567	113.83
411.775	23.72
411.984	52.39
412.192	134.31
412.401	152.74
412.609	136.36
412.818	158.89
413.026	46.25
413.234	44.2
413.443	93.35
413.651	3.24
413.86	17.58
414.068	132.26
414.276	105.64
414.485	72.87
414.693	156.84
414.901	144.55
415.11	87.21
415.318	76.97
415.526	-4.95
415.734	150.7
415.943	126.12
416.151	79.02
416.359	38.06
416.567	124.07
416.776	105.64
416.984	89.26
417.192	66.73
417.4	15.53
417.608	81.07
417.817	-4.95
418.025	52.39
418.233	162.98
418.441	-23.38
418.649	29.87
418.857	97.45
419.065	146.6
419.273	91.31
419.481	83.11
419.689	27.82
419.897	70.83
420.105	72.87
420.313	42.15
420.521	83.11
420.729	130.22
420.937	3.24
421.145	17.58
421.353	97.45
421.561	195.75
421.769	91.31
421.977	-33.62
422.185	177.32
422.393	66.73
422.601	115.88
422.809	42.15
423.017	72.87
423.224	105.64
423.432	187.56
423.64	62.63
423.848	169.13
424.056	5.29
424.263	117.93
424.471	76.97
424.679	150.7
424.887	-0.85
425.094	142.5
425.302	115.88
425.51	40.11
425.718	48.3
425.925	97.45
426.133	54.44
426.341	140.46
426.548	36.01
426.756	-9.05
426.964	99.5
427.171	42.15
427.379	13.48
427.586	48.3
427.794	79.02
428.001	169.13
428.209	72.87
428.417	195.75
428.624	122.02
428.832	97.45
429.039	68.78
429.247	103.59
429.454	205.99
429.662	179.37
429.869	173.22
430.076	62.63
430.284	183.46
430.491	269.48
430.699	189.61
430.906	228.52
431.114	208.04
431.321	58.54
431.528	101.55
431.736	148.65
431.943	236.71
432.15	197.8
432.358	152.74
432.565	298.15
432.772	33.96
432.979	222.38
433.187	115.88
433.394	177.32
433.601	138.41
433.808	214.18
434.016	230.57
434.223	212.14
434.43	165.03
434.637	226.47
434.844	218.28
435.052	144.55
435.259	230.57
435.466	193.7
435.673	205.99
435.88	298.15
436.087	306.34
436.294	306.34
436.501	283.81
436.708	236.71
436.915	226.47
437.122	384.16
437.329	292.01
437.537	314.53
437.743	349.35
437.95	367.78
438.157	367.78
438.364	236.71
438.571	326.82
438.778	335.01
438.985	335.01
439.192	443.56
439.399	367.78
439.606	464.04
439.813	500.9
440.02	539.81
440.227	490.66
440.433	517.28
440.64	480.42
440.847	341.16
441.054	525.47
441.261	652.45
441.467	504.99
441.674	490.66
441.881	615.59
442.088	521.38
442.294	574.63
442.501	670.88
442.708	597.15
442.914	730.27
443.121	699.55
443.328	795.81
443.534	795.81
443.741	699.55
443.948	679.07
444.154	797.85
444.361	945.31
444.568	830.62
444.774	908.44
444.981	851.1
445.187	953.5
445.394	953.5
445.6	1004.7
445.807	1105.05
446.013	1043.61
446.22	1076.38
446.426	1193.11
446.633	1191.06
446.839	1426.58
447.046	1197.21
447.252	1451.16
447.459	1340.57
447.665	1346.71
447.871	1469.59
448.078	1680.53
448.284	1440.92
448.491	1725.58
448.697	1660.05
448.903	1797.26
449.11	1864.85
449.316	1870.99
449.522	1973.39
449.728	2016.4
449.935	2174.09
450.141	2065.55
450.347	2374.79
450.553	2278.54
450.76	2346.12
450.966	2362.5
451.172	2522.24
451.378	2768
451.584	2591.88
451.791	2942.08
451.997	2948.22
452.203	3036.28
452.409	3079.29
452.615	3191.93
452.821	3064.96
453.027	3159.16
453.233	3681.39
453.44	3576.95
453.646	3572.85
453.852	3878
454.058	3912.81
454.264	4119.66
454.47	4379.75
454.676	4353.13
454.882	4850.78
455.088	4428.9
455.294	4664.42
455.5	5057.63
455.705	5397.59
455.911	5446.74
456.117	5669.97
456.323	5715.03
456.529	5731.41
456.735	6374.47
456.941	6538.31
457.147	6653
457.352	6841.41
457.558	7103.55
457.764	7457.85
457.97	7539.77
458.176	7863.35
458.381	8334.38
458.587	8592.42
458.793	8883.24
458.999	8969.25
459.204	10007.57
459.41	10392.59
459.616	10136.59
459.821	10785.8
460.027	11340.8
460.233	11893.75
460.438	11922.42
460.644	12694.5
460.85	12880.87
461.055	13204.45
461.261	13655
461.466	13503.45
461.672	13702.11
461.878	15518.65
462.083	15213.51
462.289	15492.03
462.494	16225.2
462.7	16358.32
462.905	16726.96
463.111	17847.19
463.316	18570.13
463.522	19110.79
463.727	19813.24
463.932	20300.66
464.138	20861.8
464.343	22004.57
464.549	22227.8
464.754	23667.52
464.959	24365.88
465.165	24754.99
465.37	24394.55
465.575	24521.52
465.781	26352.41
465.986	26966.8
466.191	26782.48
466.397	27020.05
466.602	25961.25
466.807	27706.12
467.012	28396.28
467.218	28267.26
467.423	28658.42
467.628	29500.14
467.833	30913.23
468.038	30403.29
468.244	29897.44
468.449	31302.35
468.654	30507.74
468.859	30923.47
469.064	30749.4
469.269	30077.66
469.474	30315.23
469.679	31064.78
469.885	30292.7
470.09	30659.29
470.295	30872.28
470.5	29919.97
470.705	30010.08
470.91	29518.57
471.115	29094.64
471.32	29448.94
471.525	29393.64
471.73	28721.91
471.935	28504.82
472.139	27366.15
472.344	27800.32
472.549	27007.76
472.754	26678.04
472.959	26047.26
473.164	25027.37
473.369	24619.83
473.574	25518.89
473.778	24881.97
473.983	24615.73
474.188	24052.54
474.393	22846.29
474.598	22766.42
474.802	22348.63
475.007	22106.97
475.212	21916.51
475.417	21244.77
475.621	20790.13
475.826	20527.99
476.031	20136.82
476.235	19706.75
476.44	19786.62
476.645	19442.56
476.849	18946.95
477.054	18684.81
477.259	18310.04
477.463	18236.31
477.668	17824.67
477.872	17839
478.077	17185.7
478.282	16896.94
478.486	16503.73
478.691	16448.43
478.895	16214.96
479.1	16079.8
479.304	16063.41
479.509	15805.37
479.713	15754.17
479.918	15496.13
480.122	14963.65
480.326	15324.1
480.531	15205.31
480.735	14922.69
480.94	14662.6
481.144	15332.29
481.348	14568.4
481.553	14410.7
481.757	14281.68
481.961	14199.76
482.166	14427.09
482.37	13900.76
482.574	13755.35
482.778	13757.4
482.983	14058.45
483.187	13663.19
483.391	13685.72
483.595	13480.92
483.8	13149.15
484.004	13106.15
484.208	13057
484.412	13167.59
484.616	13024.23
484.821	12831.72
485.025	12354.54
485.229	12608.49
485.433	12258.29
485.637	12139.51
485.841	11801.59
486.045	11711.48
486.249	11656.18
486.453	11492.35
486.657	11453.44
486.861	11111.43
487.065	10875.91
487.269	10890.24
487.473	10443.79
487.677	10535.95
487.881	10687.5
488.085	10322.96
488.289	10165.26
488.493	9610.26
488.697	9722.9
488.901	9589.78
489.105	9401.37
489.309	9268.25
489.512	9276.45
489.716	8834.08
489.92	8768.55
490.124	8440.87
490.328	8498.22
490.531	8311.85
490.735	8205.36
490.939	8082.48
491.143	7945.27
491.346	7654.45
491.55	7670.84
491.754	7732.28
491.958	7535.67
492.161	7363.64
492.365	7287.87
492.569	7105.6
492.772	6952
492.976	7070.78
493.18	6777.92
493.383	6833.22
493.587	6716.48
493.79	6757.44
493.994	6378.57
494.197	6331.47
494.401	6437.96
494.605	6433.86
494.808	6448.2
495.012	6302.79
495.215	6167.63
495.419	6239.31
495.622	6038.61
495.825	6061.13
496.029	6138.96
496.232	6087.76
496.436	6005.84
496.639	6141
496.843	5952.59
497.046	5946.45
497.249	6057.04
497.453	5977.17
497.656	5960.78
497.859	6061.13
498.063	5995.6
498.266	6286.41
498.469	5944.4
498.673	5889.1
498.876	6143.05
499.079	6141
499.282	6067.28
499.485	6554.69
499.689	6200.4
499.892	6403.14
500.095	6356.04
500.298	6501.45
500.501	6310.99
500.705	6450.25
500.908	6698.05
501.111	6493.26
501.314	6677.57
501.517	6962.24
501.72	6667.33
501.923	6655.05
502.126	6878.27
502.329	7040.06
502.532	6986.82
502.735	7101.5
502.938	7287.87
503.141	7117.89
503.344	7388.22
503.547	7679.03
503.75	7494.71
503.953	7636.02
504.156	7816.24
504.359	7851.06
504.562	7935.03
504.765	8010.8
504.968	8201.26
505.17	8481.83
505.373	8438.83
505.576	8692.77
505.779	8817.7
505.982	8883.24
506.185	9274.4
506.387	9298.97
506.59	9112.61
506.793	9532.44
506.996	9405.47
507.198	9919.51
507.401	9954.32
507.604	10384.4
507.807	10501.13
508.009	10757.13
508.212	10834.95
508.415	10953.73
508.617	11269.12
508.82	11375.61
509.022	11545.59
509.225	11928.56
509.428	12053.49
509.63	12454.89
509.833	12344.3
510.035	13269.98
510.238	12909.54
510.44	13392.86
510.643	13986.77
510.845	14242.77
511.048	14173.14
511.25	14580.68
511.453	15080.39
511.655	15662.01
511.858	15485.89
512.06	16272.31
512.262	16434.1
512.465	16796.59
512.667	16878.51
512.87	17210.28
513.072	17798.04
513.274	18252.69
513.477	18897.8
513.679	19094.41
513.881	19673.98
514.084	20067.19
514.286	20288.37
514.488	20665.2
514.69	21287.78
514.893	21515.11
515.095	21943.13
515.297	22649.68
515.499	23089.99
515.701	23253.83
515.904	23868.22
516.106	24265.53
516.308	24855.34
516.51	25725.73
516.712	25760.55
516.914	26243.87
517.116	26948.37
517.318	27214.6
517.52	27519.75
517.722	27839.23
517.925	28553.97
518.127	29338.35
518.329	30016.22
518.531	29641.45
518.733	30532.31
518.935	31138.51
519.136	31554.25
519.338	31773.38
519.54	32727.74
519.742	33059.51
519.944	33366.7
520.146	33768.1
520.348	34787.99
520.55	34611.87
520.752	35097.24
520.954	35984.01
521.155	35695.24
521.357	36291.2
521.559	37030.52
521.761	37468.78
521.963	37614.19
522.164	38072.93
522.366	37794.41
522.568	39074.39
522.77	38779.48
522.971	39379.54
523.173	38691.42
523.375	39729.74
523.576	39645.77
523.778	39264.85
523.98	40571.46
524.181	40417.86
524.383	40393.28
524.584	40860.22
524.786	40852.03
524.988	40575.55
525.189	41089.59
525.391	41142.84
525.592	40991.29
525.794	41073.21
525.995	40524.35
526.197	40876.6
526.398	40763.96
526.6	40774.2
526.801	40864.32
527.003	40849.98
527.204	40503.87
527.406	40127.05
527.607	39965.26
527.808	40163.91
528.01	39178.84
528.211	39688.78
528.412	39592.53
528.614	39221.84
528.815	38636.13
529.016	38767.2
529.218	38165.09
529.419	37501.55
529.62	37491.31
529.822	37155.44
530.023	37094
530.224	36500.09
530.425	36098.69
530.626	35723.91
530.828	35496.59
531.029	35588.75
531.23	34833.05
531.431	34341.53
531.632	34355.87
531.833	33737.38
532.035	33317.55
532.236	32592.57
532.437	32733.88
532.638	31736.52
532.839	31701.7
533.04	31632.07
533.241	31044.3
533.442	30982.87
533.643	30237.41
533.844	29584.1
534.045	29627.11
534.246	28758.77
534.447	28726
534.648	28175.1
534.849	27951.87
535.05	27093.77
535.251	27288.33
535.451	26639.12
535.652	26436.38
535.853	25991.97
536.054	25451.3
536.255	25457.45
536.456	24603.44
536.657	24812.34
536.857	24361.78
537.058	23735.1
537.259	23931.71
537.46	23485.25
537.66	22981.45
537.861	22698.83
538.062	22371.16
538.263	22270.81
538.463	21941.08
538.664	21576.55
538.865	21037.93
539.065	21142.38
539.266	20888.43
539.466	20837.23
539.667	20380.53
539.868	20022.14
540.068	19772.28
540.269	19676.03
540.469	19227.53
540.67	19368.84
540.87	18736.01
541.071	18686.86
541.271	18699.15
541.472	18531.22
541.672	17959.83
541.873	18039.7
542.073	17351.59
542.274	17634.21
542.474	17386.4
542.675	17009.58
542.875	16839.59
543.075	16540.59
543.276	16509.87
543.476	16481.2
543.676	16147.38
543.877	15713.21
544.077	15756.22
544.277	15733.69
544.478	15260.61
544.678	15582.14
544.878	15119.3
545.078	14801.86
545.279	14734.28
545.479	14459.85
545.679	14343.12
545.879	14160.85
546.079	14101.46
546.28	13894.61
546.48	13689.82
546.68	13986.77
546.88	13462.49
547.08	13298.66
547.28	13130.72
547.48	13091.81
547.68	12807.14
547.88	12712.94
548.081	12497.9
548.281	12235.76
548.481	12094.45
548.681	12252.14
548.881	11969.52
549.081	11686.9
549.28	11439.1
549.48	11299.84
549.68	11189.25
549.88	11146.24
550.08	11078.66
550.28	10863.62
550.48	10650.63
550.68	10509.32
550.88	10200.08
551.08	10109.97
551.279	10175.5
551.479	9960.47
551.679	9931.8
551.879	9565.21
552.079	9344.03
552.278	9419.8
552.478	9534.49
552.678	9161.76
552.878	9135.14
553.077	8754.21
553.277	8643.62
553.477	8594.47
553.676	8614.95
553.876	8293.42
554.076	8330.28
554.275	8139.82
554.475	7896.11
554.674	7808.05
554.874	7724.08
555.074	7502.9
555.273	7369.79
555.473	7365.69
555.672	7089.21
555.872	7126.08
556.071	7103.55
556.271	6984.77
556.47	6765.64
556.67	6478.92
556.869	6487.11
557.068	6485.06
557.268	6253.64
557.467	6315.08
557.667	6192.2
557.866	6208.59
558.065	5944.4
558.265	5672.02
558.464	5674.07
558.663	5694.55
558.863	5581.91
559.062	5647.44
559.261	5295.19
559.461	5454.94
559.66	5213.28
559.859	5235.8
560.058	5022.81
560.258	4940.9
560.457	4705.38
560.656	5033.05
560.855	4805.73
561.054	4703.33
561.253	4535.4
561.453	4641.89
561.652	4471.91
561.851	4525.16
562.05	4414.57
562.249	4238.44
562.448	4269.16
562.647	4187.24
562.846	4043.88
563.045	4254.83
563.244	4000.88
563.443	3974.25
563.642	3871.86
563.841	3824.75
564.04	3773.55
564.239	3765.36
564.438	3671.15
564.637	3472.5
564.836	3595.38
565.035	3384.44
565.234	3511.41
565.432	3210.36
565.631	3421.3
565.83	3216.51
566.029	3282.04
566.228	3259.51
566.427	3298.42
566.625	3036.28
566.824	3056.76
567.023	2907.26
567.222	2956.41
567.42	3050.62
567.619	2870.4
567.818	2954.37
568.016	2993.28
568.215	2835.58
568.414	2792.58
568.612	2684.03
568.811	2616.45
569.01	2651.27
569.208	2536.58
569.407	2514.05
569.605	2487.43
569.804	2333.83
570.002	2446.47
570.201	2425.99
570.4	2378.89
570.598	2368.65
570.797	2311.3
570.995	2112.65
571.193	2266.25
571.392	2176.14
571.59	2110.6
571.789	2106.51
571.987	2180.23
572.186	2094.22
572.384	2006.16
572.582	1957
572.781	2030.73
572.979	1819.79
573.177	2026.64
573.376	1854.61
573.574	1907.85
573.772	1821.84
573.971	1766.54
574.169	1739.92
574.367	1731.73
574.565	1803.41
574.763	1705.1
574.962	1698.96
575.16	1637.52
575.358	1621.14
575.556	1619.09
575.754	1655.95
575.952	1469.59
576.151	1596.56
576.349	1483.92
576.547	1395.86
576.745	1490.07
576.943	1457.3
577.141	1449.11
577.339	1324.18
577.537	1375.38
577.735	1414.29
577.933	1379.48
578.131	1195.16
578.329	1463.44
578.527	1219.74
578.725	1236.12
578.923	1115.29
579.121	1184.92
579.319	1027.23
579.516	1170.58
579.714	1389.72
579.912	1137.82
580.11	1039.51
580.308	1111.19
580.506	1025.18
580.704	914.59
580.901	1004.7
581.099	1225.88
581.297	1086.62
581.495	1006.75
581.692	1035.42
581.89	1121.43
582.088	920.73
582.285	918.68
582.483	896.16
582.681	1002.65
582.878	937.12
583.076	861.34
583.274	1021.08
583.471	1059.99
583.669	961.69
583.866	752.8
584.064	816.29
584.262	838.81
584.459	804
584.657	865.44
584.854	869.53
585.052	916.64
585.249	816.29
585.447	765.09
585.644	677.02
585.841	883.87
586.039	867.49
586.236	765.09
586.434	691.36
586.631	644.26
586.828	689.31
587.026	754.85
587.223	679.07
587.42	578.72
587.618	720.03
587.815	804
588.012	742.56
588.21	564.39
588.407	601.25
588.604	689.31
588.801	525.47
588.999	619.68
589.196	670.88
589.393	480.42
589.59	656.54
589.787	631.97
589.984	605.35
590.182	707.74
590.379	517.28
590.576	552.1
590.773	574.63
590.97	504.99
591.167	578.72
591.364	615.59
591.561	484.52
591.758	650.4
591.955	586.91
592.152	552.1
592.349	511.14
592.546	539.81
592.743	513.19
592.94	439.46
593.137	568.48
593.334	730.27
593.531	619.68
593.727	638.11
593.924	584.87
594.121	556.19
594.318	554.15
594.515	580.77
594.712	681.12
594.908	580.77
595.105	558.24
595.302	584.87
595.499	572.58
595.696	656.54
595.892	543.91
596.089	674.98
596.286	679.07
596.482	722.08
596.679	726.18
596.876	601.25
597.072	683.17
597.269	699.55
597.466	771.23
597.662	687.26
597.859	713.89
598.055	816.29
598.252	871.58
598.448	869.53
598.645	996.51
598.841	910.49
599.038	980.12
599.234	1066.14
599.431	1021.08
599.627	1014.94
599.824	1086.62
600.02	1021.08
600.217	1033.37
600.413	1223.83
600.609	1156.25
600.806	1492.12
601.002	1254.55
601.198	1207.45
601.395	1359
601.591	1424.53
601.787	1455.25
601.984	1606.8
602.18	1621.14
602.376	1651.86
602.572	1703.06
602.769	1840.27
602.965	1907.85
603.161	1944.72
603.357	1981.58
603.553	2196.62
603.75	2028.68
603.946	2176.14
604.142	2208.9
604.338	2415.75
604.534	2475.14
604.73	2425.99
604.926	2399.37
605.122	2610.31
605.318	2761.86
605.514	2800.77
605.71	2823.3
605.906	3062.91
606.102	3030.14
606.298	3220.6
606.494	3366.01
606.69	3435.64
606.886	3484.79
607.082	3505.27
607.278	3679.35
607.474	3748.98
607.67	3730.55
607.866	3859.57
608.062	4084.84
608.257	4086.89
608.453	4265.07
608.649	4387.94
608.845	4574.31
609.041	4502.63
609.236	4799.59
609.432	4867.17
609.628	4996.19
609.824	5225.56
610.019	5223.51
610.215	5366.87
610.411	5620.82
610.606	5657.68
610.802	5842
610.998	5958.74
611.193	6282.31
611.389	6087.76
611.584	6372.43
611.78	6622.28
611.976	6759.49
612.171	7259.2
612.367	7111.74
612.562	7310.4
612.758	7443.51
612.953	7543.86
613.149	7932.98
613.344	8070.19
613.539	8344.62
613.735	8471.59
613.93	8834.08
614.126	8932.39
614.321	9341.98
614.517	9425.95
614.712	9675.8
614.907	9946.13
615.103	10376.2
615.298	10525.71
615.493	10695.69
615.688	10843.14
615.884	11512.83
616.079	11449.34
616.274	11828.21
616.47	12030.96
616.665	12602.35
616.86	12622.83
617.055	12856.29
617.25	13401.05
617.445	13970.39
617.641	13986.77
617.836	14404.56
618.031	14422.99
618.226	15053.76
618.421	15252.42
618.616	15969.21
618.811	16004.02
619.006	16497.58
619.201	16710.57
619.396	17443.74
619.591	17388.45
619.786	18172.82
619.981	18090.9
620.176	18942.86
620.371	19012.49
620.566	19501.95
620.761	19985.27
620.956	20700.01
621.151	20677.49
621.346	21173.1
621.541	21162.86
621.735	21908.32
621.93	22010.71
622.125	22788.94
622.32	22522.71
622.515	23509.83
622.709	24048.44
622.904	24173.37
623.099	24650.55
623.294	25400.1
623.488	25287.46
623.683	26157.85
623.878	26374.94
624.072	27147.02
624.267	27423.5
624.462	27501.32
624.656	27937.54
624.851	28648.18
625.046	28879.6
625.24	29215.47
625.435	29418.22
625.629	30307.04
625.824	30327.52
626.018	31132.37
626.213	31257.29
626.407	31802.05
626.602	31677.13
626.796	32463.55
626.991	32703.16
627.185	32707.26
627.38	33211.06
627.574	33262.26
627.768	33458.86
627.963	33139.38
628.157	33544.87
628.352	34183.84
628.546	33452.72
628.74	34146.98
628.935	33307.31
629.129	33743.53
629.323	33272.49
629.517	33612.46
629.712	33170.1
629.906	33047.22
630.1	32635.58
630.294	32600.76
630.489	32056
630.683	32066.24
630.877	31009.49
631.071	30857.94
631.265	30659.29
631.459	29481.7
631.653	29348.59
631.848	28486.39
632.042	27427.59
632.236	27224.84
632.43	26045.21
632.624	25793.31
632.818	25092.91
633.012	24298.3
633.206	23589.7
633.4	22776.66
633.594	21891.93
633.788	21310.31
633.982	20552.56
634.176	19911.55
634.369	19121.03
634.563	18262.93
634.757	17560.48
634.951	17150.88
635.145	16456.62
635.339	15758.27
635.533	15156.16
635.726	14513.1
635.92	13599.71
636.114	13312.99
636.308	12874.73
636.501	12319.73
636.695	11858.93
636.889	11293.69
637.083	11054.08
637.276	10421.26
637.47	9753.62
637.664	9526.3
637.857	9229.34
638.051	8932.39
638.244	8418.35
638.438	8102.96
638.632	8039.47
638.825	7251
639.019	7375.93
639.212	7009.34
639.406	6685.76
639.599	6394.95
639.793	6112.33
639.986	5909.58
640.18	5854.29
640.373	5510.23
640.567	5241.95
640.76	5174.36
640.954	4936.8
641.147	4545.64
641.34	4652.13
641.534	4340.84
641.727	4242.54
641.92	4160.62
642.114	3853.42
642.307	3617.91
642.5	3767.41
642.694	3495.03
642.887	3415.16
643.08	3308.66
643.273	3083.39
643.467	3054.72
643.66	2874.49
643.853	2835.58
644.046	2716.8
644.239	2579.59
644.432	2462.85
644.626	2258.06
644.819	2311.3
645.012	2153.61
645.205	2178.19
645.398	2167.95
645.591	1922.19
645.784	1848.46
645.977	1737.87
646.17	1721.49
646.363	1647.76
646.556	1643.67
646.749	1485.97
646.942	1438.87
647.135	1465.49
647.328	1430.68
647.521	1461.4
647.714	1318.04
647.907	1268.89
648.099	1115.29
648.292	1197.21
648.485	1059.99
648.678	1051.8
648.871	1027.23
649.064	984.22
649.256	914.59
649.449	842.91
649.642	767.13
649.835	847.01
650.027	777.37
650.22	840.86
650.413	830.62
650.605	793.76
650.798	699.55
650.991	724.13
651.183	699.55
651.376	771.23
651.568	695.46
651.761	601.25
651.954	677.02
652.146	568.48
652.339	627.87
652.531	715.94
652.724	543.91
652.916	548
653.109	398.5
653.301	533.67
653.494	380.07
653.686	461.99
653.879	509.09
654.071	560.29
654.263	404.64
654.456	441.51
654.648	502.95
654.84	457.89
655.033	351.4
655.225	509.09
655.417	314.53
655.61	461.99
655.802	353.45
655.994	380.07
656.186	232.62
656.379	421.03
656.571	300.2
656.763	289.96
656.955	310.44
657.148	253.09
657.34	371.88
657.532	222.38
657.724	189.61
657.916	306.34
658.108	386.21
658.3	232.62
658.492	314.53
658.684	257.19
658.876	310.44
659.068	132.26
659.26	144.55
659.452	154.79
659.644	242.85
659.836	361.64
660.028	177.32
660.22	175.27
660.412	181.42
660.604	224.42
660.796	189.61
660.988	253.09
661.18	312.49
661.372	214.18
661.563	136.36
661.755	203.94
661.947	132.26
662.139	169.13
662.331	271.53
662.522	179.37
662.714	56.49
662.906	72.87
663.097	175.27
663.289	111.78
663.481	38.06
663.673	185.51
663.864	181.42
664.056	210.09
664.247	115.88
664.439	216.23
664.631	142.5
664.822	242.85
665.014	191.66
665.205	95.4
665.397	136.36
665.588	232.62
665.78	97.45
665.971	187.56
666.163	132.26
666.354	208.04
666.546	140.46
666.737	140.46
666.929	177.32
667.12	93.35
667.311	193.7
667.503	99.5
667.694	203.94
667.885	195.75
668.077	201.9
668.268	85.16
668.459	130.22
668.651	142.5
668.842	189.61
669.033	46.25
669.224	93.35
669.416	335.01
669.607	124.07
669.798	122.02
669.989	261.29
670.18	105.64
670.371	140.46
670.563	-33.62
670.754	216.23
670.945	154.79
671.136	212.14
671.327	56.49
671.518	265.38
671.709	275.62
671.9	222.38
672.091	128.17
672.282	220.33
672.473	138.41
672.664	68.78
672.855	195.75
673.046	226.47
673.237	203.94
673.428	146.6
673.619	210.09
673.809	162.98
674	244.9
674.191	216.23
674.382	199.85
674.573	230.57
674.764	181.42
674.954	277.67
675.145	87.21
675.336	68.78
675.527	154.79
675.717	156.84
675.908	97.45
676.099	148.65
676.289	179.37
676.48	76.97
676.671	218.28
676.861	183.46
677.052	195.75
677.243	158.89
677.433	146.6
677.624	216.23
677.814	246.95
678.005	177.32
678.195	302.25
678.386	76.97
678.576	124.07
678.767	70.83
678.957	167.08
679.148	259.24
679.338	224.42
679.529	273.57
679.719	177.32
679.909	349.35
680.1	236.71
680.29	154.79
680.481	7.34
680.671	238.76
680.861	171.18
681.052	212.14
681.242	148.65
681.432	183.46
681.622	140.46
681.813	111.78
682.003	171.18
682.193	146.6
682.383	199.85
682.573	199.85
682.764	169.13
682.954	253.09
683.144	345.25
683.334	212.14
683.524	216.23
683.714	259.24
683.904	185.51
684.094	199.85
684.284	294.05
684.474	410.79
684.664	281.77
684.854	220.33
685.044	230.57
685.234	242.85
685.424	240.81
685.614	191.66
685.804	296.1
685.994	341.16
686.184	232.62
686.374	294.05
686.564	216.23
686.753	285.86
686.943	197.8
687.133	271.53
687.323	187.56
687.513	205.99
687.702	275.62
687.892	107.69
688.082	289.96
688.272	332.97
688.461	183.46
688.651	314.53
688.841	232.62
689.03	195.75
689.22	281.77
689.41	238.76
689.599	230.57
689.789	205.99
689.979	341.16
690.168	189.61
690.358	306.34
690.547	179.37
690.737	218.28
690.926	238.76
691.116	281.77
691.305	279.72
691.495	271.53
691.684	158.89
691.874	265.38
692.063	220.33
692.252	181.42
692.442	234.66
692.631	199.85
692.82	210.09
693.01	251.05
693.199	154.79
693.388	205.99
693.578	197.8
693.767	298.15
693.956	246.95
694.146	189.61
694.335	218.28
694.524	208.04
694.713	326.82
694.902	226.47
695.092	251.05
695.281	249
695.47	246.95
695.659	234.66
695.848	244.9
696.037	140.46
696.226	267.43
696.415	251.05
696.604	285.86
696.793	265.38
696.982	152.74
697.171	337.06
697.36	214.18
697.549	197.8
697.738	50.35
697.927	191.66
698.116	195.75
698.305	249
698.494	228.52
698.683	251.05
698.872	347.3
699.061	208.04
699.25	222.38
699.438	242.85
699.627	224.42
699.816	355.49
700.005	142.5
700.193	115.88
700.382	261.29
700.571	197.8
700.76	257.19
700.948	261.29
701.137	224.42
701.326	183.46
701.514	234.66
701.703	289.96
701.892	300.2
702.08	337.06
702.269	201.9
702.457	177.32
702.646	214.18
702.834	183.46
703.023	355.49
703.212	253.09
703.4	210.09
703.589	210.09
703.777	144.55
703.965	128.17
704.154	154.79
704.342	70.83
704.531	179.37
704.719	195.75
704.907	259.24
705.096	56.49
705.284	175.27
705.472	197.8
705.661	283.81
705.849	251.05
706.037	283.81
706.226	220.33
706.414	142.5
706.602	97.45
706.79	189.61
706.979	144.55
707.167	193.7
707.355	56.49
707.543	261.29
707.731	222.38
707.919	175.27
708.107	269.48
708.296	162.98
708.484	56.49
708.672	244.9
708.86	283.81
709.048	167.08
709.236	128.17
709.424	230.57
709.612	261.29
709.8	99.5
709.988	205.99
710.176	257.19
710.364	236.71
710.551	228.52
710.739	175.27
710.927	136.36
711.115	134.31
711.303	175.27
711.491	332.97
711.679	167.08
711.866	275.62
712.054	195.75
712.242	249
712.43	222.38
712.617	232.62
712.805	281.77
712.993	249
713.181	173.22
713.368	226.47
713.556	201.9
713.744	205.99
713.931	453.8
714.119	275.62
714.306	134.31
714.494	140.46
714.682	222.38
714.869	179.37
715.057	195.75
715.244	101.55
715.432	193.7
715.619	165.03
715.807	214.18
715.994	251.05
716.182	251.05
716.369	275.62
716.556	216.23
716.744	185.51
716.931	277.67
717.119	228.52
717.306	244.9
717.493	259.24
717.681	222.38
717.868	193.7
718.055	246.95
718.242	181.42
718.43	261.29
718.617	283.81
718.804	255.14
718.991	308.39
719.179	283.81
719.366	316.58
719.553	253.09
719.74	226.47
719.927	259.24
720.114	261.29
720.301	103.59
720.488	119.98
720.676	224.42
720.863	312.49
721.05	310.44
721.237	289.96
721.424	265.38
721.611	238.76
721.798	218.28
721.985	142.5
722.172	255.14
722.358	185.51
722.545	267.43
722.732	238.76
722.919	425.12
723.106	351.4
723.293	193.7
723.48	255.14
723.667	228.52
723.853	324.77
724.04	265.38
724.227	355.49
724.414	302.25
724.6	236.71
724.787	390.31
724.974	396.45
725.161	210.09
725.347	226.47
725.534	265.38
725.72	234.66
725.907	384.16
726.094	371.88
726.28	298.15
726.467	275.62
726.653	265.38
726.84	382.12
727.027	439.46
727.213	281.77
727.4	355.49
727.586	365.73
727.773	271.53
727.959	189.61
728.145	328.87
728.332	277.67
728.518	216.23
728.705	341.16
728.891	310.44
729.077	359.59
729.264	242.85
729.45	224.42
729.636	322.73
729.823	283.81
730.009	378.02
730.195	306.34
730.382	318.63
730.568	222.38
730.754	335.01
730.94	300.2
731.126	384.16
731.313	306.34
731.499	330.92
731.685	396.45
731.871	433.32
732.057	326.82
732.243	433.32
732.429	369.83
732.615	406.69
732.801	363.69
732.987	361.64
733.173	263.33
733.359	337.06
733.545	388.26
733.731	330.92
733.917	492.71
734.103	445.6
734.289	369.83
734.475	337.06
734.661	461.99
734.847	369.83
735.033	306.34
735.219	384.16
735.404	388.26
735.59	320.68
735.776	240.81
735.962	310.44
736.148	369.83
736.333	412.84
736.519	388.26
736.705	398.5
736.89	378.02
737.076	371.88
737.262	292.01
737.447	365.73
737.633	378.02
737.819	414.88
738.004	375.97
738.19	316.58
738.375	400.55
738.561	380.07
738.747	365.73
738.932	310.44
739.118	457.89
739.303	427.17
739.489	457.89
739.674	351.4
739.859	335.01
740.045	414.88
740.23	369.83
740.416	205.99
740.601	404.64
740.786	332.97
740.972	277.67
741.157	343.21
741.342	353.45
741.528	246.95
741.713	418.98
741.898	343.21
742.084	375.97
742.269	359.59
742.454	406.69
742.639	441.51
742.824	398.5
743.01	441.51
743.195	496.8
743.38	414.88
743.565	378.02
743.75	445.6
743.935	427.17
744.12	367.78
744.305	232.62
744.49	306.34
744.675	361.64
744.86	361.64
745.045	353.45
745.23	369.83
745.415	332.97
745.6	449.7
745.785	246.95
745.97	375.97
746.155	427.17
746.34	414.88
746.525	388.26
746.71	443.56
746.895	326.82
747.079	246.95
747.264	363.69
747.449	363.69
747.634	431.27
747.819	347.3
748.003	300.2
748.188	253.09
748.373	359.59
748.557	437.41
748.742	375.97
748.927	304.29
749.111	275.62
749.296	375.97
749.481	363.69
749.665	339.11
749.85	285.86
750.034	365.73
750.219	263.33
750.404	302.25
750.588	451.75
750.773	302.25
750.957	386.21
751.141	244.9
751.326	347.3
751.51	214.18
751.695	296.1
751.879	285.86
752.064	457.89
752.248	249
752.432	449.7
752.617	330.92
752.801	431.27
752.985	300.2
753.17	371.88
753.354	308.39
753.538	316.58
753.722	226.47
753.907	287.91
754.091	195.75
754.275	439.46
754.459	156.84
754.643	189.61
754.828	318.63
755.012	326.82
755.196	234.66
755.38	361.64
755.564	220.33
755.748	228.52
755.932	337.06
756.116	285.86
756.3	322.73
756.484	232.62
756.668	269.48
756.852	101.55
757.036	201.9
757.22	355.49
757.404	146.6
757.588	220.33
757.772	316.58
757.956	257.19
758.14	302.25
758.323	197.8
758.507	267.43
758.691	216.23
758.875	220.33
759.059	306.34
759.242	193.7
759.426	232.62
759.61	296.1
759.794	205.99
759.977	249
760.161	378.02
760.345	269.48
760.528	238.76
760.712	189.61
760.895	230.57
761.079	232.62
761.263	173.22
761.446	230.57
761.63	232.62
761.813	375.97
761.997	79.02
762.18	119.98
762.364	259.24
762.547	144.55
762.731	113.83
762.914	197.8
763.098	187.56
763.281	251.05
763.464	160.94
763.648	173.22
763.831	91.31
764.015	31.91
764.198	255.14
764.381	150.7
764.564	175.27
764.748	199.85
764.931	171.18
765.114	97.45
765.297	214.18
765.481	91.31
765.664	111.78
765.847	117.93
766.03	226.47
766.213	66.73
766.397	150.7
766.58	109.74
766.763	226.47
766.946	62.63
767.129	156.84
767.312	93.35
767.495	199.85
767.678	122.02
767.861	144.55
768.044	246.95
768.227	140.46
768.41	210.09
768.593	185.51
768.776	185.51
768.959	130.22
769.142	244.9
769.324	203.94
769.507	87.21
769.69	93.35
769.873	109.74
770.056	279.72
770.239	42.15
770.421	228.52
770.604	158.89
770.787	232.62
770.97	107.69
771.152	154.79
771.335	150.7
771.518	68.78
771.7	126.12
771.883	208.04
772.066	115.88
772.248	160.94
772.431	185.51
772.613	201.9
772.796	146.6
772.978	119.98
773.161	271.53
773.343	-17.24
773.526	136.36
773.708	-52.05
773.891	17.58
774.073	46.25
774.256	142.5
774.438	191.66
774.621	60.59
774.803	171.18
774.985	142.5
775.168	148.65
775.35	122.02
775.532	171.18
775.715	103.59
775.897	162.98
776.079	85.16
776.261	167.08
776.444	117.93
776.626	74.92
776.808	181.42
776.99	81.07
777.173	105.64
777.355	68.78
777.537	146.6
777.719	185.51
777.901	70.83
778.083	68.78
778.265	19.63
778.447	68.78
778.629	48.3
778.811	97.45
778.993	83.11
779.175	228.52
779.357	27.82
779.539	46.25
779.721	103.59
779.903	173.22
780.085	111.78
780.267	97.45
780.449	72.87
780.631	152.74
780.812	138.41
780.994	124.07
781.176	130.22
781.358	107.69
781.54	179.37
781.721	148.65
781.903	132.26
782.085	60.59
782.267	183.46
782.448	66.73
782.63	60.59
782.812	115.88
782.993	160.94
783.175	107.69
783.357	-11.09
783.538	97.45
783.72	64.68
783.901	126.12
784.083	154.79
784.264	58.54
784.446	-7
784.627	97.45
784.809	99.5
784.99	46.25
785.172	150.7
785.353	50.35
785.535	119.98
785.716	105.64
785.897	-27.48
786.079	60.59
786.26	23.72
786.441	52.39
786.623	-82.77
786.804	15.53
786.985	60.59
787.167	48.3
787.348	46.25
787.529	11.43
787.71	167.08
787.891	126.12
788.073	13.48
788.254	13.48
788.435	152.74
788.616	89.26
788.797	11.43
788.978	91.31
789.159	36.01
789.34	13.48
789.522	85.16
789.703	44.2
789.884	111.78
790.065	44.2
790.246	154.79
790.427	3.24
790.607	179.37
790.788	119.98
790.969	21.67
791.15	109.74
791.331	-7
791.512	38.06
791.693	44.2
791.874	-29.52
792.054	246.95
792.235	173.22
792.416	-31.57
792.597	-13.14
792.778	31.91
792.958	105.64
793.139	138.41
793.32	97.45
793.5	11.43
793.681	99.5
793.862	115.88
794.042	42.15
794.223	-45.91
794.404	93.35
794.584	-70.48
794.765	60.59
794.945	107.69
795.126	138.41
795.306	146.6
795.487	76.97
795.667	25.77
795.848	79.02
796.028	64.68
796.209	58.54
796.389	111.78
796.57	15.53
796.75	15.53
796.93	19.63
797.111	-4.95
797.291	3.24
797.471	169.13
797.652	17.58
797.832	-52.05
798.012	66.73
798.192	-82.77
798.373	-45.91
798.553	-19.29
798.733	124.07
798.913	-54.1
799.093	19.63
799.274	-54.1
799.454	91.31
799.634	40.11
799.814	76.97
799.994	19.63
800.174	31.91
800.354	44.2
800.534	-82.77
800.714	-37.72
800.894	-107.35
801.074	-74.58
801.254	-19.29
801.434	91.31
801.614	7.34
801.794	46.25
801.974	1893.52
802.154	-82.77
802.334	183.46
802.514	29.87
802.693	-9.05
802.873	70.83
803.053	179.37
803.233	99.5
803.413	97.45
803.592	7.34
803.772	-17.24
803.952	19.63
804.131	-125.78
804.311	132.26
804.491	134.31
804.67	-35.67
804.85	-19.29
805.03	109.74
805.209	64.68
805.389	48.3
805.568	7.34
805.748	52.39
805.928	136.36
806.107	74.92
806.287	72.87
806.466	48.3
806.646	-7
806.825	3.24
807.004	-11.09
807.184	11.43
807.363	48.3
807.543	79.02
807.722	-15.19
807.901	83.11
808.081	-0.85
808.26	-86.87
808.439	11.43
808.619	29.87
808.798	44.2
808.977	70.83
809.156	50.35
809.336	13.48
809.515	81.07
809.694	-7
809.873	-52.05
810.052	44.2
810.231	81.07
810.411	9.39
810.59	109.74
810.769	60.59
810.948	101.55
811.127	-15.19
811.306	-21.33
811.485	38.06
811.664	181.42
811.843	42.15
812.022	15.53
812.201	48.3
812.38	13.48
812.559	46.25
812.737	58.54
812.916	-97.11
813.095	-33.62
813.274	83.11
813.453	1.19
813.632	25.77
813.811	58.54
813.989	-37.72
814.168	68.78
814.347	-9.05
814.526	36.01
814.704	111.78
814.883	93.35
815.062	40.11
815.24	46.25
815.419	-47.96
815.598	99.5
815.776	-146.26
815.955	29.87
816.133	-158.55
816.312	38.06
816.49	72.87
816.669	38.06
816.847	1.19
817.026	33.96
817.204	-43.86
817.383	33.96
817.561	-88.92
817.74	25.77
817.918	117.93
818.097	-13.14
818.275	-11.09
818.453	56.49
818.632	31.91
818.81	64.68
818.988	36.01
819.167	91.31
819.345	-11.09
819.523	-11.09
819.701	44.2
819.879	36.01
820.058	-17.24
820.236	21.67
820.414	48.3
820.592	-2.9
820.77	7.34
820.948	23.72
821.127	48.3
821.305	15.53
821.483	13.48
821.661	81.07
821.839	107.69
822.017	-9.05
822.195	17.58
822.373	97.45
822.551	31.91
822.729	117.93
822.907	38.06
823.085	46.25
823.262	54.44
823.44	-101.2
823.618	23.72
823.796	70.83
823.974	-52.05
824.152	-2.9
824.329	-9.05
824.507	31.91
824.685	105.64
824.863	-62.29
825.04	-21.33
825.218	31.91
825.396	48.3
825.574	1.19
825.751	-21.33
825.929	21.67
826.107	-23.38
826.284	-64.34
826.462	48.3
826.639	-39.76
826.817	-76.63
826.994	5.29
827.172	11.43
827.349	105.64
827.527	40.11
827.704	-29.52
827.882	64.68
828.059	9.39
828.237	-68.44
828.414	115.88
828.591	-82.77
828.769	31.91
828.946	-62.29
829.124	58.54
829.301	95.4
829.478	-62.29
829.655	23.72
829.833	19.63
830.01	-68.44
830.187	58.54
830.364	72.87
830.542	-35.67
830.719	74.92
830.896	46.25
831.073	48.3
831.25	33.96
831.427	42.15
831.604	5.29
831.782	-2.9
831.959	74.92
832.136	9.39
832.313	-9.05
832.49	-50
832.667	17.58
832.844	-31.57
833.021	60.59
833.198	-19.29
833.374	-11.09
833.551	33.96
833.728	46.25
833.905	113.83
834.082	-37.72
834.259	68.78
834.436	66.73
834.612	-78.68
834.789	117.93
834.966	-15.19
835.143	70.83
835.319	-58.2
835.496	25.77
835.673	-29.52
835.85	109.74
836.026	83.11
836.203	33.96
836.38	-2.9
836.556	-60.24
836.733	1.19
836.909	158.89
837.086	21.67
837.262	-66.39
837.439	3.24
837.616	-41.81
837.792	33.96
837.968	68.78
838.145	-88.92
838.321	23.72
838.498	40.11
838.674	-2.9
838.851	27.82
839.027	-7
839.203	-15.19
839.38	52.39
839.556	-113.49
839.732	68.78
839.909	68.78
840.085	68.78
840.261	-15.19
840.437	66.73
840.614	-62.29
840.79	13.48
840.966	19.63
841.142	76.97
841.318	7.34
841.494	89.26
841.671	81.07
841.847	-50
842.023	-37.72
842.199	3.24
842.375	66.73
842.551	-115.54
842.727	5.29
842.903	109.74
843.079	-72.53
843.255	156.84
843.431	9.39
843.607	87.21
843.783	-166.74
843.959	89.26
844.134	-47.96
844.31	113.83
844.486	-50
844.662	-0.85
844.838	17.58
845.013	1.19
845.189	91.31
845.365	-21.33
845.541	79.02
845.716	31.91
845.892	95.4
846.068	-9.05
846.244	-41.81
846.419	72.87
846.595	-4.95
846.77	-47.96
846.946	56.49
847.122	-11.09
847.297	-93.01
847.473	138.41
847.648	-45.91
847.824	-7
847.999	-90.96
848.175	3.24
848.35	-15.19
848.526	76.97
848.701	9.39
848.876	97.45
849.052	56.49
849.227	-27.48
849.403	68.78
849.578	21.67
849.753	46.25
849.929	36.01
850.104	-86.87
850.279	-27.48
850.454	60.59
850.63	74.92
850.805	-4.95
850.98	-13.14
851.155	-56.15
851.33	85.16
851.505	-101.2
851.681	167.08
851.856	-21.33
852.031	103.59
852.206	105.64
852.381	-78.68
852.556	-33.62
852.731	-2.9
852.906	62.63
853.081	3.24
853.256	93.35
853.431	-0.85
853.606	-45.91
853.781	-43.86
853.956	-131.92
854.131	134.31
854.305	-86.87
854.48	-13.14
854.655	68.78
854.83	-17.24
855.005	13.48
855.18	38.06
855.354	27.82
855.529	13.48
855.704	66.73
855.879	66.73
856.053	-66.39
856.228	42.15
856.403	-2.9
856.577	79.02
856.752	-95.06
856.926	-7
857.101	36.01
857.276	-33.62
857.45	-56.15
857.625	85.16
857.799	42.15
857.974	-15.19
858.148	-136.02
858.323	21.67
858.497	38.06
858.672	-11.09
858.846	-101.2
859.02	191.66
859.195	-107.35
859.369	-52.05
859.543	11.43
859.718	-27.48
859.892	-21.33
860.066	15.53
860.241	-41.81
860.415	-84.82
860.589	-13.14
860.763	-47.96
860.938	-13.14
861.112	79.02
861.286	-29.52
861.46	44.2
861.634	60.59
861.808	81.07
861.982	-58.2
862.157	-35.67
862.331	-64.34
862.505	-140.12
862.679	-97.11
862.853	-23.38
863.027	-4.95
863.201	124.07
863.375	-115.54
863.549	17.58
863.722	54.44
863.896	44.2
864.07	-19.29
864.244	-27.48
864.418	54.44
864.592	-23.38
864.766	85.16
864.939	25.77
865.113	-2.9
865.287	64.68
865.461	-93.01
865.634	-21.33
865.808	-29.52
865.982	-113.49
866.156	33.96
866.329	-27.48
866.503	48.3
866.676	126.12
866.85	50.35
867.024	1.19
867.197	36.01
867.371	68.78
867.544	27.82
867.718	-31.57
867.891	210.09
868.065	-74.58
868.238	-31.57
868.412	119.98
868.585	-37.72
868.759	-78.68
868.932	40.11
869.105	-7
869.279	36.01
869.452	7.34
869.625	19.63
869.799	68.78
869.972	17.58
870.145	-52.05
870.319	107.69
870.492	19.63
870.665	-95.06
870.838	-60.24
871.011	-129.88
871.185	-21.33
871.358	-33.62
871.531	21.67
871.704	-15.19
871.877	66.73
872.05	-66.39
872.223	33.96
872.396	109.74
872.569	-15.19
872.742	-140.12
872.915	56.49
873.088	-78.68
873.261	-29.52
873.434	7.34
873.607	1.19
873.78	52.39
873.953	-76.63
874.126	-50
874.299	52.39
874.471	-86.87
874.644	-68.44
874.817	44.2
874.99	148.65
875.163	-54.1
875.335	-15.19
875.508	25.77
875.681	50.35
875.853	-33.62
876.026	-39.76
876.199	74.92
876.371	42.15
876.544	23.72
876.717	21.67
876.889	-21.33
877.062	19.63
877.234	-88.92
877.407	-31.57
877.579	5.29
877.752	27.82
877.924	23.72
878.097	-58.2
878.269	-9.05
878.442	13.48
878.614	99.5
878.786	7.34
878.959	-41.81
879.131	17.58
879.303	-72.53
879.476	-23.38
879.648	64.68
879.82	72.87
879.993	-58.2
880.165	-39.76
880.337	-93.01
880.509	42.15
880.681	-56.15
880.854	13.48
881.026	56.49
881.198	130.22
881.37	60.59
881.542	3.24
881.714	-33.62
881.886	-88.92
882.058	-50
882.23	19.63
882.402	-25.43
882.574	25.77
882.746	56.49
882.918	162.98
883.09	21.67
883.262	31.91
883.434	33.96
883.606	-41.81
883.778	-29.52
883.95	85.16
884.122	9.39
884.293	68.78
884.465	-29.52
884.637	85.16
884.809	-103.25
884.98	15.53
885.152	23.72
885.324	54.44
885.496	-88.92
885.667	-52.05
885.839	-50
886.011	97.45
886.182	44.2
886.354	119.98
886.525	38.06
886.697	-15.19
886.869	-138.07
887.04	-21.33
887.212	70.83
887.383	130.22
887.555	-29.52
887.726	-56.15
887.897	3.24
888.069	-11.09
888.24	60.59
888.412	-25.43
888.583	1.19
888.754	-0.85
888.926	-56.15
889.097	-119.64
889.268	13.48
889.44	19.63
889.611	-39.76
889.782	-62.29
889.953	-66.39
890.125	70.83
890.296	-82.77
890.467	-39.76
890.638	-105.3
890.809	-23.38
890.98	19.63
891.151	-11.09
891.323	48.3
891.494	31.91
891.665	-23.38
891.836	-2.9
892.007	1.19
892.178	72.87
892.349	23.72
892.52	-7
892.691	-43.86
892.862	-15.19
893.032	-74.58
893.203	-60.24
893.374	-74.58
893.545	99.5
893.716	-41.81
893.887	1.19
894.057	-50
894.228	-0.85
894.399	-15.19
894.57	132.26
894.74	13.48
894.911	29.87
895.082	3.24
895.253	-64.34
895.423	-23.38
895.594	62.63
895.764	23.72
895.935	-72.53
896.106	66.73
896.276	-25.43
896.447	44.2
896.617	-107.35
896.788	-70.48
896.958	31.91
897.129	-0.85
897.299	-2.9
897.47	87.21
897.64	-2.9
897.81	31.91
897.981	50.35
898.151	-33.62
898.322	64.68
898.492	68.78
898.662	-47.96
898.832	-19.29
899.003	-0.85
899.173	-4.95
899.343	-47.96
899.513	-31.57
