Data from USB4F104151__73__10-32-20-549.txt Node

Date: Wed Feb 26 10:32:20 EST 2025
User: louis
Spectrometer: USB4F10415
Trigger mode: 4
Integration Time (sec): 1.000000E-1
Scans to average: 1
Electric dark correction enabled: true
Nonlinearity correction enabled: false
Boxcar width: 0
XAxis mode: Wavelengths
Number of Pixels in Spectrum: 3648
>>>>>Begin Spectral Data<<<<<
178.204	-453.11
178.424	-453.11
178.644	-453.11
178.864	-399.87
179.084	-301.56
179.304	-16.9
179.524	30.21
179.744	22.02
179.964	112.13
180.184	13.82
180.404	77.31
180.624	-12.8
180.844	-107.01
181.064	-84.48
181.283	54.78
181.503	-64
181.723	-25.09
181.943	-84.48
182.163	230.91
182.383	5.63
182.602	87.55
182.822	243.2
183.042	116.22
183.262	-18.94
183.482	93.69
183.701	85.5
183.921	126.46
184.141	28.16
184.361	146.94
184.58	89.6
184.8	85.5
185.02	22.02
185.239	48.64
185.459	50.69
185.679	206.33
185.898	-18.94
186.118	67.07
186.338	165.37
186.557	146.94
186.777	40.45
186.997	58.88
187.216	105.98
187.436	183.81
187.655	85.5
187.875	40.45
188.095	60.93
188.314	132.61
188.534	200.19
188.753	-25.09
188.973	71.17
189.192	189.95
189.412	62.98
189.631	112.13
189.851	99.84
190.07	212.48
190.29	-41.47
190.509	-0.51
190.729	32.26
190.948	196.09
191.168	261.63
191.387	157.18
191.607	24.06
191.826	99.84
192.045	52.74
192.265	-59.9
192.484	97.79
192.704	7.68
192.923	1.54
193.142	140.8
193.362	126.46
193.581	167.42
193.8	93.69
194.02	202.24
194.239	56.83
194.458	161.28
194.678	3.58
194.897	40.45
195.116	108.03
195.335	67.07
195.555	75.26
195.774	24.06
195.993	95.74
196.212	71.17
196.432	89.6
196.651	17.92
196.87	105.98
197.089	323.07
197.308	122.37
197.528	136.7
197.747	-0.51
197.966	116.22
198.185	167.42
198.404	118.27
198.623	157.18
198.842	165.37
199.062	71.17
199.281	237.05
199.5	60.93
199.719	138.75
199.938	142.85
200.157	77.31
200.376	132.61
200.595	134.65
200.814	120.32
201.033	44.54
201.252	167.42
201.471	52.74
201.69	206.33
201.909	93.69
202.128	130.56
202.347	48.64
202.566	46.59
202.785	-6.66
203.004	36.35
203.223	239.1
203.442	3.58
203.661	-18.94
203.879	65.02
204.098	103.93
204.317	-14.85
204.536	151.04
204.755	132.61
204.974	146.94
205.193	93.69
205.411	206.33
205.63	108.03
205.849	108.03
206.068	19.97
206.287	46.59
206.505	151.04
206.724	-8.7
206.943	46.59
207.162	15.87
207.381	95.74
207.599	77.31
207.818	110.08
208.037	-57.86
208.255	42.5
208.474	159.23
208.693	-35.33
208.911	108.03
209.13	83.45
209.349	93.69
209.567	56.83
209.786	118.27
210.005	83.45
210.223	136.7
210.442	-72.19
210.661	58.88
210.879	108.03
211.098	71.17
211.316	97.79
211.535	136.7
211.753	56.83
211.972	118.27
212.191	87.55
212.409	91.65
212.628	140.8
212.846	34.3
213.065	73.21
213.283	83.45
213.502	46.59
213.72	93.69
213.938	13.82
214.157	50.69
214.375	142.85
214.594	130.56
214.812	165.37
215.031	30.21
215.249	54.78
215.467	85.5
215.686	122.37
215.904	169.47
216.122	136.7
216.341	175.61
216.559	77.31
216.778	198.14
216.996	220.67
217.214	101.89
217.432	-14.85
217.651	22.02
217.869	48.64
218.087	118.27
218.306	-2.56
218.524	142.85
218.742	56.83
218.96	83.45
219.179	101.89
219.397	11.78
219.615	245.24
219.833	97.79
220.051	34.3
220.27	202.24
220.488	124.41
220.706	124.41
220.924	17.92
221.142	71.17
221.36	73.21
221.578	71.17
221.796	38.4
222.015	105.98
222.233	153.09
222.451	192
222.669	-29.18
222.887	73.21
223.105	13.82
223.323	34.3
223.541	19.97
223.759	165.37
223.977	120.32
224.195	288.25
224.413	132.61
224.631	48.64
224.849	148.99
225.067	261.63
225.285	83.45
225.503	28.16
225.721	26.11
225.939	40.45
226.157	161.28
226.375	251.39
226.592	17.92
226.81	65.02
227.028	210.43
227.246	110.08
227.464	54.78
227.682	89.6
227.9	42.5
228.117	83.45
228.335	65.02
228.553	65.02
228.771	177.66
228.989	71.17
229.206	134.65
229.424	50.69
229.642	75.26
229.86	-16.9
230.077	148.99
230.295	50.69
230.513	124.41
230.731	140.8
230.948	169.47
231.166	110.08
231.384	73.21
231.601	11.78
231.819	198.14
232.037	24.06
232.254	15.87
232.472	50.69
232.689	-20.99
232.907	110.08
233.125	-33.28
233.342	1.54
233.56	11.78
233.777	52.74
233.995	46.59
234.213	161.28
234.43	259.58
234.648	81.41
234.865	5.63
235.083	144.89
235.3	89.6
235.518	163.33
235.735	159.23
235.953	130.56
236.17	13.82
236.388	-31.23
236.605	93.69
236.822	124.41
237.04	112.13
237.257	132.61
237.475	-47.62
237.692	-31.23
237.909	151.04
238.127	40.45
238.344	134.65
238.562	62.98
238.779	-43.52
238.996	3.58
239.214	95.74
239.431	153.09
239.648	71.17
239.865	130.56
240.083	116.22
240.3	83.45
240.517	26.11
240.735	42.5
240.952	171.52
241.169	87.55
241.386	269.82
241.603	-0.51
241.821	-31.23
242.038	87.55
242.255	122.37
242.472	30.21
242.689	91.65
242.907	56.83
243.124	77.31
243.341	114.17
243.558	-51.71
243.775	-23.04
243.992	-80.38
244.209	126.46
244.426	163.33
244.643	71.17
244.86	79.36
245.078	157.18
245.295	62.98
245.512	77.31
245.729	11.78
245.946	79.36
246.163	134.65
246.38	11.78
246.597	151.04
246.814	15.87
247.031	56.83
247.248	52.74
247.464	148.99
247.681	103.93
247.898	67.07
248.115	124.41
248.332	32.26
248.549	132.61
248.766	177.66
248.983	171.52
249.2	67.07
249.417	146.94
249.633	75.26
249.85	116.22
250.067	17.92
250.284	56.83
250.501	126.46
250.717	155.13
250.934	11.78
251.151	56.83
251.368	3.58
251.585	81.41
251.801	89.6
252.018	-37.38
252.235	126.46
252.451	-43.52
252.668	44.54
252.885	140.8
253.102	87.55
253.318	-0.51
253.535	28.16
253.752	11.78
253.968	-4.61
254.185	-31.23
254.401	153.09
254.618	75.26
254.835	50.69
255.051	181.76
255.268	67.07
255.484	183.81
255.701	50.69
255.917	65.02
256.134	-74.24
256.351	79.36
256.567	-25.09
256.784	26.11
257	-10.75
257.217	183.81
257.433	128.51
257.65	26.11
257.866	148.99
258.082	44.54
258.299	34.3
258.515	67.07
258.732	-0.51
258.948	30.21
259.165	46.59
259.381	32.26
259.597	93.69
259.814	46.59
260.03	15.87
260.246	67.07
260.463	116.22
260.679	165.37
260.895	38.4
261.112	34.3
261.328	34.3
261.544	7.68
261.761	216.57
261.977	-35.33
262.193	5.63
262.409	91.65
262.626	144.89
262.842	103.93
263.058	32.26
263.274	157.18
263.49	155.13
263.707	155.13
263.923	87.55
264.139	-23.04
264.355	77.31
264.571	171.52
264.787	112.13
265.004	124.41
265.22	89.6
265.436	56.83
265.652	97.79
265.868	95.74
266.084	56.83
266.3	91.65
266.516	-27.14
266.732	93.69
266.948	138.75
267.164	48.64
267.38	138.75
267.596	36.35
267.812	212.48
268.028	58.88
268.244	-45.57
268.46	128.51
268.676	71.17
268.892	108.03
269.108	11.78
269.324	1.54
269.54	30.21
269.756	110.08
269.972	11.78
270.188	26.11
270.403	-20.99
270.619	17.92
270.835	108.03
271.051	97.79
271.267	30.21
271.483	56.83
271.698	187.9
271.914	192
272.13	105.98
272.346	89.6
272.562	157.18
272.777	38.4
272.993	40.45
273.209	83.45
273.425	40.45
273.64	52.74
273.856	69.12
274.072	-10.75
274.287	-23.04
274.503	142.85
274.719	144.89
274.934	-47.62
275.15	32.26
275.366	46.59
275.581	5.63
275.797	34.3
276.012	177.66
276.228	79.36
276.444	108.03
276.659	216.57
276.875	44.54
277.09	40.45
277.306	108.03
277.521	140.8
277.737	112.13
277.952	136.7
278.168	32.26
278.383	95.74
278.599	42.5
278.814	34.3
279.03	46.59
279.245	194.05
279.461	132.61
279.676	142.85
279.892	58.88
280.107	28.16
280.322	17.92
280.538	93.69
280.753	171.52
280.969	89.6
281.184	116.22
281.399	134.65
281.615	73.21
281.83	136.7
282.045	-20.99
282.26	13.82
282.476	58.88
282.691	95.74
282.906	17.92
283.122	169.47
283.337	13.82
283.552	130.56
283.767	69.12
283.983	93.69
284.198	114.17
284.413	124.41
284.628	28.16
284.843	177.66
285.058	50.69
285.274	11.78
285.489	-12.8
285.704	226.81
285.919	71.17
286.134	85.5
286.349	13.82
286.564	89.6
286.779	122.37
286.995	-51.71
287.21	-43.52
287.425	83.45
287.64	40.45
287.855	95.74
288.07	-14.85
288.285	116.22
288.5	56.83
288.715	159.23
288.93	71.17
289.145	50.69
289.36	161.28
289.575	79.36
289.79	161.28
290.004	-2.56
290.219	81.41
290.434	89.6
290.649	32.26
290.864	83.45
291.079	11.78
291.294	62.98
291.509	105.98
291.724	79.36
291.938	34.3
292.153	101.89
292.368	32.26
292.583	124.41
292.798	142.85
293.012	116.22
293.227	120.32
293.442	28.16
293.657	142.85
293.871	114.17
294.086	140.8
294.301	155.13
294.516	118.27
294.73	-8.7
294.945	73.21
295.16	42.5
295.374	159.23
295.589	101.89
295.804	22.02
296.018	65.02
296.233	210.43
296.447	173.57
296.662	71.17
296.877	116.22
297.091	157.18
297.306	140.8
297.52	13.82
297.735	116.22
297.949	65.02
298.164	24.06
298.378	120.32
298.593	-6.66
298.807	-27.14
299.022	87.55
299.236	52.74
299.451	11.78
299.665	71.17
299.88	-16.9
300.094	73.21
300.309	11.78
300.523	56.83
300.737	5.63
300.952	159.23
301.166	42.5
301.381	-2.56
301.595	-0.51
301.809	52.74
302.024	-16.9
302.238	-14.85
302.452	153.09
302.667	110.08
302.881	185.85
303.095	99.84
303.309	50.69
303.524	9.73
303.738	116.22
303.952	-12.8
304.166	151.04
304.381	-135.68
304.595	245.24
304.809	30.21
305.023	24.06
305.237	-6.66
305.452	65.02
305.666	93.69
305.88	148.99
306.094	146.94
306.308	83.45
306.522	118.27
306.736	108.03
306.95	146.94
307.164	5.63
307.379	87.55
307.593	140.8
307.807	177.66
308.021	130.56
308.235	95.74
308.449	34.3
308.663	34.3
308.877	202.24
309.091	138.75
309.305	194.05
309.519	-43.52
309.733	214.52
309.947	3.58
310.161	118.27
310.374	198.14
310.588	151.04
310.802	19.97
311.016	65.02
311.23	118.27
311.444	15.87
311.658	7.68
311.872	175.61
312.085	204.28
312.299	169.47
312.513	206.33
312.727	81.41
312.941	17.92
313.154	105.98
313.368	-64
313.582	83.45
313.796	85.5
314.009	101.89
314.223	187.9
314.437	128.51
314.651	91.65
314.864	30.21
315.078	24.06
315.292	-12.8
315.505	-25.09
315.719	60.93
315.933	155.13
316.146	38.4
316.36	15.87
316.573	136.7
316.787	26.11
317.001	138.75
317.214	-6.66
317.428	110.08
317.641	11.78
317.855	3.58
318.068	50.69
318.282	34.3
318.495	204.28
318.709	54.78
318.922	26.11
319.136	169.47
319.349	148.99
319.563	-14.85
319.776	93.69
319.99	-4.61
320.203	99.84
320.417	65.02
320.63	101.89
320.843	243.2
321.057	183.81
321.27	7.68
321.483	87.55
321.697	161.28
321.91	144.89
322.124	22.02
322.337	124.41
322.55	-2.56
322.763	97.79
322.977	-20.99
323.19	83.45
323.403	58.88
323.617	136.7
323.83	132.61
324.043	1.54
324.256	81.41
324.469	-31.23
324.683	161.28
324.896	75.26
325.109	58.88
325.322	-64
325.535	108.03
325.748	77.31
325.962	83.45
326.175	73.21
326.388	167.42
326.601	144.89
326.814	-12.8
327.027	58.88
327.24	79.36
327.453	-10.75
327.666	46.59
327.879	132.61
328.092	101.89
328.305	97.79
328.518	5.63
328.731	19.97
328.944	9.73
329.157	38.4
329.37	56.83
329.583	208.38
329.796	196.09
330.009	17.92
330.222	124.41
330.435	136.7
330.648	155.13
330.861	99.84
331.073	73.21
331.286	140.8
331.499	79.36
331.712	-2.56
331.925	38.4
332.138	91.65
332.35	120.32
332.563	62.98
332.776	198.14
332.989	50.69
333.202	11.78
333.414	50.69
333.627	91.65
333.84	62.98
334.053	101.89
334.265	42.5
334.478	81.41
334.691	75.26
334.903	108.03
335.116	-29.18
335.329	67.07
335.541	65.02
335.754	97.79
335.966	22.02
336.179	38.4
336.392	95.74
336.604	-12.8
336.817	173.57
337.029	67.07
337.242	62.98
337.454	132.61
337.667	67.07
337.88	146.94
338.092	62.98
338.305	124.41
338.517	83.45
338.729	151.04
338.942	81.41
339.154	-23.04
339.367	-6.66
339.579	60.93
339.792	1.54
340.004	130.56
340.217	95.74
340.429	101.89
340.641	26.11
340.854	54.78
341.066	56.83
341.278	134.65
341.491	142.85
341.703	91.65
341.915	75.26
342.128	181.76
342.34	81.41
342.552	-35.33
342.764	42.5
342.977	48.64
343.189	50.69
343.401	157.18
343.613	7.68
343.826	13.82
344.038	73.21
344.25	101.89
344.462	5.63
344.674	79.36
344.886	42.5
345.099	97.79
345.311	132.61
345.523	-64
345.735	-29.18
345.947	67.07
346.159	32.26
346.371	79.36
346.583	87.55
346.795	175.61
347.007	22.02
347.219	179.71
347.431	93.69
347.643	189.95
347.855	1.54
348.067	163.33
348.279	24.06
348.491	124.41
348.703	153.09
348.915	85.5
349.127	-4.61
349.339	148.99
349.551	-25.09
349.763	241.15
349.975	60.93
350.187	177.66
350.399	204.28
350.61	83.45
350.822	48.64
351.034	56.83
351.246	89.6
351.458	128.51
351.669	151.04
351.881	69.12
352.093	128.51
352.305	179.71
352.517	56.83
352.728	128.51
352.94	142.85
353.152	105.98
353.363	-20.99
353.575	40.45
353.787	202.24
353.999	112.13
354.21	237.05
354.422	38.4
354.633	46.59
354.845	46.59
355.057	118.27
355.268	83.45
355.48	181.76
355.692	75.26
355.903	56.83
356.115	60.93
356.326	-61.95
356.538	175.61
356.749	155.13
356.961	259.58
357.172	105.98
357.384	5.63
357.595	251.39
357.807	-68.09
358.018	54.78
358.23	38.4
358.441	269.82
358.653	65.02
358.864	5.63
359.075	87.55
359.287	132.61
359.498	181.76
359.709	169.47
359.921	5.63
360.132	65.02
360.344	116.22
360.555	34.3
360.766	99.84
360.977	91.65
361.189	114.17
361.4	56.83
361.611	99.84
361.823	146.94
362.034	93.69
362.245	-68.09
362.456	13.82
362.667	97.79
362.879	22.02
363.09	128.51
363.301	50.69
363.512	38.4
363.723	71.17
363.935	58.88
364.146	132.61
364.357	-39.42
364.568	44.54
364.779	-61.95
364.99	253.44
365.201	-55.81
365.412	110.08
365.623	-55.81
365.834	89.6
366.045	30.21
366.256	138.75
366.467	44.54
366.678	67.07
366.889	62.98
367.1	58.88
367.311	175.61
367.522	-49.66
367.733	87.55
367.944	120.32
368.155	67.07
368.366	110.08
368.577	120.32
368.788	69.12
368.999	40.45
369.209	81.41
369.42	183.81
369.631	267.77
369.842	110.08
370.053	48.64
370.264	120.32
370.474	-12.8
370.685	108.03
370.896	85.5
371.107	165.37
371.317	105.98
371.528	93.69
371.739	167.42
371.95	91.65
372.16	105.98
372.371	48.64
372.582	103.93
372.792	83.45
373.003	58.88
373.214	108.03
373.424	110.08
373.635	-43.52
373.846	179.71
374.056	71.17
374.267	81.41
374.477	101.89
374.688	-66.05
374.898	157.18
375.109	171.52
375.319	101.89
375.53	153.09
375.74	120.32
375.951	9.73
376.161	38.4
376.372	130.56
376.582	71.17
376.793	30.21
377.003	89.6
377.214	30.21
377.424	159.23
377.635	95.74
377.845	13.82
378.055	126.46
378.266	-45.57
378.476	73.21
378.686	128.51
378.897	95.74
379.107	155.13
379.317	32.26
379.528	75.26
379.738	155.13
379.948	24.06
380.158	148.99
380.369	116.22
380.579	120.32
380.789	67.07
380.999	114.17
381.21	130.56
381.42	200.19
381.63	93.69
381.84	99.84
382.05	138.75
382.261	132.61
382.471	153.09
382.681	-6.66
382.891	153.09
383.101	46.59
383.311	24.06
383.521	-33.28
383.731	118.27
383.941	144.89
384.151	46.59
384.361	77.31
384.571	99.84
384.781	85.5
384.991	271.87
385.201	148.99
385.411	128.51
385.621	128.51
385.831	105.98
386.041	50.69
386.251	40.45
386.461	142.85
386.671	79.36
386.881	40.45
387.091	56.83
387.301	110.08
387.511	36.35
387.72	67.07
387.93	83.45
388.14	-23.04
388.35	153.09
388.56	126.46
388.769	183.81
388.979	58.88
389.189	28.16
389.399	77.31
389.609	179.71
389.818	95.74
390.028	99.84
390.238	87.55
390.447	28.16
390.657	124.41
390.867	26.11
391.076	-16.9
391.286	148.99
391.496	114.17
391.705	42.5
391.915	87.55
392.125	165.37
392.334	91.65
392.544	200.19
392.753	93.69
392.963	24.06
393.172	110.08
393.382	36.35
393.591	151.04
393.801	-29.18
394.01	177.66
394.22	93.69
394.429	65.02
394.639	99.84
394.848	116.22
395.058	50.69
395.267	7.68
395.477	132.61
395.686	44.54
395.895	216.57
396.105	247.29
396.314	116.22
396.524	58.88
396.733	99.84
396.942	230.91
397.152	128.51
397.361	132.61
397.57	114.17
397.78	126.46
397.989	48.64
398.198	224.76
398.407	95.74
398.617	40.45
398.826	54.78
399.035	75.26
399.244	101.89
399.453	26.11
399.663	97.79
399.872	83.45
400.081	28.16
400.29	202.24
400.499	40.45
400.708	148.99
400.917	97.79
401.127	95.74
401.336	-12.8
401.545	167.42
401.754	153.09
401.963	103.93
402.172	62.98
402.381	42.5
402.59	13.82
402.799	56.83
403.008	134.65
403.217	85.5
403.426	140.8
403.635	-39.42
403.844	87.55
404.053	32.26
404.262	67.07
404.471	280.06
404.68	81.41
404.888	58.88
405.097	22.02
405.306	130.56
405.515	124.41
405.724	85.5
405.933	124.41
406.142	81.41
406.35	105.98
406.559	73.21
406.768	62.98
406.977	134.65
407.185	171.52
407.394	157.18
407.603	-31.23
407.812	67.07
408.02	198.14
408.229	91.65
408.438	93.69
408.646	-86.53
408.855	50.69
409.064	87.55
409.272	93.69
409.481	105.98
409.69	15.87
409.898	7.68
410.107	77.31
410.315	200.19
410.524	-0.51
410.733	85.5
410.941	38.4
411.15	144.89
411.358	87.55
411.567	75.26
411.775	116.22
411.984	85.5
412.192	146.94
412.401	40.45
412.609	226.81
412.818	122.37
413.026	105.98
413.234	138.75
413.443	110.08
413.651	38.4
413.86	44.54
414.068	181.76
414.276	177.66
414.485	77.31
414.693	237.05
414.901	280.06
415.11	136.7
415.318	85.5
415.526	91.65
415.734	177.66
415.943	134.65
416.151	189.95
416.359	34.3
416.567	116.22
416.776	114.17
416.984	155.13
417.192	161.28
417.4	22.02
417.608	101.89
417.817	15.87
418.025	99.84
418.233	192
418.441	-20.99
418.649	-12.8
418.857	181.76
419.065	136.7
419.273	48.64
419.481	103.93
419.689	28.16
419.897	48.64
420.105	26.11
420.313	110.08
420.521	148.99
420.729	169.47
420.937	93.69
421.145	15.87
421.353	155.13
421.561	249.34
421.769	171.52
421.977	40.45
422.185	187.9
422.393	134.65
422.601	151.04
422.809	87.55
423.017	38.4
423.224	122.37
423.432	181.76
423.64	101.89
423.848	200.19
424.056	5.63
424.263	308.73
424.471	110.08
424.679	228.86
424.887	79.36
425.094	169.47
425.302	124.41
425.51	103.93
425.718	148.99
425.925	19.97
426.133	91.65
426.341	179.71
426.548	110.08
426.756	50.69
426.964	128.51
427.171	69.12
427.379	114.17
427.586	73.21
427.794	187.9
428.001	151.04
428.209	77.31
428.417	202.24
428.624	169.47
428.832	159.23
429.039	116.22
429.247	220.67
429.454	146.94
429.662	239.1
429.869	169.47
430.076	153.09
430.284	200.19
430.491	196.09
430.699	251.39
430.906	263.68
431.114	159.23
431.321	183.81
431.528	54.78
431.736	175.61
431.943	198.14
432.15	157.18
432.358	218.62
432.565	288.25
432.772	120.32
432.979	251.39
433.187	163.33
433.394	228.86
433.601	151.04
433.808	304.64
434.016	263.68
434.223	245.24
434.43	237.05
434.637	329.21
434.844	353.79
435.052	292.35
435.259	278.01
435.466	314.88
435.673	304.64
435.88	269.82
436.087	372.22
436.294	355.83
436.501	239.1
436.708	310.78
436.915	312.83
437.122	386.55
437.329	341.5
437.537	351.74
437.743	323.07
437.95	470.52
438.157	374.27
438.364	396.79
438.571	419.32
438.778	394.75
438.985	527.86
439.192	527.86
439.399	433.66
439.606	425.47
439.813	529.91
440.02	548.34
440.227	554.49
440.433	585.21
440.64	568.82
440.847	482.81
441.054	558.58
441.261	773.62
441.467	613.88
441.674	677.37
441.881	687.61
442.088	613.88
442.294	738.8
442.501	734.71
442.708	740.85
442.914	824.82
443.121	828.92
443.328	880.11
443.534	914.93
443.741	873.97
443.948	839.16
444.154	935.41
444.361	1076.72
444.568	1029.62
444.774	994.8
444.981	968.18
445.187	1140.21
445.394	1150.45
445.6	1166.83
445.807	1279.47
446.013	1246.7
446.22	1158.64
446.426	1371.63
446.633	1424.87
446.839	1635.82
447.046	1353.2
447.252	1572.33
447.459	1562.09
447.665	1594.86
447.871	1687.01
448.078	1811.94
448.284	1777.12
448.491	1945.06
448.697	2014.69
448.903	2112.99
449.11	2061.79
449.316	2059.74
449.522	2268.64
449.728	2420.19
449.935	2446.81
450.141	2375.13
450.347	2598.36
450.553	2508.25
450.76	2665.94
450.966	2739.67
451.172	2835.92
451.378	3012.05
451.584	3063.25
451.791	3309.01
451.997	3349.96
452.203	3378.64
452.409	3608.01
452.615	3698.12
452.821	3655.11
453.027	3620.3
453.233	4140.48
453.44	4044.23
453.646	4218.3
453.852	4429.24
454.058	4519.36
454.264	4810.17
454.47	4992.44
454.676	4996.53
454.882	5547.44
455.088	5299.63
455.294	5592.49
455.5	5885.35
455.705	6278.56
455.911	5985.7
456.117	6342.05
456.323	6770.07
456.529	6499.74
456.735	7171.47
456.941	7603.6
457.147	7851.4
457.352	7992.71
457.558	8191.36
457.764	8711.55
457.97	8891.77
458.176	9205.11
458.381	9803.11
458.587	9835.88
458.793	10403.17
458.999	10282.34
459.204	11619.66
459.41	11898.19
459.616	11810.12
459.821	12610.88
460.027	12830.01
460.233	13552.95
460.438	13598
460.644	14230.82
460.85	14691.62
461.055	15172.89
461.261	15789.33
461.466	15580.43
461.672	15891.73
461.878	17886.45
462.083	17304.82
462.289	17698.03
462.494	18679.01
462.7	18519.27
462.905	18935.01
463.111	20415.69
463.316	21544.12
463.522	21894.32
463.727	22723.75
463.932	23626.9
464.138	24423.56
464.343	25056.39
464.549	25312.38
464.754	27139.17
464.959	27925.59
465.165	28030.04
465.37	27843.67
465.575	27890.77
465.781	29809.72
465.986	30653.48
466.191	30311.47
466.397	30684.2
466.602	30032.95
466.807	31976.47
467.012	32326.67
467.218	32984.07
467.423	32734.22
467.628	33883.13
467.833	35570.66
468.038	34782.19
468.244	34604.02
468.449	36025.31
468.654	35435.49
468.859	35257.32
469.064	35345.38
469.269	34837.48
469.474	35005.42
469.679	35644.38
469.885	34493.43
470.09	35468.26
470.295	35294.18
470.5	34327.54
470.705	34636.78
470.91	33915.9
471.115	33766.4
471.32	34008.06
471.525	33635.33
471.73	32738.32
471.935	32664.59
472.139	31609.89
472.344	31474.72
472.549	31093.8
472.754	30727.21
472.959	30422.06
473.164	28781.64
473.369	28638.28
473.574	29338.69
473.778	28740.68
473.983	28474.45
474.188	28247.12
474.393	26526.83
474.598	26575.98
474.802	25627.77
475.007	25484.41
475.212	25504.89
475.417	24128.66
475.621	24034.45
475.826	23975.06
476.031	23131.3
476.235	22805.67
476.44	23022.75
476.645	22138.03
476.849	21865.65
477.054	21652.66
477.259	20946.11
477.463	21288.12
477.668	20296.91
477.872	20434.12
478.077	20202.7
478.282	19256.54
478.486	19262.68
478.691	19064.03
478.895	18773.22
479.1	18848.99
479.304	18658.53
479.509	18031.85
479.713	18201.83
479.918	17786.1
480.122	17534.2
480.326	17689.84
480.531	17659.12
480.735	17333.5
480.94	16930.05
481.144	17620.21
481.348	16547.08
481.553	16930.05
481.757	16362.76
481.961	16528.64
482.166	16364.81
482.37	16397.57
482.574	15838.48
482.778	15813.9
482.983	16157.96
483.187	15723.79
483.391	15676.69
483.595	15475.99
483.8	15234.33
484.004	15432.98
484.208	15244.57
484.412	15164.7
484.616	14966.04
484.821	14630.18
485.025	14286.12
485.229	14374.18
485.433	14325.03
485.637	14144.81
485.841	13778.22
486.045	13577.52
486.249	13385.01
486.453	13352.24
486.657	13299
486.861	12934.46
487.065	12391.75
487.269	12617.02
487.473	11961.67
487.677	12293.44
487.881	12375.36
488.085	11769.16
488.289	11666.77
488.493	11177.3
488.697	11447.63
488.901	10933.59
489.105	10782.04
489.309	10685.79
489.512	10593.63
489.716	10294.63
489.92	10059.11
490.124	9893.23
490.328	9975.14
490.531	9686.38
490.735	9479.54
490.939	9098.61
491.143	9219.44
491.346	8873.34
491.55	9020.79
491.754	8727.93
491.958	8504.7
492.161	8361.34
492.365	8369.54
492.569	8213.89
492.772	8070.53
492.976	8015.24
493.18	8017.29
493.383	7929.22
493.587	7724.43
493.79	7611.79
493.994	7497.1
494.197	7536.01
494.401	7288.21
494.605	7466.38
494.808	7259.54
495.012	7226.77
495.215	7359.89
495.419	7234.96
495.622	6923.67
495.825	6964.63
496.029	6993.3
496.232	7040.4
496.436	6884.76
496.639	6960.53
496.843	6903.19
497.046	6895
497.249	7024.02
497.453	6978.97
497.656	6786.46
497.859	6741.4
498.063	6919.57
498.266	7040.4
498.469	6765.98
498.673	6907.29
498.876	6964.63
499.079	6888.85
499.282	7009.69
499.485	7222.67
499.689	7216.53
499.892	7005.59
500.095	7284.11
500.298	7392.66
500.501	7331.22
500.705	7339.41
500.908	7292.3
501.111	7560.59
501.314	7624.08
501.517	7746.95
501.72	7826.82
501.923	7568.78
502.126	7812.49
502.329	7871.88
502.532	7964.04
502.735	8189.32
502.938	8172.93
503.141	8420.74
503.344	8295.81
503.547	8428.93
503.75	8486.27
503.953	8615.29
504.156	8740.22
504.359	8789.37
504.562	8748.41
504.765	9045.37
504.968	9370.99
505.17	9483.63
505.373	9620.85
505.576	9692.52
505.779	9919.85
505.982	9837.93
506.185	10319.2
506.387	10370.4
506.59	10526.05
506.793	10859.87
506.996	10665.31
507.198	11167.06
507.401	11291.99
507.604	11457.87
507.807	11705.68
508.009	11906.38
508.212	12322.12
508.415	12426.56
508.617	12924.22
508.82	12846.4
509.022	12913.98
509.225	13516.08
509.428	13616.43
509.63	13913.39
509.833	14107.94
510.035	14923.04
510.238	14652.7
510.44	15265.05
510.643	15394.07
510.845	15768.85
511.048	16094.47
511.25	16440.58
511.453	16424.2
511.655	17741.04
511.858	17657.07
512.06	18040.04
512.262	18197.74
512.465	18916.58
512.667	19242.2
512.87	19549.4
513.072	20069.58
513.274	20616.39
513.477	21015.74
513.679	21839.03
513.881	22174.89
514.084	22469.8
514.286	22645.93
514.488	23356.57
514.69	24097.94
514.893	24403.08
515.095	24689.8
515.297	25433.21
515.499	25877.62
515.701	26358.89
515.904	27202.66
516.106	27425.89
516.308	28146.77
516.51	28576.84
516.712	29160.52
516.914	29713.47
517.116	30481.45
517.318	30825.51
517.52	31310.88
517.722	31960.09
517.925	32523.28
518.127	33348.61
518.329	33799.16
518.531	34094.07
518.733	35079.14
518.935	35718.11
519.136	35761.12
519.338	36885.45
519.54	37221.32
519.742	37649.35
519.944	37946.3
520.146	39041.96
520.348	39287.72
520.55	39637.92
520.752	40375.19
520.954	41089.93
521.155	40885.14
521.357	41763.71
521.559	42429.3
521.761	42959.73
521.963	42990.45
522.164	43764.58
522.366	43520.87
522.568	44000.1
522.77	44659.54
522.971	45222.73
523.173	44979.03
523.375	45480.78
523.576	45914.95
523.778	45896.52
523.98	46295.87
524.181	46394.17
524.383	46682.94
524.584	47373.1
524.786	46930.74
524.988	46785.33
525.189	47145.78
525.391	47371.05
525.592	47594.28
525.794	47377.2
525.995	47035.19
526.197	47160.11
526.398	47211.31
526.6	47518.51
526.801	47256.37
527.003	47180.59
527.204	47160.11
527.406	46676.79
527.607	46457.66
527.808	46418.75
528.01	45654.86
528.211	46183.23
528.412	46408.51
528.614	45851.46
528.815	45419.34
529.016	45366.09
529.218	44788.56
529.419	44741.46
529.62	43987.81
529.822	43334.51
530.023	42863.47
530.224	42947.44
530.425	42060.67
530.626	42064.77
530.828	41204.62
531.029	41972.61
531.23	40926.1
531.431	40250.27
531.632	39674.79
531.833	39379.88
532.035	39095.21
532.236	38648.75
532.437	38269.88
532.638	37729.22
532.839	37161.93
533.04	37016.52
533.241	35824.61
533.442	36244.44
533.643	35343.33
533.844	34874.35
534.045	34853.87
534.246	33598.46
534.447	33782.78
534.648	33051.66
534.849	32791.56
535.05	32052.25
535.251	31923.22
535.451	31405.09
535.652	31239.2
535.853	30714.92
536.054	30372.91
536.255	29785.15
536.456	29269.06
536.657	29361.22
536.857	28691.53
537.058	28318.8
537.259	27849.82
537.46	27831.38
537.66	27401.31
537.861	27034.72
538.062	26606.7
538.263	26008.69
538.463	25513.08
538.664	25191.55
538.865	25291.9
539.065	25453.69
539.266	24568.97
539.466	24374.41
539.667	23848.08
539.868	23970.96
540.068	23229.6
540.269	23207.07
540.469	22977.7
540.67	22598.82
540.87	22426.79
541.071	22129.84
541.271	21896.37
541.472	21609.65
541.672	21388.47
541.873	21298.36
542.073	20712.64
542.274	20790.47
542.474	20493.51
542.675	20008.14
542.875	20282.57
543.075	19811.54
543.276	19485.91
543.476	19160.28
543.676	18879.71
543.877	18623.72
544.077	18654.44
544.277	18472.17
544.478	18169.07
544.678	18146.54
544.878	17777.9
545.078	17786.1
545.279	17448.18
545.479	17169.66
545.679	16907.52
545.879	16717.06
546.079	16854.27
546.28	16368.9
546.48	16407.81
546.68	16334.09
546.88	15867.15
547.08	15533.33
547.28	15486.23
547.48	15279.38
547.68	15174.94
547.88	14800.16
548.081	14755.1
548.281	14204.2
548.481	14380.32
548.681	14624.03
548.881	14198.06
549.081	13763.89
549.28	13745.45
549.48	13661.49
549.68	13524.27
549.88	13258.04
550.08	12836.16
550.28	12766.53
550.48	12662.08
550.68	12506.43
550.88	12232.01
551.08	12041.54
551.279	11967.82
551.479	11582.8
551.679	11822.41
551.879	11197.78
552.079	11441.49
552.278	11179.35
552.478	11035.99
552.678	10761.56
552.878	10601.82
553.077	10282.34
553.277	10245.48
553.477	10179.94
553.676	10112.36
553.876	9694.57
554.076	9551.21
554.275	9659.76
554.475	8985.97
554.674	9209.2
554.874	9043.32
555.074	8738.17
555.273	8754.55
555.473	8789.37
555.672	8451.46
555.872	8377.73
556.071	8422.78
556.271	8379.78
556.47	7949.7
556.67	7824.78
556.869	7777.67
557.068	7744.91
557.268	7443.85
557.467	7271.83
557.667	7497.1
557.866	7144.85
558.065	6829.46
558.265	6866.33
558.464	6768.02
558.663	6778.26
558.863	6505.88
559.062	6528.41
559.261	6309.28
559.461	6499.74
559.66	6176.16
559.859	6104.48
560.058	5885.35
560.258	5715.37
560.457	5655.98
560.656	5909.93
560.855	5584.3
561.054	5580.2
561.253	5545.39
561.453	5410.22
561.652	5236.14
561.851	5340.59
562.05	5080.5
562.249	5037.49
562.448	5098.93
562.647	4726.2
562.846	4742.58
563.045	4926.9
563.244	4654.52
563.443	4799.93
563.642	4435.39
563.841	4650.43
564.04	4658.62
564.239	4476.35
564.438	4216.26
564.637	4294.08
564.836	4107.71
565.035	4068.8
565.234	4072.9
565.432	3978.69
565.631	3878.34
565.83	3868.1
566.029	3696.07
566.228	3638.73
566.427	3640.78
566.625	3593.67
566.824	3519.95
567.023	3540.43
567.222	3435.98
567.42	3401.16
567.619	3423.69
567.818	3323.34
568.016	3438.03
568.215	3245.52
568.414	3372.49
568.612	3282.38
568.811	3210.7
569.01	2981.33
569.208	3134.93
569.407	3048.91
569.605	2911.7
569.804	2938.32
570.002	2928.08
570.201	2790.87
570.4	2747.86
570.598	2770.39
570.797	2590.17
570.995	2598.36
571.193	2624.98
571.392	2571.74
571.59	2412
571.789	2518.49
571.987	2459.1
572.186	2498.01
572.384	2383.32
572.582	2395.61
572.781	2371.04
572.979	2127.33
573.177	2219.49
573.376	2190.81
573.574	2328.03
573.772	2158.05
573.971	2033.12
574.169	1938.91
574.367	2012.64
574.565	2020.83
574.763	1936.87
574.962	1854.95
575.16	1912.29
575.358	1930.72
575.556	1836.52
575.754	1740.26
575.952	1760.74
576.151	1703.4
576.349	1924.58
576.547	1611.24
576.745	1715.69
576.943	1838.56
577.141	1676.77
577.339	1496.55
577.537	1578.47
577.735	1689.06
577.933	1689.06
578.131	1484.27
578.329	1574.38
578.527	1488.36
578.725	1498.6
578.923	1318.38
579.121	1418.73
579.319	1209.84
579.516	1269.23
579.714	1521.13
579.912	1371.63
580.11	1181.17
580.308	1273.32
580.506	1336.81
580.704	1046
580.901	1172.97
581.099	1244.65
581.297	1273.32
581.495	1132.01
581.692	1119.73
581.89	1328.62
582.088	1097.2
582.285	1181.17
582.483	1089.01
582.681	1054.19
582.878	1033.71
583.076	1125.87
583.274	1013.23
583.471	1177.07
583.669	943.6
583.866	957.94
584.064	959.99
584.262	779.76
584.459	839.16
584.657	1025.52
584.854	939.51
585.052	959.99
585.249	951.79
585.447	892.4
585.644	818.68
585.841	910.83
586.039	861.68
586.236	1054.19
586.434	843.25
586.631	828.92
586.828	816.63
587.026	826.87
587.223	755.19
587.42	703.99
587.618	761.33
587.815	747
588.012	765.43
588.21	828.92
588.407	740.85
588.604	751.09
588.801	714.23
588.999	726.52
589.196	851.44
589.393	593.4
589.59	732.66
589.787	706.04
589.984	753.14
590.182	720.37
590.379	624.12
590.576	630.26
590.773	605.69
590.97	591.35
591.167	695.8
591.364	718.33
591.561	648.69
591.758	863.73
591.955	724.47
592.152	538.1
592.349	648.69
592.546	601.59
592.743	581.11
592.94	636.41
593.137	663.03
593.334	669.17
593.531	673.27
593.727	695.8
593.924	695.8
594.121	585.21
594.318	660.98
594.515	689.65
594.712	792.05
594.908	728.56
595.105	613.88
595.302	681.46
595.499	728.56
595.696	828.92
595.892	687.61
596.089	732.66
596.286	609.78
596.482	826.87
596.679	779.76
596.876	724.47
597.072	921.07
597.269	718.33
597.466	857.59
597.662	912.88
597.859	863.73
598.055	927.22
598.252	1011.18
598.448	1033.71
598.645	1031.66
598.841	1060.34
599.038	1277.42
599.234	1138.16
599.431	1164.78
599.627	1240.56
599.824	1228.27
600.02	1256.94
600.217	1263.08
600.413	1377.77
600.609	1404.39
600.806	1752.55
601.002	1447.4
601.198	1492.46
601.395	1693.16
601.591	1586.66
601.787	1691.11
601.984	1740.26
602.18	1934.82
602.376	1881.57
602.572	2088.42
602.769	2098.66
602.965	2069.98
603.161	2260.45
603.357	2371.04
603.553	2412
603.75	2397.66
603.946	2581.98
604.142	2639.32
604.338	2821.59
604.534	2715.09
604.73	2876.88
604.926	2870.74
605.122	3220.94
605.318	3065.3
605.514	3272.14
605.71	3384.78
605.906	3532.23
606.102	3421.64
606.298	3710.41
606.494	3835.33
606.69	4103.62
606.886	4054.47
607.082	3968.45
607.278	4230.59
607.474	4343.23
607.67	4490.68
607.866	4267.45
608.062	4859.32
608.257	4869.56
608.453	4675
608.649	5111.22
608.845	5141.94
609.041	5416.37
609.236	5486
609.432	5721.51
609.628	5979.56
609.824	6041
610.019	5995.94
610.215	6272.42
610.411	6428.06
610.606	6696.35
610.802	6604.19
610.998	7003.54
611.193	7214.48
611.389	7351.7
611.584	7415.18
611.78	7718.28
611.976	7732.62
612.171	8172.93
612.367	8387.97
612.562	8533.37
612.758	8680.83
612.953	8856.95
613.149	9084.28
613.344	9459.06
613.539	9819.5
613.735	9993.58
613.93	10198.37
614.126	10304.87
614.321	10741.08
614.517	10960.22
614.712	11257.17
614.907	11527.5
615.103	11853.13
615.298	12137.8
615.493	12418.37
615.688	12524.86
615.884	13172.02
616.079	13143.35
616.274	13888.81
616.47	13993.26
616.665	14499.11
616.86	14726.43
617.055	15082.78
617.25	15502.61
617.445	16102.67
617.641	16033.04
617.836	16663.81
618.031	16874.75
618.226	17552.63
618.421	17560.82
618.616	18537.7
618.811	18689.25
619.006	19412.18
619.201	19227.87
619.396	20026.57
619.591	20176.08
619.786	21208.25
619.981	20980.93
620.176	21775.54
620.371	21609.65
620.566	22729.89
620.761	22899.87
620.956	23618.71
621.151	23661.72
621.346	24222.86
621.541	24665.22
621.735	25169.02
621.93	25599.1
622.125	25908.34
622.32	26596.46
622.515	26975.33
622.709	27620.44
622.904	28187.73
623.099	28619.85
623.294	29123.65
623.488	29545.53
623.683	29953.08
623.878	30227.51
624.072	31312.93
624.267	31552.54
624.462	32031.77
624.656	32300.05
624.851	33324.04
625.046	33430.53
625.24	33823.74
625.435	34255.86
625.629	34759.66
625.824	35363.81
626.018	35605.47
626.213	35531.75
626.407	36414.42
626.602	36189.14
626.796	37155.79
626.991	38036.41
627.185	37696.45
627.38	37688.26
627.574	38161.34
627.768	38196.15
627.963	38591.41
628.157	38423.48
628.352	39222.19
628.546	38421.43
628.74	39318.44
628.935	38845.36
629.129	38712.24
629.323	38683.57
629.517	38615.99
629.712	38431.67
629.906	38095.8
630.1	37460.93
630.294	37768.13
630.489	36955.08
630.683	36811.73
630.877	35871.71
631.071	35638.24
631.265	35462.11
631.459	34200.57
631.653	34081.78
631.848	32996.36
632.042	32300.05
632.236	31646.75
632.43	30508.08
632.624	30098.48
632.818	29140.04
633.012	27874.39
633.206	27343.97
633.4	26256.5
633.594	25255.04
633.788	24614.02
633.982	23970.96
634.176	23358.62
634.369	21935.28
634.563	21523.64
634.757	20470.98
634.951	19825.87
635.145	19150.04
635.339	18388.2
635.533	17765.62
635.726	16921.85
635.92	16293.13
636.114	15795.47
636.308	14906.65
636.501	14384.42
636.695	13878.57
636.889	13176.12
637.083	12664.13
637.276	12102.98
637.47	11629.9
637.664	11165.01
637.857	10894.68
638.051	10366.31
638.244	9950.57
638.438	9358.71
638.632	9168.24
638.825	8736.12
639.019	8525.18
639.212	8203.65
639.406	7865.74
639.599	7484.81
639.793	7298.45
639.986	6921.62
640.18	6827.42
640.373	6434.21
640.567	6184.35
640.76	5985.7
640.954	5647.79
641.147	5418.41
641.34	5232.05
641.534	5150.13
641.727	5076.4
641.92	4746.68
642.114	4627.9
642.307	4402.62
642.5	4367.81
642.694	4085.19
642.887	3931.59
643.08	3771.85
643.273	3835.33
643.467	3399.12
643.66	3276.24
643.853	3102.16
644.046	3214.8
644.239	3016.15
644.432	2827.73
644.626	2661.85
644.819	2551.26
645.012	2616.79
645.205	2465.24
645.398	2606.55
645.591	2252.25
645.784	2252.25
645.977	2045.41
646.17	2043.36
646.363	2053.6
646.556	1879.52
646.749	1680.87
646.942	1844.71
647.135	1695.21
647.328	1578.47
647.521	1660.39
647.714	1504.75
647.907	1557.99
648.099	1431.02
648.292	1474.03
648.485	1308.14
648.678	1283.56
648.871	1172.97
649.064	1232.37
649.256	1066.48
649.449	1023.47
649.642	972.27
649.835	935.41
650.027	935.41
650.22	1070.58
650.413	935.41
650.605	863.73
650.798	888.31
650.991	851.44
651.183	839.16
651.376	726.52
651.568	792.05
651.761	687.61
651.954	718.33
652.146	558.58
652.339	706.04
652.531	718.33
652.724	624.12
652.916	660.98
653.109	503.29
653.301	601.59
653.494	611.83
653.686	499.19
653.879	601.59
654.071	558.58
654.263	509.43
654.456	450.04
654.648	552.44
654.84	511.48
655.033	341.5
655.225	605.69
655.417	261.63
655.61	609.78
655.802	587.26
655.994	497.14
656.186	372.22
656.379	478.71
656.571	251.39
656.763	312.83
656.955	327.16
657.148	423.42
657.34	349.69
657.532	300.54
657.724	282.11
657.916	364.03
658.108	445.95
658.3	347.64
658.492	345.59
658.684	312.83
658.876	380.41
659.068	251.39
659.26	294.4
659.452	206.33
659.644	269.82
659.836	364.03
660.028	259.58
660.22	261.63
660.412	245.24
660.604	224.76
660.796	290.3
660.988	335.35
661.18	325.12
661.372	280.06
661.563	235
661.755	257.53
661.947	222.72
662.139	224.76
662.331	202.24
662.522	171.52
662.714	214.52
662.906	202.24
663.097	235
663.289	79.36
663.481	99.84
663.673	165.37
663.864	292.35
664.056	241.15
664.247	124.41
664.439	237.05
664.631	192
664.822	177.66
665.014	181.76
665.205	171.52
665.397	110.08
665.588	241.15
665.78	159.23
665.971	271.87
666.163	187.9
666.354	321.02
666.546	224.76
666.737	169.47
666.929	185.85
667.12	157.18
667.311	216.57
667.503	114.17
667.694	189.95
667.885	159.23
668.077	259.58
668.268	69.12
668.459	169.47
668.651	210.43
668.842	134.65
669.033	79.36
669.224	24.06
669.416	394.75
669.607	148.99
669.798	87.55
669.989	263.68
670.18	214.52
670.371	208.38
670.563	89.6
670.754	308.73
670.945	165.37
671.136	206.33
671.327	163.33
671.518	216.57
671.709	343.55
671.9	218.62
672.091	216.57
672.282	146.94
672.473	181.76
672.664	120.32
672.855	144.89
673.046	165.37
673.237	247.29
673.428	165.37
673.619	220.67
673.809	124.41
674	245.24
674.191	204.28
674.382	187.9
674.573	177.66
674.764	194.05
674.954	202.24
675.145	54.78
675.336	36.35
675.527	105.98
675.717	157.18
675.908	196.09
676.099	157.18
676.289	148.99
676.48	11.78
676.671	194.05
676.861	192
677.052	163.33
677.243	77.31
677.433	124.41
677.624	200.19
677.814	226.81
678.005	142.85
678.195	290.3
678.386	122.37
678.576	103.93
678.767	67.07
678.957	232.96
679.148	183.81
679.338	273.92
679.529	275.96
679.719	185.85
679.909	321.02
680.1	269.82
680.29	286.2
680.481	79.36
680.671	181.76
680.861	278.01
681.052	138.75
681.242	132.61
681.432	275.96
681.622	306.68
681.813	83.45
682.003	122.37
682.193	144.89
682.383	237.05
682.573	159.23
682.764	218.62
682.954	198.14
683.144	263.68
683.334	120.32
683.524	167.42
683.714	216.57
683.904	235
684.094	220.67
684.284	169.47
684.474	251.39
684.664	167.42
684.854	259.58
685.044	220.67
685.234	263.68
685.424	165.37
685.614	288.25
685.804	333.31
685.994	275.96
686.184	194.05
686.374	263.68
686.564	206.33
686.753	173.57
686.943	165.37
687.133	128.51
687.323	194.05
687.513	335.35
687.702	181.76
687.892	230.91
688.082	245.24
688.272	161.28
688.461	200.19
688.651	351.74
688.841	275.96
689.03	282.11
689.22	261.63
689.41	292.35
689.599	243.2
689.789	194.05
689.979	347.64
690.168	175.61
690.358	232.96
690.547	183.81
690.737	243.2
690.926	314.88
691.116	239.1
691.305	345.59
691.495	298.49
691.684	214.52
691.874	216.57
692.063	204.28
692.252	273.92
692.442	275.96
692.631	155.13
692.82	110.08
693.01	196.09
693.199	118.27
693.388	251.39
693.578	251.39
693.767	230.91
693.956	298.49
694.146	230.91
694.335	230.91
694.524	163.33
694.713	325.12
694.902	187.9
695.092	196.09
695.281	187.9
695.47	192
695.659	200.19
695.848	200.19
696.037	114.17
696.226	243.2
696.415	153.09
696.604	271.87
696.793	308.73
696.982	192
697.171	294.4
697.36	214.52
697.549	192
697.738	124.41
697.927	198.14
698.116	259.58
698.305	275.96
698.494	224.76
698.683	116.22
698.872	290.3
699.061	179.71
699.25	202.24
699.438	208.38
699.627	194.05
699.816	308.73
700.005	103.93
700.193	153.09
700.382	306.68
700.571	202.24
700.76	251.39
700.948	318.97
701.137	331.26
701.326	224.76
701.514	108.03
701.703	169.47
701.892	335.35
702.08	376.31
702.269	224.76
702.457	134.65
702.646	187.9
702.834	128.51
703.023	237.05
703.212	241.15
703.4	183.81
703.589	278.01
703.777	214.52
703.965	208.38
704.154	124.41
704.342	128.51
704.531	89.6
704.719	290.3
704.907	308.73
705.096	128.51
705.284	85.5
705.472	187.9
705.661	232.96
705.849	247.29
706.037	273.92
706.226	169.47
706.414	206.33
706.602	263.68
706.79	208.38
706.979	138.75
707.167	247.29
707.355	204.28
707.543	245.24
707.731	273.92
707.919	335.35
708.107	181.76
708.296	161.28
708.484	163.33
708.672	167.42
708.86	194.05
709.048	187.9
709.236	181.76
709.424	284.16
709.612	228.86
709.8	67.07
709.988	237.05
710.176	251.39
710.364	271.87
710.551	245.24
710.739	183.81
710.927	214.52
711.115	222.72
711.303	181.76
711.491	321.02
711.679	157.18
711.866	263.68
712.054	130.56
712.242	243.2
712.43	284.16
712.617	232.96
712.805	323.07
712.993	232.96
713.181	130.56
713.368	194.05
713.556	163.33
713.744	138.75
713.931	306.68
714.119	208.38
714.306	235
714.494	175.61
714.682	228.86
714.869	214.52
715.057	189.95
715.244	62.98
715.432	202.24
715.619	124.41
715.807	237.05
715.994	183.81
716.182	146.94
716.369	302.59
716.556	259.58
716.744	183.81
716.931	226.81
717.119	314.88
717.306	288.25
717.493	228.86
717.681	185.85
717.868	239.1
718.055	255.48
718.242	230.91
718.43	247.29
718.617	263.68
718.804	179.71
718.991	310.78
719.179	271.87
719.366	294.4
719.553	302.59
719.74	241.15
719.927	210.43
720.114	212.48
720.301	187.9
720.488	200.19
720.676	216.57
720.863	323.07
721.05	374.27
721.237	316.92
721.424	275.96
721.611	329.21
721.798	183.81
721.985	288.25
722.172	224.76
722.358	249.34
722.545	267.77
722.732	296.44
722.919	361.98
723.106	243.2
723.293	220.67
723.48	253.44
723.667	185.85
723.853	292.35
724.04	232.96
724.227	284.16
724.414	226.81
724.6	294.4
724.787	339.45
724.974	374.27
725.161	230.91
725.347	220.67
725.534	218.62
725.72	282.11
725.907	269.82
726.094	321.02
726.28	263.68
726.467	310.78
726.653	189.95
726.84	302.59
727.027	400.89
727.213	271.87
727.4	325.12
727.586	247.29
727.773	325.12
727.959	265.72
728.145	284.16
728.332	280.06
728.518	214.52
728.705	323.07
728.891	265.72
729.077	296.44
729.264	181.76
729.45	161.28
729.636	353.79
729.823	325.12
730.009	372.22
730.195	275.96
730.382	370.17
730.568	189.95
730.754	232.96
730.94	335.35
731.126	239.1
731.313	300.54
731.499	312.83
731.685	353.79
731.871	368.12
732.057	310.78
732.243	312.83
732.429	308.73
732.615	337.4
732.801	343.55
732.987	300.54
733.173	269.82
733.359	208.38
733.545	243.2
733.731	312.83
733.917	425.47
734.103	368.12
734.289	386.55
734.475	308.73
734.661	413.18
734.847	359.93
735.033	273.92
735.219	396.79
735.404	222.72
735.59	235
735.776	290.3
735.962	357.88
736.148	390.65
736.333	374.27
736.519	349.69
736.705	316.92
736.89	249.34
737.076	280.06
737.262	189.95
737.447	196.09
737.633	310.78
737.819	394.75
738.004	257.53
738.19	306.68
738.375	361.98
738.561	349.69
738.747	259.58
738.932	243.2
739.118	382.46
739.303	327.16
739.489	398.84
739.674	247.29
739.859	271.87
740.045	353.79
740.23	312.83
740.416	181.76
740.601	353.79
740.786	298.49
740.972	202.24
741.157	192
741.342	321.02
741.528	261.63
741.713	400.89
741.898	304.64
742.084	296.44
742.269	269.82
742.454	370.17
742.639	329.21
742.824	353.79
743.01	511.48
743.195	466.42
743.38	435.71
743.565	298.49
743.75	300.54
743.935	409.08
744.12	368.12
744.305	257.53
744.49	286.2
744.675	294.4
744.86	329.21
745.045	353.79
745.23	325.12
745.415	321.02
745.6	343.55
745.785	253.44
745.97	284.16
746.155	286.2
746.34	341.5
746.525	255.48
746.71	380.41
746.895	239.1
747.079	296.44
747.264	228.86
747.449	357.88
747.634	368.12
747.819	372.22
748.003	300.54
748.188	210.43
748.373	384.51
748.557	392.7
748.742	351.74
748.927	312.83
749.111	175.61
749.296	269.82
749.481	339.45
749.665	325.12
749.85	235
750.034	312.83
750.219	300.54
750.404	206.33
750.588	331.26
750.773	249.34
750.957	284.16
751.141	296.44
751.326	386.55
751.51	142.85
751.695	275.96
751.879	185.85
752.064	368.12
752.248	271.87
752.432	409.08
752.617	318.97
752.801	335.35
752.985	194.05
753.17	275.96
753.354	296.44
753.538	282.11
753.722	243.2
753.907	210.43
754.091	112.13
754.275	302.59
754.459	196.09
754.643	232.96
754.828	284.16
755.012	255.48
755.196	138.75
755.38	321.02
755.564	253.44
755.748	157.18
755.932	265.72
756.116	251.39
756.3	263.68
756.484	155.13
756.668	265.72
756.852	167.42
757.036	214.52
757.22	222.72
757.404	198.14
757.588	155.13
757.772	222.72
757.956	120.32
758.14	302.59
758.323	157.18
758.507	243.2
758.691	179.71
758.875	263.68
759.059	392.7
759.242	132.61
759.426	196.09
759.61	171.52
759.794	175.61
759.977	263.68
760.161	427.51
760.345	267.77
760.528	265.72
760.712	198.14
760.895	153.09
761.079	120.32
761.263	105.98
761.446	177.66
761.63	212.48
761.813	300.54
761.997	148.99
762.18	120.32
762.364	200.19
762.547	108.03
762.731	144.89
762.914	140.8
763.098	126.46
763.281	177.66
763.464	97.79
763.648	235
763.831	161.28
764.015	167.42
764.198	259.58
764.381	114.17
764.564	202.24
764.748	177.66
764.931	198.14
765.114	93.69
765.297	278.01
765.481	134.65
765.664	218.62
765.847	116.22
766.03	302.59
766.213	169.47
766.397	163.33
766.58	71.17
766.763	214.52
766.946	138.75
767.129	148.99
767.312	85.5
767.495	132.61
767.678	124.41
767.861	103.93
768.044	77.31
768.227	95.74
768.41	189.95
768.593	157.18
768.776	202.24
768.959	91.65
769.142	185.85
769.324	91.65
769.507	194.05
769.69	220.67
769.873	112.13
770.056	300.54
770.239	161.28
770.421	235
770.604	259.58
770.787	120.32
770.97	99.84
771.152	114.17
771.335	214.52
771.518	42.5
771.7	280.06
771.883	204.28
772.066	99.84
772.248	134.65
772.431	249.34
772.613	206.33
772.796	142.85
772.978	210.43
773.161	232.96
773.343	167.42
773.526	79.36
773.708	-2.56
773.891	132.61
774.073	134.65
774.256	77.31
774.438	308.73
774.621	81.41
774.803	200.19
774.985	116.22
775.168	208.38
775.35	151.04
775.532	56.83
775.715	155.13
775.897	120.32
776.079	85.5
776.261	138.75
776.444	79.36
776.626	179.71
776.808	93.69
776.99	-39.42
777.173	128.51
777.355	85.5
777.537	81.41
777.719	124.41
777.901	79.36
778.083	95.74
778.265	56.83
778.447	110.08
778.629	40.45
778.811	91.65
778.993	91.65
779.175	198.14
779.357	148.99
779.539	19.97
779.721	128.51
779.903	142.85
780.085	56.83
780.267	46.59
780.449	128.51
780.631	95.74
780.812	177.66
780.994	79.36
781.176	120.32
781.358	30.21
781.54	87.55
781.721	171.52
781.903	189.95
782.085	60.93
782.267	232.96
782.448	26.11
782.63	95.74
782.812	163.33
782.993	101.89
783.175	159.23
783.357	83.45
783.538	95.74
783.72	15.87
783.901	52.74
784.083	138.75
784.264	89.6
784.446	17.92
784.627	42.5
784.809	136.7
784.99	-14.85
785.172	177.66
785.353	50.69
785.535	130.56
785.716	42.5
785.897	13.82
786.079	30.21
786.26	48.64
786.441	101.89
786.623	-18.94
786.804	32.26
786.985	52.74
787.167	38.4
787.348	112.13
787.529	1.54
787.71	198.14
787.891	165.37
788.073	138.75
788.254	-59.9
788.435	214.52
788.616	142.85
788.797	17.92
788.978	75.26
789.159	52.74
789.34	153.09
789.522	-8.7
789.703	44.54
789.884	85.5
790.065	108.03
790.246	140.8
790.427	69.12
790.607	144.89
790.788	71.17
790.969	42.5
791.15	142.85
791.331	28.16
791.512	42.5
791.693	-6.66
791.874	65.02
792.054	218.62
792.235	157.18
792.416	-37.38
792.597	40.45
792.778	103.93
792.958	179.71
793.139	91.65
793.32	22.02
793.5	75.26
793.681	140.8
793.862	42.5
794.042	114.17
794.223	-20.99
794.404	87.55
794.584	-80.38
794.765	79.36
794.945	50.69
795.126	93.69
795.306	173.57
795.487	58.88
795.667	56.83
795.848	24.06
796.028	30.21
796.209	56.83
796.389	114.17
796.57	48.64
796.75	38.4
796.93	71.17
797.111	-2.56
797.291	54.78
797.471	124.41
797.652	81.41
797.832	30.21
798.012	108.03
798.192	44.54
798.373	-70.14
798.553	95.74
798.733	73.21
798.913	44.54
799.093	-6.66
799.274	151.04
799.454	87.55
799.634	142.85
799.814	110.08
799.994	19.97
800.174	136.7
800.354	62.98
800.534	-18.94
800.714	101.89
800.894	-8.7
801.074	-41.47
801.254	-18.94
801.434	122.37
801.614	-27.14
801.794	-2.56
801.974	1603.05
802.154	-61.95
802.334	148.99
802.514	28.16
802.693	87.55
802.873	87.55
803.053	110.08
803.233	159.23
803.413	60.93
803.592	-18.94
803.772	65.02
803.952	83.45
804.131	22.02
804.311	126.46
804.491	83.45
804.67	30.21
804.85	-35.33
805.03	73.21
805.209	46.59
805.389	13.82
805.568	48.64
805.748	30.21
805.928	-6.66
806.107	148.99
806.287	116.22
806.466	32.26
806.646	95.74
806.825	19.97
807.004	22.02
807.184	85.5
807.363	75.26
807.543	52.74
807.722	11.78
807.901	36.35
808.081	142.85
808.26	-98.81
808.439	50.69
808.619	65.02
808.798	-29.18
808.977	60.93
809.156	116.22
809.336	77.31
809.515	124.41
809.694	24.06
809.873	38.4
810.052	112.13
810.231	210.43
810.411	52.74
810.59	114.17
810.769	122.37
810.948	71.17
811.127	-43.52
811.306	65.02
811.485	13.82
811.664	77.31
811.843	32.26
812.022	101.89
812.201	-27.14
812.38	-20.99
812.559	71.17
812.737	30.21
812.916	-92.67
813.095	-8.7
813.274	128.51
813.453	58.88
813.632	83.45
813.811	128.51
813.989	-66.05
814.168	101.89
814.347	5.63
814.526	46.59
814.704	185.85
814.883	132.61
815.062	-45.57
815.24	126.46
815.419	67.07
815.598	40.45
815.776	-64
815.955	112.13
816.133	-152.06
816.312	110.08
816.49	67.07
816.669	48.64
816.847	-10.75
817.026	112.13
817.204	36.35
817.383	-64
817.561	-29.18
817.74	73.21
817.918	-29.18
818.097	3.58
818.275	-10.75
818.453	60.93
818.632	122.37
818.81	-80.38
818.988	-47.62
819.167	-12.8
819.345	60.93
819.523	1.54
819.701	-16.9
819.879	81.41
820.058	28.16
820.236	-4.61
820.414	-18.94
820.592	7.68
820.77	-6.66
820.948	95.74
821.127	-10.75
821.305	120.32
821.483	-27.14
821.661	126.46
821.839	89.6
822.017	1.54
822.195	-27.14
822.373	114.17
822.551	36.35
822.729	101.89
822.907	32.26
823.085	83.45
823.262	30.21
823.44	58.88
823.618	15.87
823.796	101.89
823.974	73.21
824.152	-16.9
824.329	101.89
824.507	38.4
824.685	120.32
824.863	103.93
825.04	30.21
825.218	62.98
825.396	95.74
825.574	36.35
825.751	97.79
825.929	89.6
826.107	-18.94
826.284	56.83
826.462	38.4
826.639	-18.94
826.817	11.78
826.994	83.45
827.172	-102.91
827.349	128.51
827.527	30.21
827.704	9.73
827.882	116.22
828.059	3.58
828.237	36.35
828.414	101.89
828.591	-43.52
828.769	-37.38
828.946	-53.76
829.124	60.93
829.301	110.08
829.478	-35.33
829.655	91.65
829.833	-45.57
830.01	-119.29
830.187	36.35
830.364	28.16
830.542	22.02
830.719	153.09
830.896	185.85
831.073	116.22
831.25	85.5
831.427	116.22
831.604	-14.85
831.782	5.63
831.959	52.74
832.136	44.54
832.313	75.26
832.49	11.78
832.667	52.74
832.844	-39.42
833.021	153.09
833.198	85.5
833.374	13.82
833.551	26.11
833.728	-64
833.905	42.5
834.082	-66.05
834.259	77.31
834.436	89.6
834.612	36.35
834.789	26.11
834.966	101.89
835.143	44.54
835.319	-66.05
835.496	97.79
835.673	120.32
835.85	138.75
836.026	19.97
836.203	99.84
836.38	34.3
836.556	9.73
836.733	-14.85
836.909	110.08
837.086	-18.94
837.262	24.06
837.439	38.4
837.616	-0.51
837.792	48.64
837.968	-4.61
838.145	-70.14
838.321	116.22
838.498	50.69
838.674	50.69
838.851	58.88
839.027	-49.66
839.203	50.69
839.38	11.78
839.556	-18.94
839.732	77.31
839.909	-37.38
840.085	19.97
840.261	-53.76
840.437	1.54
840.614	89.6
840.79	85.5
840.966	26.11
841.142	46.59
841.318	-47.62
841.494	159.23
841.671	122.37
841.847	22.02
842.023	-37.38
842.199	89.6
842.375	144.89
842.551	-133.63
842.727	-45.57
842.903	175.61
843.079	-39.42
843.255	175.61
843.431	19.97
843.607	77.31
843.783	-94.72
843.959	83.45
844.134	-18.94
844.31	132.61
844.486	26.11
844.662	30.21
844.838	44.54
845.013	69.12
845.189	17.92
845.365	81.41
845.541	30.21
845.716	34.3
845.892	136.7
846.068	-16.9
846.244	60.93
846.419	58.88
846.595	-10.75
846.77	-39.42
846.946	103.93
847.122	-14.85
847.297	50.69
847.473	136.7
847.648	-104.96
847.824	83.45
847.999	-137.73
848.175	-4.61
848.35	56.83
848.526	157.18
848.701	118.27
848.876	79.36
849.052	148.99
849.227	42.5
849.403	1.54
849.578	40.45
849.753	95.74
849.929	93.69
850.104	-43.52
850.279	-41.47
850.454	-31.23
850.63	60.93
850.805	38.4
850.98	-2.56
851.155	60.93
851.33	26.11
851.505	40.45
851.681	148.99
851.856	67.07
852.031	62.98
852.206	101.89
852.381	-8.7
852.556	-41.47
852.731	11.78
852.906	13.82
853.081	108.03
853.256	134.65
853.431	7.68
853.606	-68.09
853.781	-41.47
853.956	-64
854.131	-18.94
854.305	-64
854.48	-47.62
854.655	-16.9
854.83	-20.99
855.005	19.97
855.18	7.68
855.354	42.5
855.529	58.88
855.704	62.98
855.879	42.5
856.053	-27.14
856.228	-14.85
856.403	44.54
856.577	95.74
856.752	-25.09
856.926	24.06
857.101	-53.76
857.276	-82.43
857.45	69.12
857.625	126.46
857.799	-59.9
857.974	13.82
858.148	-84.48
858.323	67.07
858.497	-41.47
858.672	15.87
858.846	-68.09
859.02	67.07
859.195	-125.44
859.369	38.4
859.543	46.59
859.718	48.64
859.892	46.59
860.066	-2.56
860.241	-10.75
860.415	-35.33
860.589	-6.66
860.763	-6.66
860.938	-27.14
861.112	97.79
861.286	52.74
861.46	-31.23
861.634	17.92
861.808	93.69
861.982	-49.66
862.157	-14.85
862.331	-0.51
862.505	-16.9
862.679	-53.76
862.853	1.54
863.027	30.21
863.201	75.26
863.375	-39.42
863.549	69.12
863.722	48.64
863.896	173.57
864.07	-8.7
864.244	108.03
864.418	85.5
864.592	62.98
864.766	89.6
864.939	11.78
865.113	-16.9
865.287	97.79
865.461	-20.99
865.634	34.3
865.808	11.78
865.982	56.83
866.156	44.54
866.329	-0.51
866.503	75.26
866.676	122.37
866.85	-31.23
867.024	-76.29
867.197	99.84
867.371	83.45
867.544	71.17
867.718	-74.24
867.891	130.56
868.065	-76.29
868.238	60.93
868.412	134.65
868.585	7.68
868.759	-6.66
868.932	22.02
869.105	-76.29
869.279	83.45
869.452	-68.09
869.625	144.89
869.799	22.02
869.972	-45.57
870.145	40.45
870.319	126.46
870.492	60.93
870.665	-27.14
870.838	-113.15
871.011	-104.96
871.185	85.5
871.358	26.11
871.531	83.45
871.704	-4.61
871.877	79.36
872.05	17.92
872.223	22.02
872.396	110.08
872.569	13.82
872.742	-127.49
872.915	87.55
873.088	34.3
873.261	-0.51
873.434	73.21
873.607	-0.51
873.78	126.46
873.953	-20.99
874.126	-12.8
874.299	28.16
874.471	-18.94
874.644	5.63
874.817	99.84
874.99	81.41
875.163	7.68
875.335	58.88
875.508	30.21
875.681	87.55
875.853	-0.51
876.026	97.79
876.199	79.36
876.371	95.74
876.544	-43.52
876.717	13.82
876.889	-10.75
877.062	87.55
877.234	-80.38
877.407	-0.51
877.579	15.87
877.752	36.35
877.924	69.12
878.097	75.26
878.269	19.97
878.442	34.3
878.614	50.69
878.786	93.69
878.959	60.93
879.131	-8.7
879.303	-107.01
879.476	1.54
879.648	93.69
879.82	58.88
879.993	-68.09
880.165	-47.62
880.337	34.3
880.509	22.02
880.681	19.97
880.854	-45.57
881.026	56.83
881.198	124.41
881.37	24.06
881.542	58.88
881.714	1.54
881.886	17.92
882.058	50.69
882.23	-2.56
882.402	-23.04
882.574	-18.94
882.746	56.83
882.918	101.89
883.09	153.09
883.262	34.3
883.434	3.58
883.606	-109.05
883.778	-12.8
883.95	177.66
884.122	-12.8
884.293	46.59
884.465	93.69
884.637	130.56
884.809	-51.71
884.98	28.16
885.152	50.69
885.324	71.17
885.496	-4.61
885.667	-49.66
885.839	11.78
886.011	75.26
886.182	69.12
886.354	77.31
886.525	99.84
886.697	46.59
886.869	-35.33
887.04	28.16
887.212	122.37
887.383	122.37
887.555	26.11
887.726	7.68
887.897	11.78
888.069	77.31
888.24	122.37
888.412	-18.94
888.583	7.68
888.754	1.54
888.926	-61.95
889.097	67.07
889.268	-104.96
889.44	46.59
889.611	-27.14
889.782	-12.8
889.953	-61.95
890.125	116.22
890.296	-31.23
890.467	-61.95
890.638	30.21
890.809	-64
890.98	85.5
891.151	1.54
891.323	77.31
891.494	11.78
891.665	50.69
891.836	48.64
892.007	11.78
892.178	93.69
892.349	22.02
892.52	-59.9
892.691	13.82
892.862	-39.42
893.032	-80.38
893.203	-53.76
893.374	-0.51
893.545	130.56
893.716	28.16
893.887	171.52
894.057	60.93
894.228	71.17
894.399	22.02
894.57	142.85
894.74	-39.42
894.911	46.59
895.082	13.82
895.253	-47.62
895.423	40.45
895.594	28.16
895.764	38.4
895.935	-27.14
896.106	3.58
896.276	-45.57
896.447	-6.66
896.617	-27.14
896.788	-29.18
896.958	-70.14
897.129	52.74
897.299	-53.76
897.47	146.94
897.64	77.31
897.81	-59.9
897.981	75.26
898.151	-33.28
898.322	48.64
898.492	105.98
898.662	-0.51
898.832	-53.76
899.003	1.54
899.173	95.74
899.343	-37.38
899.513	-53.76
