Data from USB4F104151__82__10-34-15-636.txt Node

Date: Wed Feb 26 10:34:15 EST 2025
User: louis
Spectrometer: USB4F10415
Trigger mode: 4
Integration Time (sec): 1.000000E-1
Scans to average: 1
Electric dark correction enabled: true
Nonlinearity correction enabled: false
Boxcar width: 0
XAxis mode: Wavelengths
Number of Pixels in Spectrum: 3648
>>>>>Begin Spectral Data<<<<<
178.204	-404.47
178.424	-404.47
178.644	-404.47
178.864	-377.85
179.084	-338.94
179.304	-44.03
179.524	31.74
179.744	52.22
179.964	72.7
180.184	-13.31
180.404	5.12
180.624	-82.94
180.844	37.89
181.064	-64.51
181.283	19.46
181.503	-1.02
181.723	-13.31
181.943	-76.8
182.163	134.14
182.383	-54.27
182.602	50.18
182.822	80.89
183.042	13.31
183.262	9.22
183.482	-11.26
183.701	37.89
183.921	50.18
184.141	-15.36
184.361	-21.5
184.58	76.8
184.8	23.55
185.02	-60.42
185.239	105.47
185.459	68.61
185.679	136.19
185.898	-72.7
186.118	119.81
186.338	5.12
186.557	76.8
186.777	-66.56
186.997	-23.55
187.216	-15.36
187.436	136.19
187.655	87.04
187.875	121.85
188.095	66.56
188.314	89.09
188.534	66.56
188.753	17.41
188.973	70.65
189.192	209.92
189.412	54.27
189.631	37.89
189.851	109.57
190.07	185.34
190.29	-54.27
190.509	-46.08
190.729	93.18
190.948	95.23
191.168	269.31
191.387	58.37
191.607	76.8
191.826	54.27
192.045	15.36
192.265	-91.13
192.484	72.7
192.704	56.32
192.923	9.22
193.142	144.38
193.362	201.72
193.581	130.05
193.8	70.65
194.02	107.52
194.239	-15.36
194.458	109.57
194.678	15.36
194.897	-9.22
195.116	62.46
195.335	89.09
195.555	74.75
195.774	27.65
195.993	56.32
196.212	-33.79
196.432	-25.6
196.651	52.22
196.87	39.94
197.089	261.12
197.308	17.41
197.528	52.22
197.747	-13.31
197.966	19.46
198.185	89.09
198.404	-23.55
198.623	175.1
198.842	91.13
199.062	115.71
199.281	80.89
199.5	25.6
199.719	27.65
199.938	62.46
200.157	74.75
200.376	164.86
200.595	136.19
200.814	87.04
201.033	-9.22
201.252	205.82
201.471	64.51
201.69	72.7
201.909	19.46
202.128	93.18
202.347	33.79
202.566	-31.74
202.785	-1.02
203.004	5.12
203.223	318.46
203.442	50.18
203.661	-128
203.879	68.61
204.098	107.52
204.317	35.84
204.536	138.24
204.755	60.42
204.974	101.37
205.193	-15.36
205.411	91.13
205.63	37.89
205.849	23.55
206.068	15.36
206.287	3.07
206.505	150.53
206.724	25.6
206.943	-1.02
207.162	31.74
207.381	60.42
207.599	23.55
207.818	37.89
208.037	-50.18
208.255	97.28
208.474	41.98
208.693	64.51
208.911	-31.74
209.13	91.13
209.349	140.29
209.567	89.09
209.786	27.65
210.005	132.09
210.223	-7.17
210.442	-142.33
210.661	9.22
210.879	78.85
211.098	62.46
211.316	60.42
211.535	17.41
211.753	46.08
211.972	103.42
212.191	23.55
212.409	-17.41
212.628	173.05
212.846	52.22
213.065	68.61
213.283	119.81
213.502	50.18
213.72	35.84
213.938	27.65
214.157	7.17
214.375	41.98
214.594	54.27
214.812	87.04
215.031	-19.46
215.249	15.36
215.467	33.79
215.686	99.33
215.904	99.33
216.122	-11.26
216.341	158.72
216.559	1.02
216.778	84.99
216.996	164.86
217.214	19.46
217.432	-17.41
217.651	-9.22
217.869	33.79
218.087	41.98
218.306	3.07
218.524	48.13
218.742	44.03
218.96	66.56
219.179	-29.7
219.397	-27.65
219.615	193.53
219.833	62.46
220.051	-33.79
220.27	95.23
220.488	185.34
220.706	11.26
220.924	-1.02
221.142	-41.98
221.36	-17.41
221.578	46.08
221.796	13.31
222.015	52.22
222.233	23.55
222.451	175.1
222.669	-17.41
222.887	80.89
223.105	-13.31
223.323	66.56
223.541	-46.08
223.759	89.09
223.977	68.61
224.195	132.09
224.413	95.23
224.631	58.37
224.849	54.27
225.067	265.21
225.285	-25.6
225.503	19.46
225.721	-41.98
225.939	121.85
226.157	101.37
226.375	238.59
226.592	-54.27
226.81	37.89
227.028	84.99
227.246	91.13
227.464	3.07
227.682	89.09
227.9	35.84
228.117	15.36
228.335	68.61
228.553	21.5
228.771	23.55
228.989	31.74
229.206	171.01
229.424	27.65
229.642	23.55
229.86	1.02
230.077	74.75
230.295	97.28
230.513	41.98
230.731	39.94
230.948	162.81
231.166	134.14
231.384	56.32
231.601	-3.07
231.819	115.71
232.037	76.8
232.254	9.22
232.472	31.74
232.689	7.17
232.907	101.37
233.125	17.41
233.342	-58.37
233.56	17.41
233.777	1.02
233.995	82.94
234.213	123.9
234.43	164.86
234.648	-5.12
234.865	74.75
235.083	50.18
235.3	99.33
235.518	41.98
235.735	60.42
235.953	121.85
236.17	27.65
236.388	37.89
236.605	41.98
236.822	130.05
237.04	97.28
237.257	48.13
237.475	21.5
237.692	72.7
237.909	87.04
238.127	-21.5
238.344	76.8
238.562	13.31
238.779	-62.46
238.996	-64.51
239.214	78.85
239.431	-48.13
239.648	-19.46
239.865	56.32
240.083	158.72
240.3	37.89
240.517	-9.22
240.735	121.85
240.952	138.24
241.169	121.85
241.386	60.42
241.603	15.36
241.821	-21.5
242.038	164.86
242.255	-5.12
242.472	-62.46
242.689	84.99
242.907	123.9
243.124	97.28
243.341	-11.26
243.558	-27.65
243.775	-9.22
243.992	-33.79
244.209	97.28
244.426	201.72
244.643	123.9
244.86	-35.84
245.078	119.81
245.295	121.85
245.512	56.32
245.729	35.84
245.946	58.37
246.163	150.53
246.38	11.26
246.597	15.36
246.814	58.37
247.031	80.89
247.248	68.61
247.464	70.65
247.681	68.61
247.898	128
248.115	44.03
248.332	58.37
248.549	70.65
248.766	164.86
248.983	123.9
249.2	99.33
249.417	115.71
249.633	7.17
249.85	-7.17
250.067	27.65
250.284	21.5
250.501	134.14
250.717	37.89
250.934	-3.07
251.151	56.32
251.368	21.5
251.585	91.13
251.801	80.89
252.018	-105.47
252.235	80.89
252.451	-93.18
252.668	3.07
252.885	76.8
253.102	17.41
253.318	-60.42
253.535	23.55
253.752	-37.89
253.968	-31.74
254.185	-35.84
254.401	78.85
254.618	64.51
254.835	33.79
255.051	99.33
255.268	101.37
255.484	91.13
255.701	-48.13
255.917	44.03
256.134	-23.55
256.351	117.76
256.567	-44.03
256.784	125.95
257	-101.37
257.217	117.76
257.433	117.76
257.65	115.71
257.866	95.23
258.082	-13.31
258.299	25.6
258.515	48.13
258.732	62.46
258.948	-29.7
259.165	82.94
259.381	-66.56
259.597	58.37
259.814	5.12
260.03	91.13
260.246	-74.75
260.463	142.33
260.679	154.62
260.895	91.13
261.112	44.03
261.328	11.26
261.544	52.22
261.761	142.33
261.977	19.46
262.193	-54.27
262.409	99.33
262.626	54.27
262.842	-15.36
263.058	21.5
263.274	107.52
263.49	78.85
263.707	119.81
263.923	1.02
264.139	-19.46
264.355	31.74
264.571	119.81
264.787	109.57
265.004	80.89
265.22	44.03
265.436	44.03
265.652	91.13
265.868	-50.18
266.084	15.36
266.3	-7.17
266.516	15.36
266.732	66.56
266.948	-3.07
267.164	19.46
267.38	105.47
267.596	5.12
267.812	138.24
268.028	58.37
268.244	19.46
268.46	52.22
268.676	37.89
268.892	101.37
269.108	9.22
269.324	-60.42
269.54	21.5
269.756	87.04
269.972	-41.98
270.188	72.7
270.403	-111.61
270.619	-29.7
270.835	39.94
271.051	89.09
271.267	39.94
271.483	-29.7
271.698	27.65
271.914	41.98
272.13	-11.26
272.346	11.26
272.562	58.37
272.777	93.18
272.993	27.65
273.209	-80.89
273.425	95.23
273.64	-9.22
273.856	50.18
274.072	-72.7
274.287	-46.08
274.503	103.42
274.719	68.61
274.934	27.65
275.15	-54.27
275.366	44.03
275.581	-19.46
275.797	21.5
276.012	72.7
276.228	-17.41
276.444	33.79
276.659	97.28
276.875	-5.12
277.09	58.37
277.306	29.7
277.521	-1.02
277.737	68.61
277.952	62.46
278.168	-7.17
278.383	1.02
278.599	1.02
278.814	150.53
279.03	19.46
279.245	171.01
279.461	3.07
279.676	68.61
279.892	-78.85
280.107	-80.89
280.322	3.07
280.538	46.08
280.753	-11.26
280.969	66.56
281.184	76.8
281.399	84.99
281.615	27.65
281.83	95.23
282.045	13.31
282.26	-46.08
282.476	46.08
282.691	39.94
282.906	39.94
283.122	119.81
283.337	-5.12
283.552	115.71
283.767	105.47
283.983	105.47
284.198	31.74
284.413	64.51
284.628	-5.12
284.843	111.61
285.058	115.71
285.274	-21.5
285.489	-5.12
285.704	162.81
285.919	-50.18
286.134	23.55
286.349	21.5
286.564	5.12
286.779	50.18
286.995	50.18
287.21	-70.65
287.425	29.7
287.64	-39.94
287.855	41.98
288.07	-84.99
288.285	103.42
288.5	148.48
288.715	41.98
288.93	5.12
289.145	-119.81
289.36	44.03
289.575	11.26
289.79	121.85
290.004	-3.07
290.219	115.71
290.434	-9.22
290.649	-21.5
290.864	-54.27
291.079	80.89
291.294	41.98
291.509	62.46
291.724	15.36
291.938	52.22
292.153	123.9
292.368	7.17
292.583	107.52
292.798	171.01
293.012	78.85
293.227	101.37
293.442	54.27
293.657	134.14
293.871	93.18
294.086	-3.07
294.301	154.62
294.516	168.96
294.73	23.55
294.945	-48.13
295.16	-7.17
295.374	150.53
295.589	41.98
295.804	15.36
296.018	132.09
296.233	113.66
296.447	52.22
296.662	-46.08
296.877	84.99
297.091	119.81
297.306	15.36
297.52	-11.26
297.735	39.94
297.949	91.13
298.164	39.94
298.378	138.24
298.593	7.17
298.807	-23.55
299.022	29.7
299.236	175.1
299.451	-68.61
299.665	37.89
299.88	-58.37
300.094	54.27
300.309	35.84
300.523	13.31
300.737	-46.08
300.952	50.18
301.166	-7.17
301.381	-72.7
301.595	29.7
301.809	105.47
302.024	142.33
302.238	37.89
302.452	209.92
302.667	66.56
302.881	111.61
303.095	52.22
303.309	78.85
303.524	70.65
303.738	58.37
303.952	-33.79
304.166	187.39
304.381	-76.8
304.595	207.87
304.809	11.26
305.023	-27.65
305.237	-13.31
305.452	3.07
305.666	119.81
305.88	99.33
306.094	158.72
306.308	95.23
306.522	27.65
306.736	109.57
306.95	70.65
307.164	23.55
307.379	15.36
307.593	138.24
307.807	150.53
308.021	117.76
308.235	9.22
308.449	-111.61
308.663	35.84
308.877	287.74
309.091	-7.17
309.305	117.76
309.519	-93.18
309.733	29.7
309.947	-54.27
310.161	144.38
310.374	99.33
310.588	105.47
310.802	-23.55
311.016	1.02
311.23	46.08
311.444	-37.89
311.658	33.79
311.872	95.23
312.085	150.53
312.299	121.85
312.513	158.72
312.727	48.13
312.941	70.65
313.154	46.08
313.368	35.84
313.582	27.65
313.796	11.26
314.009	-1.02
314.223	228.35
314.437	54.27
314.651	109.57
314.864	21.5
315.078	-9.22
315.292	-52.22
315.505	13.31
315.719	140.29
315.933	15.36
316.146	35.84
316.36	-72.7
316.573	148.48
316.787	109.57
317.001	7.17
317.214	-15.36
317.428	46.08
317.641	-21.5
317.855	-21.5
318.068	29.7
318.282	-21.5
318.495	252.92
318.709	1.02
318.922	11.26
319.136	156.67
319.349	101.37
319.563	5.12
319.776	23.55
319.99	-125.95
320.203	91.13
320.417	21.5
320.63	144.38
320.843	152.57
321.057	17.41
321.27	-29.7
321.483	68.61
321.697	60.42
321.91	39.94
322.124	37.89
322.337	101.37
322.55	-101.37
322.763	5.12
322.977	41.98
323.19	9.22
323.403	54.27
323.617	97.28
323.83	84.99
324.043	52.22
324.256	11.26
324.469	-9.22
324.683	152.57
324.896	-21.5
325.109	39.94
325.322	-66.56
325.535	-9.22
325.748	89.09
325.962	15.36
326.175	68.61
326.388	89.09
326.601	93.18
326.814	89.09
327.027	87.04
327.24	152.57
327.453	-78.85
327.666	130.05
327.879	119.81
328.092	54.27
328.305	148.48
328.518	19.46
328.731	-25.6
328.944	41.98
329.157	39.94
329.37	78.85
329.583	123.9
329.796	121.85
330.009	-19.46
330.222	105.47
330.435	111.61
330.648	64.51
330.861	31.74
331.073	70.65
331.286	68.61
331.499	31.74
331.712	-52.22
331.925	1.02
332.138	-5.12
332.35	142.33
332.563	-35.84
332.776	101.37
332.989	-60.42
333.202	15.36
333.414	93.18
333.627	23.55
333.84	58.37
334.053	39.94
334.265	35.84
334.478	23.55
334.691	7.17
334.903	31.74
335.116	46.08
335.329	-25.6
335.541	-17.41
335.754	128
335.966	-13.31
336.179	-37.89
336.392	-74.75
336.604	37.89
336.817	142.33
337.029	78.85
337.242	87.04
337.454	103.42
337.667	99.33
337.88	128
338.092	99.33
338.305	58.37
338.517	44.03
338.729	60.42
338.942	164.86
339.154	-11.26
339.367	-78.85
339.579	95.23
339.792	-21.5
340.004	62.46
340.217	101.37
340.429	62.46
340.641	-37.89
340.854	7.17
341.066	44.03
341.278	152.57
341.491	173.05
341.703	17.41
341.915	-13.31
342.128	123.9
342.34	132.09
342.552	-3.07
342.764	46.08
342.977	62.46
343.189	68.61
343.401	84.99
343.613	13.31
343.826	134.14
344.038	-91.13
344.25	93.18
344.462	-33.79
344.674	58.37
344.886	74.75
345.099	60.42
345.311	46.08
345.523	76.8
345.735	-31.74
345.947	64.51
346.159	84.99
346.371	54.27
346.583	21.5
346.795	187.39
347.007	31.74
347.219	33.79
347.431	9.22
347.643	130.05
347.855	-31.74
348.067	168.96
348.279	-101.37
348.491	15.36
348.703	107.52
348.915	44.03
349.127	-25.6
349.339	27.65
349.551	-31.74
349.763	138.24
349.975	15.36
350.187	142.33
350.399	177.15
350.61	111.61
350.822	-25.6
351.034	66.56
351.246	144.38
351.458	132.09
351.669	84.99
351.881	95.23
352.093	82.94
352.305	50.18
352.517	89.09
352.728	134.14
352.94	35.84
353.152	111.61
353.363	-74.75
353.575	56.32
353.787	185.34
353.999	50.18
354.21	142.33
354.422	-15.36
354.633	31.74
354.845	-7.17
355.057	31.74
355.268	-13.31
355.48	130.05
355.692	-76.8
355.903	87.04
356.115	48.13
356.326	-31.74
356.538	117.76
356.749	117.76
356.961	140.29
357.172	44.03
357.384	-33.79
357.595	222.2
357.807	-3.07
358.018	-46.08
358.23	15.36
358.441	162.81
358.653	56.32
358.864	-9.22
359.075	-54.27
359.287	58.37
359.498	111.61
359.709	80.89
359.921	109.57
360.132	11.26
360.344	13.31
360.555	-5.12
360.766	-11.26
360.977	-29.7
361.189	113.66
361.4	62.46
361.611	164.86
361.823	115.71
362.034	123.9
362.245	-105.47
362.456	7.17
362.667	80.89
362.879	-58.37
363.09	11.26
363.301	35.84
363.512	78.85
363.723	-39.94
363.935	25.6
364.146	119.81
364.357	-54.27
364.568	39.94
364.779	-33.79
364.99	54.27
365.201	-68.61
365.412	136.19
365.623	-128
365.834	35.84
366.045	33.79
366.256	105.47
366.467	148.48
366.678	33.79
366.889	52.22
367.1	44.03
367.311	216.06
367.522	-5.12
367.733	21.5
367.944	154.62
368.155	66.56
368.366	46.08
368.577	191.49
368.788	130.05
368.999	-15.36
369.209	7.17
369.42	236.54
369.631	214.01
369.842	103.42
370.053	54.27
370.264	150.53
370.474	-39.94
370.685	41.98
370.896	11.26
371.107	60.42
371.317	58.37
371.528	-21.5
371.739	68.61
371.95	80.89
372.16	44.03
372.371	-156.67
372.582	-1.02
372.792	66.56
373.003	78.85
373.214	130.05
373.424	58.37
373.635	-19.46
373.846	193.53
374.056	93.18
374.267	101.37
374.477	72.7
374.688	-93.18
374.898	52.22
375.109	44.03
375.319	87.04
375.53	125.95
375.74	56.32
375.951	9.22
376.161	21.5
376.372	44.03
376.582	19.46
376.793	46.08
377.003	27.65
377.214	13.31
377.424	91.13
377.635	41.98
377.845	33.79
378.055	146.43
378.266	37.89
378.476	15.36
378.686	31.74
378.897	9.22
379.107	111.61
379.317	72.7
379.528	-17.41
379.738	156.67
379.948	-74.75
380.158	138.24
380.369	68.61
380.579	111.61
380.789	56.32
380.999	48.13
381.21	138.24
381.42	205.82
381.63	37.89
381.84	105.47
382.05	56.32
382.261	60.42
382.471	105.47
382.681	-11.26
382.891	148.48
383.101	17.41
383.311	-27.65
383.521	23.55
383.731	52.22
383.941	82.94
384.151	3.07
384.361	33.79
384.571	15.36
384.781	48.13
384.991	119.81
385.201	173.05
385.411	181.25
385.621	35.84
385.831	54.27
386.041	60.42
386.251	23.55
386.461	185.34
386.671	-58.37
386.881	7.17
387.091	64.51
387.301	123.9
387.511	-23.55
387.72	119.81
387.93	177.15
388.14	-74.75
388.35	25.6
388.56	125.95
388.769	109.57
388.979	27.65
389.189	-25.6
389.399	-15.36
389.609	44.03
389.818	119.81
390.028	87.04
390.238	31.74
390.447	-7.17
390.657	68.61
390.867	5.12
391.076	-113.66
391.286	56.32
391.496	-25.6
391.705	17.41
391.915	111.61
392.125	93.18
392.334	33.79
392.544	162.81
392.753	44.03
392.963	5.12
393.172	27.65
393.382	44.03
393.591	179.2
393.801	-70.65
394.01	181.25
394.22	158.72
394.429	56.32
394.639	9.22
394.848	89.09
395.058	54.27
395.267	46.08
395.477	44.03
395.686	119.81
395.895	158.72
396.105	132.09
396.314	128
396.524	11.26
396.733	-25.6
396.942	152.57
397.152	93.18
397.361	105.47
397.57	-19.46
397.78	-46.08
397.989	121.85
398.198	138.24
398.407	50.18
398.617	48.13
398.826	33.79
399.035	62.46
399.244	82.94
399.453	136.19
399.663	44.03
399.872	7.17
400.081	3.07
400.29	111.61
400.499	-48.13
400.708	119.81
400.917	68.61
401.127	7.17
401.336	1.02
401.545	130.05
401.754	191.49
401.963	144.38
402.172	-5.12
402.381	-21.5
402.59	33.79
402.799	5.12
403.008	105.47
403.217	64.51
403.426	64.51
403.635	-50.18
403.844	-48.13
404.053	3.07
404.262	74.75
404.471	111.61
404.68	66.56
404.888	48.13
405.097	1.02
405.306	138.24
405.515	123.9
405.724	39.94
405.933	166.91
406.142	76.8
406.35	78.85
406.559	21.5
406.768	68.61
406.977	181.25
407.185	-1.02
407.394	29.7
407.603	-52.22
407.812	-11.26
408.02	123.9
408.229	50.18
408.438	60.42
408.646	-9.22
408.855	68.61
409.064	52.22
409.272	121.85
409.481	89.09
409.69	-44.03
409.898	5.12
410.107	80.89
410.315	60.42
410.524	-35.84
410.733	29.7
410.941	-25.6
411.15	105.47
411.358	62.46
411.567	164.86
411.775	37.89
411.984	64.51
412.192	125.95
412.401	7.17
412.609	125.95
412.818	97.28
413.026	62.46
413.234	109.57
413.443	58.37
413.651	5.12
413.86	68.61
414.068	101.37
414.276	173.05
414.485	-31.74
414.693	130.05
414.901	105.47
415.11	146.43
415.318	37.89
415.526	117.76
415.734	101.37
415.943	44.03
416.151	105.47
416.359	-13.31
416.567	103.42
416.776	84.99
416.984	64.51
417.192	101.37
417.4	25.6
417.608	19.46
417.817	-9.22
418.025	48.13
418.233	166.91
418.441	50.18
418.649	-19.46
418.857	33.79
419.065	189.44
419.273	3.07
419.481	25.6
419.689	50.18
419.897	37.89
420.105	-44.03
420.313	33.79
420.521	111.61
420.729	140.29
420.937	64.51
421.145	-9.22
421.353	164.86
421.561	164.86
421.769	60.42
421.977	89.09
422.185	95.23
422.393	117.76
422.601	17.41
422.809	74.75
423.017	132.09
423.224	74.75
423.432	140.29
423.64	27.65
423.848	115.71
424.056	33.79
424.263	123.9
424.471	64.51
424.679	228.35
424.887	-15.36
425.094	134.14
425.302	105.47
425.51	87.04
425.718	52.22
425.925	84.99
426.133	-1.02
426.341	201.72
426.548	31.74
426.756	-70.65
426.964	84.99
427.171	132.09
427.379	-1.02
427.586	70.65
427.794	103.42
428.001	136.19
428.209	66.56
428.417	173.05
428.624	56.32
428.832	191.49
429.039	132.09
429.247	121.85
429.454	166.91
429.662	154.62
429.869	52.22
430.076	64.51
430.284	154.62
430.491	220.16
430.699	123.9
430.906	168.96
431.114	121.85
431.321	84.99
431.528	154.62
431.736	109.57
431.943	136.19
432.15	156.67
432.358	130.05
432.565	248.83
432.772	17.41
432.979	183.29
433.187	113.66
433.394	150.53
433.601	97.28
433.808	150.53
434.016	177.15
434.223	160.77
434.43	228.35
434.637	297.98
434.844	250.88
435.052	205.82
435.259	283.64
435.466	201.72
435.673	185.34
435.88	252.92
436.087	257.02
436.294	328.7
436.501	320.51
436.708	216.06
436.915	250.88
437.122	267.26
437.329	320.51
437.537	261.12
437.743	326.65
437.95	515.06
438.157	302.08
438.364	310.27
438.571	377.85
438.778	363.51
438.985	386.04
439.192	441.34
439.399	302.08
439.606	318.46
439.813	414.71
440.02	510.97
440.227	590.84
440.433	427
440.64	437.24
440.847	398.33
441.054	498.68
441.261	574.46
441.467	498.68
441.674	492.54
441.881	674.81
442.088	611.32
442.294	654.33
442.501	654.33
442.708	730.1
442.914	748.53
443.121	814.07
443.328	844.79
443.534	824.31
443.741	783.35
443.948	730.1
444.154	814.07
444.361	984.05
444.568	975.86
444.774	895.99
444.981	746.48
445.187	1078.26
445.394	1006.58
445.6	1080.3
445.807	1141.74
446.013	1108.98
446.22	1092.59
446.426	1313.77
446.633	1225.71
446.839	1534.95
447.046	1145.84
447.252	1422.31
447.459	1274.86
447.665	1410.03
447.871	1592.3
448.078	1680.36
448.284	1666.02
448.491	1797.09
448.697	1805.28
448.903	1881.06
449.11	1868.77
449.316	1915.87
449.522	2034.66
449.728	2089.95
449.935	2130.91
450.141	2169.82
450.347	2261.98
450.553	2386.91
450.76	2399.2
450.966	2593.75
451.172	2540.51
451.378	2702.29
451.584	2638.81
451.791	2925.52
451.997	2939.86
452.203	3126.22
452.409	3300.3
452.615	3400.65
452.821	3265.49
453.027	3228.62
453.233	3713.99
453.44	3679.18
453.646	3918.79
453.852	4070.34
454.058	4209.6
454.264	4207.55
454.47	4631.48
454.676	4658.1
454.882	5106.61
455.088	4774.84
455.294	5067.7
455.5	5376.94
455.705	5540.78
455.911	5651.37
456.117	5911.46
456.323	5989.28
456.529	6015.91
456.735	6775.7
456.941	6822.81
457.147	6831
457.352	7144.34
457.558	7373.71
457.764	7865.22
457.97	8055.69
458.176	8295.3
458.381	8813.43
458.587	8962.94
458.793	9483.12
458.999	9517.93
459.204	10400.61
459.41	10947.42
459.616	10716
459.821	11395.92
460.027	12059.46
460.233	12395.33
460.438	12366.66
460.644	13214.52
460.85	13413.17
461.055	14189.35
461.261	14584.61
461.466	14406.44
461.672	14469.92
461.878	16360.2
462.083	16081.67
462.289	16349.96
462.494	16851.71
462.7	16978.68
462.905	17367.8
463.111	19014.37
463.316	19845.84
463.522	20140.75
463.727	20701.89
463.932	21357.24
464.138	22160.05
464.343	23073.44
464.549	23048.86
464.754	24713.86
464.959	25635.45
465.165	26067.57
465.37	25746.04
465.575	25875.06
465.781	27372.13
465.986	28369.49
466.191	27822.68
466.397	28275.28
466.602	27439.71
466.807	28813.9
467.012	29510.21
467.218	29927.99
467.423	29923.9
467.628	31214.12
467.833	32582.16
468.038	31955.48
468.244	31275.55
468.449	32920.07
468.654	32250.39
468.859	32016.92
469.064	31978.01
469.269	31459.87
469.474	31717.92
469.679	32698.89
469.885	31554.08
470.09	32246.29
470.295	32690.7
470.5	31531.55
470.705	31549.98
470.91	30921.26
471.115	30335.54
471.32	30974.5
471.525	30833.19
471.73	29948.47
471.935	29536.83
472.139	28449.36
472.344	28965.45
472.549	28439.12
472.754	27832.92
472.959	27089.51
473.164	26319.47
473.369	26329.71
473.574	26692.2
473.778	26116.72
473.983	25698.94
474.188	25039.49
474.393	24154.77
474.598	24078.99
474.802	23341.72
475.007	23190.17
475.212	23044.77
475.417	22215.34
475.621	21723.83
475.826	21725.88
476.031	21228.22
476.235	20673.22
476.44	20656.84
476.645	20161.23
476.849	19675.86
477.054	19645.14
477.259	18961.12
477.463	19024.61
477.668	18739.94
477.872	18612.96
478.077	18131.69
478.282	17427.19
478.486	17279.74
478.691	17099.52
478.895	17027.84
479.1	16823.04
479.304	17085.18
479.509	16204.55
479.713	16560.9
479.918	16102.15
480.122	15790.86
480.326	16007.95
480.531	16186.12
480.735	15676.18
480.94	15627.03
481.144	15928.08
481.348	15252.25
481.553	15336.21
481.757	14650.14
481.961	15037.21
482.166	14977.82
482.37	14938.91
482.574	14555.94
482.778	14578.47
482.983	14539.55
483.187	14308.13
483.391	14138.15
483.595	13988.65
483.8	13513.52
484.004	13830.96
484.208	13798.19
484.412	13677.36
484.616	13531.95
484.821	13425.46
485.025	13036.35
485.229	13054.78
485.433	12868.41
485.637	12704.57
485.841	12157.77
486.045	12286.79
486.249	12229.45
486.453	11909.96
486.657	11852.62
486.861	11653.97
487.065	11410.26
487.269	11510.61
487.473	10931.03
487.677	11064.15
487.881	11137.88
488.085	10453.86
488.289	10646.37
488.493	10017.64
488.697	10349.41
488.901	9886.57
489.105	9931.62
489.309	9472.88
489.512	9550.7
489.716	9329.52
489.92	9040.76
490.124	9139.06
490.328	8813.43
490.531	8459.13
490.735	8473.47
490.939	8403.84
491.143	8211.33
491.346	8094.6
491.55	7902.09
491.754	7625.61
491.958	7666.57
492.161	7527.31
492.365	7222.16
492.569	7218.07
492.772	7138.2
492.976	7220.11
493.18	6982.55
493.383	6753.18
493.587	6927.25
493.79	6833.05
493.994	6384.54
494.197	6499.23
494.401	6626.2
494.605	6339.49
494.808	6443.93
495.012	6282.14
495.215	6288.29
495.419	6499.23
495.622	6126.5
495.825	6226.85
496.029	6028.2
496.232	5979.04
496.436	5968.8
496.639	6247.33
496.843	5788.58
497.046	5962.66
497.249	6110.11
497.453	5870.5
497.656	5907.37
497.859	5923.75
498.063	6017.96
498.266	6136.74
498.469	5870.5
498.673	5950.37
498.876	5989.28
499.079	6106.02
499.282	6056.87
499.485	6177.7
499.689	6048.68
499.892	6382.49
500.095	6130.59
500.298	6224.8
500.501	6144.93
500.705	6386.59
500.908	6222.75
501.111	6220.71
501.314	6423.45
501.517	6622.11
501.72	6732.7
501.923	6546.33
502.126	6628.25
502.329	6683.55
502.532	6777.75
502.735	6773.66
502.938	7130
503.141	7152.53
503.344	6968.21
503.547	7297.94
503.75	7209.87
503.953	7287.7
504.156	7449.49
504.359	7635.85
504.562	7400.34
504.765	7750.54
504.968	7910.28
505.17	7949.19
505.373	8133.51
505.576	8289.15
505.779	8287.11
505.982	8274.82
506.185	8553.34
506.387	8727.42
506.59	9151.35
506.793	9108.34
506.996	9247.6
507.198	9311.09
507.401	9552.75
507.604	9583.47
507.807	9966.44
508.009	10253.16
508.212	10302.31
508.415	10564.45
508.617	10742.62
508.82	10855.26
509.022	11139.93
509.225	11535.18
509.428	11469.65
509.63	11764.56
509.833	12020.55
510.035	12739.39
510.238	12579.65
510.44	12692.29
510.643	12970.81
510.845	13495.09
511.048	13423.41
511.25	13904.68
511.453	14228.26
511.655	14793.5
511.858	14887.71
512.06	15268.63
512.262	15647.51
512.465	15665.94
512.667	16036.62
512.87	16497.41
513.072	16734.98
513.274	17353.46
513.477	17824.5
513.679	18227.95
513.881	18561.76
514.084	18969.31
514.286	19280.6
514.488	19700.44
514.69	20296.39
514.893	20816.58
515.095	21197.5
515.297	21799.6
515.499	22008.5
515.701	22702.76
515.904	22932.13
516.106	23673.49
516.308	23671.45
516.51	24431.24
516.712	24603.27
516.914	25451.13
517.116	25803.38
517.318	26489.45
517.52	26747.5
517.722	27288.16
517.925	27802.2
518.127	28951.11
518.329	29135.43
518.531	29354.56
518.733	30151.22
518.935	30245.43
519.136	30816.81
519.338	31791.64
519.54	31922.71
519.742	32563.73
519.944	33057.29
520.146	33634.81
520.348	34003.45
520.55	34324.98
520.752	34734.57
520.954	35265
521.155	35527.14
521.357	36512.21
521.559	36663.76
521.761	37370.31
521.963	37347.78
522.164	37751.23
522.366	38420.92
522.568	38486.45
522.77	38734.26
522.971	39299.5
523.173	39201.19
523.375	39895.46
523.576	39641.51
523.778	40010.14
523.98	40219.03
524.181	40626.58
524.383	40577.43
524.584	41175.44
524.786	40935.82
524.988	41054.61
525.189	41267.59
525.391	41361.8
525.592	41531.78
525.794	41535.88
525.995	41294.22
526.197	41744.77
526.398	41636.23
526.6	41451.91
526.801	41083.28
527.003	41425.29
527.204	40739.22
527.406	41124.24
527.607	40825.23
527.808	41533.83
528.01	40335.77
528.211	40542.61
528.412	40591.76
528.614	40591.76
528.815	39438.76
529.016	40036.77
529.218	39225.77
529.419	39387.56
529.62	39123.37
529.822	38406.58
530.023	38091.19
530.224	37902.78
530.425	37640.64
530.626	36692.43
530.828	36319.7
531.029	36862.41
531.23	36196.82
531.431	35656.16
531.632	35273.19
531.833	35133.93
532.035	34505.2
532.236	34085.37
532.437	33808.89
532.638	33245.7
532.839	33088.01
533.04	32504.34
533.241	31896.09
533.442	32332.31
533.643	31343.14
533.844	30999.08
534.045	30548.53
534.246	29966.9
534.447	29854.26
534.648	29637.18
534.849	29192.77
535.05	28342.86
535.251	28185.17
535.451	28015.19
535.652	27789.91
535.853	27122.27
536.054	26989.16
536.255	26528.36
536.456	25821.81
536.657	26077.81
536.857	25496.19
537.058	25008.77
537.259	25258.62
537.46	24386.19
537.66	24117.9
537.861	23968.4
538.062	23685.78
538.263	23106.21
538.463	23091.87
538.664	22526.63
538.865	22590.12
539.065	22377.13
539.266	21598.9
539.466	21746.36
539.667	21330.62
539.868	21385.91
540.068	20832.96
540.269	20474.57
540.469	20562.63
540.67	20067.02
540.87	19858.13
541.071	19559.13
541.271	19524.31
541.472	19278.55
541.672	18934.5
541.873	18690.79
542.073	18168.55
542.274	18289.38
542.474	18174.7
542.675	17894.13
542.875	17865.46
543.075	17378.04
543.276	16988.92
543.476	17199.87
543.676	16909.05
543.877	16460.55
544.077	16558.85
544.277	16225.03
544.478	16222.98
544.678	15934.22
544.878	15794.96
545.078	15782.67
545.279	15459.09
545.479	15129.37
545.679	14973.72
545.879	14834.46
546.079	14734.11
546.28	14408.48
546.48	14261.03
546.68	14347.05
546.88	14215.98
547.08	14283.56
547.28	13931.31
547.48	13488.95
547.68	13787.95
547.88	13124.41
548.081	13136.7
548.281	12815.16
548.481	12708.67
548.681	12813.12
548.881	12673.85
549.081	12303.17
549.28	12112.71
549.48	12008.26
549.68	11840.33
549.88	12032.84
550.08	11320.15
550.28	11262.8
550.48	11309.91
550.68	11266.9
550.88	11049.82
551.08	10992.47
551.279	10707.8
551.479	10357.6
551.679	10283.88
551.879	10089.32
552.079	10034.02
552.278	9902.95
552.478	9636.72
552.678	9810.79
552.878	9474.93
553.077	9202.55
553.277	8924.02
553.477	9124.72
553.676	8926.07
553.876	8844.15
554.076	8438.66
554.275	8520.57
554.475	8436.61
554.674	8280.96
554.874	8258.43
555.074	7709.58
555.273	7865.22
555.473	7580.56
555.672	7443.34
555.872	7463.82
556.071	7447.44
556.271	7230.35
556.47	7209.87
556.67	6898.58
556.869	6927.25
557.068	6888.34
557.268	6636.44
557.467	6583.2
557.667	6542.24
557.866	6357.92
558.065	6251.42
558.265	6138.79
558.464	5886.89
558.663	5983.14
558.863	5815.21
559.062	5870.5
559.261	5432.24
559.461	5655.47
559.66	5284.78
559.859	5315.5
560.058	5274.54
560.258	5053.36
560.457	5120.95
560.656	5147.57
560.855	4830.13
561.054	5002.16
561.253	4758.46
561.453	4686.78
561.652	4694.97
561.851	4639.67
562.05	4504.51
562.249	4383.68
562.448	4332.48
562.647	4262.85
562.846	4412.35
563.045	4295.61
563.244	4076.48
563.443	4084.67
563.642	3904.45
563.841	3931.08
564.04	3810.25
564.239	3873.73
564.438	3746.76
564.637	3556.3
564.836	3691.46
565.035	3353.55
565.234	3642.31
565.432	3468.24
565.631	3460.04
565.83	3386.32
566.029	3486.67
566.228	3259.34
566.427	3312.59
566.625	3058.64
566.824	3140.56
567.023	3099.6
567.222	3060.69
567.42	2995.15
567.619	3013.59
567.818	2872.28
568.016	3173.33
568.215	2733.01
568.414	2980.82
568.612	2806.74
568.811	2720.73
569.01	2749.4
569.208	2585.56
569.407	2649.05
569.605	2542.55
569.804	2497.5
570.002	2573.27
570.201	2399.2
570.4	2577.37
570.598	2356.19
570.797	2245.6
570.995	2227.17
571.193	2083.81
571.392	2245.6
571.59	2055.14
571.789	2175.97
571.987	2167.77
572.186	2204.64
572.384	1969.12
572.582	2032.61
572.781	1997.79
572.979	1844.2
573.177	1899.49
573.376	1940.45
573.574	1911.78
573.772	1813.48
573.971	1745.89
574.169	1672.17
574.367	1586.15
574.565	1764.33
574.763	1641.45
574.962	1635.3
575.16	1602.54
575.358	1547.24
575.556	1528.81
575.754	1455.08
575.952	1592.3
576.151	1541.1
576.349	1496.04
576.547	1416.17
576.745	1434.6
576.943	1455.08
577.141	1264.62
577.339	1389.55
577.537	1362.92
577.735	1395.69
577.933	1434.6
578.131	1180.65
578.329	1346.54
578.527	1272.81
578.725	1240.05
578.923	1131.5
579.121	1149.93
579.319	1199.09
579.516	1129.45
579.714	1375.21
579.912	1061.87
580.11	910.32
580.308	1088.5
580.506	949.23
580.704	898.03
580.901	1027.06
581.099	1205.23
581.297	1090.54
581.495	938.99
581.692	996.34
581.89	1000.43
582.088	1016.82
582.285	1045.49
582.483	781.3
582.681	1041.39
582.878	797.68
583.076	957.43
583.274	885.75
583.471	1010.67
583.669	818.16
583.866	828.4
584.064	832.5
584.262	771.06
584.459	672.76
584.657	754.68
584.854	859.12
585.052	691.19
585.249	779.25
585.447	832.5
585.644	627.7
585.841	809.97
586.039	715.77
586.236	799.73
586.434	703.48
586.631	644.09
586.828	588.79
587.026	723.96
587.223	590.84
587.42	596.98
587.618	709.62
587.815	691.19
588.012	562.17
588.21	654.33
588.407	623.61
588.604	697.33
588.801	617.46
588.999	558.07
589.196	625.65
589.393	603.13
589.59	455.67
589.787	566.26
589.984	596.98
590.182	539.64
590.379	502.78
590.576	529.4
590.773	592.89
590.97	435.19
591.167	568.31
591.364	631.8
591.561	537.59
591.758	652.28
591.955	578.55
592.152	539.64
592.349	517.11
592.546	510.97
592.743	461.82
592.94	535.54
593.137	519.16
593.334	515.06
593.531	629.75
593.727	664.57
593.924	551.93
594.121	527.35
594.318	529.4
594.515	476.15
594.712	623.61
594.908	707.57
595.105	433.15
595.302	623.61
595.499	541.69
595.696	758.77
595.892	527.35
596.089	662.52
596.286	541.69
596.482	685.05
596.679	644.09
596.876	586.74
597.072	711.67
597.269	680.95
597.466	683
597.662	736.24
597.859	654.33
598.055	809.97
598.252	871.41
598.448	867.31
598.645	979.95
598.841	951.28
599.038	979.95
599.234	982
599.431	1037.3
599.627	1012.72
599.824	1102.83
600.02	1215.47
600.217	1076.21
600.413	1252.33
600.609	1264.62
600.806	1481.71
601.002	1432.55
601.198	1330.16
601.395	1475.56
601.591	1520.62
601.787	1618.92
601.984	1569.77
602.18	1694.69
602.376	1684.45
602.572	1799.14
602.769	1905.63
602.965	1870.82
603.161	2010.08
603.357	2108.38
603.553	2149.34
603.75	2085.86
603.946	2188.25
604.142	2360.28
604.338	2421.72
604.534	2356.19
604.73	2767.83
604.926	2743.25
605.122	2931.67
605.318	2917.33
605.514	2982.87
605.71	2937.81
605.906	3091.41
606.102	3171.28
606.298	3261.39
606.494	3339.21
606.69	3480.52
606.886	3589.07
607.082	3640.26
607.278	3740.61
607.474	3838.92
607.67	4010.95
607.866	4092.87
608.062	4326.33
608.257	4520.89
608.453	4309.95
608.649	4602.81
608.845	4631.48
609.041	4553.66
609.236	4991.92
609.432	5213.1
609.628	5260.21
609.824	5352.37
610.019	5471.15
610.215	5520.3
610.411	5925.8
610.606	6024.1
610.802	5997.48
610.998	6132.64
611.193	6372.25
611.389	6359.97
611.584	6615.96
611.78	6744.99
611.976	7132.05
612.171	7267.22
612.367	7590.8
612.562	7660.43
612.758	7590.8
612.953	7904.14
613.149	8160.13
613.344	8516.48
613.539	8639.36
613.735	8911.74
613.93	9114.48
614.126	9358.19
614.321	9638.76
614.517	9821.03
614.712	10058.6
614.907	10308.45
615.103	10453.86
615.298	11021.14
615.493	11004.76
615.688	11389.78
615.884	11721.55
616.079	11969.35
616.274	12272.45
616.47	12426.05
616.665	12698.43
616.86	12905.28
617.055	13380.4
617.25	13970.22
617.445	14291.75
617.641	14275.37
617.836	14924.57
618.031	15100.7
618.226	15518.48
618.421	16063.24
618.616	16276.23
618.811	16640.77
619.006	17163
619.201	17148.67
619.396	17679.09
619.591	17677.04
619.786	18494.18
619.981	18717.41
620.176	19518.17
620.371	19698.39
620.566	20138.7
620.761	20519.62
620.956	21254.84
621.151	21269.18
621.346	21686.97
621.541	21865.14
621.735	23079.58
621.93	22825.64
622.125	23270.04
622.32	23519.9
622.515	24175.25
622.709	24439.44
622.904	25170.56
623.099	25365.12
623.294	25922.16
623.488	26495.6
623.683	26819.17
623.878	26700.39
624.072	27578.97
624.267	28025.43
624.462	28482.13
624.656	28516.94
624.851	29319.74
625.046	29592.12
625.24	29991.48
625.435	30300.72
625.629	30814.76
625.824	31253.03
626.018	31568.41
626.213	31580.7
626.407	32567.82
626.602	32371.22
626.796	33108.49
626.991	33657.34
627.185	33477.12
627.38	33591.81
627.574	33817.08
627.768	34183.67
627.963	34378.23
628.157	34329.08
628.352	34691.57
628.546	34116.09
628.74	35029.48
628.935	34404.85
629.129	34791.92
629.323	34118.14
629.517	34111.99
629.712	33774.08
629.906	33655.29
630.1	32879.11
630.294	33251.84
630.489	32492.05
630.683	32352.79
630.877	31230.5
631.071	31130.15
631.265	30675.5
631.459	29817.4
631.653	29211.2
631.848	28316.24
632.042	27828.82
632.236	27486.81
632.43	26264.18
632.624	25627.26
632.818	24795.78
633.012	24318.6
633.206	23374.49
633.4	22958.75
633.594	21994.16
633.788	21318.33
633.982	20718.28
634.176	19858.13
634.369	19018.46
634.563	18148.08
634.757	17447.67
634.951	17040.12
635.145	16470.79
635.339	15952.65
635.533	15242.01
635.726	14603.04
635.92	13695.79
636.114	13321.01
636.308	12938.04
636.501	12415.81
636.695	11641.68
636.889	11133.78
637.083	10832.73
637.276	10175.33
637.47	9825.13
637.664	9620.33
637.857	9026.42
638.051	9012.09
638.244	8420.22
638.438	8192.9
638.632	7842.7
638.825	7277.46
639.019	7297.94
639.212	6847.38
639.406	6661.02
639.599	6419.36
639.793	6265.76
639.986	5753.77
640.18	5794.73
640.373	5319.6
640.567	5067.7
640.76	4920.24
640.954	4930.48
641.147	4580.28
641.34	4461.5
641.534	4400.06
641.727	4260.8
641.92	4187.07
642.114	3791.81
642.307	3670.98
642.5	3595.21
642.694	3429.32
642.887	3298.25
643.08	3316.69
643.273	3113.94
643.467	2995.15
643.66	2802.65
643.853	2749.4
644.046	2591.7
644.239	2591.7
644.432	2436.06
644.626	2171.87
644.819	2188.25
645.012	2196.45
645.205	2122.72
645.398	2030.56
645.591	1952.74
645.784	1772.52
645.977	1760.23
646.17	1582.06
646.363	1741.8
646.556	1534.95
646.749	1422.31
646.942	1401.83
647.135	1469.42
647.328	1352.68
647.521	1262.57
647.714	1135.6
647.907	1151.98
648.099	1154.03
648.292	1242.09
648.485	1018.86
648.678	1084.4
648.871	1045.49
649.064	1055.73
649.256	865.27
649.449	908.27
649.642	744.44
649.835	766.96
650.027	807.92
650.22	875.51
650.413	726
650.605	781.3
650.798	578.55
650.991	779.25
651.183	676.85
651.376	726
651.568	721.91
651.761	553.98
651.954	592.89
652.146	572.41
652.339	576.5
652.531	584.7
652.724	367.61
652.916	572.41
653.109	388.09
653.301	625.65
653.494	490.49
653.686	427
653.879	437.24
654.071	383.99
654.263	359.42
654.456	424.95
654.648	474.1
654.84	472.06
655.033	437.24
655.225	455.67
655.417	334.84
655.61	490.49
655.802	414.71
655.994	437.24
656.186	185.34
656.379	386.04
656.571	279.55
656.763	267.26
656.955	353.27
657.148	285.69
657.34	400.38
657.532	277.5
657.724	197.63
657.916	312.32
658.108	320.51
658.3	236.54
658.492	238.59
658.684	177.15
658.876	388.09
659.068	187.39
659.26	201.72
659.452	103.42
659.644	185.34
659.836	336.89
660.028	222.2
660.22	158.72
660.412	234.49
660.604	121.85
660.796	207.87
660.988	162.81
661.18	250.88
661.372	285.69
661.563	248.83
661.755	168.96
661.947	74.75
662.139	136.19
662.331	171.01
662.522	148.48
662.714	146.43
662.906	132.09
663.097	111.61
663.289	142.33
663.481	78.85
663.673	146.43
663.864	164.86
664.056	234.49
664.247	64.51
664.439	218.11
664.631	187.39
664.822	265.21
665.014	138.24
665.205	56.32
665.397	134.14
665.588	187.39
665.78	234.49
665.971	160.77
666.163	158.72
666.354	175.1
666.546	121.85
666.737	197.63
666.929	54.27
667.12	66.56
667.311	226.3
667.503	160.77
667.694	105.47
667.885	123.9
668.077	181.25
668.268	64.51
668.459	152.57
668.651	70.65
668.842	175.1
669.033	7.17
669.224	107.52
669.416	291.84
669.607	105.47
669.798	56.32
669.989	218.11
670.18	146.43
670.371	164.86
670.563	54.27
670.754	240.64
670.945	152.57
671.136	259.07
671.327	134.14
671.518	236.54
671.709	218.11
671.9	121.85
672.091	183.29
672.282	244.73
672.473	123.9
672.664	70.65
672.855	179.2
673.046	195.58
673.237	250.88
673.428	146.43
673.619	244.73
673.809	187.39
674	254.97
674.191	220.16
674.382	123.9
674.573	175.1
674.764	99.33
674.954	252.92
675.145	113.66
675.336	97.28
675.527	78.85
675.717	101.37
675.908	156.67
676.099	89.09
676.289	199.68
676.48	27.65
676.671	199.68
676.861	160.77
677.052	250.88
677.243	267.26
677.433	84.99
677.624	211.96
677.814	275.45
678.005	107.52
678.195	203.77
678.386	185.34
678.576	201.72
678.767	119.81
678.957	181.25
679.148	257.02
679.338	293.88
679.529	246.78
679.719	154.62
679.909	336.89
680.1	150.53
680.29	308.22
680.481	138.24
680.671	287.74
680.861	236.54
681.052	150.53
681.242	160.77
681.432	193.53
681.622	259.07
681.813	230.4
682.003	173.05
682.193	201.72
682.383	171.01
682.573	205.82
682.764	166.91
682.954	191.49
683.144	308.22
683.334	216.06
683.524	295.93
683.714	228.35
683.904	295.93
684.094	230.4
684.284	201.72
684.474	334.84
684.664	381.95
684.854	261.12
685.044	205.82
685.234	279.55
685.424	279.55
685.614	185.34
685.804	357.37
685.994	263.16
686.184	252.92
686.374	277.5
686.564	216.06
686.753	271.36
686.943	111.61
687.133	220.16
687.323	302.08
687.513	261.12
687.702	244.73
687.892	156.67
688.082	320.51
688.272	302.08
688.461	236.54
688.651	369.66
688.841	349.18
689.03	183.29
689.22	250.88
689.41	195.58
689.599	285.69
689.789	185.34
689.979	324.6
690.168	148.48
690.358	189.44
690.547	220.16
690.737	250.88
690.926	244.73
691.116	275.45
691.305	271.36
691.495	330.75
691.684	220.16
691.874	191.49
692.063	144.38
692.252	340.99
692.442	254.97
692.631	199.68
692.82	226.3
693.01	197.63
693.199	193.53
693.388	271.36
693.578	132.09
693.767	308.22
693.956	328.7
694.146	195.58
694.335	214.01
694.524	166.91
694.713	248.83
694.902	193.53
695.092	132.09
695.281	216.06
695.47	240.64
695.659	107.52
695.848	222.2
696.037	187.39
696.226	263.16
696.415	240.64
696.604	207.87
696.793	154.62
696.982	224.25
697.171	367.61
697.36	189.44
697.549	154.62
697.738	171.01
697.927	214.01
698.116	146.43
698.305	265.21
698.494	177.15
698.683	308.22
698.872	340.99
699.061	218.11
699.25	89.09
699.438	271.36
699.627	203.77
699.816	308.22
700.005	216.06
700.193	166.91
700.382	234.49
700.571	238.59
700.76	205.82
700.948	281.6
701.137	277.5
701.326	259.07
701.514	152.57
701.703	230.4
701.892	142.33
702.08	324.6
702.269	211.96
702.457	138.24
702.646	193.53
702.834	207.87
703.023	291.84
703.212	160.77
703.4	265.21
703.589	230.4
703.777	95.23
703.965	142.33
704.154	166.91
704.342	173.05
704.531	146.43
704.719	246.78
704.907	248.83
705.096	222.2
705.284	134.14
705.472	193.53
705.661	216.06
705.849	216.06
706.037	220.16
706.226	154.62
706.414	246.78
706.602	191.49
706.79	257.02
706.979	113.66
707.167	195.58
707.355	82.94
707.543	209.92
707.731	166.91
707.919	97.28
708.107	183.29
708.296	125.95
708.484	103.42
708.672	168.96
708.86	224.25
709.048	203.77
709.236	119.81
709.424	224.25
709.612	187.39
709.8	142.33
709.988	230.4
710.176	265.21
710.364	310.27
710.551	173.05
710.739	164.86
710.927	119.81
711.115	195.58
711.303	265.21
711.491	318.46
711.679	31.74
711.866	189.44
712.054	148.48
712.242	261.12
712.43	318.46
712.617	224.25
712.805	152.57
712.993	128
713.181	132.09
713.368	277.5
713.556	222.2
713.744	179.2
713.931	404.47
714.119	277.5
714.306	117.76
714.494	191.49
714.682	209.92
714.869	82.94
715.057	226.3
715.244	160.77
715.432	265.21
715.619	154.62
715.807	252.92
715.994	166.91
716.182	214.01
716.369	279.55
716.556	203.77
716.744	187.39
716.931	101.37
717.119	230.4
717.306	142.33
717.493	277.5
717.681	177.15
717.868	140.29
718.055	275.45
718.242	156.67
718.43	265.21
718.617	261.12
718.804	136.19
718.991	324.6
719.179	226.3
719.366	334.84
719.553	285.69
719.74	183.29
719.927	205.82
720.114	271.36
720.301	128
720.488	246.78
720.676	166.91
720.863	304.12
721.05	328.7
721.237	314.36
721.424	291.84
721.611	185.34
721.798	158.72
721.985	35.84
722.172	193.53
722.358	80.89
722.545	345.08
722.732	265.21
722.919	279.55
723.106	261.12
723.293	312.32
723.48	209.92
723.667	183.29
723.853	291.84
724.04	332.79
724.227	373.75
724.414	224.25
724.6	271.36
724.787	340.99
724.974	359.42
725.161	273.4
725.347	226.3
725.534	269.31
725.72	363.51
725.907	285.69
726.094	310.27
726.28	201.72
726.467	285.69
726.653	152.57
726.84	304.12
727.027	408.57
727.213	304.12
727.4	320.51
727.586	318.46
727.773	271.36
727.959	234.49
728.145	236.54
728.332	216.06
728.518	246.78
728.705	361.47
728.891	228.35
729.077	273.4
729.264	214.01
729.45	271.36
729.636	379.9
729.823	326.65
730.009	363.51
730.195	265.21
730.382	312.32
730.568	193.53
730.754	248.83
730.94	265.21
731.126	267.26
731.313	324.6
731.499	316.41
731.685	388.09
731.871	291.84
732.057	281.6
732.243	349.18
732.429	314.36
732.615	375.8
732.801	334.84
732.987	353.27
733.173	312.32
733.359	320.51
733.545	340.99
733.731	252.92
733.917	400.38
734.103	355.32
734.289	267.26
734.475	281.6
734.661	375.8
734.847	328.7
735.033	263.16
735.219	328.7
735.404	220.16
735.59	144.38
735.776	252.92
735.962	445.43
736.148	431.1
736.333	390.14
736.519	351.23
736.705	271.36
736.89	306.17
737.076	406.52
737.262	234.49
737.447	265.21
737.633	273.4
737.819	394.23
738.004	259.07
738.19	386.04
738.375	353.27
738.561	449.53
738.747	324.6
738.932	267.26
739.118	447.48
739.303	367.61
739.489	398.33
739.674	283.64
739.859	257.02
740.045	351.23
740.23	328.7
740.416	209.92
740.601	410.62
740.786	293.88
740.972	185.34
741.157	261.12
741.342	250.88
741.528	187.39
741.713	357.37
741.898	314.36
742.084	343.03
742.269	250.88
742.454	306.17
742.639	334.84
742.824	379.9
743.01	429.05
743.195	392.19
743.38	322.56
743.565	224.25
743.75	244.73
743.935	242.68
744.12	338.94
744.305	267.26
744.49	271.36
744.675	293.88
744.86	199.68
745.045	310.27
745.23	338.94
745.415	234.49
745.6	361.47
745.785	199.68
745.97	310.27
746.155	291.84
746.34	300.03
746.525	257.02
746.71	445.43
746.895	173.05
747.079	187.39
747.264	326.65
747.449	277.5
747.634	322.56
747.819	302.08
748.003	244.73
748.188	265.21
748.373	293.88
748.557	330.75
748.742	328.7
748.927	343.03
749.111	175.1
749.296	257.02
749.481	295.93
749.665	279.55
749.85	189.44
750.034	318.46
750.219	269.31
750.404	207.87
750.588	287.74
750.773	203.77
750.957	240.64
751.141	263.16
751.326	312.32
751.51	70.65
751.695	250.88
751.879	199.68
752.064	324.6
752.248	271.36
752.432	414.71
752.617	293.88
752.801	312.32
752.985	207.87
753.17	326.65
753.354	273.4
753.538	304.12
753.722	216.06
753.907	201.72
754.091	158.72
754.275	273.4
754.459	39.94
754.643	150.53
754.828	240.64
755.012	295.93
755.196	152.57
755.38	220.16
755.564	195.58
755.748	175.1
755.932	257.02
756.116	168.96
756.3	295.93
756.484	166.91
756.668	224.25
756.852	128
757.036	148.48
757.22	166.91
757.404	152.57
757.588	164.86
757.772	250.88
757.956	189.44
758.14	295.93
758.323	50.18
758.507	216.06
758.691	138.24
758.875	269.31
759.059	224.25
759.242	156.67
759.426	203.77
759.61	308.22
759.794	156.67
759.977	197.63
760.161	355.32
760.345	236.54
760.528	236.54
760.712	222.2
760.895	214.01
761.079	160.77
761.263	136.19
761.446	150.53
761.63	183.29
761.813	291.84
761.997	89.09
762.18	164.86
762.364	207.87
762.547	78.85
762.731	150.53
762.914	195.58
763.098	115.71
763.281	130.05
763.464	117.76
763.648	119.81
763.831	195.58
764.015	154.62
764.198	218.11
764.381	189.44
764.564	179.2
764.748	191.49
764.931	166.91
765.114	130.05
765.297	201.72
765.481	17.41
765.664	195.58
765.847	156.67
766.03	250.88
766.213	52.22
766.397	117.76
766.58	78.85
766.763	199.68
766.946	121.85
767.129	21.5
767.312	91.13
767.495	103.42
767.678	142.33
767.861	105.47
768.044	123.9
768.227	158.72
768.41	160.77
768.593	115.71
768.776	228.35
768.959	144.38
769.142	183.29
769.324	162.81
769.507	123.9
769.69	89.09
769.873	74.75
770.056	300.03
770.239	109.57
770.421	177.15
770.604	142.33
770.787	21.5
770.97	138.24
771.152	-1.02
771.335	117.76
771.518	60.42
771.7	197.63
771.883	263.16
772.066	109.57
772.248	68.61
772.431	148.48
772.613	195.58
772.796	103.42
772.978	150.53
773.161	220.16
773.343	78.85
773.526	142.33
773.708	-56.32
773.891	23.55
774.073	115.71
774.256	91.13
774.438	214.01
774.621	-11.26
774.803	144.38
774.985	-46.08
775.168	183.29
775.35	117.76
775.532	101.37
775.715	158.72
775.897	84.99
776.079	66.56
776.261	56.32
776.444	148.48
776.626	27.65
776.808	35.84
776.99	-21.5
777.173	185.34
777.355	-3.07
777.537	111.61
777.719	93.18
777.901	62.46
778.083	9.22
778.265	17.41
778.447	189.44
778.629	17.41
778.811	138.24
778.993	166.91
779.175	121.85
779.357	29.7
779.539	5.12
779.721	31.74
779.903	150.53
780.085	5.12
780.267	70.65
780.449	82.94
780.631	121.85
780.812	179.2
780.994	19.46
781.176	-15.36
781.358	113.66
781.54	62.46
781.721	103.42
781.903	158.72
782.085	1.02
782.267	173.05
782.448	21.5
782.63	31.74
782.812	7.17
782.993	72.7
783.175	134.14
783.357	84.99
783.538	117.76
783.72	7.17
783.901	39.94
784.083	89.09
784.264	64.51
784.446	-52.22
784.627	-52.22
784.809	62.46
784.99	64.51
785.172	87.04
785.353	97.28
785.535	46.08
785.716	48.13
785.897	-39.94
786.079	33.79
786.26	173.05
786.441	97.28
786.623	-54.27
786.804	5.12
786.985	17.41
787.167	87.04
787.348	123.9
787.529	7.17
787.71	218.11
787.891	11.26
788.073	27.65
788.254	-64.51
788.435	164.86
788.616	48.13
788.797	3.07
788.978	39.94
789.159	-31.74
789.34	17.41
789.522	39.94
789.703	33.79
789.884	15.36
790.065	52.22
790.246	183.29
790.427	60.42
790.607	193.53
790.788	80.89
790.969	9.22
791.15	33.79
791.331	-80.89
791.512	-3.07
791.693	-60.42
791.874	82.94
792.054	166.91
792.235	140.29
792.416	-33.79
792.597	-7.17
792.778	54.27
792.958	62.46
793.139	33.79
793.32	21.5
793.5	-25.6
793.681	142.33
793.862	-5.12
794.042	46.08
794.223	1.02
794.404	-48.13
794.584	-91.13
794.765	-27.65
794.945	31.74
795.126	107.52
795.306	101.37
795.487	9.22
795.667	19.46
795.848	50.18
796.028	15.36
796.209	58.37
796.389	56.32
796.57	-17.41
796.75	-1.02
796.93	27.65
797.111	-11.26
797.291	54.27
797.471	82.94
797.652	-101.37
797.832	-68.61
798.012	62.46
798.192	13.31
798.373	-48.13
798.553	-9.22
798.733	50.18
798.913	-15.36
799.093	19.46
799.274	-29.7
799.454	58.37
799.634	46.08
799.814	107.52
799.994	70.65
800.174	37.89
800.354	-9.22
800.534	-121.85
800.714	99.33
800.894	-84.99
801.074	-56.32
801.254	-13.31
801.434	123.9
801.614	-25.6
801.794	-74.75
801.974	1940.45
802.154	39.94
802.334	121.85
802.514	-17.41
802.693	56.32
802.873	-84.99
803.053	183.29
803.233	130.05
803.413	74.75
803.592	27.65
803.772	33.79
803.952	105.47
804.131	-66.56
804.311	140.29
804.491	119.81
804.67	-41.98
804.85	11.26
805.03	64.51
805.209	62.46
805.389	5.12
805.568	23.55
805.748	-15.36
805.928	-9.22
806.107	107.52
806.287	50.18
806.466	93.18
806.646	-13.31
806.825	7.17
807.004	5.12
807.184	52.22
807.363	-1.02
807.543	93.18
807.722	-52.22
807.901	97.28
808.081	68.61
808.26	-95.23
808.439	54.27
808.619	52.22
808.798	-23.55
808.977	80.89
809.156	72.7
809.336	-37.89
809.515	60.42
809.694	76.8
809.873	-21.5
810.052	89.09
810.231	80.89
810.411	52.22
810.59	62.46
810.769	-37.89
810.948	74.75
811.127	-58.37
811.306	-60.42
811.485	-31.74
811.664	72.7
811.843	-29.7
812.022	-9.22
812.201	-31.74
812.38	-11.26
812.559	-66.56
812.737	27.65
812.916	-5.12
813.095	-21.5
813.274	25.6
813.453	25.6
813.632	44.03
813.811	60.42
813.989	-70.65
814.168	-31.74
814.347	-95.23
814.526	33.79
814.704	99.33
814.883	111.61
815.062	-48.13
815.24	74.75
815.419	-5.12
815.598	95.23
815.776	-41.98
815.955	21.5
816.133	-138.24
816.312	13.31
816.49	-123.9
816.669	-9.22
816.847	-50.18
817.026	-23.55
817.204	-23.55
817.383	-9.22
817.561	-54.27
817.74	66.56
817.918	39.94
818.097	-44.03
818.275	-68.61
818.453	50.18
818.632	48.13
818.81	13.31
818.988	7.17
819.167	27.65
819.345	25.6
819.523	-35.84
819.701	27.65
819.879	103.42
820.058	46.08
820.236	-5.12
820.414	58.37
820.592	-25.6
820.77	46.08
820.948	-33.79
821.127	-17.41
821.305	29.7
821.483	-60.42
821.661	19.46
821.839	3.07
822.017	-138.24
822.195	-31.74
822.373	60.42
822.551	19.46
822.729	31.74
822.907	7.17
823.085	74.75
823.262	-25.6
823.44	-105.47
823.618	-50.18
823.796	-3.07
823.974	1.02
824.152	21.5
824.329	-41.98
824.507	35.84
824.685	74.75
824.863	13.31
825.04	21.5
825.218	54.27
825.396	-101.37
825.574	74.75
825.751	46.08
825.929	78.85
826.107	-21.5
826.284	64.51
826.462	99.33
826.639	-95.23
826.817	-25.6
826.994	-29.7
827.172	-146.43
827.349	148.48
827.527	-17.41
827.704	-21.5
827.882	44.03
828.059	-21.5
828.237	-15.36
828.414	64.51
828.591	-82.94
828.769	52.22
828.946	-41.98
829.124	-48.13
829.301	46.08
829.478	-15.36
829.655	-68.61
829.833	72.7
830.01	-113.66
830.187	-31.74
830.364	-21.5
830.542	31.74
830.719	107.52
830.896	111.61
831.073	-9.22
831.25	-9.22
831.427	37.89
831.604	-1.02
831.782	-21.5
831.959	70.65
832.136	7.17
832.313	-72.7
832.49	17.41
832.667	-9.22
832.844	-9.22
833.021	142.33
833.198	89.09
833.374	25.6
833.551	1.02
833.728	-29.7
833.905	44.03
834.082	-50.18
834.259	29.7
834.436	50.18
834.612	-89.09
834.789	15.36
834.966	-54.27
835.143	58.37
835.319	9.22
835.496	7.17
835.673	-9.22
835.85	74.75
836.026	19.46
836.203	97.28
836.38	-29.7
836.556	-58.37
836.733	-13.31
836.909	123.9
837.086	1.02
837.262	-101.37
837.439	-13.31
837.616	-9.22
837.792	-27.65
837.968	82.94
838.145	-101.37
838.321	11.26
838.498	46.08
838.674	48.13
838.851	115.71
839.027	33.79
839.203	25.6
839.38	48.13
839.556	-15.36
839.732	48.13
839.909	62.46
840.085	-62.46
840.261	-58.37
840.437	23.55
840.614	-25.6
840.79	105.47
840.966	56.32
841.142	-33.79
841.318	-35.84
841.494	50.18
841.671	99.33
841.847	-91.13
842.023	-113.66
842.199	-62.46
842.375	103.42
842.551	-121.85
842.727	-105.47
842.903	171.01
843.079	-160.77
843.255	62.46
843.431	46.08
843.607	-17.41
843.783	-115.71
843.959	39.94
844.134	-78.85
844.31	109.57
844.486	-11.26
844.662	-105.47
844.838	19.46
845.013	5.12
845.189	-17.41
845.365	56.32
845.541	23.55
845.716	11.26
845.892	107.52
846.068	-23.55
846.244	-31.74
846.419	56.32
846.595	-111.61
846.77	-31.74
846.946	60.42
847.122	33.79
847.297	-68.61
847.473	97.28
847.648	-109.57
847.824	97.28
847.999	-44.03
848.175	-25.6
848.35	5.12
848.526	121.85
848.701	56.32
848.876	21.5
849.052	76.8
849.227	-56.32
849.403	-1.02
849.578	5.12
849.753	39.94
849.929	111.61
850.104	-82.94
850.279	5.12
850.454	60.42
850.63	19.46
850.805	-21.5
850.98	-5.12
851.155	-1.02
851.33	39.94
851.505	-39.94
851.681	152.57
851.856	-99.33
852.031	99.33
852.206	25.6
852.381	-78.85
852.556	-5.12
852.731	70.65
852.906	97.28
853.081	21.5
853.256	123.9
853.431	-68.61
853.606	5.12
853.781	-109.57
853.956	-39.94
854.131	58.37
854.305	-11.26
854.48	-84.99
854.655	-19.46
854.83	-39.94
855.005	-23.55
855.18	9.22
855.354	-13.31
855.529	-21.5
855.704	25.6
855.879	31.74
856.053	-58.37
856.228	-9.22
856.403	-39.94
856.577	31.74
856.752	-107.52
856.926	11.26
857.101	29.7
857.276	-33.79
857.45	-48.13
857.625	25.6
857.799	50.18
857.974	89.09
858.148	-87.04
858.323	-37.89
858.497	-29.7
858.672	3.07
858.846	-58.37
859.02	60.42
859.195	-31.74
859.369	19.46
859.543	7.17
859.718	-9.22
859.892	-29.7
860.066	29.7
860.241	7.17
860.415	-74.75
860.589	-87.04
860.763	-11.26
860.938	46.08
861.112	23.55
861.286	-21.5
861.46	9.22
861.634	54.27
861.808	9.22
861.982	-62.46
862.157	-115.71
862.331	-72.7
862.505	-60.42
862.679	-113.66
862.853	-121.85
863.027	-5.12
863.201	156.67
863.375	-132.09
863.549	39.94
863.722	89.09
863.896	64.51
864.07	-19.46
864.244	-33.79
864.418	74.75
864.592	-48.13
864.766	-46.08
864.939	29.7
865.113	-39.94
865.287	-21.5
865.461	-54.27
865.634	-1.02
865.808	-62.46
865.982	-39.94
866.156	-74.75
866.329	-66.56
866.503	-25.6
866.676	13.31
866.85	-21.5
867.024	-35.84
867.197	39.94
867.371	44.03
867.544	-17.41
867.718	-84.99
867.891	76.8
868.065	-154.62
868.238	-35.84
868.412	109.57
868.585	31.74
868.759	-80.89
868.932	-97.28
869.105	-58.37
869.279	-3.07
869.452	-27.65
869.625	111.61
869.799	-123.9
869.972	-48.13
870.145	-25.6
870.319	50.18
870.492	-35.84
870.665	-66.56
870.838	-64.51
871.011	-91.13
871.185	-105.47
871.358	7.17
871.531	35.84
871.704	-60.42
871.877	5.12
872.05	-37.89
872.223	-56.32
872.396	48.13
872.569	72.7
872.742	-132.09
872.915	91.13
873.088	-1.02
873.261	-136.19
873.434	54.27
873.607	-99.33
873.78	3.07
873.953	-123.9
874.126	15.36
874.299	31.74
874.471	35.84
874.644	-105.47
874.817	33.79
874.99	93.18
875.163	-50.18
875.335	7.17
875.508	27.65
875.681	54.27
875.853	-109.57
876.026	56.32
876.199	93.18
876.371	44.03
876.544	21.5
876.717	21.5
876.889	-41.98
877.062	74.75
877.234	-46.08
877.407	-21.5
877.579	27.65
877.752	-66.56
877.924	60.42
878.097	23.55
878.269	44.03
878.442	-48.13
878.614	35.84
878.786	-7.17
878.959	-80.89
879.131	11.26
879.303	-44.03
879.476	-7.17
879.648	64.51
879.82	-37.89
879.993	-25.6
880.165	-7.17
880.337	-60.42
880.509	-3.07
880.681	-25.6
880.854	-50.18
881.026	56.32
881.198	130.05
881.37	29.7
881.542	-29.7
881.714	9.22
881.886	-3.07
882.058	-27.65
882.23	19.46
882.402	-80.89
882.574	3.07
882.746	31.74
882.918	70.65
883.09	46.08
883.262	-50.18
883.434	37.89
883.606	-95.23
883.778	21.5
883.95	121.85
884.122	-70.65
884.293	58.37
884.465	-5.12
884.637	46.08
884.809	-17.41
884.98	7.17
885.152	48.13
885.324	70.65
885.496	-41.98
885.667	-48.13
885.839	-33.79
886.011	89.09
886.182	3.07
886.354	66.56
886.525	78.85
886.697	37.89
886.869	-121.85
887.04	-68.61
887.212	60.42
887.383	84.99
887.555	-9.22
887.726	-46.08
887.897	-60.42
888.069	-7.17
888.24	101.37
888.412	11.26
888.583	35.84
888.754	15.36
888.926	-62.46
889.097	-54.27
889.268	-84.99
889.44	-9.22
889.611	-82.94
889.782	-27.65
889.953	-82.94
890.125	70.65
890.296	-66.56
890.467	-23.55
890.638	-29.7
890.809	-15.36
890.98	-3.07
891.151	37.89
891.323	44.03
891.494	-21.5
891.665	-39.94
891.836	-27.65
892.007	-64.51
892.178	-52.22
892.349	17.41
892.52	-44.03
892.691	-35.84
892.862	-97.28
893.032	-72.7
893.203	-13.31
893.374	29.7
893.545	93.18
893.716	-70.65
893.887	89.09
894.057	-15.36
894.228	-31.74
894.399	-99.33
894.57	31.74
894.74	35.84
894.911	44.03
895.082	-31.74
895.253	-46.08
895.423	17.41
895.594	103.42
895.764	78.85
895.935	-160.77
896.106	-15.36
896.276	-111.61
896.447	-37.89
896.617	-37.89
896.788	-7.17
896.958	-35.84
897.129	5.12
897.299	-52.22
897.47	99.33
897.64	97.28
897.81	-99.33
897.981	41.98
898.151	-70.65
898.322	17.41
898.492	23.55
898.662	-72.7
898.832	-64.51
899.003	33.79
899.173	50.18
899.343	-58.37
899.513	-25.6
