Data from USB4F104151__29__11-24-53-604.txt Node

Date: Wed Feb 26 11:24:53 EST 2025
User: louis
Spectrometer: USB4F10415
Trigger mode: 4
Integration Time (sec): 1.000000E-1
Scans to average: 1
Electric dark correction enabled: true
Nonlinearity correction enabled: false
Boxcar width: 0
XAxis mode: Wavelengths
Number of Pixels in Spectrum: 3648
>>>>>Begin Spectral Data<<<<<
178.204	-432.46
178.424	-432.46
178.644	-432.46
178.864	-426.32
179.084	-444.75
179.304	-49.49
179.524	34.47
179.744	52.91
179.964	18.09
180.184	22.19
180.404	136.87
180.624	-39.25
180.844	1.71
181.064	-92.5
181.283	30.38
181.503	-92.5
181.723	-22.87
181.943	-76.12
182.163	171.69
182.383	-102.74
182.602	20.14
182.822	81.58
183.042	106.15
183.262	-22.87
183.482	13.99
183.701	-22.87
183.921	7.85
184.141	-41.3
184.361	54.95
184.58	48.81
184.8	79.53
185.02	-78.16
185.239	89.77
185.459	87.72
185.679	132.78
185.898	-147.8
186.118	83.63
186.338	-12.63
186.557	145.06
186.777	-39.25
186.997	-92.5
187.216	22.19
187.436	140.97
187.655	61.1
187.875	77.48
188.095	-18.77
188.314	134.82
188.534	100.01
188.753	-53.59
188.973	116.39
189.192	83.63
189.412	48.81
189.631	-55.64
189.851	61.1
190.07	134.82
190.29	-39.25
190.509	32.43
190.729	106.15
190.948	153.26
191.168	196.26
191.387	1.71
191.607	-6.49
191.826	42.67
192.045	18.09
192.265	-33.11
192.484	91.82
192.704	57
192.923	-57.68
193.142	265.89
193.362	102.06
193.581	102.06
193.8	22.19
194.02	110.25
194.239	11.95
194.458	57
194.678	26.28
194.897	-96.6
195.116	54.95
195.335	61.1
195.555	79.53
195.774	-47.44
195.993	108.2
196.212	75.43
196.432	1.71
196.651	-20.82
196.87	-6.49
197.089	239.27
197.308	38.57
197.528	65.19
197.747	-37.2
197.966	9.9
198.185	130.73
198.404	-20.82
198.623	134.82
198.842	126.63
199.062	93.87
199.281	114.34
199.5	48.81
199.719	126.63
199.938	1.71
200.157	57
200.376	46.76
200.595	151.21
200.814	22.19
201.033	5.8
201.252	102.06
201.471	-55.64
201.69	110.25
201.909	-8.53
202.128	83.63
202.347	52.91
202.566	50.86
202.785	-92.5
203.004	-26.96
203.223	233.13
203.442	108.2
203.661	-41.3
203.879	61.1
204.098	100.01
204.317	38.57
204.536	89.77
204.755	65.19
204.974	57
205.193	67.24
205.411	159.4
205.63	89.77
205.849	52.91
206.068	34.47
206.287	13.99
206.505	128.68
206.724	20.14
206.943	-14.68
207.162	24.23
207.381	61.1
207.599	11.95
207.818	42.67
208.037	-53.59
208.255	32.43
208.474	73.39
208.693	44.71
208.911	38.57
209.13	75.43
209.349	75.43
209.567	57
209.786	50.86
210.005	63.15
210.223	16.04
210.442	-84.31
210.661	-55.64
210.879	11.95
211.098	46.76
211.316	24.23
211.535	79.53
211.753	67.24
211.972	57
212.191	11.95
212.409	11.95
212.628	110.25
212.846	9.9
213.065	11.95
213.283	42.67
213.502	20.14
213.72	-8.53
213.938	1.71
214.157	-29.01
214.375	95.91
214.594	26.28
214.812	5.8
215.031	-0.34
215.249	-10.58
215.467	22.19
215.686	102.06
215.904	79.53
216.122	73.39
216.341	163.5
216.559	48.81
216.778	69.29
216.996	153.26
217.214	-29.01
217.432	61.1
217.651	-78.16
217.869	140.97
218.087	3.75
218.306	50.86
218.524	18.09
218.742	18.09
218.96	50.86
219.179	-20.82
219.397	-0.34
219.615	224.94
219.833	69.29
220.051	-18.77
220.27	147.11
220.488	95.91
220.706	128.68
220.924	-20.82
221.142	-0.34
221.36	87.72
221.578	50.86
221.796	-43.35
222.015	-2.39
222.233	73.39
222.451	104.11
222.669	1.71
222.887	54.95
223.105	-18.77
223.323	40.62
223.541	46.76
223.759	136.87
223.977	52.91
224.195	128.68
224.413	54.95
224.631	57
224.849	1.71
225.067	196.26
225.285	-55.64
225.503	-20.82
225.721	-69.97
225.939	91.82
226.157	120.49
226.375	233.13
226.592	-10.58
226.81	-31.06
227.028	122.54
227.246	38.57
227.464	-12.63
227.682	114.34
227.9	44.71
228.117	106.15
228.335	28.33
228.553	5.8
228.771	-45.4
228.989	104.11
229.206	83.63
229.424	-31.06
229.642	63.15
229.86	-20.82
230.077	118.44
230.295	83.63
230.513	-0.34
230.731	28.33
230.948	177.83
231.166	169.64
231.384	3.75
231.601	52.91
231.819	183.98
232.037	-33.11
232.254	-47.44
232.472	-49.49
232.689	-4.44
232.907	44.71
233.125	22.19
233.342	1.71
233.56	-26.96
233.777	-45.4
233.995	-8.53
234.213	81.58
234.43	165.54
234.648	100.01
234.865	-0.34
235.083	97.96
235.3	73.39
235.518	132.78
235.735	132.78
235.953	28.33
236.17	30.38
236.388	46.76
236.605	28.33
236.822	106.15
237.04	114.34
237.257	48.81
237.475	-110.93
237.692	20.14
237.909	95.91
238.127	57
238.344	71.34
238.562	36.52
238.779	13.99
238.996	-92.5
239.214	71.34
239.431	124.58
239.648	9.9
239.865	77.48
240.083	34.47
240.3	-63.83
240.517	-53.59
240.735	46.76
240.952	145.06
241.169	36.52
241.386	75.43
241.603	7.85
241.821	-67.92
242.038	145.06
242.255	169.64
242.472	-2.39
242.689	85.67
242.907	83.63
243.124	22.19
243.341	32.43
243.558	-22.87
243.775	20.14
243.992	-41.3
244.209	140.97
244.426	183.98
244.643	114.34
244.86	40.62
245.078	28.33
245.295	79.53
245.512	52.91
245.729	1.71
245.946	28.33
246.163	34.47
246.38	-26.96
246.597	-14.68
246.814	-10.58
247.031	91.82
247.248	-57.68
247.464	112.3
247.681	65.19
247.898	63.15
248.115	67.24
248.332	-47.44
248.549	167.59
248.766	159.4
248.983	59.05
249.2	16.04
249.417	93.87
249.633	-33.11
249.85	77.48
250.067	54.95
250.284	110.25
250.501	89.77
250.717	11.95
250.934	-57.68
251.151	26.28
251.368	-2.39
251.585	110.25
251.801	11.95
252.018	-14.68
252.235	67.24
252.451	-110.93
252.668	57
252.885	81.58
253.102	61.1
253.318	-14.68
253.535	16.04
253.752	34.47
253.968	81.58
254.185	-45.4
254.401	22.19
254.618	79.53
254.835	-35.16
255.051	140.97
255.268	26.28
255.484	108.2
255.701	7.85
255.917	44.71
256.134	-45.4
256.351	20.14
256.567	-96.6
256.784	-26.96
257	-33.11
257.217	122.54
257.433	143.02
257.65	57
257.866	169.64
258.082	-78.16
258.299	-18.77
258.515	61.1
258.732	20.14
258.948	-59.73
259.165	34.47
259.381	-55.64
259.597	118.44
259.814	52.91
260.03	85.67
260.246	36.52
260.463	87.72
260.679	118.44
260.895	69.29
261.112	77.48
261.328	54.95
261.544	28.33
261.761	179.88
261.977	28.33
262.193	-43.35
262.409	83.63
262.626	7.85
262.842	36.52
263.058	-8.53
263.274	91.82
263.49	52.91
263.707	28.33
263.923	77.48
264.139	-69.97
264.355	77.48
264.571	97.96
264.787	126.63
265.004	120.49
265.22	-8.53
265.436	30.38
265.652	65.19
265.868	54.95
266.084	-8.53
266.3	61.1
266.516	-59.73
266.732	122.54
266.948	30.38
267.164	-31.06
267.38	87.72
267.596	36.52
267.812	136.87
268.028	1.71
268.244	38.57
268.46	38.57
268.676	112.3
268.892	26.28
269.108	9.9
269.324	-20.82
269.54	-43.35
269.756	126.63
269.972	-80.21
270.188	24.23
270.403	-76.12
270.619	93.87
270.835	61.1
271.051	22.19
271.267	38.57
271.483	-57.68
271.698	110.25
271.914	32.43
272.13	26.28
272.346	-24.92
272.562	30.38
272.777	175.78
272.993	-20.82
273.209	1.71
273.425	93.87
273.64	-92.5
273.856	128.68
274.072	30.38
274.287	-8.53
274.503	100.01
274.719	108.2
274.934	34.47
275.15	-86.36
275.366	59.05
275.581	-47.44
275.797	40.62
276.012	-10.58
276.228	-26.96
276.444	61.1
276.659	61.1
276.875	54.95
277.09	-2.39
277.306	11.95
277.521	102.06
277.737	71.34
277.952	44.71
278.168	32.43
278.383	20.14
278.599	-24.92
278.814	34.47
279.03	79.53
279.245	124.58
279.461	30.38
279.676	97.96
279.892	-59.73
280.107	-0.34
280.322	1.71
280.538	108.2
280.753	-16.73
280.969	52.91
281.184	-10.58
281.399	190.12
281.615	93.87
281.83	1.71
282.045	32.43
282.26	-49.49
282.476	-0.34
282.691	83.63
282.906	3.75
283.122	114.34
283.337	20.14
283.552	1.71
283.767	-8.53
283.983	130.73
284.198	26.28
284.413	95.91
284.628	-145.75
284.843	18.09
285.058	87.72
285.274	1.71
285.489	-16.73
285.704	124.58
285.919	5.8
286.134	24.23
286.349	-10.58
286.564	26.28
286.779	151.21
286.995	1.71
287.21	7.85
287.425	153.26
287.64	18.09
287.855	73.39
288.07	18.09
288.285	116.39
288.5	61.1
288.715	65.19
288.93	22.19
289.145	7.85
289.36	67.24
289.575	-47.44
289.79	181.93
290.004	-29.01
290.219	183.98
290.434	-24.92
290.649	77.48
290.864	-14.68
291.079	-4.44
291.294	54.95
291.509	61.1
291.724	24.23
291.938	3.75
292.153	48.81
292.368	44.71
292.583	42.67
292.798	126.63
293.012	71.34
293.227	97.96
293.442	-43.35
293.657	-14.68
293.871	190.12
294.086	3.75
294.301	190.12
294.516	134.82
294.73	120.49
294.945	-8.53
295.16	91.82
295.374	91.82
295.589	5.8
295.804	11.95
296.018	100.01
296.233	130.73
296.447	34.47
296.662	44.71
296.877	97.96
297.091	50.86
297.306	83.63
297.52	77.48
297.735	73.39
297.949	57
298.164	126.63
298.378	46.76
298.593	104.11
298.807	1.71
299.022	57
299.236	218.79
299.451	-43.35
299.665	7.85
299.88	71.34
300.094	118.44
300.309	-6.49
300.523	34.47
300.737	30.38
300.952	34.47
301.166	61.1
301.381	-82.26
301.595	-43.35
301.809	44.71
302.024	71.34
302.238	-49.49
302.452	83.63
302.667	100.01
302.881	130.73
303.095	116.39
303.309	-12.63
303.524	24.23
303.738	26.28
303.952	46.76
304.166	-4.44
304.381	-98.64
304.595	143.02
304.809	36.52
305.023	11.95
305.237	-29.01
305.452	28.33
305.666	126.63
305.88	89.77
306.094	93.87
306.308	77.48
306.522	91.82
306.736	40.62
306.95	34.47
307.164	73.39
307.379	3.75
307.593	118.44
307.807	106.15
308.021	-24.92
308.235	81.58
308.449	-72.02
308.663	-69.97
308.877	169.64
309.091	65.19
309.305	97.96
309.519	-82.26
309.733	140.97
309.947	-84.31
310.161	63.15
310.374	52.91
310.588	106.15
310.802	-110.93
311.016	-14.68
311.23	97.96
311.444	-121.17
311.658	38.57
311.872	122.54
312.085	79.53
312.299	126.63
312.513	77.48
312.727	73.39
312.941	26.28
313.154	32.43
313.368	26.28
313.582	54.95
313.796	11.95
314.009	-4.44
314.223	179.88
314.437	126.63
314.651	42.67
314.864	-33.11
315.078	69.29
315.292	-41.3
315.505	20.14
315.719	24.23
315.933	77.48
316.146	40.62
316.36	9.9
316.573	83.63
316.787	95.91
317.001	69.29
317.214	-86.36
317.428	71.34
317.641	11.95
317.855	-6.49
318.068	11.95
318.282	61.1
318.495	130.73
318.709	83.63
318.922	24.23
319.136	75.43
319.349	40.62
319.563	24.23
319.776	97.96
319.99	-37.2
320.203	124.58
320.417	11.95
320.63	91.82
320.843	128.68
321.057	79.53
321.27	44.71
321.483	83.63
321.697	59.05
321.91	-33.11
322.124	5.8
322.337	40.62
322.55	-69.97
322.763	-41.3
322.977	42.67
323.19	-39.25
323.403	-14.68
323.617	-0.34
323.83	145.06
324.043	7.85
324.256	44.71
324.469	-14.68
324.683	229.03
324.896	1.71
325.109	3.75
325.322	-31.06
325.535	83.63
325.748	46.76
325.962	-33.11
326.175	81.58
326.388	67.24
326.601	114.34
326.814	16.04
327.027	116.39
327.24	132.78
327.453	-65.88
327.666	61.1
327.879	118.44
328.092	143.02
328.305	38.57
328.518	-6.49
328.731	-61.78
328.944	59.05
329.157	91.82
329.37	-33.11
329.583	89.77
329.796	151.21
330.009	-41.3
330.222	161.45
330.435	50.86
330.648	7.85
330.861	-4.44
331.073	-4.44
331.286	104.11
331.499	108.2
331.712	-37.2
331.925	143.02
332.138	9.9
332.35	85.67
332.563	-18.77
332.776	106.15
332.989	42.67
333.202	-20.82
333.414	28.33
333.627	-22.87
333.84	24.23
334.053	50.86
334.265	-18.77
334.478	-24.92
334.691	34.47
334.903	16.04
335.116	-31.06
335.329	77.48
335.541	54.95
335.754	134.82
335.966	-63.83
336.179	18.09
336.392	11.95
336.604	73.39
336.817	57
337.029	71.34
337.242	-24.92
337.454	59.05
337.667	11.95
337.88	85.67
338.092	-33.11
338.305	46.76
338.517	-0.34
338.729	95.91
338.942	65.19
339.154	18.09
339.367	-67.92
339.579	13.99
339.792	-29.01
340.004	73.39
340.217	-49.49
340.429	140.97
340.641	-69.97
340.854	11.95
341.066	18.09
341.278	79.53
341.491	159.4
341.703	-76.12
341.915	63.15
342.128	124.58
342.34	91.82
342.552	-18.77
342.764	24.23
342.977	5.8
343.189	89.77
343.401	7.85
343.613	-4.44
343.826	-90.45
344.038	-0.34
344.25	61.1
344.462	-6.49
344.674	87.72
344.886	3.75
345.099	79.53
345.311	54.95
345.523	-45.4
345.735	-94.55
345.947	16.04
346.159	16.04
346.371	-8.53
346.583	-106.84
346.795	247.46
347.007	32.43
347.219	46.76
347.431	42.67
347.643	120.49
347.855	79.53
348.067	75.43
348.279	-51.54
348.491	40.62
348.703	110.25
348.915	5.8
349.127	-53.59
349.339	114.34
349.551	36.52
349.763	44.71
349.975	42.67
350.187	104.11
350.399	32.43
350.61	81.58
350.822	-29.01
351.034	50.86
351.246	112.3
351.458	93.87
351.669	81.58
351.881	-26.96
352.093	85.67
352.305	75.43
352.517	54.95
352.728	110.25
352.94	100.01
353.152	44.71
353.363	-31.06
353.575	18.09
353.787	132.78
353.999	85.67
354.21	196.26
354.422	38.57
354.633	97.96
354.845	50.86
355.057	83.63
355.268	30.38
355.48	81.58
355.692	-86.36
355.903	89.77
356.115	-37.2
356.326	-123.22
356.538	149.16
356.749	89.77
356.961	110.25
357.172	16.04
357.384	-84.31
357.595	210.6
357.807	24.23
358.018	-76.12
358.23	20.14
358.441	241.32
358.653	63.15
358.864	-2.39
359.075	-2.39
359.287	-4.44
359.498	128.68
359.709	13.99
359.921	5.8
360.132	11.95
360.344	44.71
360.555	52.91
360.766	95.91
360.977	81.58
361.189	97.96
361.4	-2.39
361.611	145.06
361.823	167.59
362.034	9.9
362.245	-108.88
362.456	-20.82
362.667	106.15
362.879	-43.35
363.09	24.23
363.301	73.39
363.512	-47.44
363.723	-2.39
363.935	-4.44
364.146	163.5
364.357	-20.82
364.568	112.3
364.779	-55.64
364.99	210.6
365.201	3.75
365.412	87.72
365.623	-29.01
365.834	114.34
366.045	71.34
366.256	108.2
366.467	106.15
366.678	-12.63
366.889	24.23
367.1	83.63
367.311	104.11
367.522	-53.59
367.733	18.09
367.944	85.67
368.155	7.85
368.366	61.1
368.577	89.77
368.788	118.44
368.999	-0.34
369.209	5.8
369.42	218.79
369.631	253.61
369.842	120.49
370.053	57
370.264	95.91
370.474	-67.92
370.685	18.09
370.896	40.62
371.107	77.48
371.317	61.1
371.528	61.1
371.739	34.47
371.95	54.95
372.16	83.63
372.371	-31.06
372.582	67.24
372.792	85.67
373.003	5.8
373.214	73.39
373.424	128.68
373.635	-53.59
373.846	93.87
374.056	44.71
374.267	110.25
374.477	11.95
374.688	38.57
374.898	40.62
375.109	61.1
375.319	83.63
375.53	112.3
375.74	159.4
375.951	22.19
376.161	75.43
376.372	147.11
376.582	20.14
376.793	145.06
377.003	73.39
377.214	-65.88
377.424	87.72
377.635	59.05
377.845	-14.68
378.055	104.11
378.266	-121.17
378.476	54.95
378.686	18.09
378.897	32.43
379.107	134.82
379.317	26.28
379.528	54.95
379.738	118.44
379.948	-63.83
380.158	128.68
380.369	-33.11
380.579	112.3
380.789	73.39
380.999	83.63
381.21	81.58
381.42	153.26
381.63	36.52
381.84	89.77
382.05	167.59
382.261	54.95
382.471	104.11
382.681	-0.34
382.891	134.82
383.101	-31.06
383.311	-59.73
383.521	11.95
383.731	73.39
383.941	112.3
384.151	75.43
384.361	9.9
384.571	126.63
384.781	61.1
384.991	153.26
385.201	216.74
385.411	28.33
385.621	-4.44
385.831	102.06
386.041	20.14
386.251	13.99
386.461	85.67
386.671	69.29
386.881	87.72
387.091	13.99
387.301	108.2
387.511	48.81
387.72	63.15
387.93	95.91
388.14	-119.12
388.35	69.29
388.56	106.15
388.769	171.69
388.979	69.29
389.189	-29.01
389.399	-0.34
389.609	85.67
389.818	124.58
390.028	136.87
390.238	65.19
390.447	-26.96
390.657	42.67
390.867	-22.87
391.076	-61.78
391.286	52.91
391.496	1.71
391.705	-2.39
391.915	81.58
392.125	136.87
392.334	-53.59
392.544	183.98
392.753	3.75
392.963	-45.4
393.172	36.52
393.382	-67.92
393.591	79.53
393.801	34.47
394.01	181.93
394.22	-2.39
394.429	16.04
394.639	-18.77
394.848	-20.82
395.058	50.86
395.267	38.57
395.477	122.54
395.686	22.19
395.895	163.5
396.105	237.22
396.314	36.52
396.524	5.8
396.733	24.23
396.942	151.21
397.152	124.58
397.361	75.43
397.57	63.15
397.78	52.91
397.989	65.19
398.198	147.11
398.407	38.57
398.617	32.43
398.826	93.87
399.035	97.96
399.244	59.05
399.453	30.38
399.663	59.05
399.872	26.28
400.081	-76.12
400.29	157.35
400.499	-45.4
400.708	11.95
400.917	57
401.127	-24.92
401.336	34.47
401.545	173.74
401.754	181.93
401.963	118.44
402.172	-16.73
402.381	-37.2
402.59	95.91
402.799	112.3
403.008	83.63
403.217	26.28
403.426	46.76
403.635	-119.12
403.844	-0.34
404.053	48.81
404.262	40.62
404.471	110.25
404.68	145.06
404.888	7.85
405.097	36.52
405.306	87.72
405.515	134.82
405.724	40.62
405.933	71.34
406.142	93.87
406.35	157.35
406.559	30.38
406.768	36.52
406.977	89.77
407.185	89.77
407.394	3.75
407.603	-33.11
407.812	16.04
408.02	183.98
408.229	63.15
408.438	-2.39
408.646	-63.83
408.855	59.05
409.064	20.14
409.272	65.19
409.481	110.25
409.69	-22.87
409.898	34.47
410.107	71.34
410.315	110.25
410.524	-8.53
410.733	110.25
410.941	57
411.15	157.35
411.358	75.43
411.567	157.35
411.775	48.81
411.984	-31.06
412.192	57
412.401	24.23
412.609	163.5
412.818	102.06
413.026	77.48
413.234	46.76
413.443	100.01
413.651	-37.2
413.86	24.23
414.068	118.44
414.276	239.27
414.485	7.85
414.693	181.93
414.901	167.59
415.11	87.72
415.318	52.91
415.526	91.82
415.734	24.23
415.943	36.52
416.151	165.54
416.359	26.28
416.567	32.43
416.776	126.63
416.984	108.2
417.192	108.2
417.4	-29.01
417.608	1.71
417.817	-10.58
418.025	7.85
418.233	190.12
418.441	-49.49
418.649	-33.11
418.857	59.05
419.065	112.3
419.273	5.8
419.481	132.78
419.689	46.76
419.897	46.76
420.105	-12.63
420.313	54.95
420.521	151.21
420.729	140.97
420.937	16.04
421.145	-37.2
421.353	75.43
421.561	151.21
421.769	97.96
421.977	-47.44
422.185	97.96
422.393	20.14
422.601	149.16
422.809	89.77
423.017	32.43
423.224	9.9
423.432	138.92
423.64	36.52
423.848	210.6
424.056	-8.53
424.263	163.5
424.471	-6.49
424.679	50.86
424.887	-57.68
425.094	71.34
425.302	87.72
425.51	-8.53
425.718	120.49
425.925	93.87
426.133	-2.39
426.341	149.16
426.548	52.91
426.756	28.33
426.964	108.2
427.171	-31.06
427.379	-10.58
427.586	32.43
427.794	102.06
428.001	104.11
428.209	61.1
428.417	120.49
428.624	128.68
428.832	143.02
429.039	91.82
429.247	1.71
429.454	46.76
429.662	175.78
429.869	46.76
430.076	73.39
430.284	87.72
430.491	183.98
430.699	100.01
430.906	200.36
431.114	61.1
431.321	100.01
431.528	97.96
431.736	61.1
431.943	85.67
432.15	102.06
432.358	57
432.565	263.85
432.772	-14.68
432.979	151.21
433.187	126.63
433.394	140.97
433.601	38.57
433.808	171.69
434.016	181.93
434.223	147.11
434.43	93.87
434.637	138.92
434.844	122.54
435.052	263.85
435.259	106.15
435.466	183.98
435.673	163.5
435.88	231.08
436.087	286.37
436.294	253.61
436.501	179.88
436.708	200.36
436.915	247.46
437.122	233.13
437.329	108.2
437.537	163.5
437.743	243.37
437.95	259.75
438.157	206.5
438.364	149.16
438.571	210.6
438.778	368.29
438.985	220.84
439.192	290.47
439.399	239.27
439.606	274.09
439.813	310.95
440.02	323.24
440.227	423.59
440.433	331.43
440.64	278.18
440.847	249.51
441.054	310.95
441.261	380.58
441.467	321.19
441.674	331.43
441.881	390.82
442.088	292.52
442.294	433.83
442.501	429.73
442.708	497.32
442.914	468.64
443.121	489.12
443.328	509.6
443.534	577.19
443.741	517.79
443.948	470.69
444.154	601.76
444.361	730.78
444.568	618.15
444.774	603.81
444.981	497.32
445.187	734.88
445.394	589.47
445.6	675.49
445.807	704.16
446.013	698.02
446.22	646.82
446.426	800.41
446.633	894.62
446.839	1003.16
447.046	771.74
447.252	857.76
447.459	911
447.665	868
447.871	1023.64
448.078	1138.33
448.284	1097.37
448.491	1074.84
448.697	1293.97
448.903	1296.02
449.11	1210.01
449.316	1183.38
449.522	1427.09
449.728	1515.16
449.935	1427.09
450.141	1410.71
450.347	1605.27
450.553	1552.02
450.76	1588.88
450.966	1711.76
451.172	1693.33
451.378	1791.63
451.584	1889.93
451.791	2119.31
451.997	1971.85
452.203	2072.2
452.409	2219.66
452.615	2158.22
452.821	2111.11
453.027	2221.7
453.233	2563.72
453.44	2395.78
453.646	2514.56
453.852	2756.22
454.058	2735.74
454.264	2713.22
454.47	2956.93
454.676	2889.34
454.882	3284.6
455.088	3108.48
455.294	3440.25
455.5	3624.56
455.705	3704.43
455.911	3759.73
456.117	3790.45
456.323	3999.34
456.529	4073.07
456.735	4230.76
456.941	4453.99
457.147	4677.22
457.352	4662.88
457.558	4824.67
457.764	5146.2
457.97	5219.93
458.176	5588.57
458.381	5688.92
458.587	6061.65
458.793	6133.33
458.999	6098.51
459.204	6813.25
459.41	7142.97
459.616	6923.84
459.821	7573.05
460.027	7722.55
460.233	8099.38
460.438	8111.66
460.644	8625.7
460.85	8883.75
461.055	9027.1
461.261	9373.21
461.466	9379.36
461.672	9432.6
461.878	10601.99
462.083	10395.15
462.289	10671.62
462.494	11011.59
462.7	11316.73
462.905	11333.12
463.111	12307.95
463.316	12983.78
463.522	12940.77
463.727	13458.91
463.932	13993.43
464.138	14730.7
464.343	15011.27
464.549	15242.69
464.754	16061.88
464.959	16799.15
465.165	17032.61
465.37	16811.43
465.575	16836.01
465.781	18038.17
465.986	18613.65
466.191	18300.31
466.397	18455.95
466.602	18142.61
466.807	18984.33
467.012	19586.43
467.218	19856.76
467.423	20008.31
467.628	20379
467.833	21409.12
468.038	20970.86
468.244	20678
468.449	21536.1
468.654	21310.82
468.859	21280.1
469.064	21372.26
469.269	20927.85
469.474	21042.54
469.679	21775.71
469.885	21091.69
470.09	21261.67
470.295	21585.25
470.5	21077.35
470.705	21159.27
470.91	20692.33
471.115	20166.01
471.32	20596.08
471.525	20510.07
471.73	20237.69
471.935	19993.98
472.139	18933.13
472.344	18892.17
472.549	19312
472.754	18847.12
472.959	18056.6
473.164	17921.43
473.369	17599.9
473.574	17763.74
473.778	17673.63
473.983	17444.26
474.188	16780.71
474.393	16264.63
474.598	16027.06
474.802	15877.56
475.007	15381.95
475.212	15463.87
475.417	14761.42
475.621	14609.87
475.826	14427.6
476.031	14091.73
476.235	13907.41
476.44	14034.39
476.645	13575.64
476.849	13395.42
477.054	13204.96
477.259	12768.74
477.463	12764.65
477.668	12510.7
477.872	12359.15
478.077	11824.63
478.282	11845.11
478.486	11734.52
478.691	11396.6
478.895	11294.21
479.1	11181.57
479.304	11267.58
479.509	10993.15
479.713	11062.79
479.918	10532.36
480.122	10589.71
480.326	10513.93
480.531	10630.66
480.735	10331.66
480.94	10194.45
481.144	10593.8
481.348	9954.83
481.553	9975.31
481.757	9680.41
481.961	10034.71
482.166	9995.79
482.37	9901.59
482.574	9461.27
482.778	9715.22
482.983	9799.19
483.187	9547.29
483.391	9498.14
483.595	9231.9
483.8	9242.14
484.004	9373.21
484.208	9201.18
484.412	9236
484.616	9078.3
484.821	9121.31
485.025	8650.28
485.229	8611.37
485.433	8506.92
485.637	8541.74
485.841	8224.3
486.045	8142.38
486.249	8341.04
486.453	7814.71
486.657	7878.19
486.861	7773.75
487.065	7431.74
487.269	7558.71
487.473	7304.76
487.677	7323.19
487.881	7327.29
488.085	7147.07
488.289	7042.62
488.493	6708.8
488.697	6817.35
488.901	6843.97
489.105	6428.23
489.309	6461
489.512	6223.44
489.716	6291.02
489.92	6057.55
490.124	5914.19
490.328	5903.95
490.531	5836.37
490.735	5785.17
490.939	5566.04
491.143	5576.28
491.346	5437.02
491.55	5353.05
491.754	5217.88
491.958	5086.81
492.161	4886.11
492.365	4902.5
492.569	4918.88
492.772	4798.05
492.976	4796
493.18	4646.5
493.383	4658.79
493.587	4505.19
493.79	4632.16
493.994	4415.08
494.197	4472.42
494.401	4398.7
494.605	4224.62
494.808	4243.05
495.012	4374.12
495.215	4179.56
495.419	4288.11
495.622	3997.29
495.825	4013.68
496.029	3982.96
496.232	4202.09
496.436	4044.4
496.639	4017.77
496.843	3937.9
497.046	3911.28
497.249	3962.48
497.453	4073.07
497.656	3845.74
497.859	3976.81
498.063	4048.49
498.266	4089.45
498.469	3802.74
498.673	3944.05
498.876	3815.02
499.079	4073.07
499.282	3972.72
499.485	4214.38
499.689	4103.79
499.892	4099.69
500.095	4011.63
500.298	4222.57
500.501	3991.15
500.705	4036.21
500.908	4308.58
501.111	4349.54
501.314	4228.71
501.517	4398.7
501.72	4470.37
501.923	4316.78
502.126	4376.17
502.329	4626.02
502.532	4540.01
502.735	4494.95
502.938	4740.71
503.141	4599.4
503.344	4599.4
503.547	4896.35
503.75	4730.47
503.953	4820.58
504.156	4916.83
504.359	5027.42
504.562	5224.03
504.765	5027.42
504.968	5297.75
505.17	5246.55
505.373	5490.26
505.576	5643.86
505.779	5500.5
505.982	5455.45
506.185	5639.76
506.387	5801.55
506.59	6010.45
506.793	5996.11
506.996	6053.45
507.198	6241.87
507.401	6299.21
507.604	6557.25
507.807	6608.45
508.009	6727.24
508.212	6794.82
508.415	6878.79
508.617	6981.18
508.82	7048.77
509.022	7175.74
509.225	7495.22
509.428	7779.89
509.63	7859.76
509.833	7845.43
510.035	8156.72
510.238	8345.13
510.44	8511.02
510.643	8685.09
510.845	9055.78
511.048	8986.15
511.25	9213.47
511.453	9553.43
511.655	9827.86
511.858	9874.96
512.06	10198.54
512.262	10350.09
512.465	10495.5
512.667	10812.93
512.87	11044.35
513.072	11245.06
513.274	11570.68
513.477	11711.99
513.679	12006.9
513.881	12418.54
514.084	12398.06
514.286	13002.21
514.488	13053.41
514.69	13413.85
514.893	13624.79
515.095	14065.11
515.297	14218.71
515.499	14439.89
515.701	14833.1
515.904	15365.57
516.106	15586.75
516.308	16133.56
516.51	16553.39
516.712	16508.33
516.914	16809.39
517.116	17286.56
517.318	17601.95
517.52	17931.67
517.722	18306.45
517.925	18621.84
518.127	18888.07
518.329	19633.54
518.531	19398.02
518.733	20172.15
518.935	20364.66
519.136	20764.01
519.338	21353.83
519.54	21525.86
519.742	22068.57
519.944	22213.98
520.146	22533.46
520.348	22998.35
520.55	23418.18
520.752	23266.63
520.954	23778.62
521.155	24161.59
521.357	24366.39
521.559	24849.71
521.761	25142.57
521.963	25036.08
522.164	25376.04
522.366	25799.97
522.568	26303.77
522.77	26223.9
522.971	27127.05
523.173	26625.3
523.375	27122.96
523.576	27102.48
523.778	27235.6
523.98	27751.68
524.181	27995.39
524.383	28210.43
524.584	28351.74
524.786	27927.81
524.988	28083.45
525.189	28040.45
525.391	28775.67
525.592	28558.58
525.794	28517.62
525.995	28251.39
526.197	28327.16
526.398	28347.64
526.6	28495.1
526.801	28110.08
527.003	28343.55
527.204	28366.07
527.406	28570.87
527.607	28464.38
527.808	28538.1
528.01	27735.3
528.211	27901.18
528.412	28402.94
528.614	27714.82
528.815	27772.16
529.016	27729.16
529.218	27129.1
529.419	27280.65
529.62	26826
529.822	26510.61
530.023	26166.56
530.224	26445.08
530.425	25519.4
530.626	25777.44
530.828	25079.08
531.029	25568.55
531.23	24915.25
531.431	24708.4
531.632	24685.87
531.833	24567.09
532.035	24057.15
532.236	23645.51
532.437	23440.71
532.638	23170.38
532.839	22738.26
533.04	22592.85
533.241	22009.18
533.442	22523.22
533.643	21689.7
533.844	21699.94
534.045	21200.23
534.246	20743.53
534.447	20839.79
534.648	20696.43
534.849	20510.07
535.05	20137.34
535.251	19748.22
535.451	19371.4
535.652	19301.76
535.853	19002.76
536.054	18685.33
536.255	18611.6
536.456	17984.92
536.657	18101.65
536.857	17665.44
537.058	17464.74
537.259	17421.73
537.46	16952.74
537.66	16670.12
537.861	16635.31
538.062	16371.12
538.263	16209.33
538.463	16080.31
538.664	15756.73
538.865	15476.16
539.065	15496.64
539.266	14980.55
539.466	15074.76
539.667	14802.38
539.868	14695.88
540.068	14489.04
540.269	14333.39
540.469	14192.08
540.67	13870.55
540.87	14032.34
541.071	13620.7
541.271	13694.43
541.472	13370.85
541.672	13358.56
541.873	12914.15
542.073	12692.97
542.274	12836.33
542.474	12778.98
542.675	12402.16
542.875	12416.49
543.075	12029.43
543.276	11922.93
543.476	11892.21
543.676	11912.69
543.877	11746.81
544.077	11593.21
544.277	11527.67
544.478	11189.76
544.678	11156.99
544.878	11197.95
545.078	10898.95
545.279	10710.54
545.479	10509.83
545.679	10477.07
545.879	10657.29
546.079	10128.91
546.28	10001.94
546.48	10036.75
546.68	10046.99
546.88	10049.04
547.08	9680.41
547.28	9803.29
547.48	9504.28
547.68	9578.01
547.88	9129.5
548.081	9365.02
548.281	9090.59
548.481	8846.88
548.681	8992.29
548.881	8785.44
549.081	8517.16
549.28	8541.74
549.48	8443.43
549.68	8298.03
549.88	8164.91
550.08	8019.5
550.28	8097.33
550.48	8019.5
550.68	7783.99
550.88	7605.81
551.08	7497.27
551.279	7530.04
551.479	7370.3
551.679	7441.98
551.879	7032.38
552.079	7136.83
552.278	6839.87
552.478	7003.71
552.678	6708.8
552.878	6723.14
553.077	6393.42
553.277	6397.51
553.477	6282.83
553.676	6264.4
553.876	6153.8
554.076	5918.29
554.275	6108.75
554.475	5768.79
554.674	5924.43
554.874	5824.08
555.074	5529.17
555.273	5584.47
555.473	5328.47
555.672	5348.95
555.872	5088.86
556.071	5064.29
556.271	5119.58
556.47	4925.02
556.67	4769.38
556.869	4920.93
557.068	4783.71
557.268	4570.72
557.467	4451.94
557.667	4742.75
557.866	4337.26
558.065	4445.8
558.265	4306.54
558.464	4165.23
558.663	4183.66
558.863	4138.6
559.062	4019.82
559.261	3892.85
559.461	3993.2
559.66	3810.93
559.859	3624.56
560.058	3579.51
560.258	3456.63
560.457	3563.12
560.656	3509.88
560.855	3427.96
561.054	3473.01
561.253	3323.51
561.453	3358.33
561.652	3307.13
561.851	3212.92
562.05	3038.84
562.249	2997.88
562.448	3178.11
562.647	2989.69
562.846	2999.93
563.045	3096.19
563.244	2760.32
563.443	2942.59
563.642	2788.99
563.841	2723.46
564.04	2760.32
564.239	2741.89
564.438	2549.38
564.637	2320.01
564.836	2459.27
565.035	2500.23
565.234	2381.45
565.432	2483.84
565.631	2424.45
565.83	2297.48
566.029	2285.19
566.228	2381.45
566.427	2307.72
566.625	2147.98
566.824	2186.89
567.023	2197.13
567.222	2045.58
567.42	2092.68
567.619	2086.54
567.818	2025.1
568.016	2186.89
568.215	1971.85
568.414	2053.77
568.612	1930.89
568.811	1883.79
569.01	1910.41
569.208	1738.38
569.407	1814.16
569.605	1775.25
569.804	1762.96
570.002	1799.82
570.201	1588.88
570.4	1648.27
570.598	1609.36
570.797	1578.64
570.995	1552.02
571.193	1521.3
571.392	1635.99
571.59	1437.33
571.789	1578.64
571.987	1613.46
572.186	1437.33
572.384	1377.94
572.582	1433.24
572.781	1369.75
572.979	1289.88
573.177	1240.73
573.376	1269.4
573.574	1412.76
573.772	1248.92
573.971	1183.38
574.169	1117.85
574.367	1238.68
574.565	1105.56
574.763	1244.82
574.962	1171.1
575.16	1177.24
575.358	1134.23
575.556	1052.31
575.754	1128.09
575.952	1025.69
576.151	1119.9
576.349	1167
576.547	945.82
576.745	1080.99
576.943	878.24
577.141	1019.55
577.339	718.5
577.537	890.53
577.735	1005.21
577.933	874.14
578.131	798.37
578.329	1011.36
578.527	810.65
578.725	915.1
578.923	698.02
579.121	831.13
579.319	589.47
579.516	775.84
579.714	906.91
579.912	777.89
580.11	669.34
580.308	712.35
580.506	677.54
580.704	595.62
580.901	650.91
581.099	753.31
581.297	630.43
581.495	685.73
581.692	605.86
581.89	788.13
582.088	652.96
582.285	628.39
582.483	607.91
582.681	700.06
582.878	693.92
583.076	691.87
583.274	618.15
583.471	691.87
583.669	698.02
583.866	505.51
584.064	433.83
584.262	462.5
584.459	382.63
584.657	525.99
584.854	538.27
585.052	489.12
585.249	509.6
585.447	550.56
585.644	380.58
585.841	687.78
586.039	505.51
586.236	562.85
586.434	478.88
586.631	425.64
586.828	493.22
587.026	448.16
587.223	396.96
587.42	405.16
587.618	511.65
587.815	507.55
588.012	437.92
588.21	343.72
588.407	470.69
588.604	462.5
588.801	356.01
588.999	378.53
589.196	485.03
589.393	392.87
589.59	374.44
589.787	394.92
589.984	390.82
590.182	370.34
590.379	325.29
590.576	446.12
590.773	386.72
590.97	429.73
591.167	415.4
591.364	417.44
591.561	417.44
591.758	444.07
591.955	450.21
592.152	327.33
592.349	317.09
592.546	323.24
592.743	327.33
592.94	308.9
593.137	349.86
593.334	489.12
593.531	317.09
593.727	267.94
593.924	386.72
594.121	366.25
594.318	308.9
594.515	401.06
594.712	380.58
594.908	425.64
595.105	278.18
595.302	409.25
595.499	409.25
595.696	470.69
595.892	296.61
596.089	523.94
596.286	358.05
596.482	497.32
596.679	456.36
596.876	417.44
597.072	480.93
597.269	306.85
597.466	491.17
597.662	407.2
597.859	474.79
598.055	556.71
598.252	505.51
598.448	577.19
598.645	480.93
598.841	562.85
599.038	700.06
599.234	724.64
599.431	675.49
599.627	669.34
599.824	614.05
600.02	698.02
600.217	652.96
600.413	722.59
600.609	695.97
600.806	992.92
601.002	829.09
601.198	816.8
601.395	857.76
601.591	904.86
601.787	997.02
601.984	1001.12
602.18	1076.89
602.376	1107.61
602.572	1123.99
602.769	1164.95
602.965	1263.26
603.161	1255.06
603.357	1177.24
603.553	1349.27
603.75	1300.12
603.946	1324.69
604.142	1408.66
604.338	1678.99
604.534	1431.19
604.73	1578.64
604.926	1701.52
605.122	1787.54
605.318	1717.9
605.514	1793.68
605.71	1832.59
605.906	1916.56
606.102	1910.41
606.298	2133.64
606.494	2080.39
606.69	2160.27
606.886	2045.58
607.082	2260.62
607.278	2147.98
607.474	2401.93
607.67	2422.41
607.866	2414.21
608.062	2684.55
608.257	2764.42
608.453	2702.98
608.649	2700.93
608.845	2862.72
609.041	2965.12
609.236	3102.33
609.432	3131
609.628	3241.59
609.824	3241.59
610.019	3286.65
610.215	3497.59
610.411	3493.49
610.606	3720.82
610.802	3493.49
610.998	3827.31
611.193	3968.62
611.389	3999.34
611.584	3987.05
611.78	4093.55
611.976	4218.47
612.171	4611.68
612.367	4593.25
612.562	4738.66
612.758	4673.12
612.953	4769.38
613.149	5084.77
613.344	5111.39
613.539	5156.44
613.735	5320.28
613.93	5582.42
614.126	5715.54
614.321	5871.19
614.517	6155.85
614.712	6061.65
614.907	6481.48
615.103	6461
615.298	6526.54
615.493	6741.57
615.688	6667.84
615.884	7386.68
616.079	7190.08
616.274	7280.19
616.47	7718.45
616.665	7695.93
616.86	8046.13
617.055	8189.49
617.25	8171.05
617.445	8529.45
617.641	8730.15
617.836	8850.98
618.031	9018.91
618.226	9600.54
618.421	9694.74
618.616	9852.44
618.811	9942.55
619.006	10409.48
619.201	10288.65
619.396	10731.01
619.591	10784.26
619.786	11357.69
619.981	11189.76
620.176	11675.13
620.371	11961.84
620.566	11992.56
620.761	12590.57
620.956	12879.33
621.151	12910.05
621.346	13258.21
621.541	13110.75
621.735	13872.6
621.93	13671.9
622.125	14040.53
622.32	14233.04
622.515	14544.33
622.709	14872.01
622.904	15357.38
623.099	15541.69
623.294	15932.86
623.488	15699.39
623.683	16373.17
623.878	16172.47
624.072	16709.04
624.267	16862.63
624.462	17376.67
624.656	17509.79
624.851	17946.01
625.046	17939.86
625.24	18285.97
625.435	18726.28
625.629	18883.98
625.824	19121.54
626.018	19287.43
626.213	19314.05
626.407	19756.41
626.602	19664.25
626.796	20043.13
626.991	20505.97
627.185	20411.76
627.38	20747.63
627.574	20766.06
627.768	20667.76
627.963	20837.74
628.157	20962.67
628.352	21243.24
628.546	20968.81
628.74	21175.66
628.935	20868.46
629.129	21493.09
629.323	20979.05
629.517	21013.87
629.712	20704.62
629.906	20901.23
630.1	20487.54
630.294	20536.69
630.489	20243.83
630.683	20270.45
630.877	19654.01
631.071	19260.8
631.265	19074.44
631.459	18781.58
631.653	18181.53
631.848	17792.41
632.042	17560.99
632.236	17075.62
632.43	16856.49
632.624	16303.54
632.818	16012.73
633.012	15185.35
633.206	14853.58
633.4	14443.98
633.594	13821.4
633.788	13671.9
633.982	12987.88
634.176	12746.22
634.369	12166.64
634.563	11720.18
634.757	11085.31
634.951	10829.32
635.145	10575.37
635.339	9954.83
635.533	9553.43
635.726	9326.11
635.92	8760.87
636.114	8525.35
636.308	8007.22
636.501	7783.99
636.695	7427.64
636.889	7059.01
637.083	6790.72
637.276	6360.65
637.47	6381.13
637.664	6088.27
637.857	5846.61
638.051	5776.98
638.244	5480.02
638.438	5258.84
638.632	4998.75
638.825	4589.16
639.019	4644.45
639.212	4378.22
639.406	4257.39
639.599	4140.65
639.793	4005.49
639.986	3661.43
640.18	3751.54
640.373	3536.5
640.567	3387
640.76	3143.29
640.954	3169.91
641.147	2930.3
641.34	2807.42
641.534	2729.6
641.727	2766.46
641.92	2590.34
642.114	2498.18
642.307	2252.42
642.5	2367.11
642.694	2094.73
642.887	2246.28
643.08	2209.42
643.273	2084.49
643.467	1906.32
643.66	1851.02
643.853	1656.47
644.046	1687.18
644.239	1541.78
644.432	1494.68
644.626	1414.81
644.819	1441.43
645.012	1281.69
645.205	1420.95
645.398	1312.41
645.591	1175.19
645.784	1148.57
645.977	1087.13
646.17	1095.32
646.363	1007.26
646.556	962.2
646.749	954.01
646.942	988.83
647.135	884.38
647.328	865.95
647.521	802.46
647.714	808.61
647.907	822.94
648.099	706.21
648.292	759.46
648.485	601.76
648.678	583.33
648.871	636.58
649.064	700.06
649.256	540.32
649.449	468.64
649.642	421.54
649.835	532.13
650.027	525.99
650.22	485.03
650.413	482.98
650.605	515.75
650.798	374.44
650.991	415.4
651.183	310.95
651.376	425.64
651.568	448.16
651.761	356.01
651.954	380.58
652.146	345.77
652.339	253.61
652.531	290.47
652.724	294.57
652.916	253.61
653.109	169.64
653.301	399.01
653.494	390.82
653.686	290.47
653.879	460.45
654.071	296.61
654.263	294.57
654.456	294.57
654.648	310.95
654.84	216.74
655.033	198.31
655.225	280.23
655.417	118.44
655.61	335.53
655.802	308.9
655.994	274.09
656.186	159.4
656.379	267.94
656.571	179.88
656.763	108.2
656.955	188.07
657.148	157.35
657.34	257.7
657.532	222.89
657.724	151.21
657.916	159.4
658.108	294.57
658.3	274.09
658.492	167.59
658.684	77.48
658.876	198.31
659.068	102.06
659.26	71.34
659.452	44.71
659.644	163.5
659.836	175.78
660.028	145.06
660.22	116.39
660.412	190.12
660.604	147.11
660.796	100.01
660.988	237.22
661.18	140.97
661.372	171.69
661.563	134.82
661.755	186.02
661.947	57
662.139	100.01
662.331	118.44
662.522	173.74
662.714	85.67
662.906	136.87
663.097	106.15
663.289	16.04
663.481	20.14
663.673	71.34
663.864	106.15
664.056	169.64
664.247	110.25
664.439	153.26
664.631	124.58
664.822	200.36
665.014	104.11
665.205	114.34
665.397	81.58
665.588	42.67
665.78	81.58
665.971	183.98
666.163	91.82
666.354	163.5
666.546	24.23
666.737	77.48
666.929	95.91
667.12	46.76
667.311	126.63
667.503	120.49
667.694	140.97
667.885	122.54
668.077	149.16
668.268	-14.68
668.459	77.48
668.651	110.25
668.842	73.39
669.033	-24.92
669.224	-12.63
669.416	241.32
669.607	87.72
669.798	65.19
669.989	208.55
670.18	50.86
670.371	220.84
670.563	-12.63
670.754	298.66
670.945	157.35
671.136	126.63
671.327	-20.82
671.518	173.74
671.709	147.11
671.9	186.02
672.091	190.12
672.282	138.92
672.473	79.53
672.664	106.15
672.855	91.82
673.046	143.02
673.237	149.16
673.428	57
673.619	132.78
673.809	20.14
674	190.12
674.191	147.11
674.382	93.87
674.573	93.87
674.764	145.06
674.954	210.6
675.145	-24.92
675.336	46.76
675.527	93.87
675.717	116.39
675.908	-86.36
676.099	67.24
676.289	106.15
676.48	61.1
676.671	175.78
676.861	44.71
677.052	122.54
677.243	69.29
677.433	52.91
677.624	179.88
677.814	151.21
678.005	100.01
678.195	255.65
678.386	38.57
678.576	83.63
678.767	91.82
678.957	87.72
679.148	241.32
679.338	200.36
679.529	116.39
679.719	157.35
679.909	188.07
680.1	118.44
680.29	226.98
680.481	26.28
680.671	177.83
680.861	67.24
681.052	81.58
681.242	46.76
681.432	192.17
681.622	116.39
681.813	20.14
682.003	116.39
682.193	-2.39
682.383	167.59
682.573	159.4
682.764	100.01
682.954	104.11
683.144	196.26
683.334	157.35
683.524	179.88
683.714	181.93
683.904	224.94
684.094	95.91
684.284	138.92
684.474	155.3
684.664	171.69
684.854	159.4
685.044	134.82
685.234	106.15
685.424	83.63
685.614	34.47
685.804	192.17
685.994	159.4
686.184	210.6
686.374	126.63
686.564	57
686.753	194.22
686.943	-29.01
687.133	179.88
687.323	128.68
687.513	200.36
687.702	110.25
687.892	149.16
688.082	208.55
688.272	183.98
688.461	169.64
688.651	226.98
688.841	257.7
689.03	108.2
689.22	241.32
689.41	165.54
689.599	229.03
689.789	118.44
689.979	288.42
690.168	134.82
690.358	204.46
690.547	173.74
690.737	194.22
690.926	140.97
691.116	194.22
691.305	212.65
691.495	224.94
691.684	75.43
691.874	100.01
692.063	190.12
692.252	161.45
692.442	208.55
692.631	177.83
692.82	132.78
693.01	110.25
693.199	104.11
693.388	116.39
693.578	169.64
693.767	265.89
693.956	198.31
694.146	235.18
694.335	169.64
694.524	138.92
694.713	241.32
694.902	190.12
695.092	118.44
695.281	159.4
695.47	100.01
695.659	118.44
695.848	202.41
696.037	132.78
696.226	153.26
696.415	77.48
696.604	210.6
696.793	167.59
696.982	87.72
697.171	282.28
697.36	54.95
697.549	110.25
697.738	38.57
697.927	138.92
698.116	128.68
698.305	165.54
698.494	190.12
698.683	106.15
698.872	347.81
699.061	63.15
699.25	110.25
699.438	124.58
699.627	104.11
699.816	267.94
700.005	89.77
700.193	183.98
700.382	190.12
700.571	214.7
700.76	136.87
700.948	284.33
701.137	179.88
701.326	124.58
701.514	183.98
701.703	167.59
701.892	204.46
702.08	259.75
702.269	34.47
702.457	102.06
702.646	134.82
702.834	151.21
703.023	208.55
703.212	241.32
703.4	169.64
703.589	120.49
703.777	151.21
703.965	97.96
704.154	145.06
704.342	65.19
704.531	145.06
704.719	186.02
704.907	147.11
705.096	95.91
705.284	57
705.472	218.79
705.661	89.77
705.849	202.41
706.037	204.46
706.226	224.94
706.414	202.41
706.602	71.34
706.79	167.59
706.979	110.25
707.167	87.72
707.355	-12.63
707.543	155.3
707.731	188.07
707.919	54.95
708.107	132.78
708.296	83.63
708.484	-8.53
708.672	167.59
708.86	257.7
709.048	102.06
709.236	114.34
709.424	290.47
709.612	175.78
709.8	30.38
709.988	134.82
710.176	173.74
710.364	229.03
710.551	153.26
710.739	61.1
710.927	155.3
711.115	143.02
711.303	241.32
711.491	253.61
711.679	46.76
711.866	220.84
712.054	87.72
712.242	177.83
712.43	224.94
712.617	91.82
712.805	249.51
712.993	104.11
713.181	102.06
713.368	241.32
713.556	91.82
713.744	167.59
713.931	288.42
714.119	265.89
714.306	134.82
714.494	145.06
714.682	132.78
714.869	34.47
715.057	102.06
715.244	-24.92
715.432	157.35
715.619	77.48
715.807	93.87
715.994	87.72
716.182	175.78
716.369	194.22
716.556	204.46
716.744	149.16
716.931	126.63
717.119	181.93
717.306	153.26
717.493	192.17
717.681	132.78
717.868	95.91
718.055	112.3
718.242	147.11
718.43	194.22
718.617	233.13
718.804	120.49
718.991	226.98
719.179	216.74
719.366	214.7
719.553	128.68
719.74	161.45
719.927	108.2
720.114	220.84
720.301	120.49
720.488	102.06
720.676	120.49
720.863	229.03
721.05	384.68
721.237	157.35
721.424	151.21
721.611	222.89
721.798	104.11
721.985	159.4
722.172	112.3
722.358	175.78
722.545	274.09
722.732	192.17
722.919	243.37
723.106	306.85
723.293	186.02
723.48	194.22
723.667	130.73
723.853	241.32
724.04	290.47
724.227	196.26
724.414	173.74
724.6	261.8
724.787	308.9
724.974	339.62
725.161	261.8
725.347	122.54
725.534	202.41
725.72	192.17
725.907	210.6
726.094	186.02
726.28	126.63
726.467	204.46
726.653	122.54
726.84	366.25
727.027	302.76
727.213	112.3
727.4	204.46
727.586	173.74
727.773	222.89
727.959	190.12
728.145	243.37
728.332	186.02
728.518	175.78
728.705	149.16
728.891	226.98
729.077	97.96
729.264	177.83
729.45	165.54
729.636	276.13
729.823	253.61
730.009	263.85
730.195	212.65
730.382	190.12
730.568	229.03
730.754	245.41
730.94	224.94
731.126	239.27
731.313	274.09
731.499	212.65
731.685	177.83
731.871	233.13
732.057	239.27
732.243	347.81
732.429	161.45
732.615	358.05
732.801	181.93
732.987	224.94
733.173	249.51
733.359	147.11
733.545	220.84
733.731	190.12
733.917	237.22
734.103	229.03
734.289	204.46
734.475	165.54
734.661	370.34
734.847	265.89
735.033	186.02
735.219	243.37
735.404	181.93
735.59	216.74
735.776	206.5
735.962	243.37
736.148	265.89
736.333	362.15
736.519	265.89
736.705	149.16
736.89	239.27
737.076	261.8
737.262	97.96
737.447	198.31
737.633	220.84
737.819	310.95
738.004	202.41
738.19	120.49
738.375	226.98
738.561	282.28
738.747	329.38
738.932	143.02
739.118	421.54
739.303	327.33
739.489	302.76
739.674	194.22
739.859	243.37
740.045	249.51
740.23	220.84
740.416	147.11
740.601	263.85
740.786	249.51
740.972	179.88
741.157	198.31
741.342	163.5
741.528	204.46
741.713	261.8
741.898	222.89
742.084	237.22
742.269	257.7
742.454	292.52
742.639	325.29
742.824	212.65
743.01	288.42
743.195	421.54
743.38	171.69
743.565	233.13
743.75	231.08
743.935	282.28
744.12	300.71
744.305	188.07
744.49	173.74
744.675	226.98
744.86	138.92
745.045	202.41
745.23	183.98
745.415	206.5
745.6	335.53
745.785	134.82
745.97	259.75
746.155	235.18
746.34	290.47
746.525	325.29
746.71	310.95
746.895	126.63
747.079	147.11
747.264	126.63
747.449	278.18
747.634	265.89
747.819	183.98
748.003	257.7
748.188	204.46
748.373	315.05
748.557	226.98
748.742	269.99
748.927	186.02
749.111	208.55
749.296	171.69
749.481	290.47
749.665	251.56
749.85	128.68
750.034	194.22
750.219	220.84
750.404	157.35
750.588	259.75
750.773	165.54
750.957	126.63
751.141	186.02
751.326	231.08
751.51	79.53
751.695	241.32
751.879	245.41
752.064	212.65
752.248	147.11
752.432	298.66
752.617	171.69
752.801	261.8
752.985	181.93
753.17	167.59
753.354	245.41
753.538	171.69
753.722	110.25
753.907	134.82
754.091	163.5
754.275	282.28
754.459	77.48
754.643	22.19
754.828	194.22
755.012	147.11
755.196	85.67
755.38	153.26
755.564	130.73
755.748	145.06
755.932	222.89
756.116	239.27
756.3	245.41
756.484	87.72
756.668	140.97
756.852	28.33
757.036	153.26
757.22	151.21
757.404	110.25
757.588	69.29
757.772	110.25
757.956	159.4
758.14	263.85
758.323	85.67
758.507	229.03
758.691	95.91
758.875	202.41
759.059	143.02
759.242	69.29
759.426	147.11
759.61	149.16
759.794	106.15
759.977	124.58
760.161	319.14
760.345	237.22
760.528	140.97
760.712	114.34
760.895	288.42
761.079	126.63
761.263	7.85
761.446	169.64
761.63	149.16
761.813	235.18
761.997	32.43
762.18	75.43
762.364	124.58
762.547	-14.68
762.731	106.15
762.914	157.35
763.098	126.63
763.281	134.82
763.464	130.73
763.648	155.3
763.831	149.16
764.015	87.72
764.198	208.55
764.381	57
764.564	181.93
764.748	126.63
764.931	143.02
765.114	95.91
765.297	171.69
765.481	18.09
765.664	24.23
765.847	79.53
766.03	202.41
766.213	61.1
766.397	61.1
766.58	77.48
766.763	206.5
766.946	108.2
767.129	87.72
767.312	57
767.495	50.86
767.678	-12.63
767.861	114.34
768.044	136.87
768.227	134.82
768.41	46.76
768.593	77.48
768.776	57
768.959	85.67
769.142	104.11
769.324	52.91
769.507	20.14
769.69	91.82
769.873	91.82
770.056	200.36
770.239	65.19
770.421	161.45
770.604	163.5
770.787	89.77
770.97	126.63
771.152	-12.63
771.335	20.14
771.518	30.38
771.7	110.25
771.883	210.6
772.066	36.52
772.248	50.86
772.431	93.87
772.613	89.77
772.796	95.91
772.978	48.81
773.161	231.08
773.343	40.62
773.526	3.75
773.708	-10.58
773.891	-10.58
774.073	155.3
774.256	100.01
774.438	145.06
774.621	38.57
774.803	89.77
774.985	69.29
775.168	54.95
775.35	28.33
775.532	89.77
775.715	-2.39
775.897	106.15
776.079	-18.77
776.261	83.63
776.444	114.34
776.626	42.67
776.808	81.58
776.99	-57.68
777.173	91.82
777.355	89.77
777.537	34.47
777.719	138.92
777.901	46.76
778.083	50.86
778.265	36.52
778.447	83.63
778.629	-35.16
778.811	75.43
778.993	143.02
779.175	106.15
779.357	102.06
779.539	-6.49
779.721	-47.44
779.903	106.15
780.085	28.33
780.267	61.1
780.449	-0.34
780.631	118.44
780.812	165.54
780.994	-6.49
781.176	-8.53
781.358	81.58
781.54	28.33
781.721	-22.87
781.903	106.15
782.085	75.43
782.267	159.4
782.448	24.23
782.63	-33.11
782.812	28.33
782.993	159.4
783.175	24.23
783.357	-37.2
783.538	91.82
783.72	3.75
783.901	71.34
784.083	34.47
784.264	30.38
784.446	-51.54
784.627	67.24
784.809	149.16
784.99	16.04
785.172	40.62
785.353	-6.49
785.535	28.33
785.716	13.99
785.897	16.04
786.079	59.05
786.26	26.28
786.441	149.16
786.623	-78.16
786.804	13.99
786.985	34.47
787.167	87.72
787.348	40.62
787.529	-4.44
787.71	163.5
787.891	81.58
788.073	11.95
788.254	-57.68
788.435	173.74
788.616	57
788.797	59.05
788.978	52.91
789.159	-16.73
789.34	50.86
789.522	-31.06
789.703	16.04
789.884	54.95
790.065	71.34
790.246	186.02
790.427	-16.73
790.607	38.57
790.788	61.1
790.969	-131.41
791.15	89.77
791.331	-6.49
791.512	-29.01
791.693	38.57
791.874	-76.12
792.054	155.3
792.235	93.87
792.416	-10.58
792.597	36.52
792.778	104.11
792.958	-12.63
793.139	-10.58
793.32	9.9
793.5	-31.06
793.681	112.3
793.862	63.15
794.042	-14.68
794.223	-184.66
794.404	-8.53
794.584	-82.26
794.765	-29.01
794.945	38.57
795.126	20.14
795.306	122.54
795.487	79.53
795.667	9.9
795.848	22.19
796.028	-8.53
796.209	95.91
796.389	91.82
796.57	36.52
796.75	-4.44
796.93	36.52
797.111	-24.92
797.291	-80.21
797.471	97.96
797.652	-37.2
797.832	-57.68
798.012	116.39
798.192	-2.39
798.373	-102.74
798.553	-14.68
798.733	59.05
798.913	-20.82
799.093	28.33
799.274	50.86
799.454	46.76
799.634	81.58
799.814	16.04
799.994	104.11
800.174	54.95
800.354	34.47
800.534	-59.73
800.714	143.02
800.894	-22.87
801.074	-22.87
801.254	-37.2
801.434	169.64
801.614	-51.54
801.794	-78.16
801.974	1699.47
802.154	22.19
802.334	3.75
802.514	77.48
802.693	-43.35
802.873	-14.68
803.053	147.11
803.233	89.77
803.413	77.48
803.592	-0.34
803.772	-47.44
803.952	-2.39
804.131	-63.83
804.311	173.74
804.491	100.01
804.67	-69.97
804.85	-2.39
805.03	22.19
805.209	108.2
805.389	-31.06
805.568	-20.82
805.748	-98.64
805.928	85.67
806.107	44.71
806.287	9.9
806.466	81.58
806.646	20.14
806.825	-29.01
807.004	-49.49
807.184	38.57
807.363	20.14
807.543	73.39
807.722	48.81
807.901	65.19
808.081	108.2
808.26	-76.12
808.439	-24.92
808.619	85.67
808.798	22.19
808.977	28.33
809.156	69.29
809.336	5.8
809.515	89.77
809.694	-98.64
809.873	5.8
810.052	26.28
810.231	69.29
810.411	46.76
810.59	108.2
810.769	40.62
810.948	104.11
811.127	-164.18
811.306	-39.25
811.485	54.95
811.664	114.34
811.843	54.95
812.022	-51.54
812.201	-29.01
812.38	-26.96
812.559	-18.77
812.737	5.8
812.916	-72.02
813.095	-4.44
813.274	77.48
813.453	50.86
813.632	44.71
813.811	16.04
813.989	-94.55
814.168	81.58
814.347	-69.97
814.526	-10.58
814.704	18.09
814.883	95.91
815.062	-55.64
815.24	54.95
815.419	-35.16
815.598	24.23
815.776	-59.73
815.955	-2.39
816.133	-92.5
816.312	24.23
816.49	-153.94
816.669	-20.82
816.847	-69.97
817.026	13.99
817.204	-35.16
817.383	26.28
817.561	-51.54
817.74	7.85
817.918	28.33
818.097	-35.16
818.275	-76.12
818.453	3.75
818.632	30.38
818.81	-67.92
818.988	-0.34
819.167	-22.87
819.345	40.62
819.523	-18.77
819.701	79.53
819.879	61.1
820.058	-22.87
820.236	48.81
820.414	54.95
820.592	-22.87
820.77	22.19
820.948	26.28
821.127	75.43
821.305	46.76
821.483	-94.55
821.661	30.38
821.839	-18.77
822.017	-104.79
822.195	-94.55
822.373	65.19
822.551	73.39
822.729	93.87
822.907	-0.34
823.085	87.72
823.262	-0.34
823.44	-10.58
823.618	-24.92
823.796	-61.78
823.974	40.62
824.152	-12.63
824.329	-18.77
824.507	11.95
824.685	59.05
824.863	81.58
825.04	1.71
825.218	134.82
825.396	-12.63
825.574	-6.49
825.751	-6.49
825.929	79.53
826.107	9.9
826.284	-18.77
826.462	13.99
826.639	-18.77
826.817	-112.98
826.994	32.43
827.172	-86.36
827.349	114.34
827.527	81.58
827.704	-14.68
827.882	69.29
828.059	26.28
828.237	-35.16
828.414	122.54
828.591	-94.55
828.769	-31.06
828.946	-78.16
829.124	13.99
829.301	73.39
829.478	-24.92
829.655	26.28
829.833	34.47
830.01	-139.6
830.187	44.71
830.364	-39.25
830.542	-24.92
830.719	87.72
830.896	40.62
831.073	83.63
831.25	-6.49
831.427	11.95
831.604	3.75
831.782	-33.11
831.959	54.95
832.136	-6.49
832.313	89.77
832.49	-63.83
832.667	67.24
832.844	42.67
833.021	93.87
833.198	38.57
833.374	30.38
833.551	-2.39
833.728	13.99
833.905	77.48
834.082	-90.45
834.259	28.33
834.436	54.95
834.612	-88.4
834.789	59.05
834.966	5.8
835.143	7.85
835.319	-47.44
835.496	44.71
835.673	65.19
835.85	44.71
836.026	-4.44
836.203	32.43
836.38	-123.22
836.556	-47.44
836.733	-53.59
836.909	104.11
837.086	44.71
837.262	-100.69
837.439	-0.34
837.616	-78.16
837.792	-0.34
837.968	85.67
838.145	-112.98
838.321	-69.97
838.498	28.33
838.674	28.33
838.851	9.9
839.027	-115.03
839.203	-24.92
839.38	-10.58
839.556	-63.83
839.732	95.91
839.909	-31.06
840.085	44.71
840.261	-47.44
840.437	-45.4
840.614	-39.25
840.79	102.06
840.966	83.63
841.142	28.33
841.318	36.52
841.494	11.95
841.671	81.58
841.847	-80.21
842.023	-39.25
842.199	34.47
842.375	120.49
842.551	-141.65
842.727	-41.3
842.903	93.87
843.079	-57.68
843.255	132.78
843.431	67.24
843.607	-26.96
843.783	-143.7
843.959	73.39
844.134	-63.83
844.31	110.25
844.486	1.71
844.662	-24.92
844.838	-8.53
845.013	81.58
845.189	138.92
845.365	24.23
845.541	13.99
845.716	18.09
845.892	22.19
846.068	-76.12
846.244	-65.88
846.419	13.99
846.595	-33.11
846.77	-139.6
846.946	-0.34
847.122	-12.63
847.297	-24.92
847.473	124.58
847.648	-43.35
847.824	38.57
847.999	-37.2
848.175	-10.58
848.35	-10.58
848.526	40.62
848.701	13.99
848.876	83.63
849.052	7.85
849.227	16.04
849.403	-6.49
849.578	-4.44
849.753	-22.87
849.929	7.85
850.104	-108.88
850.279	67.24
850.454	16.04
850.63	30.38
850.805	28.33
850.98	-35.16
851.155	-55.64
851.33	59.05
851.505	-94.55
851.681	134.82
851.856	11.95
852.031	44.71
852.206	11.95
852.381	-20.82
852.556	11.95
852.731	46.76
852.906	104.11
853.081	85.67
853.256	143.02
853.431	-26.96
853.606	-18.77
853.781	-76.12
853.956	-131.41
854.131	54.95
854.305	-82.26
854.48	-61.78
854.655	-51.54
854.83	-20.82
855.005	-47.44
855.18	16.04
855.354	-57.68
855.529	48.81
855.704	-84.31
855.879	5.8
856.053	-51.54
856.228	9.9
856.403	-119.12
856.577	67.24
856.752	-135.51
856.926	44.71
857.101	18.09
857.276	-170.32
857.45	1.71
857.625	79.53
857.799	-51.54
857.974	-6.49
858.148	-147.8
858.323	3.75
858.497	-53.59
858.672	-100.69
858.846	-67.92
859.02	36.52
859.195	-115.03
859.369	-10.58
859.543	9.9
859.718	-55.64
859.892	-12.63
860.066	11.95
860.241	26.28
860.415	-45.4
860.589	-69.97
860.763	3.75
860.938	-12.63
861.112	24.23
861.286	-35.16
861.46	-8.53
861.634	44.71
861.808	83.63
861.982	-65.88
862.157	-78.16
862.331	-35.16
862.505	-82.26
862.679	-67.92
862.853	-57.68
863.027	40.62
863.201	173.74
863.375	-65.88
863.549	40.62
863.722	3.75
863.896	91.82
864.07	24.23
864.244	-10.58
864.418	22.19
864.592	11.95
864.766	9.9
864.939	-80.21
865.113	-12.63
865.287	52.91
865.461	-102.74
865.634	-20.82
865.808	-33.11
865.982	-31.06
866.156	-20.82
866.329	-80.21
866.503	-82.26
866.676	46.76
866.85	34.47
867.024	-76.12
867.197	9.9
867.371	42.67
867.544	95.91
867.718	-67.92
867.891	79.53
868.065	-94.55
868.238	-2.39
868.412	-12.63
868.585	34.47
868.759	9.9
868.932	-39.25
869.105	-72.02
869.279	-14.68
869.452	-55.64
869.625	28.33
869.799	-4.44
869.972	-119.12
870.145	-45.4
870.319	9.9
870.492	-20.82
870.665	-33.11
870.838	-90.45
871.011	-190.8
871.185	-74.07
871.358	61.1
871.531	-39.25
871.704	1.71
871.877	18.09
872.05	-84.31
872.223	-69.97
872.396	44.71
872.569	7.85
872.742	-100.69
872.915	-8.53
873.088	-8.53
873.261	-57.68
873.434	57
873.607	-2.39
873.78	69.29
873.953	-106.84
874.126	-14.68
874.299	11.95
874.471	-22.87
874.644	-37.2
874.817	38.57
874.99	188.07
875.163	-10.58
875.335	36.52
875.508	24.23
875.681	79.53
875.853	-14.68
876.026	-61.78
876.199	100.01
876.371	-31.06
876.544	16.04
876.717	-4.44
876.889	-22.87
877.062	-2.39
877.234	-37.2
877.407	-74.07
877.579	40.62
877.752	36.52
877.924	89.77
878.097	5.8
878.269	-16.73
878.442	50.86
878.614	54.95
878.786	-18.77
878.959	-10.58
879.131	-4.44
879.303	-141.65
879.476	-63.83
879.648	61.1
879.82	-2.39
879.993	-65.88
880.165	-24.92
880.337	-102.74
880.509	-31.06
880.681	-139.6
880.854	50.86
881.026	-4.44
881.198	77.48
881.37	11.95
881.542	-39.25
881.714	-8.53
881.886	-39.25
882.058	1.71
882.23	18.09
882.402	11.95
882.574	52.91
882.746	69.29
882.918	110.25
883.09	59.05
883.262	-24.92
883.434	63.15
883.606	-47.44
883.778	-8.53
883.95	89.77
884.122	-8.53
884.293	120.49
884.465	54.95
884.637	104.11
884.809	-51.54
884.98	46.76
885.152	-43.35
885.324	11.95
885.496	-86.36
885.667	-90.45
885.839	-69.97
886.011	112.3
886.182	81.58
886.354	13.99
886.525	-24.92
886.697	26.28
886.869	-47.44
887.04	9.9
887.212	67.24
887.383	151.21
887.555	-4.44
887.726	-41.3
887.897	-72.02
888.069	-26.96
888.24	-31.06
888.412	-41.3
888.583	-59.73
888.754	1.71
888.926	-149.84
889.097	-12.63
889.268	-43.35
889.44	-24.92
889.611	-26.96
889.782	-51.54
889.953	-80.21
890.125	69.29
890.296	-96.6
890.467	-33.11
890.638	-45.4
890.809	7.85
890.98	-84.31
891.151	-26.96
891.323	89.77
891.494	-43.35
891.665	44.71
891.836	-43.35
892.007	-6.49
892.178	-10.58
892.349	32.43
892.52	3.75
892.691	11.95
892.862	28.33
893.032	-94.55
893.203	28.33
893.374	-45.4
893.545	44.71
893.716	-80.21
893.887	44.71
894.057	-76.12
894.228	-0.34
894.399	-37.2
894.57	114.34
894.74	-47.44
894.911	48.81
895.082	-45.4
895.253	-14.68
895.423	7.85
895.594	36.52
895.764	93.87
895.935	-20.82
896.106	69.29
896.276	-22.87
896.447	77.48
896.617	-63.83
896.788	-45.4
896.958	-92.5
897.129	-104.79
897.299	34.47
897.47	93.87
897.64	79.53
897.81	-67.92
897.981	-84.31
898.151	-67.92
898.322	40.62
898.492	32.43
898.662	-67.92
898.832	-43.35
899.003	-61.78
899.173	1.71
899.343	-49.49
899.513	-143.7
