Data from USB4F104151__14__10-23-13-949.txt Node

Date: Wed Feb 26 10:23:13 EST 2025
User: louis
Spectrometer: USB4F10415
Trigger mode: 4
Integration Time (sec): 1.000000E-1
Scans to average: 1
Electric dark correction enabled: true
Nonlinearity correction enabled: false
Boxcar width: 0
XAxis mode: Wavelengths
Number of Pixels in Spectrum: 3648
>>>>>Begin Spectral Data<<<<<
178.204	-391.33
178.424	-391.33
178.644	-391.33
178.864	-460.96
179.084	-424.1
179.304	53.08
179.524	65.36
179.744	-59.56
179.964	8.02
180.184	-30.89
180.404	28.5
180.624	24.4
180.844	16.21
181.064	-90.28
181.283	1.88
181.503	-86.19
181.723	69.46
181.943	-96.43
182.163	180.05
182.383	-2.22
182.602	5.97
182.822	155.47
183.042	65.36
183.262	-20.65
183.482	-41.13
183.701	-2.22
183.921	126.8
184.141	-88.23
184.361	145.24
184.58	112.47
184.8	32.6
185.02	-0.17
185.239	79.7
185.459	128.85
185.679	34.64
185.898	-127.14
186.118	-4.27
186.338	-10.41
186.557	30.55
186.777	-28.84
186.997	-10.41
187.216	-6.31
187.436	247.63
187.655	22.36
187.875	75.6
188.095	-18.6
188.314	114.52
188.534	135
188.753	-18.6
188.973	110.42
189.192	100.18
189.412	51.03
189.631	-22.7
189.851	104.28
190.07	126.8
190.29	-118.95
190.509	-30.89
190.729	3.93
190.948	149.33
191.168	233.3
191.387	83.8
191.607	-57.51
191.826	96.08
192.045	5.97
192.265	-77.99
192.484	110.42
192.704	24.4
192.923	-77.99
193.142	171.86
193.362	98.13
193.581	120.66
193.8	5.97
194.02	12.12
194.239	16.21
194.458	94.04
194.678	-8.36
194.897	-51.37
195.116	79.7
195.335	-6.31
195.555	59.22
195.774	-92.33
195.993	59.22
196.212	34.64
196.432	-22.7
196.651	-8.36
196.87	24.4
197.089	151.38
197.308	40.79
197.528	102.23
197.747	-32.94
197.966	36.69
198.185	163.67
198.404	-39.08
198.623	79.7
198.842	116.56
199.062	38.74
199.281	180.05
199.5	32.6
199.719	55.12
199.938	71.51
200.157	46.93
200.376	118.61
200.595	104.28
200.814	44.88
201.033	10.07
201.252	139.09
201.471	51.03
201.69	69.46
201.909	46.93
202.128	1.88
202.347	73.56
202.566	20.31
202.785	-24.75
203.004	-6.31
203.223	167.76
203.442	-18.6
203.661	-88.23
203.879	48.98
204.098	204.63
204.317	-2.22
204.536	51.03
204.755	91.99
204.974	63.32
205.193	-24.75
205.411	69.46
205.63	149.33
205.849	71.51
206.068	-16.55
206.287	-98.47
206.505	102.23
206.724	22.36
206.943	-65.71
207.162	-0.17
207.381	112.47
207.599	87.89
207.818	-12.46
208.037	-4.27
208.255	-34.99
208.474	18.26
208.693	-43.18
208.911	-80.04
209.13	57.17
209.349	42.84
209.567	40.79
209.786	102.23
210.005	67.41
210.223	130.9
210.442	-96.43
210.661	96.08
210.879	65.36
211.098	34.64
211.316	-4.27
211.535	106.32
211.753	96.08
211.972	-6.31
212.191	-51.37
212.409	20.31
212.628	12.12
212.846	-8.36
213.065	55.12
213.283	210.77
213.502	59.22
213.72	81.75
213.938	3.93
214.157	-51.37
214.375	40.79
214.594	22.36
214.812	65.36
215.031	-39.08
215.249	57.17
215.467	104.28
215.686	59.22
215.904	-14.51
216.122	75.6
216.341	85.84
216.559	-51.37
216.778	110.42
216.996	120.66
217.214	38.74
217.432	1.88
217.651	-129.19
217.869	12.12
218.087	26.45
218.306	1.88
218.524	30.55
218.742	-0.17
218.96	98.13
219.179	14.17
219.397	-16.55
219.615	157.52
219.833	143.19
220.051	-12.46
220.27	118.61
220.488	159.57
220.706	24.4
220.924	-94.38
221.142	8.02
221.36	73.56
221.578	61.27
221.796	-4.27
222.015	104.28
222.233	5.97
222.451	239.44
222.669	-59.56
222.887	63.32
223.105	-26.79
223.323	96.08
223.541	-65.71
223.759	55.12
223.977	40.79
224.195	139.09
224.413	79.7
224.631	16.21
224.849	-34.99
225.067	194.39
225.285	-98.47
225.503	28.5
225.721	-135.34
225.939	38.74
226.157	-6.31
226.375	237.39
226.592	-10.41
226.81	22.36
227.028	53.08
227.246	165.71
227.464	38.74
227.682	63.32
227.9	61.27
228.117	18.26
228.335	22.36
228.553	46.93
228.771	-22.7
228.989	71.51
229.206	182.1
229.424	-88.23
229.642	-49.32
229.86	22.36
230.077	85.84
230.295	26.45
230.513	22.36
230.731	51.03
230.948	194.39
231.166	85.84
231.384	-24.75
231.601	59.22
231.819	235.35
232.037	-69.8
232.254	-22.7
232.472	3.93
232.689	-59.56
232.907	104.28
233.125	12.12
233.342	-71.85
233.56	-51.37
233.777	-0.17
233.995	61.27
234.213	75.6
234.43	79.7
234.648	28.5
234.865	-69.8
235.083	46.93
235.3	96.08
235.518	145.24
235.735	59.22
235.953	108.37
236.17	22.36
236.388	112.47
236.605	3.93
236.822	51.03
237.04	83.8
237.257	71.51
237.475	-47.27
237.692	-12.46
237.909	42.84
238.127	34.64
238.344	51.03
238.562	32.6
238.779	-63.66
238.996	-55.47
239.214	16.21
239.431	38.74
239.648	-49.32
239.865	73.56
240.083	26.45
240.3	-55.47
240.517	-30.89
240.735	65.36
240.952	120.66
241.169	14.17
241.386	79.7
241.603	110.42
241.821	-82.09
242.038	85.84
242.255	55.12
242.472	-47.27
242.689	120.66
242.907	106.32
243.124	26.45
243.341	-53.42
243.558	-14.51
243.775	-47.27
243.992	-39.08
244.209	94.04
244.426	102.23
244.643	61.27
244.86	-10.41
245.078	112.47
245.295	67.41
245.512	-37.03
245.729	42.84
245.946	59.22
246.163	-10.41
246.38	1.88
246.597	81.75
246.814	-8.36
247.031	1.88
247.248	-49.32
247.464	98.13
247.681	57.17
247.898	63.32
248.115	89.94
248.332	-45.23
248.549	100.18
248.766	116.56
248.983	14.17
249.2	34.64
249.417	124.76
249.633	-75.95
249.85	102.23
250.067	-2.22
250.284	3.93
250.501	44.88
250.717	12.12
250.934	-98.47
251.151	8.02
251.368	22.36
251.585	71.51
251.801	77.65
252.018	-53.42
252.235	108.37
252.451	-39.08
252.668	-39.08
252.885	98.13
253.102	61.27
253.318	-8.36
253.535	51.03
253.752	30.55
253.968	-39.08
254.185	-108.71
254.401	30.55
254.618	61.27
254.835	-20.65
255.051	128.85
255.268	71.51
255.484	14.17
255.701	34.64
255.917	20.31
256.134	-80.04
256.351	5.97
256.567	-57.51
256.784	-8.36
257	-86.19
257.217	14.17
257.433	42.84
257.65	18.26
257.866	141.14
258.082	-131.24
258.299	-121
258.515	8.02
258.732	18.26
258.948	-34.99
259.165	-20.65
259.381	-59.56
259.597	40.79
259.814	-14.51
260.03	-10.41
260.246	42.84
260.463	137.04
260.679	57.17
260.895	40.79
261.112	38.74
261.328	26.45
261.544	10.07
261.761	237.39
261.977	-34.99
262.193	-63.66
262.409	85.84
262.626	22.36
262.842	36.69
263.058	-26.79
263.274	96.08
263.49	61.27
263.707	102.23
263.923	98.13
264.139	-53.42
264.355	38.74
264.571	96.08
264.787	83.8
265.004	91.99
265.22	16.21
265.436	-49.32
265.652	-18.6
265.868	91.99
266.084	-71.85
266.3	73.56
266.516	-118.95
266.732	12.12
266.948	-0.17
267.164	20.31
267.38	128.85
267.596	26.45
267.812	132.95
268.028	1.88
268.244	-82.09
268.46	14.17
268.676	-41.13
268.892	59.22
269.108	-22.7
269.324	-8.36
269.54	-30.89
269.756	91.99
269.972	-18.6
270.188	-98.47
270.403	-88.23
270.619	-8.36
270.835	48.98
271.051	-34.99
271.267	-61.61
271.483	-77.99
271.698	65.36
271.914	57.17
272.13	79.7
272.346	-51.37
272.562	-34.99
272.777	96.08
272.993	10.07
273.209	1.88
273.425	28.5
273.64	-69.8
273.856	51.03
274.072	-53.42
274.287	-39.08
274.503	26.45
274.719	87.89
274.934	10.07
275.15	-88.23
275.366	3.93
275.581	-65.71
275.797	53.08
276.012	67.41
276.228	1.88
276.444	20.31
276.659	149.33
276.875	-6.31
277.09	-51.37
277.306	-37.03
277.521	57.17
277.737	30.55
277.952	85.84
278.168	34.64
278.383	112.47
278.599	20.31
278.814	91.99
279.03	51.03
279.245	89.94
279.461	42.84
279.676	83.8
279.892	38.74
280.107	-39.08
280.322	-51.37
280.538	67.41
280.753	-84.14
280.969	40.79
281.184	36.69
281.399	130.9
281.615	-49.32
281.83	14.17
282.045	-28.84
282.26	-108.71
282.476	-12.46
282.691	53.08
282.906	51.03
283.122	24.4
283.337	-63.66
283.552	63.32
283.767	-14.51
283.983	73.56
284.198	-2.22
284.413	30.55
284.628	-47.27
284.843	77.65
285.058	155.47
285.274	1.88
285.489	-59.56
285.704	65.36
285.919	57.17
286.134	8.02
286.349	-4.27
286.564	30.55
286.779	106.32
286.995	-26.79
287.21	-75.95
287.425	59.22
287.64	8.02
287.855	55.12
288.07	-145.58
288.285	12.12
288.5	32.6
288.715	81.75
288.93	42.84
289.145	22.36
289.36	71.51
289.575	-92.33
289.79	79.7
290.004	-6.31
290.219	122.71
290.434	-6.31
290.649	26.45
290.864	28.5
291.079	-92.33
291.294	30.55
291.509	81.75
291.724	26.45
291.938	14.17
292.153	34.64
292.368	-4.27
292.583	75.6
292.798	69.46
293.012	61.27
293.227	75.6
293.442	14.17
293.657	112.47
293.871	147.28
294.086	81.75
294.301	167.76
294.516	112.47
294.73	65.36
294.945	-75.95
295.16	-24.75
295.374	118.61
295.589	118.61
295.804	-6.31
296.018	51.03
296.233	61.27
296.447	28.5
296.662	-61.61
296.877	173.91
297.091	124.76
297.306	-55.47
297.52	-28.84
297.735	51.03
297.949	16.21
298.164	32.6
298.378	38.74
298.593	-55.47
298.807	-45.23
299.022	73.56
299.236	202.58
299.451	26.45
299.665	-102.57
299.88	-18.6
300.094	34.64
300.309	38.74
300.523	-6.31
300.737	18.26
300.952	51.03
301.166	16.21
301.381	-12.46
301.595	-6.31
301.809	34.64
302.024	63.32
302.238	51.03
302.452	85.84
302.667	-32.94
302.881	112.47
303.095	81.75
303.309	40.79
303.524	30.55
303.738	12.12
303.952	-22.7
304.166	53.08
304.381	-147.62
304.595	169.81
304.809	-32.94
305.023	69.46
305.237	44.88
305.452	73.56
305.666	83.8
305.88	87.89
306.094	53.08
306.308	34.64
306.522	124.76
306.736	104.28
306.95	71.51
307.164	-2.22
307.379	-4.27
307.593	186.19
307.807	83.8
308.021	55.12
308.235	94.04
308.449	-34.99
308.663	28.5
308.877	104.28
309.091	42.84
309.305	151.38
309.519	-92.33
309.733	83.8
309.947	-90.28
310.161	18.26
310.374	75.6
310.588	87.89
310.802	-10.41
311.016	-51.37
311.23	83.8
311.444	38.74
311.658	1.88
311.872	118.61
312.085	28.5
312.299	91.99
312.513	69.46
312.727	30.55
312.941	-114.86
313.154	124.76
313.368	20.31
313.582	22.36
313.796	-0.17
314.009	26.45
314.223	108.37
314.437	71.51
314.651	79.7
314.864	-16.55
315.078	-14.51
315.292	-55.47
315.505	38.74
315.719	20.31
315.933	104.28
316.146	-43.18
316.36	-24.75
316.573	184.15
316.787	87.89
317.001	-18.6
317.214	-51.37
317.428	38.74
317.641	-80.04
317.855	51.03
318.068	38.74
318.282	51.03
318.495	173.91
318.709	32.6
318.922	8.02
319.136	79.7
319.349	118.61
319.563	-63.66
319.776	71.51
319.99	-110.76
320.203	159.57
320.417	63.32
320.63	30.55
320.843	141.14
321.057	24.4
321.27	-30.89
321.483	94.04
321.697	77.65
321.91	89.94
322.124	108.37
322.337	73.56
322.55	-59.56
322.763	46.93
322.977	36.69
323.19	-10.41
323.403	10.07
323.617	63.32
323.83	104.28
324.043	106.32
324.256	-32.94
324.469	38.74
324.683	161.62
324.896	69.46
325.109	-14.51
325.322	-37.03
325.535	57.17
325.748	81.75
325.962	28.5
326.175	38.74
326.388	38.74
326.601	30.55
326.814	10.07
327.027	44.88
327.24	77.65
327.453	-125.1
327.666	59.22
327.879	38.74
328.092	67.41
328.305	24.4
328.518	22.36
328.731	16.21
328.944	-10.41
329.157	-2.22
329.37	-55.47
329.583	151.38
329.796	81.75
330.009	-10.41
330.222	36.69
330.435	51.03
330.648	-20.65
330.861	16.21
331.073	28.5
331.286	116.56
331.499	-26.79
331.712	-18.6
331.925	-10.41
332.138	3.93
332.35	135
332.563	-26.79
332.776	135
332.989	-10.41
333.202	-2.22
333.414	81.75
333.627	-37.03
333.84	-16.55
334.053	89.94
334.265	-20.65
334.478	-30.89
334.691	-24.75
334.903	-41.13
335.116	69.46
335.329	5.97
335.541	135
335.754	137.04
335.966	16.21
336.179	-14.51
336.392	28.5
336.604	53.08
336.817	91.99
337.029	87.89
337.242	-26.79
337.454	61.27
337.667	3.93
337.88	137.04
338.092	51.03
338.305	67.41
338.517	10.07
338.729	5.97
338.942	100.18
339.154	-30.89
339.367	-110.76
339.579	46.93
339.792	-20.65
340.004	59.22
340.217	30.55
340.429	53.08
340.641	-63.66
340.854	-18.6
341.066	-86.19
341.278	87.89
341.491	173.91
341.703	-6.31
341.915	-100.52
342.128	79.7
342.34	51.03
342.552	-108.71
342.764	36.69
342.977	-49.32
343.189	32.6
343.401	30.55
343.613	-26.79
343.826	59.22
344.038	-43.18
344.25	-4.27
344.462	-86.19
344.674	71.51
344.886	16.21
345.099	114.52
345.311	108.37
345.523	-39.08
345.735	-57.51
345.947	44.88
346.159	-10.41
346.371	-0.17
346.583	26.45
346.795	63.32
347.007	14.17
347.219	69.46
347.431	28.5
347.643	165.71
347.855	14.17
348.067	149.33
348.279	-80.04
348.491	26.45
348.703	108.37
348.915	34.64
349.127	-73.9
349.339	-34.99
349.551	-69.8
349.763	38.74
349.975	34.64
350.187	79.7
350.399	137.04
350.61	75.6
350.822	16.21
351.034	10.07
351.246	8.02
351.458	63.32
351.669	77.65
351.881	30.55
352.093	77.65
352.305	120.66
352.517	44.88
352.728	38.74
352.94	102.23
353.152	77.65
353.363	-63.66
353.575	94.04
353.787	53.08
353.999	77.65
354.21	137.04
354.422	-43.18
354.633	26.45
354.845	87.89
355.057	-10.41
355.268	30.55
355.48	114.52
355.692	-90.28
355.903	28.5
356.115	-53.42
356.326	-90.28
356.538	77.65
356.749	65.36
356.961	114.52
357.172	22.36
357.384	-57.51
357.595	268.11
357.807	5.97
358.018	38.74
358.23	-53.42
358.441	147.28
358.653	128.85
358.864	-10.41
359.075	-16.55
359.287	24.4
359.498	112.47
359.709	-39.08
359.921	57.17
360.132	-0.17
360.344	-4.27
360.555	-53.42
360.766	26.45
360.977	8.02
361.189	67.41
361.4	5.97
361.611	102.23
361.823	83.8
362.034	-26.79
362.245	-71.85
362.456	1.88
362.667	30.55
362.879	-51.37
363.09	-30.89
363.301	-8.36
363.512	26.45
363.723	65.36
363.935	-45.23
364.146	30.55
364.357	69.46
364.568	98.13
364.779	-47.27
364.99	198.48
365.201	-30.89
365.412	94.04
365.623	30.55
365.834	65.36
366.045	-10.41
366.256	59.22
366.467	98.13
366.678	63.32
366.889	28.5
367.1	-55.47
367.311	104.28
367.522	-18.6
367.733	71.51
367.944	8.02
368.155	26.45
368.366	108.37
368.577	89.94
368.788	81.75
368.999	-112.81
369.209	20.31
369.42	206.67
369.631	155.47
369.842	65.36
370.053	-16.55
370.264	128.85
370.474	-43.18
370.685	67.41
370.896	-43.18
371.107	126.8
371.317	59.22
371.528	36.69
371.739	118.61
371.95	40.79
372.16	96.08
372.371	-145.58
372.582	53.08
372.792	55.12
373.003	1.88
373.214	79.7
373.424	30.55
373.635	-47.27
373.846	57.17
374.056	-4.27
374.267	51.03
374.477	53.08
374.688	57.17
374.898	71.51
375.109	-14.51
375.319	-43.18
375.53	51.03
375.74	28.5
375.951	30.55
376.161	89.94
376.372	63.32
376.582	57.17
376.793	108.37
377.003	-80.04
377.214	-80.04
377.424	16.21
377.635	-12.46
377.845	-18.6
378.055	98.13
378.266	-26.79
378.476	-28.84
378.686	-10.41
378.897	30.55
379.107	110.42
379.317	65.36
379.528	-8.36
379.738	48.98
379.948	-71.85
380.158	73.56
380.369	20.31
380.579	57.17
380.789	-39.08
380.999	69.46
381.21	120.66
381.42	124.76
381.63	18.26
381.84	94.04
382.05	34.64
382.261	89.94
382.471	24.4
382.681	-80.04
382.891	114.52
383.101	24.4
383.311	-65.71
383.521	-57.51
383.731	-10.41
383.941	71.51
384.151	38.74
384.361	-18.6
384.571	104.28
384.781	20.31
384.991	200.53
385.201	188.24
385.411	81.75
385.621	87.89
385.831	67.41
386.041	-41.13
386.251	48.98
386.461	57.17
386.671	3.93
386.881	79.7
387.091	-16.55
387.301	118.61
387.511	38.74
387.72	40.79
387.93	16.21
388.14	-28.84
388.35	34.64
388.56	67.41
388.769	61.27
388.979	44.88
389.189	-63.66
389.399	-16.55
389.609	44.88
389.818	34.64
390.028	89.94
390.238	91.99
390.447	-26.79
390.657	51.03
390.867	-10.41
391.076	-77.99
391.286	-12.46
391.496	14.17
391.705	28.5
391.915	77.65
392.125	120.66
392.334	65.36
392.544	126.8
392.753	16.21
392.963	10.07
393.172	106.32
393.382	61.27
393.591	239.44
393.801	-8.36
394.01	75.6
394.22	67.41
394.429	-8.36
394.639	8.02
394.848	-6.31
395.058	1.88
395.267	-98.47
395.477	46.93
395.686	73.56
395.895	163.67
396.105	163.67
396.314	153.43
396.524	46.93
396.733	22.36
396.942	102.23
397.152	40.79
397.361	114.52
397.57	36.69
397.78	28.5
397.989	59.22
398.198	126.8
398.407	51.03
398.617	5.97
398.826	94.04
399.035	5.97
399.244	94.04
399.453	16.21
399.663	3.93
399.872	3.93
400.081	-75.95
400.29	145.24
400.499	-100.52
400.708	51.03
400.917	-37.03
401.127	-20.65
401.336	-37.03
401.545	135
401.754	5.97
401.963	38.74
402.172	-4.27
402.381	-22.7
402.59	59.22
402.799	30.55
403.008	98.13
403.217	112.47
403.426	26.45
403.635	-96.43
403.844	73.56
404.053	-34.99
404.262	-12.46
404.471	130.9
404.68	-34.99
404.888	-14.51
405.097	-10.41
405.306	36.69
405.515	65.36
405.724	32.6
405.933	83.8
406.142	67.41
406.35	145.24
406.559	1.88
406.768	-2.22
406.977	126.8
407.185	38.74
407.394	55.12
407.603	32.6
407.812	40.79
408.02	120.66
408.229	-41.13
408.438	34.64
408.646	-12.46
408.855	18.26
409.064	18.26
409.272	63.32
409.481	46.93
409.69	-22.7
409.898	16.21
410.107	40.79
410.315	5.97
410.524	-37.03
410.733	26.45
410.941	28.5
411.15	75.6
411.358	65.36
411.567	143.19
411.775	34.64
411.984	3.93
412.192	55.12
412.401	-61.61
412.609	167.76
412.818	71.51
413.026	151.38
413.234	-28.84
413.443	38.74
413.651	20.31
413.86	5.97
414.068	106.32
414.276	32.6
414.485	-8.36
414.693	157.52
414.901	169.81
415.11	91.99
415.318	32.6
415.526	48.98
415.734	132.95
415.943	87.89
416.151	139.09
416.359	67.41
416.567	77.65
416.776	63.32
416.984	114.52
417.192	175.95
417.4	-49.32
417.608	-8.36
417.817	-28.84
418.025	91.99
418.233	182.1
418.441	-2.22
418.649	-16.55
418.857	69.46
419.065	137.04
419.273	-63.66
419.481	-2.22
419.689	108.37
419.897	24.4
420.105	-24.75
420.313	98.13
420.521	94.04
420.729	120.66
420.937	-18.6
421.145	8.02
421.353	77.65
421.561	108.37
421.769	44.88
421.977	5.97
422.185	48.98
422.393	55.12
422.601	106.32
422.809	65.36
423.017	100.18
423.224	12.12
423.432	180.05
423.64	12.12
423.848	120.66
424.056	12.12
424.263	53.08
424.471	55.12
424.679	85.84
424.887	-26.79
425.094	130.9
425.302	94.04
425.51	-8.36
425.718	128.85
425.925	-14.51
426.133	-41.13
426.341	157.52
426.548	22.36
426.756	79.7
426.964	149.33
427.171	-8.36
427.379	22.36
427.586	16.21
427.794	79.7
428.001	79.7
428.209	87.89
428.417	155.47
428.624	61.27
428.832	116.56
429.039	46.93
429.247	-0.17
429.454	32.6
429.662	216.91
429.869	79.7
430.076	59.22
430.284	96.08
430.491	126.8
430.699	147.28
430.906	130.9
431.114	126.8
431.321	98.13
431.528	77.65
431.736	87.89
431.943	120.66
432.15	196.43
432.358	167.76
432.565	229.2
432.772	-20.65
432.979	184.15
433.187	151.38
433.394	231.25
433.601	102.23
433.808	173.91
434.016	223.06
434.223	98.13
434.43	159.57
434.637	190.29
434.844	300.88
435.052	184.15
435.259	192.34
435.466	249.68
435.673	227.15
435.88	239.44
436.087	192.34
436.294	302.93
436.501	274.26
436.708	241.49
436.915	206.67
437.122	311.12
437.329	245.59
437.537	245.59
437.743	243.54
437.95	382.8
438.157	290.64
438.364	233.3
438.571	223.06
438.778	311.12
438.985	370.51
439.192	315.22
439.399	321.36
439.606	323.41
439.813	333.65
440.02	491.34
440.227	513.87
440.433	524.11
440.64	397.14
440.847	319.31
441.054	456.53
441.261	546.64
441.467	464.72
441.674	399.18
441.881	642.89
442.088	530.25
442.294	542.54
442.501	614.22
442.708	636.75
442.914	558.92
443.121	665.42
443.328	657.23
443.534	788.3
443.741	757.58
443.948	585.55
444.154	765.77
444.361	855.88
444.568	714.57
444.774	894.79
444.981	786.25
445.187	972.61
445.394	843.59
445.6	878.41
445.807	991.05
446.013	1011.53
446.22	872.26
446.426	1122.12
446.633	1185.6
446.839	1279.81
447.046	1070.92
447.252	1267.52
447.459	1271.62
447.665	1193.8
447.871	1441.6
448.078	1490.75
448.284	1580.86
448.491	1562.43
448.697	1587.01
448.903	1744.7
449.11	1736.51
449.316	1582.91
449.522	1886.01
449.728	1963.83
449.935	2096.95
450.141	2035.51
450.347	2049.85
450.553	2074.42
450.76	2244.4
450.966	2178.87
451.172	2279.22
451.378	2332.47
451.584	2539.31
451.791	2694.96
451.997	2692.91
452.203	2860.84
452.409	2950.95
452.615	3043.11
452.821	2944.81
453.027	2893.61
453.233	3434.27
453.44	3217.19
453.646	3434.27
453.852	3567.39
454.058	3819.29
454.264	3831.58
454.47	4187.93
454.676	4108.05
454.882	4558.61
455.088	4445.97
455.294	4669.2
455.5	4935.43
455.705	5220.1
455.911	5076.74
456.117	5306.12
456.323	5478.15
456.529	5455.62
456.735	6031.1
456.941	6199.03
457.147	6360.82
457.352	6420.21
457.558	6608.62
457.764	7251.69
457.97	7261.93
458.176	7835.36
458.381	8087.26
458.587	8263.38
458.793	8378.07
458.999	8525.52
459.204	9717.44
459.41	9934.53
459.616	9567.94
459.821	10401.46
460.027	10737.33
460.233	11228.84
460.438	11261.61
460.644	11925.15
460.85	12009.12
461.055	12652.18
461.261	13360.78
461.466	12781.2
461.672	13088.4
461.878	14587.51
462.083	14524.02
462.289	14782.07
462.494	15160.94
462.7	15533.67
462.905	15652.45
463.111	17233.49
463.316	17573.45
463.522	17978.95
463.727	18611.77
463.932	19256.88
464.138	20172.32
464.343	20608.54
464.549	20913.69
464.754	22529.53
464.959	22965.75
465.165	23617
465.37	23537.13
465.575	23274.99
465.781	24692.19
465.986	25558.48
466.191	25069.01
466.397	25169.37
466.602	24481.25
466.807	26076.62
467.012	26469.83
467.218	27004.35
467.423	26873.28
467.628	27936.17
467.833	29300.12
468.038	28646.82
468.244	27741.61
468.449	29646.22
468.654	28870.04
468.859	28849.57
469.064	28923.29
469.269	28220.84
469.474	28646.82
469.679	29013.4
469.885	28687.78
470.09	28786.08
470.295	29275.54
470.5	28179.88
470.705	28331.43
470.91	27504.05
471.115	27338.16
471.32	27530.67
471.525	27772.33
471.73	26785.21
471.935	26428.87
472.139	25501.14
472.344	25361.87
472.549	25890.25
472.754	24630.75
472.959	24276.45
473.164	23283.19
473.369	23399.92
473.574	23660.01
473.778	23612.91
473.983	22935.03
474.188	22617.6
474.393	21274.13
474.598	21523.98
474.802	20989.46
475.007	20803.1
475.212	20565.53
475.417	19418.67
475.621	19414.57
475.826	19121.71
476.031	18935.35
476.235	18458.17
476.44	18423.36
476.645	17870.4
476.849	17833.54
477.054	17477.19
477.259	17036.88
477.463	16987.73
477.668	16393.82
477.872	16631.38
478.077	16279.13
478.282	15722.09
478.486	15736.42
478.691	15619.69
478.895	15263.34
479.1	15132.27
479.304	15433.32
479.509	14528.12
479.713	14788.21
479.918	14208.64
480.122	14290.56
480.326	14292.6
480.531	14116.48
480.735	14151.29
480.94	13749.89
481.144	14343.8
481.348	13442.7
481.553	13692.55
481.757	13428.36
481.961	13530.76
482.166	13473.42
482.37	13469.32
482.574	12975.76
482.778	12848.79
482.983	13092.49
483.187	12842.64
483.391	12791.44
483.595	12562.07
483.8	12195.48
484.004	12500.63
484.208	12365.46
484.412	12242.59
484.616	12021.41
484.821	11857.57
485.025	11669.16
485.229	11736.74
485.433	11488.93
485.637	11366.06
485.841	11243.18
486.045	11222.7
486.249	11128.49
486.453	10565.3
486.657	10653.36
486.861	10467
487.065	10241.72
487.269	10188.47
487.473	9776.83
487.677	10147.51
487.881	9991.87
488.085	9481.92
488.289	9447.11
488.493	8998.6
488.697	9281.22
488.901	8922.83
489.105	8783.57
489.309	8693.46
489.512	8701.65
489.716	8439.51
489.92	8224.47
490.124	8048.35
490.328	8228.57
490.531	7931.61
490.735	7825.12
490.939	7440.1
491.143	7395.04
491.346	7300.84
491.55	7300.84
491.754	6964.97
491.958	6979.31
492.161	6942.44
492.365	6635.25
492.569	6688.5
492.772	6592.24
492.976	6530.8
493.18	6369.01
493.383	6424.31
493.587	6242.04
493.79	6301.43
493.994	6156.02
494.197	6131.45
494.401	5998.33
494.605	5951.23
494.808	5807.87
495.012	5922.55
495.215	5947.13
495.419	5889.79
495.622	5744.38
495.825	5609.22
496.029	5773.05
496.232	5766.91
496.436	5701.37
496.639	5920.51
496.843	5596.93
497.046	5693.18
497.249	5867.26
497.453	5814.01
497.656	5580.54
497.859	5654.27
498.063	5803.77
498.266	5887.74
498.469	5705.47
498.673	5750.53
498.876	5838.59
499.079	5756.67
499.282	5672.7
499.485	6158.07
499.689	5801.72
499.892	6110.97
500.095	5902.08
500.298	6039.29
500.501	6090.49
500.705	6166.26
500.908	6242.04
501.111	6127.35
501.314	6375.16
501.517	6420.21
501.72	6457.07
501.923	6495.99
502.126	6641.39
502.329	7026.41
502.532	6848.24
502.735	6866.67
502.938	6930.16
503.141	6938.35
503.344	7196.39
503.547	7325.41
503.75	7106.28
503.953	7313.13
504.156	7450.34
504.359	7458.53
504.562	7532.26
504.765	7831.26
504.968	8066.78
505.17	8081.11
505.373	8087.26
505.576	8455.89
505.779	8257.24
505.982	8369.88
506.185	8758.99
506.387	8902.35
506.59	8951.5
506.793	9328.33
506.996	9367.24
507.198	9635.52
507.401	9713.35
507.604	9967.29
507.807	10032.83
508.009	10309.3
508.212	10444.47
508.415	10743.47
508.617	10931.89
508.82	11200.17
509.022	11079.34
509.225	11605.67
509.428	11898.53
509.63	12084.89
509.833	11984.54
510.035	12646.04
510.238	12697.24
510.44	12809.87
510.643	13444.74
510.845	13790.85
511.048	13606.53
511.25	13995.65
511.453	14380.67
511.655	15146.61
511.858	15113.84
512.06	15433.32
512.262	15529.58
512.465	15961.7
512.667	16420.44
512.87	16911.96
513.072	16987.73
513.274	17741.38
513.477	17768.01
513.679	18288.19
513.881	18841.14
514.084	19002.93
514.286	19342.89
514.488	19813.93
514.69	20680.22
514.893	20665.88
515.095	21175.83
515.297	21552.65
515.499	21943.81
515.701	22611.45
515.904	23027.19
516.106	23684.59
516.308	23940.58
516.51	24503.78
516.712	24802.78
516.914	25458.13
517.116	25722.32
517.318	26058.18
517.52	26762.68
517.722	27159.99
517.925	27669.94
518.127	28087.72
518.329	28267.94
518.531	28454.31
518.733	29687.18
518.935	29994.38
519.136	30229.9
519.338	30987.64
519.54	31333.75
519.742	31937.9
519.944	32146.79
520.146	32922.97
520.348	33369.43
520.55	33531.22
520.752	33316.18
520.954	34385.22
521.155	34387.27
521.357	35179.84
521.559	35728.69
521.761	36076.85
521.963	35845.43
522.164	36218.16
522.366	36623.65
522.568	37002.53
522.77	37016.86
522.971	37942.55
523.173	37688.6
523.375	38038.8
523.576	37815.57
523.778	37983.51
523.98	38434.06
524.181	38673.67
524.383	38569.22
524.584	39036.16
524.786	38671.62
524.988	38556.94
525.189	39124.22
525.391	39415.04
525.592	39226.62
525.794	39066.88
525.995	38935.81
526.197	38651.14
526.398	38882.56
526.6	39060.74
526.801	38880.52
527.003	38608.14
527.204	38706.44
527.406	38173.97
527.607	38163.73
527.808	38071.57
528.01	37580.06
528.211	37338.4
528.412	37827.86
528.614	37573.91
528.815	36844.84
529.016	36695.33
529.218	36545.83
529.419	36173.1
529.62	35872.05
529.822	34985.28
530.023	34870.59
530.224	34852.16
530.425	34491.72
530.626	34303.31
530.828	33467.73
531.029	33584.47
531.23	32943.45
531.431	32552.29
531.632	32195.95
531.833	31982.96
532.035	31599.99
532.236	31366.52
532.437	30813.57
532.638	30217.61
532.839	30209.42
533.04	30031.24
533.241	28874.14
533.442	29642.13
533.643	28851.61
533.844	28163.5
534.045	28120.49
534.246	27289.01
534.447	27434.42
534.648	26770.88
534.849	26523.07
535.05	25730.51
535.251	25474.51
535.451	25282
535.652	25107.93
535.853	24542.69
536.054	24126.95
536.255	23916.01
536.456	23352.82
536.657	23584.24
536.857	23125.49
537.058	22773.24
537.259	22580.73
537.46	22218.24
537.66	21696.01
537.861	21454.35
538.062	21204.5
538.263	20925.97
538.463	20866.58
538.664	20422.17
538.865	20268.58
539.065	20157.99
539.266	19365.42
539.466	19226.16
539.667	19113.52
539.868	18949.68
540.068	18619.96
540.269	18513.47
540.469	18589.24
540.67	18062.91
540.87	17888.84
541.071	17614.41
541.271	17454.67
541.472	17331.79
541.672	17198.67
541.873	16537.18
542.073	16379.48
542.274	16715.35
542.474	16367.2
542.675	15892.07
542.875	15990.37
543.075	15869.54
543.276	15609.45
543.476	15550.06
543.676	15322.73
543.877	15109.74
544.077	14917.23
544.277	14769.78
544.478	14587.51
544.678	14378.62
544.878	14460.54
545.078	14177.92
545.279	13835.91
545.479	13479.56
545.679	13899.39
545.879	13444.74
546.079	13526.66
546.28	13072.01
546.48	13000.33
546.68	12818.07
546.88	12766.87
547.08	12416.66
547.28	12410.52
547.48	12058.27
547.68	12320.41
547.88	11822.75
548.081	11939.49
548.281	11706.02
548.481	11480.74
548.681	11419.3
548.881	11140.78
549.081	11108.01
549.28	10772.14
549.48	10800.82
549.68	10634.93
549.88	10684.08
550.08	10243.77
550.28	10090.17
550.48	10247.86
550.68	9760.45
550.88	9850.56
551.08	9483.97
551.279	9453.25
551.479	9223.88
551.679	9475.78
551.879	8998.6
552.079	8976.08
552.278	8812.24
552.478	8855.25
552.678	8611.54
552.878	8634.07
553.077	8287.96
553.277	8120.03
553.477	8101.59
553.676	8197.85
553.876	7956.19
554.076	7960.28
554.275	7614.18
554.475	7225.06
554.674	7487.2
554.874	7055.08
555.074	7003.88
555.273	7014.12
555.473	6948.59
555.672	6706.93
555.872	6622.96
556.071	6596.34
556.271	6504.18
556.47	6444.79
556.67	6278.9
556.869	6102.78
557.068	6139.64
557.268	5983.99
557.467	5902.08
557.667	5832.44
557.866	5775.1
558.065	5547.78
558.265	5424.9
558.464	5406.47
558.663	5531.39
558.863	5123.85
559.062	5297.92
559.261	5000.97
559.461	4994.83
559.66	4763.4
559.859	4800.27
560.058	4587.28
560.258	4658.96
560.457	4611.85
560.656	4601.62
560.855	4282.13
561.054	4454.16
561.253	4355.86
561.453	4343.57
561.652	4216.6
561.851	4304.66
562.05	4138.77
562.249	3831.58
562.448	3964.7
562.647	3874.59
562.846	3755.8
563.045	3886.87
563.244	3716.89
563.443	3743.52
563.642	3542.82
563.841	3473.18
564.04	3467.04
564.239	3493.66
564.438	3358.5
564.637	3229.48
564.836	3325.73
565.035	3221.28
565.234	3131.17
565.432	3155.75
565.631	3168.04
565.83	3094.31
566.029	2869.03
566.228	2996.01
566.427	2979.62
566.625	2815.79
566.824	2881.32
567.023	2895.66
567.222	2627.37
567.42	2754.35
567.619	2674.48
567.818	2692.91
568.016	2707.24
568.215	2588.46
568.414	2549.55
568.612	2539.31
568.811	2471.73
569.01	2309.94
569.208	2359.09
569.407	2275.12
569.605	2365.23
569.804	2307.89
570.002	2221.88
570.201	2205.49
570.4	2205.49
570.598	2156.34
570.797	2113.33
570.995	2099
571.193	2058.04
571.392	2053.94
571.59	1992.5
571.789	2084.66
571.987	1967.93
572.186	2074.42
572.384	1830.71
572.582	1826.62
572.781	1914.68
572.979	1623.87
573.177	1781.56
573.376	1685.31
573.574	1713.98
573.772	1738.55
573.971	1658.68
574.169	1638.2
574.367	1603.39
574.565	1564.48
574.763	1539.9
574.962	1558.33
575.16	1496.89
575.358	1380.16
575.556	1390.4
575.754	1486.65
575.952	1394.5
576.151	1488.7
576.349	1470.27
576.547	1257.28
576.745	1386.3
576.943	1310.53
577.141	1271.62
577.339	1271.62
577.537	1326.91
577.735	1331.01
577.933	1136.45
578.131	1126.21
578.329	1345.34
578.527	1185.6
578.725	1111.88
578.923	1060.68
579.121	1144.64
579.319	956.23
579.516	999.24
579.714	1169.22
579.912	1158.98
580.11	948.04
580.308	976.71
580.506	907.08
580.704	862.02
580.901	868.17
581.099	1048.39
581.297	984.9
581.495	927.56
581.692	921.42
581.89	1025.86
582.088	847.69
582.285	857.93
582.483	780.11
582.681	823.11
582.878	780.11
583.076	751.43
583.274	833.35
583.471	933.7
583.669	749.39
583.866	720.71
584.064	685.9
584.262	687.95
584.459	630.6
584.657	712.52
584.854	728.91
585.052	692.04
585.249	788.3
585.447	706.38
585.644	620.36
585.841	735.05
586.039	642.89
586.236	659.28
586.434	589.64
586.631	585.55
586.828	595.79
587.026	610.12
587.223	505.68
587.42	534.35
587.618	620.36
587.815	671.56
588.012	601.93
588.21	501.58
588.407	563.02
588.604	677.71
588.801	462.67
588.999	538.45
589.196	587.6
589.393	499.53
589.59	546.64
589.787	546.64
589.984	536.4
590.182	423.76
590.379	503.63
590.576	487.25
590.773	558.92
590.97	503.63
591.167	587.6
591.364	554.83
591.561	399.18
591.758	657.23
591.955	583.5
592.152	450.38
592.349	526.16
592.546	530.25
592.743	466.77
592.94	497.49
593.137	542.54
593.334	595.79
593.531	550.73
593.727	517.97
593.924	515.92
594.121	380.75
594.318	401.23
594.515	499.53
594.712	640.84
594.908	567.12
595.105	337.74
595.302	507.73
595.499	542.54
595.696	671.56
595.892	526.16
596.089	628.56
596.286	571.21
596.482	657.23
596.679	620.36
596.876	477.01
597.072	712.52
597.269	685.9
597.466	659.28
597.662	642.89
597.859	632.65
598.055	653.13
598.252	763.72
598.448	902.98
598.645	870.22
598.841	823.11
599.038	993.09
599.234	945.99
599.431	956.23
599.627	874.31
599.824	1029.96
600.02	884.55
600.217	1011.53
600.413	1077.06
600.609	1066.82
600.806	1535.81
601.002	1281.86
601.198	1101.64
601.395	1189.7
601.591	1353.54
601.787	1378.11
601.984	1576.77
602.18	1429.31
602.376	1462.08
602.572	1668.92
602.769	1779.51
602.965	1640.25
603.161	1883.96
603.357	1900.34
603.553	1959.74
603.75	1773.37
603.946	1888.06
604.142	2205.49
604.338	2234.16
604.534	2152.24
604.73	2406.19
604.926	2426.67
605.122	2586.41
605.318	2629.42
605.514	2801.45
605.71	2651.95
605.906	2981.67
606.102	2875.18
606.298	3145.51
606.494	3084.07
606.69	3231.52
606.886	3165.99
607.082	3378.98
607.278	3428.13
607.474	3471.14
607.67	3694.36
607.866	3598.11
608.062	3864.35
608.257	3968.79
608.453	4089.62
608.649	4263.7
608.845	4216.6
609.041	4402.96
609.236	4509.46
609.432	4630.29
609.628	4687.63
609.824	4947.72
610.019	4847.37
610.215	4980.49
610.411	5269.25
610.606	5555.97
610.802	5478.15
610.998	5650.18
611.193	6037.24
611.389	5983.99
611.584	6192.89
611.78	6129.4
611.976	6301.43
612.171	6661.87
612.367	6735.6
612.562	7053.03
612.758	7257.83
612.953	7044.84
613.149	7542.5
613.344	7732.96
613.539	7845.6
613.735	8124.12
613.93	8554.19
614.126	8507.09
614.321	8707.79
614.517	9256.65
614.712	9184.97
614.907	9352.9
615.103	9776.83
615.298	9799.36
615.493	10464.95
615.688	10284.73
615.884	10776.24
616.079	10927.79
616.274	11173.55
616.47	11579.04
616.665	11585.19
616.86	12095.13
617.055	12170.91
617.25	12449.43
617.445	13133.45
617.641	13168.27
617.836	13801.09
618.031	13692.55
618.226	14478.97
618.421	14511.74
618.616	14835.31
618.811	15359.59
619.006	15771.24
619.201	15865.44
619.396	16375.39
619.591	16416.35
619.786	17208.91
619.981	17276.49
620.176	17761.86
620.371	18019.91
620.566	18452.03
620.761	18880.05
620.956	19183.15
621.151	19605.03
621.346	20268.58
621.541	20139.55
621.735	20676.12
621.93	20901.4
622.125	21257.74
622.32	21671.43
622.515	22404.61
622.709	22748.67
622.904	22814.2
623.099	23268.85
623.294	23404.02
623.488	24067.56
623.683	24972.76
623.878	24841.69
624.072	25406.93
624.267	25581.01
624.462	26228.17
624.656	26123.72
624.851	26807.74
625.046	27047.35
625.24	27628.98
625.435	27708.85
625.629	28358.05
625.824	28542.37
626.018	29097.37
626.213	28734.88
626.407	29709.71
626.602	29777.29
626.796	30649.73
626.991	30580.1
627.185	30825.85
627.38	31323.51
627.574	31044.99
627.768	31255.93
627.963	31628.66
628.157	31298.94
628.352	32003.44
628.546	31481.2
628.74	32208.23
628.935	31430.01
629.129	31726.96
629.323	30956.92
629.517	31423.86
629.712	31057.28
629.906	30891.39
630.1	30793.09
630.294	30346.63
630.489	29785.49
630.683	29808.01
630.877	28937.63
631.071	28607.9
631.265	28261.8
631.459	27872.68
631.653	26916.28
631.848	26451.39
632.042	26025.42
632.236	25294.29
632.43	24364.51
632.624	24172
632.818	22836.73
633.012	22023.69
633.206	21741.07
633.4	21118.48
633.594	20147.75
633.788	19465.77
633.982	19156.53
634.176	18284.09
634.369	17374.8
634.563	16911.96
634.757	16301.66
634.951	15810.15
635.145	15285.87
635.339	14708.34
635.533	14120.57
635.726	13600.39
635.92	12850.83
636.114	12383.9
636.308	11542.18
636.501	11484.84
636.695	10757.81
636.889	10202.81
637.083	9830.08
637.276	9465.54
637.47	9125.58
637.664	8885.97
637.857	8566.48
638.051	8197.85
638.244	7595.75
638.438	7552.74
638.632	7388.9
638.825	6745.84
639.019	6698.74
639.212	6393.59
639.406	6344.44
639.599	5996.28
639.793	5607.17
639.986	5340.93
640.18	5437.19
640.373	5076.74
640.567	4757.26
640.76	4681.49
640.954	4642.57
641.147	4316.95
641.34	4005.66
641.534	4019.99
641.727	3901.21
641.92	3915.55
642.114	3704.6
642.307	3452.7
642.5	3444.51
642.694	3141.41
642.887	2987.82
643.08	3051.3
643.273	2957.1
643.467	2709.29
643.66	2629.42
643.853	2488.11
644.046	2406.19
644.239	2248.5
644.432	2205.49
644.626	2076.47
644.819	2096.95
645.012	2099
645.205	1988.41
645.398	1955.64
645.591	1802.04
645.784	1564.48
645.977	1582.91
646.17	1523.52
646.363	1478.46
646.556	1427.26
646.749	1421.12
646.942	1355.58
647.135	1310.53
647.328	1173.32
647.521	1304.39
647.714	1165.12
647.907	1218.37
648.099	968.52
648.292	1132.36
648.485	1025.86
648.678	929.61
648.871	833.35
649.064	919.37
649.256	771.91
649.449	759.63
649.642	716.62
649.835	747.34
650.027	745.29
650.22	833.35
650.413	675.66
650.605	735.05
650.798	649.04
650.991	702.28
651.183	575.31
651.376	591.69
651.568	612.17
651.761	466.77
651.954	610.12
652.146	485.2
652.339	571.21
652.531	554.83
652.724	370.51
652.916	405.33
653.109	253.78
653.301	417.61
653.494	464.72
653.686	434
653.879	505.68
654.071	499.53
654.263	335.7
654.456	364.37
654.648	390.99
654.84	323.41
655.033	229.2
655.225	380.75
655.417	245.59
655.61	407.38
655.802	411.47
655.994	378.7
656.186	190.29
656.379	319.31
656.571	198.48
656.763	227.15
656.955	315.22
657.148	212.82
657.34	257.87
657.532	249.68
657.724	180.05
657.916	261.97
658.108	313.17
658.3	280.4
658.492	208.72
658.684	180.05
658.876	255.83
659.068	139.09
659.26	147.28
659.452	126.8
659.644	202.58
659.836	274.26
660.028	141.14
660.22	147.28
660.412	223.06
660.604	77.65
660.796	231.25
660.988	266.07
661.18	194.39
661.372	200.53
661.563	200.53
661.755	124.76
661.947	57.17
662.139	30.55
662.331	180.05
662.522	71.51
662.714	57.17
662.906	139.09
663.097	79.7
663.289	55.12
663.481	-41.13
663.673	130.9
663.864	104.28
664.056	161.62
664.247	122.71
664.439	151.38
664.631	126.8
664.822	137.04
665.014	59.22
665.205	-39.08
665.397	145.24
665.588	108.37
665.78	108.37
665.971	124.76
666.163	51.03
666.354	118.61
666.546	34.64
666.737	143.19
666.929	106.32
667.12	12.12
667.311	87.89
667.503	98.13
667.694	77.65
667.885	165.71
668.077	120.66
668.268	18.26
668.459	145.24
668.651	81.75
668.842	206.67
669.033	18.26
669.224	1.88
669.416	270.16
669.607	196.43
669.798	1.88
669.989	251.73
670.18	-26.79
670.371	100.18
670.563	30.55
670.754	126.8
670.945	30.55
671.136	124.76
671.327	14.17
671.518	190.29
671.709	282.45
671.9	184.15
672.091	77.65
672.282	98.13
672.473	38.74
672.664	18.26
672.855	67.41
673.046	104.28
673.237	218.96
673.428	114.52
673.619	130.9
673.809	46.93
674	118.61
674.191	102.23
674.382	55.12
674.573	38.74
674.764	153.43
674.954	91.99
675.145	63.32
675.336	98.13
675.527	5.97
675.717	77.65
675.908	155.47
676.099	5.97
676.289	79.7
676.48	30.55
676.671	147.28
676.861	96.08
677.052	190.29
677.243	53.08
677.433	22.36
677.624	223.06
677.814	96.08
678.005	69.46
678.195	227.15
678.386	-80.04
678.576	112.47
678.767	-43.18
678.957	48.98
679.148	145.24
679.338	223.06
679.529	153.43
679.719	59.22
679.909	169.81
680.1	212.82
680.29	155.47
680.481	24.4
680.671	139.09
680.861	130.9
681.052	118.61
681.242	20.31
681.432	163.67
681.622	137.04
681.813	71.51
682.003	71.51
682.193	-4.27
682.383	120.66
682.573	30.55
682.764	96.08
682.954	128.85
683.144	237.39
683.334	157.52
683.524	180.05
683.714	61.27
683.904	192.34
684.094	153.43
684.284	143.19
684.474	255.83
684.664	122.71
684.854	94.04
685.044	124.76
685.234	159.57
685.424	132.95
685.614	94.04
685.804	212.82
685.994	153.43
686.184	159.57
686.374	247.63
686.564	104.28
686.753	188.24
686.943	55.12
687.133	118.61
687.323	163.67
687.513	223.06
687.702	141.14
687.892	128.85
688.082	153.43
688.272	141.14
688.461	135
688.651	221.01
688.841	77.65
689.03	202.58
689.22	175.95
689.41	202.58
689.599	163.67
689.789	18.26
689.979	208.72
690.168	145.24
690.358	112.47
690.547	59.22
690.737	145.24
690.926	161.62
691.116	212.82
691.305	108.37
691.495	171.86
691.684	81.75
691.874	143.19
692.063	143.19
692.252	239.44
692.442	188.24
692.631	85.84
692.82	106.32
693.01	186.19
693.199	112.47
693.388	120.66
693.578	98.13
693.767	126.8
693.956	137.04
694.146	59.22
694.335	225.11
694.524	122.71
694.713	180.05
694.902	104.28
695.092	116.56
695.281	194.39
695.47	61.27
695.659	128.85
695.848	151.38
696.037	53.08
696.226	216.91
696.415	126.8
696.604	225.11
696.793	188.24
696.982	83.8
697.171	235.35
697.36	65.36
697.549	100.18
697.738	-2.22
697.927	200.53
698.116	63.32
698.305	221.01
698.494	161.62
698.683	194.39
698.872	255.83
699.061	98.13
699.25	149.33
699.438	210.77
699.627	106.32
699.816	261.97
700.005	44.88
700.193	130.9
700.382	153.43
700.571	145.24
700.76	200.53
700.948	233.3
701.137	200.53
701.326	206.67
701.514	63.32
701.703	114.52
701.892	223.06
702.08	261.97
702.269	98.13
702.457	85.84
702.646	188.24
702.834	55.12
703.023	83.8
703.212	198.48
703.4	178
703.589	110.42
703.777	51.03
703.965	77.65
704.154	141.14
704.342	20.31
704.531	132.95
704.719	124.76
704.907	159.57
705.096	44.88
705.284	75.6
705.472	186.19
705.661	120.66
705.849	190.29
706.037	251.73
706.226	202.58
706.414	210.77
706.602	89.94
706.79	173.91
706.979	126.8
707.167	100.18
707.355	53.08
707.543	96.08
707.731	151.38
707.919	53.08
708.107	132.95
708.296	112.47
708.484	98.13
708.672	132.95
708.86	194.39
709.048	83.8
709.236	114.52
709.424	167.76
709.612	159.57
709.8	-14.51
709.988	141.14
710.176	210.77
710.364	175.95
710.551	118.61
710.739	-10.41
710.927	114.52
711.115	1.88
711.303	184.15
711.491	200.53
711.679	96.08
711.866	194.39
712.054	163.67
712.242	186.19
712.43	235.35
712.617	87.89
712.805	280.4
712.993	128.85
713.181	67.41
713.368	173.91
713.556	91.99
713.744	106.32
713.931	290.64
714.119	235.35
714.306	173.91
714.494	102.23
714.682	116.56
714.869	44.88
715.057	141.14
715.244	63.32
715.432	135
715.619	167.76
715.807	79.7
715.994	151.38
716.182	147.28
716.369	182.1
716.556	264.02
716.744	14.17
716.931	79.7
717.119	270.16
717.306	106.32
717.493	239.44
717.681	46.93
717.868	94.04
718.055	196.43
718.242	147.28
718.43	251.73
718.617	223.06
718.804	75.6
718.991	266.07
719.179	223.06
719.366	196.43
719.553	178
719.74	116.56
719.927	180.05
720.114	237.39
720.301	110.42
720.488	106.32
720.676	112.47
720.863	255.83
721.05	251.73
721.237	194.39
721.424	153.43
721.611	186.19
721.798	16.21
721.985	139.09
722.172	104.28
722.358	171.86
722.545	212.82
722.732	196.43
722.919	259.92
723.106	247.63
723.293	171.86
723.48	132.95
723.667	128.85
723.853	278.35
724.04	274.26
724.227	270.16
724.414	169.81
724.6	302.93
724.787	388.94
724.974	380.75
725.161	214.87
725.347	175.95
725.534	253.78
725.72	178
725.907	218.96
726.094	208.72
726.28	169.81
726.467	251.73
726.653	182.1
726.84	249.68
727.027	356.18
727.213	155.47
727.4	270.16
727.586	229.2
727.773	194.39
727.959	184.15
728.145	182.1
728.332	214.87
728.518	231.25
728.705	374.61
728.891	192.34
729.077	247.63
729.264	198.48
729.45	241.49
729.636	227.15
729.823	255.83
730.009	280.4
730.195	231.25
730.382	266.07
730.568	243.54
730.754	253.78
730.94	196.43
731.126	272.21
731.313	249.68
731.499	173.91
731.685	249.68
731.871	286.54
732.057	323.41
732.243	327.5
732.429	218.96
732.615	374.61
732.801	198.48
732.987	239.44
733.173	274.26
733.359	182.1
733.545	268.11
733.731	241.49
733.917	431.95
734.103	259.92
734.289	294.74
734.475	188.24
734.661	339.79
734.847	237.39
735.033	243.54
735.219	304.98
735.404	233.3
735.59	249.68
735.776	225.11
735.962	347.98
736.148	274.26
736.333	364.37
736.519	284.5
736.705	298.83
736.89	249.68
737.076	300.88
737.262	251.73
737.447	264.02
737.633	169.81
737.819	282.45
738.004	214.87
738.19	268.11
738.375	327.5
738.561	425.81
738.747	323.41
738.932	190.29
739.118	350.03
739.303	264.02
739.489	311.12
739.674	204.63
739.859	180.05
740.045	323.41
740.23	294.74
740.416	165.71
740.601	247.63
740.786	292.69
740.972	315.22
741.157	270.16
741.342	192.34
741.528	167.76
741.713	327.5
741.898	239.44
742.084	317.26
742.269	255.83
742.454	298.83
742.639	313.17
742.824	225.11
743.01	374.61
743.195	341.84
743.38	264.02
743.565	210.77
743.75	347.98
743.935	298.83
744.12	384.85
744.305	208.72
744.49	223.06
744.675	169.81
744.86	270.16
745.045	352.08
745.23	259.92
745.415	280.4
745.6	354.13
745.785	249.68
745.97	341.84
746.155	323.41
746.34	376.66
746.525	227.15
746.71	268.11
746.895	208.72
747.079	100.18
747.264	184.15
747.449	292.69
747.634	268.11
747.819	233.3
748.003	264.02
748.188	180.05
748.373	159.57
748.557	266.07
748.742	298.83
748.927	227.15
749.111	198.48
749.296	196.43
749.481	245.59
749.665	257.87
749.85	198.48
750.034	231.25
750.219	239.44
750.404	237.39
750.588	264.02
750.773	184.15
750.957	235.35
751.141	282.45
751.326	317.26
751.51	85.84
751.695	167.76
751.879	175.95
752.064	358.22
752.248	212.82
752.432	302.93
752.617	257.87
752.801	378.7
752.985	128.85
753.17	280.4
753.354	235.35
753.538	204.63
753.722	108.37
753.907	218.96
754.091	124.76
754.275	204.63
754.459	91.99
754.643	173.91
754.828	210.77
755.012	194.39
755.196	65.36
755.38	284.5
755.564	116.56
755.748	247.63
755.932	180.05
756.116	276.31
756.3	259.92
756.484	157.52
756.668	227.15
756.852	30.55
757.036	145.24
757.22	139.09
757.404	130.9
757.588	169.81
757.772	251.73
757.956	208.72
758.14	311.12
758.323	83.8
758.507	210.77
758.691	247.63
758.875	210.77
759.059	143.19
759.242	89.94
759.426	171.86
759.61	227.15
759.794	128.85
759.977	251.73
760.161	337.74
760.345	194.39
760.528	196.43
760.712	126.8
760.895	206.67
761.079	71.51
761.263	57.17
761.446	75.6
761.63	149.33
761.813	214.87
761.997	59.22
762.18	98.13
762.364	143.19
762.547	-0.17
762.731	98.13
762.914	104.28
763.098	12.12
763.281	26.45
763.464	116.56
763.648	173.91
763.831	147.28
764.015	55.12
764.198	182.1
764.381	161.62
764.564	143.19
764.748	139.09
764.931	135
765.114	106.32
765.297	132.95
765.481	51.03
765.664	120.66
765.847	57.17
766.03	175.95
766.213	34.64
766.397	157.52
766.58	67.41
766.763	165.71
766.946	79.7
767.129	112.47
767.312	100.18
767.495	143.19
767.678	120.66
767.861	122.71
768.044	108.37
768.227	3.93
768.41	79.7
768.593	69.46
768.776	190.29
768.959	77.65
769.142	102.23
769.324	87.89
769.507	59.22
769.69	22.36
769.873	48.98
770.056	259.92
770.239	85.84
770.421	132.95
770.604	114.52
770.787	116.56
770.97	71.51
771.152	14.17
771.335	96.08
771.518	32.6
771.7	178
771.883	210.77
772.066	59.22
772.248	102.23
772.431	178
772.613	89.94
772.796	48.98
772.978	184.15
773.161	182.1
773.343	69.46
773.526	102.23
773.708	-26.79
773.891	-71.85
774.073	14.17
774.256	36.69
774.438	218.96
774.621	-34.99
774.803	89.94
774.985	83.8
775.168	171.86
775.35	73.56
775.532	79.7
775.715	36.69
775.897	75.6
776.079	-41.13
776.261	65.36
776.444	26.45
776.626	16.21
776.808	-10.41
776.99	28.5
777.173	104.28
777.355	-12.46
777.537	100.18
777.719	112.47
777.901	20.31
778.083	69.46
778.265	32.6
778.447	59.22
778.629	55.12
778.811	3.93
778.993	59.22
779.175	59.22
779.357	96.08
779.539	-28.84
779.721	85.84
779.903	51.03
780.085	106.32
780.267	26.45
780.449	5.97
780.631	132.95
780.812	184.15
780.994	51.03
781.176	5.97
781.358	124.76
781.54	24.4
781.721	67.41
781.903	155.47
782.085	44.88
782.267	180.05
782.448	-16.55
782.63	-20.65
782.812	124.76
782.993	94.04
783.175	28.5
783.357	-75.95
783.538	96.08
783.72	12.12
783.901	-12.46
784.083	59.22
784.264	110.42
784.446	-14.51
784.627	46.93
784.809	83.8
784.99	-20.65
785.172	100.18
785.353	-63.66
785.535	-16.55
785.716	22.36
785.897	14.17
786.079	5.97
786.26	83.8
786.441	61.27
786.623	-92.33
786.804	-67.75
786.985	26.45
787.167	-6.31
787.348	-18.6
787.529	-34.99
787.71	85.84
787.891	65.36
788.073	-18.6
788.254	-73.9
788.435	110.42
788.616	110.42
788.797	-147.62
788.978	-34.99
789.159	-45.23
789.34	87.89
789.522	-24.75
789.703	-30.89
789.884	61.27
790.065	69.46
790.246	132.95
790.427	44.88
790.607	173.91
790.788	-18.6
790.969	-41.13
791.15	98.13
791.331	-59.56
791.512	-49.32
791.693	-102.57
791.874	5.97
792.054	124.76
792.235	110.42
792.416	-4.27
792.597	-41.13
792.778	51.03
792.958	96.08
793.139	-20.65
793.32	71.51
793.5	-43.18
793.681	51.03
793.862	26.45
794.042	16.21
794.223	-53.42
794.404	-16.55
794.584	-43.18
794.765	-6.31
794.945	85.84
795.126	100.18
795.306	51.03
795.487	67.41
795.667	-18.6
795.848	61.27
796.028	-14.51
796.209	10.07
796.389	34.64
796.57	108.37
796.75	-28.84
796.93	-0.17
797.111	36.69
797.291	1.88
797.471	75.6
797.652	-57.51
797.832	-86.19
798.012	69.46
798.192	-47.27
798.373	-53.42
798.553	16.21
798.733	-8.36
798.913	-94.38
799.093	-71.85
799.274	-18.6
799.454	3.93
799.634	65.36
799.814	100.18
799.994	44.88
800.174	14.17
800.354	69.46
800.534	-121
800.714	61.27
800.894	-145.58
801.074	-86.19
801.254	-16.55
801.434	65.36
801.614	-24.75
801.794	-71.85
801.974	1881.91
802.154	-0.17
802.334	63.32
802.514	-80.04
802.693	-0.17
802.873	-6.31
803.053	149.33
803.233	110.42
803.413	-24.75
803.592	-41.13
803.772	-51.37
803.952	12.12
804.131	-96.43
804.311	20.31
804.491	65.36
804.67	-14.51
804.85	-26.79
805.03	-55.47
805.209	8.02
805.389	-96.43
805.568	-28.84
805.748	-8.36
805.928	-59.56
806.107	63.32
806.287	-24.75
806.466	32.6
806.646	-2.22
806.825	-32.94
807.004	-18.6
807.184	-0.17
807.363	55.12
807.543	65.36
807.722	-71.85
807.901	14.17
808.081	106.32
808.26	-200.87
808.439	-59.56
808.619	-14.51
808.798	-53.42
808.977	30.55
809.156	55.12
809.336	55.12
809.515	36.69
809.694	-41.13
809.873	-20.65
810.052	71.51
810.231	110.42
810.411	-47.27
810.59	-10.41
810.769	28.5
810.948	53.08
811.127	-147.62
811.306	-4.27
811.485	-16.55
811.664	102.23
811.843	14.17
812.022	-63.66
812.201	-37.03
812.38	-30.89
812.559	-49.32
812.737	71.51
812.916	-59.56
813.095	-43.18
813.274	61.27
813.453	3.93
813.632	12.12
813.811	42.84
813.989	-63.66
814.168	55.12
814.347	-55.47
814.526	-30.89
814.704	71.51
814.883	42.84
815.062	-43.18
815.24	34.64
815.419	10.07
815.598	-18.6
815.776	-137.38
815.955	1.88
816.133	-168.1
816.312	-65.71
816.49	-63.66
816.669	-10.41
816.847	-20.65
817.026	-20.65
817.204	-16.55
817.383	-96.43
817.561	-47.27
817.74	34.64
817.918	36.69
818.097	-32.94
818.275	-63.66
818.453	-45.23
818.632	53.08
818.81	-41.13
818.988	-75.95
819.167	-59.56
819.345	-26.79
819.523	-30.89
819.701	-16.55
819.879	22.36
820.058	8.02
820.236	-8.36
820.414	1.88
820.592	-63.66
820.77	-20.65
820.948	-0.17
821.127	-55.47
821.305	20.31
821.483	-118.95
821.661	42.84
821.839	-65.71
822.017	-57.51
822.195	-75.95
822.373	12.12
822.551	-10.41
822.729	85.84
822.907	-51.37
823.085	55.12
823.262	51.03
823.44	-14.51
823.618	-59.56
823.796	-30.89
823.974	-20.65
824.152	-92.33
824.329	-73.9
824.507	-30.89
824.685	87.89
824.863	1.88
825.04	-41.13
825.218	-90.28
825.396	-26.79
825.574	-0.17
825.751	12.12
825.929	77.65
826.107	-34.99
826.284	67.41
826.462	116.56
826.639	-63.66
826.817	-125.1
826.994	-37.03
827.172	-16.55
827.349	116.56
827.527	28.5
827.704	-22.7
827.882	42.84
828.059	24.4
828.237	-26.79
828.414	8.02
828.591	-153.77
828.769	-24.75
828.946	-6.31
829.124	71.51
829.301	30.55
829.478	-61.61
829.655	57.17
829.833	-2.22
830.01	-155.82
830.187	-28.84
830.364	-12.46
830.542	-30.89
830.719	14.17
830.896	8.02
831.073	38.74
831.25	-43.18
831.427	65.36
831.604	-8.36
831.782	-28.84
831.959	42.84
832.136	-34.99
832.313	5.97
832.49	5.97
832.667	-16.55
832.844	-24.75
833.021	75.6
833.198	1.88
833.374	5.97
833.551	16.21
833.728	-82.09
833.905	81.75
834.082	-84.14
834.259	-24.75
834.436	-16.55
834.612	-80.04
834.789	32.6
834.966	-14.51
835.143	-18.6
835.319	-118.95
835.496	79.7
835.673	36.69
835.85	28.5
836.026	-14.51
836.203	-8.36
836.38	-65.71
836.556	-43.18
836.733	-32.94
836.909	108.37
837.086	20.31
837.262	-123.05
837.439	-24.75
837.616	-8.36
837.792	-26.79
837.968	-0.17
838.145	-161.96
838.321	102.23
838.498	59.22
838.674	48.98
838.851	5.97
839.027	-86.19
839.203	24.4
839.38	8.02
839.556	-110.76
839.732	106.32
839.909	20.31
840.085	116.56
840.261	-59.56
840.437	-12.46
840.614	-63.66
840.79	98.13
840.966	3.93
841.142	24.4
841.318	-88.23
841.494	28.5
841.671	114.52
841.847	-65.71
842.023	-41.13
842.199	67.41
842.375	57.17
842.551	-141.48
842.727	-73.9
842.903	96.08
843.079	-61.61
843.255	46.93
843.431	-22.7
843.607	96.08
843.783	-151.72
843.959	-0.17
844.134	-37.03
844.31	135
844.486	-51.37
844.662	-43.18
844.838	22.36
845.013	83.8
845.189	79.7
845.365	61.27
845.541	-84.14
845.716	-24.75
845.892	79.7
846.068	-16.55
846.244	1.88
846.419	16.21
846.595	-112.81
846.77	51.03
846.946	91.99
847.122	-43.18
847.297	-47.27
847.473	149.33
847.648	-16.55
847.824	-49.32
847.999	-110.76
848.175	57.17
848.35	-18.6
848.526	-12.46
848.701	30.55
848.876	30.55
849.052	116.56
849.227	-100.52
849.403	-28.84
849.578	20.31
849.753	51.03
849.929	-28.84
850.104	-174.25
850.279	63.32
850.454	-0.17
850.63	-28.84
850.805	30.55
850.98	-12.46
851.155	-65.71
851.33	26.45
851.505	-0.17
851.681	67.41
851.856	-92.33
852.031	42.84
852.206	30.55
852.381	-51.37
852.556	-10.41
852.731	-0.17
852.906	5.97
853.081	12.12
853.256	100.18
853.431	-43.18
853.606	-43.18
853.781	-88.23
853.956	-153.77
854.131	-69.8
854.305	-51.37
854.48	-84.14
854.655	-39.08
854.83	-86.19
855.005	-30.89
855.18	5.97
855.354	-71.85
855.529	-20.65
855.704	46.93
855.879	8.02
856.053	-77.99
856.228	57.17
856.403	-82.09
856.577	59.22
856.752	-80.04
856.926	-2.22
857.101	42.84
857.276	-106.67
857.45	46.93
857.625	20.31
857.799	3.93
857.974	-4.27
858.148	-135.34
858.323	-10.41
858.497	20.31
858.672	-92.33
858.846	-8.36
859.02	14.17
859.195	-34.99
859.369	36.69
859.543	20.31
859.718	26.45
859.892	-18.6
860.066	61.27
860.241	40.79
860.415	-67.75
860.589	-41.13
860.763	-53.42
860.938	-53.42
861.112	1.88
861.286	-104.62
861.46	-24.75
861.634	-16.55
861.808	30.55
861.982	-37.03
862.157	-133.29
862.331	-69.8
862.505	-86.19
862.679	-121
862.853	-45.23
863.027	-71.85
863.201	106.32
863.375	-69.8
863.549	57.17
863.722	38.74
863.896	57.17
864.07	-112.81
864.244	-77.99
864.418	34.64
864.592	-18.6
864.766	26.45
864.939	-18.6
865.113	-30.89
865.287	40.79
865.461	-155.82
865.634	16.21
865.808	-26.79
865.982	-80.04
866.156	-41.13
866.329	-55.47
866.503	-24.75
866.676	5.97
866.85	55.12
867.024	-18.6
867.197	104.28
867.371	-61.61
867.544	-41.13
867.718	-63.66
867.891	55.12
868.065	-86.19
868.238	36.69
868.412	22.36
868.585	8.02
868.759	14.17
868.932	-12.46
869.105	-116.9
869.279	-20.65
869.452	-118.95
869.625	-47.27
869.799	55.12
869.972	-118.95
870.145	-20.65
870.319	-18.6
870.492	-49.32
870.665	-61.61
870.838	-141.48
871.011	-135.34
871.185	-14.51
871.358	-12.46
871.531	8.02
871.704	-32.94
871.877	71.51
872.05	-69.8
872.223	-92.33
872.396	69.46
872.569	26.45
872.742	-151.72
872.915	24.4
873.088	24.4
873.261	-110.76
873.434	-10.41
873.607	-65.71
873.78	91.99
873.953	-98.47
874.126	55.12
874.299	55.12
874.471	-75.95
874.644	-34.99
874.817	-18.6
874.99	91.99
875.163	-63.66
875.335	-14.51
875.508	-30.89
875.681	53.08
875.853	-75.95
876.026	-96.43
876.199	28.5
876.371	42.84
876.544	-80.04
876.717	-67.75
876.889	-45.23
877.062	-26.79
877.234	-155.82
877.407	-22.7
877.579	22.36
877.752	-4.27
877.924	-6.31
878.097	-45.23
878.269	-26.79
878.442	-16.55
878.614	46.93
878.786	-18.6
878.959	-41.13
879.131	-6.31
879.303	-178.34
879.476	-45.23
879.648	20.31
879.82	12.12
879.993	-104.62
880.165	-41.13
880.337	-69.8
880.509	42.84
880.681	-30.89
880.854	-106.67
881.026	-65.71
881.198	132.95
881.37	-0.17
881.542	-43.18
881.714	-77.99
881.886	-34.99
882.058	-30.89
882.23	98.13
882.402	-67.75
882.574	26.45
882.746	-8.36
882.918	-34.99
883.09	-30.89
883.262	-71.85
883.434	75.6
883.606	-153.77
883.778	-75.95
883.95	108.37
884.122	-55.47
884.293	38.74
884.465	28.5
884.637	91.99
884.809	-51.37
884.98	48.98
885.152	-24.75
885.324	22.36
885.496	-47.27
885.667	-57.51
885.839	-129.19
886.011	137.04
886.182	-10.41
886.354	79.7
886.525	12.12
886.697	-34.99
886.869	-86.19
887.04	-49.32
887.212	139.09
887.383	94.04
887.555	-73.9
887.726	-16.55
887.897	-20.65
888.069	-34.99
888.24	14.17
888.412	-84.14
888.583	22.36
888.754	-53.42
888.926	-123.05
889.097	-108.71
889.268	-94.38
889.44	-82.09
889.611	-116.9
889.782	-75.95
889.953	-51.37
890.125	91.99
890.296	-92.33
890.467	-45.23
890.638	-59.56
890.809	-125.1
890.98	-22.7
891.151	-61.61
891.323	104.28
891.494	22.36
891.665	-84.14
891.836	-57.51
892.007	-77.99
892.178	81.75
892.349	-16.55
892.52	-67.75
892.691	-4.27
892.862	-121
893.032	-133.29
893.203	-49.32
893.374	-53.42
893.545	44.88
893.716	12.12
893.887	44.88
894.057	55.12
894.228	-39.08
894.399	-41.13
894.57	102.23
894.74	-18.6
894.911	-4.27
895.082	-20.65
895.253	-47.27
895.423	-43.18
895.594	77.65
895.764	38.74
895.935	-90.28
896.106	65.36
896.276	3.93
896.447	-32.94
896.617	-20.65
896.788	-118.95
896.958	28.5
897.129	-75.95
897.299	-65.71
897.47	114.52
897.64	20.31
897.81	-71.85
897.981	22.36
898.151	-75.95
898.322	14.17
898.492	28.5
898.662	-65.71
898.832	-92.33
899.003	-28.84
899.173	36.69
899.343	-63.66
899.513	-94.38
