Data from USB4F104151__23__09-26-04-717.txt Node

Date: Wed Feb 26 09:26:04 EST 2025
User: louis
Spectrometer: USB4F10415
Trigger mode: 4
Integration Time (sec): 1.000000E-1
Scans to average: 1
Electric dark correction enabled: true
Nonlinearity correction enabled: false
Boxcar width: 0
XAxis mode: Wavelengths
Number of Pixels in Spectrum: 3648
>>>>>Begin Spectral Data<<<<<
178.204	-366.07
178.424	-366.07
178.644	-366.07
178.864	-308.73
179.084	-374.27
179.304	-48.64
179.524	37.38
179.744	16.9
179.964	53.76
180.184	-15.87
180.404	-5.63
180.624	-40.45
180.844	35.33
181.064	-71.17
181.283	41.47
181.503	-34.3
181.723	31.23
181.943	-110.08
182.163	156.16
182.383	-36.35
182.602	47.62
182.822	139.77
183.042	64
183.262	-56.83
183.482	-46.59
183.701	64
183.921	27.14
184.141	-24.06
184.361	84.48
184.58	76.29
184.8	-7.68
185.02	-24.06
185.239	-17.92
185.459	-38.4
185.679	64
185.898	-71.17
186.118	109.05
186.338	-7.68
186.557	59.9
186.777	-79.36
186.997	16.9
187.216	74.24
187.436	139.77
187.655	57.86
187.875	100.86
188.095	41.47
188.314	98.81
188.534	53.76
188.753	-85.5
188.973	84.48
189.192	20.99
189.412	2.56
189.631	80.38
189.851	18.94
190.07	137.73
190.29	-34.3
190.509	4.61
190.729	27.14
190.948	80.38
191.168	162.3
191.387	100.86
191.607	25.09
191.826	8.7
192.045	6.66
192.265	23.04
192.484	59.9
192.704	59.9
192.923	-7.68
193.142	98.81
193.362	125.44
193.581	88.57
193.8	98.81
194.02	59.9
194.239	68.09
194.458	68.09
194.678	4.61
194.897	-44.54
195.116	72.19
195.335	18.94
195.555	55.81
195.774	-19.97
195.993	125.44
196.212	-28.16
196.432	-56.83
196.651	-3.58
196.87	-3.58
197.089	152.06
197.308	121.34
197.528	29.18
197.747	-105.98
197.966	49.66
198.185	139.77
198.404	-30.21
198.623	29.18
198.842	125.44
199.062	86.53
199.281	35.33
199.5	39.42
199.719	104.96
199.938	43.52
200.157	104.96
200.376	43.52
200.595	109.05
200.814	-15.87
201.033	-26.11
201.252	164.35
201.471	6.66
201.69	80.38
201.909	-42.5
202.128	4.61
202.347	-22.02
202.566	25.09
202.785	-105.98
203.004	-30.21
203.223	205.31
203.442	6.66
203.661	-71.17
203.879	113.15
204.098	57.86
204.317	-42.5
204.536	119.29
204.755	10.75
204.974	121.34
205.193	2.56
205.411	84.48
205.63	84.48
205.849	33.28
206.068	-52.74
206.287	-1.54
206.505	72.19
206.724	53.76
206.943	-56.83
207.162	-5.63
207.381	35.33
207.599	8.7
207.818	-17.92
208.037	-38.4
208.255	47.62
208.474	88.57
208.693	78.33
208.911	-30.21
209.13	10.75
209.349	55.81
209.567	82.43
209.786	100.86
210.005	-48.64
210.223	27.14
210.442	-17.92
210.661	45.57
210.879	-44.54
211.098	31.23
211.316	35.33
211.535	92.67
211.753	-9.73
211.972	33.28
212.191	8.7
212.409	37.38
212.628	20.99
212.846	4.61
213.065	51.71
213.283	96.77
213.502	59.9
213.72	70.14
213.938	31.23
214.157	-15.87
214.375	37.38
214.594	39.42
214.812	57.86
215.031	-17.92
215.249	16.9
215.467	33.28
215.686	64
215.904	43.52
216.122	84.48
216.341	76.29
216.559	20.99
216.778	68.09
216.996	176.64
217.214	49.66
217.432	-24.06
217.651	8.7
217.869	90.62
218.087	-56.83
218.306	51.71
218.524	107.01
218.742	27.14
218.96	109.05
219.179	49.66
219.397	2.56
219.615	129.53
219.833	2.56
220.051	-3.58
220.27	107.01
220.488	115.2
220.706	2.56
220.924	-40.45
221.142	-7.68
221.36	6.66
221.578	70.14
221.796	2.56
222.015	-5.63
222.233	27.14
222.451	150.01
222.669	-5.63
222.887	74.24
223.105	-3.58
223.323	-24.06
223.541	-42.5
223.759	61.95
223.977	-5.63
224.195	166.4
224.413	100.86
224.631	35.33
224.849	68.09
225.067	166.4
225.285	76.29
225.503	-19.97
225.721	-87.55
225.939	68.09
226.157	59.9
226.375	231.93
226.592	-34.3
226.81	18.94
227.028	18.94
227.246	170.49
227.464	27.14
227.682	70.14
227.9	45.57
228.117	92.67
228.335	25.09
228.553	8.7
228.771	-17.92
228.989	37.38
229.206	66.05
229.424	31.23
229.642	-69.12
229.86	-144.89
230.077	61.95
230.295	14.85
230.513	76.29
230.731	-5.63
230.948	117.25
231.166	131.58
231.384	-42.5
231.601	39.42
231.819	229.88
232.037	35.33
232.254	8.7
232.472	-38.4
232.689	33.28
232.907	55.81
233.125	10.75
233.342	-26.11
233.56	10.75
233.777	-40.45
233.995	-87.55
234.213	125.44
234.43	76.29
234.648	55.81
234.865	18.94
235.083	-26.11
235.3	31.23
235.518	37.38
235.735	125.44
235.953	55.81
236.17	14.85
236.388	0.51
236.605	113.15
236.822	14.85
237.04	68.09
237.257	25.09
237.475	-54.78
237.692	96.77
237.909	76.29
238.127	2.56
238.344	35.33
238.562	61.95
238.779	-42.5
238.996	-103.93
239.214	-24.06
239.431	51.71
239.648	-15.87
239.865	70.14
240.083	64
240.3	-1.54
240.517	-40.45
240.735	33.28
240.952	51.71
241.169	33.28
241.386	41.47
241.603	31.23
241.821	-67.07
242.038	10.75
242.255	166.4
242.472	-56.83
242.689	27.14
242.907	117.25
243.124	59.9
243.341	-38.4
243.558	-24.06
243.775	-48.64
243.992	-42.5
244.209	39.42
244.426	141.82
244.643	18.94
244.86	68.09
245.078	57.86
245.295	68.09
245.512	4.61
245.729	90.62
245.946	53.76
246.163	18.94
246.38	16.9
246.597	76.29
246.814	8.7
247.031	-1.54
247.248	33.28
247.464	64
247.681	-13.82
247.898	14.85
248.115	119.29
248.332	-62.98
248.549	92.67
248.766	92.67
248.983	53.76
249.2	86.53
249.417	18.94
249.633	55.81
249.85	-1.54
250.067	0.51
250.284	55.81
250.501	154.11
250.717	31.23
250.934	-71.17
251.151	29.18
251.368	66.05
251.585	27.14
251.801	33.28
252.018	70.14
252.235	59.9
252.451	-91.65
252.668	6.66
252.885	84.48
253.102	64
253.318	-38.4
253.535	23.04
253.752	-32.26
253.968	27.14
254.185	-40.45
254.401	-34.3
254.618	113.15
254.835	-38.4
255.051	98.81
255.268	-7.68
255.484	84.48
255.701	33.28
255.917	123.39
256.134	-38.4
256.351	51.71
256.567	-26.11
256.784	68.09
257	4.61
257.217	74.24
257.433	121.34
257.65	14.85
257.866	131.58
258.082	-30.21
258.299	-30.21
258.515	4.61
258.732	12.8
258.948	-79.36
259.165	43.52
259.381	-75.26
259.597	102.91
259.814	53.76
260.03	-1.54
260.246	70.14
260.463	74.24
260.679	84.48
260.895	20.99
261.112	-24.06
261.328	41.47
261.544	23.04
261.761	125.44
261.977	-54.78
262.193	-30.21
262.409	80.38
262.626	43.52
262.842	23.04
263.058	33.28
263.274	147.97
263.49	39.42
263.707	51.71
263.923	31.23
264.139	-40.45
264.355	14.85
264.571	156.16
264.787	39.42
265.004	164.35
265.22	12.8
265.436	47.62
265.652	-58.88
265.868	109.05
266.084	-22.02
266.3	20.99
266.516	-24.06
266.732	-30.21
266.948	31.23
267.164	33.28
267.38	107.01
267.596	18.94
267.812	145.92
268.028	31.23
268.244	0.51
268.46	84.48
268.676	-22.02
268.892	117.25
269.108	-22.02
269.324	18.94
269.54	23.04
269.756	84.48
269.972	-26.11
270.188	-40.45
270.403	-38.4
270.619	43.52
270.835	23.04
271.051	35.33
271.267	14.85
271.483	-26.11
271.698	102.91
271.914	35.33
272.13	39.42
272.346	8.7
272.562	-11.78
272.777	117.25
272.993	-36.35
273.209	-17.92
273.425	68.09
273.64	-44.54
273.856	8.7
274.072	25.09
274.287	-62.98
274.503	53.76
274.719	156.16
274.934	-65.02
275.15	-120.32
275.366	23.04
275.581	-54.78
275.797	14.85
276.012	-1.54
276.228	-3.58
276.444	-22.02
276.659	51.71
276.875	-13.82
277.09	41.47
277.306	16.9
277.521	139.77
277.737	57.86
277.952	33.28
278.168	119.29
278.383	25.09
278.599	-13.82
278.814	174.59
279.03	23.04
279.245	59.9
279.461	68.09
279.676	102.91
279.892	-26.11
280.107	18.94
280.322	-42.5
280.538	135.68
280.753	-5.63
280.969	-75.26
281.184	49.66
281.399	213.5
281.615	66.05
281.83	45.57
282.045	-15.87
282.26	-1.54
282.476	88.57
282.691	59.9
282.906	45.57
283.122	76.29
283.337	-7.68
283.552	57.86
283.767	27.14
283.983	45.57
284.198	-26.11
284.413	90.62
284.628	-54.78
284.843	14.85
285.058	-7.68
285.274	-46.59
285.489	-22.02
285.704	55.81
285.919	12.8
286.134	12.8
286.349	-1.54
286.564	64
286.779	92.67
286.995	-62.98
287.21	23.04
287.425	100.86
287.64	14.85
287.855	64
288.07	-5.63
288.285	92.67
288.5	33.28
288.715	8.7
288.93	20.99
289.145	51.71
289.36	66.05
289.575	68.09
289.79	49.66
290.004	-79.36
290.219	119.29
290.434	-19.97
290.649	-17.92
290.864	-13.82
291.079	45.57
291.294	57.86
291.509	6.66
291.724	-54.78
291.938	-5.63
292.153	12.8
292.368	23.04
292.583	39.42
292.798	102.91
293.012	80.38
293.227	25.09
293.442	2.56
293.657	51.71
293.871	76.29
294.086	18.94
294.301	168.45
294.516	64
294.73	25.09
294.945	27.14
295.16	-34.3
295.374	133.63
295.589	145.92
295.804	25.09
296.018	-83.45
296.233	49.66
296.447	10.75
296.662	31.23
296.877	121.34
297.091	92.67
297.306	-7.68
297.52	-5.63
297.735	-24.06
297.949	-5.63
298.164	2.56
298.378	2.56
298.593	8.7
298.807	-30.21
299.022	47.62
299.236	96.77
299.451	33.28
299.665	-3.58
299.88	10.75
300.094	-40.45
300.309	51.71
300.523	-3.58
300.737	18.94
300.952	68.09
301.166	70.14
301.381	12.8
301.595	10.75
301.809	35.33
302.024	-3.58
302.238	-34.3
302.452	90.62
302.667	6.66
302.881	104.96
303.095	100.86
303.309	2.56
303.524	-22.02
303.738	-22.02
303.952	-48.64
304.166	70.14
304.381	-116.22
304.595	102.91
304.809	-30.21
305.023	-15.87
305.237	8.7
305.452	20.99
305.666	35.33
305.88	76.29
306.094	150.01
306.308	66.05
306.522	14.85
306.736	-22.02
306.95	80.38
307.164	43.52
307.379	35.33
307.593	195.07
307.807	82.43
308.021	113.15
308.235	16.9
308.449	-138.75
308.663	-32.26
308.877	207.36
309.091	39.42
309.305	68.09
309.519	-44.54
309.733	98.81
309.947	-87.55
310.161	14.85
310.374	117.25
310.588	53.76
310.802	27.14
311.016	20.99
311.23	20.99
311.444	-85.5
311.658	0.51
311.872	66.05
312.085	18.94
312.299	104.96
312.513	82.43
312.727	70.14
312.941	-87.55
313.154	115.2
313.368	41.47
313.582	20.99
313.796	100.86
314.009	27.14
314.223	-22.02
314.437	18.94
314.651	121.34
314.864	59.9
315.078	16.9
315.292	-42.5
315.505	-50.69
315.719	-30.21
315.933	-7.68
316.146	-83.45
316.36	-22.02
316.573	80.38
316.787	-22.02
317.001	6.66
317.214	59.9
317.428	43.52
317.641	-83.45
317.855	-67.07
318.068	33.28
318.282	2.56
318.495	172.54
318.709	-9.73
318.922	8.7
319.136	94.72
319.349	172.54
319.563	-22.02
319.776	47.62
319.99	-34.3
320.203	-1.54
320.417	2.56
320.63	25.09
320.843	123.39
321.057	59.9
321.27	18.94
321.483	57.86
321.697	131.58
321.91	107.01
322.124	74.24
322.337	16.9
322.55	-15.87
322.763	86.53
322.977	74.24
323.19	-58.88
323.403	51.71
323.617	107.01
323.83	86.53
324.043	16.9
324.256	14.85
324.469	-95.74
324.683	64
324.896	47.62
325.109	18.94
325.322	-26.11
325.535	43.52
325.748	84.48
325.962	14.85
326.175	-1.54
326.388	80.38
326.601	96.77
326.814	41.47
327.027	35.33
327.24	190.97
327.453	-34.3
327.666	53.76
327.879	104.96
328.092	86.53
328.305	55.81
328.518	-48.64
328.731	25.09
328.944	-42.5
329.157	41.47
329.37	-24.06
329.583	178.69
329.796	135.68
330.009	-11.78
330.222	119.29
330.435	-3.58
330.648	16.9
330.861	35.33
331.073	16.9
331.286	10.75
331.499	-5.63
331.712	-46.59
331.925	16.9
332.138	6.66
332.35	84.48
332.563	43.52
332.776	31.23
332.989	2.56
333.202	-40.45
333.414	47.62
333.627	-13.82
333.84	27.14
334.053	-22.02
334.265	-67.07
334.478	-62.98
334.691	41.47
334.903	23.04
335.116	16.9
335.329	6.66
335.541	90.62
335.754	31.23
335.966	-24.06
336.179	-52.74
336.392	33.28
336.604	27.14
336.817	16.9
337.029	90.62
337.242	-9.73
337.454	49.66
337.667	-30.21
337.88	127.49
338.092	76.29
338.305	88.57
338.517	-62.98
338.729	68.09
338.942	74.24
339.154	-77.31
339.367	16.9
339.579	55.81
339.792	-44.54
340.004	-17.92
340.217	-87.55
340.429	-46.59
340.641	-58.88
340.854	-67.07
341.066	-24.06
341.278	123.39
341.491	141.82
341.703	-67.07
341.915	-22.02
342.128	72.19
342.34	25.09
342.552	-71.17
342.764	115.2
342.977	-24.06
343.189	20.99
343.401	49.66
343.613	-79.36
343.826	16.9
344.038	-32.26
344.25	107.01
344.462	-13.82
344.674	41.47
344.886	18.94
345.099	12.8
345.311	61.95
345.523	-34.3
345.735	-34.3
345.947	35.33
346.159	25.09
346.371	109.05
346.583	10.75
346.795	150.01
347.007	-89.6
347.219	43.52
347.431	6.66
347.643	37.38
347.855	68.09
348.067	125.44
348.279	-65.02
348.491	47.62
348.703	92.67
348.915	4.61
349.127	-48.64
349.339	31.23
349.551	-13.82
349.763	98.81
349.975	23.04
350.187	98.81
350.399	92.67
350.61	66.05
350.822	-1.54
351.034	55.81
351.246	70.14
351.458	98.81
351.669	0.51
351.881	129.53
352.093	41.47
352.305	113.15
352.517	2.56
352.728	98.81
352.94	23.04
353.152	115.2
353.363	-42.5
353.575	68.09
353.787	164.35
353.999	59.9
354.21	45.57
354.422	-13.82
354.633	23.04
354.845	80.38
355.057	88.57
355.268	-75.26
355.48	113.15
355.692	-34.3
355.903	-30.21
356.115	-52.74
356.326	-122.37
356.538	82.43
356.749	59.9
356.961	117.25
357.172	117.25
357.384	10.75
357.595	170.49
357.807	27.14
358.018	-36.35
358.23	-5.63
358.441	125.44
358.653	76.29
358.864	10.75
359.075	-1.54
359.287	102.91
359.498	109.05
359.709	115.2
359.921	-11.78
360.132	76.29
360.344	4.61
360.555	-30.21
360.766	92.67
360.977	82.43
361.189	35.33
361.4	16.9
361.611	53.76
361.823	31.23
362.034	55.81
362.245	-62.98
362.456	-1.54
362.667	-36.35
362.879	-22.02
363.09	-9.73
363.301	33.28
363.512	2.56
363.723	-24.06
363.935	49.66
364.146	41.47
364.357	-40.45
364.568	39.42
364.779	-34.3
364.99	51.71
365.201	25.09
365.412	74.24
365.623	-62.98
365.834	57.86
366.045	18.94
366.256	70.14
366.467	2.56
366.678	2.56
366.889	-30.21
367.1	-46.59
367.311	104.96
367.522	78.33
367.733	29.18
367.944	18.94
368.155	-36.35
368.366	47.62
368.577	55.81
368.788	96.77
368.999	-67.07
369.209	43.52
369.42	231.93
369.631	186.88
369.842	57.86
370.053	100.86
370.264	107.01
370.474	31.23
370.685	109.05
370.896	-32.26
371.107	55.81
371.317	59.9
371.528	23.04
371.739	10.75
371.95	68.09
372.16	119.29
372.371	-62.98
372.582	12.8
372.792	90.62
373.003	117.25
373.214	16.9
373.424	86.53
373.635	35.33
373.846	152.06
374.056	70.14
374.267	2.56
374.477	20.99
374.688	-44.54
374.898	10.75
375.109	-85.5
375.319	125.44
375.53	78.33
375.74	78.33
375.951	-19.97
376.161	64
376.372	29.18
376.582	-1.54
376.793	2.56
377.003	-13.82
377.214	10.75
377.424	88.57
377.635	31.23
377.845	-38.4
378.055	88.57
378.266	-132.61
378.476	-19.97
378.686	64
378.897	37.38
379.107	121.34
379.317	-1.54
379.528	10.75
379.738	14.85
379.948	-54.78
380.158	74.24
380.369	8.7
380.579	96.77
380.789	-15.87
380.999	109.05
381.21	78.33
381.42	111.1
381.63	-17.92
381.84	84.48
382.05	104.96
382.261	80.38
382.471	131.58
382.681	-5.63
382.891	98.81
383.101	12.8
383.311	2.56
383.521	43.52
383.731	35.33
383.941	68.09
384.151	166.4
384.361	37.38
384.571	14.85
384.781	76.29
384.991	131.58
385.201	113.15
385.411	29.18
385.621	-13.82
385.831	84.48
386.041	18.94
386.251	-22.02
386.461	96.77
386.671	100.86
386.881	84.48
387.091	-1.54
387.301	45.57
387.511	-7.68
387.72	98.81
387.93	123.39
388.14	-24.06
388.35	92.67
388.56	0.51
388.769	117.25
388.979	61.95
389.189	-52.74
389.399	121.34
389.609	70.14
389.818	113.15
390.028	31.23
390.238	102.91
390.447	-15.87
390.657	76.29
390.867	8.7
391.076	-40.45
391.286	8.7
391.496	61.95
391.705	39.42
391.915	51.71
392.125	80.38
392.334	-30.21
392.544	68.09
392.753	33.28
392.963	-71.17
393.172	121.34
393.382	-95.74
393.591	59.9
393.801	-13.82
394.01	49.66
394.22	53.76
394.429	-30.21
394.639	-62.98
394.848	-19.97
395.058	68.09
395.267	43.52
395.477	70.14
395.686	18.94
395.895	158.21
396.105	137.73
396.314	45.57
396.524	51.71
396.733	-32.26
396.942	152.06
397.152	18.94
397.361	176.64
397.57	18.94
397.78	10.75
397.989	92.67
398.198	104.96
398.407	23.04
398.617	35.33
398.826	10.75
399.035	-13.82
399.244	78.33
399.453	-38.4
399.663	76.29
399.872	86.53
400.081	-42.5
400.29	125.44
400.499	6.66
400.708	100.86
400.917	25.09
401.127	-13.82
401.336	-24.06
401.545	141.82
401.754	98.81
401.963	72.19
402.172	-15.87
402.381	-71.17
402.59	6.66
402.799	31.23
403.008	27.14
403.217	55.81
403.426	55.81
403.635	-22.02
403.844	33.28
404.053	18.94
404.262	6.66
404.471	84.48
404.68	49.66
404.888	-46.59
405.097	10.75
405.306	18.94
405.515	-5.63
405.724	18.94
405.933	100.86
406.142	37.38
406.35	51.71
406.559	68.09
406.768	39.42
406.977	154.11
407.185	100.86
407.394	14.85
407.603	-38.4
407.812	37.38
408.02	68.09
408.229	4.61
408.438	31.23
408.646	2.56
408.855	-7.68
409.064	27.14
409.272	-26.11
409.481	55.81
409.69	16.9
409.898	-56.83
410.107	39.42
410.315	14.85
410.524	-19.97
410.733	72.19
410.941	-67.07
411.15	41.47
411.358	37.38
411.567	162.3
411.775	82.43
411.984	84.48
412.192	14.85
412.401	8.7
412.609	219.64
412.818	76.29
413.026	76.29
413.234	-3.58
413.443	-67.07
413.651	-11.78
413.86	-38.4
414.068	156.16
414.276	172.54
414.485	-13.82
414.693	170.49
414.901	133.63
415.11	117.25
415.318	8.7
415.526	14.85
415.734	143.87
415.943	-7.68
416.151	135.68
416.359	33.28
416.567	51.71
416.776	117.25
416.984	78.33
417.192	131.58
417.4	-48.64
417.608	-26.11
417.817	-15.87
418.025	127.49
418.233	168.45
418.441	-69.12
418.649	12.8
418.857	-5.63
419.065	53.76
419.273	86.53
419.481	-50.69
419.689	18.94
419.897	-54.78
420.105	-95.74
420.313	100.86
420.521	109.05
420.729	109.05
420.937	-1.54
421.145	-116.22
421.353	207.36
421.561	137.73
421.769	27.14
421.977	6.66
422.185	66.05
422.393	14.85
422.601	68.09
422.809	-13.82
423.017	25.09
423.224	37.38
423.432	14.85
423.64	27.14
423.848	176.64
424.056	59.9
424.263	35.33
424.471	6.66
424.679	141.82
424.887	-38.4
425.094	88.57
425.302	98.81
425.51	23.04
425.718	98.81
425.925	84.48
426.133	18.94
426.341	229.88
426.548	-38.4
426.756	20.99
426.964	145.92
427.171	-36.35
427.379	123.39
427.586	43.52
427.794	45.57
428.001	141.82
428.209	68.09
428.417	133.63
428.624	64
428.832	84.48
429.039	109.05
429.247	53.76
429.454	98.81
429.662	182.78
429.869	37.38
430.076	123.39
430.284	152.06
430.491	174.59
430.699	117.25
430.906	172.54
431.114	18.94
431.321	92.67
431.528	-22.02
431.736	84.48
431.943	133.63
432.15	109.05
432.358	195.07
432.565	227.84
432.772	10.75
432.979	176.64
433.187	107.01
433.394	174.59
433.601	98.81
433.808	320
434.016	178.69
434.223	182.78
434.43	176.64
434.637	166.4
434.844	264.7
435.052	221.69
435.259	162.3
435.466	207.36
435.673	178.69
435.88	256.51
436.087	205.31
436.294	233.98
436.501	301.56
436.708	266.75
436.915	326.14
437.122	262.65
437.329	221.69
437.537	262.65
437.743	231.93
437.95	334.33
438.157	334.33
438.364	311.8
438.571	313.85
438.778	346.62
438.985	313.85
439.192	297.47
439.399	289.28
439.606	442.87
439.813	467.45
440.02	485.88
440.227	563.7
440.433	518.65
440.64	440.83
440.847	449.02
441.054	543.22
441.261	602.61
441.467	526.84
441.674	539.13
441.881	567.8
442.088	506.36
442.294	614.9
442.501	670.2
442.708	707.06
442.914	682.49
443.121	754.16
443.328	682.49
443.534	821.75
443.741	752.12
443.948	707.06
444.154	772.6
444.361	1024.5
444.568	907.76
444.774	879.09
444.981	877.04
445.187	1085.94
445.394	1083.89
445.6	1038.83
445.807	1149.42
446.013	1235.44
446.22	1065.46
446.426	1243.63
446.633	1239.53
446.839	1364.46
447.046	1169.9
447.252	1505.77
447.459	1448.43
447.665	1460.71
447.871	1679.85
448.078	1759.72
448.284	1694.18
448.491	1743.33
448.697	1765.86
448.903	1878.5
449.11	2001.38
449.316	1892.84
449.522	2134.5
449.728	2204.13
449.935	2322.91
450.141	2144.74
450.347	2384.35
450.553	2464.22
450.76	2357.72
450.966	2544.09
451.172	2636.25
451.378	2689.49
451.584	2787.8
451.791	2894.29
451.997	3094.99
452.203	3146.19
452.409	3318.22
452.615	3430.86
452.821	3473.87
453.027	3492.3
453.233	3817.93
453.44	3697.1
453.646	3819.97
453.852	3994.05
454.058	4250.05
454.264	4583.87
454.47	4608.44
454.676	4657.59
454.882	5155.25
455.088	4694.46
455.294	5038.52
455.5	5587.37
455.705	5867.94
455.911	5880.23
456.117	6138.27
456.323	6115.75
456.529	6168.99
456.735	6519.2
456.941	7006.61
457.147	7192.98
457.352	7295.38
457.558	7559.56
457.764	8075.65
457.97	8145.28
458.176	8481.15
458.381	9124.21
458.587	9070.97
458.793	9697.64
458.999	9550.19
459.204	10852.7
459.41	11143.51
459.616	10897.75
459.821	11931.98
460.027	12167.49
460.233	12589.38
460.438	12785.98
460.644	13463.86
460.85	13650.22
461.055	14227.75
461.261	15130.91
461.466	14698.78
461.672	14792.99
461.878	16703.75
462.083	16478.47
462.289	16726.27
462.494	17410.29
462.7	17533.17
462.905	17684.72
463.111	19112.16
463.316	20084.94
463.522	20478.15
463.727	21151.93
463.932	22024.37
464.138	22849.7
464.343	23715.99
464.549	23783.57
464.754	25383.04
464.959	26148.98
465.165	26493.04
465.37	26712.17
465.575	26290.29
465.781	28280.91
465.986	28799.05
466.191	28594.25
466.397	28672.07
466.602	28215.38
466.807	30148.66
467.012	30410.8
467.218	30812.2
467.423	30957.61
467.628	31678.49
467.833	33447.94
468.038	32792.59
468.244	32016.41
468.449	34093.05
468.654	33550.34
468.859	33505.28
469.064	33327.11
469.269	32116.76
469.474	32933.9
469.679	33323.01
469.885	32927.75
470.09	33482.75
470.295	33097.73
470.5	32514.06
470.705	32851.98
470.91	31975.45
471.115	31588.38
471.32	32030.74
471.525	31922.2
471.73	31043.62
471.935	30781.48
472.139	29644.86
472.344	30156.85
472.549	29784.12
472.754	29044.8
472.959	28332.11
473.164	27451.49
473.369	27009.12
473.574	27902.04
473.778	26953.83
473.983	26720.36
474.188	26138.74
474.393	24823.94
474.598	25225.34
474.802	24338.57
475.007	24258.7
475.212	23767.19
475.417	22874.27
475.621	22698.15
475.826	22436.01
476.031	21938.35
476.235	21575.86
476.44	21692.6
476.645	21053.63
476.849	20934.85
477.054	20533.45
477.259	20056.27
477.463	20037.84
477.668	19288.28
477.872	19456.22
478.077	18876.64
478.282	18086.12
478.486	18417.89
478.691	17613.04
478.895	17623.28
479.1	17881.33
479.304	17600.76
479.509	16881.92
479.713	17160.44
479.918	17064.19
480.122	16546.05
480.326	16584.96
480.531	16582.91
480.735	16394.5
480.94	15991.05
481.144	16345.35
481.348	15651.09
481.553	15687.95
481.757	15307.03
481.961	15358.23
482.166	15552.79
482.37	15190.3
482.574	14672.16
482.778	15073.56
482.983	15102.23
483.187	15024.41
483.391	15016.22
483.595	14600.48
483.8	14367.01
484.004	14395.68
484.208	14541.09
484.412	14156.07
484.616	14334.25
484.821	14043.43
485.025	13240.63
485.229	13486.39
485.433	13275.45
485.637	13242.68
485.841	12763.45
486.045	12814.65
486.249	12939.58
486.453	12519.74
486.657	12419.39
486.861	12179.78
487.065	11817.29
487.269	11905.35
487.473	11379.03
487.677	11714.89
487.881	11444.56
488.085	10871.13
488.289	10959.19
488.493	10647.9
488.697	10789.21
488.901	10260.84
489.105	10123.62
489.309	10072.42
489.512	9720.17
489.716	9546.09
489.92	9412.98
490.124	9206.13
490.328	9261.43
490.531	8888.7
490.735	8870.26
490.939	8513.92
491.143	8520.06
491.346	8077.7
491.55	8159.62
491.754	8110.47
491.958	8073.6
492.161	7694.73
492.365	7543.18
492.569	7207.31
492.772	7295.38
492.976	7311.76
493.18	7231.89
493.383	7096.72
493.587	6916.5
493.79	6908.31
493.994	6867.35
494.197	6889.88
494.401	6662.55
494.605	6480.29
494.808	6545.82
495.012	6424.99
495.215	6410.65
495.419	6398.37
495.622	6326.69
495.825	6250.91
496.029	6101.41
496.232	5988.77
496.436	6085.03
496.639	6037.92
496.843	5984.68
497.046	6099.36
497.249	6027.68
497.453	6023.59
497.656	6136.23
497.859	5937.57
498.063	5951.91
498.266	5956.01
498.469	5962.15
498.673	6082.98
498.876	6072.74
499.079	5898.66
499.282	5933.48
499.485	6177.19
499.689	5925.29
499.892	6072.74
500.095	5921.19
500.298	6265.25
500.501	6125.99
500.705	6209.95
500.908	6259.1
501.111	6363.55
501.314	6359.45
501.517	6392.22
501.72	6400.41
501.923	6353.31
502.126	6578.59
502.329	6617.5
502.532	6824.34
502.735	6609.31
502.938	6773.14
503.141	6814.1
503.344	7020.95
503.547	6965.65
503.75	7137.68
503.953	6988.18
504.156	7035.28
504.359	7199.12
504.562	7184.79
504.765	7436.69
504.968	7731.59
505.17	7733.64
505.373	7625.1
505.576	7866.76
505.779	7836.04
505.982	8071.56
506.185	8139.14
506.387	8321.41
506.59	8636.8
506.793	8583.55
506.996	8477.05
507.198	9023.86
507.401	8798.59
507.604	9412.98
507.807	9402.74
508.009	9642.35
508.212	9705.84
508.415	9847.15
508.617	10013.03
508.82	10195.3
509.022	10557.79
509.225	10783.07
509.428	10799.45
509.63	10832.22
509.833	11061.59
510.035	11594.06
510.238	11632.97
510.44	11870.54
510.643	12312.9
510.845	12765.5
511.048	12699.97
511.25	13072.7
511.453	13453.62
511.655	13867.31
511.858	13703.47
512.06	14573.86
512.262	14450.98
512.465	14872.86
512.667	14983.45
512.87	15771.92
513.072	15827.21
513.274	16328.97
513.477	16466.18
513.679	16976.12
513.881	17340.66
514.084	17692.91
514.286	17846.51
514.488	18323.69
514.69	18933.98
514.893	19091.68
515.095	19564.76
515.297	20125.9
515.499	20601.03
515.701	21264.57
515.904	21579.96
516.106	22048.94
516.308	22515.88
516.51	22857.89
516.712	23034.02
516.914	23785.62
517.116	24191.12
517.318	24383.63
517.52	24995.97
517.722	25507.96
517.925	26030.19
518.127	26445.93
518.329	26906.73
518.531	27074.66
518.733	27910.23
518.935	28506.19
519.136	28835.91
519.338	29622.33
519.54	29579.32
519.742	30052.41
519.944	30406.7
520.146	31313.95
520.348	31488.03
520.55	31944.73
520.752	32217.11
520.954	33079.3
521.155	33183.75
521.357	33730.56
521.559	33789.95
521.761	34883.56
521.963	35071.98
522.164	35602.4
522.366	35434.47
522.568	36177.88
522.77	36018.14
522.971	36796.37
523.173	36655.06
523.375	36876.24
523.576	37353.41
523.778	37314.5
523.98	37459.91
524.181	37863.36
524.383	37892.03
524.584	38520.76
524.786	38492.08
524.988	38440.89
525.189	38557.62
525.391	38676.4
525.592	38942.64
525.794	38858.67
525.995	39112.62
526.197	39016.36
526.398	39038.89
526.6	38784.94
526.801	39047.08
527.003	38770.61
527.204	38565.81
527.406	38670.26
527.607	38805.42
527.808	38436.79
528.01	38035.39
528.211	37943.23
528.412	38178.75
528.614	37595.07
528.815	37572.55
529.016	37390.28
529.218	37081.03
529.419	37007.31
529.62	36566.99
529.822	35825.63
530.023	35731.42
530.224	35461.09
530.425	35301.35
530.626	34709.49
530.828	34181.11
531.029	34418.67
531.23	33662.97
531.431	33495.04
531.632	33316.87
531.833	33028.1
532.035	32282.64
532.236	32432.15
532.437	32141.33
532.638	31242.28
532.839	31158.31
533.04	30920.74
533.241	29933.62
533.442	30406.7
533.643	29550.65
533.844	29241.41
534.045	28833.86
534.246	28461.13
534.447	28051.54
534.648	27865.17
534.849	27662.43
535.05	27013.22
535.251	26384.49
535.451	26361.97
535.652	26140.79
535.853	25655.42
536.054	25530.49
536.255	25215.1
536.456	24371.34
536.657	24516.75
536.857	23902.36
537.058	23740.57
537.259	23525.53
537.46	23226.53
537.66	22700.2
537.861	22732.97
538.062	22186.16
538.263	22055.09
538.463	21924.02
538.664	21586.1
538.865	21037.25
539.065	21211.32
539.266	20359.37
539.466	20605.13
539.667	20029.65
539.868	19890.38
540.068	19575
540.269	19394.78
540.469	19337.43
540.67	18927.84
540.87	18692.32
541.071	18385.13
541.271	18577.64
541.472	18155.75
541.672	17903.85
541.873	17744.11
542.073	17205.5
542.274	17271.03
542.474	17250.55
542.675	17017.08
542.875	17019.13
543.075	16482.56
543.276	16441.61
543.476	16445.7
543.676	15943.95
543.877	15915.28
544.077	15894.8
544.277	15671.57
544.478	15329.56
544.678	15360.28
544.878	15028.51
545.078	14995.74
545.279	14704.93
545.479	14602.53
545.679	14295.33
545.879	14166.31
546.079	14254.37
546.28	13799.73
546.48	13695.28
546.68	13461.81
546.88	13572.4
547.08	13281.59
547.28	13093.18
547.48	12894.52
547.68	13005.11
547.88	12689.73
548.081	12577.09
548.281	12165.45
548.481	12210.5
548.681	12036.42
548.881	12140.87
549.081	11675.98
549.28	11551.06
549.48	11448.66
549.68	11364.69
549.88	11170.13
550.08	10778.97
550.28	11045.21
550.48	10723.68
550.68	10830.17
550.88	10326.37
551.08	10348.9
551.279	10211.68
551.479	9865.58
551.679	9902.44
551.879	9701.74
552.079	9638.25
552.278	9591.15
552.478	9406.83
552.678	9257.33
552.878	9003.38
553.077	8817.02
553.277	8761.72
553.477	8743.29
553.676	8610.17
553.876	8163.72
554.076	8163.72
554.275	8092.04
554.475	7905.67
554.674	7766.41
554.874	7688.59
555.074	7432.59
555.273	7362.96
555.473	7567.76
555.672	7129.49
555.872	7121.3
556.071	6863.26
556.271	6992.28
556.47	6863.26
556.67	6515.1
556.869	6650.27
557.068	6621.59
557.268	6277.54
557.467	6195.62
557.667	6291.87
557.866	6027.68
558.065	6027.68
558.265	5837.22
558.464	5794.22
558.663	5718.44
558.863	5536.17
559.062	5513.64
559.261	5345.71
559.461	5507.5
559.66	5091.76
559.859	5173.68
560.058	4952.5
560.258	4817.33
560.457	4686.26
560.656	4909.49
560.855	4762.04
561.054	4671.93
561.253	4514.24
561.453	4592.06
561.652	4444.6
561.851	4415.93
562.05	4342.21
562.249	4112.83
562.448	4137.41
562.647	4094.4
562.846	4039.11
563.045	4088.26
563.244	3862.98
563.443	3881.41
563.642	3801.54
563.841	3701.19
564.04	3697.1
564.239	3604.94
564.438	3568.07
564.637	3516.87
564.836	3414.48
565.035	3221.97
565.234	3260.88
565.432	3299.79
565.631	3412.43
565.83	3301.84
566.029	2945.49
566.228	3187.15
566.427	3250.64
566.625	2955.73
566.824	3060.18
567.023	2974.16
567.222	2925.01
567.42	2746.84
567.619	2722.26
567.818	2718.17
568.016	2898.39
568.215	2589.14
568.414	2746.84
568.612	2642.39
568.811	2662.87
569.01	2578.9
569.208	2435.55
569.407	2574.81
569.605	2546.14
569.804	2386.4
570.002	2376.16
570.201	2277.85
570.4	2394.59
570.598	2091.49
570.797	2114.02
570.995	2247.13
571.193	2126.3
571.392	1995.23
571.59	1927.65
571.789	2152.93
571.987	1976.8
572.186	2042.34
572.384	2034.14
572.582	1876.45
572.781	1976.8
572.979	1821.16
573.177	1747.43
573.376	1817.06
573.574	1829.35
573.772	1747.43
573.971	1640.93
574.169	1755.62
574.367	1763.81
574.565	1583.59
574.763	1524.2
574.962	1434.09
575.16	1530.34
575.358	1429.99
575.556	1501.67
575.754	1532.39
575.952	1499.63
576.151	1440.23
576.349	1513.96
576.547	1341.93
576.745	1327.6
576.943	1378.79
577.141	1315.31
577.339	1364.46
577.537	1368.56
577.735	1346.03
577.933	1227.25
578.131	1174
578.329	1231.34
578.527	1196.53
578.725	1280.49
578.923	1026.54
579.121	1206.77
579.319	1038.83
579.516	1124.85
579.714	1253.87
579.912	1137.13
580.11	1008.11
580.308	1014.26
580.506	1010.16
580.704	928.24
580.901	866.8
581.099	1051.12
581.297	901.62
581.495	989.68
581.692	899.57
581.89	985.58
582.088	872.95
582.285	874.99
582.483	776.69
582.681	874.99
582.878	868.85
583.076	850.42
583.274	942.58
583.471	897.52
583.669	756.21
583.866	715.25
584.064	727.54
584.262	770.55
584.459	764.4
584.657	829.94
584.854	788.98
585.052	752.12
585.249	723.44
585.447	682.49
585.644	614.9
585.841	729.59
586.039	735.73
586.236	776.69
586.434	602.61
586.631	631.29
586.828	629.24
587.026	688.63
587.223	498.17
587.42	553.46
587.618	616.95
587.815	739.83
588.012	604.66
588.21	506.36
588.407	616.95
588.604	662.01
588.801	514.55
588.999	547.32
589.196	580.09
589.393	559.61
589.59	481.78
589.787	522.74
589.984	477.69
590.182	504.31
590.379	520.7
590.576	543.22
590.773	530.94
590.97	500.22
591.167	543.22
591.364	563.7
591.561	549.37
591.758	600.57
591.955	575.99
592.152	524.79
592.349	453.11
592.546	430.59
592.743	545.27
592.94	477.69
593.137	502.26
593.334	659.96
593.531	557.56
593.727	535.03
593.924	520.7
594.121	549.37
594.318	487.93
594.515	475.64
594.712	631.29
594.908	580.09
595.105	432.63
595.302	504.31
595.499	500.22
595.696	717.3
595.892	481.78
596.089	707.06
596.286	557.56
596.482	748.02
596.679	653.81
596.876	631.29
597.072	723.44
597.269	666.1
597.466	752.12
597.662	743.92
597.859	702.97
598.055	694.77
598.252	815.6
598.448	795.12
598.645	881.14
598.841	838.13
599.038	1014.26
599.234	1071.6
599.431	997.87
599.627	985.58
599.824	1092.08
600.02	1047.02
600.217	1128.94
600.413	1141.23
600.609	1151.47
600.806	1393.13
601.002	1264.11
601.198	1313.26
601.395	1464.81
601.591	1401.32
601.787	1423.85
601.984	1522.15
602.18	1632.74
602.376	1632.74
602.572	1753.57
602.769	1821.16
602.965	1888.74
603.161	1956.32
603.357	2017.76
603.553	2152.93
603.75	2105.82
603.946	2245.09
604.142	2312.67
604.338	2482.65
604.534	2290.14
604.73	2468.31
604.926	2652.63
605.122	2669.02
605.318	2761.17
605.514	2818.52
605.71	2937.3
605.906	3045.84
606.102	3019.22
606.298	3271.12
606.494	3334.61
606.69	3520.97
606.886	3572.17
607.082	3703.24
607.278	3680.71
607.474	3897.8
607.67	3830.21
607.866	3992
608.062	4223.42
608.257	4219.33
608.453	4213.18
608.649	4360.64
608.845	4575.67
609.041	4620.73
609.236	4843.96
609.432	5085.62
609.628	5112.24
609.824	5392.81
610.019	5314.99
610.215	5521.84
610.411	5720.49
610.606	5806.5
610.802	6044.07
610.998	6302.11
611.193	6341.02
611.389	6465.95
611.584	6715.8
611.78	6762.9
611.976	6865.3
612.171	7258.51
612.367	7377.3
612.562	7565.71
612.758	7569.8
612.953	7854.47
613.149	8192.39
613.344	8182.15
613.539	8391.04
613.735	8921.46
613.93	8980.85
614.126	9132.4
614.321	9759.08
614.517	10043.75
614.712	10060.13
614.907	10314.08
615.103	10445.15
615.298	10621.28
615.493	11118.93
615.688	11315.54
615.884	11809.1
616.079	11774.28
616.274	12243.27
616.47	12388.67
616.665	12955.96
616.86	13076.79
617.055	13306.16
617.25	13424.95
617.445	14264.61
617.641	14149.93
617.836	14790.94
618.031	14887.2
618.226	15819.02
618.421	16075.02
618.616	16320.77
618.811	16408.84
619.006	17084.67
619.201	17412.34
619.396	17510.64
619.591	17828.08
619.786	18581.73
619.981	18620.64
620.176	19265.75
620.371	19747.03
620.566	20023.5
620.761	20474.06
620.956	20934.85
621.151	21395.64
621.346	21868.72
621.541	21911.73
621.735	22833.32
621.93	22788.26
622.125	23462.04
622.32	23621.78
622.515	24160.4
622.709	24742.02
622.904	25127.04
623.099	25251.97
623.294	26245.23
623.488	26163.31
623.683	27168.87
623.878	27148.39
624.072	27930.71
624.267	28198.99
624.462	28794.95
624.656	28954.69
624.851	29521.98
625.046	29700.15
625.24	30265.39
625.435	30521.39
625.629	30930.98
625.824	31389.73
626.018	32067.61
626.213	31748.12
626.407	32817.16
626.602	32737.29
626.796	33806.33
626.991	33853.44
627.185	34072.57
627.38	34400.24
627.574	34484.21
627.768	34465.78
627.963	34942.95
628.157	34652.14
628.352	35133.42
628.546	34676.72
628.74	35454.95
628.935	34826.22
629.129	35074.02
629.323	34998.25
629.517	34508.79
629.712	34686.96
629.906	34150.39
630.1	33835
630.294	34136.06
630.489	33437.7
630.683	33292.29
630.877	32567.31
631.071	31936.54
631.265	31821.85
631.459	31076.39
631.653	30023.73
631.848	29595.71
632.042	28989.51
632.236	28667.98
632.43	27471.96
632.624	27097.19
632.818	26232.94
633.012	25639.03
633.206	24862.85
633.4	24189.07
633.594	22788.26
633.788	22360.23
633.982	21751.99
634.176	20945.09
634.369	19908.82
634.563	19288.28
634.757	18622.69
634.951	18178.28
635.145	17633.52
635.339	16890.11
635.533	16130.31
635.726	15606.03
635.92	14543.14
636.114	14111.02
636.308	13625.65
636.501	13046.07
636.695	12814.65
636.889	11966.79
637.083	11653.45
637.276	10953.05
637.47	10547.55
637.664	10051.94
637.857	9892.2
638.051	9320.82
638.244	9017.72
638.438	8624.51
638.632	8417.66
638.825	7846.28
639.019	7680.39
639.212	7408.01
639.406	6961.56
639.599	6674.84
639.793	6476.19
639.986	6261.15
640.18	6218.15
640.373	5777.83
640.567	5601.71
640.76	5380.53
640.954	5216.69
641.147	4786.61
641.34	4823.48
641.534	4700.6
641.727	4512.19
641.92	4258.24
642.114	4098.5
642.307	4032.96
642.5	3869.12
642.694	3582.41
642.887	3437
643.08	3463.63
643.273	3279.31
643.467	3176.91
643.66	2812.37
643.853	2720.21
644.046	2695.64
644.239	2755.03
644.432	2587.1
644.626	2361.82
644.819	2333.15
645.012	2429.4
645.205	2154.98
645.398	2206.17
645.591	1974.75
645.784	1868.26
645.977	1806.82
646.17	1718.76
646.363	1802.72
646.556	1583.59
646.749	1565.16
646.942	1561.06
647.135	1526.25
647.328	1436.14
647.521	1374.7
647.714	1329.64
647.907	1292.78
648.099	1204.72
648.292	1311.21
648.485	1108.46
648.678	971.25
648.871	1075.7
649.064	1059.31
649.256	920.05
649.449	950.77
649.642	842.23
649.835	879.09
650.027	874.99
650.22	831.99
650.413	856.56
650.605	819.7
650.798	756.21
650.991	664.05
651.183	651.77
651.376	647.67
651.568	664.05
651.761	610.81
651.954	700.92
652.146	535.03
652.339	602.61
652.531	641.53
652.724	483.83
652.916	440.83
653.109	428.54
653.301	590.33
653.494	473.59
653.686	479.74
653.879	473.59
654.071	457.21
654.263	297.47
654.456	444.92
654.648	436.73
654.84	436.73
655.033	373.24
655.225	391.67
655.417	219.64
655.61	416.25
655.802	363
655.994	426.49
656.186	303.61
656.379	377.34
656.571	231.93
656.763	303.61
656.955	166.4
657.148	227.84
657.34	330.23
657.532	209.4
657.724	295.42
657.916	283.13
658.108	330.23
658.3	324.09
658.492	326.14
658.684	188.93
658.876	264.7
659.068	170.49
659.26	193.02
659.452	168.45
659.644	254.46
659.836	311.8
660.028	225.79
660.22	166.4
660.412	252.41
660.604	262.65
660.796	182.78
660.988	311.8
661.18	197.12
661.372	221.69
661.563	197.12
661.755	184.83
661.947	190.97
662.139	139.77
662.331	174.59
662.522	129.53
662.714	111.1
662.906	102.91
663.097	150.01
663.289	127.49
663.481	16.9
663.673	217.6
663.864	111.1
664.056	186.88
664.247	172.54
664.439	256.51
664.631	150.01
664.822	223.74
665.014	125.44
665.205	109.05
665.397	125.44
665.588	141.82
665.78	123.39
665.971	197.12
666.163	129.53
666.354	262.65
666.546	174.59
666.737	123.39
666.929	137.73
667.12	115.2
667.311	164.35
667.503	129.53
667.694	193.02
667.885	70.14
668.077	262.65
668.268	64
668.459	182.78
668.651	109.05
668.842	141.82
669.033	143.87
669.224	98.81
669.416	195.07
669.607	102.91
669.798	41.47
669.989	305.66
670.18	145.92
670.371	215.55
670.563	51.71
670.754	150.01
670.945	221.69
671.136	113.15
671.327	115.2
671.518	231.93
671.709	170.49
671.9	190.97
672.091	211.45
672.282	96.77
672.473	164.35
672.664	145.92
672.855	172.54
673.046	162.3
673.237	168.45
673.428	154.11
673.619	244.22
673.809	199.16
674	285.18
674.191	182.78
674.382	174.59
674.573	109.05
674.764	154.11
674.954	229.88
675.145	180.73
675.336	133.63
675.527	217.6
675.717	115.2
675.908	199.16
676.099	162.3
676.289	195.07
676.48	18.94
676.671	217.6
676.861	129.53
677.052	188.93
677.243	90.62
677.433	92.67
677.624	248.32
677.814	178.69
678.005	180.73
678.195	272.89
678.386	164.35
678.576	264.7
678.767	98.81
678.957	238.08
679.148	285.18
679.338	285.18
679.529	201.21
679.719	190.97
679.909	418.3
680.1	246.27
680.29	279.04
680.481	125.44
680.671	274.94
680.861	244.22
681.052	281.08
681.242	174.59
681.432	309.76
681.622	311.8
681.813	184.83
682.003	248.32
682.193	184.83
682.383	295.42
682.573	264.7
682.764	244.22
682.954	256.51
683.144	373.24
683.334	287.23
683.524	305.66
683.714	240.12
683.904	289.28
684.094	285.18
684.284	293.37
684.474	287.23
684.664	348.67
684.854	326.14
685.044	309.76
685.234	315.9
685.424	297.47
685.614	147.97
685.804	369.15
685.994	352.76
686.184	358.91
686.374	418.3
686.564	317.95
686.753	276.99
686.943	172.54
687.133	371.19
687.323	367.1
687.513	367.1
687.702	348.67
687.892	371.19
688.082	391.67
688.272	393.72
688.461	408.06
688.651	385.53
688.841	326.14
689.03	334.33
689.22	240.12
689.41	350.71
689.599	274.94
689.789	248.32
689.979	344.57
690.168	264.7
690.358	340.47
690.547	285.18
690.737	346.62
690.926	262.65
691.116	268.8
691.305	346.62
691.495	313.85
691.684	174.59
691.874	233.98
692.063	367.1
692.252	285.18
692.442	305.66
692.631	289.28
692.82	272.89
693.01	358.91
693.199	238.08
693.388	322.04
693.578	240.12
693.767	348.67
693.956	305.66
694.146	252.41
694.335	244.22
694.524	342.52
694.713	336.38
694.902	221.69
695.092	229.88
695.281	352.76
695.47	236.03
695.659	211.45
695.848	264.7
696.037	203.26
696.226	311.8
696.415	229.88
696.604	322.04
696.793	317.95
696.982	227.84
697.171	369.15
697.36	250.36
697.549	279.04
697.738	195.07
697.927	303.61
698.116	264.7
698.305	231.93
698.494	311.8
698.683	285.18
698.872	451.07
699.061	270.84
699.25	233.98
699.438	240.12
699.627	283.13
699.816	365.05
700.005	135.68
700.193	207.36
700.382	322.04
700.571	295.42
700.76	281.08
700.948	250.36
701.137	274.94
701.326	311.8
701.514	176.64
701.703	152.06
701.892	272.89
702.08	424.44
702.269	207.36
702.457	322.04
702.646	225.79
702.834	174.59
703.023	262.65
703.212	311.8
703.4	291.32
703.589	252.41
703.777	240.12
703.965	158.21
704.154	223.74
704.342	190.97
704.531	252.41
704.719	293.37
704.907	338.43
705.096	256.51
705.284	246.27
705.472	231.93
705.661	256.51
705.849	293.37
706.037	363
706.226	332.28
706.414	268.8
706.602	225.79
706.79	293.37
706.979	174.59
707.167	281.08
707.355	137.73
707.543	301.56
707.731	369.15
707.919	205.31
708.107	227.84
708.296	225.79
708.484	209.4
708.672	268.8
708.86	299.52
709.048	305.66
709.236	246.27
709.424	276.99
709.612	291.32
709.8	168.45
709.988	225.79
710.176	309.76
710.364	311.8
710.551	279.04
710.739	231.93
710.927	238.08
711.115	285.18
711.303	309.76
711.491	320
711.679	236.03
711.866	336.38
712.054	223.74
712.242	289.28
712.43	338.43
712.617	238.08
712.805	313.85
712.993	328.19
713.181	252.41
713.368	309.76
713.556	254.46
713.744	180.73
713.931	434.68
714.119	256.51
714.306	287.23
714.494	182.78
714.682	293.37
714.869	221.69
715.057	270.84
715.244	272.89
715.432	285.18
715.619	279.04
715.807	236.03
715.994	303.61
716.182	299.52
716.369	391.67
716.556	340.47
716.744	244.22
716.931	219.64
717.119	293.37
717.306	199.16
717.493	240.12
717.681	238.08
717.868	236.03
718.055	313.85
718.242	297.47
718.43	401.91
718.617	309.76
718.804	369.15
718.991	320
719.179	272.89
719.366	363
719.553	324.09
719.74	231.93
719.927	317.95
720.114	281.08
720.301	233.98
720.488	256.51
720.676	223.74
720.863	356.86
721.05	379.39
721.237	373.24
721.424	305.66
721.611	336.38
721.798	295.42
721.985	281.08
722.172	305.66
722.358	336.38
722.545	330.23
722.732	307.71
722.919	297.47
723.106	389.63
723.293	281.08
723.48	334.33
723.667	174.59
723.853	342.52
724.04	348.67
724.227	428.54
724.414	320
724.6	381.43
724.787	367.1
724.974	459.26
725.161	369.15
725.347	252.41
725.534	338.43
725.72	424.44
725.907	492.02
726.094	395.77
726.28	281.08
726.467	393.72
726.653	279.04
726.84	436.73
727.027	485.88
727.213	375.29
727.4	379.39
727.586	410.11
727.773	330.23
727.959	358.91
728.145	410.11
728.332	412.15
728.518	324.09
728.705	322.04
728.891	420.35
729.077	387.58
729.264	322.04
729.45	262.65
729.636	440.83
729.823	406.01
730.009	391.67
730.195	350.71
730.382	330.23
730.568	367.1
730.754	369.15
730.94	293.37
731.126	358.91
731.313	420.35
731.499	371.19
731.685	428.54
731.871	434.68
732.057	389.63
732.243	379.39
732.429	381.43
732.615	483.83
732.801	424.44
732.987	428.54
733.173	336.38
733.359	330.23
733.545	442.87
733.731	387.58
733.917	399.87
734.103	326.14
734.289	428.54
734.475	416.25
734.661	506.36
734.847	387.58
735.033	401.91
735.219	397.82
735.404	428.54
735.59	342.52
735.776	414.2
735.962	510.46
736.148	479.74
736.333	485.88
736.519	389.63
736.705	373.24
736.89	375.29
737.076	358.91
737.262	262.65
737.447	373.24
737.633	358.91
737.819	475.64
738.004	354.81
738.19	379.39
738.375	457.21
738.561	463.35
738.747	537.08
738.932	326.14
739.118	567.8
739.303	506.36
739.489	485.88
739.674	315.9
739.859	408.06
740.045	535.03
740.23	434.68
740.416	287.23
740.601	453.11
740.786	389.63
740.972	315.9
741.157	371.19
741.342	324.09
741.528	340.47
741.713	514.55
741.898	434.68
742.084	324.09
742.269	393.72
742.454	444.92
742.639	563.7
742.824	399.87
743.01	473.59
743.195	489.98
743.38	453.11
743.565	363
743.75	371.19
743.935	434.68
744.12	352.76
744.305	289.28
744.49	336.38
744.675	367.1
744.86	348.67
745.045	436.73
745.23	375.29
745.415	399.87
745.6	479.74
745.785	416.25
745.97	416.25
746.155	340.47
746.34	383.48
746.525	315.9
746.71	485.88
746.895	375.29
747.079	328.19
747.264	352.76
747.449	426.49
747.634	522.74
747.819	334.33
748.003	330.23
748.188	338.43
748.373	379.39
748.557	363
748.742	248.32
748.927	410.11
749.111	377.34
749.296	276.99
749.481	379.39
749.665	324.09
749.85	297.47
750.034	356.86
750.219	354.81
750.404	373.24
750.588	395.77
750.773	336.38
750.957	270.84
751.141	307.71
751.326	363
751.51	217.6
751.695	313.85
751.879	354.81
752.064	391.67
752.248	272.89
752.432	367.1
752.617	344.57
752.801	356.86
752.985	338.43
753.17	332.28
753.354	305.66
753.538	295.42
753.722	227.84
753.907	256.51
754.091	219.64
754.275	301.56
754.459	260.6
754.643	256.51
754.828	317.95
755.012	297.47
755.196	252.41
755.38	295.42
755.564	264.7
755.748	236.03
755.932	264.7
756.116	311.8
756.3	287.23
756.484	195.07
756.668	285.18
756.852	150.01
757.036	184.83
757.22	223.74
757.404	229.88
757.588	260.6
757.772	301.56
757.956	164.35
758.14	313.85
758.323	51.71
758.507	279.04
758.691	133.63
758.875	311.8
759.059	303.61
759.242	180.73
759.426	190.97
759.61	203.26
759.794	154.11
759.977	297.47
760.161	422.39
760.345	264.7
760.528	186.88
760.712	221.69
760.895	236.03
761.079	170.49
761.263	123.39
761.446	190.97
761.63	164.35
761.813	301.56
761.997	176.64
762.18	246.27
762.364	236.03
762.547	86.53
762.731	270.84
762.914	133.63
763.098	223.74
763.281	256.51
763.464	272.89
763.648	252.41
763.831	141.82
764.015	92.67
764.198	254.46
764.381	133.63
764.564	160.25
764.748	199.16
764.931	139.77
765.114	178.69
765.297	221.69
765.481	139.77
765.664	168.45
765.847	139.77
766.03	190.97
766.213	158.21
766.397	152.06
766.58	107.01
766.763	172.54
766.946	141.82
767.129	186.88
767.312	172.54
767.495	182.78
767.678	145.92
767.861	199.16
768.044	139.77
768.227	102.91
768.41	152.06
768.593	94.72
768.776	182.78
768.959	109.05
769.142	213.5
769.324	104.96
769.507	82.43
769.69	139.77
769.873	190.97
770.056	244.22
770.239	47.62
770.421	225.79
770.604	117.25
770.787	115.2
770.97	158.21
771.152	53.76
771.335	174.59
771.518	145.92
771.7	150.01
771.883	238.08
772.066	78.33
772.248	127.49
772.431	182.78
772.613	88.57
772.796	115.2
772.978	156.16
773.161	182.78
773.343	139.77
773.526	133.63
773.708	31.23
773.891	68.09
774.073	127.49
774.256	45.57
774.438	186.88
774.621	76.29
774.803	154.11
774.985	51.71
775.168	84.48
775.35	74.24
775.532	158.21
775.715	-7.68
775.897	80.38
776.079	-7.68
776.261	137.73
776.444	115.2
776.626	64
776.808	49.66
776.99	2.56
777.173	111.1
777.355	137.73
777.537	158.21
777.719	55.81
777.901	4.61
778.083	123.39
778.265	18.94
778.447	80.38
778.629	109.05
778.811	-5.63
778.993	137.73
779.175	162.3
779.357	166.4
779.539	-7.68
779.721	76.29
779.903	100.86
780.085	27.14
780.267	102.91
780.449	76.29
780.631	104.96
780.812	156.16
780.994	131.58
781.176	-19.97
781.358	33.28
781.54	39.42
781.721	145.92
781.903	104.96
782.085	2.56
782.267	141.82
782.448	-19.97
782.63	47.62
782.812	41.47
782.993	84.48
783.175	137.73
783.357	68.09
783.538	57.86
783.72	14.85
783.901	107.01
784.083	90.62
784.264	107.01
784.446	39.42
784.627	18.94
784.809	57.86
784.99	0.51
785.172	25.09
785.353	18.94
785.535	25.09
785.716	23.04
785.897	47.62
786.079	25.09
786.26	23.04
786.441	78.33
786.623	-79.36
786.804	66.05
786.985	35.33
787.167	139.77
787.348	27.14
787.529	-13.82
787.71	199.16
787.891	51.71
788.073	51.71
788.254	-7.68
788.435	123.39
788.616	100.86
788.797	0.51
788.978	-40.45
789.159	70.14
789.34	147.97
789.522	76.29
789.703	-50.69
789.884	27.14
790.065	102.91
790.246	90.62
790.427	45.57
790.607	84.48
790.788	70.14
790.969	12.8
791.15	57.86
791.331	-71.17
791.512	-7.68
791.693	64
791.874	-40.45
792.054	115.2
792.235	129.53
792.416	-36.35
792.597	39.42
792.778	2.56
792.958	43.52
793.139	80.38
793.32	-40.45
793.5	-42.5
793.681	174.59
793.862	154.11
794.042	51.71
794.223	-75.26
794.404	-83.45
794.584	-58.88
794.765	-32.26
794.945	-1.54
795.126	20.99
795.306	55.81
795.487	23.04
795.667	47.62
795.848	35.33
796.028	100.86
796.209	53.76
796.389	47.62
796.57	59.9
796.75	-73.21
796.93	51.71
797.111	27.14
797.291	-17.92
797.471	-13.82
797.652	18.94
797.832	-30.21
798.012	16.9
798.192	59.9
798.373	-11.78
798.553	-60.93
798.733	35.33
798.913	-15.87
799.093	-17.92
799.274	49.66
799.454	57.86
799.634	90.62
799.814	133.63
799.994	47.62
800.174	55.81
800.354	-28.16
800.534	-42.5
800.714	27.14
800.894	-44.54
801.074	-56.83
801.254	-77.31
801.434	55.81
801.614	-130.56
801.794	-71.17
801.974	1425.9
802.154	18.94
802.334	10.75
802.514	-67.07
802.693	29.18
802.873	49.66
803.053	98.81
803.233	8.7
803.413	-46.59
803.592	-13.82
803.772	-13.82
803.952	49.66
804.131	-67.07
804.311	133.63
804.491	39.42
804.67	6.66
804.85	-40.45
805.03	18.94
805.209	133.63
805.389	-32.26
805.568	-52.74
805.748	41.47
805.928	35.33
806.107	72.19
806.287	2.56
806.466	0.51
806.646	-15.87
806.825	-11.78
807.004	25.09
807.184	90.62
807.363	64
807.543	33.28
807.722	27.14
807.901	59.9
808.081	35.33
808.26	-132.61
808.439	29.18
808.619	-11.78
808.798	0.51
808.977	33.28
809.156	-3.58
809.336	39.42
809.515	76.29
809.694	-71.17
809.873	-83.45
810.052	133.63
810.231	88.57
810.411	-36.35
810.59	68.09
810.769	-54.78
810.948	61.95
811.127	-144.89
811.306	31.23
811.485	39.42
811.664	133.63
811.843	37.38
812.022	14.85
812.201	76.29
812.38	-3.58
812.559	-44.54
812.737	-13.82
812.916	-48.64
813.095	-1.54
813.274	80.38
813.453	-17.92
813.632	68.09
813.811	70.14
813.989	-1.54
814.168	68.09
814.347	-65.02
814.526	18.94
814.704	86.53
814.883	61.95
815.062	-28.16
815.24	29.18
815.419	-46.59
815.598	35.33
815.776	-38.4
815.955	-30.21
816.133	-126.46
816.312	23.04
816.49	-87.55
816.669	-15.87
816.847	-42.5
817.026	31.23
817.204	-32.26
817.383	29.18
817.561	-120.32
817.74	74.24
817.918	-81.41
818.097	-15.87
818.275	-46.59
818.453	31.23
818.632	-32.26
818.81	10.75
818.988	-7.68
819.167	23.04
819.345	43.52
819.523	-81.41
819.701	115.2
819.879	-9.73
820.058	20.99
820.236	25.09
820.414	55.81
820.592	2.56
820.77	-38.4
820.948	-56.83
821.127	16.9
821.305	33.28
821.483	-103.93
821.661	70.14
821.839	-15.87
822.017	39.42
822.195	8.7
822.373	-32.26
822.551	10.75
822.729	2.56
822.907	-34.3
823.085	-15.87
823.262	47.62
823.44	-83.45
823.618	-97.79
823.796	55.81
823.974	-32.26
824.152	-22.02
824.329	43.52
824.507	-32.26
824.685	6.66
824.863	27.14
825.04	-7.68
825.218	-9.73
825.396	-56.83
825.574	6.66
825.751	84.48
825.929	94.72
826.107	-56.83
826.284	18.94
826.462	-58.88
826.639	-89.6
826.817	-36.35
826.994	16.9
827.172	-9.73
827.349	195.07
827.527	57.86
827.704	-26.11
827.882	27.14
828.059	-56.83
828.237	25.09
828.414	107.01
828.591	-75.26
828.769	35.33
828.946	-95.74
829.124	66.05
829.301	25.09
829.478	4.61
829.655	51.71
829.833	-13.82
830.01	-1.54
830.187	37.38
830.364	-13.82
830.542	6.66
830.719	131.58
830.896	16.9
831.073	-38.4
831.25	-67.07
831.427	78.33
831.604	27.14
831.782	-89.6
831.959	4.61
832.136	-46.59
832.313	18.94
832.49	-38.4
832.667	64
832.844	-56.83
833.021	74.24
833.198	25.09
833.374	57.86
833.551	-1.54
833.728	-9.73
833.905	43.52
834.082	-120.32
834.259	10.75
834.436	16.9
834.612	-124.41
834.789	27.14
834.966	-22.02
835.143	70.14
835.319	-28.16
835.496	0.51
835.673	35.33
835.85	23.04
836.026	23.04
836.203	-32.26
836.38	-34.3
836.556	-87.55
836.733	-38.4
836.909	25.09
837.086	-15.87
837.262	-112.13
837.439	-19.97
837.616	-120.32
837.792	-38.4
837.968	-52.74
838.145	-91.65
838.321	76.29
838.498	-22.02
838.674	35.33
838.851	82.43
839.027	-5.63
839.203	61.95
839.38	-5.63
839.556	41.47
839.732	-5.63
839.909	-30.21
840.085	66.05
840.261	-71.17
840.437	-81.41
840.614	-54.78
840.79	20.99
840.966	-7.68
841.142	39.42
841.318	-71.17
841.494	-1.54
841.671	39.42
841.847	-95.74
842.023	-83.45
842.199	-13.82
842.375	23.04
842.551	-30.21
842.727	-44.54
842.903	45.57
843.079	-83.45
843.255	123.39
843.431	-30.21
843.607	-1.54
843.783	-118.27
843.959	-17.92
844.134	43.52
844.31	88.57
844.486	-69.12
844.662	37.38
844.838	-13.82
845.013	88.57
845.189	14.85
845.365	-9.73
845.541	4.61
845.716	31.23
845.892	27.14
846.068	-24.06
846.244	-42.5
846.419	47.62
846.595	-54.78
846.77	-71.17
846.946	-30.21
847.122	-58.88
847.297	-56.83
847.473	154.11
847.648	-116.22
847.824	-19.97
847.999	-112.13
848.175	27.14
848.35	6.66
848.526	70.14
848.701	41.47
848.876	35.33
849.052	43.52
849.227	-28.16
849.403	-32.26
849.578	-11.78
849.753	59.9
849.929	-13.82
850.104	-87.55
850.279	-28.16
850.454	10.75
850.63	-19.97
850.805	-32.26
850.98	10.75
851.155	27.14
851.33	20.99
851.505	-91.65
851.681	-9.73
851.856	18.94
852.031	25.09
852.206	2.56
852.381	-136.7
852.556	-36.35
852.731	49.66
852.906	109.05
853.081	0.51
853.256	66.05
853.431	-50.69
853.606	-75.26
853.781	-15.87
853.956	-110.08
854.131	45.57
854.305	-30.21
854.48	-38.4
854.655	-40.45
854.83	-65.02
855.005	-46.59
855.18	-38.4
855.354	-1.54
855.529	41.47
855.704	-17.92
855.879	33.28
856.053	-99.84
856.228	27.14
856.403	-77.31
856.577	-36.35
856.752	-171.52
856.926	-38.4
857.101	-28.16
857.276	-103.93
857.45	27.14
857.625	92.67
857.799	25.09
857.974	-28.16
858.148	-42.5
858.323	14.85
858.497	-28.16
858.672	-52.74
858.846	2.56
859.02	43.52
859.195	6.66
859.369	-36.35
859.543	-22.02
859.718	76.29
859.892	-5.63
860.066	-13.82
860.241	23.04
860.415	-7.68
860.589	-50.69
860.763	-24.06
860.938	-67.07
861.112	43.52
861.286	-38.4
861.46	-9.73
861.634	-114.17
861.808	59.9
861.982	-48.64
862.157	-34.3
862.331	-67.07
862.505	-108.03
862.679	-73.21
862.853	23.04
863.027	2.56
863.201	74.24
863.375	-1.54
863.549	2.56
863.722	35.33
863.896	23.04
864.07	-1.54
864.244	-50.69
864.418	33.28
864.592	-24.06
864.766	-48.64
864.939	-30.21
865.113	-91.65
865.287	64
865.461	-148.99
865.634	53.76
865.808	-128.51
865.982	-67.07
866.156	-77.31
866.329	-24.06
866.503	-44.54
866.676	66.05
866.85	-54.78
867.024	-22.02
867.197	92.67
867.371	49.66
867.544	31.23
867.718	-153.09
867.891	2.56
868.065	-97.79
868.238	-42.5
868.412	47.62
868.585	-56.83
868.759	-93.69
868.932	-19.97
869.105	-62.98
869.279	-58.88
869.452	-73.21
869.625	45.57
869.799	-71.17
869.972	-26.11
870.145	43.52
870.319	64
870.492	-24.06
870.665	-30.21
870.838	33.28
871.011	-177.66
871.185	16.9
871.358	-9.73
871.531	51.71
871.704	-73.21
871.877	-48.64
872.05	-48.64
872.223	-67.07
872.396	29.18
872.569	-17.92
872.742	-89.6
872.915	0.51
873.088	-1.54
873.261	-50.69
873.434	53.76
873.607	-17.92
873.78	35.33
873.953	-81.41
874.126	2.56
874.299	-22.02
874.471	-65.02
874.644	4.61
874.817	16.9
874.99	74.24
875.163	-38.4
875.335	12.8
875.508	-83.45
875.681	49.66
875.853	-28.16
876.026	16.9
876.199	-5.63
876.371	-34.3
876.544	18.94
876.717	2.56
876.889	-24.06
877.062	31.23
877.234	-153.09
877.407	-71.17
877.579	-38.4
877.752	14.85
877.924	-24.06
878.097	-7.68
878.269	90.62
878.442	64
878.614	47.62
878.786	-62.98
878.959	-30.21
879.131	8.7
879.303	-79.36
879.476	-1.54
879.648	37.38
879.82	-30.21
879.993	-71.17
880.165	-36.35
880.337	-83.45
880.509	-73.21
880.681	-108.03
880.854	-32.26
881.026	33.28
881.198	129.53
881.37	-32.26
881.542	84.48
881.714	-17.92
881.886	-11.78
882.058	8.7
882.23	-56.83
882.402	-30.21
882.574	-75.26
882.746	55.81
882.918	68.09
883.09	6.66
883.262	-46.59
883.434	-36.35
883.606	-112.13
883.778	57.86
883.95	121.34
884.122	-11.78
884.293	29.18
884.465	-56.83
884.637	84.48
884.809	0.51
884.98	-40.45
885.152	-22.02
885.324	-62.98
885.496	-46.59
885.667	-89.6
885.839	-13.82
886.011	109.05
886.182	-15.87
886.354	4.61
886.525	8.7
886.697	-71.17
886.869	-79.36
887.04	-9.73
887.212	66.05
887.383	66.05
887.555	39.42
887.726	-15.87
887.897	-38.4
888.069	-54.78
888.24	-3.58
888.412	-1.54
888.583	49.66
888.754	-34.3
888.926	-97.79
889.097	23.04
889.268	-71.17
889.44	-22.02
889.611	-140.8
889.782	-108.03
889.953	-97.79
890.125	6.66
890.296	-110.08
890.467	-36.35
890.638	-38.4
890.809	-101.89
890.98	-71.17
891.151	31.23
891.323	70.14
891.494	100.86
891.665	-36.35
891.836	-58.88
892.007	43.52
892.178	-13.82
892.349	-3.58
892.52	-69.12
892.691	-83.45
892.862	-97.79
893.032	-50.69
893.203	-34.3
893.374	14.85
893.545	59.9
893.716	-112.13
893.887	59.9
894.057	-114.17
894.228	-17.92
894.399	-15.87
894.57	86.53
894.74	-15.87
894.911	16.9
895.082	-22.02
895.253	-116.22
895.423	-50.69
895.594	10.75
895.764	10.75
895.935	-124.41
896.106	18.94
896.276	-38.4
896.447	33.28
896.617	25.09
896.788	-50.69
896.958	-32.26
897.129	-13.82
897.299	-73.21
897.47	104.96
897.64	102.91
897.81	-54.78
897.981	-22.02
898.151	-54.78
898.322	-26.11
898.492	18.94
898.662	-38.4
898.832	-112.13
899.003	-71.17
899.173	35.33
899.343	-103.93
899.513	-81.41
