Data from USB4F104151__51__11-26-51-691.txt Node

Date: Wed Feb 26 11:26:51 EST 2025
User: louis
Spectrometer: USB4F10415
Trigger mode: 4
Integration Time (sec): 1.000000E-1
Scans to average: 1
Electric dark correction enabled: true
Nonlinearity correction enabled: false
Boxcar width: 0
XAxis mode: Wavelengths
Number of Pixels in Spectrum: 3648
>>>>>Begin Spectral Data<<<<<
178.204	-395.6
178.424	-395.6
178.644	-395.6
178.864	-438.61
179.084	-467.28
179.304	38.57
179.524	-18.77
179.744	-14.68
179.964	36.52
180.184	-29.01
180.404	48.81
180.624	-0.34
180.844	26.28
181.064	-16.73
181.283	20.14
181.503	-74.07
181.723	-16.73
181.943	-86.36
182.163	196.26
182.383	-47.44
182.602	110.25
182.822	159.4
183.042	57
183.262	42.67
183.482	61.1
183.701	42.67
183.921	44.71
184.141	-84.31
184.361	67.24
184.58	83.63
184.8	97.96
185.02	-41.3
185.239	67.24
185.459	22.19
185.679	67.24
185.898	-65.88
186.118	5.8
186.338	44.71
186.557	44.71
186.777	-29.01
186.997	-39.25
187.216	5.8
187.436	175.78
187.655	9.9
187.875	77.48
188.095	16.04
188.314	73.39
188.534	75.43
188.753	-92.5
188.973	106.15
189.192	116.39
189.412	50.86
189.631	-39.25
189.851	18.09
190.07	95.91
190.29	5.8
190.509	-20.82
190.729	5.8
190.948	181.93
191.168	177.83
191.387	42.67
191.607	11.95
191.826	83.63
192.045	5.8
192.265	-4.44
192.484	73.39
192.704	116.39
192.923	-76.12
193.142	192.17
193.362	126.63
193.581	79.53
193.8	40.62
194.02	85.67
194.239	13.99
194.458	65.19
194.678	-26.96
194.897	54.95
195.116	87.72
195.335	79.53
195.555	-14.68
195.774	11.95
195.993	81.58
196.212	118.44
196.432	26.28
196.651	-26.96
196.87	81.58
197.089	237.22
197.308	13.99
197.528	30.38
197.747	-12.63
197.966	36.52
198.185	106.15
198.404	-24.92
198.623	108.2
198.842	102.06
199.062	28.33
199.281	-22.87
199.5	71.34
199.719	87.72
199.938	54.95
200.157	46.76
200.376	134.82
200.595	161.45
200.814	69.29
201.033	20.14
201.252	128.68
201.471	93.87
201.69	93.87
201.909	50.86
202.128	147.11
202.347	20.14
202.566	87.72
202.785	-80.21
203.004	-22.87
203.223	210.6
203.442	52.91
203.661	-45.4
203.879	63.15
204.098	149.16
204.317	-24.92
204.536	77.48
204.755	104.11
204.974	79.53
205.193	-2.39
205.411	216.74
205.63	118.44
205.849	89.77
206.068	-24.92
206.287	-20.82
206.505	114.34
206.724	57
206.943	-10.58
207.162	-2.39
207.381	-0.34
207.599	69.29
207.818	124.58
208.037	-119.12
208.255	48.81
208.474	79.53
208.693	44.71
208.911	18.09
209.13	143.02
209.349	91.82
209.567	50.86
209.786	28.33
210.005	132.78
210.223	-0.34
210.442	-100.69
210.661	3.75
210.879	79.53
211.098	59.05
211.316	-14.68
211.535	40.62
211.753	50.86
211.972	69.29
212.191	48.81
212.409	38.57
212.628	124.58
212.846	-49.49
213.065	-35.16
213.283	110.25
213.502	18.09
213.72	83.63
213.938	81.58
214.157	-57.68
214.375	106.15
214.594	-0.34
214.812	11.95
215.031	-22.87
215.249	-4.44
215.467	38.57
215.686	26.28
215.904	52.91
216.122	36.52
216.341	102.06
216.559	38.57
216.778	40.62
216.996	89.77
217.214	16.04
217.432	22.19
217.651	1.71
217.869	32.43
218.087	48.81
218.306	22.19
218.524	48.81
218.742	13.99
218.96	26.28
219.179	7.85
219.397	-2.39
219.615	196.26
219.833	-8.53
220.051	-24.92
220.27	75.43
220.488	97.96
220.706	77.48
220.924	22.19
221.142	34.47
221.36	67.24
221.578	1.71
221.796	63.15
222.015	108.2
222.233	71.34
222.451	130.73
222.669	20.14
222.887	67.24
223.105	-6.49
223.323	16.04
223.541	-49.49
223.759	102.06
223.977	52.91
224.195	95.91
224.413	87.72
224.631	54.95
224.849	7.85
225.067	175.78
225.285	40.62
225.503	-51.54
225.721	-155.99
225.939	44.71
226.157	-12.63
226.375	286.37
226.592	11.95
226.81	-31.06
227.028	108.2
227.246	69.29
227.464	38.57
227.682	126.63
227.9	57
228.117	50.86
228.335	69.29
228.553	95.91
228.771	9.9
228.989	-24.92
229.206	59.05
229.424	11.95
229.642	-51.54
229.86	9.9
230.077	134.82
230.295	26.28
230.513	36.52
230.731	30.38
230.948	171.69
231.166	190.12
231.384	-51.54
231.601	-90.45
231.819	138.92
232.037	-39.25
232.254	-8.53
232.472	22.19
232.689	-35.16
232.907	161.45
233.125	-43.35
233.342	3.75
233.56	-29.01
233.777	-22.87
233.995	20.14
234.213	102.06
234.43	20.14
234.648	36.52
234.865	48.81
235.083	63.15
235.3	24.23
235.518	42.67
235.735	97.96
235.953	65.19
236.17	30.38
236.388	-12.63
236.605	69.29
236.822	5.8
237.04	118.44
237.257	-18.77
237.475	-8.53
237.692	77.48
237.909	65.19
238.127	-47.44
238.344	130.73
238.562	52.91
238.779	-67.92
238.996	16.04
239.214	18.09
239.431	67.24
239.648	-14.68
239.865	52.91
240.083	81.58
240.3	-35.16
240.517	-4.44
240.735	61.1
240.952	95.91
241.169	65.19
241.386	114.34
241.603	79.53
241.821	-61.78
242.038	46.76
242.255	104.11
242.472	-18.77
242.689	26.28
242.907	75.43
243.124	155.3
243.341	52.91
243.558	16.04
243.775	-65.88
243.992	-86.36
244.209	69.29
244.426	147.11
244.643	67.24
244.86	-41.3
245.078	140.97
245.295	26.28
245.512	-14.68
245.729	20.14
245.946	61.1
246.163	38.57
246.38	24.23
246.597	110.25
246.814	11.95
247.031	42.67
247.248	22.19
247.464	65.19
247.681	26.28
247.898	104.11
248.115	87.72
248.332	-16.73
248.549	122.54
248.766	161.45
248.983	67.24
249.2	57
249.417	136.87
249.633	16.04
249.85	136.87
250.067	20.14
250.284	112.3
250.501	40.62
250.717	-4.44
250.934	-10.58
251.151	20.14
251.368	46.76
251.585	13.99
251.801	24.23
252.018	18.09
252.235	188.07
252.451	-14.68
252.668	-18.77
252.885	151.21
253.102	59.05
253.318	7.85
253.535	-57.68
253.752	-35.16
253.968	24.23
254.185	-63.83
254.401	128.68
254.618	102.06
254.835	-12.63
255.051	42.67
255.268	57
255.484	95.91
255.701	71.34
255.917	48.81
256.134	-24.92
256.351	11.95
256.567	-26.96
256.784	11.95
257	-29.01
257.217	67.24
257.433	79.53
257.65	-10.58
257.866	67.24
258.082	-22.87
258.299	-14.68
258.515	34.47
258.732	-49.49
258.948	-10.58
259.165	73.39
259.381	-20.82
259.597	85.67
259.814	65.19
260.03	11.95
260.246	-31.06
260.463	130.73
260.679	102.06
260.895	30.38
261.112	34.47
261.328	54.95
261.544	-16.73
261.761	159.4
261.977	-35.16
262.193	-22.87
262.409	108.2
262.626	67.24
262.842	75.43
263.058	-33.11
263.274	34.47
263.49	48.81
263.707	114.34
263.923	138.92
264.139	-184.66
264.355	63.15
264.571	106.15
264.787	46.76
265.004	97.96
265.22	24.23
265.436	48.81
265.652	57
265.868	28.33
266.084	-61.78
266.3	57
266.516	-72.02
266.732	85.67
266.948	18.09
267.164	-35.16
267.38	208.55
267.596	93.87
267.812	171.69
268.028	-41.3
268.244	-59.73
268.46	24.23
268.676	18.09
268.892	67.24
269.108	-41.3
269.324	-20.82
269.54	-72.02
269.756	57
269.972	-47.44
270.188	13.99
270.403	-49.49
270.619	38.57
270.835	77.48
271.051	26.28
271.267	-39.25
271.483	-6.49
271.698	44.71
271.914	93.87
272.13	16.04
272.346	9.9
272.562	16.04
272.777	18.09
272.993	-14.68
273.209	54.95
273.425	54.95
273.64	-41.3
273.856	120.49
274.072	18.09
274.287	-14.68
274.503	106.15
274.719	106.15
274.934	50.86
275.15	-80.21
275.366	81.58
275.581	-61.78
275.797	59.05
276.012	9.9
276.228	-4.44
276.444	13.99
276.659	132.78
276.875	-31.06
277.09	65.19
277.306	-41.3
277.521	24.23
277.737	38.57
277.952	59.05
278.168	44.71
278.383	-41.3
278.599	126.63
278.814	132.78
279.03	-6.49
279.245	155.3
279.461	26.28
279.676	61.1
279.892	-59.73
280.107	-69.97
280.322	18.09
280.538	100.01
280.753	-14.68
280.969	57
281.184	24.23
281.399	196.26
281.615	81.58
281.83	95.91
282.045	-45.4
282.26	-121.17
282.476	30.38
282.691	11.95
282.906	50.86
283.122	-43.35
283.337	-0.34
283.552	97.96
283.767	5.8
283.983	81.58
284.198	-57.68
284.413	-14.68
284.628	-29.01
284.843	38.57
285.058	95.91
285.274	18.09
285.489	-12.63
285.704	59.05
285.919	-74.07
286.134	28.33
286.349	36.52
286.564	-2.39
286.779	124.58
286.995	-18.77
287.21	-41.3
287.425	42.67
287.64	-10.58
287.855	52.91
288.07	-127.32
288.285	138.92
288.5	57
288.715	9.9
288.93	40.62
289.145	-14.68
289.36	67.24
289.575	5.8
289.79	196.26
290.004	73.39
290.219	40.62
290.434	-55.64
290.649	-8.53
290.864	-26.96
291.079	20.14
291.294	20.14
291.509	13.99
291.724	54.95
291.938	22.19
292.153	83.63
292.368	-8.53
292.583	83.63
292.798	69.29
293.012	44.71
293.227	93.87
293.442	-6.49
293.657	87.72
293.871	151.21
294.086	-10.58
294.301	89.77
294.516	61.1
294.73	48.81
294.945	-72.02
295.16	71.34
295.374	147.11
295.589	161.45
295.804	-10.58
296.018	-26.96
296.233	57
296.447	50.86
296.662	-41.3
296.877	114.34
297.091	85.67
297.306	20.14
297.52	-57.68
297.735	46.76
297.949	54.95
298.164	30.38
298.378	22.19
298.593	-35.16
298.807	-55.64
299.022	81.58
299.236	69.29
299.451	-0.34
299.665	-37.2
299.88	-47.44
300.094	28.33
300.309	52.91
300.523	42.67
300.737	-20.82
300.952	85.67
301.166	102.06
301.381	-131.41
301.595	-57.68
301.809	3.75
302.024	-29.01
302.238	-12.63
302.452	108.2
302.667	73.39
302.881	81.58
303.095	69.29
303.309	-29.01
303.524	-72.02
303.738	34.47
303.952	-24.92
304.166	65.19
304.381	-145.75
304.595	114.34
304.809	30.38
305.023	16.04
305.237	-33.11
305.452	54.95
305.666	-41.3
305.88	61.1
306.094	16.04
306.308	28.33
306.522	38.57
306.736	24.23
306.95	108.2
307.164	-6.49
307.379	20.14
307.593	110.25
307.807	85.67
308.021	100.01
308.235	50.86
308.449	-108.88
308.663	-63.83
308.877	229.03
309.091	71.34
309.305	69.29
309.519	-121.17
309.733	118.44
309.947	-86.36
310.161	112.3
310.374	149.16
310.588	118.44
310.802	-133.46
311.016	11.95
311.23	38.57
311.444	-61.78
311.658	20.14
311.872	147.11
312.085	95.91
312.299	181.93
312.513	91.82
312.727	-0.34
312.941	-59.73
313.154	-14.68
313.368	42.67
313.582	65.19
313.796	79.53
314.009	67.24
314.223	157.35
314.437	85.67
314.651	3.75
314.864	-10.58
315.078	-26.96
315.292	-94.55
315.505	38.57
315.719	50.86
315.933	63.15
316.146	-6.49
316.36	-31.06
316.573	108.2
316.787	1.71
317.001	16.04
317.214	-51.54
317.428	40.62
317.641	-22.87
317.855	1.71
318.068	50.86
318.282	95.91
318.495	218.79
318.709	126.63
318.922	18.09
319.136	192.17
319.349	83.63
319.563	-72.02
319.776	79.53
319.99	-29.01
320.203	52.91
320.417	36.52
320.63	73.39
320.843	192.17
321.057	34.47
321.27	-14.68
321.483	93.87
321.697	128.68
321.91	63.15
322.124	24.23
322.337	102.06
322.55	-43.35
322.763	112.3
322.977	-33.11
323.19	-31.06
323.403	42.67
323.617	65.19
323.83	65.19
324.043	-16.73
324.256	130.73
324.469	-47.44
324.683	65.19
324.896	-45.4
325.109	13.99
325.322	-90.45
325.535	116.39
325.748	81.58
325.962	30.38
326.175	120.49
326.388	9.9
326.601	124.58
326.814	-43.35
327.027	102.06
327.24	136.87
327.453	-53.59
327.666	75.43
327.879	102.06
328.092	83.63
328.305	83.63
328.518	16.04
328.731	-53.59
328.944	30.38
329.157	95.91
329.37	-45.4
329.583	161.45
329.796	130.73
330.009	-26.96
330.222	69.29
330.435	85.67
330.648	157.35
330.861	65.19
331.073	40.62
331.286	46.76
331.499	48.81
331.712	-8.53
331.925	7.85
332.138	9.9
332.35	140.97
332.563	13.99
332.776	102.06
332.989	-8.53
333.202	-12.63
333.414	36.52
333.627	-14.68
333.84	91.82
334.053	26.28
334.265	-2.39
334.478	-63.83
334.691	-18.77
334.903	-22.87
335.116	-16.73
335.329	34.47
335.541	28.33
335.754	161.45
335.966	54.95
336.179	3.75
336.392	16.04
336.604	89.77
336.817	108.2
337.029	32.43
337.242	-47.44
337.454	169.64
337.667	46.76
337.88	93.87
338.092	63.15
338.305	89.77
338.517	-35.16
338.729	18.09
338.942	147.11
339.154	-61.78
339.367	-12.63
339.579	18.09
339.792	24.23
340.004	34.47
340.217	16.04
340.429	26.28
340.641	11.95
340.854	-76.12
341.066	63.15
341.278	132.78
341.491	122.54
341.703	18.09
341.915	34.47
342.128	81.58
342.34	-29.01
342.552	-37.2
342.764	77.48
342.977	-57.68
343.189	57
343.401	-20.82
343.613	-37.2
343.826	-22.87
344.038	-61.78
344.25	30.38
344.462	-31.06
344.674	61.1
344.886	-41.3
345.099	-6.49
345.311	63.15
345.523	13.99
345.735	-98.64
345.947	97.96
346.159	32.43
346.371	26.28
346.583	-12.63
346.795	128.68
347.007	-45.4
347.219	147.11
347.431	-47.44
347.643	190.12
347.855	5.8
348.067	198.31
348.279	36.52
348.491	59.05
348.703	59.05
348.915	48.81
349.127	-35.16
349.339	-2.39
349.551	-63.83
349.763	128.68
349.975	48.81
350.187	69.29
350.399	192.17
350.61	57
350.822	-14.68
351.034	20.14
351.246	100.01
351.458	110.25
351.669	32.43
351.881	104.11
352.093	161.45
352.305	97.96
352.517	30.38
352.728	143.02
352.94	18.09
353.152	32.43
353.363	-6.49
353.575	63.15
353.787	198.31
353.999	100.01
354.21	112.3
354.422	-53.59
354.633	-88.4
354.845	32.43
355.057	52.91
355.268	106.15
355.48	36.52
355.692	-43.35
355.903	-18.77
356.115	-2.39
356.326	-98.64
356.538	171.69
356.749	87.72
356.961	93.87
357.172	22.19
357.384	-63.83
357.595	186.02
357.807	63.15
358.018	-45.4
358.23	-12.63
358.441	91.82
358.653	110.25
358.864	18.09
359.075	-51.54
359.287	75.43
359.498	132.78
359.709	65.19
359.921	-10.58
360.132	122.54
360.344	-20.82
360.555	-47.44
360.766	20.14
360.977	54.95
361.189	138.92
361.4	-29.01
361.611	130.73
361.823	81.58
362.034	83.63
362.245	-96.6
362.456	40.62
362.667	95.91
362.879	22.19
363.09	50.86
363.301	36.52
363.512	24.23
363.723	-37.2
363.935	-47.44
364.146	87.72
364.357	63.15
364.568	46.76
364.779	-51.54
364.99	155.3
365.201	1.71
365.412	79.53
365.623	-102.74
365.834	42.67
366.045	26.28
366.256	30.38
366.467	48.81
366.678	-33.11
366.889	-2.39
367.1	-22.87
367.311	69.29
367.522	11.95
367.733	54.95
367.944	24.23
368.155	3.75
368.366	77.48
368.577	61.1
368.788	85.67
368.999	-53.59
369.209	57
369.42	233.13
369.631	157.35
369.842	54.95
370.053	1.71
370.264	100.01
370.474	-24.92
370.685	36.52
370.896	-51.54
371.107	36.52
371.317	75.43
371.528	30.38
371.739	120.49
371.95	81.58
372.16	48.81
372.371	-102.74
372.582	-16.73
372.792	110.25
373.003	69.29
373.214	46.76
373.424	73.39
373.635	-33.11
373.846	97.96
374.056	7.85
374.267	-20.82
374.477	13.99
374.688	-106.84
374.898	-24.92
375.109	89.77
375.319	40.62
375.53	73.39
375.74	120.49
375.951	-31.06
376.161	13.99
376.372	104.11
376.582	26.28
376.793	71.34
377.003	-18.77
377.214	-76.12
377.424	36.52
377.635	20.14
377.845	-12.63
378.055	93.87
378.266	-92.5
378.476	28.33
378.686	91.82
378.897	28.33
379.107	20.14
379.317	52.91
379.528	20.14
379.738	67.24
379.948	-45.4
380.158	138.92
380.369	-45.4
380.579	114.34
380.789	-14.68
380.999	65.19
381.21	140.97
381.42	222.89
381.63	-49.49
381.84	93.87
382.05	46.76
382.261	122.54
382.471	145.06
382.681	-94.55
382.891	165.54
383.101	3.75
383.311	-47.44
383.521	26.28
383.731	83.63
383.941	145.06
384.151	-6.49
384.361	36.52
384.571	93.87
384.781	36.52
384.991	177.83
385.201	87.72
385.411	128.68
385.621	40.62
385.831	5.8
386.041	1.71
386.251	81.58
386.461	79.53
386.671	24.23
386.881	59.05
387.091	30.38
387.301	100.01
387.511	-33.11
387.72	40.62
387.93	118.44
388.14	-16.73
388.35	42.67
388.56	145.06
388.769	85.67
388.979	52.91
389.189	7.85
389.399	-4.44
389.609	91.82
389.818	40.62
390.028	13.99
390.238	38.57
390.447	16.04
390.657	108.2
390.867	3.75
391.076	-88.4
391.286	11.95
391.496	-61.78
391.705	-0.34
391.915	79.53
392.125	97.96
392.334	1.71
392.544	138.92
392.753	77.48
392.963	-14.68
393.172	38.57
393.382	-8.53
393.591	157.35
393.801	-6.49
394.01	145.06
394.22	75.43
394.429	75.43
394.639	26.28
394.848	44.71
395.058	5.8
395.267	-110.93
395.477	97.96
395.686	61.1
395.895	147.11
396.105	233.13
396.314	13.99
396.524	40.62
396.733	40.62
396.942	198.31
397.152	87.72
397.361	145.06
397.57	48.81
397.78	44.71
397.989	-2.39
398.198	229.03
398.407	7.85
398.617	95.91
398.826	-24.92
399.035	40.62
399.244	124.58
399.453	65.19
399.663	-14.68
399.872	83.63
400.081	-61.78
400.29	110.25
400.499	-55.64
400.708	24.23
400.917	3.75
401.127	-8.53
401.336	22.19
401.545	216.74
401.754	77.48
401.963	59.05
402.172	-53.59
402.381	-45.4
402.59	48.81
402.799	54.95
403.008	120.49
403.217	79.53
403.426	38.57
403.635	-22.87
403.844	36.52
404.053	-22.87
404.262	-26.96
404.471	132.78
404.68	50.86
404.888	36.52
405.097	38.57
405.306	-6.49
405.515	97.96
405.724	13.99
405.933	130.73
406.142	71.34
406.35	124.58
406.559	54.95
406.768	-12.63
406.977	161.45
407.185	50.86
407.394	7.85
407.603	-106.84
407.812	-10.58
408.02	59.05
408.229	36.52
408.438	136.87
408.646	-16.73
408.855	42.67
409.064	16.04
409.272	22.19
409.481	73.39
409.69	1.71
409.898	-22.87
410.107	140.97
410.315	130.73
410.524	-14.68
410.733	87.72
410.941	34.47
411.15	69.29
411.358	36.52
411.567	100.01
411.775	9.9
411.984	44.71
412.192	122.54
412.401	9.9
412.609	151.21
412.818	132.78
413.026	136.87
413.234	-18.77
413.443	36.52
413.651	91.82
413.86	-37.2
414.068	67.24
414.276	108.2
414.485	20.14
414.693	200.36
414.901	145.06
415.11	85.67
415.318	28.33
415.526	57
415.734	75.43
415.943	32.43
416.151	83.63
416.359	36.52
416.567	69.29
416.776	169.64
416.984	59.05
417.192	69.29
417.4	69.29
417.608	-51.54
417.817	-63.83
418.025	20.14
418.233	140.97
418.441	-43.35
418.649	-6.49
418.857	13.99
419.065	192.17
419.273	26.28
419.481	77.48
419.689	32.43
419.897	7.85
420.105	-47.44
420.313	143.02
420.521	134.82
420.729	183.98
420.937	11.95
421.145	-45.4
421.353	126.63
421.561	155.3
421.769	134.82
421.977	-6.49
422.185	85.67
422.393	-14.68
422.601	59.05
422.809	126.63
423.017	32.43
423.224	106.15
423.432	110.25
423.64	24.23
423.848	118.44
424.056	44.71
424.263	120.49
424.471	36.52
424.679	122.54
424.887	-18.77
425.094	143.02
425.302	67.24
425.51	11.95
425.718	102.06
425.925	79.53
426.133	7.85
426.341	263.85
426.548	-47.44
426.756	44.71
426.964	87.72
427.171	-14.68
427.379	87.72
427.586	89.77
427.794	104.11
428.001	130.73
428.209	44.71
428.417	171.69
428.624	93.87
428.832	44.71
429.039	61.1
429.247	102.06
429.454	71.34
429.662	145.06
429.869	122.54
430.076	97.96
430.284	97.96
430.491	186.02
430.699	165.54
430.906	179.88
431.114	65.19
431.321	50.86
431.528	54.95
431.736	97.96
431.943	100.01
432.15	85.67
432.358	114.34
432.565	161.45
432.772	-20.82
432.979	93.87
433.187	40.62
433.394	124.58
433.601	132.78
433.808	204.46
434.016	200.36
434.223	44.71
434.43	106.15
434.637	190.12
434.844	147.11
435.052	102.06
435.259	239.27
435.466	222.89
435.673	136.87
435.88	220.84
436.087	231.08
436.294	325.29
436.501	224.94
436.708	95.91
436.915	222.89
437.122	153.26
437.329	118.44
437.537	226.98
437.743	196.26
437.95	292.52
438.157	296.61
438.364	243.37
438.571	190.12
438.778	274.09
438.985	372.39
439.192	392.87
439.399	294.57
439.606	364.2
439.813	407.2
440.02	452.26
440.227	513.7
440.433	405.16
440.64	339.62
440.847	327.33
441.054	370.34
441.261	566.95
441.467	401.06
441.674	444.07
441.881	474.79
442.088	401.06
442.294	575.14
442.501	566.95
442.708	546.47
442.914	491.17
443.121	622.24
443.328	558.75
443.534	525.99
443.741	540.32
443.948	548.51
444.154	605.86
444.361	794.27
444.568	718.5
444.774	609.95
444.981	575.14
445.187	820.89
445.394	657.06
445.6	749.22
445.807	806.56
446.013	767.65
446.22	839.33
446.426	884.38
446.633	964.25
446.839	1130.14
447.046	949.92
447.252	1093.27
447.459	986.78
447.665	1040.03
447.871	1162.9
448.078	1298.07
448.284	1242.78
448.491	1265.3
448.697	1392.28
448.903	1423
449.11	1451.67
449.316	1359.51
449.522	1595.03
449.728	1640.08
449.935	1687.18
450.141	1654.42
450.347	1822.35
450.553	1799.82
450.76	1773.2
450.966	2000.52
451.172	1961.61
451.378	2025.1
451.584	2107.02
451.791	2320.01
451.997	2358.92
452.203	2156.17
452.409	2467.46
452.615	2629.25
452.821	2369.16
453.027	2475.65
453.233	2905.73
453.44	2700.93
453.646	2903.68
453.852	3120.76
454.058	3010.17
454.264	3196.54
454.47	3315.32
454.676	3425.91
454.882	3909.23
455.088	3516.02
455.294	3890.8
455.5	4191.85
455.705	4324.97
455.911	4304.49
456.117	4540.01
456.323	4648.55
456.529	4497
456.735	5058.14
456.941	5080.67
457.147	5213.79
457.352	5461.59
457.558	5639.76
457.764	6084.17
457.97	6006.35
458.176	6291.02
458.381	6692.42
458.587	6661.7
458.793	7112.25
458.999	7085.63
459.204	7749.17
459.41	8455.72
459.616	8130.09
459.821	8744.49
460.027	9020.96
460.233	9514.52
460.438	9383.45
460.644	9772.57
460.85	9924.12
461.055	10475.02
461.261	11048.45
461.466	10677.77
461.672	10987.01
461.878	12416.49
462.083	11978.23
462.289	12406.25
462.494	12627.43
462.7	13106.66
462.905	13020.64
463.111	14163.41
463.316	14863.82
463.522	15140.29
463.727	15588.8
463.932	16356.79
464.138	16698.8
464.343	17501.6
464.549	17599.9
464.754	18812.3
464.959	19432.83
465.165	19713.41
465.37	19404.16
465.575	19631.49
465.781	20800.88
465.986	21394.79
466.191	21120.36
466.397	21300.58
466.602	20874.6
466.807	21904.73
467.012	22490.45
467.218	23160.14
467.423	22895.95
467.628	23579.97
467.833	24945.97
468.038	24464.69
468.244	24046.91
468.449	25451.81
468.654	24806.7
468.859	24749.36
469.064	24716.59
469.269	24249.66
469.474	24634.67
469.679	25183.53
469.885	24366.39
470.09	24759.6
470.295	24728.88
470.5	23850.3
470.705	24640.82
470.91	24175.93
471.115	23543.11
471.32	23993.66
471.525	24008
471.73	23340.36
471.935	22971.72
472.139	21970.27
472.344	22246.74
472.549	21888.35
472.754	21394.79
472.959	21042.54
473.164	20344.18
473.369	20159.86
473.574	20737.39
473.778	20333.94
473.983	19821.95
474.188	19608.96
474.393	18720.14
474.598	18703.76
474.802	18316.69
475.007	17913.24
475.212	17864.09
475.417	17188.26
475.621	17026.47
475.826	16719.28
476.031	16465.33
476.235	15773.11
476.44	15957.43
476.645	15447.49
476.849	15332.8
477.054	15005.13
477.259	14851.53
477.463	14747.08
477.668	14235.09
477.872	14384.59
478.077	14171.6
478.282	13514.2
478.486	13618.65
478.691	13460.96
478.895	13315.55
479.1	13252.06
479.304	13172.19
479.509	12502.51
479.713	12865
479.918	12486.12
480.122	12172.78
480.326	12355.05
480.531	12264.94
480.735	12037.62
480.94	11912.69
481.144	12266.99
481.348	11730.42
481.553	11894.26
481.757	11529.72
481.961	11533.82
482.166	11560.44
482.37	11472.38
482.574	11298.3
482.778	11146.75
482.983	11402.75
483.187	11011.59
483.391	11107.84
483.595	10833.41
483.8	10712.58
484.004	10833.41
484.208	10757.64
484.412	10657.29
484.616	10692.1
484.821	10280.46
485.025	10143.25
485.229	10108.43
485.433	9991.7
485.637	9815.57
485.841	9674.26
486.045	9586.2
486.249	9451.03
486.453	9293.34
486.657	9252.38
486.861	8975.91
487.065	8861.22
487.269	8924.71
487.473	8533.54
487.677	8609.32
487.881	8474.15
488.085	8183.34
488.289	8324.65
488.493	8226.35
488.697	8095.28
488.901	7898.67
489.105	7693.88
489.309	7507.51
489.512	7595.57
489.716	7368.25
489.92	7202.36
490.124	6940.22
490.328	7091.77
490.531	6663.75
490.735	6729.28
490.939	6524.49
491.143	6585.93
491.346	6458.95
491.55	6417.99
491.754	6329.93
491.958	6067.79
492.161	6280.78
492.365	5901.9
492.569	5693.01
492.772	5963.34
492.976	5805.65
493.18	5705.3
493.383	5537.37
493.587	5701.2
493.79	5580.37
493.994	5381.72
494.197	5348.95
494.401	5398.1
494.605	5277.27
494.808	5310.04
495.012	5135.96
495.215	5281.37
495.419	5287.51
495.622	5154.4
495.825	4922.98
496.029	4986.46
496.232	5109.34
496.436	4980.32
496.639	5170.78
496.843	5000.8
497.046	5021.28
497.249	5086.81
497.453	5148.25
497.656	5029.47
497.859	5092.96
498.063	5004.89
498.266	5203.55
498.469	5008.99
498.673	5154.4
498.876	5164.64
499.079	5248.6
499.282	5047.9
499.485	5551.7
499.689	5332.57
499.892	5312.09
500.095	5205.6
500.298	5439.06
500.501	5359.19
500.705	5572.18
500.908	5688.92
501.111	5758.55
501.314	5785.17
501.517	5822.03
501.72	5873.23
501.923	5891.66
502.126	6049.36
502.329	6061.65
502.532	6245.96
502.735	6141.52
502.938	6305.35
503.141	6397.51
503.344	6211.15
503.547	6436.42
503.75	6475.34
503.953	6596.17
504.156	6913.6
504.359	6862.4
504.562	6966.85
504.765	7212.6
504.968	7288.38
505.17	7292.48
505.373	7525.94
505.576	7847.47
505.779	7697.97
505.982	7736.88
506.185	7874.1
506.387	7935.54
506.59	8306.22
506.793	8498.73
506.996	8529.45
507.198	8869.41
507.401	8957.47
507.604	9043.49
507.807	9446.94
508.009	9633.3
508.212	9504.28
508.415	9942.55
508.617	9899.54
508.82	10411.53
509.022	10255.89
509.225	10974.72
509.428	10964.48
509.63	11154.94
509.833	11548.15
510.035	11998.71
510.238	12027.38
510.44	12180.98
510.643	12514.8
510.845	13034.98
511.048	13211.11
511.25	13491.68
511.453	13802.97
511.655	14437.84
511.858	14476.75
512.06	15085
512.262	15019.46
512.465	15220.16
512.667	15775.16
512.87	16235.95
513.072	16635.31
513.274	17108.39
513.477	17544.61
513.679	17505.7
513.881	17976.73
514.084	18660.75
514.286	18793.87
514.488	19305.86
514.69	20225.4
514.893	20290.93
515.095	20749.68
515.297	21425.51
515.499	21728.61
515.701	22183.26
515.904	23051.59
516.106	23135.56
516.308	23762.24
516.51	24317.24
516.712	24311.1
516.914	25341.22
517.116	25808.16
517.318	26180.89
517.52	26641.68
517.722	26922.26
517.925	27825.41
518.127	28531.96
518.329	29230.32
518.531	29095.15
518.733	30164.19
518.935	30579.93
519.136	31159.5
519.338	31458.51
519.54	32498.87
519.742	32826.55
519.944	32971.96
520.146	33778.86
520.348	34669.72
520.55	34800.79
520.752	35101.84
520.954	36076.68
521.155	36174.98
521.357	36809.85
521.559	37446.77
521.761	37940.33
521.963	38065.25
522.164	38403.17
522.366	38923.35
522.568	39128.15
522.77	39588.94
522.971	40236.1
523.173	39879.75
523.375	40649.79
523.576	40576.06
523.778	40764.48
523.98	41698.35
524.181	41651.25
524.383	41845.8
524.584	42406.95
524.786	42249.25
524.988	42128.42
525.189	42306.6
525.391	42628.13
525.592	42695.71
525.794	43007
525.995	42482.72
526.197	42877.98
526.398	43099.16
526.6	42857.5
526.801	42859.55
527.003	42826.78
527.204	42466.34
527.406	42714.14
527.607	42130.47
527.808	42349.6
528.01	41849.9
528.211	41628.72
528.412	42667.04
528.614	41602.1
528.815	41501.75
529.016	41501.75
529.218	40506.43
529.419	40944.7
529.62	40424.51
529.822	39945.29
530.023	39429.2
530.224	39298.13
530.425	39218.26
530.626	38532.19
530.828	38319.2
531.029	38227.04
531.23	37364.85
531.431	36965.49
531.632	36861.05
531.833	36539.52
532.035	35976.33
532.236	35613.84
532.437	35505.29
532.638	34700.44
532.839	34710.68
533.04	34417.82
533.241	33645.74
533.442	33502.38
533.643	32715.96
533.844	32650.42
534.045	32033.99
534.246	31718.6
534.447	31204.56
534.648	30921.94
534.849	30153.95
535.05	29963.49
535.251	29476.07
535.451	29252.84
535.652	28583.16
535.853	28503.29
536.054	28148.99
536.255	28067.07
536.456	27233.55
536.657	27305.23
536.857	26127.64
537.058	26213.66
537.259	26164.51
537.46	25804.06
537.66	25216.3
537.861	24689.97
538.062	24622.39
538.263	24091.96
538.463	24046.91
538.664	23627.07
538.865	23381.32
539.065	23340.36
539.266	22811.98
539.466	22619.47
539.667	22377.81
539.868	22209.88
540.068	22035.8
540.269	21529.95
540.469	21507.43
540.67	21136.74
540.87	20610.42
541.071	20454.77
541.271	20405.62
541.472	20209.01
541.672	19645.82
541.873	19281.28
542.073	19060.1
542.274	19072.39
542.474	18742.67
542.675	18685.33
542.875	18525.58
543.075	18156.95
543.276	17773.98
543.476	17845.66
543.676	17487.26
543.877	17755.55
544.077	17487.26
544.277	17393.06
544.478	16809.39
544.678	17053.09
544.878	16686.51
545.078	16461.23
545.279	16018.87
545.479	15906.23
545.679	15934.9
545.879	15779.26
546.079	15453.63
546.28	15394.24
546.48	15269.31
546.68	14884.3
546.88	15023.56
547.08	14583.24
547.28	14390.74
547.48	14106.07
547.68	14304.72
547.88	13970.9
548.081	14005.72
548.281	13491.68
548.481	13434.33
548.681	13483.48
548.881	13297.12
549.081	13024.74
549.28	12830.18
549.48	12821.99
549.68	12545.52
549.88	12330.48
550.08	11972.08
550.28	12027.38
550.48	12019.19
550.68	11668.98
550.88	11380.22
551.08	11093.51
551.279	11134.46
551.479	11062.79
551.679	10833.41
551.879	10538.51
552.079	10548.75
552.278	10409.48
552.478	10403.34
552.678	10122.77
552.878	9926.16
553.077	9571.86
553.277	9375.26
553.477	9537.05
553.676	9461.27
553.876	9119.26
554.076	9190.94
554.275	8928.8
554.475	8893.99
554.674	8685.09
554.874	8470.06
555.074	8158.77
555.273	8279.6
555.473	7996.98
555.672	7913.01
555.872	7818.8
556.071	7679.54
556.271	7814.71
556.47	7362.11
556.67	7310.91
556.869	7194.17
557.068	7134.78
557.268	7075.39
557.467	6919.75
557.667	7020.1
557.866	6628.93
558.065	6549.06
558.265	6399.56
558.464	6198.86
558.663	6278.73
558.863	6116.94
559.062	5944.91
559.261	6026.83
559.461	5844.56
559.66	5758.55
559.859	5580.37
560.058	5420.63
560.258	5379.67
560.457	5373.53
560.656	5369.43
560.855	5111.39
561.054	5082.72
561.253	5021.28
561.453	5097.05
561.652	4968.03
561.851	4916.83
562.05	4777.57
562.249	4646.5
562.448	4734.56
562.647	4423.27
562.846	4380.26
563.045	4458.09
563.244	4292.2
563.443	4361.83
563.642	4195.95
563.841	4093.55
564.04	3954.29
564.239	3919.47
564.438	3825.26
564.637	3741.3
564.836	3753.59
565.035	3800.69
565.234	3640.95
565.432	3669.62
565.631	3624.56
565.83	3452.53
566.029	3442.29
566.228	3391.09
566.427	3466.87
566.625	3247.74
566.824	3327.61
567.023	3266.17
567.222	3167.87
567.42	3104.38
567.619	3051.13
567.818	2969.21
568.016	3188.35
568.215	2920.06
568.414	3055.23
568.612	2911.87
568.811	2860.67
569.01	2776.7
569.208	2672.26
569.407	2629.25
569.605	2657.92
569.804	2582.15
570.002	2711.17
570.201	2363.01
570.4	2422.41
570.598	2420.36
570.797	2379.4
570.995	2250.38
571.193	2287.24
571.392	2320.01
571.59	2150.03
571.789	2195.08
571.987	2287.24
572.186	2195.08
572.384	2127.5
572.582	2127.5
572.781	2094.73
572.979	1859.21
573.177	2037.39
573.376	1998.48
573.574	2014.86
573.772	1930.89
573.971	1750.67
574.169	1765.01
574.367	1883.79
574.565	1719.95
574.763	1689.23
574.962	1738.38
575.16	1633.94
575.358	1685.14
575.556	1644.18
575.754	1662.61
575.952	1574.55
576.151	1515.16
576.349	1566.35
576.547	1416.85
576.745	1472.15
576.943	1447.57
577.141	1461.91
577.339	1418.9
577.537	1461.91
577.735	1365.65
577.933	1388.18
578.131	1226.39
578.329	1355.41
578.527	1306.26
578.725	1281.69
578.923	1234.58
579.121	1205.91
579.319	1085.08
579.516	1140.38
579.714	1324.69
579.912	1189.53
580.11	964.25
580.308	1013.4
580.506	1101.47
580.704	994.97
580.901	1033.88
581.099	1199.77
581.297	992.92
581.495	960.16
581.692	954.01
581.89	1103.51
582.088	937.63
582.285	1015.45
582.483	921.24
582.681	919.2
582.878	890.53
583.076	970.4
583.274	865.95
583.471	968.35
583.669	790.17
583.866	781.98
584.064	849.57
584.262	714.4
584.459	855.71
584.657	841.37
584.854	861.85
585.052	716.45
585.249	837.28
585.447	757.41
585.644	599.71
585.841	892.57
586.039	861.85
586.236	757.41
586.434	665.25
586.631	655.01
586.828	622.24
587.026	681.63
587.223	464.55
587.42	636.58
587.618	607.91
587.815	769.69
588.012	616.1
588.21	550.56
588.407	622.24
588.604	636.58
588.801	501.41
588.999	634.53
589.196	562.85
589.393	544.42
589.59	595.62
589.787	624.29
589.984	530.08
590.182	591.52
590.379	456.36
590.576	495.27
590.773	519.84
590.97	478.88
591.167	540.32
591.364	577.19
591.561	593.57
591.758	579.23
591.955	663.2
592.152	581.28
592.349	339.62
592.546	489.12
592.743	493.22
592.94	435.88
593.137	562.85
593.334	601.76
593.531	464.55
593.727	517.79
593.924	513.7
594.121	478.88
594.318	564.9
594.515	525.99
594.712	628.39
594.908	626.34
595.105	372.39
595.302	571.04
595.499	605.86
595.696	724.64
595.892	458.4
596.089	738.98
596.286	487.08
596.482	700.06
596.679	577.19
596.876	566.95
597.072	687.78
597.269	673.44
597.466	638.62
597.662	698.02
597.859	589.47
598.055	710.3
598.252	781.98
598.448	736.93
598.645	888.48
598.841	771.74
599.038	986.78
599.234	884.38
599.431	851.61
599.627	870.05
599.824	1013.4
600.02	978.59
600.217	1015.45
600.413	999.07
600.609	1031.83
600.806	1339.03
601.002	1220.25
601.198	1201.82
601.395	1289.88
601.591	1257.11
601.787	1396.37
601.984	1439.38
602.18	1480.34
602.376	1420.95
602.572	1488.53
602.769	1646.23
602.965	1687.18
603.161	1748.62
603.357	1848.97
603.553	1965.71
603.75	1769.1
603.946	1957.52
604.142	2018.96
604.338	2107.02
604.534	2236.04
604.73	2225.8
604.926	2184.84
605.122	2512.52
605.318	2393.73
605.514	2582.15
605.71	2494.08
605.906	2764.42
606.102	2645.63
606.298	2997.88
606.494	2877.05
606.69	3057.28
606.886	3149.43
607.082	3090.04
607.278	3176.06
607.474	3407.48
607.67	3413.62
607.866	3450.49
608.062	3632.76
608.257	3759.73
608.453	3724.91
608.649	3911.28
608.845	3896.94
609.041	4062.83
609.236	4222.57
609.432	4267.63
609.628	4470.37
609.824	4572.77
610.019	4480.61
610.215	4609.64
610.411	4935.26
610.606	4972.13
610.802	4922.98
610.998	5281.37
611.193	5326.43
611.389	5400.15
611.584	5719.64
611.78	5789.27
611.976	5791.31
612.171	6331.98
612.367	6350.41
612.562	6540.87
612.758	6430.28
612.953	6706.76
613.149	6991.42
613.344	7128.64
613.539	7310.91
613.735	7335.48
613.93	7898.67
614.126	7812.66
614.321	8142.38
614.517	8289.84
614.712	8529.45
614.907	8603.18
615.103	8934.95
615.298	9121.31
615.493	9385.5
615.688	9371.16
615.884	9887.25
616.079	9877.01
616.274	10460.68
616.47	10389
616.665	10763.78
616.86	11118.08
617.055	11245.06
617.25	11529.72
617.445	11992.56
617.641	11988.47
617.836	12627.43
618.031	12592.62
618.226	13311.46
618.421	13311.46
618.616	13714.91
618.811	13860.31
619.006	14261.71
619.201	14386.64
619.396	14761.42
619.591	14921.16
619.786	15674.81
619.981	15730.11
620.176	16397.74
620.371	16541.1
620.566	16881.07
620.761	17135.01
620.956	17536.42
621.151	17780.12
621.346	18183.57
621.541	18398.61
621.735	18875.79
621.93	18996.62
622.125	19627.39
622.32	19498.37
622.515	19961.21
622.709	20307.32
622.904	20716.91
623.099	21017.96
623.294	21790.05
623.488	21892.44
623.683	22338.9
623.878	22539.6
624.072	23362.89
624.267	23397.7
624.462	23919.93
624.656	23815.49
624.851	24698.16
625.046	24636.72
625.24	25204.01
625.435	25210.15
625.629	25683.23
625.824	26049.82
626.018	26731.79
626.213	26479.89
626.407	27129.1
626.602	27274.51
626.796	27413.77
626.991	27886.85
627.185	27966.72
627.38	28026.11
627.574	28581.11
627.768	28622.07
627.963	29119.73
628.157	29091.05
628.352	29123.82
628.546	28804.34
628.74	29267.18
628.935	28923.12
629.129	29123.82
629.323	28744.95
629.517	29011.18
629.712	28671.22
629.906	28450.04
630.1	28030.21
630.294	28079.36
630.489	27503.88
630.683	27487.5
630.877	26811.67
631.071	26574.1
631.265	26182.94
631.459	25642.28
631.653	25115.95
631.848	24716.59
632.042	24046.91
632.236	23672.13
632.43	22895.95
632.624	22306.13
632.818	21509.47
633.012	20913.52
633.206	20501.87
633.4	20123
633.594	18961.8
633.788	18468.24
633.982	17925.53
634.176	17567.13
634.369	16444.85
634.563	15848.89
634.757	15138.24
634.951	15060.42
635.145	14312.91
635.339	13682.14
635.533	13319.65
635.726	12631.53
635.92	12121.59
636.114	11546.11
636.308	11134.46
636.501	10950.15
636.695	10307.09
636.889	9754.13
637.083	9483.8
637.276	9059.87
637.47	8617.51
637.664	8441.39
637.857	7939.63
638.051	7476.79
638.244	7439.93
638.438	6921.79
638.632	6868.55
638.825	6510.15
639.019	6471.24
639.212	5758.55
639.406	5903.95
639.599	5623.38
639.793	5289.56
639.986	5185.12
640.18	5092.96
640.373	4666.98
640.567	4533.86
640.76	4292.2
640.954	4193.9
641.147	3933.81
641.34	3704.43
641.534	3722.87
641.727	3704.43
641.92	3401.33
642.114	3468.92
642.307	3096.19
642.5	3145.34
642.694	2903.68
642.887	2840.19
643.08	2944.64
643.273	2676.35
643.467	2537.09
643.66	2375.3
643.853	2270.86
644.046	2236.04
644.239	2213.51
644.432	2006.67
644.626	1902.22
644.819	1961.61
645.012	1851.02
645.205	1844.88
645.398	1765.01
645.591	1777.3
645.784	1494.68
645.977	1490.58
646.17	1404.57
646.363	1312.41
646.556	1257.11
646.749	1156.76
646.942	1293.97
647.135	1244.82
647.328	1113.75
647.521	1171.1
647.714	1068.7
647.907	1052.31
648.099	906.91
648.292	1021.6
648.485	974.49
648.678	853.66
648.871	872.09
649.064	913.05
649.256	773.79
649.449	726.69
649.642	657.06
649.835	624.29
650.027	624.29
650.22	618.15
650.413	554.66
650.605	622.24
650.798	507.55
650.991	489.12
651.183	566.95
651.376	605.86
651.568	509.6
651.761	437.92
651.954	540.32
652.146	329.38
652.339	521.89
652.531	558.75
652.724	298.66
652.916	313
653.109	216.74
653.301	540.32
653.494	323.24
653.686	347.81
653.879	448.16
654.071	452.26
654.263	292.52
654.456	247.46
654.648	401.06
654.84	306.85
655.033	341.67
655.225	423.59
655.417	218.79
655.61	351.91
655.802	249.51
655.994	388.77
656.186	190.12
656.379	360.1
656.571	251.56
656.763	249.51
656.955	272.04
657.148	183.98
657.34	339.62
657.532	255.65
657.724	194.22
657.916	204.46
658.108	272.04
658.3	304.81
658.492	243.37
658.684	122.54
658.876	251.56
659.068	147.11
659.26	188.07
659.452	93.87
659.644	169.64
659.836	296.61
660.028	83.63
660.22	120.49
660.412	157.35
660.604	198.31
660.796	161.45
660.988	243.37
661.18	218.79
661.372	181.93
661.563	175.78
661.755	134.82
661.947	147.11
662.139	173.74
662.331	161.45
662.522	124.58
662.714	18.09
662.906	108.2
663.097	44.71
663.289	118.44
663.481	42.67
663.673	138.92
663.864	114.34
664.056	124.58
664.247	102.06
664.439	136.87
664.631	239.27
664.822	247.46
665.014	100.01
665.205	171.69
665.397	108.2
665.588	216.74
665.78	147.11
665.971	177.83
666.163	73.39
666.354	102.06
666.546	69.29
666.737	61.1
666.929	24.23
667.12	132.78
667.311	102.06
667.503	140.97
667.694	165.54
667.885	175.78
668.077	112.3
668.268	34.47
668.459	171.69
668.651	106.15
668.842	71.34
669.033	85.67
669.224	13.99
669.416	319.14
669.607	97.96
669.798	46.76
669.989	265.89
670.18	100.01
670.371	91.82
670.563	102.06
670.754	192.17
670.945	100.01
671.136	181.93
671.327	75.43
671.518	220.84
671.709	175.78
671.9	208.55
672.091	241.32
672.282	110.25
672.473	159.4
672.664	67.24
672.855	163.5
673.046	143.02
673.237	194.22
673.428	130.73
673.619	196.26
673.809	59.05
674	130.73
674.191	233.13
674.382	122.54
674.573	100.01
674.764	95.91
674.954	202.41
675.145	48.81
675.336	147.11
675.527	69.29
675.717	210.6
675.908	114.34
676.099	71.34
676.289	159.4
676.48	57
676.671	132.78
676.861	106.15
677.052	218.79
677.243	59.05
677.433	106.15
677.624	188.07
677.814	229.03
678.005	196.26
678.195	274.09
678.386	69.29
678.576	130.73
678.767	100.01
678.957	200.36
679.148	345.77
679.338	288.42
679.529	229.03
679.719	97.96
679.909	229.03
680.1	241.32
680.29	229.03
680.481	77.48
680.671	181.93
680.861	220.84
681.052	259.75
681.242	257.7
681.432	241.32
681.622	206.5
681.813	153.26
682.003	233.13
682.193	169.64
682.383	126.63
682.573	216.74
682.764	208.55
682.954	214.7
683.144	288.42
683.334	155.3
683.524	196.26
683.714	302.76
683.904	263.85
684.094	188.07
684.284	192.17
684.474	310.95
684.664	253.61
684.854	267.94
685.044	251.56
685.234	196.26
685.424	284.33
685.614	183.98
685.804	411.3
685.994	212.65
686.184	210.6
686.374	360.1
686.564	306.85
686.753	290.47
686.943	138.92
687.133	214.7
687.323	167.59
687.513	267.94
687.702	257.7
687.892	267.94
688.082	315.05
688.272	325.29
688.461	282.28
688.651	388.77
688.841	304.81
689.03	288.42
689.22	286.37
689.41	257.7
689.599	272.04
689.789	169.64
689.979	327.33
690.168	265.89
690.358	298.66
690.547	171.69
690.737	224.94
690.926	276.13
691.116	229.03
691.305	306.85
691.495	282.28
691.684	143.02
691.874	143.02
692.063	226.98
692.252	243.37
692.442	296.61
692.631	253.61
692.82	229.03
693.01	204.46
693.199	233.13
693.388	286.37
693.578	151.21
693.767	233.13
693.956	239.27
694.146	179.88
694.335	190.12
694.524	200.36
694.713	302.76
694.902	274.09
695.092	231.08
695.281	241.32
695.47	149.16
695.659	118.44
695.848	243.37
696.037	97.96
696.226	304.81
696.415	235.18
696.604	401.06
696.793	261.8
696.982	267.94
697.171	386.72
697.36	216.74
697.549	255.65
697.738	186.02
697.927	192.17
698.116	212.65
698.305	300.71
698.494	333.48
698.683	208.55
698.872	380.58
699.061	183.98
699.25	212.65
699.438	190.12
699.627	210.6
699.816	407.2
700.005	104.11
700.193	163.5
700.382	284.33
700.571	276.13
700.76	269.99
700.948	335.53
701.137	304.81
701.326	208.55
701.514	136.87
701.703	243.37
701.892	165.54
702.08	358.05
702.269	206.5
702.457	89.77
702.646	239.27
702.834	224.94
703.023	169.64
703.212	306.85
703.4	284.33
703.589	112.3
703.777	245.41
703.965	104.11
704.154	186.02
704.342	147.11
704.531	216.74
704.719	245.41
704.907	310.95
705.096	173.74
705.284	183.98
705.472	241.32
705.661	147.11
705.849	251.56
706.037	235.18
706.226	249.51
706.414	231.08
706.602	157.35
706.79	325.29
706.979	130.73
707.167	265.89
707.355	87.72
707.543	286.37
707.731	208.55
707.919	175.78
708.107	261.8
708.296	196.26
708.484	175.78
708.672	280.23
708.86	222.89
709.048	186.02
709.236	118.44
709.424	208.55
709.612	265.89
709.8	65.19
709.988	196.26
710.176	294.57
710.364	374.44
710.551	239.27
710.739	220.84
710.927	212.65
711.115	206.5
711.303	386.72
711.491	288.42
711.679	165.54
711.866	235.18
712.054	130.73
712.242	231.08
712.43	247.46
712.617	241.32
712.805	280.23
712.993	149.16
713.181	73.39
713.368	261.8
713.556	202.41
713.744	194.22
713.931	327.33
714.119	226.98
714.306	155.3
714.494	179.88
714.682	210.6
714.869	190.12
715.057	181.93
715.244	24.23
715.432	216.74
715.619	222.89
715.807	235.18
715.994	237.22
716.182	218.79
716.369	269.99
716.556	319.14
716.744	165.54
716.931	169.64
717.119	276.13
717.306	161.45
717.493	276.13
717.681	204.46
717.868	218.79
718.055	198.31
718.242	186.02
718.43	280.23
718.617	401.06
718.804	224.94
718.991	284.33
719.179	274.09
719.366	212.65
719.553	304.81
719.74	231.08
719.927	253.61
720.114	190.12
720.301	208.55
720.488	179.88
720.676	151.21
720.863	304.81
721.05	331.43
721.237	302.76
721.424	200.36
721.611	235.18
721.798	118.44
721.985	140.97
722.172	216.74
722.358	192.17
722.545	317.09
722.732	276.13
722.919	349.86
723.106	315.05
723.293	239.27
723.48	272.04
723.667	245.41
723.853	394.92
724.04	343.72
724.227	403.11
724.414	235.18
724.6	306.85
724.787	390.82
724.974	399.01
725.161	290.47
725.347	231.08
725.534	196.26
725.72	327.33
725.907	364.2
726.094	306.85
726.28	204.46
726.467	202.41
726.653	202.41
726.84	356.01
727.027	437.92
727.213	292.52
727.4	265.89
727.586	265.89
727.773	319.14
727.959	298.66
728.145	243.37
728.332	282.28
728.518	190.12
728.705	366.25
728.891	278.18
729.077	259.75
729.264	194.22
729.45	233.13
729.636	415.4
729.823	212.65
730.009	304.81
730.195	315.05
730.382	284.33
730.568	122.54
730.754	286.37
730.94	269.99
731.126	323.24
731.313	341.67
731.499	263.85
731.685	343.72
731.871	284.33
732.057	319.14
732.243	229.03
732.429	323.24
732.615	384.68
732.801	331.43
732.987	265.89
733.173	231.08
733.359	247.46
733.545	304.81
733.731	259.75
733.917	288.42
734.103	288.42
734.289	376.48
734.475	200.36
734.661	458.4
734.847	259.75
735.033	331.43
735.219	294.57
735.404	247.46
735.59	255.65
735.776	226.98
735.962	300.71
736.148	343.72
736.333	327.33
736.519	353.96
736.705	315.05
736.89	321.19
737.076	337.57
737.262	241.32
737.447	294.57
737.633	304.81
737.819	353.96
738.004	261.8
738.19	315.05
738.375	341.67
738.561	374.44
738.747	284.33
738.932	214.7
739.118	415.4
739.303	360.1
739.489	329.38
739.674	220.84
739.859	171.69
740.045	335.53
740.23	353.96
740.416	206.5
740.601	302.76
740.786	351.91
740.972	208.55
741.157	226.98
741.342	212.65
741.528	208.55
741.713	442.02
741.898	179.88
742.084	362.15
742.269	341.67
742.454	317.09
742.639	417.44
742.824	218.79
743.01	366.25
743.195	370.34
743.38	401.06
743.565	288.42
743.75	333.48
743.935	325.29
744.12	413.35
744.305	237.22
744.49	306.85
744.675	292.52
744.86	265.89
745.045	366.25
745.23	235.18
745.415	243.37
745.6	376.48
745.785	259.75
745.97	278.18
746.155	319.14
746.34	319.14
746.525	280.23
746.71	405.16
746.895	177.83
747.079	192.17
747.264	288.42
747.449	360.1
747.634	304.81
747.819	366.25
748.003	229.03
748.188	91.82
748.373	272.04
748.557	300.71
748.742	233.13
748.927	276.13
749.111	224.94
749.296	261.8
749.481	327.33
749.665	272.04
749.85	159.4
750.034	315.05
750.219	235.18
750.404	233.13
750.588	294.57
750.773	196.26
750.957	224.94
751.141	220.84
751.326	331.43
751.51	280.23
751.695	243.37
751.879	140.97
752.064	364.2
752.248	257.7
752.432	339.62
752.617	263.85
752.801	310.95
752.985	128.68
753.17	325.29
753.354	280.23
753.538	206.5
753.722	243.37
753.907	140.97
754.091	118.44
754.275	175.78
754.459	132.78
754.643	204.46
754.828	192.17
755.012	226.98
755.196	134.82
755.38	210.6
755.564	85.67
755.748	190.12
755.932	222.89
756.116	112.3
756.3	239.27
756.484	124.58
756.668	145.06
756.852	122.54
757.036	151.21
757.22	192.17
757.404	110.25
757.588	181.93
757.772	138.92
757.956	237.22
758.14	263.85
758.323	134.82
758.507	202.41
758.691	147.11
758.875	265.89
759.059	280.23
759.242	208.55
759.426	145.06
759.61	196.26
759.794	136.87
759.977	282.28
760.161	405.16
760.345	257.7
760.528	245.41
760.712	145.06
760.895	226.98
761.079	85.67
761.263	163.5
761.446	136.87
761.63	110.25
761.813	167.59
761.997	26.28
762.18	145.06
762.364	214.7
762.547	61.1
762.731	75.43
762.914	159.4
763.098	95.91
763.281	192.17
763.464	50.86
763.648	87.72
763.831	110.25
764.015	134.82
764.198	132.78
764.381	116.39
764.564	143.02
764.748	93.87
764.931	118.44
765.114	143.02
765.297	214.7
765.481	110.25
765.664	218.79
765.847	32.43
766.03	255.65
766.213	-0.34
766.397	147.11
766.58	79.53
766.763	122.54
766.946	91.82
767.129	104.11
767.312	91.82
767.495	83.63
767.678	97.96
767.861	159.4
768.044	42.67
768.227	145.06
768.41	67.24
768.593	85.67
768.776	136.87
768.959	-2.39
769.142	261.8
769.324	102.06
769.507	93.87
769.69	57
769.873	75.43
770.056	224.94
770.239	128.68
770.421	243.37
770.604	177.83
770.787	69.29
770.97	95.91
771.152	11.95
771.335	118.44
771.518	-0.34
771.7	183.98
771.883	251.56
772.066	42.67
772.248	112.3
772.431	161.45
772.613	165.54
772.796	89.77
772.978	128.68
773.161	237.22
773.343	100.01
773.526	69.29
773.708	3.75
773.891	32.43
774.073	102.06
774.256	16.04
774.438	249.51
774.621	34.47
774.803	161.45
774.985	40.62
775.168	177.83
775.35	34.47
775.532	151.21
775.715	73.39
775.897	75.43
776.079	-24.92
776.261	95.91
776.444	50.86
776.626	50.86
776.808	57
776.99	-37.2
777.173	11.95
777.355	52.91
777.537	79.53
777.719	69.29
777.901	114.34
778.083	1.71
778.265	-24.92
778.447	206.5
778.629	38.57
778.811	71.34
778.993	126.63
779.175	130.73
779.357	44.71
779.539	-6.49
779.721	40.62
779.903	149.16
780.085	77.48
780.267	104.11
780.449	38.57
780.631	85.67
780.812	67.24
780.994	54.95
781.176	32.43
781.358	-43.35
781.54	46.76
781.721	138.92
781.903	188.07
782.085	-24.92
782.267	52.91
782.448	-98.64
782.63	38.57
782.812	59.05
782.993	102.06
783.175	77.48
783.357	42.67
783.538	69.29
783.72	3.75
783.901	77.48
784.083	93.87
784.264	-0.34
784.446	-51.54
784.627	-37.2
784.809	63.15
784.99	-20.82
785.172	126.63
785.353	-39.25
785.535	59.05
785.716	-67.92
785.897	-16.73
786.079	30.38
786.26	28.33
786.441	65.19
786.623	-92.5
786.804	48.81
786.985	-31.06
787.167	32.43
787.348	54.95
787.529	-29.01
787.71	188.07
787.891	16.04
788.073	-47.44
788.254	-96.6
788.435	102.06
788.616	24.23
788.797	-145.75
788.978	-14.68
789.159	-45.4
789.34	54.95
789.522	-0.34
789.703	-18.77
789.884	32.43
790.065	52.91
790.246	93.87
790.427	81.58
790.607	44.71
790.788	110.25
790.969	22.19
791.15	-16.73
791.331	36.52
791.512	85.67
791.693	-6.49
791.874	-53.59
792.054	140.97
792.235	118.44
792.416	-26.96
792.597	5.8
792.778	59.05
792.958	132.78
793.139	79.53
793.32	-31.06
793.5	-47.44
793.681	122.54
793.862	3.75
794.042	22.19
794.223	-127.32
794.404	-33.11
794.584	-100.69
794.765	22.19
794.945	-6.49
795.126	157.35
795.306	63.15
795.487	-24.92
795.667	36.52
795.848	73.39
796.028	-14.68
796.209	46.76
796.389	71.34
796.57	-45.4
796.75	-18.77
796.93	-14.68
797.111	-26.96
797.291	34.47
797.471	67.24
797.652	36.52
797.832	-82.26
798.012	116.39
798.192	-26.96
798.373	-63.83
798.553	40.62
798.733	48.81
798.913	-80.21
799.093	13.99
799.274	36.52
799.454	87.72
799.634	108.2
799.814	110.25
799.994	63.15
800.174	-22.87
800.354	-4.44
800.534	-24.92
800.714	44.71
800.894	-53.59
801.074	-37.2
801.254	-29.01
801.434	91.82
801.614	-33.11
801.794	-47.44
801.974	1703.57
802.154	-2.39
802.334	136.87
802.514	-110.93
802.693	-43.35
802.873	-12.63
803.053	75.43
803.233	128.68
803.413	-20.82
803.592	54.95
803.772	20.14
803.952	36.52
804.131	-78.16
804.311	65.19
804.491	106.15
804.67	-22.87
804.85	-10.58
805.03	108.2
805.209	13.99
805.389	5.8
805.568	-106.84
805.748	26.28
805.928	-61.78
806.107	69.29
806.287	16.04
806.466	79.53
806.646	-45.4
806.825	46.76
807.004	-57.68
807.184	26.28
807.363	28.33
807.543	5.8
807.722	-29.01
807.901	61.1
808.081	138.92
808.26	-86.36
808.439	20.14
808.619	-51.54
808.798	-2.39
808.977	40.62
809.156	59.05
809.336	50.86
809.515	18.09
809.694	-72.02
809.873	52.91
810.052	-67.92
810.231	87.72
810.411	3.75
810.59	-2.39
810.769	-18.77
810.948	46.76
811.127	-180.56
811.306	-37.2
811.485	-33.11
811.664	67.24
811.843	9.9
812.022	22.19
812.201	34.47
812.38	59.05
812.559	-45.4
812.737	50.86
812.916	-45.4
813.095	-129.36
813.274	63.15
813.453	-20.82
813.632	73.39
813.811	87.72
813.989	-43.35
814.168	20.14
814.347	-172.37
814.526	-41.3
814.704	128.68
814.883	118.44
815.062	-90.45
815.24	5.8
815.419	-65.88
815.598	93.87
815.776	-98.64
815.955	3.75
816.133	-29.01
816.312	11.95
816.49	-33.11
816.669	38.57
816.847	20.14
817.026	73.39
817.204	34.47
817.383	-12.63
817.561	-10.58
817.74	-20.82
817.918	-29.01
818.097	16.04
818.275	-123.22
818.453	54.95
818.632	-33.11
818.81	13.99
818.988	-26.96
819.167	-31.06
819.345	48.81
819.523	-90.45
819.701	-45.4
819.879	44.71
820.058	30.38
820.236	85.67
820.414	-4.44
820.592	9.9
820.77	40.62
820.948	-65.88
821.127	44.71
821.305	28.33
821.483	-22.87
821.661	95.91
821.839	16.04
822.017	13.99
822.195	22.19
822.373	100.01
822.551	-39.25
822.729	34.47
822.907	16.04
823.085	73.39
823.262	13.99
823.44	-6.49
823.618	-61.78
823.796	9.9
823.974	-45.4
824.152	13.99
824.329	36.52
824.507	100.01
824.685	28.33
824.863	85.67
825.04	-2.39
825.218	-8.53
825.396	-39.25
825.574	34.47
825.751	-16.73
825.929	-22.87
826.107	-55.64
826.284	-78.16
826.462	50.86
826.639	-43.35
826.817	-82.26
826.994	22.19
827.172	-104.79
827.349	118.44
827.527	-35.16
827.704	52.91
827.882	57
828.059	-14.68
828.237	-80.21
828.414	50.86
828.591	-125.27
828.769	-115.03
828.946	-33.11
829.124	71.34
829.301	26.28
829.478	26.28
829.655	-92.5
829.833	11.95
830.01	-115.03
830.187	7.85
830.364	-35.16
830.542	-33.11
830.719	138.92
830.896	106.15
831.073	20.14
831.25	50.86
831.427	36.52
831.604	18.09
831.782	-74.07
831.959	13.99
832.136	50.86
832.313	22.19
832.49	-59.73
832.667	36.52
832.844	-24.92
833.021	40.62
833.198	83.63
833.374	24.23
833.551	50.86
833.728	-82.26
833.905	-10.58
834.082	-43.35
834.259	-0.34
834.436	59.05
834.612	30.38
834.789	11.95
834.966	69.29
835.143	79.53
835.319	-53.59
835.496	5.8
835.673	-6.49
835.85	52.91
836.026	18.09
836.203	65.19
836.38	42.67
836.556	-8.53
836.733	-49.49
836.909	136.87
837.086	-14.68
837.262	-102.74
837.439	-49.49
837.616	1.71
837.792	-8.53
837.968	11.95
838.145	-133.46
838.321	-37.2
838.498	1.71
838.674	46.76
838.851	-35.16
839.027	-10.58
839.203	-57.68
839.38	16.04
839.556	-100.69
839.732	-18.77
839.909	-51.54
840.085	-20.82
840.261	-74.07
840.437	-53.59
840.614	-69.97
840.79	65.19
840.966	-2.39
841.142	18.09
841.318	-94.55
841.494	-0.34
841.671	-14.68
841.847	-80.21
842.023	-53.59
842.199	-14.68
842.375	85.67
842.551	-145.75
842.727	-53.59
842.903	147.11
843.079	-22.87
843.255	108.2
843.431	-94.55
843.607	57
843.783	-135.51
843.959	-86.36
844.134	-47.44
844.31	89.77
844.486	-80.21
844.662	-110.93
844.838	-10.58
845.013	71.34
845.189	28.33
845.365	67.24
845.541	7.85
845.716	16.04
845.892	22.19
846.068	-76.12
846.244	-51.54
846.419	34.47
846.595	-98.64
846.77	-35.16
846.946	87.72
847.122	11.95
847.297	-63.83
847.473	85.67
847.648	-129.36
847.824	11.95
847.999	-112.98
848.175	5.8
848.35	-6.49
848.526	83.63
848.701	61.1
848.876	-12.63
849.052	18.09
849.227	-31.06
849.403	-104.79
849.578	-24.92
849.753	46.76
849.929	81.58
850.104	-80.21
850.279	63.15
850.454	42.67
850.63	26.28
850.805	52.91
850.98	-22.87
851.155	-72.02
851.33	-47.44
851.505	-53.59
851.681	36.52
851.856	-14.68
852.031	44.71
852.206	13.99
852.381	-82.26
852.556	-16.73
852.731	-10.58
852.906	-8.53
853.081	-6.49
853.256	95.91
853.431	-29.01
853.606	-102.74
853.781	-119.12
853.956	-119.12
854.131	-20.82
854.305	-4.44
854.48	-67.92
854.655	5.8
854.83	-16.73
855.005	-78.16
855.18	-45.4
855.354	-8.53
855.529	1.71
855.704	-26.96
855.879	7.85
856.053	-129.36
856.228	-37.2
856.403	-106.84
856.577	24.23
856.752	-39.25
856.926	26.28
857.101	-41.3
857.276	-131.41
857.45	-51.54
857.625	36.52
857.799	-31.06
857.974	-76.12
858.148	-145.75
858.323	22.19
858.497	-39.25
858.672	-106.84
858.846	-29.01
859.02	61.1
859.195	-31.06
859.369	-57.68
859.543	28.33
859.718	-76.12
859.892	40.62
860.066	3.75
860.241	-4.44
860.415	-33.11
860.589	-33.11
860.763	46.76
860.938	-14.68
861.112	-63.83
861.286	16.04
861.46	52.91
861.634	-0.34
861.808	69.29
861.982	-63.83
862.157	-135.51
862.331	-69.97
862.505	-55.64
862.679	-65.88
862.853	-45.4
863.027	-69.97
863.201	106.15
863.375	-35.16
863.549	-0.34
863.722	65.19
863.896	77.48
864.07	-45.4
864.244	-51.54
864.418	67.24
864.592	-24.92
864.766	-82.26
864.939	-10.58
865.113	-94.55
865.287	30.38
865.461	-96.6
865.634	-24.92
865.808	-80.21
865.982	-53.59
866.156	-57.68
866.329	-96.6
866.503	26.28
866.676	-6.49
866.85	-49.49
867.024	-14.68
867.197	13.99
867.371	-29.01
867.544	-8.53
867.718	-158.03
867.891	89.77
868.065	-61.78
868.238	85.67
868.412	75.43
868.585	11.95
868.759	-53.59
868.932	-43.35
869.105	-2.39
869.279	-47.44
869.452	-45.4
869.625	26.28
869.799	-43.35
869.972	-90.45
870.145	-61.78
870.319	91.82
870.492	-98.64
870.665	-119.12
870.838	-92.5
871.011	-166.23
871.185	-92.5
871.358	-84.31
871.531	36.52
871.704	22.19
871.877	-39.25
872.05	-2.39
872.223	-86.36
872.396	-16.73
872.569	32.43
872.742	-82.26
872.915	40.62
873.088	50.86
873.261	-33.11
873.434	-0.34
873.607	-94.55
873.78	97.96
873.953	-74.07
874.126	-43.35
874.299	48.81
874.471	-72.02
874.644	-12.63
874.817	147.11
874.99	73.39
875.163	-78.16
875.335	40.62
875.508	-22.87
875.681	106.15
875.853	-14.68
876.026	-41.3
876.199	52.91
876.371	-31.06
876.544	-61.78
876.717	3.75
876.889	-12.63
877.062	18.09
877.234	-37.2
877.407	-57.68
877.579	-35.16
877.752	52.91
877.924	3.75
878.097	-63.83
878.269	46.76
878.442	-47.44
878.614	-24.92
878.786	-22.87
878.959	-29.01
879.131	22.19
879.303	-117.08
879.476	5.8
879.648	9.9
879.82	-80.21
879.993	-61.78
880.165	-55.64
880.337	-151.89
880.509	-37.2
880.681	-65.88
880.854	-47.44
881.026	61.1
881.198	134.82
881.37	-16.73
881.542	1.71
881.714	-88.4
881.886	7.85
882.058	24.23
882.23	26.28
882.402	-33.11
882.574	3.75
882.746	38.57
882.918	42.67
883.09	57
883.262	-0.34
883.434	61.1
883.606	-106.84
883.778	-94.55
883.95	140.97
884.122	-35.16
884.293	124.58
884.465	28.33
884.637	65.19
884.809	-53.59
884.98	-12.63
885.152	69.29
885.324	3.75
885.496	-82.26
885.667	-14.68
885.839	-18.77
886.011	67.24
886.182	38.57
886.354	48.81
886.525	52.91
886.697	38.57
886.869	-49.49
887.04	-10.58
887.212	138.92
887.383	132.78
887.555	40.62
887.726	-61.78
887.897	-2.39
888.069	-31.06
888.24	130.73
888.412	-47.44
888.583	-8.53
888.754	36.52
888.926	-90.45
889.097	-67.92
889.268	-65.88
889.44	54.95
889.611	-55.64
889.782	-98.64
889.953	-72.02
890.125	116.39
890.296	-94.55
890.467	-63.83
890.638	-4.44
890.809	-0.34
890.98	-104.79
891.151	-12.63
891.323	61.1
891.494	-20.82
891.665	79.53
891.836	-82.26
892.007	1.71
892.178	-8.53
892.349	-8.53
892.52	-51.54
892.691	30.38
892.862	-31.06
893.032	-112.98
893.203	-84.31
893.374	7.85
893.545	-12.63
893.716	-53.59
893.887	40.62
894.057	-18.77
894.228	-45.4
894.399	-84.31
894.57	75.43
894.74	-63.83
894.911	-24.92
895.082	46.76
895.253	24.23
895.423	-4.44
895.594	63.15
895.764	-12.63
895.935	-16.73
896.106	-0.34
896.276	-69.97
896.447	34.47
896.617	-53.59
896.788	-76.12
896.958	-8.53
897.129	-65.88
897.299	-61.78
897.47	69.29
897.64	44.71
897.81	-39.25
897.981	9.9
898.151	-84.31
898.322	-16.73
898.492	36.52
898.662	-37.2
898.832	-35.16
899.003	18.09
899.173	1.71
899.343	-37.2
899.513	-49.49
