Data from USB4F104151__34__11-24-59-703.txt Node

Date: Wed Feb 26 11:24:59 EST 2025
User: louis
Spectrometer: USB4F10415
Trigger mode: 4
Integration Time (sec): 1.000000E-1
Scans to average: 1
Electric dark correction enabled: true
Nonlinearity correction enabled: false
Boxcar width: 0
XAxis mode: Wavelengths
Number of Pixels in Spectrum: 3648
>>>>>Begin Spectral Data<<<<<
178.204	-538.96
178.424	-538.96
178.644	-538.96
178.864	-407.89
179.084	-434.51
179.304	3.75
179.524	-24.92
179.744	73.39
179.964	59.05
180.184	-16.73
180.404	114.34
180.624	-16.73
180.844	38.57
181.064	-94.55
181.283	-0.34
181.503	-80.21
181.723	-55.64
181.943	-145.75
182.163	118.44
182.383	-6.49
182.602	52.91
182.822	100.01
183.042	54.95
183.262	-10.58
183.482	42.67
183.701	-10.58
183.921	28.33
184.141	-8.53
184.361	85.67
184.58	110.25
184.8	32.43
185.02	-61.78
185.239	65.19
185.459	91.82
185.679	130.73
185.898	-86.36
186.118	36.52
186.338	69.29
186.557	102.06
186.777	-43.35
186.997	-29.01
187.216	48.81
187.436	149.16
187.655	112.3
187.875	48.81
188.095	52.91
188.314	106.15
188.534	75.43
188.753	42.67
188.973	85.67
189.192	124.58
189.412	7.85
189.631	3.75
189.851	28.33
190.07	169.64
190.29	-2.39
190.509	-104.79
190.729	54.95
190.948	134.82
191.168	306.85
191.387	65.19
191.607	106.15
191.826	50.86
192.045	87.72
192.265	36.52
192.484	75.43
192.704	100.01
192.923	-53.59
193.142	155.3
193.362	118.44
193.581	171.69
193.8	69.29
194.02	102.06
194.239	114.34
194.458	126.63
194.678	67.24
194.897	-26.96
195.116	77.48
195.335	20.14
195.555	57
195.774	-39.25
195.993	173.74
196.212	54.95
196.432	18.09
196.651	-18.77
196.87	112.3
197.089	161.45
197.308	89.77
197.528	102.06
197.747	-121.17
197.966	124.58
198.185	124.58
198.404	-47.44
198.623	171.69
198.842	77.48
199.062	132.78
199.281	138.92
199.5	69.29
199.719	46.76
199.938	97.96
200.157	24.23
200.376	73.39
200.595	149.16
200.814	-18.77
201.033	50.86
201.252	167.59
201.471	16.04
201.69	134.82
201.909	73.39
202.128	134.82
202.347	36.52
202.566	138.92
202.785	-82.26
203.004	54.95
203.223	198.31
203.442	34.47
203.661	-14.68
203.879	106.15
204.098	110.25
204.317	-10.58
204.536	81.58
204.755	91.82
204.974	161.45
205.193	3.75
205.411	136.87
205.63	161.45
205.849	-0.34
206.068	16.04
206.287	-61.78
206.505	136.87
206.724	9.9
206.943	-26.96
207.162	42.67
207.381	13.99
207.599	-4.44
207.818	5.8
208.037	-67.92
208.255	26.28
208.474	95.91
208.693	59.05
208.911	-37.2
209.13	97.96
209.349	52.91
209.567	77.48
209.786	106.15
210.005	52.91
210.223	112.3
210.442	-10.58
210.661	59.05
210.879	42.67
211.098	-2.39
211.316	-61.78
211.535	140.97
211.753	48.81
211.972	85.67
212.191	-12.63
212.409	26.28
212.628	110.25
212.846	-57.68
213.065	79.53
213.283	138.92
213.502	22.19
213.72	48.81
213.938	32.43
214.157	36.52
214.375	67.24
214.594	42.67
214.812	59.05
215.031	81.58
215.249	91.82
215.467	165.54
215.686	63.15
215.904	34.47
216.122	-49.49
216.341	132.78
216.559	102.06
216.778	36.52
216.996	204.46
217.214	-31.06
217.432	5.8
217.651	-8.53
217.869	83.63
218.087	24.23
218.306	104.11
218.524	13.99
218.742	79.53
218.96	77.48
219.179	-80.21
219.397	63.15
219.615	181.93
219.833	69.29
220.051	-22.87
220.27	73.39
220.488	61.1
220.706	30.38
220.924	32.43
221.142	42.67
221.36	89.77
221.578	61.1
221.796	-37.2
222.015	91.82
222.233	128.68
222.451	136.87
222.669	-8.53
222.887	114.34
223.105	54.95
223.323	48.81
223.541	3.75
223.759	112.3
223.977	83.63
224.195	173.74
224.413	71.34
224.631	69.29
224.849	57
225.067	163.5
225.285	22.19
225.503	28.33
225.721	-29.01
225.939	24.23
226.157	38.57
226.375	167.59
226.592	-2.39
226.81	44.71
227.028	145.06
227.246	77.48
227.464	48.81
227.682	93.87
227.9	89.77
228.117	83.63
228.335	59.05
228.553	1.71
228.771	28.33
228.989	-45.4
229.206	85.67
229.424	34.47
229.642	30.38
229.86	11.95
230.077	188.07
230.295	-2.39
230.513	63.15
230.731	57
230.948	159.4
231.166	181.93
231.384	42.67
231.601	-10.58
231.819	171.69
232.037	32.43
232.254	-18.77
232.472	-10.58
232.689	-18.77
232.907	114.34
233.125	46.76
233.342	9.9
233.56	-35.16
233.777	5.8
233.995	59.05
234.213	75.43
234.43	50.86
234.648	32.43
234.865	3.75
235.083	79.53
235.3	73.39
235.518	65.19
235.735	120.49
235.953	3.75
236.17	-0.34
236.388	13.99
236.605	52.91
236.822	67.24
237.04	104.11
237.257	110.25
237.475	-78.16
237.692	85.67
237.909	73.39
238.127	7.85
238.344	71.34
238.562	65.19
238.779	-33.11
238.996	16.04
239.214	24.23
239.431	38.57
239.648	3.75
239.865	42.67
240.083	22.19
240.3	-10.58
240.517	-82.26
240.735	-18.77
240.952	87.72
241.169	65.19
241.386	83.63
241.603	5.8
241.821	-33.11
242.038	1.71
242.255	173.74
242.472	-39.25
242.689	136.87
242.907	50.86
243.124	20.14
243.341	3.75
243.558	42.67
243.775	-110.93
243.992	-26.96
244.209	52.91
244.426	255.65
244.643	16.04
244.86	-37.2
245.078	116.39
245.295	59.05
245.512	18.09
245.729	-43.35
245.946	75.43
246.163	138.92
246.38	38.57
246.597	34.47
246.814	116.39
247.031	83.63
247.248	16.04
247.464	57
247.681	110.25
247.898	77.48
248.115	108.2
248.332	40.62
248.549	138.92
248.766	126.63
248.983	102.06
249.2	-63.83
249.417	188.07
249.633	-112.98
249.85	54.95
250.067	38.57
250.284	52.91
250.501	118.44
250.717	128.68
250.934	-12.63
251.151	-22.87
251.368	-2.39
251.585	38.57
251.801	40.62
252.018	-18.77
252.235	132.78
252.451	-35.16
252.668	-12.63
252.885	116.39
253.102	38.57
253.318	-63.83
253.535	65.19
253.752	38.57
253.968	-39.25
254.185	-98.64
254.401	9.9
254.618	83.63
254.835	-65.88
255.051	145.06
255.268	77.48
255.484	104.11
255.701	-39.25
255.917	108.2
256.134	-4.44
256.351	1.71
256.567	-61.78
256.784	-18.77
257	-12.63
257.217	128.68
257.433	73.39
257.65	106.15
257.866	204.46
258.082	-26.96
258.299	-45.4
258.515	-22.87
258.732	9.9
258.948	-78.16
259.165	48.81
259.381	-22.87
259.597	61.1
259.814	75.43
260.03	34.47
260.246	-65.88
260.463	48.81
260.679	128.68
260.895	-16.73
261.112	61.1
261.328	145.06
261.544	13.99
261.761	161.45
261.977	-4.44
262.193	-26.96
262.409	106.15
262.626	48.81
262.842	-55.64
263.058	46.76
263.274	69.29
263.49	93.87
263.707	130.73
263.923	54.95
264.139	-90.45
264.355	102.06
264.571	97.96
264.787	71.34
265.004	136.87
265.22	38.57
265.436	13.99
265.652	30.38
265.868	44.71
266.084	7.85
266.3	97.96
266.516	-29.01
266.732	132.78
266.948	169.64
267.164	36.52
267.38	79.53
267.596	79.53
267.812	241.32
268.028	77.48
268.244	30.38
268.46	69.29
268.676	34.47
268.892	122.54
269.108	-45.4
269.324	7.85
269.54	-10.58
269.756	-0.34
269.972	-65.88
270.188	20.14
270.403	-35.16
270.619	69.29
270.835	114.34
271.051	-88.4
271.267	-37.2
271.483	-0.34
271.698	147.11
271.914	116.39
272.13	44.71
272.346	102.06
272.562	1.71
272.777	106.15
272.993	26.28
273.209	-102.74
273.425	5.8
273.64	-24.92
273.856	79.53
274.072	-2.39
274.287	3.75
274.503	110.25
274.719	83.63
274.934	-8.53
275.15	-57.68
275.366	57
275.581	-12.63
275.797	57
276.012	65.19
276.228	32.43
276.444	42.67
276.659	157.35
276.875	-69.97
277.09	1.71
277.306	57
277.521	22.19
277.737	73.39
277.952	65.19
278.168	18.09
278.383	130.73
278.599	63.15
278.814	93.87
279.03	54.95
279.245	165.54
279.461	9.9
279.676	118.44
279.892	-67.92
280.107	-67.92
280.322	-41.3
280.538	54.95
280.753	-33.11
280.969	50.86
281.184	-10.58
281.399	81.58
281.615	57
281.83	24.23
282.045	-63.83
282.26	-39.25
282.476	-45.4
282.691	75.43
282.906	9.9
283.122	-10.58
283.337	1.71
283.552	97.96
283.767	-31.06
283.983	97.96
284.198	89.77
284.413	3.75
284.628	-0.34
284.843	48.81
285.058	57
285.274	30.38
285.489	24.23
285.704	112.3
285.919	-26.96
286.134	-4.44
286.349	-35.16
286.564	-37.2
286.779	95.91
286.995	63.15
287.21	-37.2
287.425	71.34
287.64	-20.82
287.855	75.43
288.07	-35.16
288.285	132.78
288.5	87.72
288.715	97.96
288.93	132.78
289.145	5.8
289.36	71.34
289.575	48.81
289.79	24.23
290.004	-14.68
290.219	79.53
290.434	-22.87
290.649	75.43
290.864	22.19
291.079	-6.49
291.294	69.29
291.509	69.29
291.724	48.81
291.938	22.19
292.153	-8.53
292.368	-12.63
292.583	40.62
292.798	44.71
293.012	73.39
293.227	50.86
293.442	44.71
293.657	67.24
293.871	134.82
294.086	24.23
294.301	186.02
294.516	95.91
294.73	87.72
294.945	-35.16
295.16	-26.96
295.374	69.29
295.589	167.59
295.804	-2.39
296.018	44.71
296.233	173.74
296.447	89.77
296.662	30.38
296.877	44.71
297.091	46.76
297.306	67.24
297.52	-47.44
297.735	81.58
297.949	122.54
298.164	11.95
298.378	83.63
298.593	22.19
298.807	-69.97
299.022	77.48
299.236	112.3
299.451	44.71
299.665	9.9
299.88	-31.06
300.094	81.58
300.309	40.62
300.523	89.77
300.737	-10.58
300.952	87.72
301.166	3.75
301.381	-31.06
301.595	-14.68
301.809	40.62
302.024	38.57
302.238	-14.68
302.452	155.3
302.667	-12.63
302.881	188.07
303.095	93.87
303.309	54.95
303.524	59.05
303.738	34.47
303.952	-26.96
304.166	155.3
304.381	-88.4
304.595	153.26
304.809	61.1
305.023	18.09
305.237	-14.68
305.452	59.05
305.666	59.05
305.88	40.62
306.094	149.16
306.308	-16.73
306.522	120.49
306.736	30.38
306.95	65.19
307.164	67.24
307.379	5.8
307.593	81.58
307.807	151.21
308.021	67.24
308.235	87.72
308.449	-96.6
308.663	44.71
308.877	204.46
309.091	34.47
309.305	124.58
309.519	-96.6
309.733	38.57
309.947	20.14
310.161	120.49
310.374	95.91
310.588	83.63
310.802	48.81
311.016	-6.49
311.23	100.01
311.444	-45.4
311.658	1.71
311.872	112.3
312.085	36.52
312.299	67.24
312.513	206.5
312.727	59.05
312.941	-26.96
313.154	75.43
313.368	36.52
313.582	-8.53
313.796	75.43
314.009	-102.74
314.223	116.39
314.437	81.58
314.651	97.96
314.864	5.8
315.078	75.43
315.292	-29.01
315.505	-6.49
315.719	79.53
315.933	138.92
316.146	-88.4
316.36	-49.49
316.573	100.01
316.787	87.72
317.001	42.67
317.214	-102.74
317.428	50.86
317.641	-8.53
317.855	-6.49
318.068	75.43
318.282	3.75
318.495	229.03
318.709	40.62
318.922	-2.39
319.136	108.2
319.349	124.58
319.563	-33.11
319.776	32.43
319.99	-57.68
320.203	77.48
320.417	26.28
320.63	124.58
320.843	124.58
321.057	1.71
321.27	-45.4
321.483	100.01
321.697	61.1
321.91	54.95
322.124	32.43
322.337	122.54
322.55	18.09
322.763	36.52
322.977	40.62
323.19	-33.11
323.403	42.67
323.617	77.48
323.83	186.02
324.043	46.76
324.256	61.1
324.469	-2.39
324.683	161.45
324.896	-51.54
325.109	42.67
325.322	-59.73
325.535	63.15
325.748	91.82
325.962	32.43
326.175	46.76
326.388	104.11
326.601	59.05
326.814	1.71
327.027	61.1
327.24	167.59
327.453	-96.6
327.666	65.19
327.879	124.58
328.092	145.06
328.305	71.34
328.518	44.71
328.731	-92.5
328.944	-8.53
329.157	54.95
329.37	30.38
329.583	188.07
329.796	173.74
330.009	-90.45
330.222	126.63
330.435	36.52
330.648	79.53
330.861	44.71
331.073	48.81
331.286	108.2
331.499	5.8
331.712	-74.07
331.925	18.09
332.138	-16.73
332.35	97.96
332.563	-49.49
332.776	140.97
332.989	52.91
333.202	40.62
333.414	79.53
333.627	-8.53
333.84	26.28
334.053	36.52
334.265	54.95
334.478	42.67
334.691	26.28
334.903	36.52
335.116	-37.2
335.329	34.47
335.541	81.58
335.754	177.83
335.966	-4.44
336.179	67.24
336.392	-35.16
336.604	79.53
336.817	54.95
337.029	3.75
337.242	11.95
337.454	42.67
337.667	20.14
337.88	75.43
338.092	81.58
338.305	175.78
338.517	22.19
338.729	54.95
338.942	149.16
339.154	-18.77
339.367	-47.44
339.579	83.63
339.792	-4.44
340.004	73.39
340.217	63.15
340.429	71.34
340.641	-33.11
340.854	-76.12
341.066	32.43
341.278	22.19
341.491	198.31
341.703	13.99
341.915	-26.96
342.128	93.87
342.34	110.25
342.552	-2.39
342.764	11.95
342.977	-33.11
343.189	67.24
343.401	11.95
343.613	-78.16
343.826	81.58
344.038	-14.68
344.25	112.3
344.462	57
344.674	89.77
344.886	-12.63
345.099	-51.54
345.311	81.58
345.523	-12.63
345.735	-2.39
345.947	114.34
346.159	44.71
346.371	44.71
346.583	42.67
346.795	190.12
347.007	50.86
347.219	40.62
347.431	65.19
347.643	63.15
347.855	-29.01
348.067	77.48
348.279	-61.78
348.491	71.34
348.703	114.34
348.915	-8.53
349.127	3.75
349.339	93.87
349.551	5.8
349.763	71.34
349.975	54.95
350.187	112.3
350.399	198.31
350.61	104.11
350.822	-16.73
351.034	50.86
351.246	11.95
351.458	50.86
351.669	71.34
351.881	91.82
352.093	155.3
352.305	65.19
352.517	71.34
352.728	114.34
352.94	65.19
353.152	54.95
353.363	-35.16
353.575	63.15
353.787	73.39
353.999	18.09
354.21	186.02
354.422	11.95
354.633	-6.49
354.845	63.15
355.057	22.19
355.268	-8.53
355.48	218.79
355.692	-29.01
355.903	16.04
356.115	22.19
356.326	-45.4
356.538	153.26
356.749	147.11
356.961	147.11
357.172	-41.3
357.384	-65.88
357.595	253.61
357.807	-4.44
358.018	13.99
358.23	46.76
358.441	130.73
358.653	57
358.864	46.76
359.075	-14.68
359.287	65.19
359.498	71.34
359.709	93.87
359.921	54.95
360.132	65.19
360.344	11.95
360.555	-35.16
360.766	83.63
360.977	-51.54
361.189	97.96
361.4	48.81
361.611	112.3
361.823	126.63
362.034	24.23
362.245	-78.16
362.456	-57.68
362.667	32.43
362.879	-0.34
363.09	1.71
363.301	54.95
363.512	20.14
363.723	22.19
363.935	38.57
364.146	116.39
364.357	-22.87
364.568	69.29
364.779	-112.98
364.99	179.88
365.201	20.14
365.412	77.48
365.623	-102.74
365.834	61.1
366.045	7.85
366.256	116.39
366.467	22.19
366.678	11.95
366.889	-8.53
367.1	11.95
367.311	100.01
367.522	-55.64
367.733	28.33
367.944	108.2
368.155	-2.39
368.366	-20.82
368.577	147.11
368.788	61.1
368.999	22.19
369.209	40.62
369.42	229.03
369.631	261.8
369.842	91.82
370.053	-16.73
370.264	128.68
370.474	-33.11
370.685	26.28
370.896	67.24
371.107	95.91
371.317	102.06
371.528	95.91
371.739	196.26
371.95	75.43
372.16	110.25
372.371	-4.44
372.582	18.09
372.792	85.67
373.003	87.72
373.214	89.77
373.424	81.58
373.635	-49.49
373.846	116.39
374.056	1.71
374.267	112.3
374.477	-12.63
374.688	-37.2
374.898	52.91
375.109	42.67
375.319	22.19
375.53	52.91
375.74	42.67
375.951	75.43
376.161	38.57
376.372	46.76
376.582	18.09
376.793	69.29
377.003	-26.96
377.214	28.33
377.424	71.34
377.635	52.91
377.845	32.43
378.055	102.06
378.266	11.95
378.476	97.96
378.686	69.29
378.897	1.71
379.107	104.11
379.317	40.62
379.528	-20.82
379.738	87.72
379.948	20.14
380.158	93.87
380.369	36.52
380.579	59.05
380.789	28.33
380.999	30.38
381.21	89.77
381.42	157.35
381.63	69.29
381.84	61.1
382.05	169.64
382.261	81.58
382.471	126.63
382.681	-8.53
382.891	200.36
383.101	69.29
383.311	-20.82
383.521	3.75
383.731	163.5
383.941	114.34
384.151	-14.68
384.361	-0.34
384.571	85.67
384.781	38.57
384.991	183.98
385.201	190.12
385.411	130.73
385.621	42.67
385.831	52.91
386.041	20.14
386.251	-10.58
386.461	97.96
386.671	28.33
386.881	69.29
387.091	69.29
387.301	71.34
387.511	1.71
387.72	106.15
387.93	63.15
388.14	-139.6
388.35	79.53
388.56	89.77
388.769	124.58
388.979	89.77
389.189	-20.82
389.399	69.29
389.609	79.53
389.818	48.81
390.028	-6.49
390.238	48.81
390.447	22.19
390.657	106.15
390.867	40.62
391.076	-65.88
391.286	38.57
391.496	-43.35
391.705	7.85
391.915	93.87
392.125	77.48
392.334	75.43
392.544	151.21
392.753	7.85
392.963	30.38
393.172	63.15
393.382	-18.77
393.591	235.18
393.801	-12.63
394.01	175.78
394.22	69.29
394.429	69.29
394.639	34.47
394.848	48.81
395.058	114.34
395.267	71.34
395.477	40.62
395.686	-16.73
395.895	206.5
396.105	118.44
396.314	97.96
396.524	65.19
396.733	11.95
396.942	147.11
397.152	104.11
397.361	126.63
397.57	65.19
397.78	-0.34
397.989	57
398.198	106.15
398.407	1.71
398.617	75.43
398.826	20.14
399.035	61.1
399.244	149.16
399.453	73.39
399.663	26.28
399.872	18.09
400.081	-37.2
400.29	175.78
400.499	26.28
400.708	149.16
400.917	22.19
401.127	5.8
401.336	-53.59
401.545	161.45
401.754	126.63
401.963	190.12
402.172	1.71
402.381	-0.34
402.59	9.9
402.799	-35.16
403.008	151.21
403.217	116.39
403.426	100.01
403.635	24.23
403.844	22.19
404.053	30.38
404.262	-35.16
404.471	186.02
404.68	16.04
404.888	50.86
405.097	24.23
405.306	63.15
405.515	173.74
405.724	67.24
405.933	112.3
406.142	102.06
406.35	97.96
406.559	16.04
406.768	89.77
406.977	120.49
407.185	59.05
407.394	149.16
407.603	-26.96
407.812	93.87
408.02	169.64
408.229	9.9
408.438	28.33
408.646	-61.78
408.855	11.95
409.064	87.72
409.272	95.91
409.481	108.2
409.69	38.57
409.898	-0.34
410.107	32.43
410.315	167.59
410.524	20.14
410.733	75.43
410.941	40.62
411.15	116.39
411.358	81.58
411.567	134.82
411.775	13.99
411.984	61.1
412.192	71.34
412.401	-35.16
412.609	140.97
412.818	93.87
413.026	112.3
413.234	24.23
413.443	7.85
413.651	-6.49
413.86	36.52
414.068	200.36
414.276	114.34
414.485	-51.54
414.693	188.07
414.901	229.03
415.11	61.1
415.318	63.15
415.526	59.05
415.734	159.4
415.943	54.95
416.151	67.24
416.359	40.62
416.567	65.19
416.776	77.48
416.984	75.43
417.192	175.78
417.4	16.04
417.608	-4.44
417.817	-26.96
418.025	97.96
418.233	83.63
418.441	9.9
418.649	18.09
418.857	95.91
419.065	190.12
419.273	67.24
419.481	32.43
419.689	-10.58
419.897	116.39
420.105	-43.35
420.313	69.29
420.521	177.83
420.729	120.49
420.937	67.24
421.145	42.67
421.353	106.15
421.561	155.3
421.769	63.15
421.977	-72.02
422.185	157.35
422.393	79.53
422.601	134.82
422.809	91.82
423.017	97.96
423.224	104.11
423.432	114.34
423.64	-14.68
423.848	138.92
424.056	-12.63
424.263	134.82
424.471	63.15
424.679	147.11
424.887	-8.53
425.094	75.43
425.302	83.63
425.51	69.29
425.718	157.35
425.925	59.05
426.133	61.1
426.341	151.21
426.548	20.14
426.756	61.1
426.964	89.77
427.171	89.77
427.379	97.96
427.586	50.86
427.794	194.22
428.001	181.93
428.209	95.91
428.417	95.91
428.624	85.67
428.832	95.91
429.039	122.54
429.247	134.82
429.454	114.34
429.662	175.78
429.869	120.49
430.076	95.91
430.284	104.11
430.491	192.17
430.699	173.74
430.906	177.83
431.114	118.44
431.321	83.63
431.528	46.76
431.736	95.91
431.943	163.5
432.15	183.98
432.358	157.35
432.565	198.31
432.772	89.77
432.979	284.33
433.187	85.67
433.394	155.3
433.601	97.96
433.808	263.85
434.016	159.4
434.223	261.8
434.43	171.69
434.637	280.23
434.844	218.79
435.052	235.18
435.259	272.04
435.466	278.18
435.673	175.78
435.88	286.37
436.087	337.57
436.294	399.01
436.501	333.48
436.708	276.13
436.915	294.57
437.122	378.53
437.329	196.26
437.537	292.52
437.743	384.68
437.95	444.07
438.157	282.28
438.364	304.81
438.571	374.44
438.778	319.14
438.985	485.03
439.192	468.64
439.399	368.29
439.606	485.03
439.813	568.99
440.02	562.85
440.227	642.72
440.433	599.71
440.64	476.84
440.847	386.72
441.054	609.95
441.261	695.97
441.467	665.25
441.674	587.43
441.881	689.82
442.088	755.36
442.294	663.2
442.501	728.74
442.708	857.76
442.914	788.13
443.121	788.13
443.328	824.99
443.534	892.57
443.741	906.91
443.948	820.89
444.154	945.82
444.361	1091.23
444.568	976.54
444.774	1023.64
444.981	956.06
445.187	1158.81
445.394	1054.36
445.6	1107.61
445.807	1261.21
446.013	1177.24
446.22	1119.9
446.426	1312.41
446.633	1351.32
446.839	1642.13
447.046	1308.31
447.252	1592.98
447.459	1455.76
447.665	1605.27
447.871	1740.43
448.078	1805.97
448.284	1814.16
448.491	1844.88
448.697	2041.48
448.903	2152.07
449.11	2031.24
449.316	2045.58
449.522	2227.85
449.728	2315.91
449.935	2496.13
450.141	2463.37
450.347	2709.12
450.553	2541.19
450.76	2627.2
450.966	2866.81
451.172	2795.14
451.378	2967.17
451.584	2991.74
451.791	3313.27
451.997	3210.87
452.203	3380.86
452.409	3546.74
452.615	3720.82
452.821	3495.54
453.027	3638.9
453.233	4136.56
453.44	3978.86
453.646	4206.19
453.852	4433.51
454.058	4480.61
454.264	4525.67
454.47	5056.09
454.676	4947.55
454.882	5443.16
455.088	5281.37
455.294	5498.45
455.5	5819.99
455.705	6278.73
455.911	6350.41
456.117	6288.97
456.323	6549.06
456.529	6461
456.735	7343.67
456.941	7544.38
457.147	7593.53
457.352	7915.06
457.558	7827
457.764	8502.82
457.97	8633.89
458.176	9111.07
458.381	9520.67
458.587	9920.02
458.793	10274.32
458.999	10173.97
459.204	11492.86
459.41	11957.75
459.616	11707.9
459.821	12471.79
460.027	13034.98
460.233	13469.15
460.438	13508.06
460.644	14577.1
460.85	14833.1
461.055	15254.98
461.261	15996.34
461.466	15658.43
461.672	15859.13
461.878	17847.71
462.083	17442.21
462.289	17841.56
462.494	18515.34
462.7	18912.65
462.905	18965.9
463.111	20622.7
463.316	21542.24
463.522	21949.79
463.727	22584.66
463.932	23561.54
464.138	24278.33
464.343	25158.95
464.549	25380.14
464.754	27096.33
464.959	27911.42
465.165	28241.15
465.37	28378.36
465.575	28175.61
465.781	30446.81
465.986	31157.46
466.191	30694.61
466.397	30940.37
466.602	29746.4
466.807	31800.52
467.012	32232.64
467.218	32990.39
467.423	33160.37
467.628	34055.33
467.833	35611.79
468.038	35001.49
468.244	34542.75
468.449	35779.72
468.654	35392.65
468.859	35320.98
469.064	35423.37
469.269	34692.25
469.474	35253.39
469.679	36043.91
469.885	34587.8
470.09	35349.65
470.295	35056.79
470.5	34444.45
470.705	34770.07
470.91	34098.34
471.115	33789.1
471.32	34284.7
471.525	34305.18
471.73	32840.89
471.935	32902.32
472.139	31597.77
472.344	31560.91
472.549	31245.52
472.754	31145.17
472.959	29955.3
473.164	29236.46
473.369	28695.8
473.574	29766.88
473.778	28947.7
473.983	28372.22
474.188	27667.72
474.393	26555.67
474.598	26486.04
474.802	26049.82
475.007	25998.62
475.212	25556.26
475.417	24481.08
475.621	23971.13
475.826	23975.23
476.031	23309.64
476.235	22875.47
476.44	22867.28
476.645	22289.75
476.849	22031.71
477.054	21663.07
477.259	21093.74
477.463	21298.53
477.668	20766.06
477.872	20473.2
478.077	19998.07
478.282	19295.62
478.486	19105.16
478.691	18984.33
478.895	18691.47
479.1	18468.24
479.304	18652.56
479.509	17923.48
479.713	18343.31
479.918	17814.94
480.122	17606.05
480.326	17620.38
480.531	17526.18
480.735	16999.85
480.94	16915.88
481.144	17372.58
481.348	16457.14
481.553	16838.06
481.757	16537.01
481.961	16633.26
482.166	16469.42
482.37	16250.29
482.574	15953.34
482.778	15977.91
482.983	16086.45
483.187	15728.06
483.391	15861.18
483.595	15275.46
483.8	15244.74
484.004	15316.42
484.208	15340.99
484.412	14908.87
484.616	14910.92
484.821	14720.46
485.025	14097.88
485.229	14499.28
485.433	14298.58
485.637	14099.92
485.841	13772.25
486.045	13784.54
486.249	13348.32
486.453	13288.93
486.657	13151.71
486.861	12819.94
487.065	12522.99
487.269	12535.28
487.473	12076.53
487.677	12211.7
487.881	12133.87
488.085	11652.6
488.289	11597.31
488.493	11290.11
488.697	11484.67
488.901	11259.39
489.105	10747.4
489.309	10835.46
489.512	10604.04
489.716	10087.95
489.92	10233.36
490.124	9821.72
490.328	9946.64
490.531	9553.43
490.735	9481.75
490.939	9297.44
491.143	9168.41
491.346	8990.24
491.55	8814.12
491.754	8588.84
491.958	8662.57
492.161	8310.32
492.365	8312.36
492.569	8285.74
492.772	8093.23
492.976	7931.44
493.18	7695.93
493.383	7732.79
493.587	7640.63
493.79	7734.84
493.994	7317.05
494.197	7255.61
494.401	7278.14
494.605	7169.6
494.808	7124.54
495.012	7046.72
495.215	7251.52
495.419	7013.95
495.622	7042.62
495.825	6905.41
496.029	6823.49
496.232	7028.29
496.436	6825.54
496.639	6856.26
496.843	6903.36
497.046	6762.05
497.249	7003.71
497.453	6923.84
497.656	6854.21
497.859	6831.68
498.063	6741.57
498.266	6989.38
498.469	6749.76
498.673	6768.2
498.876	6862.4
499.079	6852.16
499.282	6866.5
499.485	7157.31
499.689	7032.38
499.892	7120.45
500.095	6936.13
500.298	7059.01
500.501	7083.58
500.705	7405.11
500.908	7253.56
501.111	7327.29
501.314	7515.7
501.517	7650.87
501.72	7622.2
501.923	7556.66
502.126	7609.91
502.329	7986.74
502.532	7835.19
502.735	7966.26
502.938	8134.19
503.141	8091.18
503.344	8214.06
503.547	8447.53
503.75	8486.44
503.953	8461.87
504.156	8695.33
504.359	8744.49
504.562	8642.09
504.765	9029.15
504.968	9387.55
505.17	9258.53
505.373	9508.38
505.576	9764.37
505.779	9678.36
505.982	9842.2
506.185	10126.86
506.387	10210.83
506.59	10499.59
506.793	10700.3
506.996	10673.67
507.198	11128.32
507.401	11097.6
507.604	11503.1
507.807	11824.63
508.009	11812.34
508.212	11974.13
508.415	12293.62
508.617	12533.23
508.82	12748.26
509.022	12764.65
509.225	13358.56
509.428	13299.17
509.63	13751.77
509.833	13874.65
510.035	14706.12
510.238	14558.67
510.44	15076.8
510.643	15549.89
510.845	15656.38
511.048	15910.33
511.25	16473.52
511.453	16844.2
511.655	17462.69
511.858	17565.09
512.06	17798.56
512.262	18283.92
512.465	18271.64
512.667	18998.66
512.87	19637.63
513.072	19895.68
513.274	20473.2
513.477	20972.91
513.679	21462.37
513.881	21847.39
514.084	22289.75
514.286	22648.15
514.488	23491.91
514.69	23913.79
514.893	24358.2
515.095	24673.59
515.297	25539.88
515.499	25931.04
515.701	26078.49
515.904	27200.78
516.106	27233.55
516.308	28022.02
516.51	28669.17
516.712	29031.66
516.914	29834.47
517.116	30622.94
517.318	31130.83
517.52	31622.34
517.722	31769.8
517.925	32834.74
518.127	33567.91
518.329	33844.39
518.531	33920.17
518.733	35146.9
518.935	35845.26
519.136	35947.65
519.338	36510.85
519.54	37057.65
519.742	37952.62
519.944	38259.81
520.146	39228.5
520.348	39834.7
520.55	39984.2
520.752	40176.71
520.954	41552.94
521.155	41241.65
521.357	42263.59
521.559	42593.31
521.761	43140.12
521.963	43324.44
522.164	43856.91
522.366	44444.68
522.568	44862.46
522.77	45124.6
522.971	45956.08
523.173	45591.54
523.375	46420.97
523.576	46337
523.778	46210.03
523.98	47127.52
524.181	47369.18
524.383	47518.68
524.584	48204.75
524.786	47778.77
524.988	46982.11
525.189	48206.8
525.391	48069.58
525.592	47809.49
525.794	48167.88
525.995	48325.58
526.197	47942.61
526.398	48171.98
526.6	48126.92
526.801	47748.05
527.003	47897.55
527.204	47430.61
527.406	47991.76
527.607	47602.64
527.808	47557.59
528.01	46408.68
528.211	47006.69
528.412	47258.59
528.614	46668.77
528.815	46357.48
529.016	46291.94
529.218	45206.52
529.419	45245.43
529.62	44940.28
529.822	44309.51
530.023	43865.1
530.224	43721.74
530.425	43422.74
530.626	42564.64
530.828	42181.67
531.029	42558.5
531.23	41155.64
531.431	41165.88
531.632	40746.04
531.833	40576.06
532.035	39625.81
532.236	39160.92
532.437	39466.06
532.638	38683.74
532.839	37919.85
533.04	37682.28
533.241	36752.51
533.442	37127.28
533.643	36289.66
533.844	35740.81
534.045	35603.6
534.246	34770.07
534.447	34757.78
534.648	33922.21
534.849	33752.23
535.05	32836.79
535.251	33021.11
535.451	32277.69
535.652	32025.79
535.853	31263.95
536.054	30878.93
536.255	30819.54
536.456	30059.74
536.657	30162.14
536.857	29390.06
537.058	29043.95
537.259	28888.31
537.46	28464.38
537.66	27653.38
537.861	27680
538.062	27409.67
538.263	26875.15
538.463	26680.6
538.664	26195.23
538.865	26021.15
539.065	25945.37
539.266	25156.91
539.466	25115.95
539.667	24552.76
539.868	24315.19
540.068	23977.28
540.269	23778.62
540.469	23450.95
540.67	23141.71
540.87	22891.85
541.071	22482.26
541.271	22685.01
541.472	22033.75
541.672	21732.7
541.873	21620.06
542.073	21314.92
542.274	21261.67
542.474	20749.68
542.675	20917.61
542.875	20370.8
543.075	20192.63
543.276	19836.28
543.476	19897.72
543.676	19731.84
543.877	19557.76
544.077	19250.56
544.277	19010.95
544.478	18687.37
544.678	18699.66
544.878	18445.71
545.078	18173.33
545.279	17761.69
545.479	17739.16
545.679	17560.99
545.879	17249.7
546.079	17159.59
546.28	16635.31
546.48	16479.66
546.68	16717.23
546.88	16235.95
547.08	15986.1
547.28	16018.87
547.48	15586.75
547.68	15818.17
547.88	15146.44
548.081	15230.4
548.281	14761.42
548.481	14802.38
548.681	14626.25
548.881	14613.96
549.081	14323.15
549.28	14028.24
549.48	13913.56
549.68	13622.75
549.88	13751.77
550.08	13094.37
550.28	13106.66
550.48	13043.17
550.68	13030.88
550.88	12455.4
551.08	12525.04
551.279	12283.38
551.479	11920.88
551.679	11875.83
551.879	11890.17
552.079	11525.63
552.278	11419.13
552.478	11208.19
552.678	11042.31
552.878	11234.82
553.077	10872.32
553.277	10462.73
553.477	10448.4
553.676	10350.09
553.876	10116.62
554.076	9920.02
554.275	9690.65
554.475	9494.04
554.674	9733.65
554.874	9322.01
555.074	9121.31
555.273	9106.98
555.473	9041.44
555.672	8523.3
555.872	8558.12
556.071	8492.59
556.271	8615.46
556.47	8173.1
556.67	8097.33
556.869	7865.91
557.068	7855.67
557.268	7509.56
557.467	7585.33
557.667	7659.06
557.866	7364.15
558.065	7114.3
558.265	6905.41
558.464	6868.55
558.663	6942.27
558.863	6671.94
559.062	6770.24
559.261	6594.12
559.461	6534.73
559.66	6235.72
559.859	6112.85
560.058	6045.26
560.258	5842.51
560.457	5889.62
560.656	6047.31
560.855	5549.65
561.054	5715.54
561.253	5611.09
561.453	5529.17
561.652	5232.22
561.851	5389.91
562.05	5144.16
562.249	5162.59
562.448	5135.96
562.647	4996.7
562.846	4763.23
563.045	4925.02
563.244	4841.06
563.443	4890.21
563.642	4519.53
563.841	4669.03
564.04	4511.33
564.239	4460.13
564.438	4300.39
564.637	4281.96
564.836	4157.04
565.035	4161.13
565.234	4009.58
565.432	4046.44
565.631	4038.25
565.83	3798.64
566.029	3878.51
566.228	3681.91
566.427	3849.84
566.625	3489.4
566.824	3585.65
567.023	3597.94
567.222	3554.93
567.42	3610.23
567.619	3466.87
567.818	3382.9
568.016	3507.83
568.215	3378.81
568.414	3276.41
568.612	3311.22
568.811	3067.52
569.01	3083.9
569.208	3073.66
569.407	3067.52
569.605	2885.25
569.804	3040.89
570.002	2922.11
570.201	2961.02
570.4	2774.66
570.598	2721.41
570.797	2739.84
570.995	2639.49
571.193	2565.76
571.392	2690.69
571.59	2408.07
571.789	2557.57
571.987	2588.29
572.186	2715.27
572.384	2356.87
572.582	2313.86
572.781	2401.93
572.979	2098.83
573.177	2268.81
573.376	2264.71
573.574	2250.38
573.772	2207.37
573.971	1994.38
574.169	1939.09
574.367	2176.65
574.565	1943.18
574.763	2000.52
574.962	1947.28
575.16	1971.85
575.358	1916.56
575.556	1781.39
575.754	1793.68
575.952	1713.81
576.151	1758.86
576.349	1783.44
576.547	1656.47
576.745	1838.73
576.943	1705.62
577.141	1670.8
577.339	1521.3
577.537	1615.51
577.735	1615.51
577.933	1609.36
578.131	1437.33
578.329	1566.35
578.527	1443.48
578.725	1441.43
578.923	1326.74
579.121	1455.76
579.319	1236.63
579.516	1269.4
579.714	1455.76
579.912	1363.61
580.11	1212.06
580.308	1296.02
580.506	1212.06
580.704	1062.55
580.901	1144.47
581.099	1355.41
581.297	1158.81
581.495	1316.5
581.692	1056.41
581.89	1363.61
582.088	1162.9
582.285	1136.28
582.483	1099.42
582.681	1044.12
582.878	1130.14
583.076	1031.83
583.274	1080.99
583.471	1156.76
583.669	915.1
583.866	988.83
584.064	984.73
584.262	827.04
584.459	937.63
584.657	956.06
584.854	990.88
585.052	984.73
585.249	956.06
585.447	915.1
585.644	771.74
585.841	970.4
586.039	937.63
586.236	956.06
586.434	880.29
586.631	743.07
586.828	790.17
587.026	870.05
587.223	673.44
587.42	738.98
587.618	796.32
587.815	804.51
588.012	730.78
588.21	638.62
588.407	661.15
588.604	747.17
588.801	652.96
588.999	773.79
589.196	796.32
589.393	640.67
589.59	603.81
589.787	738.98
589.984	695.97
590.182	730.78
590.379	579.23
590.576	605.86
590.773	667.3
590.97	603.81
591.167	624.29
591.364	667.3
591.561	599.71
591.758	681.63
591.955	591.52
592.152	587.43
592.349	620.19
592.546	671.39
592.743	612
592.94	622.24
593.137	722.59
593.334	710.3
593.531	673.44
593.727	685.73
593.924	624.29
594.121	652.96
594.318	577.19
594.515	695.97
594.712	775.84
594.908	728.74
595.105	552.61
595.302	755.36
595.499	671.39
595.696	839.33
595.892	599.71
596.089	749.22
596.286	798.37
596.482	792.22
596.679	792.22
596.876	730.78
597.072	831.13
597.269	798.37
597.466	849.57
597.662	868
597.859	853.66
598.055	958.11
598.252	824.99
598.448	964.25
598.645	1056.41
598.841	1078.94
599.038	1207.96
599.234	1195.67
599.431	1101.47
599.627	1185.43
599.824	1361.56
600.02	1269.4
600.217	1263.26
600.413	1449.62
600.609	1416.85
600.806	1658.51
601.002	1574.55
601.198	1511.06
601.395	1775.25
601.591	1734.29
601.787	1785.49
601.984	1818.25
602.18	1934.99
602.376	1881.74
602.572	2135.69
602.769	2145.93
602.965	2188.94
603.161	2309.77
603.357	2424.45
603.553	2528.9
603.75	2444.93
603.946	2619.01
604.142	2723.46
604.338	2877.05
604.534	3030.65
604.73	2891.39
604.926	3024.51
605.122	3223.16
605.318	3257.98
605.514	3337.85
605.71	3395.19
605.906	3581.56
606.102	3581.56
606.298	3886.7
606.494	3937.9
606.69	4083.31
606.886	4109.93
607.082	4243.05
607.278	4398.7
607.474	4609.64
607.67	4712.03
607.866	4574.82
608.062	4982.37
608.257	4927.07
608.453	5054.05
608.649	5234.27
608.845	5201.5
609.041	5482.07
609.236	5819.99
609.432	5918.29
609.628	5975.63
609.824	6135.37
610.019	6526.54
610.215	6487.62
610.411	6700.61
610.606	6874.69
610.802	7013.95
610.998	7243.32
611.193	7405.11
611.389	7810.61
611.584	8039.98
611.78	7876.15
611.976	8105.52
612.171	8687.14
612.367	8707.62
612.562	8754.73
612.758	8965.67
612.953	9074.21
613.149	9625.11
613.344	9713.17
613.539	10212.88
613.735	10323.47
613.93	10716.68
614.126	10657.29
614.321	11566.59
614.517	11634.17
614.712	11867.64
614.907	11900.41
615.103	12369.39
615.298	12477.93
615.493	13002.21
615.688	13237.73
615.884	14034.39
616.079	13852.12
616.274	14573
616.47	14603.72
616.665	15091.14
616.86	15463.87
617.055	15791.55
617.25	15959.48
617.445	16539.05
617.641	16731.56
617.836	17499.55
618.031	17634.72
618.226	18519.44
618.421	18642.32
618.616	19262.85
618.811	19502.47
619.006	20116.86
619.201	20018.55
619.396	20770.16
619.591	21028.2
619.786	21761.37
619.981	21962.08
620.176	22515.03
620.371	23024.97
620.566	23588.16
620.761	24014.14
620.956	24560.95
621.151	24962.35
621.346	25771.3
621.541	25654.56
621.735	26608.92
621.93	26750.23
622.125	27512.07
622.32	27579.65
622.515	28437.75
622.709	28941.55
622.904	29308.14
623.099	30065.89
623.294	30555.35
623.488	30858.45
623.683	31298.77
623.878	31511.75
624.072	32500.92
624.267	32556.22
624.462	33242.29
624.656	33694.89
624.851	34544.8
625.046	34866.33
625.24	35624.08
625.435	35609.74
625.629	36170.88
625.824	36936.82
626.018	37266.55
626.213	37071.99
626.407	38511.71
626.602	37825.64
626.796	39269.46
626.991	39201.88
627.185	39615.57
627.38	39316.56
627.574	39853.13
627.768	39906.38
627.963	40483.9
628.157	40062.02
628.352	40877.11
628.546	40354.88
628.74	40959.03
628.935	40399.94
629.129	40811.58
629.323	40483.9
629.517	40096.84
629.712	40219.72
629.906	39892.04
630.1	39035.99
630.294	39216.21
630.489	38392.93
630.683	38681.69
630.877	37567.6
631.071	36942.97
631.265	36557.95
631.459	35888.26
631.653	34921.62
631.848	34612.38
632.042	33744.04
632.236	33490.09
632.43	31884.48
632.624	31296.72
632.818	30244.06
633.012	29084.91
633.206	28368.12
633.4	27483.4
633.594	26721.55
633.788	25865.5
633.982	24935.73
634.176	24227.13
634.369	23027.02
634.563	22351.19
634.757	21323.11
634.951	20596.08
635.145	19809.66
635.339	19203.46
635.533	18331.03
635.726	17788.32
635.92	16653.74
636.114	16215.48
636.308	15533.5
636.501	15166.92
636.695	14192.08
636.889	13684.19
637.083	13301.22
637.276	12527.08
637.47	12017.14
637.664	11515.39
637.857	11165.18
638.051	10958.34
638.244	10348.04
638.438	9811.48
638.632	9502.23
638.825	8941.09
639.019	8918.56
639.212	8375.85
639.406	8230.45
639.599	7781.94
639.793	7444.03
639.986	7165.5
640.18	7024.19
640.373	6651.46
640.567	6288.97
640.76	6096.46
640.954	5908.05
641.147	5725.78
641.34	5496.41
641.534	5480.02
641.727	5086.81
641.92	4855.39
642.114	4798.05
642.307	4449.89
642.5	4357.74
642.694	4154.99
642.887	4042.35
643.08	3987.05
643.273	3763.83
643.467	3696.24
643.66	3354.23
643.853	3325.56
644.046	3298.94
644.239	3088
644.432	2887.29
644.626	2741.89
644.819	2815.62
645.012	2553.48
645.205	2514.56
645.398	2545.28
645.591	2377.35
645.784	2113.16
645.977	2150.03
646.17	2066.06
646.363	1969.8
646.556	1787.54
646.749	1670.8
646.942	1752.72
647.135	1662.61
647.328	1697.42
647.521	1568.4
647.714	1511.06
647.907	1506.96
648.099	1336.98
648.292	1388.18
648.485	1312.41
648.678	1195.67
648.871	1132.19
649.064	1162.9
649.256	1064.6
649.449	1021.6
649.642	847.52
649.835	929.44
650.027	947.87
650.22	999.07
650.413	906.91
650.605	902.81
650.798	796.32
650.991	812.7
651.183	833.18
651.376	763.55
651.568	843.42
651.761	652.96
651.954	771.74
652.146	624.29
652.339	718.5
652.531	667.3
652.724	630.43
652.916	595.62
653.109	581.28
653.301	636.58
653.494	612
653.686	538.27
653.879	673.44
654.071	497.32
654.263	456.36
654.456	435.88
654.648	571.04
654.84	534.18
655.033	370.34
655.225	499.36
655.417	319.14
655.61	548.51
655.802	452.26
655.994	532.13
656.186	327.33
656.379	405.16
656.571	220.84
656.763	325.29
656.955	341.67
657.148	376.48
657.34	378.53
657.532	343.72
657.724	216.74
657.916	290.47
658.108	376.48
658.3	399.01
658.492	343.72
658.684	169.64
658.876	302.76
659.068	231.08
659.26	151.21
659.452	167.59
659.644	272.04
659.836	386.72
660.028	245.41
660.22	237.22
660.412	259.75
660.604	253.61
660.796	169.64
660.988	321.19
661.18	194.22
661.372	265.89
661.563	198.31
661.755	261.8
661.947	177.83
662.139	69.29
662.331	200.36
662.522	235.18
662.714	169.64
662.906	202.41
663.097	167.59
663.289	192.17
663.481	83.63
663.673	212.65
663.864	159.4
664.056	143.02
664.247	116.39
664.439	339.62
664.631	151.21
664.822	186.02
665.014	175.78
665.205	173.74
665.397	138.92
665.588	229.03
665.78	132.78
665.971	292.52
666.163	54.95
666.354	229.03
666.546	108.2
666.737	120.49
666.929	95.91
667.12	136.87
667.311	218.79
667.503	67.24
667.694	134.82
667.885	159.4
668.077	222.89
668.268	9.9
668.459	126.63
668.651	198.31
668.842	194.22
669.033	132.78
669.224	110.25
669.416	298.66
669.607	32.43
669.798	85.67
669.989	194.22
670.18	128.68
670.371	161.45
670.563	54.95
670.754	216.74
670.945	122.54
671.136	175.78
671.327	89.77
671.518	194.22
671.709	259.75
671.9	140.97
672.091	173.74
672.282	79.53
672.473	169.64
672.664	91.82
672.855	102.06
673.046	134.82
673.237	155.3
673.428	206.5
673.619	118.44
673.809	136.87
674	212.65
674.191	269.99
674.382	157.35
674.573	169.64
674.764	157.35
674.954	204.46
675.145	102.06
675.336	59.05
675.527	120.49
675.717	71.34
675.908	110.25
676.099	122.54
676.289	149.16
676.48	38.57
676.671	126.63
676.861	173.74
677.052	165.54
677.243	175.78
677.433	177.83
677.624	259.75
677.814	206.5
678.005	190.12
678.195	325.29
678.386	120.49
678.576	100.01
678.767	161.45
678.957	175.78
679.148	177.83
679.338	269.99
679.529	167.59
679.719	126.63
679.909	226.98
680.1	278.18
680.29	169.64
680.481	77.48
680.671	198.31
680.861	143.02
681.052	261.8
681.242	128.68
681.432	272.04
681.622	159.4
681.813	83.63
682.003	145.06
682.193	110.25
682.383	202.41
682.573	222.89
682.764	81.58
682.954	282.28
683.144	167.59
683.334	48.81
683.524	179.88
683.714	169.64
683.904	235.18
684.094	188.07
684.284	143.02
684.474	343.72
684.664	259.75
684.854	298.66
685.044	181.93
685.234	253.61
685.424	181.93
685.614	241.32
685.804	366.25
685.994	220.84
686.184	233.13
686.374	272.04
686.564	175.78
686.753	216.74
686.943	151.21
687.133	138.92
687.323	177.83
687.513	245.41
687.702	214.7
687.892	192.17
688.082	243.37
688.272	292.52
688.461	306.85
688.651	364.2
688.841	241.32
689.03	235.18
689.22	261.8
689.41	210.6
689.599	259.75
689.789	93.87
689.979	329.38
690.168	210.6
690.358	333.48
690.547	216.74
690.737	181.93
690.926	251.56
691.116	265.89
691.305	229.03
691.495	296.61
691.684	128.68
691.874	220.84
692.063	134.82
692.252	302.76
692.442	192.17
692.631	136.87
692.82	210.6
693.01	226.98
693.199	188.07
693.388	198.31
693.578	173.74
693.767	206.5
693.956	343.72
694.146	165.54
694.335	265.89
694.524	255.65
694.713	214.7
694.902	157.35
695.092	161.45
695.281	288.42
695.47	179.88
695.659	34.47
695.848	212.65
696.037	75.43
696.226	226.98
696.415	145.06
696.604	278.18
696.793	226.98
696.982	151.21
697.171	321.19
697.36	171.69
697.549	186.02
697.738	85.67
697.927	95.91
698.116	151.21
698.305	249.51
698.494	218.79
698.683	159.4
698.872	362.15
699.061	214.7
699.25	181.93
699.438	204.46
699.627	183.98
699.816	335.53
700.005	79.53
700.193	179.88
700.382	224.94
700.571	159.4
700.76	171.69
700.948	224.94
701.137	245.41
701.326	179.88
701.514	114.34
701.703	186.02
701.892	216.74
702.08	366.25
702.269	229.03
702.457	147.11
702.646	200.36
702.834	143.02
703.023	267.94
703.212	280.23
703.4	186.02
703.589	120.49
703.777	161.45
703.965	212.65
704.154	71.34
704.342	108.2
704.531	149.16
704.719	198.31
704.907	175.78
705.096	149.16
705.284	48.81
705.472	183.98
705.661	222.89
705.849	229.03
706.037	247.46
706.226	159.4
706.414	200.36
706.602	77.48
706.79	288.42
706.979	196.26
707.167	282.28
707.355	95.91
707.543	239.27
707.731	181.93
707.919	100.01
708.107	132.78
708.296	50.86
708.484	130.73
708.672	163.5
708.86	167.59
709.048	128.68
709.236	104.11
709.424	149.16
709.612	214.7
709.8	77.48
709.988	194.22
710.176	224.94
710.364	313
710.551	173.74
710.739	216.74
710.927	153.26
711.115	204.46
711.303	214.7
711.491	231.08
711.679	151.21
711.866	245.41
712.054	106.15
712.242	282.28
712.43	321.19
712.617	97.96
712.805	245.41
712.993	147.11
713.181	112.3
713.368	171.69
713.556	183.98
713.744	79.53
713.931	407.2
714.119	208.55
714.306	198.31
714.494	112.3
714.682	204.46
714.869	95.91
715.057	167.59
715.244	3.75
715.432	229.03
715.619	97.96
715.807	183.98
715.994	132.78
716.182	198.31
716.369	233.13
716.556	145.06
716.744	71.34
716.931	204.46
717.119	233.13
717.306	251.56
717.493	218.79
717.681	181.93
717.868	188.07
718.055	247.46
718.242	241.32
718.43	188.07
718.617	243.37
718.804	265.89
718.991	280.23
719.179	229.03
719.366	267.94
719.553	308.9
719.74	226.98
719.927	229.03
720.114	161.45
720.301	190.12
720.488	134.82
720.676	165.54
720.863	300.71
721.05	333.48
721.237	235.18
721.424	214.7
721.611	265.89
721.798	231.08
721.985	202.41
722.172	147.11
722.358	229.03
722.545	310.95
722.732	206.5
722.919	304.81
723.106	151.21
723.293	247.46
723.48	188.07
723.667	243.37
723.853	335.53
724.04	196.26
724.227	214.7
724.414	253.61
724.6	233.13
724.787	298.66
724.974	431.78
725.161	210.6
725.347	233.13
725.534	167.59
725.72	175.78
725.907	278.18
726.094	292.52
726.28	179.88
726.467	136.87
726.653	153.26
726.84	304.81
727.027	362.15
727.213	265.89
727.4	306.85
727.586	233.13
727.773	306.85
727.959	239.27
728.145	284.33
728.332	235.18
728.518	173.74
728.705	296.61
728.891	333.48
729.077	282.28
729.264	169.64
729.45	247.46
729.636	313
729.823	294.57
730.009	321.19
730.195	269.99
730.382	294.57
730.568	167.59
730.754	239.27
730.94	200.36
731.126	286.37
731.313	302.76
731.499	265.89
731.685	360.1
731.871	290.47
732.057	372.39
732.243	333.48
732.429	319.14
732.615	378.53
732.801	278.18
732.987	329.38
733.173	214.7
733.359	269.99
733.545	300.71
733.731	183.98
733.917	382.63
734.103	259.75
734.289	313
734.475	177.83
734.661	347.81
734.847	243.37
735.033	231.08
735.219	325.29
735.404	292.52
735.59	235.18
735.776	186.02
735.962	280.23
736.148	302.76
736.333	349.86
736.519	296.61
736.705	235.18
736.89	310.95
737.076	282.28
737.262	249.51
737.447	212.65
737.633	249.51
737.819	278.18
738.004	278.18
738.19	226.98
738.375	331.43
738.561	310.95
738.747	292.52
738.932	237.22
739.118	386.72
739.303	360.1
739.489	325.29
739.674	300.71
739.859	214.7
740.045	368.29
740.23	317.09
740.416	116.39
740.601	247.46
740.786	231.08
740.972	239.27
741.157	276.13
741.342	155.3
741.528	259.75
741.713	272.04
741.898	257.7
742.084	235.18
742.269	229.03
742.454	276.13
742.639	323.24
742.824	229.03
743.01	399.01
743.195	442.02
743.38	323.24
743.565	226.98
743.75	370.34
743.935	300.71
744.12	370.34
744.305	149.16
744.49	274.09
744.675	263.85
744.86	302.76
745.045	278.18
745.23	327.33
745.415	214.7
745.6	452.26
745.785	278.18
745.97	415.4
746.155	298.66
746.34	366.25
746.525	304.81
746.71	313
746.895	202.41
747.079	149.16
747.264	210.6
747.449	329.38
747.634	292.52
747.819	331.43
748.003	210.6
748.188	241.32
748.373	229.03
748.557	200.36
748.742	272.04
748.927	214.7
749.111	218.79
749.296	218.79
749.481	304.81
749.665	231.08
749.85	196.26
750.034	220.84
750.219	259.75
750.404	194.22
750.588	214.7
750.773	192.17
750.957	231.08
751.141	224.94
751.326	155.3
751.51	188.07
751.695	218.79
751.879	257.7
752.064	306.85
752.248	212.65
752.432	407.2
752.617	300.71
752.801	298.66
752.985	153.26
753.17	241.32
753.354	245.41
753.538	214.7
753.722	214.7
753.907	91.82
754.091	175.78
754.275	284.33
754.459	157.35
754.643	153.26
754.828	153.26
755.012	259.75
755.196	179.88
755.38	177.83
755.564	200.36
755.748	149.16
755.932	253.61
756.116	181.93
756.3	302.76
756.484	179.88
756.668	194.22
756.852	97.96
757.036	147.11
757.22	108.2
757.404	128.68
757.588	157.35
757.772	216.74
757.956	165.54
758.14	294.57
758.323	73.39
758.507	188.07
758.691	186.02
758.875	229.03
759.059	190.12
759.242	122.54
759.426	124.58
759.61	138.92
759.794	65.19
759.977	255.65
760.161	272.04
760.345	288.42
760.528	165.54
760.712	204.46
760.895	210.6
761.079	114.34
761.263	130.73
761.446	71.34
761.63	147.11
761.813	151.21
761.997	85.67
762.18	140.97
762.364	153.26
762.547	102.06
762.731	108.2
762.914	124.58
763.098	104.11
763.281	100.01
763.464	46.76
763.648	128.68
763.831	100.01
764.015	126.63
764.198	122.54
764.381	91.82
764.564	239.27
764.748	110.25
764.931	157.35
765.114	81.58
765.297	183.98
765.481	11.95
765.664	102.06
765.847	63.15
766.03	200.36
766.213	112.3
766.397	120.49
766.58	32.43
766.763	108.2
766.946	95.91
767.129	38.57
767.312	67.24
767.495	186.02
767.678	112.3
767.861	194.22
768.044	77.48
768.227	67.24
768.41	65.19
768.593	173.74
768.776	173.74
768.959	38.57
769.142	169.64
769.324	83.63
769.507	138.92
769.69	100.01
769.873	93.87
770.056	222.89
770.239	134.82
770.421	224.94
770.604	91.82
770.787	206.5
770.97	155.3
771.152	59.05
771.335	87.72
771.518	52.91
771.7	216.74
771.883	229.03
772.066	59.05
772.248	173.74
772.431	161.45
772.613	145.06
772.796	24.23
772.978	114.34
773.161	153.26
773.343	79.53
773.526	-12.63
773.708	16.04
773.891	32.43
774.073	69.29
774.256	57
774.438	206.5
774.621	81.58
774.803	85.67
774.985	52.91
775.168	120.49
775.35	81.58
775.532	110.25
775.715	9.9
775.897	87.72
776.079	95.91
776.261	63.15
776.444	128.68
776.626	97.96
776.808	118.44
776.99	-74.07
777.173	108.2
777.355	114.34
777.537	38.57
777.719	81.58
777.901	100.01
778.083	-53.59
778.265	44.71
778.447	165.54
778.629	13.99
778.811	65.19
778.993	100.01
779.175	177.83
779.357	24.23
779.539	32.43
779.721	-0.34
779.903	97.96
780.085	69.29
780.267	77.48
780.449	71.34
780.631	61.1
780.812	145.06
780.994	102.06
781.176	73.39
781.358	93.87
781.54	16.04
781.721	91.82
781.903	143.02
782.085	108.2
782.267	118.44
782.448	7.85
782.63	28.33
782.812	59.05
782.993	40.62
783.175	159.4
783.357	42.67
783.538	100.01
783.72	-10.58
783.901	-39.25
784.083	67.24
784.264	108.2
784.446	-16.73
784.627	-92.5
784.809	32.43
784.99	100.01
785.172	169.64
785.353	32.43
785.535	52.91
785.716	-4.44
785.897	5.8
786.079	57
786.26	69.29
786.441	91.82
786.623	-0.34
786.804	-24.92
786.985	52.91
787.167	61.1
787.348	38.57
787.529	38.57
787.71	153.26
787.891	42.67
788.073	5.8
788.254	54.95
788.435	163.5
788.616	85.67
788.797	-80.21
788.978	-14.68
789.159	-26.96
789.34	85.67
789.522	81.58
789.703	9.9
789.884	54.95
790.065	18.09
790.246	130.73
790.427	-20.82
790.607	186.02
790.788	40.62
790.969	-45.4
791.15	134.82
791.331	48.81
791.512	13.99
791.693	5.8
791.874	-20.82
792.054	165.54
792.235	100.01
792.416	-41.3
792.597	13.99
792.778	18.09
792.958	114.34
793.139	59.05
793.32	46.76
793.5	-10.58
793.681	149.16
793.862	46.76
794.042	42.67
794.223	-92.5
794.404	-59.73
794.584	-18.77
794.765	79.53
794.945	3.75
795.126	5.8
795.306	93.87
795.487	-47.44
795.667	-6.49
795.848	-10.58
796.028	71.34
796.209	34.47
796.389	63.15
796.57	24.23
796.75	28.33
796.93	5.8
797.111	16.04
797.291	-2.39
797.471	48.81
797.652	-2.39
797.832	-43.35
798.012	81.58
798.192	-2.39
798.373	-10.58
798.553	5.8
798.733	13.99
798.913	-121.17
799.093	16.04
799.274	71.34
799.454	69.29
799.634	93.87
799.814	11.95
799.994	-10.58
800.174	110.25
800.354	59.05
800.534	-22.87
800.714	63.15
800.894	-94.55
801.074	7.85
801.254	-45.4
801.434	95.91
801.614	1.71
801.794	-76.12
801.974	1681.04
802.154	-4.44
802.334	130.73
802.514	-102.74
802.693	52.91
802.873	26.28
803.053	91.82
803.233	9.9
803.413	-10.58
803.592	-18.77
803.772	-47.44
803.952	28.33
804.131	-90.45
804.311	-20.82
804.491	38.57
804.67	-14.68
804.85	-45.4
805.03	116.39
805.209	186.02
805.389	-33.11
805.568	-6.49
805.748	7.85
805.928	9.9
806.107	65.19
806.287	69.29
806.466	-20.82
806.646	-16.73
806.825	-10.58
807.004	3.75
807.184	38.57
807.363	95.91
807.543	40.62
807.722	-33.11
807.901	52.91
808.081	46.76
808.26	-39.25
808.439	106.15
808.619	-31.06
808.798	44.71
808.977	59.05
809.156	50.86
809.336	52.91
809.515	167.59
809.694	-96.6
809.873	50.86
810.052	20.14
810.231	147.11
810.411	-45.4
810.59	134.82
810.769	-90.45
810.948	20.14
811.127	-18.77
811.306	57
811.485	1.71
811.664	104.11
811.843	16.04
812.022	54.95
812.201	13.99
812.38	-16.73
812.559	-49.49
812.737	44.71
812.916	-137.56
813.095	3.75
813.274	-22.87
813.453	67.24
813.632	77.48
813.811	118.44
813.989	-39.25
814.168	7.85
814.347	-55.64
814.526	-2.39
814.704	145.06
814.883	71.34
815.062	-76.12
815.24	143.02
815.419	-102.74
815.598	7.85
815.776	-182.61
815.955	-37.2
816.133	-141.65
816.312	54.95
816.49	11.95
816.669	24.23
816.847	-51.54
817.026	22.19
817.204	-39.25
817.383	-20.82
817.561	-0.34
817.74	79.53
817.918	-20.82
818.097	-39.25
818.275	-80.21
818.453	38.57
818.632	38.57
818.81	-43.35
818.988	-26.96
819.167	-69.97
819.345	-24.92
819.523	-39.25
819.701	36.52
819.879	87.72
820.058	79.53
820.236	18.09
820.414	-6.49
820.592	-24.92
820.77	-49.49
820.948	-16.73
821.127	-121.17
821.305	-31.06
821.483	-82.26
821.661	89.77
821.839	71.34
822.017	-14.68
822.195	-6.49
822.373	83.63
822.551	40.62
822.729	38.57
822.907	-59.73
823.085	48.81
823.262	34.47
823.44	-8.53
823.618	-12.63
823.796	1.71
823.974	20.14
824.152	-35.16
824.329	5.8
824.507	91.82
824.685	-8.53
824.863	16.04
825.04	67.24
825.218	-31.06
825.396	36.52
825.574	28.33
825.751	38.57
825.929	79.53
826.107	-26.96
826.284	-10.58
826.462	63.15
826.639	-106.84
826.817	-110.93
826.994	16.04
827.172	-96.6
827.349	149.16
827.527	30.38
827.704	-8.53
827.882	85.67
828.059	87.72
828.237	46.76
828.414	77.48
828.591	-137.56
828.769	28.33
828.946	-61.78
829.124	-16.73
829.301	34.47
829.478	-92.5
829.655	69.29
829.833	-41.3
830.01	-121.17
830.187	-37.2
830.364	1.71
830.542	48.81
830.719	128.68
830.896	54.95
831.073	-41.3
831.25	61.1
831.427	89.77
831.604	-41.3
831.782	-10.58
831.959	-10.58
832.136	-31.06
832.313	50.86
832.49	-69.97
832.667	30.38
832.844	-2.39
833.021	183.98
833.198	-24.92
833.374	9.9
833.551	-10.58
833.728	-20.82
833.905	118.44
834.082	-69.97
834.259	71.34
834.436	91.82
834.612	-26.96
834.789	-0.34
834.966	1.71
835.143	28.33
835.319	-143.7
835.496	20.14
835.673	-16.73
835.85	50.86
836.026	11.95
836.203	48.81
836.38	-31.06
836.556	18.09
836.733	-55.64
836.909	130.73
837.086	-0.34
837.262	-80.21
837.439	-35.16
837.616	-8.53
837.792	3.75
837.968	-96.6
838.145	-127.32
838.321	28.33
838.498	38.57
838.674	24.23
838.851	-14.68
839.027	-61.78
839.203	-59.73
839.38	75.43
839.556	-24.92
839.732	114.34
839.909	-16.73
840.085	-0.34
840.261	-31.06
840.437	89.77
840.614	-51.54
840.79	102.06
840.966	73.39
841.142	71.34
841.318	7.85
841.494	16.04
841.671	104.11
841.847	-129.36
842.023	-80.21
842.199	-0.34
842.375	136.87
842.551	-72.02
842.727	-90.45
842.903	149.16
843.079	-92.5
843.255	136.87
843.431	7.85
843.607	57
843.783	-65.88
843.959	30.38
844.134	-104.79
844.31	114.34
844.486	20.14
844.662	-37.2
844.838	65.19
845.013	1.71
845.189	28.33
845.365	26.28
845.541	-57.68
845.716	44.71
845.892	-22.87
846.068	-24.92
846.244	-67.92
846.419	73.39
846.595	-41.3
846.77	36.52
846.946	106.15
847.122	-98.64
847.297	-18.77
847.473	95.91
847.648	-41.3
847.824	-2.39
847.999	-151.89
848.175	-16.73
848.35	42.67
848.526	71.34
848.701	52.91
848.876	5.8
849.052	79.53
849.227	34.47
849.403	26.28
849.578	1.71
849.753	97.96
849.929	-47.44
850.104	-76.12
850.279	32.43
850.454	52.91
850.63	71.34
850.805	7.85
850.98	11.95
851.155	-65.88
851.33	5.8
851.505	-76.12
851.681	83.63
851.856	-59.73
852.031	108.2
852.206	-18.77
852.381	-57.68
852.556	-10.58
852.731	83.63
852.906	110.25
853.081	-51.54
853.256	79.53
853.431	48.81
853.606	-29.01
853.781	-2.39
853.956	-76.12
854.131	9.9
854.305	-59.73
854.48	-45.4
854.655	-37.2
854.83	-29.01
855.005	-41.3
855.18	-4.44
855.354	-55.64
855.529	-55.64
855.704	-4.44
855.879	59.05
856.053	-88.4
856.228	-24.92
856.403	-33.11
856.577	83.63
856.752	-110.93
856.926	-117.08
857.101	-0.34
857.276	-72.02
857.45	54.95
857.625	81.58
857.799	-6.49
857.974	18.09
858.148	-147.8
858.323	-24.92
858.497	-16.73
858.672	-59.73
858.846	-59.73
859.02	32.43
859.195	-104.79
859.369	38.57
859.543	-57.68
859.718	-6.49
859.892	-2.39
860.066	3.75
860.241	-76.12
860.415	-45.4
860.589	-47.44
860.763	18.09
860.938	-86.36
861.112	81.58
861.286	34.47
861.46	11.95
861.634	-16.73
861.808	83.63
861.982	-78.16
862.157	-43.35
862.331	-74.07
862.505	-65.88
862.679	-131.41
862.853	24.23
863.027	-18.77
863.201	91.82
863.375	-135.51
863.549	34.47
863.722	48.81
863.896	83.63
864.07	-49.49
864.244	-6.49
864.418	42.67
864.592	32.43
864.766	89.77
864.939	-6.49
865.113	5.8
865.287	114.34
865.461	-78.16
865.634	-31.06
865.808	-4.44
865.982	-82.26
866.156	-76.12
866.329	-90.45
866.503	77.48
866.676	1.71
866.85	46.76
867.024	-26.96
867.197	59.05
867.371	-18.77
867.544	1.71
867.718	-69.97
867.891	118.44
868.065	-8.53
868.238	-20.82
868.412	13.99
868.585	-6.49
868.759	-20.82
868.932	-98.64
869.105	-108.88
869.279	-12.63
869.452	-53.59
869.625	69.29
869.799	-53.59
869.972	-45.4
870.145	-47.44
870.319	18.09
870.492	-35.16
870.665	-61.78
870.838	-39.25
871.011	-190.8
871.185	-98.64
871.358	-45.4
871.531	9.9
871.704	-100.69
871.877	85.67
872.05	-31.06
872.223	-49.49
872.396	85.67
872.569	3.75
872.742	-76.12
872.915	69.29
873.088	-67.92
873.261	-110.93
873.434	50.86
873.607	-94.55
873.78	89.77
873.953	-82.26
874.126	-18.77
874.299	22.19
874.471	-84.31
874.644	-47.44
874.817	52.91
874.99	93.87
875.163	-78.16
875.335	-24.92
875.508	-4.44
875.681	24.23
875.853	-119.12
876.026	-47.44
876.199	61.1
876.371	-6.49
876.544	-67.92
876.717	44.71
876.889	-49.49
877.062	46.76
877.234	-139.6
877.407	1.71
877.579	24.23
877.752	7.85
877.924	20.14
878.097	16.04
878.269	-2.39
878.442	1.71
878.614	95.91
878.786	-10.58
878.959	67.24
879.131	52.91
879.303	-172.37
879.476	13.99
879.648	46.76
879.82	22.19
879.993	-37.2
880.165	-108.88
880.337	-55.64
880.509	-10.58
880.681	-76.12
880.854	-4.44
881.026	-31.06
881.198	151.21
881.37	28.33
881.542	42.67
881.714	5.8
881.886	-45.4
882.058	-4.44
882.23	-8.53
882.402	-74.07
882.574	-106.84
882.746	44.71
882.918	5.8
883.09	7.85
883.262	-12.63
883.434	-2.39
883.606	-69.97
883.778	24.23
883.95	65.19
884.122	-35.16
884.293	65.19
884.465	30.38
884.637	73.39
884.809	-26.96
884.98	-20.82
885.152	61.1
885.324	30.38
885.496	-102.74
885.667	-90.45
885.839	-35.16
886.011	54.95
886.182	-41.3
886.354	59.05
886.525	-26.96
886.697	-12.63
886.869	24.23
887.04	-61.78
887.212	85.67
887.383	122.54
887.555	30.38
887.726	-76.12
887.897	-26.96
888.069	16.04
888.24	-12.63
888.412	5.8
888.583	1.71
888.754	46.76
888.926	-47.44
889.097	-63.83
889.268	-158.03
889.44	36.52
889.611	-63.83
889.782	-86.36
889.953	-20.82
890.125	81.58
890.296	-125.27
890.467	-96.6
890.638	-43.35
890.809	24.23
890.98	-110.93
891.151	36.52
891.323	114.34
891.494	40.62
891.665	-12.63
891.836	-61.78
892.007	-47.44
892.178	-0.34
892.349	-31.06
892.52	-47.44
892.691	26.28
892.862	-112.98
893.032	-110.93
893.203	36.52
893.374	48.81
893.545	3.75
893.716	-22.87
893.887	26.28
894.057	-22.87
894.228	-29.01
894.399	-92.5
894.57	69.29
894.74	1.71
894.911	52.91
895.082	-12.63
895.253	-145.75
895.423	-26.96
895.594	87.72
895.764	1.71
895.935	-123.22
896.106	30.38
896.276	-39.25
896.447	-0.34
896.617	-90.45
896.788	-102.74
896.958	-61.78
897.129	-4.44
897.299	-100.69
897.47	161.45
897.64	102.06
897.81	32.43
897.981	-14.68
898.151	-26.96
898.322	-2.39
898.492	-10.58
898.662	-12.63
898.832	63.15
899.003	-29.01
899.173	46.76
899.343	-82.26
899.513	18.09
