Data from USB4F104151__30__11-24-54-304.txt Node

Date: Wed Feb 26 11:24:54 EST 2025
User: louis
Spectrometer: USB4F10415
Trigger mode: 4
Integration Time (sec): 1.000000E-1
Scans to average: 1
Electric dark correction enabled: true
Nonlinearity correction enabled: false
Boxcar width: 0
XAxis mode: Wavelengths
Number of Pixels in Spectrum: 3648
>>>>>Begin Spectral Data<<<<<
178.204	-359.59
178.424	-359.59
178.644	-359.59
178.864	-398.5
179.084	-384.16
179.304	-3.24
179.524	-33.96
179.744	-9.39
179.964	111.44
180.184	9.05
180.404	-11.43
180.624	-33.96
180.844	35.67
181.064	-27.82
181.283	41.81
181.503	-60.59
181.723	-17.58
181.943	-130.22
182.163	125.78
182.383	21.33
182.602	131.92
182.822	168.79
183.042	103.25
183.262	-19.63
183.482	-79.02
183.701	-25.77
183.921	129.88
184.141	-1.19
184.361	101.2
184.58	52.05
184.8	19.29
185.02	13.14
185.239	133.97
185.459	93.01
185.679	158.55
185.898	-29.87
186.118	21.33
186.338	152.4
186.557	76.63
186.777	-64.68
186.997	-15.53
187.216	60.24
187.436	181.07
187.655	58.2
187.875	201.55
188.095	47.96
188.314	105.3
188.534	111.44
188.753	-50.35
188.973	179.03
189.192	162.64
189.412	31.57
189.631	43.86
189.851	45.91
190.07	242.51
190.29	-62.63
190.509	-5.29
190.729	4.95
190.948	119.64
191.168	281.43
191.387	64.34
191.607	45.91
191.826	23.38
192.045	56.15
192.265	-5.29
192.484	129.88
192.704	95.06
192.923	-62.63
193.142	205.65
193.362	99.16
193.581	234.32
193.8	111.44
194.02	47.96
194.239	66.39
194.458	142.16
194.678	-36.01
194.897	56.15
195.116	136.02
195.335	13.14
195.555	37.72
195.774	4.95
195.993	93.01
196.212	15.19
196.432	11.09
196.651	9.05
196.87	-1.19
197.089	211.79
197.308	35.67
197.528	56.15
197.747	25.43
197.966	125.78
198.185	136.02
198.404	-48.3
198.623	117.59
198.842	131.92
199.062	52.05
199.281	99.16
199.5	78.68
199.719	41.81
199.938	107.35
200.157	113.49
200.376	160.59
200.595	66.39
200.814	70.48
201.033	4.95
201.252	97.11
201.471	66.39
201.69	-15.53
201.909	93.01
202.128	193.36
202.347	129.88
202.566	50
202.785	-91.31
203.004	-1.19
203.223	211.79
203.442	74.58
203.661	-42.15
203.879	86.87
204.098	133.97
204.317	15.19
204.536	142.16
204.755	205.65
204.974	154.45
205.193	17.24
205.411	119.64
205.63	148.31
205.849	72.53
206.068	15.19
206.287	-79.02
206.505	127.83
206.724	74.58
206.943	-42.15
207.162	-11.43
207.381	117.59
207.599	52.05
207.818	-23.72
208.037	-21.67
208.255	15.19
208.474	107.35
208.693	9.05
208.911	-46.25
209.13	131.92
209.349	119.64
209.567	54.1
209.786	109.4
210.005	82.77
210.223	80.72
210.442	-58.54
210.661	25.43
210.879	13.14
211.098	62.29
211.316	115.54
211.535	43.86
211.753	125.78
211.972	84.82
212.191	82.77
212.409	35.67
212.628	201.55
212.846	23.38
213.065	62.29
213.283	101.2
213.502	74.58
213.72	90.96
213.938	99.16
214.157	9.05
214.375	29.52
214.594	37.72
214.812	181.07
215.031	19.29
215.249	101.2
215.467	86.87
215.686	39.76
215.904	162.64
216.122	68.44
216.341	125.78
216.559	90.96
216.778	127.83
216.996	154.45
217.214	-38.06
217.432	15.19
217.651	13.14
217.869	78.68
218.087	103.25
218.306	-23.72
218.524	33.62
218.742	37.72
218.96	64.34
219.179	13.14
219.397	21.33
219.615	240.47
219.833	138.07
220.051	-9.39
220.27	13.14
220.488	103.25
220.706	25.43
220.924	-33.96
221.142	-13.48
221.36	90.96
221.578	58.2
221.796	41.81
222.015	15.19
222.233	-5.29
222.451	187.22
222.669	13.14
222.887	95.06
223.105	-15.53
223.323	131.92
223.541	0.85
223.759	62.29
223.977	99.16
224.195	230.23
224.413	117.59
224.631	119.64
224.849	95.06
225.067	236.37
225.285	58.2
225.503	27.48
225.721	-93.35
225.939	90.96
226.157	105.3
226.375	244.56
226.592	-38.06
226.81	109.4
227.028	115.54
227.246	107.35
227.464	13.14
227.682	41.81
227.9	39.76
228.117	70.48
228.335	31.57
228.553	-31.91
228.771	43.86
228.989	23.38
229.206	76.63
229.424	7
229.642	56.15
229.86	-44.2
230.077	119.64
230.295	41.81
230.513	113.49
230.731	95.06
230.948	207.7
231.166	279.38
231.384	50
231.601	19.29
231.819	256.85
232.037	43.86
232.254	-46.25
232.472	29.52
232.689	-33.96
232.907	45.91
233.125	9.05
233.342	13.14
233.56	35.67
233.777	43.86
233.995	80.72
234.213	74.58
234.43	84.82
234.648	27.48
234.865	21.33
235.083	95.06
235.3	66.39
235.518	148.31
235.735	121.68
235.953	125.78
236.17	23.38
236.388	-25.77
236.605	97.11
236.822	131.92
237.04	86.87
237.257	125.78
237.475	-15.53
237.692	21.33
237.909	95.06
238.127	-81.07
238.344	64.34
238.562	45.91
238.779	-40.11
238.996	-79.02
239.214	47.96
239.431	97.11
239.648	39.76
239.865	95.06
240.083	82.77
240.3	56.15
240.517	45.91
240.735	62.29
240.952	90.96
241.169	45.91
241.386	41.81
241.603	41.81
241.821	-25.77
242.038	160.59
242.255	107.35
242.472	-11.43
242.689	86.87
242.907	70.48
243.124	70.48
243.341	52.05
243.558	-64.68
243.775	-5.29
243.992	-105.64
244.209	97.11
244.426	109.4
244.643	64.34
244.86	-5.29
245.078	90.96
245.295	76.63
245.512	50
245.729	-25.77
245.946	127.83
246.163	45.91
246.38	4.95
246.597	84.82
246.814	119.64
247.031	68.44
247.248	-23.72
247.464	105.3
247.681	54.1
247.898	88.92
248.115	119.64
248.332	2.9
248.549	191.31
248.766	101.2
248.983	72.53
249.2	50
249.417	111.44
249.633	41.81
249.85	86.87
250.067	97.11
250.284	7
250.501	86.87
250.717	64.34
250.934	-40.11
251.151	13.14
251.368	50
251.585	99.16
251.801	93.01
252.018	-91.31
252.235	117.59
252.451	-66.73
252.668	43.86
252.885	80.72
253.102	95.06
253.318	-23.72
253.535	17.24
253.752	7
253.968	76.63
254.185	-25.77
254.401	25.43
254.618	50
254.835	-1.19
255.051	191.31
255.268	70.48
255.484	72.53
255.701	35.67
255.917	90.96
256.134	-15.53
256.351	84.82
256.567	-19.63
256.784	119.64
257	-70.83
257.217	90.96
257.433	70.48
257.65	103.25
257.866	125.78
258.082	-31.91
258.299	-13.48
258.515	107.35
258.732	2.9
258.948	-9.39
259.165	54.1
259.381	29.52
259.597	154.45
259.814	64.34
260.03	74.58
260.246	35.67
260.463	168.79
260.679	148.31
260.895	41.81
261.112	17.24
261.328	68.44
261.544	-97.45
261.761	176.98
261.977	-11.43
262.193	54.1
262.409	140.12
262.626	35.67
262.842	25.43
263.058	25.43
263.274	127.83
263.49	52.05
263.707	146.26
263.923	101.2
264.139	-19.63
264.355	58.2
264.571	121.68
264.787	35.67
265.004	164.69
265.22	37.72
265.436	-3.24
265.652	54.1
265.868	-64.68
266.084	0.85
266.3	25.43
266.516	-74.92
266.732	17.24
266.948	66.39
267.164	-17.58
267.38	148.31
267.596	115.54
267.812	58.2
268.028	11.09
268.244	31.57
268.46	109.4
268.676	4.95
268.892	66.39
269.108	-7.34
269.324	33.62
269.54	-97.45
269.756	62.29
269.972	-36.01
270.188	33.62
270.403	-19.63
270.619	39.76
270.835	127.83
271.051	60.24
271.267	-11.43
271.483	27.48
271.698	95.06
271.914	82.77
272.13	50
272.346	-13.48
272.562	-48.3
272.777	117.59
272.993	52.05
273.209	-15.53
273.425	168.79
273.64	7
273.856	115.54
274.072	-33.96
274.287	-56.49
274.503	117.59
274.719	29.52
274.934	7
275.15	-48.3
275.366	52.05
275.581	-36.01
275.797	109.4
276.012	41.81
276.228	-11.43
276.444	27.48
276.659	119.64
276.875	15.19
277.09	35.67
277.306	9.05
277.521	84.82
277.737	47.96
277.952	97.11
278.168	76.63
278.383	25.43
278.599	68.44
278.814	-33.96
279.03	21.33
279.245	103.25
279.461	64.34
279.676	154.45
279.892	-31.91
280.107	0.85
280.322	-15.53
280.538	111.44
280.753	4.95
280.969	78.68
281.184	15.19
281.399	146.26
281.615	25.43
281.83	72.53
282.045	-54.44
282.26	-9.39
282.476	2.9
282.691	142.16
282.906	45.91
283.122	23.38
283.337	-36.01
283.552	76.63
283.767	-11.43
283.983	43.86
284.198	41.81
284.413	68.44
284.628	19.29
284.843	72.53
285.058	136.02
285.274	7
285.489	-11.43
285.704	95.06
285.919	21.33
286.134	0.85
286.349	76.63
286.564	54.1
286.779	150.36
286.995	-7.34
287.21	-29.87
287.425	103.25
287.64	45.91
287.855	52.05
288.07	13.14
288.285	148.31
288.5	105.3
288.715	86.87
288.93	50
289.145	-29.87
289.36	109.4
289.575	-36.01
289.79	95.06
290.004	52.05
290.219	97.11
290.434	43.86
290.649	62.29
290.864	58.2
291.079	74.58
291.294	70.48
291.509	29.52
291.724	15.19
291.938	23.38
292.153	58.2
292.368	45.91
292.583	78.68
292.798	50
293.012	45.91
293.227	33.62
293.442	-17.58
293.657	113.49
293.871	148.31
294.086	144.21
294.301	172.88
294.516	166.74
294.73	47.96
294.945	-111.78
295.16	29.52
295.374	64.34
295.589	123.73
295.804	-9.39
296.018	29.52
296.233	195.41
296.447	54.1
296.662	-50.35
296.877	121.68
297.091	111.44
297.306	21.33
297.52	-31.91
297.735	99.16
297.949	39.76
298.164	-5.29
298.378	115.54
298.593	-23.72
298.807	-27.82
299.022	17.24
299.236	127.83
299.451	-9.39
299.665	72.53
299.88	-21.67
300.094	68.44
300.309	76.63
300.523	72.53
300.737	-31.91
300.952	105.3
301.166	136.02
301.381	33.62
301.595	7
301.809	0.85
302.024	35.67
302.238	-50.35
302.452	144.21
302.667	37.72
302.881	129.88
303.095	101.2
303.309	95.06
303.524	17.24
303.738	45.91
303.952	-15.53
304.166	50
304.381	-56.49
304.595	138.07
304.809	62.29
305.023	52.05
305.237	4.95
305.452	23.38
305.666	17.24
305.88	140.12
306.094	88.92
306.308	140.12
306.522	103.25
306.736	23.38
306.95	148.31
307.164	13.14
307.379	52.05
307.593	158.55
307.807	90.96
308.021	29.52
308.235	54.1
308.449	-27.82
308.663	-3.24
308.877	226.13
309.091	4.95
309.305	125.78
309.519	-21.67
309.733	170.83
309.947	-74.92
310.161	60.24
310.374	123.73
310.588	138.07
310.802	-25.77
311.016	-62.63
311.23	127.83
311.444	58.2
311.658	72.53
311.872	82.77
312.085	78.68
312.299	156.5
312.513	162.64
312.727	54.1
312.941	-23.72
313.154	60.24
313.368	17.24
313.582	88.92
313.796	-1.19
314.009	37.72
314.223	58.2
314.437	58.2
314.651	101.2
314.864	2.9
315.078	-113.83
315.292	-87.21
315.505	-36.01
315.719	107.35
315.933	86.87
316.146	45.91
316.36	-83.11
316.573	52.05
316.787	84.82
317.001	64.34
317.214	-52.39
317.428	66.39
317.641	9.05
317.855	-54.44
318.068	47.96
318.282	50
318.495	256.85
318.709	101.2
318.922	-15.53
319.136	56.15
319.349	111.44
319.563	4.95
319.776	-1.19
319.99	-83.11
320.203	138.07
320.417	31.57
320.63	162.64
320.843	164.69
321.057	99.16
321.27	25.43
321.483	41.81
321.697	152.4
321.91	70.48
322.124	68.44
322.337	117.59
322.55	-15.53
322.763	-3.24
322.977	47.96
323.19	-11.43
323.403	-13.48
323.617	115.54
323.83	138.07
324.043	-50.35
324.256	39.76
324.469	-68.78
324.683	203.6
324.896	21.33
325.109	80.72
325.322	-95.4
325.535	70.48
325.748	127.83
325.962	2.9
326.175	41.81
326.388	78.68
326.601	37.72
326.814	52.05
327.027	60.24
327.24	140.12
327.453	-79.02
327.666	95.06
327.879	133.97
328.092	111.44
328.305	47.96
328.518	-60.59
328.731	31.57
328.944	82.77
329.157	66.39
329.37	29.52
329.583	269.14
329.796	88.92
330.009	-23.72
330.222	93.01
330.435	117.59
330.648	33.62
330.861	68.44
331.073	-7.34
331.286	76.63
331.499	60.24
331.712	-42.15
331.925	35.67
332.138	-21.67
332.35	129.88
332.563	21.33
332.776	127.83
332.989	31.57
333.202	66.39
333.414	41.81
333.627	90.96
333.84	-44.2
334.053	125.78
334.265	43.86
334.478	41.81
334.691	148.31
334.903	19.29
335.116	7
335.329	15.19
335.541	121.68
335.754	97.11
335.966	74.58
336.179	56.15
336.392	9.05
336.604	-83.11
336.817	105.3
337.029	11.09
337.242	107.35
337.454	107.35
337.667	103.25
337.88	148.31
338.092	64.34
338.305	19.29
338.517	-58.54
338.729	117.59
338.942	107.35
339.154	-7.34
339.367	-21.67
339.579	56.15
339.792	15.19
340.004	45.91
340.217	90.96
340.429	70.48
340.641	-27.82
340.854	72.53
341.066	66.39
341.278	123.73
341.491	109.4
341.703	-3.24
341.915	-72.87
342.128	131.92
342.34	52.05
342.552	13.14
342.764	93.01
342.977	-27.82
343.189	109.4
343.401	107.35
343.613	-111.78
343.826	9.05
344.038	64.34
344.25	70.48
344.462	-81.07
344.674	80.72
344.886	-21.67
345.099	78.68
345.311	158.55
345.523	11.09
345.735	-76.97
345.947	56.15
346.159	54.1
346.371	43.86
346.583	-29.87
346.795	215.89
347.007	88.92
347.219	54.1
347.431	103.25
347.643	115.54
347.855	-64.68
348.067	76.63
348.279	-79.02
348.491	72.53
348.703	136.02
348.915	9.05
349.127	-21.67
349.339	105.3
349.551	27.48
349.763	115.54
349.975	41.81
350.187	160.59
350.399	80.72
350.61	70.48
350.822	43.86
351.034	29.52
351.246	62.29
351.458	95.06
351.669	88.92
351.881	70.48
352.093	82.77
352.305	88.92
352.517	29.52
352.728	174.93
352.94	54.1
353.152	78.68
353.363	25.43
353.575	62.29
353.787	103.25
353.999	76.63
354.21	170.83
354.422	-68.78
354.633	41.81
354.845	50
355.057	43.86
355.268	74.58
355.48	88.92
355.692	-93.35
355.903	33.62
356.115	-72.87
356.326	2.9
356.538	109.4
356.749	74.58
356.961	158.55
357.172	47.96
357.384	4.95
357.595	166.74
357.807	-44.2
358.018	58.2
358.23	52.05
358.441	140.12
358.653	93.01
358.864	52.05
359.075	-7.34
359.287	127.83
359.498	99.16
359.709	60.24
359.921	25.43
360.132	66.39
360.344	29.52
360.555	0.85
360.766	4.95
360.977	31.57
361.189	121.68
361.4	15.19
361.611	140.12
361.823	183.12
362.034	-33.96
362.245	-36.01
362.456	2.9
362.667	68.44
362.879	-62.63
363.09	90.96
363.301	168.79
363.512	-19.63
363.723	50
363.935	90.96
364.146	72.53
364.357	31.57
364.568	99.16
364.779	11.09
364.99	211.79
365.201	25.43
365.412	111.44
365.623	-36.01
365.834	33.62
366.045	90.96
366.256	4.95
366.467	129.88
366.678	56.15
366.889	41.81
367.1	27.48
367.311	144.21
367.522	-31.91
367.733	45.91
367.944	74.58
368.155	54.1
368.366	21.33
368.577	152.4
368.788	93.01
368.999	-54.44
369.209	113.49
369.42	250.71
369.631	289.62
369.842	25.43
370.053	68.44
370.264	97.11
370.474	-52.39
370.685	41.81
370.896	11.09
371.107	74.58
371.317	21.33
371.528	13.14
371.739	52.05
371.95	115.54
372.16	82.77
372.371	-36.01
372.582	13.14
372.792	76.63
373.003	15.19
373.214	41.81
373.424	127.83
373.635	31.57
373.846	109.4
374.056	52.05
374.267	117.59
374.477	35.67
374.688	-38.06
374.898	-23.72
375.109	29.52
375.319	152.4
375.53	146.26
375.74	74.58
375.951	15.19
376.161	9.05
376.372	140.12
376.582	-76.97
376.793	82.77
377.003	66.39
377.214	23.38
377.424	50
377.635	99.16
377.845	11.09
378.055	109.4
378.266	13.14
378.476	70.48
378.686	54.1
378.897	90.96
379.107	187.22
379.317	179.03
379.528	2.9
379.738	90.96
379.948	-42.15
380.158	76.63
380.369	101.2
380.579	11.09
380.789	74.58
380.999	27.48
381.21	103.25
381.42	152.4
381.63	-19.63
381.84	45.91
382.05	56.15
382.261	170.83
382.471	86.87
382.681	-3.24
382.891	125.78
383.101	68.44
383.311	-97.45
383.521	35.67
383.731	54.1
383.941	78.68
384.151	74.58
384.361	31.57
384.571	86.87
384.781	58.2
384.991	199.51
385.201	265.04
385.411	215.89
385.621	111.44
385.831	84.82
386.041	41.81
386.251	4.95
386.461	150.36
386.671	50
386.881	41.81
387.091	27.48
387.301	80.72
387.511	-11.43
387.72	154.45
387.93	138.07
388.14	-64.68
388.35	58.2
388.56	95.06
388.769	140.12
388.979	15.19
389.189	37.72
389.399	-3.24
389.609	39.76
389.818	64.34
390.028	72.53
390.238	72.53
390.447	17.24
390.657	35.67
390.867	7
391.076	31.57
391.286	72.53
391.496	56.15
391.705	93.01
391.915	127.83
392.125	117.59
392.334	47.96
392.544	160.59
392.753	27.48
392.963	-3.24
393.172	25.43
393.382	-13.48
393.591	224.08
393.801	-17.58
394.01	158.55
394.22	131.92
394.429	39.76
394.639	4.95
394.848	103.25
395.058	86.87
395.267	39.76
395.477	107.35
395.686	27.48
395.895	205.65
396.105	181.07
396.314	117.59
396.524	56.15
396.733	-3.24
396.942	119.64
397.152	127.83
397.361	58.2
397.57	144.21
397.78	74.58
397.989	111.44
398.198	185.17
398.407	107.35
398.617	82.77
398.826	103.25
399.035	-31.91
399.244	64.34
399.453	39.76
399.663	41.81
399.872	133.97
400.081	33.62
400.29	160.59
400.499	27.48
400.708	74.58
400.917	107.35
401.127	43.86
401.336	-38.06
401.545	201.55
401.754	211.79
401.963	0.85
402.172	-21.67
402.381	-7.34
402.59	-15.53
402.799	41.81
403.008	93.01
403.217	31.57
403.426	121.68
403.635	-5.29
403.844	35.67
404.053	43.86
404.262	27.48
404.471	176.98
404.68	82.77
404.888	0.85
405.097	13.14
405.306	23.38
405.515	138.07
405.724	9.05
405.933	119.64
406.142	105.3
406.35	78.68
406.559	105.3
406.768	41.81
406.977	179.03
407.185	-19.63
407.394	111.44
407.603	-113.83
407.812	74.58
408.02	138.07
408.229	25.43
408.438	2.9
408.646	-27.82
408.855	-11.43
409.064	84.82
409.272	29.52
409.481	121.68
409.69	2.9
409.898	-31.91
410.107	152.4
410.315	27.48
410.524	35.67
410.733	35.67
410.941	15.19
411.15	-13.48
411.358	115.54
411.567	119.64
411.775	27.48
411.984	58.2
412.192	54.1
412.401	23.38
412.609	160.59
412.818	109.4
413.026	84.82
413.234	58.2
413.443	45.91
413.651	-33.96
413.86	2.9
414.068	121.68
414.276	213.84
414.485	-29.87
414.693	158.55
414.901	207.7
415.11	31.57
415.318	11.09
415.526	39.76
415.734	160.59
415.943	131.92
416.151	217.94
416.359	27.48
416.567	-46.25
416.776	93.01
416.984	47.96
417.192	246.61
417.4	-5.29
417.608	39.76
417.817	-23.72
418.025	70.48
418.233	158.55
418.441	-36.01
418.649	-91.31
418.857	111.44
419.065	156.5
419.273	7
419.481	60.24
419.689	62.29
419.897	29.52
420.105	-31.91
420.313	72.53
420.521	172.88
420.729	119.64
420.937	35.67
421.145	-3.24
421.353	109.4
421.561	93.01
421.769	111.44
421.977	15.19
422.185	160.59
422.393	62.29
422.601	99.16
422.809	76.63
423.017	72.53
423.224	74.58
423.432	172.88
423.64	70.48
423.848	148.31
424.056	11.09
424.263	101.2
424.471	-64.68
424.679	166.74
424.887	-76.97
425.094	125.78
425.302	172.88
425.51	52.05
425.718	76.63
425.925	80.72
426.133	-5.29
426.341	191.31
426.548	101.2
426.756	88.92
426.964	60.24
427.171	78.68
427.379	41.81
427.586	62.29
427.794	144.21
428.001	80.72
428.209	172.88
428.417	164.69
428.624	131.92
428.832	84.82
429.039	99.16
429.247	39.76
429.454	146.26
429.662	158.55
429.869	121.68
430.076	78.68
430.284	228.18
430.491	172.88
430.699	121.68
430.906	121.68
431.114	99.16
431.321	162.64
431.528	138.07
431.736	138.07
431.943	74.58
432.15	189.27
432.358	160.59
432.565	215.89
432.772	-48.3
432.979	164.69
433.187	54.1
433.394	148.31
433.601	90.96
433.808	158.55
434.016	174.93
434.223	179.03
434.43	213.84
434.637	172.88
434.844	158.55
435.052	88.92
435.259	213.84
435.466	158.55
435.673	99.16
435.88	217.94
436.087	215.89
436.294	279.38
436.501	219.99
436.708	172.88
436.915	164.69
437.122	275.28
437.329	136.02
437.537	103.25
437.743	170.83
437.95	265.04
438.157	254.8
438.364	283.47
438.571	242.51
438.778	240.47
438.985	318.29
439.192	322.38
439.399	217.94
439.606	295.76
439.813	406.35
440.02	422.73
440.227	445.26
440.433	428.88
440.64	267.09
440.847	246.61
441.054	351.06
441.261	467.79
441.467	457.55
441.674	344.91
441.881	500.56
442.088	312.14
442.294	430.93
442.501	488.27
442.708	510.8
442.914	469.84
443.121	527.18
443.328	521.04
443.534	453.45
443.741	535.37
443.948	363.34
444.154	564.04
444.361	809.8
444.568	598.86
444.774	715.59
444.981	535.37
445.187	770.89
445.394	551.76
445.6	656.2
445.807	731.98
446.013	713.55
446.22	611.15
446.426	770.89
446.633	854.86
446.839	1053.51
447.046	734.03
447.252	910.15
447.459	897.86
447.665	1014.6
447.871	992.07
448.078	1229.63
448.284	1055.56
448.491	1135.43
448.697	1207.11
448.903	1315.65
449.11	1282.88
449.316	1194.82
449.522	1336.13
449.728	1389.38
449.935	1471.29
450.141	1463.1
450.347	1549.12
450.553	1499.97
450.76	1669.95
450.966	1643.32
451.172	1751.87
451.378	1919.8
451.584	1856.31
451.791	2032.44
451.997	2120.5
452.203	2104.12
452.409	2194.23
452.615	2339.63
452.821	2155.32
453.027	2106.17
453.233	2503.47
453.44	2339.63
453.646	2503.47
453.852	2624.3
454.058	2683.69
454.264	2757.42
454.47	2992.94
454.676	2843.43
454.882	3410.72
455.088	3136.29
455.294	3377.95
455.5	3529.5
455.705	3738.4
455.911	3742.49
456.117	3889.95
456.323	4082.46
456.529	4203.29
456.735	4348.69
456.941	4340.5
457.147	4565.78
457.352	4713.23
457.558	4821.77
457.764	5153.54
457.97	5378.82
458.176	5364.48
458.381	5786.37
458.587	5931.77
458.793	6167.29
458.999	6218.49
459.204	7015.15
459.41	7142.12
459.616	7060.2
459.821	7338.73
460.027	7768.8
460.233	8135.39
460.438	8127.19
460.644	8501.97
460.85	8745.68
461.055	8917.71
461.261	9462.47
461.466	9104.07
461.672	9550.53
461.878	10633.91
462.083	10246.84
462.289	10595
462.494	10912.43
462.7	11238.06
462.905	11238.06
463.111	12042.91
463.316	12628.63
463.522	13085.33
463.727	13447.82
463.932	14002.82
464.138	14348.92
464.343	15018.61
464.549	15080.05
464.754	16499.29
464.959	16407.13
465.165	17148.5
465.37	16714.33
465.575	16794.2
465.781	17975.88
465.986	18709.05
466.191	18139.71
466.397	18285.12
466.602	18055.75
466.807	18950.71
467.012	19477.04
467.218	19481.13
467.423	19800.62
467.628	20093.47
467.833	21289.49
468.038	21004.82
468.244	20705.82
468.449	21692.94
468.654	21260.82
468.859	21322.26
469.064	21318.16
469.269	20759.06
469.474	20857.37
469.679	21606.92
469.885	20785.69
470.09	21340.69
470.295	21432.85
470.5	20961.81
470.705	21111.32
470.91	20576.8
471.115	20406.81
471.32	20584.99
471.525	20572.7
471.73	19794.47
471.935	19794.47
472.139	18919.99
472.344	19008.05
472.549	18938.42
472.754	18657.85
472.959	18084.42
473.164	17711.69
473.369	17687.11
473.574	18035.27
473.778	17416.78
473.983	17064.53
474.188	16941.65
474.393	16120.42
474.598	16185.95
474.802	15428.2
475.007	15762.02
475.212	15422.06
475.417	14865.01
475.621	14695.03
475.826	14619.25
476.031	14183.04
476.235	13830.79
476.44	13578.89
476.645	13505.16
476.849	13421.19
477.054	13034.13
477.259	12851.86
477.463	12708.5
477.668	12376.73
477.872	12294.81
478.077	12001.95
478.282	11674.28
478.486	11602.6
478.691	11627.17
478.895	11319.98
479.1	11123.37
479.304	11309.74
479.509	10726.07
479.713	11186.86
479.918	10638
480.122	10271.42
480.326	10486.45
480.531	10474.17
480.735	10449.59
480.94	10183.35
481.144	10484.41
481.348	9951.93
481.553	9947.84
481.757	9689.79
481.961	9976.51
482.166	9904.83
482.37	9599.68
482.574	9546.44
482.778	9505.48
482.983	9710.27
483.187	9431.75
483.391	9351.88
483.595	9310.92
483.8	9147.08
484.004	8860.37
484.208	9122.51
484.412	9159.37
484.616	9112.27
484.821	8868.56
485.025	8544.98
485.229	8471.25
485.433	8375
485.637	8243.93
485.841	8391.38
486.045	8399.57
486.249	8082.14
486.453	8094.43
486.657	7715.55
486.861	7774.94
487.065	7449.32
487.269	7566.05
487.473	7109.35
487.677	7457.51
487.881	7555.81
488.085	6968.04
488.289	6929.13
488.493	6730.48
488.697	6826.73
488.901	6617.84
489.105	6521.59
489.309	6376.18
489.512	6507.25
489.716	6234.87
489.92	6028.03
490.124	6132.47
490.328	6021.88
490.531	5800.7
490.735	5673.73
490.939	5485.31
491.143	5491.46
491.346	5378.82
491.55	5348.1
491.754	5190.41
491.958	5159.69
492.161	4870.92
492.365	5014.28
492.569	4877.07
492.772	4915.98
492.976	4868.88
493.18	4836.11
493.383	4580.11
493.587	4475.67
493.79	4664.08
493.994	4320.02
494.197	4330.26
494.401	4416.27
494.605	4426.51
494.808	4322.07
495.012	4317.97
495.215	4152.09
495.419	4293.4
495.622	3996.44
495.825	4131.61
496.029	3963.67
496.232	4295.44
496.436	3961.62
496.639	4055.83
496.843	3980.06
497.046	3912.47
497.249	4033.3
497.453	3883.8
497.656	3797.79
497.859	3971.86
498.063	4006.68
498.266	4064.02
498.469	3937.05
498.673	3814.17
498.876	4088.6
499.079	3924.76
499.282	4049.69
499.485	4332.31
499.689	4076.31
499.892	4211.48
500.095	4043.54
500.298	4076.31
500.501	3980.06
500.705	4297.49
500.908	4258.58
501.111	4172.57
501.314	4311.83
501.517	4385.55
501.72	4389.65
501.923	4246.29
502.126	4322.07
502.329	4508.43
502.532	4561.68
502.735	4631.31
502.938	4659.98
503.141	4567.82
503.344	4676.37
503.547	4879.11
503.75	4772.62
503.953	4879.11
504.156	4883.21
504.359	5071.62
504.562	5020.42
504.765	5128.97
504.968	5102.34
505.17	5167.88
505.373	5382.92
505.576	5657.34
505.779	5542.66
505.982	5563.14
506.185	5708.54
506.387	5638.91
506.59	5892.86
506.793	5899
506.996	6101.75
507.198	6370.04
507.401	6386.42
507.604	6476.53
507.807	6490.87
508.009	6726.38
508.212	6906.6
508.415	6900.46
508.617	6990.57
508.82	7230.18
509.022	7160.55
509.225	7570.15
509.428	7647.97
509.63	7596.77
509.833	7844.57
510.035	8338.13
510.238	8157.91
510.44	8409.81
510.643	8645.33
510.845	9116.36
511.048	8907.47
511.25	9073.35
511.453	9396.93
511.655	9992.89
511.858	9999.04
512.06	10070.72
512.262	10293.94
512.465	10402.49
512.667	10683.06
512.87	10887.86
513.072	11033.26
513.274	11428.52
513.477	11885.22
513.679	11963.04
513.881	12343.96
514.084	12573.33
514.286	12886.67
514.488	13169.29
514.69	13505.16
514.893	13922.94
515.095	13924.99
515.297	14238.33
515.499	14406.27
515.701	14860.91
515.904	15438.44
516.106	15782.5
516.308	15716.97
516.51	16382.56
516.712	16642.65
516.914	17017.43
517.116	17287.76
517.318	17480.27
517.52	17853
517.722	18338.37
517.925	18723.38
518.127	19198.51
518.329	19286.58
518.531	19421.74
518.733	20032.04
518.935	20347.42
519.136	20636.19
519.338	21025.3
519.54	21101.08
519.742	21697.03
519.944	22145.54
520.146	22637.05
520.348	23011.83
520.55	23081.46
520.752	23378.42
520.954	23908.84
521.155	23749.1
521.357	24257
521.559	24539.61
521.761	25291.22
521.963	25197.01
522.164	25588.17
522.366	26241.48
522.568	26470.85
522.77	26173.89
522.971	27054.52
523.173	26454.47
523.375	26804.67
523.576	26986.94
523.778	26765.76
523.98	27556.27
524.181	27888.04
524.383	27933.1
524.584	28205.48
524.786	28164.52
524.988	28037.55
525.189	28217.77
525.391	28346.79
525.592	28559.78
525.794	28649.89
525.995	28705.18
526.197	28576.16
526.398	28428.71
526.6	28445.09
526.801	28615.07
527.003	28293.54
527.204	28361.12
527.406	28410.28
527.607	28598.69
527.808	28418.47
528.01	27705.77
528.211	28051.88
528.412	28371.36
528.614	27754.93
528.815	27691.44
529.016	27578.8
529.218	27095.48
529.419	27210.17
529.62	26407.36
529.822	26802.62
530.023	26288.58
530.224	26270.15
530.425	26003.91
530.626	25551.31
530.828	25094.61
531.029	25516.5
531.23	24746.46
531.431	24334.82
531.632	24719.84
531.833	24037.86
532.035	23835.11
532.236	23669.23
532.437	23421.42
532.638	22837.75
532.839	22934.01
533.04	22866.42
533.241	22452.73
533.442	22454.78
533.643	21703.18
533.844	21619.21
534.045	21252.63
534.246	20648.47
534.447	20601.37
534.648	20507.16
534.849	20003.36
535.05	19739.18
535.251	19718.7
535.451	19194.42
535.652	19323.44
535.853	18711.1
536.054	18743.86
536.255	17973.83
536.456	17863.24
536.657	18113.09
536.857	17578.57
537.058	17400.4
537.259	17300.05
537.46	16933.46
537.66	16833.11
537.861	16689.75
538.062	16265.82
538.263	15921.76
538.463	16112.22
538.664	15790.69
538.865	15334
539.065	15526.5
539.266	15170.16
539.466	15084.14
539.667	14672.5
539.868	14426.75
540.068	14516.86
540.269	14326.39
540.469	14258.81
540.67	13998.72
540.87	13795.97
541.071	13675.14
541.271	13552.26
541.472	13359.75
541.672	13146.76
541.873	13079.18
542.073	12694.16
542.274	12829.33
542.474	12702.36
542.675	12429.98
542.875	12346.01
543.075	12077.73
543.276	12057.25
543.476	11915.94
543.676	11635.36
543.877	11600.55
544.077	11604.64
544.277	11317.93
544.478	11233.96
544.678	11147.95
544.878	10959.53
545.078	10900.14
545.279	10683.06
545.479	10478.26
545.679	10486.45
545.879	10328.76
546.079	10359.48
546.28	10199.74
546.48	9982.65
546.68	10164.92
546.88	9845.44
547.08	9546.44
547.28	9751.23
547.48	9284.3
547.68	9200.33
547.88	9278.15
548.081	9204.42
548.281	8975.05
548.481	8833.74
548.681	8934.09
548.881	8930
549.081	8508.12
549.28	8475.35
549.48	8340.18
549.68	8526.55
549.88	8405.72
550.08	7910.11
550.28	8053.47
550.48	8000.22
550.68	7869.15
550.88	7504.61
551.08	7529.19
551.279	7529.19
551.479	7291.62
551.679	7555.81
551.879	7109.35
552.079	7138.02
552.278	6728.43
552.478	7025.39
552.678	6599.41
552.878	6683.38
553.077	6519.54
553.277	6359.8
553.477	6437.62
553.676	6179.58
553.876	5972.73
554.076	5841.66
554.275	5980.92
554.475	5845.76
554.674	5831.42
554.874	5573.38
555.074	5458.69
555.273	5454.59
555.473	5413.63
555.672	5309.19
555.872	5255.94
556.071	5061.38
556.271	5073.67
556.47	5014.28
556.67	4956.94
556.869	4803.34
557.068	4582.16
557.268	4756.24
557.467	4563.73
557.667	4608.78
557.866	4506.38
558.065	4354.83
558.265	4227.86
558.464	4260.63
558.663	4180.76
558.863	4178.71
559.062	4135.7
559.261	3939.1
559.461	3928.86
559.66	3679.01
559.859	3711.77
560.058	3654.43
560.258	3611.42
560.457	3527.46
560.656	3597.09
560.855	3484.45
561.054	3418.91
561.253	3433.25
561.453	3355.43
561.652	3132.2
561.851	3259.17
562.05	3009.32
562.249	3048.23
562.448	3193.64
562.647	2945.83
562.846	2927.4
563.045	2900.78
563.244	2902.83
563.443	2827.05
563.642	2775.85
563.841	2726.7
564.04	2663.21
564.239	2509.62
564.438	2538.29
564.637	2523.95
564.836	2530.09
565.035	2470.7
565.234	2444.08
565.432	2480.94
565.631	2394.93
565.83	2421.55
566.029	2216.76
566.228	2247.48
566.427	2362.16
566.625	2151.22
566.824	2216.76
567.023	2192.18
567.222	2067.25
567.42	2052.92
567.619	1954.62
567.818	2050.87
568.016	2245.43
568.215	1909.56
568.414	2016.05
568.612	1903.42
568.811	1794.87
569.01	1844.03
569.208	1809.21
569.407	1782.59
569.605	1786.68
569.804	1669.95
570.002	1807.16
570.201	1575.74
570.4	1727.29
570.598	1614.65
570.797	1430.34
570.995	1528.64
571.193	1469.25
571.392	1569.6
571.59	1418.05
571.789	1653.56
571.987	1571.65
572.186	1612.6
572.384	1452.86
572.582	1401.66
572.781	1499.97
572.979	1352.51
573.177	1311.55
573.376	1258.31
573.574	1334.08
573.772	1246.02
573.971	1094.47
574.169	1102.66
574.367	1299.27
574.565	1207.11
574.763	1219.39
574.962	1188.68
575.16	1190.72
575.358	1082.18
575.556	1129.28
575.754	1059.65
575.952	1012.55
576.151	1043.27
576.349	1086.28
576.547	924.49
576.745	936.78
576.943	1020.74
577.141	951.11
577.339	869.19
577.537	1037.13
577.735	1024.84
577.933	873.29
578.131	916.3
578.329	981.83
578.527	785.23
578.725	879.43
578.923	820.04
579.121	846.66
579.319	617.29
579.516	834.38
579.714	955.21
579.912	801.61
580.11	783.18
580.308	686.92
580.506	766.79
580.704	535.37
580.901	584.52
581.099	822.09
581.297	709.45
581.495	691.02
581.692	691.02
581.89	746.31
582.088	686.92
582.285	697.16
582.483	594.76
582.681	566.09
582.878	652.11
583.076	619.34
583.274	611.15
583.471	801.61
583.669	607.05
583.866	539.47
584.064	551.76
584.262	447.31
584.459	484.17
584.657	535.37
584.854	613.2
585.052	521.04
585.249	605
585.447	553.8
585.644	365.39
585.841	605
586.039	592.72
586.236	568.14
586.434	478.03
586.631	439.12
586.828	467.79
587.026	451.41
587.223	379.73
587.42	439.12
587.618	447.31
587.815	484.17
588.012	400.21
588.21	418.64
588.407	428.88
588.604	463.69
588.801	375.63
588.999	435.02
589.196	365.39
589.393	355.15
589.59	437.07
589.787	437.07
589.984	437.07
590.182	408.4
590.379	334.67
590.576	469.84
590.773	330.58
590.97	338.77
591.167	473.93
591.364	371.54
591.561	369.49
591.758	432.97
591.955	435.02
592.152	404.3
592.349	342.86
592.546	336.72
592.743	293.71
592.94	404.3
593.137	418.64
593.334	408.4
593.531	416.59
593.727	369.49
593.924	402.26
594.121	369.49
594.318	346.96
594.515	406.35
594.712	420.69
594.908	392.02
595.105	301.9
595.302	310.1
595.499	455.5
595.696	529.23
595.892	394.06
596.089	482.13
596.286	383.82
596.482	586.57
596.679	443.21
596.876	396.11
597.072	529.23
597.269	396.11
597.466	523.09
597.662	492.37
597.859	406.35
598.055	543.57
598.252	523.09
598.448	582.48
598.645	596.81
598.841	627.53
599.038	758.6
599.234	670.54
599.431	707.4
599.627	621.39
599.824	727.88
600.02	738.12
600.217	672.59
600.413	740.17
600.609	774.99
600.806	1024.84
601.002	932.68
601.198	789.32
601.395	959.3
601.591	904.01
601.787	969.54
601.984	1092.42
602.18	998.21
602.376	1000.26
602.572	1069.89
602.769	1162.05
602.965	1282.88
603.161	1305.41
603.357	1307.46
603.553	1362.75
603.75	1313.6
603.946	1461.06
604.142	1352.51
604.338	1532.73
604.534	1524.54
604.73	1510.21
604.926	1698.62
605.122	1735.48
605.318	1653.56
605.514	1827.64
605.71	1815.35
605.906	2005.81
606.102	1944.38
606.298	2100.02
606.494	2116.41
606.69	2245.43
606.886	2194.23
607.082	2270
607.278	2317.11
607.474	2505.52
607.67	2526
607.866	2435.89
608.062	2624.3
608.257	2743.08
608.453	2669.36
608.649	2890.54
608.845	2755.37
609.041	2933.54
609.236	3046.18
609.432	3099.43
609.628	3214.12
609.824	3359.52
610.019	3275.56
610.215	3447.58
610.411	3740.44
610.606	3767.07
610.802	3687.2
610.998	3724.06
611.193	4004.63
611.389	3984.15
611.584	4047.64
611.78	4119.32
611.976	4270.87
612.171	4657.93
612.367	4500.24
612.562	4715.28
612.758	4705.04
612.953	4727.57
613.149	4936.46
613.344	5098.25
613.539	5280.52
613.735	5352.2
613.93	5591.81
614.126	5571.33
614.321	5911.29
614.517	6116.09
614.712	6150.9
614.907	6488.82
615.103	6466.29
615.298	6419.19
615.493	6621.94
615.688	6955.76
615.884	7127.78
616.079	6931.18
616.274	7512.8
616.47	7629.54
616.665	7922.4
616.86	7926.49
617.055	8090.33
617.25	8340.18
617.445	8430.29
617.641	8669.91
617.836	9224.9
618.031	9036.49
618.226	9511.62
618.421	9575.11
618.616	9929.41
618.811	10003.13
619.006	10367.67
619.201	10472.12
619.396	10810.03
619.591	10820.27
619.786	11141.8
619.981	11147.95
620.176	11791.01
620.371	11811.49
620.566	12114.59
620.761	12196.51
620.956	12546.71
621.151	12657.3
621.346	13191.82
621.541	13138.57
621.735	13945.47
621.93	13714.05
622.125	14094.97
622.32	14183.04
622.515	14566.01
622.709	15004.27
622.904	15125.1
623.099	15256.17
623.294	15710.82
623.488	15880.8
623.683	16245.34
623.878	16325.21
624.072	16726.61
624.267	16863.83
624.462	17232.46
624.656	17279.57
624.851	17738.31
625.046	17934.92
625.24	18008.64
625.435	18252.35
625.629	18690.62
625.824	18784.82
626.018	19276.34
626.213	19163.7
626.407	19819.05
626.602	19773.99
626.796	20103.71
626.991	20230.69
627.185	20150.82
627.38	20589.08
627.574	20544.03
627.768	20914.71
627.963	20767.26
628.157	20877.85
628.352	21121.56
628.546	20857.37
628.74	21283.34
628.935	21191.19
629.129	21162.51
629.323	20890.13
629.517	20699.67
629.712	20750.87
629.906	20634.14
630.1	20339.23
630.294	20390.43
630.489	20013.6
630.683	20105.76
630.877	19573.29
631.071	19278.38
631.265	19110.45
631.459	18645.56
631.653	18219.58
631.848	18092.61
632.042	17228.37
632.236	16886.36
632.43	16671.32
632.624	16343.64
632.818	15540.84
633.012	15260.27
633.206	14805.62
633.4	14535.29
633.594	13744.77
633.788	13507.21
633.982	13118.09
634.176	12563.09
634.369	12247.71
634.563	11614.88
634.757	11164.33
634.951	10986.16
635.145	10474.17
635.339	9827.01
635.533	9548.48
635.726	9312.97
635.92	8725.2
636.114	8364.76
636.308	8137.43
636.501	7920.35
636.695	7463.65
636.889	7230.18
637.083	6875.88
637.276	6634.22
637.47	6290.17
637.664	5929.72
637.857	5868.28
638.051	5573.38
638.244	5380.87
638.438	5278.47
638.632	5085.96
638.825	4580.11
639.019	4569.87
639.212	4311.83
639.406	4279.06
639.599	4043.54
639.793	3926.81
639.986	3722.01
640.18	3693.34
640.373	3463.97
640.567	3189.54
640.76	3150.63
640.954	3115.81
641.147	2892.59
641.34	2837.29
641.534	2781.99
641.727	2689.84
641.92	2552.62
642.114	2501.42
642.307	2310.96
642.5	2333.49
642.694	2014.01
642.887	2081.59
643.08	2018.1
643.273	2030.39
643.467	1913.66
643.66	1753.91
643.853	1678.14
644.046	1702.72
644.239	1514.3
644.432	1428.29
644.626	1407.81
644.819	1442.62
645.012	1266.5
645.205	1311.55
645.398	1358.66
645.591	1200.96
645.784	1172.29
645.977	1061.7
646.17	1143.62
646.363	1096.52
646.556	908.1
646.749	879.43
646.942	967.49
647.135	1047.37
647.328	779.08
647.521	852.81
647.714	836.42
647.907	783.18
648.099	635.72
648.292	826.18
648.485	742.22
648.678	615.24
648.871	631.63
649.064	701.26
649.256	424.78
649.449	535.37
649.642	488.27
649.835	510.8
650.027	469.84
650.22	576.33
650.413	424.78
650.605	578.38
650.798	394.06
650.991	398.16
651.183	496.46
651.376	465.74
651.568	398.16
651.761	306
651.954	443.21
652.146	275.28
652.339	385.87
652.531	402.26
652.724	265.04
652.916	295.76
653.109	185.17
653.301	285.52
653.494	387.92
653.686	320.34
653.879	371.54
654.071	359.25
654.263	322.38
654.456	293.71
654.648	369.49
654.84	267.09
655.033	262.99
655.225	275.28
655.417	146.26
655.61	349.01
655.802	273.23
655.994	248.66
656.186	129.88
656.379	351.06
656.571	185.17
656.763	146.26
656.955	158.55
657.148	164.69
657.34	322.38
657.532	107.35
657.724	160.59
657.916	252.75
658.108	187.22
658.3	273.23
658.492	158.55
658.684	95.06
658.876	265.04
659.068	179.03
659.26	123.73
659.452	84.82
659.644	183.12
659.836	277.33
660.028	197.46
660.22	166.74
660.412	115.54
660.604	166.74
660.796	172.88
660.988	179.03
661.18	170.83
661.372	199.51
661.563	172.88
661.755	156.5
661.947	131.92
662.139	105.3
662.331	74.58
662.522	125.78
662.714	60.24
662.906	95.06
663.097	170.83
663.289	72.53
663.481	-25.77
663.673	172.88
663.864	90.96
664.056	140.12
664.247	93.01
664.439	174.93
664.631	148.31
664.822	164.69
665.014	140.12
665.205	103.25
665.397	119.64
665.588	123.73
665.78	66.39
665.971	109.4
666.163	115.54
666.354	119.64
666.546	174.93
666.737	66.39
666.929	111.44
667.12	31.57
667.311	121.68
667.503	86.87
667.694	144.21
667.885	103.25
668.077	129.88
668.268	4.95
668.459	144.21
668.651	205.65
668.842	158.55
669.033	19.29
669.224	39.76
669.416	262.99
669.607	60.24
669.798	45.91
669.989	226.13
670.18	88.92
670.371	131.92
670.563	52.05
670.754	230.23
670.945	88.92
671.136	144.21
671.327	31.57
671.518	172.88
671.709	215.89
671.9	115.54
672.091	236.37
672.282	138.07
672.473	154.45
672.664	25.43
672.855	162.64
673.046	97.11
673.237	181.07
673.428	156.5
673.619	154.45
673.809	84.82
674	199.51
674.191	185.17
674.382	103.25
674.573	86.87
674.764	179.03
674.954	174.93
675.145	29.52
675.336	62.29
675.527	39.76
675.717	115.54
675.908	80.72
676.099	121.68
676.289	193.36
676.48	50
676.671	119.64
676.861	37.72
677.052	76.63
677.243	146.26
677.433	97.11
677.624	148.31
677.814	136.02
678.005	148.31
678.195	342.86
678.386	68.44
678.576	103.25
678.767	76.63
678.957	117.59
679.148	267.09
679.338	205.65
679.529	146.26
679.719	113.49
679.909	185.17
680.1	215.89
680.29	248.66
680.481	27.48
680.671	246.61
680.861	183.12
681.052	127.83
681.242	133.97
681.432	174.93
681.622	256.85
681.813	60.24
682.003	158.55
682.193	123.73
682.383	162.64
682.573	138.07
682.764	150.36
682.954	172.88
683.144	285.52
683.334	111.44
683.524	215.89
683.714	226.13
683.904	140.12
684.094	193.36
684.284	209.75
684.474	355.15
684.664	211.79
684.854	193.36
685.044	203.6
685.234	201.55
685.424	242.51
685.614	129.88
685.804	267.09
685.994	287.57
686.184	213.84
686.374	201.55
686.564	179.03
686.753	148.31
686.943	117.59
687.133	152.4
687.323	138.07
687.513	258.9
687.702	183.12
687.892	146.26
688.082	236.37
688.272	303.95
688.461	131.92
688.651	283.47
688.841	193.36
689.03	213.84
689.22	185.17
689.41	238.42
689.599	115.54
689.789	78.68
689.979	330.58
690.168	193.36
690.358	219.99
690.547	174.93
690.737	154.45
690.926	248.66
691.116	197.46
691.305	236.37
691.495	193.36
691.684	144.21
691.874	148.31
692.063	189.27
692.252	199.51
692.442	287.57
692.631	174.93
692.82	144.21
693.01	252.75
693.199	160.59
693.388	174.93
693.578	160.59
693.767	170.83
693.956	228.18
694.146	164.69
694.335	172.88
694.524	150.36
694.713	244.56
694.902	138.07
695.092	168.79
695.281	181.07
695.47	187.22
695.659	54.1
695.848	187.22
696.037	113.49
696.226	285.52
696.415	107.35
696.604	279.38
696.793	189.27
696.982	115.54
697.171	244.56
697.36	119.64
697.549	197.46
697.738	47.96
697.927	105.3
698.116	133.97
698.305	121.68
698.494	193.36
698.683	158.55
698.872	326.48
699.061	86.87
699.25	185.17
699.438	160.59
699.627	160.59
699.816	353.1
700.005	107.35
700.193	113.49
700.382	217.94
700.571	176.98
700.76	226.13
700.948	205.65
701.137	297.81
701.326	250.71
701.514	160.59
701.703	211.79
701.892	119.64
702.08	324.43
702.269	168.79
702.457	133.97
702.646	121.68
702.834	140.12
703.023	314.19
703.212	240.47
703.4	158.55
703.589	129.88
703.777	209.75
703.965	142.16
704.154	142.16
704.342	45.91
704.531	103.25
704.719	142.16
704.907	252.75
705.096	86.87
705.284	172.88
705.472	158.55
705.661	179.03
705.849	252.75
706.037	230.23
706.226	158.55
706.414	129.88
706.602	117.59
706.79	176.98
706.979	160.59
707.167	179.03
707.355	76.63
707.543	144.21
707.731	244.56
707.919	138.07
708.107	146.26
708.296	168.79
708.484	107.35
708.672	158.55
708.86	213.84
709.048	144.21
709.236	93.01
709.424	271.19
709.612	179.03
709.8	97.11
709.988	158.55
710.176	97.11
710.364	256.85
710.551	187.22
710.739	140.12
710.927	107.35
711.115	156.5
711.303	238.42
711.491	203.6
711.679	142.16
711.866	127.83
712.054	62.29
712.242	193.36
712.43	250.71
712.617	144.21
712.805	248.66
712.993	222.03
713.181	68.44
713.368	215.89
713.556	138.07
713.744	213.84
713.931	338.77
714.119	246.61
714.306	93.01
714.494	111.44
714.682	164.69
714.869	109.4
715.057	193.36
715.244	82.77
715.432	260.95
715.619	90.96
715.807	86.87
715.994	107.35
716.182	234.32
716.369	283.47
716.556	199.51
716.744	109.4
716.931	109.4
717.119	273.23
717.306	197.46
717.493	248.66
717.681	93.01
717.868	150.36
718.055	170.83
718.242	146.26
718.43	232.27
718.617	219.99
718.804	164.69
718.991	260.95
719.179	287.57
719.366	201.55
719.553	174.93
719.74	185.17
719.927	189.27
720.114	172.88
720.301	156.5
720.488	203.6
720.676	117.59
720.863	316.24
721.05	316.24
721.237	260.95
721.424	217.94
721.611	275.28
721.798	142.16
721.985	105.3
722.172	154.45
722.358	174.93
722.545	295.76
722.732	156.5
722.919	275.28
723.106	314.19
723.293	103.25
723.48	150.36
723.667	117.59
723.853	267.09
724.04	269.14
724.227	330.58
724.414	160.59
724.6	306
724.787	285.52
724.974	355.15
725.161	226.13
725.347	193.36
725.534	219.99
725.72	170.83
725.907	217.94
726.094	232.27
726.28	203.6
726.467	236.37
726.653	136.02
726.84	310.1
727.027	312.14
727.213	201.55
727.4	293.71
727.586	260.95
727.773	191.31
727.959	168.79
728.145	232.27
728.332	285.52
728.518	166.74
728.705	275.28
728.891	230.23
729.077	291.66
729.264	219.99
729.45	150.36
729.636	238.42
729.823	340.82
730.009	299.86
730.195	230.23
730.382	254.8
730.568	136.02
730.754	189.27
730.94	170.83
731.126	236.37
731.313	297.81
731.499	238.42
731.685	265.04
731.871	256.85
732.057	353.1
732.243	332.62
732.429	209.75
732.615	344.91
732.801	240.47
732.987	310.1
733.173	244.56
733.359	219.99
733.545	246.61
733.731	174.93
733.917	351.06
734.103	246.61
734.289	238.42
734.475	191.31
734.661	445.26
734.847	222.03
735.033	275.28
735.219	277.33
735.404	242.51
735.59	195.41
735.776	222.03
735.962	289.62
736.148	211.79
736.333	373.58
736.519	252.75
736.705	279.38
736.89	303.95
737.076	193.36
737.262	189.27
737.447	162.64
737.633	195.41
737.819	308.05
738.004	213.84
738.19	334.67
738.375	271.19
738.561	246.61
738.747	195.41
738.932	209.75
739.118	447.31
739.303	318.29
739.489	281.43
739.674	244.56
739.859	222.03
740.045	281.43
740.23	277.33
740.416	129.88
740.601	297.81
740.786	269.14
740.972	166.74
741.157	250.71
741.342	242.51
741.528	295.76
741.713	412.5
741.898	201.55
742.084	248.66
742.269	242.51
742.454	340.82
742.639	377.68
742.824	228.18
743.01	320.34
743.195	310.1
743.38	275.28
743.565	275.28
743.75	265.04
743.935	353.1
744.12	418.64
744.305	250.71
744.49	277.33
744.675	320.34
744.86	273.23
745.045	375.63
745.23	211.79
745.415	295.76
745.6	303.95
745.785	289.62
745.97	316.24
746.155	332.62
746.34	353.1
746.525	365.39
746.71	279.38
746.895	129.88
747.079	172.88
747.264	199.51
747.449	308.05
747.634	271.19
747.819	279.38
748.003	234.32
748.188	240.47
748.373	271.19
748.557	262.99
748.742	256.85
748.927	244.56
749.111	222.03
749.296	215.89
749.481	279.38
749.665	240.47
749.85	205.65
750.034	240.47
750.219	181.07
750.404	222.03
750.588	254.8
750.773	179.03
750.957	195.41
751.141	191.31
751.326	265.04
751.51	90.96
751.695	203.6
751.879	168.79
752.064	314.19
752.248	240.47
752.432	400.21
752.617	295.76
752.801	232.27
752.985	168.79
753.17	344.91
753.354	203.6
753.538	246.61
753.722	224.08
753.907	84.82
754.091	105.3
754.275	224.08
754.459	123.73
754.643	129.88
754.828	279.38
755.012	205.65
755.196	162.64
755.38	219.99
755.564	160.59
755.748	215.89
755.932	146.26
756.116	185.17
756.3	262.99
756.484	121.68
756.668	207.7
756.852	31.57
757.036	123.73
757.22	168.79
757.404	121.68
757.588	136.02
757.772	176.98
757.956	181.07
758.14	234.32
758.323	123.73
758.507	203.6
758.691	90.96
758.875	258.9
759.059	312.14
759.242	31.57
759.426	97.11
759.61	117.59
759.794	142.16
759.977	150.36
760.161	324.43
760.345	291.66
760.528	205.65
760.712	117.59
760.895	232.27
761.079	103.25
761.263	111.44
761.446	103.25
761.63	158.55
761.813	191.31
761.997	52.05
762.18	72.53
762.364	174.93
762.547	17.24
762.731	56.15
762.914	162.64
763.098	68.44
763.281	136.02
763.464	29.52
763.648	140.12
763.831	160.59
764.015	119.64
764.198	142.16
764.381	82.77
764.564	154.45
764.748	174.93
764.931	54.1
765.114	142.16
765.297	158.55
765.481	54.1
765.664	138.07
765.847	103.25
766.03	152.4
766.213	76.63
766.397	144.21
766.58	-58.54
766.763	183.12
766.946	88.92
767.129	105.3
767.312	78.68
767.495	160.59
767.678	50
767.861	105.3
768.044	201.55
768.227	74.58
768.41	131.92
768.593	136.02
768.776	111.44
768.959	105.3
769.142	215.89
769.324	21.33
769.507	80.72
769.69	168.79
769.873	140.12
770.056	312.14
770.239	72.53
770.421	197.46
770.604	52.05
770.787	80.72
770.97	174.93
771.152	31.57
771.335	138.07
771.518	-52.39
771.7	142.16
771.883	181.07
772.066	97.11
772.248	113.49
772.431	133.97
772.613	111.44
772.796	140.12
772.978	125.78
773.161	187.22
773.343	127.83
773.526	15.19
773.708	99.16
773.891	-25.77
774.073	52.05
774.256	117.59
774.438	176.98
774.621	74.58
774.803	142.16
774.985	58.2
775.168	164.69
775.35	35.67
775.532	119.64
775.715	50
775.897	33.62
776.079	78.68
776.261	193.36
776.444	21.33
776.626	107.35
776.808	74.58
776.99	17.24
777.173	17.24
777.355	25.43
777.537	70.48
777.719	97.11
777.901	93.01
778.083	150.36
778.265	47.96
778.447	131.92
778.629	74.58
778.811	158.55
778.993	105.3
779.175	99.16
779.357	127.83
779.539	-17.58
779.721	82.77
779.903	117.59
780.085	21.33
780.267	95.06
780.449	162.64
780.631	138.07
780.812	142.16
780.994	97.11
781.176	-15.53
781.358	62.29
781.54	-3.24
781.721	113.49
781.903	15.19
782.085	35.67
782.267	168.79
782.448	-109.74
782.63	60.24
782.812	74.58
782.993	62.29
783.175	152.4
783.357	66.39
783.538	9.05
783.72	-23.72
783.901	-5.29
784.083	86.87
784.264	52.05
784.446	-52.39
784.627	7
784.809	176.98
784.99	-33.96
785.172	142.16
785.353	105.3
785.535	64.34
785.716	33.62
785.897	-79.02
786.079	68.44
786.26	33.62
786.441	41.81
786.623	-50.35
786.804	13.14
786.985	123.73
787.167	93.01
787.348	56.15
787.529	13.14
787.71	109.4
787.891	33.62
788.073	43.86
788.254	-60.59
788.435	131.92
788.616	-13.48
788.797	17.24
788.978	58.2
789.159	-13.48
789.34	-23.72
789.522	15.19
789.703	23.38
789.884	88.92
790.065	107.35
790.246	197.46
790.427	21.33
790.607	158.55
790.788	136.02
790.969	9.05
791.15	47.96
791.331	7
791.512	56.15
791.693	-93.35
791.874	76.63
792.054	201.55
792.235	70.48
792.416	-44.2
792.597	-44.2
792.778	107.35
792.958	82.77
793.139	66.39
793.32	-3.24
793.5	7
793.681	80.72
793.862	39.76
794.042	84.82
794.223	-97.45
794.404	9.05
794.584	-64.68
794.765	62.29
794.945	-44.2
795.126	93.01
795.306	84.82
795.487	23.38
795.667	-19.63
795.848	78.68
796.028	68.44
796.209	19.29
796.389	82.77
796.57	2.9
796.75	41.81
796.93	41.81
797.111	41.81
797.291	13.14
797.471	105.3
797.652	35.67
797.832	-7.34
798.012	121.68
798.192	-33.96
798.373	-5.29
798.553	-7.34
798.733	56.15
798.913	-60.59
799.093	-3.24
799.274	37.72
799.454	45.91
799.634	129.88
799.814	109.4
799.994	52.05
800.174	72.53
800.354	31.57
800.534	-195.75
800.714	50
800.894	-93.35
801.074	17.24
801.254	64.34
801.434	37.72
801.614	-27.82
801.794	11.09
801.974	1729.34
802.154	-48.3
802.334	31.57
802.514	33.62
802.693	15.19
802.873	33.62
803.053	88.92
803.233	41.81
803.413	72.53
803.592	0.85
803.772	0.85
803.952	19.29
804.131	-54.44
804.311	62.29
804.491	148.31
804.67	11.09
804.85	-27.82
805.03	50
805.209	140.12
805.389	7
805.568	72.53
805.748	-15.53
805.928	-36.01
806.107	50
806.287	39.76
806.466	125.78
806.646	33.62
806.825	15.19
807.004	-9.39
807.184	-21.67
807.363	7
807.543	129.88
807.722	-15.53
807.901	162.64
808.081	43.86
808.26	-103.59
808.439	41.81
808.619	-40.11
808.798	0.85
808.977	2.9
809.156	76.63
809.336	39.76
809.515	86.87
809.694	-17.58
809.873	-46.25
810.052	66.39
810.231	97.11
810.411	121.68
810.59	58.2
810.769	41.81
810.948	41.81
811.127	-81.07
811.306	-7.34
811.485	-27.82
811.664	123.73
811.843	-56.49
812.022	62.29
812.201	-15.53
812.38	23.38
812.559	45.91
812.737	131.92
812.916	-87.21
813.095	37.72
813.274	58.2
813.453	39.76
813.632	35.67
813.811	-7.34
813.989	-29.87
814.168	47.96
814.347	-113.83
814.526	4.95
814.704	86.87
814.883	109.4
815.062	41.81
815.24	70.48
815.419	-13.48
815.598	129.88
815.776	-48.3
815.955	-5.29
816.133	-107.69
816.312	-58.54
816.49	-68.78
816.669	-21.67
816.847	54.1
817.026	41.81
817.204	66.39
817.383	27.48
817.561	25.43
817.74	129.88
817.918	56.15
818.097	2.9
818.275	-9.39
818.453	154.45
818.632	50
818.81	15.19
818.988	-31.91
819.167	-3.24
819.345	27.48
819.523	45.91
819.701	78.68
819.879	9.05
820.058	58.2
820.236	60.24
820.414	37.72
820.592	17.24
820.77	-21.67
820.948	-19.63
821.127	-23.72
821.305	43.86
821.483	23.38
821.661	41.81
821.839	50
822.017	-19.63
822.195	-46.25
822.373	88.92
822.551	52.05
822.729	58.2
822.907	21.33
823.085	-5.29
823.262	56.15
823.44	-15.53
823.618	-89.26
823.796	15.19
823.974	4.95
824.152	-58.54
824.329	-40.11
824.507	88.92
824.685	70.48
824.863	19.29
825.04	7
825.218	66.39
825.396	-15.53
825.574	64.34
825.751	-81.07
825.929	78.68
826.107	-72.87
826.284	0.85
826.462	86.87
826.639	-72.87
826.817	-31.91
826.994	39.76
827.172	-74.92
827.349	84.82
827.527	62.29
827.704	70.48
827.882	15.19
828.059	-13.48
828.237	-89.26
828.414	-17.58
828.591	-85.16
828.769	29.52
828.946	-97.45
829.124	72.53
829.301	103.25
829.478	41.81
829.655	7
829.833	-9.39
830.01	-31.91
830.187	47.96
830.364	27.48
830.542	60.24
830.719	148.31
830.896	7
831.073	93.01
831.25	2.9
831.427	11.09
831.604	86.87
831.782	21.33
831.959	27.48
832.136	-17.58
832.313	-17.58
832.49	23.38
832.667	7
832.844	-89.26
833.021	90.96
833.198	23.38
833.374	41.81
833.551	-3.24
833.728	-25.77
833.905	7
834.082	-97.45
834.259	13.14
834.436	123.73
834.612	-54.44
834.789	97.11
834.966	103.25
835.143	95.06
835.319	-38.06
835.496	86.87
835.673	72.53
835.85	68.44
836.026	-5.29
836.203	95.06
836.38	-17.58
836.556	-89.26
836.733	-76.97
836.909	150.36
837.086	-113.83
837.262	-99.5
837.439	7
837.616	-56.49
837.792	62.29
837.968	-29.87
838.145	-87.21
838.321	68.44
838.498	68.44
838.674	45.91
838.851	62.29
839.027	50
839.203	39.76
839.38	93.01
839.556	56.15
839.732	95.06
839.909	-15.53
840.085	35.67
840.261	-66.73
840.437	39.76
840.614	33.62
840.79	97.11
840.966	107.35
841.142	-23.72
841.318	11.09
841.494	43.86
841.671	115.54
841.847	-13.48
842.023	-46.25
842.199	76.63
842.375	133.97
842.551	-117.93
842.727	-19.63
842.903	140.12
843.079	-74.92
843.255	50
843.431	0.85
843.607	80.72
843.783	-97.45
843.959	64.34
844.134	19.29
844.31	119.64
844.486	-13.48
844.662	37.72
844.838	15.19
845.013	9.05
845.189	129.88
845.365	107.35
845.541	23.38
845.716	29.52
845.892	84.82
846.068	-13.48
846.244	-33.96
846.419	-1.19
846.595	-56.49
846.77	-29.87
846.946	9.05
847.122	-21.67
847.297	-42.15
847.473	125.78
847.648	-72.87
847.824	35.67
847.999	-119.98
848.175	0.85
848.35	-36.01
848.526	164.69
848.701	111.44
848.876	95.06
849.052	88.92
849.227	19.29
849.403	-27.82
849.578	-40.11
849.753	39.76
849.929	82.77
850.104	-15.53
850.279	33.62
850.454	-29.87
850.63	54.1
850.805	54.1
850.98	80.72
851.155	-11.43
851.33	41.81
851.505	-50.35
851.681	84.82
851.856	-44.2
852.031	4.95
852.206	-23.72
852.381	-3.24
852.556	-5.29
852.731	88.92
852.906	39.76
853.081	103.25
853.256	140.12
853.431	-1.19
853.606	62.29
853.781	-60.59
853.956	-130.22
854.131	19.29
854.305	-91.31
854.48	-36.01
854.655	-68.78
854.83	-93.35
855.005	66.39
855.18	-44.2
855.354	29.52
855.529	-19.63
855.704	15.19
855.879	0.85
856.053	-113.83
856.228	68.44
856.403	-48.3
856.577	33.62
856.752	-91.31
856.926	25.43
857.101	7
857.276	-117.93
857.45	31.57
857.625	99.16
857.799	113.49
857.974	70.48
858.148	-109.74
858.323	-17.58
858.497	2.9
858.672	-13.48
858.846	4.95
859.02	60.24
859.195	-48.3
859.369	-17.58
859.543	-33.96
859.718	-81.07
859.892	25.43
860.066	-13.48
860.241	-29.87
860.415	58.2
860.589	-33.96
860.763	43.86
860.938	25.43
861.112	72.53
861.286	21.33
861.46	-13.48
861.634	-17.58
861.808	113.49
861.982	-7.34
862.157	-128.17
862.331	-38.06
862.505	-89.26
862.679	-29.87
862.853	70.48
863.027	-48.3
863.201	148.31
863.375	13.14
863.549	-29.87
863.722	15.19
863.896	-17.58
864.07	-72.87
864.244	60.24
864.418	-1.19
864.592	25.43
864.766	70.48
864.939	-7.34
865.113	-46.25
865.287	19.29
865.461	-83.11
865.634	54.1
865.808	-19.63
865.982	-66.73
866.156	-40.11
866.329	-83.11
866.503	-46.25
866.676	101.2
866.85	-11.43
867.024	37.72
867.197	107.35
867.371	39.76
867.544	2.9
867.718	-83.11
867.891	107.35
868.065	-105.64
868.238	-3.24
868.412	88.92
868.585	62.29
868.759	-17.58
868.932	7
869.105	-33.96
869.279	9.05
869.452	-21.67
869.625	131.92
869.799	-40.11
869.972	-79.02
870.145	-95.4
870.319	84.82
870.492	-74.92
870.665	0.85
870.838	-50.35
871.011	-136.36
871.185	66.39
871.358	-105.64
871.531	148.31
871.704	-72.87
871.877	-44.2
872.05	-60.59
872.223	-105.64
872.396	17.24
872.569	33.62
872.742	-117.93
872.915	76.63
873.088	27.48
873.261	-81.07
873.434	72.53
873.607	-72.87
873.78	119.64
873.953	-64.68
874.126	21.33
874.299	15.19
874.471	43.86
874.644	-17.58
874.817	109.4
874.99	213.84
875.163	-21.67
875.335	62.29
875.508	-36.01
875.681	68.44
875.853	-25.77
876.026	56.15
876.199	41.81
876.371	21.33
876.544	33.62
876.717	35.67
876.889	-83.11
877.062	58.2
877.234	-142.5
877.407	-25.77
877.579	86.87
877.752	-13.48
877.924	47.96
878.097	97.11
878.269	-25.77
878.442	70.48
878.614	35.67
878.786	35.67
878.959	-48.3
879.131	25.43
879.303	-93.35
879.476	0.85
879.648	95.06
879.82	-5.29
879.993	-33.96
880.165	-7.34
880.337	-44.2
880.509	-15.53
880.681	-66.73
880.854	-15.53
881.026	9.05
881.198	160.59
881.37	-1.19
881.542	-7.34
881.714	-52.39
881.886	-27.82
882.058	-36.01
882.23	-27.82
882.402	-9.39
882.574	78.68
882.746	41.81
882.918	82.77
883.09	78.68
883.262	27.48
883.434	-36.01
883.606	-93.35
883.778	-58.54
883.95	154.45
884.122	-74.92
884.293	148.31
884.465	-56.49
884.637	80.72
884.809	13.14
884.98	-31.91
885.152	-1.19
885.324	52.05
885.496	-44.2
885.667	9.05
885.839	33.62
886.011	93.01
886.182	45.91
886.354	43.86
886.525	9.05
886.697	56.15
886.869	-44.2
887.04	25.43
887.212	56.15
887.383	111.44
887.555	23.38
887.726	-64.68
887.897	7
888.069	58.2
888.24	45.91
888.412	-52.39
888.583	17.24
888.754	43.86
888.926	-99.5
889.097	-21.67
889.268	-95.4
889.44	-11.43
889.611	-56.49
889.782	-62.63
889.953	-23.72
890.125	68.44
890.296	-66.73
890.467	-60.59
890.638	-5.29
890.809	-74.92
890.98	-9.39
891.151	37.72
891.323	58.2
891.494	-31.91
891.665	41.81
891.836	27.48
892.007	-15.53
892.178	72.53
892.349	-31.91
892.52	-56.49
892.691	60.24
892.862	41.81
893.032	-103.59
893.203	-11.43
893.374	-36.01
893.545	105.3
893.716	-72.87
893.887	97.11
894.057	-70.83
894.228	-7.34
894.399	-3.24
894.57	109.4
894.74	-25.77
894.911	58.2
895.082	17.24
895.253	-66.73
895.423	7
895.594	39.76
895.764	41.81
895.935	-62.63
896.106	97.11
896.276	-7.34
896.447	78.68
896.617	-48.3
896.788	-36.01
896.958	7
897.129	-87.21
897.299	-113.83
897.47	189.27
897.64	-9.39
897.81	-79.02
897.981	-3.24
898.151	0.85
898.322	31.57
898.492	-29.87
898.662	-95.4
898.832	-70.83
899.003	-21.67
899.173	43.86
899.343	-74.92
899.513	-46.25
