Data from USB4F104151__97__10-35-28-228.txt Node

Date: Wed Feb 26 10:35:28 EST 2025
User: louis
Spectrometer: USB4F10415
Trigger mode: 4
Integration Time (sec): 1.000000E-1
Scans to average: 1
Electric dark correction enabled: true
Nonlinearity correction enabled: false
Boxcar width: 0
XAxis mode: Wavelengths
Number of Pixels in Spectrum: 3648
>>>>>Begin Spectral Data<<<<<
178.204	-359.08
178.424	-359.08
178.644	-359.08
178.864	-449.19
179.084	-457.38
179.304	50.52
179.524	-12.97
179.744	-4.78
179.964	34.13
180.184	-17.07
180.404	48.47
180.624	-37.55
180.844	-33.45
181.064	-94.89
181.283	44.37
181.503	-64.17
181.723	87.38
181.943	-47.79
182.163	134.48
182.383	7.51
182.602	34.13
182.822	128.34
183.042	77.14
183.262	-111.27
183.482	13.65
183.701	7.51
183.921	62.8
184.141	-8.87
184.361	15.7
184.58	44.37
184.8	-6.83
185.02	-43.69
185.239	34.13
185.459	54.61
185.679	120.15
185.898	-47.79
186.118	99.67
186.338	40.28
186.557	181.59
186.777	-51.88
186.997	-12.97
187.216	79.19
187.436	91.48
187.655	64.85
187.875	144.72
188.095	-31.4
188.314	68.95
188.534	85.33
188.753	-105.13
188.973	44.37
189.192	150.87
189.412	-66.22
189.631	52.56
189.851	30.04
190.07	122.2
190.29	-166.57
190.509	-21.16
190.729	64.85
190.948	154.96
191.168	290.13
191.387	77.14
191.607	44.37
191.826	25.94
192.045	-10.92
192.265	-29.35
192.484	111.96
192.704	-4.78
192.923	-66.22
193.142	111.96
193.362	120.15
193.581	101.72
193.8	38.23
194.02	48.47
194.239	-39.59
194.458	5.46
194.678	21.84
194.897	27.99
195.116	71
195.335	56.66
195.555	93.52
195.774	-39.59
195.993	85.33
196.212	-62.12
196.432	-45.74
196.651	-25.26
196.87	-8.87
197.089	290.13
197.308	7.51
197.528	-6.83
197.747	-76.46
197.966	19.8
198.185	81.24
198.404	-51.88
198.623	107.86
198.842	116.05
199.062	38.23
199.281	30.04
199.5	-33.45
199.719	13.65
199.938	50.52
200.157	124.24
200.376	107.86
200.595	75.09
200.814	3.41
201.033	-53.93
201.252	89.43
201.471	66.9
201.69	30.04
201.909	116.05
202.128	91.48
202.347	38.23
202.566	48.47
202.785	-103.08
203.004	-39.59
203.223	232.79
203.442	-43.69
203.661	-10.92
203.879	-17.07
204.098	138.58
204.317	-58.03
204.536	75.09
204.755	95.57
204.974	122.2
205.193	7.51
205.411	83.28
205.63	85.33
205.849	66.9
206.068	15.7
206.287	-27.31
206.505	144.72
206.724	-27.31
206.943	-37.55
207.162	-4.78
207.381	-45.74
207.599	-29.35
207.818	-33.45
208.037	19.8
208.255	-6.83
208.474	13.65
208.693	58.71
208.911	87.38
209.13	116.05
209.349	124.24
209.567	21.84
209.786	87.38
210.005	44.37
210.223	48.47
210.442	-47.79
210.661	15.7
210.879	97.62
211.098	-8.87
211.316	40.28
211.535	52.56
211.753	27.99
211.972	134.48
212.191	73.04
212.409	73.04
212.628	17.75
212.846	-12.97
213.065	68.95
213.283	93.52
213.502	107.86
213.72	38.23
213.938	32.08
214.157	-35.5
214.375	75.09
214.594	-6.83
214.812	54.61
215.031	58.71
215.249	-10.92
215.467	48.47
215.686	73.04
215.904	87.38
216.122	11.61
216.341	85.33
216.559	56.66
216.778	62.8
216.996	44.37
217.214	5.46
217.432	-49.83
217.651	-29.35
217.869	105.81
218.087	54.61
218.306	-62.12
218.524	-4.78
218.742	-96.94
218.96	25.94
219.179	-49.83
219.397	36.18
219.615	261.46
219.833	116.05
220.051	34.13
220.27	56.66
220.488	58.71
220.706	83.28
220.924	-12.97
221.142	68.95
221.36	11.61
221.578	44.37
221.796	-0.68
222.015	7.51
222.233	91.48
222.451	171.35
222.669	-41.64
222.887	3.41
223.105	19.8
223.323	-45.74
223.541	-15.02
223.759	11.61
223.977	71
224.195	126.29
224.413	93.52
224.631	60.76
224.849	-39.59
225.067	148.82
225.285	-62.12
225.503	-35.5
225.721	-131.75
225.939	32.08
226.157	81.24
226.375	216.4
226.592	11.61
226.81	40.28
227.028	81.24
227.246	142.68
227.464	93.52
227.682	73.04
227.9	25.94
228.117	17.75
228.335	48.47
228.553	-41.64
228.771	27.99
228.989	60.76
229.206	222.55
229.424	-19.11
229.642	-53.93
229.86	-39.59
230.077	146.77
230.295	1.37
230.513	175.44
230.731	5.46
230.948	157.01
231.166	142.68
231.384	-15.02
231.601	-64.17
231.819	163.15
232.037	-129.7
232.254	-94.89
232.472	-6.83
232.689	19.8
232.907	89.43
233.125	25.94
233.342	11.61
233.56	1.37
233.777	-0.68
233.995	40.28
234.213	68.95
234.43	81.24
234.648	25.94
234.865	-4.78
235.083	58.71
235.3	5.46
235.518	75.09
235.735	142.68
235.953	15.7
236.17	-15.02
236.388	-31.4
236.605	58.71
236.822	17.75
237.04	107.86
237.257	89.43
237.475	-72.36
237.692	58.71
237.909	154.96
238.127	-25.26
238.344	83.28
238.562	27.99
238.779	-94.89
238.996	-33.45
239.214	-17.07
239.431	11.61
239.648	32.08
239.865	-0.68
240.083	21.84
240.3	5.46
240.517	19.8
240.735	79.19
240.952	154.96
241.169	105.81
241.386	97.62
241.603	54.61
241.821	-80.55
242.038	107.86
242.255	101.72
242.472	-17.07
242.689	60.76
242.907	-4.78
243.124	101.72
243.341	32.08
243.558	-8.87
243.775	-78.51
243.992	23.89
244.209	19.8
244.426	75.09
244.643	89.43
244.86	9.56
245.078	36.18
245.295	-8.87
245.512	1.37
245.729	-105.13
245.946	-4.78
246.163	93.52
246.38	-8.87
246.597	21.84
246.814	-53.93
247.031	13.65
247.248	54.61
247.464	56.66
247.681	-2.73
247.898	91.48
248.115	-19.11
248.332	-10.92
248.549	154.96
248.766	157.01
248.983	73.04
249.2	-6.83
249.417	54.61
249.633	-23.21
249.85	109.91
250.067	27.99
250.284	13.65
250.501	54.61
250.717	46.42
250.934	-119.46
251.151	46.42
251.368	-55.98
251.585	-23.21
251.801	73.04
252.018	-31.4
252.235	40.28
252.451	-31.4
252.668	15.7
252.885	136.53
253.102	64.85
253.318	54.61
253.535	-53.93
253.752	-68.27
253.968	30.04
254.185	-55.98
254.401	30.04
254.618	52.56
254.835	-41.64
255.051	138.58
255.268	122.2
255.484	-12.97
255.701	-43.69
255.917	27.99
256.134	-19.11
256.351	-12.97
256.567	-113.32
256.784	25.94
257	-72.36
257.217	99.67
257.433	38.23
257.65	40.28
257.866	159.06
258.082	-66.22
258.299	-58.03
258.515	-10.92
258.732	7.51
258.948	-23.21
259.165	89.43
259.381	-60.07
259.597	9.56
259.814	32.08
260.03	-17.07
260.246	81.24
260.463	77.14
260.679	126.29
260.895	-29.35
261.112	136.53
261.328	-17.07
261.544	-70.31
261.761	118.1
261.977	-31.4
262.193	-64.17
262.409	66.9
262.626	3.41
262.842	-29.35
263.058	-33.45
263.274	64.85
263.49	32.08
263.707	111.96
263.923	87.38
264.139	-78.51
264.355	54.61
264.571	46.42
264.787	-6.83
265.004	85.33
265.22	-19.11
265.436	-31.4
265.652	27.99
265.868	79.19
266.084	9.56
266.3	-4.78
266.516	-45.74
266.732	68.95
266.948	25.94
267.164	-101.03
267.38	42.32
267.596	77.14
267.812	161.11
268.028	5.46
268.244	-45.74
268.46	13.65
268.676	-49.83
268.892	68.95
269.108	-25.26
269.324	-92.84
269.54	-109.23
269.756	105.81
269.972	-31.4
270.188	23.89
270.403	-8.87
270.619	-4.78
270.835	79.19
271.051	-10.92
271.267	17.75
271.483	-51.88
271.698	46.42
271.914	52.56
272.13	-8.87
272.346	-19.11
272.562	32.08
272.777	165.2
272.993	-17.07
273.209	56.66
273.425	87.38
273.64	-49.83
273.856	34.13
274.072	-92.84
274.287	-80.55
274.503	85.33
274.719	50.52
274.934	-12.97
275.15	-94.89
275.366	13.65
275.581	-62.12
275.797	97.62
276.012	34.13
276.228	13.65
276.444	11.61
276.659	58.71
276.875	-76.46
277.09	-45.74
277.306	27.99
277.521	79.19
277.737	-15.02
277.952	118.1
278.168	71
278.383	21.84
278.599	38.23
278.814	101.72
279.03	9.56
279.245	120.15
279.461	-35.5
279.676	95.57
279.892	-96.94
280.107	-70.31
280.322	-51.88
280.538	64.85
280.753	-19.11
280.969	36.18
281.184	5.46
281.399	173.39
281.615	34.13
281.83	68.95
282.045	-68.27
282.26	1.37
282.476	-6.83
282.691	81.24
282.906	40.28
283.122	56.66
283.337	34.13
283.552	83.28
283.767	-6.83
283.983	95.57
284.198	9.56
284.413	58.71
284.628	-25.26
284.843	-8.87
285.058	23.89
285.274	105.81
285.489	-4.78
285.704	136.53
285.919	7.51
286.134	27.99
286.349	-19.11
286.564	30.04
286.779	91.48
286.995	-17.07
287.21	-123.56
287.425	11.61
287.64	-90.79
287.855	-47.79
288.07	-127.66
288.285	111.96
288.5	154.96
288.715	136.53
288.93	9.56
289.145	-19.11
289.36	85.33
289.575	7.51
289.79	105.81
290.004	-60.07
290.219	132.44
290.434	-25.26
290.649	-78.51
290.864	-37.55
291.079	75.09
291.294	-2.73
291.509	42.32
291.724	-41.64
291.938	21.84
292.153	56.66
292.368	19.8
292.583	36.18
292.798	134.48
293.012	60.76
293.227	11.61
293.442	60.76
293.657	34.13
293.871	87.38
294.086	50.52
294.301	128.34
294.516	77.14
294.73	17.75
294.945	1.37
295.16	44.37
295.374	105.81
295.589	114
295.804	-53.93
296.018	11.61
296.233	58.71
296.447	23.89
296.662	-76.46
296.877	85.33
297.091	60.76
297.306	-35.5
297.52	-53.93
297.735	-2.73
297.949	19.8
298.164	-43.69
298.378	13.65
298.593	-49.83
298.807	-8.87
299.022	87.38
299.236	56.66
299.451	11.61
299.665	-33.45
299.88	-41.64
300.094	73.04
300.309	-29.35
300.523	36.18
300.737	-0.68
300.952	87.38
301.166	46.42
301.381	-29.35
301.595	-55.98
301.809	40.28
302.024	58.71
302.238	-43.69
302.452	60.76
302.667	-23.21
302.881	111.96
303.095	87.38
303.309	120.15
303.524	17.75
303.738	19.8
303.952	-62.12
304.166	48.47
304.381	-131.75
304.595	103.76
304.809	-103.08
305.023	44.37
305.237	-33.45
305.452	-41.64
305.666	25.94
305.88	-45.74
306.094	134.48
306.308	58.71
306.522	48.47
306.736	-15.02
306.95	-4.78
307.164	15.7
307.379	-2.73
307.593	81.24
307.807	103.76
308.021	79.19
308.235	114
308.449	-45.74
308.663	79.19
308.877	177.49
309.091	81.24
309.305	62.8
309.519	-62.12
309.733	105.81
309.947	-15.02
310.161	48.47
310.374	68.95
310.588	66.9
310.802	15.7
311.016	-8.87
311.23	42.32
311.444	-55.98
311.658	36.18
311.872	146.77
312.085	36.18
312.299	36.18
312.513	114
312.727	1.37
312.941	1.37
313.154	71
313.368	32.08
313.582	7.51
313.796	77.14
314.009	-10.92
314.223	85.33
314.437	-19.11
314.651	-23.21
314.864	-66.22
315.078	50.52
315.292	-45.74
315.505	7.51
315.719	71
315.933	132.44
316.146	-94.89
316.36	-17.07
316.573	138.58
316.787	25.94
317.001	42.32
317.214	-101.03
317.428	30.04
317.641	19.8
317.855	-62.12
318.068	-10.92
318.282	105.81
318.495	148.82
318.709	21.84
318.922	-0.68
319.136	173.39
319.349	95.57
319.563	-29.35
319.776	23.89
319.99	-84.65
320.203	97.62
320.417	-4.78
320.63	97.62
320.843	136.53
321.057	-19.11
321.27	-6.83
321.483	15.7
321.697	120.15
321.91	42.32
322.124	64.85
322.337	148.82
322.55	-27.31
322.763	-10.92
322.977	-6.83
323.19	-33.45
323.403	-12.97
323.617	15.7
323.83	64.85
324.043	-4.78
324.256	30.04
324.469	-4.78
324.683	124.24
324.896	23.89
325.109	52.56
325.322	-53.93
325.535	116.05
325.748	66.9
325.962	-47.79
326.175	32.08
326.388	27.99
326.601	101.72
326.814	-21.16
327.027	-15.02
327.24	105.81
327.453	-96.94
327.666	73.04
327.879	19.8
328.092	56.66
328.305	77.14
328.518	-29.35
328.731	-78.51
328.944	-76.46
329.157	136.53
329.37	-0.68
329.583	173.39
329.796	95.57
330.009	-49.83
330.222	68.95
330.435	75.09
330.648	9.56
330.861	36.18
331.073	85.33
331.286	107.86
331.499	-0.68
331.712	-53.93
331.925	-10.92
332.138	5.46
332.35	77.14
332.563	-60.07
332.776	124.24
332.989	-53.93
333.202	-0.68
333.414	-60.07
333.627	3.41
333.84	1.37
334.053	1.37
334.265	-45.74
334.478	-0.68
334.691	-0.68
334.903	38.23
335.116	-49.83
335.329	3.41
335.541	27.99
335.754	185.68
335.966	-2.73
336.179	62.8
336.392	38.23
336.604	30.04
336.817	48.47
337.029	50.52
337.242	97.62
337.454	97.62
337.667	-86.7
337.88	83.28
338.092	-86.7
338.305	87.38
338.517	62.8
338.729	122.2
338.942	99.67
339.154	-101.03
339.367	9.56
339.579	56.66
339.792	-55.98
340.004	124.24
340.217	50.52
340.429	21.84
340.641	-17.07
340.854	3.41
341.066	-17.07
341.278	120.15
341.491	148.82
341.703	40.28
341.915	-45.74
342.128	89.43
342.34	7.51
342.552	-47.79
342.764	-74.41
342.977	-2.73
343.189	46.42
343.401	27.99
343.613	-64.17
343.826	32.08
344.038	-37.55
344.25	-47.79
344.462	-43.69
344.674	34.13
344.886	9.56
345.099	48.47
345.311	136.53
345.523	34.13
345.735	-82.6
345.947	38.23
346.159	60.76
346.371	23.89
346.583	50.52
346.795	245.07
347.007	-82.6
347.219	32.08
347.431	-21.16
347.643	107.86
347.855	-21.16
348.067	144.72
348.279	-119.46
348.491	77.14
348.703	71
348.915	13.65
349.127	-68.27
349.339	60.76
349.551	-10.92
349.763	146.77
349.975	-80.55
350.187	163.15
350.399	50.52
350.61	48.47
350.822	15.7
351.034	-2.73
351.246	5.46
351.458	40.28
351.669	66.9
351.881	79.19
352.093	71
352.305	136.53
352.517	36.18
352.728	146.77
352.94	-2.73
353.152	142.68
353.363	-101.03
353.575	-4.78
353.787	89.43
353.999	42.32
354.21	146.77
354.422	-8.87
354.633	17.75
354.845	13.65
355.057	1.37
355.268	-23.21
355.48	85.33
355.692	-109.23
355.903	66.9
356.115	-74.41
356.326	-94.89
356.538	157.01
356.749	83.28
356.961	103.76
357.172	-58.03
357.384	-101.03
357.595	159.06
357.807	-21.16
358.018	-19.11
358.23	23.89
358.441	171.35
358.653	95.57
358.864	15.7
359.075	-49.83
359.287	64.85
359.498	64.85
359.709	42.32
359.921	101.72
360.132	83.28
360.344	-64.17
360.555	-2.73
360.766	-10.92
360.977	32.08
361.189	75.09
361.4	25.94
361.611	93.52
361.823	87.38
362.034	19.8
362.245	-29.35
362.456	-25.26
362.667	7.51
362.879	-41.64
363.09	46.42
363.301	25.94
363.512	44.37
363.723	11.61
363.935	-29.35
364.146	79.19
364.357	-131.75
364.568	40.28
364.779	-129.7
364.99	81.24
365.201	-78.51
365.412	154.96
365.623	-74.41
365.834	1.37
366.045	-39.59
366.256	23.89
366.467	-6.83
366.678	-47.79
366.889	-2.73
367.1	-45.74
367.311	75.09
367.522	19.8
367.733	23.89
367.944	64.85
368.155	15.7
368.366	56.66
368.577	56.66
368.788	27.99
368.999	-2.73
369.209	79.19
369.42	216.4
369.631	202.07
369.842	77.14
370.053	-8.87
370.264	48.47
370.474	-19.11
370.685	89.43
370.896	15.7
371.107	142.68
371.317	64.85
371.528	-64.17
371.739	124.24
371.95	75.09
372.16	27.99
372.371	-27.31
372.582	34.13
372.792	46.42
373.003	32.08
373.214	50.52
373.424	21.84
373.635	-49.83
373.846	109.91
374.056	48.47
374.267	-25.26
374.477	19.8
374.688	-25.26
374.898	130.39
375.109	9.56
375.319	17.75
375.53	122.2
375.74	114
375.951	91.48
376.161	50.52
376.372	32.08
376.582	-139.94
376.793	3.41
377.003	15.7
377.214	-6.83
377.424	3.41
377.635	-25.26
377.845	-82.6
378.055	97.62
378.266	-105.13
378.476	52.56
378.686	97.62
378.897	11.61
379.107	111.96
379.317	38.23
379.528	54.61
379.738	56.66
379.948	-37.55
380.158	25.94
380.369	122.2
380.579	50.52
380.789	-19.11
380.999	75.09
381.21	87.38
381.42	124.24
381.63	-4.78
381.84	81.24
382.05	68.95
382.261	91.48
382.471	58.71
382.681	11.61
382.891	122.2
383.101	54.61
383.311	5.46
383.521	-8.87
383.731	54.61
383.941	111.96
384.151	40.28
384.361	-27.31
384.571	48.47
384.781	73.04
384.991	142.68
385.201	107.86
385.411	130.39
385.621	64.85
385.831	30.04
386.041	87.38
386.251	9.56
386.461	79.19
386.671	-4.78
386.881	124.24
387.091	-15.02
387.301	85.33
387.511	60.76
387.72	60.76
387.93	83.28
388.14	-117.42
388.35	58.71
388.56	132.44
388.769	17.75
388.979	30.04
389.189	-60.07
389.399	77.14
389.609	71
389.818	34.13
390.028	103.76
390.238	120.15
390.447	-12.97
390.657	40.28
390.867	-19.11
391.076	-74.41
391.286	17.75
391.496	50.52
391.705	27.99
391.915	109.91
392.125	134.48
392.334	-55.98
392.544	171.35
392.753	-6.83
392.963	-74.41
393.172	27.99
393.382	-25.26
393.591	79.19
393.801	25.94
394.01	138.58
394.22	21.84
394.429	-10.92
394.639	3.41
394.848	27.99
395.058	56.66
395.267	-0.68
395.477	73.04
395.686	118.1
395.895	97.62
396.105	134.48
396.314	38.23
396.524	30.04
396.733	-10.92
396.942	146.77
397.152	-33.45
397.361	87.38
397.57	7.51
397.78	44.37
397.989	23.89
398.198	179.54
398.407	1.37
398.617	-4.78
398.826	62.8
399.035	-27.31
399.244	77.14
399.453	7.51
399.663	62.8
399.872	11.61
400.081	-98.99
400.29	105.81
400.499	-15.02
400.708	48.47
400.917	40.28
401.127	46.42
401.336	21.84
401.545	116.05
401.754	109.91
401.963	52.56
402.172	9.56
402.381	-53.93
402.59	54.61
402.799	-10.92
403.008	103.76
403.217	40.28
403.426	136.53
403.635	-45.74
403.844	38.23
404.053	15.7
404.262	-41.64
404.471	177.49
404.68	-12.97
404.888	19.8
405.097	27.99
405.306	42.32
405.515	44.37
405.724	64.85
405.933	46.42
406.142	5.46
406.35	46.42
406.559	-80.55
406.768	27.99
406.977	122.2
407.185	142.68
407.394	50.52
407.603	-117.42
407.812	62.8
408.02	152.91
408.229	48.47
408.438	34.13
408.646	-68.27
408.855	64.85
409.064	54.61
409.272	21.84
409.481	130.39
409.69	13.65
409.898	-66.22
410.107	124.24
410.315	-25.26
410.524	-47.79
410.733	44.37
410.941	-45.74
411.15	118.1
411.358	134.48
411.567	138.58
411.775	-15.02
411.984	154.96
412.192	97.62
412.401	5.46
412.609	140.63
412.818	64.85
413.026	34.13
413.234	66.9
413.443	-31.4
413.651	-23.21
413.86	11.61
414.068	157.01
414.276	109.91
414.485	-6.83
414.693	91.48
414.901	267.6
415.11	44.37
415.318	-0.68
415.526	36.18
415.734	146.77
415.943	46.42
416.151	101.72
416.359	38.23
416.567	30.04
416.776	116.05
416.984	58.71
417.192	116.05
417.4	-6.83
417.608	32.08
417.817	-27.31
418.025	126.29
418.233	175.44
418.441	-31.4
418.649	-37.55
418.857	46.42
419.065	120.15
419.273	-23.21
419.481	-78.51
419.689	40.28
419.897	32.08
420.105	-27.31
420.313	75.09
420.521	48.47
420.729	40.28
420.937	-62.12
421.145	-62.12
421.353	38.23
421.561	189.78
421.769	36.18
421.977	-15.02
422.185	118.1
422.393	44.37
422.601	13.65
422.809	142.68
423.017	64.85
423.224	30.04
423.432	46.42
423.64	58.71
423.848	152.91
424.056	-35.5
424.263	56.66
424.471	58.71
424.679	161.11
424.887	-51.88
425.094	1.37
425.302	60.76
425.51	40.28
425.718	34.13
425.925	40.28
426.133	-41.64
426.341	114
426.548	11.61
426.756	56.66
426.964	54.61
427.171	-2.73
427.379	42.32
427.586	114
427.794	169.3
428.001	56.66
428.209	60.76
428.417	124.24
428.624	118.1
428.832	-8.87
429.039	66.9
429.247	120.15
429.454	-4.78
429.662	134.48
429.869	118.1
430.076	109.91
430.284	56.66
430.491	130.39
430.699	85.33
430.906	167.25
431.114	-0.68
431.321	169.3
431.528	103.76
431.736	97.62
431.943	81.24
432.15	210.26
432.358	128.34
432.565	200.02
432.772	-33.45
432.979	97.62
433.187	56.66
433.394	202.07
433.601	93.52
433.808	140.63
434.016	120.15
434.223	144.72
434.43	144.72
434.637	183.63
434.844	193.87
435.052	212.31
435.259	159.06
435.466	206.16
435.673	191.83
435.88	189.78
436.087	228.69
436.294	265.55
436.501	232.79
436.708	224.59
436.915	228.69
437.122	300.37
437.329	197.97
437.537	261.46
437.743	206.16
437.95	351.57
438.157	294.22
438.364	230.74
438.571	255.31
438.778	329.04
438.985	392.53
439.192	343.38
439.399	314.7
439.606	429.39
439.813	413.01
440.02	496.97
440.227	523.6
440.433	427.34
440.64	415.05
440.847	335.18
441.054	314.7
441.261	539.98
441.467	462.16
441.674	441.68
441.881	529.74
442.088	492.88
442.294	640.33
442.501	589.13
442.708	742.73
442.914	634.19
443.121	595.28
443.328	671.05
443.534	750.92
443.741	654.67
443.948	658.76
444.154	728.39
444.361	834.89
444.568	795.98
444.774	804.17
444.981	662.86
445.187	914.76
445.394	867.66
445.6	841.03
445.807	986.44
446.013	955.72
446.22	816.46
446.426	998.73
446.633	1226.05
446.839	1269.06
447.046	1105.22
447.252	1262.91
447.459	1238.34
447.665	1174.85
447.871	1434.94
448.078	1477.95
448.284	1463.61
448.491	1539.39
448.697	1578.3
448.903	1619.26
449.11	1680.7
449.316	1699.13
449.522	1789.24
449.728	1793.34
449.935	1989.94
450.141	2004.28
450.347	2213.17
450.553	2129.2
450.76	2237.75
450.966	2170.16
451.172	2338.1
451.378	2266.42
451.584	2387.25
451.791	2559.28
451.997	2669.87
452.203	2680.11
452.409	2940.2
452.615	2948.39
452.821	2862.38
453.027	2997.54
453.233	3349.79
453.44	3175.72
453.646	3355.94
453.852	3487.01
454.058	3544.35
454.264	3775.77
454.47	4025.62
454.676	3974.42
454.882	4476.18
455.088	4107.54
455.294	4472.08
455.5	4629.77
455.705	4969.74
455.911	4953.35
456.117	5106.95
456.323	5266.69
456.529	5305.6
456.735	5840.12
456.941	6003.96
457.147	6169.85
457.352	6329.59
457.558	6462.71
457.764	6847.72
457.97	7101.67
458.176	7384.29
458.381	7724.26
458.587	7759.07
458.793	8316.12
458.999	8139.99
459.204	9071.82
459.41	9508.04
459.616	9444.55
459.821	10097.85
460.027	10298.55
460.233	10972.33
460.438	11089.07
460.644	11605.16
460.85	11992.22
461.055	12131.48
461.261	12643.48
461.466	12555.41
461.672	12799.12
461.878	14382.2
462.083	14193.79
462.289	14468.22
462.494	15006.83
462.7	15021.17
462.905	15332.46
463.111	16467.03
463.316	17501.26
463.522	17513.55
463.727	18084.93
463.932	18943.03
464.138	19446.83
464.343	20261.92
464.549	20526.11
464.754	21799.94
464.959	22713.34
465.165	23002.1
465.37	22813.69
465.575	22782.97
465.781	24419.3
465.986	25123.8
466.191	24677.34
466.397	24890.33
466.602	24558.56
466.807	25617.36
467.012	26160.07
467.218	26473.41
467.423	26639.29
467.628	27642.8
467.833	28711.84
468.038	28445.6
468.244	28023.72
468.449	29186.97
468.654	28584.87
468.859	28832.67
469.064	28595.1
469.269	28083.11
469.474	28056.49
469.679	29326.23
469.885	28208.04
470.09	28730.27
470.295	28838.81
470.5	28279.72
470.705	28158.89
470.91	27661.23
471.115	27259.83
471.32	27956.14
471.525	27556.78
471.73	26725.31
471.935	26676.16
472.139	25588.69
472.344	25840.59
472.549	25897.93
472.754	25308.12
472.959	24499.17
473.164	23761.9
473.369	23526.38
473.574	23989.22
473.778	23895.02
473.983	23417.84
474.188	22834.17
474.393	21572.62
474.598	21619.72
474.802	20884.5
475.007	20808.73
475.212	20714.52
475.417	19737.64
475.621	19776.55
475.826	19270.7
476.031	19041.33
476.235	18615.35
476.44	18773.05
476.645	18111.55
476.849	17816.65
477.054	17704.01
477.259	17474.63
477.463	16991.31
477.668	16528.47
477.872	16673.88
478.077	16202.85
478.282	15768.68
478.486	15658.09
478.691	15428.71
478.895	15330.41
479.1	15379.56
479.304	15109.23
479.509	14662.77
479.713	15078.51
479.918	14388.35
480.122	14007.42
480.326	14240.89
480.531	14193.79
480.735	14032
480.94	13730.95
481.144	14122.11
481.348	13390.98
481.553	13665.41
481.757	13243.53
481.961	13343.88
482.166	13493.38
482.37	13339.79
482.574	12901.52
482.778	12737.68
482.983	12848.27
483.187	12745.87
483.391	12717.2
483.595	12713.11
483.8	12225.69
484.004	12455.06
484.208	12283.03
484.412	12080.28
484.616	12084.38
484.821	11803.81
485.025	11474.09
485.229	11625.64
485.433	11322.54
485.637	11297.96
485.841	10908.85
486.045	10935.47
486.249	11072.68
486.453	10794.16
486.657	10704.05
486.861	10452.15
487.065	10243.26
487.269	10200.25
487.473	9716.93
487.677	9997.5
487.881	9868.48
488.085	9514.18
488.289	9473.22
488.493	9016.52
488.697	9239.75
488.901	9088.2
489.105	8805.58
489.309	8649.94
489.512	8561.87
489.716	8309.97
489.92	8178.9
490.124	7898.33
490.328	7910.62
490.531	7709.92
490.735	7597.28
490.939	7652.58
491.143	7249.13
491.346	7154.92
491.55	7159.02
491.754	7050.47
491.958	6898.92
492.161	6808.81
492.365	6491.38
492.569	6530.29
492.772	6327.54
492.976	6438.13
493.18	6368.5
493.383	6292.73
493.587	6018.3
493.79	6212.85
493.994	5924.09
494.197	5754.11
494.401	5793.02
494.605	5704.96
494.808	5780.73
495.012	5780.73
495.215	5696.77
495.419	5674.24
495.622	5483.78
495.825	5455.11
496.029	5350.66
496.232	5551.36
496.436	5403.91
496.639	5539.07
496.843	5180.68
497.046	5240.07
497.249	5459.2
497.453	5356.8
497.656	5270.79
497.859	5272.84
498.063	5252.36
498.266	5403.91
498.469	5172.49
498.673	5328.13
498.876	5211.4
499.079	5297.41
499.282	5459.2
499.485	5633.28
499.689	5491.97
499.892	5565.7
500.095	5303.56
500.298	5551.36
500.501	5522.69
500.705	5672.19
500.908	5614.85
501.111	5612.8
501.314	5829.88
501.517	5866.75
501.72	5917.95
501.923	5815.55
502.126	5903.61
502.329	6016.25
502.532	5995.77
502.735	6036.73
502.938	6290.68
503.141	6178.04
503.344	6196.47
503.547	6339.83
503.75	6485.23
503.953	6388.98
504.156	6710.51
504.359	6730.99
504.562	6610.16
504.765	6964.46
504.968	7077.1
505.17	7087.34
505.373	7089.39
505.576	7554.27
505.779	7468.26
505.982	7425.25
506.185	7771.36
506.387	7687.39
506.59	7963.87
506.793	8096.99
506.996	8172.76
507.198	8533.2
507.401	8549.59
507.604	8465.62
507.807	8692.94
508.009	8953.04
508.212	9161.93
508.415	9370.82
508.617	9295.05
508.82	9592
509.022	9698.5
509.225	10196.15
509.428	10353.85
509.63	10443.96
509.833	10622.13
510.035	10949.81
510.238	11027.63
510.44	11281.58
510.643	11551.91
510.845	11658.4
511.048	11879.58
511.25	12231.83
511.453	12549.27
511.655	13206.67
511.858	12932.24
512.06	13335.69
512.262	13681.8
512.465	13927.55
512.667	14390.39
512.87	14443.64
513.072	14783.6
513.274	15209.58
513.477	15496.3
513.679	15633.51
513.881	16194.65
514.084	16602.2
514.286	16860.24
514.488	17253.45
514.69	17882.18
514.893	17923.14
515.095	18187.33
515.297	18631.74
515.499	18996.28
515.701	19307.57
515.904	20120.61
516.106	20124.71
516.308	20765.72
516.51	21128.21
516.712	21584.91
516.914	22162.44
517.116	22645.76
517.318	22871.03
517.52	23251.95
517.722	23702.51
517.925	24165.35
518.127	24560.61
518.329	25414.61
518.531	25342.93
518.733	25807.82
518.935	26301.38
519.136	26528.7
519.338	27345.84
519.54	27605.94
519.742	27933.61
519.944	28185.51
520.146	29170.58
520.348	29520.79
520.55	29811.6
520.752	29961.1
520.954	30722.94
521.155	30526.34
521.357	31056.76
521.559	31357.81
521.761	31886.19
521.963	31828.85
522.164	32699.23
522.366	32744.29
522.568	33196.89
522.77	33444.69
522.971	33903.44
523.173	33704.79
523.375	34253.64
523.576	34048.85
523.778	34173.77
523.98	34454.34
524.181	34732.87
524.383	34921.28
524.584	34968.38
524.786	35169.08
524.988	34790.21
525.189	35228.48
525.391	35382.07
525.592	35429.18
525.794	35390.27
525.995	35380.03
526.197	35017.53
526.398	35631.93
526.6	35742.52
526.801	35459.9
527.003	35339.07
527.204	35103.55
527.406	35126.08
527.607	35273.53
527.808	35023.68
528.01	34028.37
528.211	34429.77
528.412	34530.12
528.614	34308.94
528.815	34126.67
529.016	34149.2
529.218	33295.19
529.419	33418.07
529.62	32930.65
529.822	32879.46
530.023	32029.55
530.224	31966.06
530.425	31921.01
530.626	31185.79
530.828	30901.12
531.029	31480.69
531.23	30675.84
531.431	30251.91
531.632	30155.66
531.833	30008.2
532.035	29479.83
532.236	28629.92
532.437	28738.46
532.638	28263.33
532.839	27919.28
533.04	27898.8
533.241	26815.42
533.442	27259.83
533.643	26538.94
533.844	26196.93
534.045	26139.59
534.246	25596.88
534.447	25131.99
534.648	24832.99
534.849	24685.53
535.05	24071.14
535.251	23946.22
535.451	23663.6
535.652	23380.98
535.853	22899.7
536.054	22615.04
536.255	22287.36
536.456	21789.7
536.657	21799.94
536.857	21523.47
537.058	21079.06
537.259	21150.74
537.46	20663.32
537.66	20083.75
537.861	19962.92
538.062	19637.29
538.263	19387.44
538.463	19239.98
538.664	18938.93
538.865	18596.92
539.065	18699.32
539.266	18289.73
539.466	18154.56
539.667	17572.94
539.868	17812.55
540.068	17593.42
540.269	17255.5
540.469	17249.36
540.67	16972.88
540.87	16448.6
541.071	16354.4
541.271	16225.37
541.472	16153.69
541.672	15797.35
541.873	15625.32
542.073	15359.08
542.274	15383.66
542.474	15275.12
542.675	15125.61
542.875	15015.02
543.075	14587
543.276	14206.08
543.476	14554.23
543.676	14251.13
543.877	14101.63
544.077	13917.31
544.277	13907.07
544.478	13595.78
544.678	13472.9
544.878	13167.76
545.078	13128.84
545.279	12835.99
545.479	12670.1
545.679	12805.27
545.879	12553.37
546.079	12455.06
546.28	12172.44
546.48	12231.83
546.68	11973.79
546.88	11920.54
547.08	11660.45
547.28	11635.88
547.48	11132.08
547.68	11359.4
547.88	11107.5
548.081	11039.92
548.281	10509.49
548.481	10495.16
548.681	10564.79
548.881	10491.06
549.081	10372.28
549.28	10165.43
549.48	9897.15
549.68	9944.25
549.88	9964.73
550.08	9493.7
550.28	9755.84
550.48	9589.95
550.68	9299.14
550.88	8948.94
551.08	8846.54
551.279	8731.86
551.479	8703.18
551.679	8676.56
551.879	8400.09
552.079	8475.86
552.278	8176.86
552.478	8223.96
552.678	8105.18
552.878	8000.73
553.077	7525.6
553.277	7689.44
553.477	7494.88
553.676	7298.28
553.876	7345.38
554.076	7206.12
554.275	7097.58
554.475	6872.3
554.674	6896.88
554.874	6833.39
555.074	6532.34
555.273	6577.39
555.473	6419.7
555.672	6380.79
555.872	6272.25
556.071	6245.62
556.271	5971.19
556.47	5987.58
556.67	5811.45
556.869	5709.05
557.068	5623.04
557.268	5477.63
557.467	5543.17
557.667	5350.66
557.866	5436.67
558.065	5164.29
558.265	4986.12
558.464	4887.82
558.663	5027.08
558.863	4887.82
559.062	4969.74
559.261	4744.46
559.461	4697.36
559.66	4478.22
559.859	4564.24
560.058	4336.92
560.258	4287.76
560.457	4228.37
560.656	4285.72
560.855	4052.25
561.054	4275.48
561.253	4005.14
561.453	4023.58
561.652	3763.48
561.851	3947.8
562.05	3685.66
562.249	3728.67
562.448	3564.83
562.647	3601.69
562.846	3532.06
563.045	3550.5
563.244	3542.3
563.443	3515.68
563.642	3280.16
563.841	3314.98
564.04	3153.19
564.239	3194.15
564.438	3118.37
564.637	3018.02
564.836	3036.45
565.035	3015.98
565.234	2972.97
565.432	2917.67
565.631	2874.67
565.83	2870.57
566.029	2790.7
566.228	2766.12
566.427	2874.67
566.625	2487.6
566.824	2628.91
567.023	2506.03
567.222	2450.74
567.42	2538.8
567.619	2436.4
567.818	2489.65
568.016	2630.96
568.215	2340.15
568.414	2374.96
568.612	2225.46
568.811	2223.41
569.01	2217.27
569.208	2276.66
569.407	2256.18
569.605	2155.83
569.804	2141.49
570.002	2118.96
570.201	1860.92
570.4	2010.42
570.598	1991.99
570.797	1969.46
570.995	1744.19
571.193	1840.44
571.392	1850.68
571.59	1766.71
571.789	1938.74
571.987	1848.63
572.186	1817.91
572.384	1713.47
572.582	1699.13
572.781	1877.3
572.979	1539.39
573.177	1617.21
573.376	1615.16
573.574	1621.31
573.772	1594.68
573.971	1467.71
574.169	1355.07
574.367	1471.81
574.565	1512.77
574.763	1391.94
574.962	1439.04
575.16	1447.23
575.358	1322.31
575.556	1230.15
575.754	1242.43
575.952	1348.93
576.151	1330.5
576.349	1260.87
576.547	1113.41
576.745	1359.17
576.943	1207.62
577.141	1137.99
577.339	1051.97
577.537	1076.55
577.735	1256.77
577.933	1103.17
578.131	1125.7
578.329	1203.52
578.527	1094.98
578.725	1076.55
578.923	959.81
579.121	949.57
579.319	873.8
579.516	998.73
579.714	1125.7
579.912	984.39
580.11	806.22
580.308	906.57
580.506	808.26
580.704	818.5
580.901	810.31
581.099	890.18
581.297	912.71
581.495	843.08
581.692	810.31
581.89	1008.97
582.088	849.22
582.285	720.2
582.483	777.55
582.681	787.79
582.878	722.25
583.076	781.64
583.274	787.79
583.471	888.14
583.669	705.87
583.866	609.61
584.064	621.9
584.262	626
584.459	654.67
584.657	664.91
584.854	695.63
585.052	703.82
585.249	623.95
585.447	589.13
585.644	589.13
585.841	632.14
586.039	652.62
586.236	681.29
586.434	546.12
586.631	464.21
586.828	523.6
587.026	570.7
587.223	488.78
587.42	464.21
587.618	501.07
587.815	638.28
588.012	509.26
588.21	499.02
588.407	558.41
588.604	511.31
588.801	392.53
588.999	572.75
589.196	525.65
589.393	419.15
589.59	523.6
589.787	496.97
589.984	509.26
590.182	476.49
590.379	468.3
590.576	466.25
590.773	439.63
590.97	431.44
591.167	476.49
591.364	464.21
591.561	408.91
591.758	535.89
591.955	443.73
592.152	347.47
592.349	384.34
592.546	435.53
592.743	318.8
592.94	421.2
593.137	384.34
593.334	505.17
593.531	451.92
593.727	558.41
593.924	425.29
594.121	480.59
594.318	449.87
594.515	462.16
594.712	554.32
594.908	513.36
595.105	324.94
595.302	494.93
595.499	456.01
595.696	599.37
595.892	472.4
596.089	597.32
596.286	529.74
596.482	648.52
596.679	574.8
596.876	415.05
597.072	585.04
597.269	529.74
597.466	562.51
597.662	511.31
597.859	519.5
598.055	595.28
598.252	640.33
598.448	675.15
598.645	636.24
598.841	767.31
599.038	859.46
599.234	853.32
599.431	865.61
599.627	859.46
599.824	814.41
600.02	922.95
600.217	816.46
600.413	916.81
600.609	896.33
600.806	1269.06
601.002	1133.89
601.198	1025.35
601.395	1076.55
601.591	1232.19
601.787	1156.42
601.984	1254.72
602.18	1299.78
602.376	1361.22
602.572	1430.85
602.769	1531.2
602.965	1539.39
603.161	1606.97
603.357	1740.09
603.553	1733.95
603.75	1627.45
603.946	1914.17
604.142	1934.65
604.338	1959.22
604.534	1969.46
604.73	2094.39
604.926	2043.19
605.122	2286.9
605.318	2223.41
605.514	2508.08
605.71	2422.06
605.906	2530.61
606.102	2612.53
606.298	2762.03
606.494	2811.18
606.69	2903.34
606.886	2837.8
607.082	2923.82
607.278	2944.3
607.474	3097.89
607.67	3108.13
607.866	3120.42
608.062	3370.27
608.257	3419.43
608.453	3624.22
608.649	3695.9
608.845	3691.8
609.041	3902.75
609.236	3972.38
609.432	4113.69
609.628	4203.8
609.824	4277.52
610.019	4271.38
610.215	4480.27
610.411	4758.8
610.606	4766.99
610.802	4932.87
610.998	5145.86
611.193	5393.67
611.389	5229.83
611.584	5389.57
611.78	5471.49
611.976	5571.84
612.171	6026.49
612.367	6241.53
612.562	6155.51
612.758	6153.46
612.953	6305.01
613.149	6548.72
613.344	6845.68
613.539	7134.44
613.735	7294.18
613.93	7355.62
614.126	7449.83
614.321	7855.33
614.517	8008.92
614.712	8160.47
614.907	8215.77
615.103	8742.1
615.298	8672.47
615.493	8944.84
615.688	9118.92
615.884	9594.05
616.079	9483.46
616.274	10032.32
616.47	10190.01
616.665	10413.24
616.86	10607.8
617.055	10898.61
617.25	11240.62
617.445	11674.79
617.641	11783.33
617.836	12033.18
618.031	12305.56
618.226	12481.69
618.421	12825.75
618.616	13059.21
618.811	13358.22
619.006	13894.79
619.201	13968.51
619.396	14509.18
619.591	14767.22
619.786	15170.67
619.981	15563.88
620.176	15909.99
620.371	16082.02
620.566	16696.41
620.761	16923.73
620.956	17030.23
621.151	17419.34
621.346	18103.36
621.541	17726.53
621.735	18568.25
621.93	18564.15
622.125	19012.66
622.32	18940.98
622.515	19862.57
622.709	20436
622.904	20716.57
623.099	21034
623.294	21421.07
623.488	21507.09
623.683	22027.27
623.878	22014.98
624.072	22668.28
624.267	23204.85
624.462	23454.7
624.656	23444.46
624.851	24128.49
625.046	24376.29
625.24	24966.1
625.435	24671.2
625.629	25379.79
625.824	26090.44
626.018	26024.9
626.213	26241.99
626.407	26686.4
626.602	26631.1
626.796	27235.25
626.991	27532.21
627.185	27458.48
627.38	27546.54
627.574	27954.09
627.768	28226.47
627.963	28408.74
628.157	28173.22
628.352	28707.74
628.546	28349.35
628.74	28748.7
628.935	28521.38
629.129	28847.01
629.323	28627.87
629.517	28408.74
629.712	28490.66
629.906	28111.78
630.1	27462.58
630.294	27810.73
630.489	27343.8
630.683	27218.87
630.877	26209.22
631.071	25895.88
631.265	25863.11
631.459	25058.26
631.653	24751.07
631.848	24364
632.042	23651.31
632.236	23348.21
632.43	22449.15
632.624	22180.87
632.818	21562.38
633.012	20616.22
633.206	19971.11
633.4	19450.92
633.594	18961.46
633.788	18488.38
633.982	17591.37
634.176	17030.23
634.369	16421.98
634.563	15690.85
634.757	14959.73
634.951	14625.91
635.145	14027.9
635.339	13565.06
635.533	12922
635.726	12448.92
635.92	11963.55
636.114	11625.64
636.308	11089.07
636.501	10560.69
636.695	10171.58
636.889	9745.6
637.083	9465.03
637.276	8725.71
637.47	8674.51
637.664	8117.47
637.857	7943.39
638.051	7617.76
638.244	7193.83
638.438	6964.46
638.632	6845.68
638.825	6270.2
639.019	6305.01
639.212	5897.47
639.406	5844.22
639.599	5534.98
639.793	5332.23
639.986	4930.83
640.18	5057.8
640.373	4533.52
640.567	4453.65
640.76	4336.92
640.954	4373.78
641.147	4042.01
641.34	3890.46
641.534	3888.41
641.727	3773.72
641.92	3515.68
642.114	3249.44
642.307	3145
642.5	3192.1
642.694	2841.9
642.887	2807.08
643.08	2802.99
643.273	2624.81
643.467	2641.2
643.66	2450.74
643.853	2340.15
644.046	2340.15
644.239	2266.42
644.432	2161.97
644.626	1981.75
644.819	1887.54
645.012	1901.88
645.205	1707.32
645.398	1867.06
645.591	1627.45
645.784	1482.05
645.977	1408.32
646.17	1502.53
646.363	1504.57
646.556	1273.15
646.749	1275.2
646.942	1277.25
647.135	1316.16
647.328	1133.89
647.521	1137.99
647.714	1051.97
647.907	1066.31
648.099	955.72
648.292	1002.82
648.485	912.71
648.678	847.18
648.871	802.12
649.064	826.7
649.256	853.32
649.449	732.49
649.642	615.76
649.835	664.91
650.027	666.96
650.22	736.59
650.413	681.29
650.605	689.48
650.798	539.98
650.991	585.04
651.183	603.47
651.376	564.56
651.568	519.5
651.761	460.11
651.954	490.83
652.146	464.21
652.339	480.59
652.531	519.5
652.724	417.1
652.916	345.42
653.109	312.66
653.301	398.67
653.494	533.84
653.686	337.23
653.879	503.12
654.071	363.86
654.263	277.84
654.456	177.49
654.648	474.45
654.84	322.9
655.033	255.31
655.225	384.34
655.417	195.92
655.61	333.14
655.802	347.47
655.994	343.38
656.186	202.07
656.379	314.7
656.571	169.3
656.763	271.7
656.955	175.44
657.148	253.27
657.34	292.18
657.532	243.03
657.724	175.44
657.916	197.97
658.108	216.4
658.3	245.07
658.492	294.22
658.684	232.79
658.876	296.27
659.068	81.24
659.26	77.14
659.452	114
659.644	191.83
659.836	300.37
660.028	175.44
660.22	136.53
660.412	159.06
660.604	200.02
660.796	173.39
660.988	191.83
661.18	87.38
661.372	204.11
661.563	109.91
661.755	134.48
661.947	32.08
662.139	118.1
662.331	126.29
662.522	114
662.714	44.37
662.906	77.14
663.097	85.33
663.289	140.63
663.481	62.8
663.673	122.2
663.864	157.01
664.056	200.02
664.247	64.85
664.439	238.93
664.631	148.82
664.822	210.26
665.014	93.52
665.205	68.95
665.397	58.71
665.588	126.29
665.78	146.77
665.971	146.77
666.163	87.38
666.354	191.83
666.546	19.8
666.737	122.2
666.929	134.48
667.12	103.76
667.311	77.14
667.503	107.86
667.694	62.8
667.885	122.2
668.077	116.05
668.268	48.47
668.459	114
668.651	79.19
668.842	148.82
669.033	40.28
669.224	50.52
669.416	222.55
669.607	93.52
669.798	58.71
669.989	210.26
670.18	7.51
670.371	99.67
670.563	-41.64
670.754	159.06
670.945	48.47
671.136	116.05
671.327	58.71
671.518	146.77
671.709	152.91
671.9	152.91
672.091	195.92
672.282	120.15
672.473	120.15
672.664	36.18
672.855	52.56
673.046	56.66
673.237	171.35
673.428	97.62
673.619	91.48
673.809	79.19
674	234.83
674.191	79.19
674.382	175.44
674.573	46.42
674.764	97.62
674.954	261.46
675.145	15.7
675.336	99.67
675.527	114
675.717	48.47
675.908	73.04
676.099	32.08
676.289	77.14
676.48	-41.64
676.671	83.28
676.861	19.8
677.052	177.49
677.243	103.76
677.433	124.24
677.624	247.12
677.814	118.1
678.005	97.62
678.195	243.03
678.386	15.7
678.576	118.1
678.767	36.18
678.957	126.29
679.148	161.11
679.338	245.07
679.529	140.63
679.719	99.67
679.909	243.03
680.1	171.35
680.29	200.02
680.481	25.94
680.671	212.31
680.861	152.91
681.052	165.2
681.242	109.91
681.432	157.01
681.622	101.72
681.813	62.8
682.003	157.01
682.193	-12.97
682.383	68.95
682.573	144.72
682.764	64.85
682.954	240.98
683.144	189.78
683.334	122.2
683.524	75.09
683.714	214.35
683.904	126.29
684.094	181.59
684.284	175.44
684.474	290.13
684.664	91.48
684.854	118.1
685.044	114
685.234	136.53
685.424	105.81
685.614	120.15
685.804	263.51
685.994	161.11
686.184	136.53
686.374	146.77
686.564	216.4
686.753	93.52
686.943	36.18
687.133	136.53
687.323	157.01
687.513	126.29
687.702	154.96
687.892	111.96
688.082	216.4
688.272	208.21
688.461	146.77
688.651	261.46
688.841	165.2
689.03	93.52
689.22	152.91
689.41	161.11
689.599	163.15
689.789	120.15
689.979	257.36
690.168	140.63
690.358	238.93
690.547	195.92
690.737	204.11
690.926	173.39
691.116	195.92
691.305	224.59
691.495	187.73
691.684	157.01
691.874	130.39
692.063	138.58
692.252	200.02
692.442	230.74
692.631	157.01
692.82	85.33
693.01	171.35
693.199	103.76
693.388	140.63
693.578	75.09
693.767	226.64
693.956	195.92
694.146	114
694.335	134.48
694.524	152.91
694.713	175.44
694.902	191.83
695.092	93.52
695.281	165.2
695.47	134.48
695.659	42.32
695.848	144.72
696.037	15.7
696.226	152.91
696.415	101.72
696.604	175.44
696.793	189.78
696.982	97.62
697.171	124.24
697.36	122.2
697.549	101.72
697.738	54.61
697.927	118.1
698.116	73.04
698.305	193.87
698.494	118.1
698.683	75.09
698.872	179.54
699.061	163.15
699.25	114
699.438	128.34
699.627	83.28
699.816	253.27
700.005	21.84
700.193	142.68
700.382	193.87
700.571	66.9
700.76	191.83
700.948	157.01
701.137	261.46
701.326	167.25
701.514	83.28
701.703	185.68
701.892	179.54
702.08	314.7
702.269	161.11
702.457	68.95
702.646	83.28
702.834	171.35
703.023	286.03
703.212	165.2
703.4	195.92
703.589	99.67
703.777	89.43
703.965	85.33
704.154	36.18
704.342	-25.26
704.531	97.62
704.719	114
704.907	91.48
705.096	87.38
705.284	34.13
705.472	177.49
705.661	146.77
705.849	193.87
706.037	232.79
706.226	159.06
706.414	144.72
706.602	21.84
706.79	163.15
706.979	46.42
707.167	228.69
707.355	17.75
707.543	187.73
707.731	136.53
707.919	191.83
708.107	152.91
708.296	32.08
708.484	44.37
708.672	183.63
708.86	220.5
709.048	114
709.236	126.29
709.424	202.07
709.612	197.97
709.8	81.24
709.988	126.29
710.176	181.59
710.364	230.74
710.551	228.69
710.739	142.68
710.927	64.85
711.115	146.77
711.303	185.68
711.491	212.31
711.679	75.09
711.866	179.54
712.054	124.24
712.242	132.44
712.43	206.16
712.617	154.96
712.805	167.25
712.993	136.53
713.181	62.8
713.368	224.59
713.556	134.48
713.744	58.71
713.931	310.61
714.119	181.59
714.306	124.24
714.494	66.9
714.682	191.83
714.869	52.56
715.057	220.5
715.244	71
715.432	175.44
715.619	56.66
715.807	130.39
715.994	60.76
716.182	181.59
716.369	146.77
716.556	228.69
716.744	48.47
716.931	23.89
717.119	257.36
717.306	44.37
717.493	130.39
717.681	99.67
717.868	103.76
718.055	247.12
718.242	109.91
718.43	161.11
718.617	193.87
718.804	91.48
718.991	202.07
719.179	197.97
719.366	148.82
719.553	202.07
719.74	120.15
719.927	173.39
720.114	134.48
720.301	173.39
720.488	163.15
720.676	138.58
720.863	220.5
721.05	351.57
721.237	208.21
721.424	202.07
721.611	171.35
721.798	132.44
721.985	128.34
722.172	269.65
722.358	152.91
722.545	212.31
722.732	169.3
722.919	232.79
723.106	300.37
723.293	130.39
723.48	167.25
723.667	75.09
723.853	267.6
724.04	216.4
724.227	263.51
724.414	163.15
724.6	136.53
724.787	279.89
724.974	281.94
725.161	132.44
725.347	138.58
725.534	197.97
725.72	214.35
725.907	259.41
726.094	283.98
726.28	154.96
726.467	204.11
726.653	193.87
726.84	349.52
727.027	329.04
727.213	97.62
727.4	179.54
727.586	228.69
727.773	204.11
727.959	234.83
728.145	142.68
728.332	193.87
728.518	210.26
728.705	273.75
728.891	249.17
729.077	179.54
729.264	132.44
729.45	175.44
729.636	265.55
729.823	220.5
730.009	298.32
730.195	326.99
730.382	253.27
730.568	208.21
730.754	140.63
730.94	165.2
731.126	220.5
731.313	232.79
731.499	185.68
731.685	308.56
731.871	259.41
732.057	308.56
732.243	234.83
732.429	271.7
732.615	339.28
732.801	240.98
732.987	177.49
733.173	226.64
733.359	183.63
733.545	224.59
733.731	175.44
733.917	355.66
734.103	228.69
734.289	249.17
734.475	210.26
734.661	423.25
734.847	195.92
735.033	226.64
735.219	294.22
735.404	181.59
735.59	228.69
735.776	255.31
735.962	298.32
736.148	245.07
736.333	357.71
736.519	208.21
736.705	202.07
736.89	277.84
737.076	257.36
737.262	208.21
737.447	216.4
737.633	243.03
737.819	296.27
738.004	204.11
738.19	222.55
738.375	249.17
738.561	281.94
738.747	275.79
738.932	171.35
739.118	351.57
739.303	257.36
739.489	277.84
739.674	197.97
739.859	187.73
740.045	304.46
740.23	236.88
740.416	85.33
740.601	230.74
740.786	275.79
740.972	146.77
741.157	114
741.342	122.2
741.528	109.91
741.713	353.62
741.898	202.07
742.084	212.31
742.269	200.02
742.454	298.32
742.639	361.81
742.824	218.45
743.01	343.38
743.195	363.86
743.38	173.39
743.565	189.78
743.75	218.45
743.935	335.18
744.12	277.84
744.305	138.58
744.49	296.27
744.675	163.15
744.86	189.78
745.045	265.55
745.23	304.46
745.415	249.17
745.6	234.83
745.785	216.4
745.97	343.38
746.155	343.38
746.34	277.84
746.525	265.55
746.71	367.95
746.895	148.82
747.079	167.25
747.264	73.04
747.449	308.56
747.634	292.18
747.819	253.27
748.003	279.89
748.188	134.48
748.373	240.98
748.557	234.83
748.742	341.33
748.927	224.59
749.111	142.68
749.296	191.83
749.481	306.51
749.665	261.46
749.85	204.11
750.034	255.31
750.219	279.89
750.404	185.68
750.588	171.35
750.773	195.92
750.957	208.21
751.141	210.26
751.326	277.84
751.51	183.63
751.695	236.88
751.879	146.77
752.064	279.89
752.248	204.11
752.432	326.99
752.617	226.64
752.801	279.89
752.985	150.87
753.17	171.35
753.354	97.62
753.538	138.58
753.722	171.35
753.907	167.25
754.091	27.99
754.275	236.88
754.459	120.15
754.643	187.73
754.828	157.01
755.012	206.16
755.196	-19.11
755.38	169.3
755.564	142.68
755.748	134.48
755.932	320.85
756.116	138.58
756.3	144.72
756.484	95.57
756.668	267.6
756.852	44.37
757.036	128.34
757.22	189.78
757.404	75.09
757.588	138.58
757.772	73.04
757.956	148.82
758.14	269.65
758.323	136.53
758.507	251.22
758.691	150.87
758.875	214.35
759.059	195.92
759.242	77.14
759.426	103.76
759.61	89.43
759.794	23.89
759.977	275.79
760.161	347.47
760.345	232.79
760.528	197.97
760.712	152.91
760.895	177.49
761.079	87.38
761.263	66.9
761.446	109.91
761.63	126.29
761.813	220.5
761.997	48.47
762.18	132.44
762.364	128.34
762.547	40.28
762.731	105.81
762.914	91.48
763.098	154.96
763.281	148.82
763.464	159.06
763.648	97.62
763.831	34.13
764.015	7.51
764.198	91.48
764.381	105.81
764.564	150.87
764.748	118.1
764.931	126.29
765.114	48.47
765.297	138.58
765.481	13.65
765.664	114
765.847	128.34
766.03	150.87
766.213	46.42
766.397	159.06
766.58	58.71
766.763	81.24
766.946	77.14
767.129	95.57
767.312	71
767.495	38.23
767.678	118.1
767.861	54.61
768.044	114
768.227	-12.97
768.41	66.9
768.593	81.24
768.776	157.01
768.959	30.04
769.142	167.25
769.324	89.43
769.507	85.33
769.69	52.56
769.873	81.24
770.056	224.59
770.239	73.04
770.421	191.83
770.604	68.95
770.787	54.61
770.97	56.66
771.152	36.18
771.335	83.28
771.518	64.85
771.7	183.63
771.883	171.35
772.066	83.28
772.248	17.75
772.431	171.35
772.613	152.91
772.796	-8.87
772.978	73.04
773.161	183.63
773.343	60.76
773.526	-17.07
773.708	-33.45
773.891	-66.22
774.073	46.42
774.256	38.23
774.438	154.96
774.621	48.47
774.803	142.68
774.985	36.18
775.168	138.58
775.35	50.52
775.532	77.14
775.715	87.38
775.897	-25.26
776.079	-4.78
776.261	126.29
776.444	-8.87
776.626	44.37
776.808	81.24
776.99	-4.78
777.173	42.32
777.355	54.61
777.537	52.56
777.719	52.56
777.901	7.51
778.083	1.37
778.265	-60.07
778.447	99.67
778.629	40.28
778.811	40.28
778.993	171.35
779.175	169.3
779.357	62.8
779.539	-78.51
779.721	111.96
779.903	64.85
780.085	19.8
780.267	38.23
780.449	71
780.631	130.39
780.812	130.39
780.994	40.28
781.176	109.91
781.358	122.2
781.54	95.57
781.721	89.43
781.903	87.38
782.085	-8.87
782.267	165.2
782.448	13.65
782.63	85.33
782.812	-4.78
782.993	95.57
783.175	206.16
783.357	-25.26
783.538	42.32
783.72	64.85
783.901	-19.11
784.083	46.42
784.264	75.09
784.446	-62.12
784.627	34.13
784.809	107.86
784.99	15.7
785.172	75.09
785.353	21.84
785.535	79.19
785.716	-2.73
785.897	-92.84
786.079	52.56
786.26	64.85
786.441	75.09
786.623	30.04
786.804	-51.88
786.985	101.72
787.167	83.28
787.348	62.8
787.529	54.61
787.71	163.15
787.891	64.85
788.073	9.56
788.254	-72.36
788.435	167.25
788.616	7.51
788.797	-15.02
788.978	81.24
789.159	-39.59
789.34	103.76
789.522	5.46
789.703	-47.79
789.884	13.65
790.065	71
790.246	134.48
790.427	32.08
790.607	68.95
790.788	103.76
790.969	30.04
791.15	-39.59
791.331	-49.83
791.512	-70.31
791.693	-88.75
791.874	-25.26
792.054	154.96
792.235	36.18
792.416	-115.37
792.597	-117.42
792.778	42.32
792.958	97.62
793.139	66.9
793.32	-2.73
793.5	-78.51
793.681	111.96
793.862	23.89
794.042	-45.74
794.223	-62.12
794.404	5.46
794.584	-109.23
794.765	21.84
794.945	36.18
795.126	103.76
795.306	136.53
795.487	-103.08
795.667	-39.59
795.848	-19.11
796.028	50.52
796.209	30.04
796.389	-4.78
796.57	-33.45
796.75	-4.78
796.93	-2.73
797.111	-60.07
797.291	-84.65
797.471	40.28
797.652	-19.11
797.832	-64.17
798.012	89.43
798.192	-51.88
798.373	-17.07
798.553	-47.79
798.733	54.61
798.913	-60.07
799.093	-82.6
799.274	5.46
799.454	46.42
799.634	34.13
799.814	118.1
799.994	66.9
800.174	48.47
800.354	66.9
800.534	-119.46
800.714	-12.97
800.894	-107.18
801.074	-111.27
801.254	13.65
801.434	-15.02
801.614	-31.4
801.794	52.56
801.974	1963.32
802.154	-58.03
802.334	58.71
802.514	-76.46
802.693	62.8
802.873	-37.55
803.053	36.18
803.233	23.89
803.413	9.56
803.592	-43.69
803.772	-15.02
803.952	-62.12
804.131	-62.12
804.311	38.23
804.491	103.76
804.67	7.51
804.85	-119.46
805.03	21.84
805.209	62.8
805.389	-0.68
805.568	-58.03
805.748	-35.5
805.928	1.37
806.107	30.04
806.287	17.75
806.466	9.56
806.646	-23.21
806.825	-27.31
807.004	-45.74
807.184	21.84
807.363	81.24
807.543	-8.87
807.722	-25.26
807.901	103.76
808.081	38.23
808.26	-119.46
808.439	46.42
808.619	-39.59
808.798	-39.59
808.977	1.37
809.156	-12.97
809.336	-4.78
809.515	93.52
809.694	-72.36
809.873	1.37
810.052	-23.21
810.231	23.89
810.411	-6.83
810.59	64.85
810.769	66.9
810.948	-27.31
811.127	-123.56
811.306	-8.87
811.485	-17.07
811.664	73.04
811.843	17.75
812.022	-0.68
812.201	-15.02
812.38	-72.36
812.559	-8.87
812.737	46.42
812.916	-60.07
813.095	-103.08
813.274	-21.16
813.453	1.37
813.632	23.89
813.811	64.85
813.989	-47.79
814.168	1.37
814.347	-84.65
814.526	-58.03
814.704	109.91
814.883	25.94
815.062	15.7
815.24	15.7
815.419	-94.89
815.598	-23.21
815.776	-117.42
815.955	54.61
816.133	-158.38
816.312	36.18
816.49	-51.88
816.669	-23.21
816.847	-25.26
817.026	38.23
817.204	-33.45
817.383	-53.93
817.561	-58.03
817.74	-64.17
817.918	-17.07
818.097	-123.56
818.275	-43.69
818.453	27.99
818.632	58.71
818.81	-82.6
818.988	-111.27
819.167	1.37
819.345	21.84
819.523	-84.65
819.701	-8.87
819.879	48.47
820.058	101.72
820.236	-4.78
820.414	38.23
820.592	-25.26
820.77	-25.26
820.948	62.8
821.127	-47.79
821.305	-88.75
821.483	-41.64
821.661	27.99
821.839	-23.21
822.017	-62.12
822.195	9.56
822.373	25.94
822.551	15.7
822.729	58.71
822.907	-80.55
823.085	-6.83
823.262	-6.83
823.44	-64.17
823.618	-66.22
823.796	13.65
823.974	-31.4
824.152	-74.41
824.329	-84.65
824.507	-10.92
824.685	44.37
824.863	-31.4
825.04	-10.92
825.218	36.18
825.396	93.52
825.574	-10.92
825.751	-84.65
825.929	44.37
826.107	-29.35
826.284	-23.21
826.462	-37.55
826.639	-101.03
826.817	-25.26
826.994	9.56
827.172	-70.31
827.349	109.91
827.527	52.56
827.704	-84.65
827.882	68.95
828.059	-17.07
828.237	-98.99
828.414	25.94
828.591	-160.42
828.769	7.51
828.946	-66.22
829.124	95.57
829.301	109.91
829.478	-10.92
829.655	9.56
829.833	-17.07
830.01	-125.61
830.187	19.8
830.364	-58.03
830.542	1.37
830.719	93.52
830.896	27.99
831.073	-8.87
831.25	73.04
831.427	1.37
831.604	-98.99
831.782	-29.35
831.959	79.19
832.136	-6.83
832.313	-76.46
832.49	48.47
832.667	-12.97
832.844	-23.21
833.021	73.04
833.198	-41.64
833.374	-62.12
833.551	13.65
833.728	-35.5
833.905	44.37
834.082	-158.38
834.259	9.56
834.436	83.28
834.612	-101.03
834.789	79.19
834.966	38.23
835.143	-39.59
835.319	-78.51
835.496	21.84
835.673	52.56
835.85	-0.68
836.026	3.41
836.203	87.38
836.38	-96.94
836.556	-39.59
836.733	-2.73
836.909	87.38
837.086	-27.31
837.262	-86.7
837.439	-33.45
837.616	-76.46
837.792	-70.31
837.968	-29.35
838.145	-66.22
838.321	-35.5
838.498	-17.07
838.674	85.33
838.851	107.86
839.027	-58.03
839.203	-90.79
839.38	-12.97
839.556	7.51
839.732	44.37
839.909	9.56
840.085	-39.59
840.261	-125.61
840.437	-23.21
840.614	-49.83
840.79	5.46
840.966	5.46
841.142	-6.83
841.318	-66.22
841.494	7.51
841.671	38.23
841.847	-53.93
842.023	-111.27
842.199	19.8
842.375	79.19
842.551	-92.84
842.727	-115.37
842.903	126.29
843.079	-107.18
843.255	1.37
843.431	-66.22
843.607	-31.4
843.783	-156.33
843.959	-17.07
844.134	-66.22
844.31	56.66
844.486	-17.07
844.662	-27.31
844.838	-27.31
845.013	79.19
845.189	60.76
845.365	-17.07
845.541	-49.83
845.716	-35.5
845.892	134.48
846.068	-86.7
846.244	-80.55
846.419	-25.26
846.595	-25.26
846.77	-31.4
846.946	42.32
847.122	-31.4
847.297	-27.31
847.473	56.66
847.648	-121.51
847.824	34.13
847.999	-96.94
848.175	-53.93
848.35	-31.4
848.526	32.08
848.701	32.08
848.876	36.18
849.052	-2.73
849.227	-98.99
849.403	-12.97
849.578	15.7
849.753	-4.78
849.929	-29.35
850.104	-82.6
850.279	-10.92
850.454	-82.6
850.63	-17.07
850.805	-2.73
850.98	11.61
851.155	-92.84
851.33	27.99
851.505	-113.32
851.681	148.82
851.856	-94.89
852.031	71
852.206	44.37
852.381	-101.03
852.556	21.84
852.731	25.94
852.906	58.71
853.081	5.46
853.256	134.48
853.431	-78.51
853.606	-80.55
853.781	-37.55
853.956	-135.85
854.131	-23.21
854.305	-92.84
854.48	-0.68
854.655	-39.59
854.83	-88.75
855.005	-25.26
855.18	-66.22
855.354	-29.35
855.529	48.47
855.704	-37.55
855.879	1.37
856.053	-86.7
856.228	-19.11
856.403	-129.7
856.577	-21.16
856.752	-129.7
856.926	-23.21
857.101	-10.92
857.276	-72.36
857.45	-19.11
857.625	48.47
857.799	-53.93
857.974	-62.12
858.148	-119.46
858.323	-29.35
858.497	-29.35
858.672	-58.03
858.846	-25.26
859.02	27.99
859.195	-43.69
859.369	42.32
859.543	-17.07
859.718	-43.69
859.892	-31.4
860.066	-64.17
860.241	36.18
860.415	-86.7
860.589	-66.22
860.763	-29.35
860.938	-37.55
861.112	-10.92
861.286	71
861.46	-23.21
861.634	-17.07
861.808	30.04
861.982	-45.74
862.157	-98.99
862.331	-29.35
862.505	-125.61
862.679	-113.32
862.853	-55.98
863.027	-0.68
863.201	25.94
863.375	-62.12
863.549	27.99
863.722	27.99
863.896	42.32
864.07	-103.08
864.244	-70.31
864.418	25.94
864.592	-4.78
864.766	-19.11
864.939	-29.35
865.113	-37.55
865.287	81.24
865.461	-139.94
865.634	-86.7
865.808	-41.64
865.982	-47.79
866.156	-109.23
866.329	-117.42
866.503	15.7
866.676	21.84
866.85	36.18
867.024	-37.55
867.197	5.46
867.371	27.99
867.544	9.56
867.718	-131.75
867.891	73.04
868.065	-64.17
868.238	3.41
868.412	71
868.585	-55.98
868.759	-58.03
868.932	-86.7
869.105	-107.18
869.279	5.46
869.452	-109.23
869.625	60.76
869.799	-12.97
869.972	-39.59
870.145	-92.84
870.319	50.52
870.492	-84.65
870.665	-17.07
870.838	-74.41
871.011	-238.25
871.185	-6.83
871.358	-43.69
871.531	-31.4
871.704	-55.98
871.877	79.19
872.05	-43.69
872.223	-62.12
872.396	38.23
872.569	-2.73
872.742	-107.18
872.915	19.8
873.088	-10.92
873.261	-49.83
873.434	32.08
873.607	-115.37
873.78	128.34
873.953	-121.51
874.126	-68.27
874.299	-35.5
874.471	-111.27
874.644	13.65
874.817	-19.11
874.99	122.2
875.163	-29.35
875.335	36.18
875.508	-25.26
875.681	27.99
875.853	-31.4
876.026	-74.41
876.199	3.41
876.371	-84.65
876.544	5.46
876.717	-4.78
876.889	-53.93
877.062	11.61
877.234	-37.55
877.407	-144.04
877.579	-72.36
877.752	-49.83
877.924	-8.87
878.097	15.7
878.269	38.23
878.442	-68.27
878.614	21.84
878.786	-84.65
878.959	1.37
879.131	32.08
879.303	-72.36
879.476	-109.23
879.648	62.8
879.82	-55.98
879.993	-8.87
880.165	-55.98
880.337	-152.23
880.509	40.28
880.681	-90.79
880.854	-60.07
881.026	17.75
881.198	157.01
881.37	-0.68
881.542	-19.11
881.714	-70.31
881.886	-58.03
882.058	-2.73
882.23	71
882.402	-51.88
882.574	-51.88
882.746	64.85
882.918	-23.21
883.09	23.89
883.262	42.32
883.434	-78.51
883.606	-96.94
883.778	42.32
883.95	101.72
884.122	-86.7
884.293	91.48
884.465	-41.64
884.637	-2.73
884.809	-98.99
884.98	-29.35
885.152	58.71
885.324	25.94
885.496	-88.75
885.667	-76.46
885.839	-37.55
886.011	23.89
886.182	27.99
886.354	46.42
886.525	48.47
886.697	-19.11
886.869	-127.66
887.04	-25.26
887.212	-8.87
887.383	175.44
887.555	27.99
887.726	-55.98
887.897	-113.32
888.069	-43.69
888.24	-15.02
888.412	-25.26
888.583	-43.69
888.754	-105.13
888.926	-115.37
889.097	-96.94
889.268	-170.66
889.44	-33.45
889.611	-107.18
889.782	-156.33
889.953	-12.97
890.125	27.99
890.296	-111.27
890.467	-23.21
890.638	-98.99
890.809	-68.27
890.98	-53.93
891.151	-12.97
891.323	122.2
891.494	-47.79
891.665	-25.26
891.836	-21.16
892.007	-17.07
892.178	36.18
892.349	7.51
892.52	-76.46
892.691	-37.55
892.862	-80.55
893.032	-137.9
893.203	13.65
893.374	60.76
893.545	36.18
893.716	-70.31
893.887	42.32
894.057	-131.75
894.228	-15.02
894.399	-127.66
894.57	68.95
894.74	-31.4
894.911	-58.03
895.082	-2.73
895.253	-78.51
895.423	-88.75
895.594	58.71
895.764	3.41
895.935	-68.27
896.106	-43.69
896.276	-115.37
896.447	-53.93
896.617	-76.46
896.788	-107.18
896.958	-129.7
897.129	-90.79
897.299	-58.03
897.47	103.76
897.64	32.08
897.81	-64.17
897.981	-15.02
898.151	-70.31
898.322	1.37
898.492	3.41
898.662	-23.21
898.832	-115.37
899.003	-51.88
899.173	-51.88
899.343	-74.41
899.513	-123.56
