Data from USB4F104151__69__09-29-32-794.txt Node

Date: Wed Feb 26 09:29:32 EST 2025
User: louis
Spectrometer: USB4F10415
Trigger mode: 4
Integration Time (sec): 1.000000E-1
Scans to average: 1
Electric dark correction enabled: true
Nonlinearity correction enabled: false
Boxcar width: 0
XAxis mode: Wavelengths
Number of Pixels in Spectrum: 3648
>>>>>Begin Spectral Data<<<<<
178.204	-335.87
178.424	-335.87
178.644	-335.87
178.864	-344.06
179.084	-409.59
179.304	8.19
179.524	-73.73
179.744	28.67
179.964	12.29
180.184	-12.29
180.404	8.19
180.624	-22.53
180.844	18.43
181.064	24.58
181.283	14.34
181.503	-43.01
181.723	36.86
181.943	-47.1
182.163	198.65
182.383	-49.15
182.602	112.64
182.822	59.39
183.042	22.53
183.262	14.34
183.482	63.49
183.701	59.39
183.921	137.21
184.141	-45.06
184.361	45.06
184.58	34.82
184.8	12.29
185.02	-22.53
185.239	94.21
185.459	59.39
185.679	65.54
185.898	-90.11
186.118	88.06
186.338	43.01
186.557	24.58
186.777	-63.49
186.997	-10.24
187.216	43.01
187.436	182.27
187.655	47.1
187.875	61.44
188.095	96.25
188.314	114.69
188.534	88.06
188.753	-28.67
188.973	67.58
189.192	129.02
189.412	67.58
189.631	65.54
189.851	75.77
190.07	165.89
190.29	-32.77
190.509	83.97
190.729	43.01
190.948	149.5
191.168	157.69
191.387	69.63
191.607	10.24
191.826	124.93
192.045	-32.77
192.265	8.19
192.484	36.86
192.704	28.67
192.923	-45.06
193.142	184.32
193.362	69.63
193.581	124.93
193.8	100.35
194.02	83.97
194.239	10.24
194.458	73.73
194.678	-6.14
194.897	-14.34
195.116	34.82
195.335	34.82
195.555	114.69
195.774	18.43
195.993	59.39
196.212	49.15
196.432	-14.34
196.651	-12.29
196.87	96.25
197.089	223.23
197.308	59.39
197.528	108.54
197.747	-22.53
197.966	-18.43
198.185	100.35
198.404	-43.01
198.623	131.07
198.842	40.96
199.062	116.73
199.281	147.45
199.5	51.2
199.719	24.58
199.938	186.37
200.157	155.65
200.376	102.4
200.595	110.59
200.814	-10.24
201.033	-88.06
201.252	131.07
201.471	-2.05
201.69	102.4
201.909	14.34
202.128	96.25
202.347	153.6
202.566	-38.91
202.785	-34.82
203.004	-2.05
203.223	210.94
203.442	59.39
203.661	-51.2
203.879	28.67
204.098	155.65
204.317	47.1
204.536	75.77
204.755	83.97
204.974	-6.14
205.193	43.01
205.411	210.94
205.63	63.49
205.849	129.02
206.068	-4.1
206.287	-24.58
206.505	96.25
206.724	69.63
206.943	-79.87
207.162	40.96
207.381	53.25
207.599	-47.1
207.818	14.34
208.037	51.2
208.255	90.11
208.474	98.3
208.693	88.06
208.911	-26.62
209.13	81.92
209.349	71.68
209.567	96.25
209.786	34.82
210.005	98.3
210.223	-24.58
210.442	-73.73
210.661	49.15
210.879	-2.05
211.098	-30.72
211.316	32.77
211.535	90.11
211.753	88.06
211.972	32.77
212.191	20.48
212.409	12.29
212.628	79.87
212.846	-47.1
213.065	106.49
213.283	55.3
213.502	20.48
213.72	65.54
213.938	34.82
214.157	67.58
214.375	67.58
214.594	-32.77
214.812	106.49
215.031	67.58
215.249	-24.58
215.467	-32.77
215.686	30.72
215.904	-38.91
216.122	-22.53
216.341	24.58
216.559	-12.29
216.778	38.91
216.996	81.92
217.214	-14.34
217.432	-20.48
217.651	-12.29
217.869	45.06
218.087	34.82
218.306	-10.24
218.524	40.96
218.742	-36.86
218.96	104.45
219.179	4.1
219.397	16.38
219.615	192.51
219.833	86.01
220.051	8.19
220.27	94.21
220.488	65.54
220.706	116.73
220.924	-14.34
221.142	-16.38
221.36	120.83
221.578	114.69
221.796	40.96
222.015	43.01
222.233	28.67
222.451	186.37
222.669	-22.53
222.887	43.01
223.105	-22.53
223.323	98.3
223.541	-43.01
223.759	30.72
223.977	2.05
224.195	155.65
224.413	77.82
224.631	71.68
224.849	40.96
225.067	210.94
225.285	-34.82
225.503	81.92
225.721	-106.49
225.939	61.44
226.157	-59.39
226.375	159.74
226.592	-18.43
226.81	24.58
227.028	81.92
227.246	45.06
227.464	20.48
227.682	108.54
227.9	104.45
228.117	94.21
228.335	129.02
228.553	116.73
228.771	43.01
228.989	88.06
229.206	88.06
229.424	24.58
229.642	-14.34
229.86	12.29
230.077	157.69
230.295	28.67
230.513	102.4
230.731	14.34
230.948	178.17
231.166	157.69
231.384	38.91
231.601	-47.1
231.819	194.56
232.037	-71.68
232.254	6.14
232.472	-22.53
232.689	34.82
232.907	106.49
233.125	-40.96
233.342	-10.24
233.56	-71.68
233.777	-49.15
233.995	24.58
234.213	10.24
234.43	116.73
234.648	43.01
234.865	30.72
235.083	10.24
235.3	-34.82
235.518	57.34
235.735	65.54
235.953	63.49
236.17	-20.48
236.388	-40.96
236.605	14.34
236.822	38.91
237.04	147.45
237.257	55.3
237.475	-22.53
237.692	12.29
237.909	40.96
238.127	-83.97
238.344	83.97
238.562	12.29
238.779	-61.44
238.996	-36.86
239.214	59.39
239.431	53.25
239.648	-8.19
239.865	88.06
240.083	69.63
240.3	38.91
240.517	16.38
240.735	63.49
240.952	77.82
241.169	106.49
241.386	49.15
241.603	10.24
241.821	22.53
242.038	71.68
242.255	172.03
242.472	-49.15
242.689	63.49
242.907	47.1
243.124	24.58
243.341	36.86
243.558	-22.53
243.775	-30.72
243.992	-24.58
244.209	2.05
244.426	149.5
244.643	79.87
244.86	-2.05
245.078	155.65
245.295	45.06
245.512	-49.15
245.729	-110.59
245.946	-6.14
246.163	34.82
246.38	16.38
246.597	34.82
246.814	75.77
247.031	49.15
247.248	34.82
247.464	92.16
247.681	73.73
247.898	106.49
248.115	98.3
248.332	-71.68
248.549	94.21
248.766	108.54
248.983	100.35
249.2	2.05
249.417	133.12
249.633	-8.19
249.85	55.3
250.067	-8.19
250.284	26.62
250.501	90.11
250.717	51.2
250.934	10.24
251.151	45.06
251.368	59.39
251.585	30.72
251.801	34.82
252.018	20.48
252.235	137.21
252.451	-55.3
252.668	34.82
252.885	75.77
253.102	45.06
253.318	14.34
253.535	-22.53
253.752	61.44
253.968	30.72
254.185	-22.53
254.401	-79.87
254.618	4.1
254.835	-43.01
255.051	145.41
255.268	135.17
255.484	51.2
255.701	38.91
255.917	106.49
256.134	-49.15
256.351	36.86
256.567	10.24
256.784	51.2
257	-92.16
257.217	24.58
257.433	102.4
257.65	20.48
257.866	114.69
258.082	-6.14
258.299	-6.14
258.515	81.92
258.732	32.77
258.948	-73.73
259.165	10.24
259.381	-22.53
259.597	198.65
259.814	-24.58
260.03	-2.05
260.246	-24.58
260.463	108.54
260.679	114.69
260.895	75.77
261.112	38.91
261.328	22.53
261.544	-8.19
261.761	167.93
261.977	-40.96
262.193	-59.39
262.409	145.41
262.626	98.3
262.842	51.2
263.058	-47.1
263.274	126.97
263.49	81.92
263.707	69.63
263.923	102.4
264.139	-47.1
264.355	32.77
264.571	83.97
264.787	108.54
265.004	174.08
265.22	0
265.436	-53.25
265.652	-34.82
265.868	38.91
266.084	-22.53
266.3	26.62
266.516	-77.82
266.732	43.01
266.948	67.58
267.164	55.3
267.38	75.77
267.596	-2.05
267.812	100.35
268.028	71.68
268.244	59.39
268.46	53.25
268.676	-28.67
268.892	92.16
269.108	-6.14
269.324	-51.2
269.54	-47.1
269.756	45.06
269.972	-34.82
270.188	-20.48
270.403	-77.82
270.619	75.77
270.835	77.82
271.051	145.41
271.267	-55.3
271.483	4.1
271.698	43.01
271.914	55.3
272.13	26.62
272.346	-53.25
272.562	88.06
272.777	73.73
272.993	-22.53
273.209	26.62
273.425	30.72
273.64	-6.14
273.856	88.06
274.072	0
274.287	32.77
274.503	55.3
274.719	151.55
274.934	-4.1
275.15	-49.15
275.366	100.35
275.581	-47.1
275.797	22.53
276.012	34.82
276.228	20.48
276.444	63.49
276.659	161.79
276.875	-18.43
277.09	53.25
277.306	-8.19
277.521	108.54
277.737	53.25
277.952	75.77
278.168	40.96
278.383	57.34
278.599	88.06
278.814	26.62
279.03	-10.24
279.245	147.45
279.461	86.01
279.676	96.25
279.892	-86.01
280.107	18.43
280.322	55.3
280.538	20.48
280.753	55.3
280.969	45.06
281.184	32.77
281.399	155.65
281.615	24.58
281.83	43.01
282.045	-24.58
282.26	4.1
282.476	40.96
282.691	71.68
282.906	18.43
283.122	65.54
283.337	-51.2
283.552	49.15
283.767	32.77
283.983	157.69
284.198	-12.29
284.413	92.16
284.628	-43.01
284.843	6.14
285.058	92.16
285.274	38.91
285.489	-4.1
285.704	71.68
285.919	2.05
286.134	18.43
286.349	24.58
286.564	45.06
286.779	83.97
286.995	30.72
287.21	-14.34
287.425	108.54
287.64	-30.72
287.855	88.06
288.07	-96.25
288.285	102.4
288.5	124.93
288.715	51.2
288.93	63.49
289.145	18.43
289.36	124.93
289.575	69.63
289.79	79.87
290.004	26.62
290.219	131.07
290.434	20.48
290.649	-14.34
290.864	-90.11
291.079	40.96
291.294	-22.53
291.509	45.06
291.724	34.82
291.938	83.97
292.153	96.25
292.368	49.15
292.583	88.06
292.798	129.02
293.012	69.63
293.227	126.97
293.442	108.54
293.657	135.17
293.871	73.73
294.086	34.82
294.301	139.26
294.516	141.31
294.73	-38.91
294.945	-63.49
295.16	4.1
295.374	131.07
295.589	126.97
295.804	47.1
296.018	26.62
296.233	165.89
296.447	18.43
296.662	53.25
296.877	114.69
297.091	-6.14
297.306	-8.19
297.52	32.77
297.735	49.15
297.949	28.67
298.164	75.77
298.378	63.49
298.593	-49.15
298.807	-4.1
299.022	-4.1
299.236	141.31
299.451	43.01
299.665	-38.91
299.88	90.11
300.094	18.43
300.309	22.53
300.523	22.53
300.737	57.34
300.952	65.54
301.166	88.06
301.381	-22.53
301.595	-49.15
301.809	45.06
302.024	6.14
302.238	-63.49
302.452	120.83
302.667	36.86
302.881	88.06
303.095	120.83
303.309	59.39
303.524	12.29
303.738	43.01
303.952	-77.82
304.166	122.88
304.381	-36.86
304.595	118.78
304.809	6.14
305.023	53.25
305.237	-4.1
305.452	0
305.666	92.16
305.88	36.86
306.094	94.21
306.308	88.06
306.522	151.55
306.736	75.77
306.95	20.48
307.164	30.72
307.379	45.06
307.593	43.01
307.807	51.2
308.021	18.43
308.235	49.15
308.449	-65.53
308.663	100.35
308.877	169.98
309.091	75.77
309.305	55.3
309.519	-141.31
309.733	116.73
309.947	-38.91
310.161	67.58
310.374	108.54
310.588	73.73
310.802	-22.53
311.016	75.77
311.23	81.92
311.444	71.68
311.658	63.49
311.872	63.49
312.085	137.21
312.299	38.91
312.513	165.89
312.727	141.31
312.941	-129.02
313.154	108.54
313.368	-10.24
313.582	-36.86
313.796	32.77
314.009	53.25
314.223	108.54
314.437	79.87
314.651	34.82
314.864	-2.05
315.078	67.58
315.292	-59.39
315.505	4.1
315.719	34.82
315.933	57.34
316.146	-51.2
316.36	-47.1
316.573	96.25
316.787	26.62
317.001	75.77
317.214	-14.34
317.428	79.87
317.641	24.58
317.855	-24.58
318.068	-30.72
318.282	188.41
318.495	169.98
318.709	67.58
318.922	18.43
319.136	40.96
319.349	88.06
319.563	-12.29
319.776	57.34
319.99	-71.68
320.203	73.73
320.417	-55.3
320.63	40.96
320.843	106.49
321.057	69.63
321.27	6.14
321.483	14.34
321.697	143.36
321.91	83.97
322.124	96.25
322.337	51.2
322.55	-32.77
322.763	24.58
322.977	32.77
323.19	12.29
323.403	81.92
323.617	79.87
323.83	145.41
324.043	51.2
324.256	71.68
324.469	-28.67
324.683	2.05
324.896	65.54
325.109	28.67
325.322	-75.77
325.535	71.68
325.748	34.82
325.962	34.82
326.175	157.69
326.388	-2.05
326.601	112.64
326.814	-14.34
327.027	-4.1
327.24	108.54
327.453	-149.5
327.666	75.77
327.879	75.77
328.092	36.86
328.305	28.67
328.518	-24.58
328.731	-47.1
328.944	16.38
329.157	55.3
329.37	-20.48
329.583	157.69
329.796	86.01
330.009	-69.63
330.222	182.27
330.435	45.06
330.648	51.2
330.861	26.62
331.073	131.07
331.286	71.68
331.499	59.39
331.712	8.19
331.925	63.49
332.138	36.86
332.35	112.64
332.563	8.19
332.776	126.97
332.989	16.38
333.202	-10.24
333.414	2.05
333.627	14.34
333.84	-8.19
334.053	55.3
334.265	-49.15
334.478	-26.62
334.691	83.97
334.903	32.77
335.116	2.05
335.329	26.62
335.541	24.58
335.754	133.12
335.966	-18.43
336.179	51.2
336.392	12.29
336.604	-24.58
336.817	79.87
337.029	81.92
337.242	32.77
337.454	49.15
337.667	63.49
337.88	108.54
338.092	88.06
338.305	75.77
338.517	-86.01
338.729	92.16
338.942	149.5
339.154	-100.35
339.367	-6.14
339.579	24.58
339.792	-24.58
340.004	141.31
340.217	4.1
340.429	53.25
340.641	-36.86
340.854	-28.67
341.066	0
341.278	161.79
341.491	100.35
341.703	51.2
341.915	-32.77
342.128	100.35
342.34	133.12
342.552	16.38
342.764	98.3
342.977	38.91
343.189	55.3
343.401	67.58
343.613	2.05
343.826	4.1
344.038	-2.05
344.25	59.39
344.462	-12.29
344.674	83.97
344.886	16.38
345.099	24.58
345.311	131.07
345.523	53.25
345.735	-49.15
345.947	2.05
346.159	49.15
346.371	92.16
346.583	-10.24
346.795	198.65
347.007	67.58
347.219	98.3
347.431	43.01
347.643	98.3
347.855	-4.1
348.067	106.49
348.279	-26.62
348.491	34.82
348.703	36.86
348.915	67.58
349.127	-8.19
349.339	34.82
349.551	-10.24
349.763	122.88
349.975	-10.24
350.187	73.73
350.399	129.02
350.61	88.06
350.822	2.05
351.034	65.54
351.246	26.62
351.458	0
351.669	-47.1
351.881	83.97
352.093	67.58
352.305	100.35
352.517	71.68
352.728	-22.53
352.94	43.01
353.152	65.54
353.363	22.53
353.575	-26.62
353.787	180.22
353.999	10.24
354.21	188.41
354.422	-71.68
354.633	-57.34
354.845	38.91
355.057	40.96
355.268	43.01
355.48	43.01
355.692	10.24
355.903	96.25
356.115	-18.43
356.326	-75.77
356.538	124.93
356.749	63.49
356.961	137.21
357.172	43.01
357.384	-26.62
357.595	151.55
357.807	59.39
358.018	14.34
358.23	10.24
358.441	94.21
358.653	43.01
358.864	26.62
359.075	-28.67
359.287	59.39
359.498	114.69
359.709	83.97
359.921	-14.34
360.132	88.06
360.344	26.62
360.555	47.1
360.766	118.78
360.977	20.48
361.189	83.97
361.4	24.58
361.611	104.45
361.823	94.21
362.034	30.72
362.245	-147.45
362.456	2.05
362.667	40.96
362.879	-86.01
363.09	63.49
363.301	77.82
363.512	22.53
363.723	2.05
363.935	51.2
364.146	75.77
364.357	-26.62
364.568	18.43
364.779	-43.01
364.99	194.56
365.201	22.53
365.412	149.5
365.623	30.72
365.834	137.21
366.045	-24.58
366.256	81.92
366.467	49.15
366.678	20.48
366.889	69.63
367.1	59.39
367.311	24.58
367.522	-47.1
367.733	10.24
367.944	36.86
368.155	-40.96
368.366	90.11
368.577	69.63
368.788	118.78
368.999	-24.58
369.209	6.14
369.42	192.51
369.631	147.45
369.842	98.3
370.053	40.96
370.264	116.73
370.474	-61.44
370.685	61.44
370.896	-14.34
371.107	108.54
371.317	26.62
371.528	55.3
371.739	110.59
371.95	45.06
372.16	118.78
372.371	-30.72
372.582	-55.3
372.792	75.77
373.003	30.72
373.214	-6.14
373.424	118.78
373.635	14.34
373.846	110.59
374.056	94.21
374.267	116.73
374.477	114.69
374.688	-22.53
374.898	71.68
375.109	-16.38
375.319	86.01
375.53	198.65
375.74	24.58
375.951	-22.53
376.161	100.35
376.372	100.35
376.582	-6.14
376.793	49.15
377.003	-12.29
377.214	-63.49
377.424	43.01
377.635	-8.19
377.845	26.62
378.055	77.82
378.266	16.38
378.476	51.2
378.686	71.68
378.897	30.72
379.107	81.92
379.317	67.58
379.528	75.77
379.738	88.06
379.948	-36.86
380.158	69.63
380.369	81.92
380.579	65.54
380.789	22.53
380.999	124.93
381.21	26.62
381.42	114.69
381.63	10.24
381.84	114.69
382.05	49.15
382.261	116.73
382.471	96.25
382.681	-14.34
382.891	163.84
383.101	24.58
383.311	-16.38
383.521	10.24
383.731	129.02
383.941	155.65
384.151	94.21
384.361	47.1
384.571	49.15
384.781	59.39
384.991	215.04
385.201	149.5
385.411	79.87
385.621	149.5
385.831	-2.05
386.041	65.54
386.251	63.49
386.461	124.93
386.671	6.14
386.881	149.5
387.091	2.05
387.301	90.11
387.511	30.72
387.72	18.43
387.93	149.5
388.14	-73.73
388.35	22.53
388.56	67.58
388.769	65.54
388.979	59.39
389.189	-24.58
389.399	22.53
389.609	112.64
389.818	57.34
390.028	26.62
390.238	26.62
390.447	-30.72
390.657	8.19
390.867	-4.1
391.076	-47.1
391.286	112.64
391.496	-2.05
391.705	8.19
391.915	153.6
392.125	106.49
392.334	38.91
392.544	149.5
392.753	-51.2
392.963	38.91
393.172	-55.3
393.382	-4.1
393.591	139.26
393.801	-6.14
394.01	124.93
394.22	86.01
394.429	34.82
394.639	-30.72
394.848	90.11
395.058	0
395.267	8.19
395.477	57.34
395.686	28.67
395.895	124.93
396.105	198.65
396.314	71.68
396.524	63.49
396.733	-4.1
396.942	217.08
397.152	14.34
397.361	131.07
397.57	28.67
397.78	47.1
397.989	59.39
398.198	186.37
398.407	24.58
398.617	14.34
398.826	22.53
399.035	24.58
399.244	83.97
399.453	-20.48
399.663	36.86
399.872	94.21
400.081	55.3
400.29	108.54
400.499	-20.48
400.708	104.45
400.917	55.3
401.127	61.44
401.336	-26.62
401.545	176.13
401.754	112.64
401.963	14.34
402.172	-75.77
402.381	16.38
402.59	47.1
402.799	8.19
403.008	110.59
403.217	30.72
403.426	49.15
403.635	-6.14
403.844	86.01
404.053	88.06
404.262	-61.44
404.471	83.97
404.68	81.92
404.888	112.64
405.097	155.65
405.306	4.1
405.515	-8.19
405.724	40.96
405.933	57.34
406.142	83.97
406.35	96.25
406.559	100.35
406.768	6.14
406.977	126.97
407.185	22.53
407.394	73.73
407.603	-38.91
407.812	71.68
408.02	59.39
408.229	49.15
408.438	2.05
408.646	-30.72
408.855	-20.48
409.064	57.34
409.272	-43.01
409.481	92.16
409.69	26.62
409.898	-38.91
410.107	143.36
410.315	110.59
410.524	51.2
410.733	2.05
410.941	124.93
411.15	116.73
411.358	100.35
411.567	155.65
411.775	32.77
411.984	2.05
412.192	92.16
412.401	28.67
412.609	75.77
412.818	94.21
413.026	149.5
413.234	18.43
413.443	65.54
413.651	0
413.86	4.1
414.068	137.21
414.276	77.82
414.485	92.16
414.693	212.99
414.901	206.84
415.11	81.92
415.318	45.06
415.526	92.16
415.734	145.41
415.943	98.3
416.151	161.79
416.359	18.43
416.567	100.35
416.776	163.84
416.984	122.88
417.192	155.65
417.4	67.58
417.608	47.1
417.817	12.29
418.025	67.58
418.233	159.74
418.441	-30.72
418.649	-51.2
418.857	43.01
419.065	153.6
419.273	2.05
419.481	12.29
419.689	94.21
419.897	43.01
420.105	-24.58
420.313	77.82
420.521	100.35
420.729	79.87
420.937	-6.14
421.145	24.58
421.353	172.03
421.561	200.7
421.769	57.34
421.977	43.01
422.185	133.12
422.393	-12.29
422.601	71.68
422.809	71.68
423.017	79.87
423.224	88.06
423.432	149.5
423.64	57.34
423.848	155.65
424.056	-18.43
424.263	61.44
424.471	47.1
424.679	155.65
424.887	-2.05
425.094	141.31
425.302	81.92
425.51	51.2
425.718	133.12
425.925	24.58
426.133	83.97
426.341	208.89
426.548	26.62
426.756	4.1
426.964	43.01
427.171	88.06
427.379	81.92
427.586	61.44
427.794	133.12
428.001	227.32
428.209	90.11
428.417	149.5
428.624	98.3
428.832	219.13
429.039	122.88
429.247	147.45
429.454	94.21
429.662	83.97
429.869	169.98
430.076	153.6
430.284	188.41
430.491	237.56
430.699	100.35
430.906	233.47
431.114	178.17
431.321	106.49
431.528	178.17
431.736	139.26
431.943	126.97
432.15	131.07
432.358	182.27
432.565	282.62
432.772	65.54
432.979	231.42
433.187	149.5
433.394	208.89
433.601	86.01
433.808	190.46
434.016	264.19
434.223	206.84
434.43	196.61
434.637	264.19
434.844	272.38
435.052	342.01
435.259	294.91
435.466	309.24
435.673	245.76
435.88	253.95
436.087	337.91
436.294	356.35
436.501	305.15
436.708	233.47
436.915	372.73
437.122	407.55
437.329	305.15
437.537	333.82
437.743	368.63
437.95	432.12
438.157	395.26
438.364	458.75
438.571	436.22
438.778	425.98
438.985	536.57
439.192	477.18
439.399	491.51
439.606	548.86
439.813	565.24
440.02	632.82
440.227	677.88
440.433	595.96
440.64	595.96
440.847	600.05
441.054	630.77
441.261	753.65
441.467	698.36
441.674	684.02
441.881	798.71
442.088	729.08
442.294	741.36
442.501	905.2
442.708	907.25
442.914	862.19
443.121	911.35
443.328	911.35
443.534	993.26
443.741	933.87
443.948	894.96
444.154	1126.38
444.361	1202.16
444.568	1011.7
444.774	1183.73
444.981	1079.28
445.187	1267.69
445.394	1251.31
445.6	1202.16
445.807	1445.87
446.013	1476.59
446.22	1361.9
446.426	1595.37
446.633	1585.13
446.839	1771.49
447.046	1697.77
447.252	1890.28
447.459	1773.54
447.665	1851.36
447.871	1994.72
448.078	2158.56
448.284	2127.84
448.491	2140.13
448.697	2244.57
448.903	2426.84
449.11	2482.14
449.316	2459.61
449.522	2650.07
449.728	2639.83
449.935	2746.33
450.141	2824.15
450.347	3129.3
450.553	3002.32
450.76	3176.4
450.966	3334.09
451.172	3389.39
451.378	3563.47
451.584	3555.27
451.791	3803.08
451.997	3798.98
452.203	3975.11
452.409	4061.12
452.615	4360.13
452.821	4220.86
453.027	4222.91
453.233	4650.94
453.44	4575.16
453.646	4880.31
453.852	5121.97
454.058	5388.21
454.264	5388.21
454.47	5838.76
454.676	5908.39
454.882	6483.87
455.088	6014.88
455.294	6342.56
455.5	6817.69
455.705	7339.92
455.911	7339.92
456.117	7507.85
456.323	7759.75
456.529	7692.17
456.735	8345.47
456.941	8617.85
457.147	8886.14
457.352	9265.01
457.558	9502.57
457.764	10172.26
457.97	10307.43
458.176	10723.16
458.381	11278.16
458.587	11347.79
458.793	12093.26
458.999	11919.18
459.204	13473.59
459.41	14057.26
459.616	13721.39
459.821	14343.97
460.027	15267.61
460.233	15712.02
460.438	15988.49
460.644	16723.71
460.85	16885.5
461.055	17649.39
461.261	18669.28
461.466	18276.07
461.672	18265.83
461.878	20754.12
462.083	20354.76
462.289	21110.46
462.494	21571.25
462.7	21825.2
462.905	21937.84
463.111	23920.28
463.316	24921.73
463.522	25224.83
463.727	26357.36
463.932	27131.49
464.138	28276.3
464.343	28948.04
464.549	29926.97
464.754	31567.39
464.959	32222.74
465.165	32919.05
465.37	32794.12
465.575	32878.09
465.781	34786.8
465.986	35913.18
466.191	35196.39
466.397	35745.25
466.602	34846.19
466.807	36654.54
467.012	37172.68
467.218	38120.89
467.423	37991.87
467.628	38997.42
467.833	40623.51
468.038	40299.93
468.244	39669.15
468.449	41166.22
468.654	40854.93
468.859	41143.69
469.064	40433.05
469.269	39880.1
469.474	40099.23
469.679	41328.01
469.885	39896.48
470.09	40375.7
470.295	40609.17
470.5	39124.39
470.705	39740.83
470.91	39185.83
471.115	38333.88
471.32	39245.23
471.525	38880.69
471.73	37617.09
471.935	37205.45
472.139	35974.62
472.344	36251.09
472.549	35935.71
472.754	35102.18
472.959	34215.41
473.164	33062.41
473.369	32933.39
473.574	33981.95
473.778	32706.06
473.983	32134.68
474.188	31772.19
474.393	30215.73
474.598	30215.73
474.802	29593.15
475.007	29032.01
475.212	28845.64
475.417	27784.79
475.621	27340.38
475.826	27506.27
476.031	26426.99
476.235	26168.94
476.44	26287.73
476.645	25407.1
476.849	24764.04
477.054	24854.15
477.259	24016.53
477.463	24200.85
477.668	23064.22
477.872	23735.96
478.077	22625.96
478.282	22220.46
478.486	22005.42
478.691	21886.64
478.895	21337.79
479.1	21384.89
479.304	21251.77
479.509	20559.56
479.713	20903.62
479.918	20459.21
480.122	20141.77
480.326	20027.09
480.531	19910.35
480.735	19953.36
480.94	19590.87
481.144	20295.37
481.348	19224.28
481.553	19175.13
481.757	18423.53
481.961	18761.44
482.166	19056.35
482.37	18855.65
482.574	18353.9
482.778	18345.7
482.983	18413.29
483.187	18278.12
483.391	18237.16
483.595	17542.9
483.8	17387.25
484.004	17594.1
484.208	17547
484.412	17200.89
484.616	17123.07
484.821	16811.78
485.025	16230.15
485.229	16496.39
485.433	16121.61
485.637	15974.16
485.841	15683.34
486.045	15224.6
486.249	15439.64
486.453	14997.28
486.657	15101.72
486.861	14853.92
487.065	14268.2
487.269	14319.4
487.473	13963.05
487.677	13881.13
487.881	13889.32
488.085	13406
488.289	13338.42
488.493	12666.69
488.697	13063.99
488.901	12574.53
489.105	12291.91
489.309	12152.65
489.512	11910.99
489.716	11777.87
489.92	11579.22
490.124	11208.53
490.328	11151.19
490.531	10850.14
490.735	10680.16
490.939	10581.85
491.143	10225.51
491.346	10266.47
491.55	9944.94
491.754	9672.56
491.958	9690.99
492.161	9576.3
492.365	9455.47
492.569	9115.51
492.772	9105.27
492.976	9062.26
493.18	8888.18
493.383	8763.26
493.587	8994.68
493.79	8624
493.994	8505.21
494.197	8191.88
494.401	8390.53
494.605	8048.52
494.808	8208.26
495.012	8234.88
495.215	8159.11
495.419	8200.07
495.622	7837.58
495.825	7774.09
496.029	7856.01
496.232	7823.24
496.436	7790.47
496.639	7831.43
496.843	7677.83
497.046	7675.79
497.249	7911.3
497.453	7751.56
497.656	7759.75
497.859	7739.27
498.063	7819.14
498.266	7868.3
498.469	7626.64
498.673	7677.83
498.876	7767.95
499.079	7692.17
499.282	7847.82
499.485	8120.2
499.689	7972.74
499.892	8011.65
500.095	8023.94
500.298	8138.63
500.501	8163.2
500.705	8185.73
500.908	8341.38
501.111	8208.26
501.314	8363.9
501.517	8523.65
501.72	8544.13
501.923	8458.11
502.126	8431.49
502.329	8800.12
502.532	8861.56
502.735	8988.53
502.938	9176.95
503.141	9037.69
503.344	9224.05
503.547	9400.18
503.75	9437.04
503.953	9572.21
504.156	9893.74
504.359	9791.34
504.562	10043.24
504.765	10102.63
504.968	10241.89
505.17	10461.02
505.373	10528.61
505.576	10794.84
505.779	10944.34
505.982	11009.88
506.185	11247.44
506.387	11468.62
506.59	11480.91
506.793	11763.53
506.996	11974.47
507.198	12404.55
507.401	12437.31
507.604	12914.49
507.807	12945.21
508.009	13158.2
508.212	13412.15
508.415	13713.2
508.617	13834.03
508.82	14309.16
509.022	14278.44
509.225	14995.23
509.428	14993.18
509.63	15228.7
509.833	15361.81
510.035	16389.89
510.238	16420.61
510.44	16596.74
510.643	17135.35
510.845	17524.47
511.048	17698.55
511.25	18231.02
511.453	18470.63
511.655	19171.04
511.858	19017.44
512.06	19959.5
512.262	19789.52
512.465	20530.89
512.667	21171.9
512.87	21542.58
513.072	21794.48
513.274	22253.23
513.477	22894.24
513.679	23559.83
513.881	23977.62
514.084	24336.01
514.286	24678.02
514.488	25396.86
514.69	26261.1
514.893	26482.28
515.095	26846.82
515.297	27743.83
515.499	27754.07
515.701	28532.3
515.904	29306.43
516.106	29986.36
516.308	30457.39
516.51	31084.07
516.712	31444.51
516.914	32294.42
517.116	33125.89
517.318	33162.76
517.52	33771
517.722	34457.07
517.925	34942.44
518.127	36273.62
518.329	36330.97
518.531	36773.33
518.733	37379.53
518.935	38186.43
519.136	38397.37
519.338	39263.66
519.54	39615.91
519.742	40267.16
519.944	40682.9
520.146	41827.71
520.348	42116.48
520.55	42589.56
520.752	42806.64
520.954	43500.9
521.155	43816.29
521.357	44094.82
521.559	45202.77
521.761	45800.77
521.963	45669.7
522.164	45839.68
522.366	46574.91
522.568	46947.64
522.77	47332.65
522.971	47930.66
523.173	47619.37
523.375	48336.16
523.576	48244
523.778	48153.89
523.98	48911.64
524.181	49261.84
524.383	48889.11
524.584	49741.06
524.786	49290.51
524.988	49255.7
525.189	49728.78
525.391	49743.11
525.592	49712.39
525.794	50017.54
525.995	49507.6
526.197	49208.59
526.398	49573.13
526.6	49503.5
526.801	49708.3
527.003	49204.5
527.204	49376.53
527.406	48946.45
527.607	48768.28
527.808	49093.91
528.01	47879.46
528.211	48041.25
528.412	48336.16
528.614	47787.3
528.815	47127.86
529.016	47451.44
529.218	46239.04
529.419	46323.01
529.62	46220.61
529.822	45501.77
530.023	45200.72
530.224	44584.28
530.425	44334.43
530.626	43558.25
530.828	42911.09
531.029	43355.5
531.23	42089.85
531.431	41661.83
531.632	41780.61
531.833	40670.61
532.035	40730
532.236	40175
532.437	39648.67
532.638	38823.34
532.839	38909.36
533.04	38161.85
533.241	37653.95
533.442	37840.32
533.643	36738.51
533.844	36249.05
534.045	35722.72
534.246	35053.03
534.447	34733.55
534.648	34250.23
534.849	34309.62
535.05	33439.23
535.251	33480.19
535.451	32771.6
535.652	32194.07
535.853	31387.17
536.054	31372.83
536.255	30977.58
536.456	30262.83
536.657	30195.25
536.857	29695.55
537.058	29150.79
537.259	29154.88
537.46	28669.51
537.66	28008.02
537.861	27979.35
538.062	27319.9
538.263	27119.2
538.463	26529.39
538.664	26146.42
538.865	25898.61
539.065	26050.16
539.266	25196.16
539.466	25138.82
539.667	24284.81
539.868	24848
540.068	24460.94
540.269	23719.57
540.469	23404.19
540.67	23330.46
540.87	22920.87
541.071	22734.5
541.271	22638.25
541.472	22058.67
541.672	22322.86
541.873	21800.63
542.073	21182.14
542.274	21556.92
542.474	20944.58
542.675	20881.09
542.875	20600.52
543.075	20225.74
543.276	19726.03
543.476	19924.69
543.676	19486.42
543.877	19654.36
544.077	19451.61
544.277	19185.37
544.478	19003.1
544.678	18812.64
544.878	18654.95
545.078	18231.02
545.279	17897.2
545.479	17635.06
545.679	17542.9
545.879	17524.47
546.079	17172.22
546.28	17098.49
546.48	16887.55
546.68	16670.47
546.88	16326.41
547.08	16385.8
547.28	16103.18
547.48	15738.64
547.68	15810.32
547.88	15247.13
548.081	15343.38
548.281	14802.72
548.481	14837.53
548.681	14868.25
548.881	14460.71
549.081	14296.87
549.28	14063.4
549.48	13825.84
549.68	13735.73
549.88	13786.93
550.08	13164.34
550.28	13285.17
550.48	13070.14
550.68	13133.62
550.88	12652.35
551.08	12486.47
551.279	12412.74
551.479	11999.05
551.679	12134.21
551.879	11763.53
552.079	11806.54
552.278	11579.22
552.478	11478.86
552.678	11171.67
552.878	11167.57
553.077	10743.64
553.277	10569.57
553.477	10399.59
553.676	10483.55
553.876	9971.56
554.076	9774.95
554.275	9842.54
554.475	9619.31
554.674	9344.88
554.874	9213.81
555.074	8863.61
555.273	9002.87
555.473	8902.52
555.672	8802.17
555.872	8644.48
556.071	8296.32
556.271	8343.42
556.47	8198.02
556.67	7956.36
556.869	7982.98
557.068	7810.95
557.268	7550.86
557.467	7448.46
557.667	7532.43
557.866	7321.49
558.065	7131.03
558.265	7045.01
558.464	6913.94
558.663	7045.01
558.863	6690.71
559.062	6686.62
559.261	6418.33
559.461	6449.05
559.66	6301.6
559.859	6150.05
560.058	6252.45
560.258	6092.71
560.457	5752.74
560.656	6184.87
560.855	5646.25
561.054	5744.55
561.253	5701.55
561.453	5517.23
561.652	5461.93
561.851	5396.4
562.05	5113.78
562.249	4974.52
562.448	5126.07
562.647	4865.97
562.846	5025.72
563.045	4941.75
563.244	4773.82
563.443	4790.2
563.642	4640.7
563.841	4562.87
564.04	4552.63
564.239	4544.44
564.438	4351.93
564.637	4204.48
564.836	4407.23
565.035	4171.71
565.234	4155.33
565.432	4134.85
565.631	4106.18
565.83	4014.02
566.029	3891.14
566.228	3825.61
566.427	3858.37
566.625	3614.66
566.824	3680.2
567.023	3575.75
567.222	3577.8
567.42	3616.71
567.619	3524.55
567.818	3504.07
568.016	3530.7
568.215	3375.05
568.414	3317.71
568.612	3172.3
568.811	3178.45
569.01	3067.86
569.208	3194.83
569.407	3155.92
569.605	2996.18
569.804	2916.31
570.002	2981.84
570.201	2828.24
570.4	2766.81
570.598	2717.65
570.797	2721.75
570.995	2729.94
571.193	2600.92
571.392	2729.94
571.59	2523.1
571.789	2674.65
571.987	2490.33
572.186	2527.19
572.384	2344.92
572.582	2357.21
572.781	2578.39
572.979	2189.28
573.177	2310.11
573.376	2344.92
573.574	2267.1
573.772	2205.66
573.971	2074.59
574.169	1959.91
574.367	2082.78
574.565	2064.35
574.763	1955.81
574.962	1974.24
575.16	1927.14
575.358	1955.81
575.556	1857.51
575.754	1824.74
575.952	1753.06
576.151	1751.01
576.349	1828.84
576.547	1648.61
576.745	1730.53
576.943	1730.53
577.141	1628.14
577.339	1550.31
577.537	1607.66
577.735	1611.75
577.933	1466.35
578.131	1515.5
578.329	1720.29
578.527	1456.11
578.725	1548.26
578.923	1361.9
579.121	1464.3
579.319	1271.79
579.516	1333.23
579.714	1521.64
579.912	1394.67
580.11	1351.66
580.308	1212.4
580.506	1251.31
580.704	1142.77
580.901	1169.39
581.099	1361.9
581.297	1263.6
581.495	1105.9
581.692	1136.62
581.89	1245.17
582.088	1169.39
582.285	1091.57
582.483	1167.34
582.681	1091.57
582.878	1069.04
583.076	1150.96
583.274	1132.53
583.471	1116.14
583.669	1030.13
583.866	1021.94
584.064	935.92
584.262	847.86
584.459	837.62
584.657	983.03
584.854	1011.7
585.052	1032.18
585.249	950.26
585.447	892.91
585.644	804.85
585.841	886.77
586.039	974.83
586.236	911.35
586.434	804.85
586.631	821.24
586.828	772.08
587.026	866.29
587.223	767.99
587.42	716.79
587.618	770.04
587.815	856.05
588.012	737.27
588.21	708.6
588.407	837.62
588.604	845.81
588.801	636.92
588.999	759.8
589.196	755.7
589.393	595.96
589.59	653.3
589.787	706.55
589.984	677.88
590.182	684.02
590.379	630.77
590.576	612.34
590.773	729.08
590.97	616.44
591.167	729.08
591.364	632.82
591.561	577.53
591.758	722.93
591.955	677.88
592.152	626.68
592.349	638.97
592.546	589.82
592.743	604.15
592.94	630.77
593.137	700.41
593.334	669.69
593.531	657.4
593.727	714.74
593.924	616.44
594.121	702.45
594.318	657.4
594.515	724.98
594.712	731.12
594.908	774.13
595.105	595.96
595.302	665.59
595.499	718.84
595.696	788.47
595.892	593.91
596.089	827.38
596.286	722.93
596.482	862.19
596.679	792.56
596.876	755.7
597.072	833.52
597.269	767.99
597.466	884.72
597.662	886.77
597.859	874.48
598.055	827.38
598.252	925.68
598.448	997.36
598.645	1112.05
598.841	1116.14
599.038	1275.88
599.234	1202.16
599.431	1208.3
599.627	1292.27
599.824	1259.5
600.02	1302.51
600.217	1339.37
600.413	1458.15
600.609	1521.64
600.806	1697.77
601.002	1572.84
601.198	1527.78
601.395	1681.38
601.591	1796.07
601.787	1753.06
601.984	1933.28
602.18	1920.99
602.376	1980.39
602.572	2072.54
602.769	2228.19
602.965	2349.02
603.161	2512.86
603.357	2400.22
603.553	2566.1
603.75	2639.83
603.946	2711.51
604.142	2623.45
604.338	2879.44
604.534	2965.46
604.73	3037.14
604.926	3076.05
605.122	3360.72
605.318	3358.67
605.514	3536.84
605.71	3428.3
605.906	3731.4
606.102	3704.78
606.298	4005.83
606.494	4050.88
606.69	4233.15
606.886	4292.54
607.082	4239.3
607.278	4313.02
607.474	4523.96
607.67	4614.07
607.866	4683.7
608.062	5081.01
608.257	5187.5
608.453	5234.61
608.649	5488.56
608.845	5552.04
609.041	5760.94
609.236	5828.52
609.432	6059.94
609.628	6219.68
609.824	6465.44
610.019	6383.52
610.215	6551.45
610.411	6719.39
610.606	7102.36
610.802	7202.71
610.998	7499.66
611.193	7884.68
611.389	7720.84
611.584	7987.08
611.78	8195.97
611.976	8390.53
612.171	8675.2
612.367	8923
612.562	9033.59
612.758	9348.98
612.953	9363.31
613.149	9826.15
613.344	9934.7
613.539	10418.02
613.735	10686.3
613.93	11042.65
614.126	11151.19
614.321	11462.48
614.517	11773.77
614.712	11960.14
614.907	12236.61
615.103	12707.65
615.298	12889.92
615.493	13414.2
615.688	13451.06
615.884	14149.42
616.079	14149.42
616.274	14817.05
616.47	14978.84
616.665	15406.87
616.86	15750.93
617.055	16215.82
617.25	16195.34
617.445	17035
617.641	16844.54
617.836	17850.1
618.031	18069.23
618.226	18657
618.421	19074.78
618.616	19650.26
618.811	19879.63
619.006	20360.91
619.201	20674.24
619.396	21425.85
619.591	21565.11
619.786	22095.53
619.981	22396.59
620.176	23555.74
620.371	23465.63
620.566	23967.38
620.761	24469.13
620.956	25138.82
621.151	25235.07
621.346	26138.23
621.541	26232.43
621.735	27369.05
621.93	27352.67
622.125	28051.03
622.32	28192.34
622.515	29138.5
622.709	29304.38
622.904	30193.2
623.099	30389.81
623.294	31389.22
623.488	31137.32
623.683	32241.17
623.878	32255.51
624.072	33123.85
624.267	33295.88
624.462	34010.62
624.656	34156.02
624.851	34958.83
625.046	35476.96
625.24	36025.82
625.435	36298.2
625.629	36865.49
625.824	37320.13
626.018	37903.81
626.213	37795.26
626.407	38974.89
626.602	38530.48
626.796	39974.3
626.991	40095.13
627.185	40086.94
627.38	40617.36
627.574	40387.99
627.768	40705.43
627.963	40717.71
628.157	41014.67
628.352	41198.99
628.546	40959.37
628.74	41520.52
628.935	40752.53
629.129	41735.56
629.323	40981.9
629.517	41133.45
629.712	40713.62
629.906	40742.29
630.1	40021.41
630.294	39890.34
630.489	39361.96
630.683	39036.33
630.877	37946.81
631.071	37203.4
631.265	37244.36
631.459	36439.51
631.653	35319.27
631.848	34715.12
632.042	33844.73
632.236	33506.82
632.43	32421.39
632.624	31551.01
632.818	30301.75
633.012	29384.26
633.206	28276.3
633.4	27893.33
633.594	26562.15
633.788	26127.99
633.982	25179.78
634.176	24227.47
634.369	23203.49
634.563	22333.1
634.757	21595.83
634.951	20815.55
635.145	19984.08
635.339	19197.66
635.533	18613.99
635.726	17899.25
635.92	17063.68
636.114	16453.38
636.308	15564.56
636.501	15263.51
636.695	14442.28
636.889	13827.88
637.083	13279.03
637.276	12609.34
637.47	12283.72
637.664	11835.21
637.857	11249.49
638.051	10841.95
638.244	10540.9
638.438	10012.52
638.632	9527.15
638.825	9265.01
639.019	8947.58
639.212	8736.63
639.406	8447.87
639.599	7802.76
639.793	7686.03
639.986	7210.9
640.18	7165.84
640.373	6633.37
640.567	6404
640.76	6379.42
640.954	5973.92
641.147	5715.88
641.34	5564.33
641.534	5296.05
641.727	5289.9
641.92	4933.56
642.114	4753.34
642.307	4425.66
642.5	4548.54
642.694	4114.37
642.887	3901.38
643.08	3999.68
643.273	3776.45
643.467	3674.06
643.66	3569.61
643.853	3383.24
644.046	3174.35
644.239	3170.26
644.432	2891.73
644.626	2697.17
644.819	2678.74
645.012	2613.21
645.205	2658.26
645.398	2578.39
645.591	2260.96
645.784	2258.91
645.977	1972.19
646.17	2101.22
646.363	2054.11
646.556	1945.57
646.749	1730.53
646.942	1841.12
647.135	1824.74
647.328	1689.57
647.521	1652.71
647.714	1617.9
647.907	1542.12
648.099	1427.43
648.292	1554.41
648.485	1411.05
648.678	1210.35
648.871	1101.81
649.064	1314.8
649.256	1091.57
649.449	1062.9
649.642	980.98
649.835	890.87
650.027	886.77
650.22	1071.09
650.413	942.07
650.605	980.98
650.798	935.92
650.991	837.62
651.183	727.03
651.376	796.66
651.568	815.09
651.761	714.74
651.954	706.55
652.146	649.21
652.339	745.46
652.531	757.75
652.724	516.09
652.916	567.29
653.109	493.56
653.301	571.38
653.494	530.42
653.686	475.13
653.879	634.87
654.071	509.94
654.263	509.94
654.456	518.14
654.648	561.14
654.84	487.42
655.033	415.74
655.225	477.18
655.417	307.2
655.61	552.95
655.802	352.25
655.994	491.51
656.186	313.34
656.379	430.07
656.571	321.53
656.763	356.35
656.955	362.49
657.148	364.54
657.34	387.07
657.532	247.8
657.724	333.82
657.916	387.07
658.108	391.16
658.3	360.44
658.492	335.87
658.684	221.18
658.876	311.29
659.068	315.39
659.26	145.41
659.452	229.37
659.644	282.62
659.836	288.76
660.028	208.89
660.22	219.13
660.412	235.52
660.604	249.85
660.796	231.42
660.988	296.96
661.18	223.23
661.372	243.71
661.563	227.32
661.755	239.61
661.947	90.11
662.139	196.61
662.331	198.65
662.522	198.65
662.714	157.69
662.906	176.13
663.097	239.61
663.289	120.83
663.481	159.74
663.673	172.03
663.864	139.26
664.056	286.72
664.247	210.94
664.439	262.14
664.631	227.32
664.822	260.09
665.014	196.61
665.205	122.88
665.397	100.35
665.588	137.21
665.78	96.25
665.971	231.42
666.163	67.58
666.354	231.42
666.546	139.26
666.737	43.01
666.929	141.31
667.12	67.58
667.311	108.54
667.503	147.45
667.694	149.5
667.885	108.54
668.077	172.03
668.268	92.16
668.459	83.97
668.651	157.69
668.842	206.84
669.033	116.73
669.224	22.53
669.416	309.24
669.607	32.77
669.798	53.25
669.989	174.08
670.18	116.73
670.371	120.83
670.563	61.44
670.754	133.12
670.945	223.23
671.136	204.8
671.327	36.86
671.518	172.03
671.709	233.47
671.9	172.03
672.091	145.41
672.282	186.37
672.473	120.83
672.664	65.54
672.855	163.84
673.046	256
673.237	264.19
673.428	116.73
673.619	98.3
673.809	141.31
674	223.23
674.191	198.65
674.382	135.17
674.573	141.31
674.764	141.31
674.954	206.84
675.145	106.49
675.336	124.93
675.527	104.45
675.717	106.49
675.908	67.58
676.099	49.15
676.289	151.55
676.48	73.73
676.671	129.02
676.861	79.87
677.052	172.03
677.243	145.41
677.433	47.1
677.624	182.27
677.814	264.19
678.005	110.59
678.195	296.96
678.386	12.29
678.576	151.55
678.767	8.19
678.957	88.06
679.148	202.75
679.338	155.65
679.529	200.7
679.719	198.65
679.909	194.56
680.1	86.01
680.29	192.51
680.481	104.45
680.671	131.07
680.861	167.93
681.052	161.79
681.242	137.21
681.432	157.69
681.622	245.76
681.813	124.93
682.003	116.73
682.193	59.39
682.383	141.31
682.573	92.16
682.764	147.45
682.954	231.42
683.144	155.65
683.334	83.97
683.524	206.84
683.714	247.8
683.904	249.85
684.094	202.75
684.284	258.04
684.474	288.76
684.664	215.04
684.854	198.65
685.044	167.93
685.234	165.89
685.424	161.79
685.614	157.69
685.804	305.15
685.994	192.51
686.184	208.89
686.374	169.98
686.564	206.84
686.753	190.46
686.943	108.54
687.133	165.89
687.323	139.26
687.513	219.13
687.702	153.6
687.892	192.51
688.082	188.41
688.272	264.19
688.461	137.21
688.651	262.14
688.841	215.04
689.03	182.27
689.22	151.55
689.41	239.61
689.599	233.47
689.789	157.69
689.979	272.38
690.168	163.84
690.358	198.65
690.547	299
690.737	276.48
690.926	172.03
691.116	235.52
691.305	233.47
691.495	233.47
691.684	124.93
691.874	90.11
692.063	182.27
692.252	194.56
692.442	276.48
692.631	143.36
692.82	139.26
693.01	165.89
693.199	102.4
693.388	180.22
693.578	288.76
693.767	167.93
693.956	163.84
694.146	215.04
694.335	172.03
694.524	194.56
694.713	313.34
694.902	149.5
695.092	139.26
695.281	243.71
695.47	202.75
695.659	133.12
695.848	141.31
696.037	153.6
696.226	272.38
696.415	192.51
696.604	223.23
696.793	200.7
696.982	112.64
697.171	194.56
697.36	114.69
697.549	198.65
697.738	65.54
697.927	163.84
698.116	151.55
698.305	247.8
698.494	167.93
698.683	77.82
698.872	296.96
699.061	172.03
699.25	206.84
699.438	159.74
699.627	145.41
699.816	296.96
700.005	133.12
700.193	71.68
700.382	198.65
700.571	186.37
700.76	264.19
700.948	264.19
701.137	221.18
701.326	229.37
701.514	59.39
701.703	174.08
701.892	149.5
702.08	290.81
702.269	186.37
702.457	81.92
702.646	196.61
702.834	169.98
703.023	256
703.212	151.55
703.4	169.98
703.589	96.25
703.777	116.73
703.965	96.25
704.154	100.35
704.342	157.69
704.531	67.58
704.719	231.42
704.907	225.28
705.096	108.54
705.284	108.54
705.472	200.7
705.661	206.84
705.849	184.32
706.037	229.37
706.226	215.04
706.414	182.27
706.602	104.45
706.79	133.12
706.979	180.22
707.167	206.84
707.355	83.97
707.543	204.8
707.731	223.23
707.919	100.35
708.107	139.26
708.296	139.26
708.484	102.4
708.672	247.8
708.86	155.65
709.048	210.94
709.236	79.87
709.424	186.37
709.612	153.6
709.8	71.68
709.988	147.45
710.176	223.23
710.364	206.84
710.551	96.25
710.739	202.75
710.927	112.64
711.115	161.79
711.303	247.8
711.491	180.22
711.679	180.22
711.866	237.56
712.054	92.16
712.242	169.98
712.43	262.14
712.617	133.12
712.805	155.65
712.993	186.37
713.181	75.77
713.368	151.55
713.556	176.13
713.744	83.97
713.931	356.35
714.119	272.38
714.306	223.23
714.494	155.65
714.682	229.37
714.869	178.17
715.057	108.54
715.244	75.77
715.432	196.61
715.619	116.73
715.807	139.26
715.994	114.69
716.182	124.93
716.369	174.08
716.556	182.27
716.744	124.93
716.931	147.45
717.119	229.37
717.306	178.17
717.493	145.41
717.681	196.61
717.868	161.79
718.055	208.89
718.242	202.75
718.43	143.36
718.617	157.69
718.804	149.5
718.991	260.09
719.179	172.03
719.366	208.89
719.553	198.65
719.74	221.18
719.927	151.55
720.114	196.61
720.301	122.88
720.488	126.97
720.676	124.93
720.863	313.34
721.05	296.96
721.237	260.09
721.424	272.38
721.611	178.17
721.798	88.06
721.985	225.28
722.172	172.03
722.358	159.74
722.545	270.33
722.732	215.04
722.919	235.52
723.106	253.95
723.293	233.47
723.48	280.57
723.667	188.41
723.853	294.91
724.04	239.61
724.227	282.62
724.414	155.65
724.6	227.32
724.787	409.59
724.974	333.82
725.161	200.7
725.347	102.4
725.534	270.33
725.72	286.72
725.907	362.49
726.094	245.76
726.28	215.04
726.467	151.55
726.653	159.74
726.84	305.15
727.027	358.39
727.213	145.41
727.4	245.76
727.586	258.04
727.773	215.04
727.959	266.24
728.145	198.65
728.332	141.31
728.518	221.18
728.705	315.39
728.891	301.05
729.077	231.42
729.264	172.03
729.45	231.42
729.636	280.57
729.823	210.94
730.009	243.71
730.195	296.96
730.382	276.48
730.568	106.49
730.754	249.85
730.94	178.17
731.126	235.52
731.313	280.57
731.499	256
731.685	325.63
731.871	243.71
732.057	321.53
732.243	206.84
732.429	266.24
732.615	323.58
732.801	223.23
732.987	309.24
733.173	180.22
733.359	256
733.545	309.24
733.731	223.23
733.917	319.48
734.103	268.28
734.289	258.04
734.475	280.57
734.661	315.39
734.847	292.86
735.033	227.32
735.219	358.39
735.404	178.17
735.59	157.69
735.776	147.45
735.962	208.89
736.148	290.81
736.333	276.48
736.519	303.1
736.705	288.76
736.89	260.09
737.076	270.33
737.262	204.8
737.447	319.48
737.633	280.57
737.819	368.63
738.004	251.9
738.19	204.8
738.375	354.3
738.561	317.44
738.747	294.91
738.932	188.41
739.118	339.96
739.303	358.39
739.489	288.76
739.674	120.83
739.859	237.56
740.045	339.96
740.23	237.56
740.416	272.38
740.601	264.19
740.786	245.76
740.972	188.41
741.157	264.19
741.342	202.75
741.528	145.41
741.713	290.81
741.898	266.24
742.084	301.05
742.269	288.76
742.454	354.3
742.639	296.96
742.824	206.84
743.01	356.35
743.195	311.29
743.38	251.9
743.565	276.48
743.75	374.78
743.935	256
744.12	380.92
744.305	188.41
744.49	247.8
744.675	270.33
744.86	235.52
745.045	309.24
745.23	305.15
745.415	270.33
745.6	333.82
745.785	231.42
745.97	256
746.155	276.48
746.34	239.61
746.525	362.49
746.71	382.97
746.895	161.79
747.079	290.81
747.264	317.44
747.449	272.38
747.634	206.84
747.819	296.96
748.003	270.33
748.188	268.28
748.373	311.29
748.557	239.61
748.742	239.61
748.927	241.66
749.111	243.71
749.296	182.27
749.481	299
749.665	247.8
749.85	231.42
750.034	272.38
750.219	231.42
750.404	186.37
750.588	141.31
750.773	157.69
750.957	176.13
751.141	227.32
751.326	245.76
751.51	204.8
751.695	178.17
751.879	221.18
752.064	296.96
752.248	196.61
752.432	292.86
752.617	264.19
752.801	272.38
752.985	237.56
753.17	260.09
753.354	210.94
753.538	276.48
753.722	137.21
753.907	155.65
754.091	231.42
754.275	243.71
754.459	165.89
754.643	192.51
754.828	256
755.012	260.09
755.196	141.31
755.38	258.04
755.564	98.3
755.748	172.03
755.932	192.51
756.116	307.2
756.3	235.52
756.484	163.84
756.668	266.24
756.852	53.25
757.036	192.51
757.22	182.27
757.404	112.64
757.588	190.46
757.772	235.52
757.956	163.84
758.14	305.15
758.323	153.6
758.507	235.52
758.691	112.64
758.875	206.84
759.059	247.8
759.242	161.79
759.426	100.35
759.61	192.51
759.794	104.45
759.977	204.8
760.161	266.24
760.345	251.9
760.528	256
760.712	153.6
760.895	137.21
761.079	190.46
761.263	59.39
761.446	112.64
761.63	190.46
761.813	227.32
761.997	67.58
762.18	67.58
762.364	129.02
762.547	22.53
762.731	141.31
762.914	133.12
763.098	75.77
763.281	135.17
763.464	53.25
763.648	206.84
763.831	120.83
764.015	51.2
764.198	169.98
764.381	137.21
764.564	165.89
764.748	188.41
764.931	219.13
765.114	110.59
765.297	221.18
765.481	100.35
765.664	94.21
765.847	149.5
766.03	202.75
766.213	67.58
766.397	133.12
766.58	34.82
766.763	253.95
766.946	43.01
767.129	102.4
767.312	18.43
767.495	135.17
767.678	102.4
767.861	131.07
768.044	141.31
768.227	122.88
768.41	81.92
768.593	51.2
768.776	90.11
768.959	124.93
769.142	172.03
769.324	83.97
769.507	118.78
769.69	124.93
769.873	133.12
770.056	237.56
770.239	83.97
770.421	151.55
770.604	118.78
770.787	92.16
770.97	96.25
771.152	22.53
771.335	47.1
771.518	14.34
771.7	149.5
771.883	200.7
772.066	73.73
772.248	90.11
772.431	165.89
772.613	106.49
772.796	120.83
772.978	202.75
773.161	186.37
773.343	79.87
773.526	96.25
773.708	40.96
773.891	83.97
774.073	81.92
774.256	55.3
774.438	235.52
774.621	92.16
774.803	151.55
774.985	38.91
775.168	133.12
775.35	65.54
775.532	124.93
775.715	81.92
775.897	157.69
776.079	38.91
776.261	112.64
776.444	83.97
776.626	28.67
776.808	75.77
776.99	-8.19
777.173	34.82
777.355	155.65
777.537	59.39
777.719	86.01
777.901	67.58
778.083	30.72
778.265	2.05
778.447	145.41
778.629	-8.19
778.811	59.39
778.993	129.02
779.175	116.73
779.357	10.24
779.539	-28.67
779.721	61.44
779.903	188.41
780.085	26.62
780.267	141.31
780.449	53.25
780.631	196.61
780.812	139.26
780.994	92.16
781.176	22.53
781.358	32.77
781.54	79.87
781.721	86.01
781.903	86.01
782.085	73.73
782.267	118.78
782.448	34.82
782.63	-8.19
782.812	-28.67
782.993	131.07
783.175	98.3
783.357	28.67
783.538	43.01
783.72	18.43
783.901	75.77
784.083	63.49
784.264	108.54
784.446	-6.14
784.627	-16.38
784.809	-2.05
784.99	18.43
785.172	108.54
785.353	-6.14
785.535	102.4
785.716	14.34
785.897	26.62
786.079	61.44
786.26	45.06
786.441	69.63
786.623	-16.38
786.804	73.73
786.985	28.67
787.167	92.16
787.348	32.77
787.529	2.05
787.71	174.08
787.891	71.68
788.073	-2.05
788.254	-49.15
788.435	200.7
788.616	65.54
788.797	-75.77
788.978	-38.91
789.159	-49.15
789.34	71.68
789.522	16.38
789.703	18.43
789.884	22.53
790.065	92.16
790.246	163.84
790.427	34.82
790.607	43.01
790.788	34.82
790.969	0
791.15	38.91
791.331	-12.29
791.512	55.3
791.693	28.67
791.874	-79.87
792.054	180.22
792.235	104.45
792.416	-6.14
792.597	-14.34
792.778	26.62
792.958	14.34
793.139	51.2
793.32	32.77
793.5	-63.49
793.681	112.64
793.862	108.54
794.042	77.82
794.223	-51.2
794.404	4.1
794.584	-79.87
794.765	2.05
794.945	-24.58
795.126	-10.24
795.306	40.96
795.487	-51.2
795.667	-24.58
795.848	-22.53
796.028	18.43
796.209	-16.38
796.389	0
796.57	24.58
796.75	30.72
796.93	20.48
797.111	-10.24
797.291	-47.1
797.471	141.31
797.652	-22.53
797.832	-28.67
798.012	38.91
798.192	10.24
798.373	-40.96
798.553	-32.77
798.733	26.62
798.913	-14.34
799.093	-61.44
799.274	65.54
799.454	96.25
799.634	133.12
799.814	102.4
799.994	59.39
800.174	18.43
800.354	16.38
800.534	-88.06
800.714	100.35
800.894	-6.14
801.074	-16.38
801.254	-59.39
801.434	108.54
801.614	18.43
801.794	18.43
801.974	1509.35
802.154	-55.3
802.334	122.88
802.514	-38.91
802.693	14.34
802.873	-18.43
803.053	133.12
803.233	57.34
803.413	81.92
803.592	-61.44
803.772	-6.14
803.952	57.34
804.131	-55.3
804.311	-2.05
804.491	94.21
804.67	-40.96
804.85	6.14
805.03	77.82
805.209	112.64
805.389	-40.96
805.568	6.14
805.748	34.82
805.928	24.58
806.107	-2.05
806.287	59.39
806.466	26.62
806.646	-10.24
806.825	0
807.004	-20.48
807.184	133.12
807.363	51.2
807.543	10.24
807.722	-28.67
807.901	10.24
808.081	40.96
808.26	-88.06
808.439	43.01
808.619	83.97
808.798	-36.86
808.977	49.15
809.156	34.82
809.336	34.82
809.515	79.87
809.694	22.53
809.873	67.58
810.052	96.25
810.231	88.06
810.411	-40.96
810.59	-14.34
810.769	57.34
810.948	135.17
811.127	-83.97
811.306	34.82
811.485	26.62
811.664	96.25
811.843	22.53
812.022	-75.77
812.201	-40.96
812.38	-24.58
812.559	-55.3
812.737	57.34
812.916	-63.49
813.095	-61.44
813.274	-22.53
813.453	-6.14
813.632	-88.06
813.811	-6.14
813.989	-55.3
814.168	45.06
814.347	-47.1
814.526	32.77
814.704	159.74
814.883	75.77
815.062	-16.38
815.24	45.06
815.419	-8.19
815.598	-26.62
815.776	-96.25
815.955	26.62
816.133	-114.69
816.312	14.34
816.49	-16.38
816.669	59.39
816.847	-12.29
817.026	-4.1
817.204	-2.05
817.383	10.24
817.561	-26.62
817.74	24.58
817.918	67.58
818.097	30.72
818.275	10.24
818.453	43.01
818.632	65.54
818.81	-63.49
818.988	14.34
819.167	8.19
819.345	22.53
819.523	8.19
819.701	-8.19
819.879	61.44
820.058	10.24
820.236	47.1
820.414	-59.39
820.592	-6.14
820.77	40.96
820.948	0
821.127	22.53
821.305	-43.01
821.483	-16.38
821.661	40.96
821.839	92.16
822.017	-24.58
822.195	-73.73
822.373	61.44
822.551	26.62
822.729	43.01
822.907	-18.43
823.085	77.82
823.262	51.2
823.44	-24.58
823.618	-34.82
823.796	32.77
823.974	10.24
824.152	28.67
824.329	-47.1
824.507	0
824.685	57.34
824.863	-12.29
825.04	43.01
825.218	40.96
825.396	71.68
825.574	-36.86
825.751	16.38
825.929	67.58
826.107	-141.31
826.284	32.77
826.462	90.11
826.639	-63.49
826.817	-63.49
826.994	8.19
827.172	-90.11
827.349	100.35
827.527	65.54
827.704	18.43
827.882	75.77
828.059	-104.45
828.237	14.34
828.414	96.25
828.591	-88.06
828.769	-32.77
828.946	-40.96
829.124	53.25
829.301	38.91
829.478	-14.34
829.655	40.96
829.833	-18.43
830.01	-79.87
830.187	16.38
830.364	75.77
830.542	-2.05
830.719	114.69
830.896	20.48
831.073	63.49
831.25	28.67
831.427	61.44
831.604	32.77
831.782	-55.3
831.959	124.93
832.136	-26.62
832.313	-34.82
832.49	-71.68
832.667	-30.72
832.844	-24.58
833.021	71.68
833.198	-8.19
833.374	-30.72
833.551	65.54
833.728	10.24
833.905	96.25
834.082	-92.16
834.259	-14.34
834.436	47.1
834.612	-69.63
834.789	26.62
834.966	-8.19
835.143	55.3
835.319	-63.49
835.496	75.77
835.673	49.15
835.85	-26.62
836.026	18.43
836.203	139.26
836.38	-34.82
836.556	-10.24
836.733	-63.49
836.909	147.45
837.086	-40.96
837.262	-77.82
837.439	88.06
837.616	-26.62
837.792	-47.1
837.968	-92.16
838.145	-151.55
838.321	38.91
838.498	-28.67
838.674	20.48
838.851	-36.86
839.027	-43.01
839.203	-40.96
839.38	-14.34
839.556	-55.3
839.732	51.2
839.909	-116.73
840.085	10.24
840.261	-40.96
840.437	18.43
840.614	-26.62
840.79	79.87
840.966	18.43
841.142	-6.14
841.318	67.58
841.494	-36.86
841.671	26.62
841.847	-26.62
842.023	-8.19
842.199	-8.19
842.375	0
842.551	-112.64
842.727	-63.49
842.903	75.77
843.079	-67.58
843.255	61.44
843.431	24.58
843.607	86.01
843.783	-163.84
843.959	2.05
844.134	-96.25
844.31	71.68
844.486	-45.06
844.662	-22.53
844.838	26.62
845.013	-40.96
845.189	55.3
845.365	-16.38
845.541	-14.34
845.716	-18.43
845.892	26.62
846.068	12.29
846.244	-26.62
846.419	40.96
846.595	-16.38
846.77	-14.34
846.946	135.17
847.122	-55.3
847.297	-32.77
847.473	83.97
847.648	-73.73
847.824	18.43
847.999	-88.06
848.175	0
848.35	53.25
848.526	40.96
848.701	34.82
848.876	16.38
849.052	86.01
849.227	14.34
849.403	-47.1
849.578	-18.43
849.753	34.82
849.929	104.45
850.104	-77.82
850.279	-12.29
850.454	14.34
850.63	59.39
850.805	-40.96
850.98	45.06
851.155	16.38
851.33	6.14
851.505	-43.01
851.681	55.3
851.856	-22.53
852.031	14.34
852.206	-6.14
852.381	-65.53
852.556	71.68
852.731	-14.34
852.906	83.97
853.081	0
853.256	86.01
853.431	-30.72
853.606	-124.93
853.781	-40.96
853.956	-98.3
854.131	16.38
854.305	-2.05
854.48	-22.53
854.655	-96.25
854.83	0
855.005	-67.58
855.18	14.34
855.354	-47.1
855.529	94.21
855.704	43.01
855.879	34.82
856.053	-98.3
856.228	-22.53
856.403	-108.54
856.577	36.86
856.752	-129.02
856.926	14.34
857.101	26.62
857.276	-43.01
857.45	-6.14
857.625	40.96
857.799	-34.82
857.974	-24.58
858.148	-63.49
858.323	8.19
858.497	18.43
858.672	-63.49
858.846	-38.91
859.02	45.06
859.195	-59.39
859.369	38.91
859.543	-34.82
859.718	2.05
859.892	18.43
860.066	-22.53
860.241	-14.34
860.415	-73.73
860.589	-22.53
860.763	16.38
860.938	-24.58
861.112	83.97
861.286	-102.4
861.46	69.63
861.634	-16.38
861.808	65.54
861.982	-98.3
862.157	-65.53
862.331	-98.3
862.505	-59.39
862.679	-47.1
862.853	-22.53
863.027	-28.67
863.201	151.55
863.375	-79.87
863.549	40.96
863.722	12.29
863.896	67.58
864.07	-47.1
864.244	18.43
864.418	-10.24
864.592	-55.3
864.766	-8.19
864.939	-79.87
865.113	-69.63
865.287	92.16
865.461	-30.72
865.634	83.97
865.808	2.05
865.982	-38.91
866.156	14.34
866.329	-83.97
866.503	12.29
866.676	63.49
866.85	16.38
867.024	2.05
867.197	88.06
867.371	18.43
867.544	26.62
867.718	-129.02
867.891	88.06
868.065	-88.06
868.238	-57.34
868.412	14.34
868.585	8.19
868.759	-34.82
868.932	20.48
869.105	-30.72
869.279	-51.2
869.452	-30.72
869.625	73.73
869.799	-10.24
869.972	-129.02
870.145	16.38
870.319	83.97
870.492	-61.44
870.665	-20.48
870.838	-71.68
871.011	-172.03
871.185	-69.63
871.358	8.19
871.531	59.39
871.704	-88.06
871.877	-26.62
872.05	-28.67
872.223	-20.48
872.396	-12.29
872.569	6.14
872.742	-71.68
872.915	10.24
873.088	-51.2
873.261	2.05
873.434	63.49
873.607	-22.53
873.78	38.91
873.953	-63.49
874.126	-18.43
874.299	-55.3
874.471	-51.2
874.644	32.77
874.817	47.1
874.99	110.59
875.163	-38.91
875.335	-47.1
875.508	-16.38
875.681	71.68
875.853	-90.11
876.026	-57.34
876.199	43.01
876.371	-38.91
876.544	-88.06
876.717	-38.91
876.889	-86.01
877.062	18.43
877.234	-90.11
877.407	-43.01
877.579	-57.34
877.752	8.19
877.924	8.19
878.097	22.53
878.269	-8.19
878.442	-45.06
878.614	-30.72
878.786	63.49
878.959	8.19
879.131	55.3
879.303	-120.83
879.476	61.44
879.648	49.15
879.82	-30.72
879.993	-106.49
880.165	-22.53
880.337	-32.77
880.509	-38.91
880.681	-120.83
880.854	-102.4
881.026	98.3
881.198	202.75
881.37	-34.82
881.542	12.29
881.714	-71.68
881.886	-38.91
882.058	-32.77
882.23	-18.43
882.402	-4.1
882.574	0
882.746	40.96
882.918	43.01
883.09	-16.38
883.262	51.2
883.434	-26.62
883.606	-104.45
883.778	8.19
883.95	71.68
884.122	-22.53
884.293	81.92
884.465	-20.48
884.637	47.1
884.809	-98.3
884.98	-18.43
885.152	100.35
885.324	55.3
885.496	-61.44
885.667	8.19
885.839	-55.3
886.011	69.63
886.182	71.68
886.354	-8.19
886.525	8.19
886.697	-47.1
886.869	-34.82
887.04	18.43
887.212	75.77
887.383	143.36
887.555	14.34
887.726	-38.91
887.897	38.91
888.069	2.05
888.24	59.39
888.412	-104.45
888.583	-30.72
888.754	2.05
888.926	-116.73
889.097	-30.72
889.268	-233.47
889.44	77.82
889.611	-108.54
889.782	-86.01
889.953	-51.2
890.125	24.58
890.296	-30.72
890.467	24.58
890.638	57.34
890.809	-20.48
890.98	-18.43
891.151	-45.06
891.323	71.68
891.494	79.87
891.665	-22.53
891.836	-2.05
892.007	65.54
892.178	55.3
892.349	-43.01
892.52	-88.06
892.691	63.49
892.862	-38.91
893.032	-71.68
893.203	-51.2
893.374	51.2
893.545	4.1
893.716	-2.05
893.887	43.01
894.057	-102.4
894.228	-16.38
894.399	10.24
894.57	69.63
894.74	-6.14
894.911	-34.82
895.082	-2.05
895.253	-69.63
895.423	-22.53
895.594	83.97
895.764	26.62
895.935	-20.48
896.106	36.86
896.276	-8.19
896.447	-26.62
896.617	-163.84
896.788	-106.49
896.958	-26.62
897.129	0
897.299	-38.91
897.47	94.21
897.64	43.01
897.81	-2.05
897.981	38.91
898.151	-71.68
898.322	30.72
898.492	-26.62
898.662	-73.73
898.832	-63.49
899.003	-2.05
899.173	-20.48
899.343	-51.2
899.513	-47.1
