Data from USB4F104151__57__12-24-06-228.txt Node

Date: Fri Mar 14 12:24:06 EDT 2025
User: louis
Spectrometer: USB4F10415
Trigger mode: 4
Integration Time (sec): 3.500000E-2
Scans to average: 1
Electric dark correction enabled: true
Nonlinearity correction enabled: false
Boxcar width: 0
XAxis mode: Wavelengths
Number of Pixels in Spectrum: 3648
>>>>>Begin Spectral Data<<<<<
178.204	-162.81
178.424	-162.81
178.644	-162.81
178.864	-115.71
179.084	-125.95
179.304	-5.12
179.524	11.26
179.744	-25.6
179.964	25.6
180.184	-9.22
180.404	27.65
180.624	25.6
180.844	-9.22
181.064	-74.75
181.283	3.07
181.503	-27.65
181.723	58.37
181.943	-37.89
182.163	50.18
182.383	-41.98
182.602	103.42
182.822	54.27
183.042	35.84
183.262	1.02
183.482	11.26
183.701	-27.65
183.921	15.36
184.141	-11.26
184.361	60.42
184.58	54.27
184.8	76.8
185.02	-33.79
185.239	128
185.459	39.94
185.679	-17.41
185.898	25.6
186.118	109.57
186.338	37.89
186.557	58.37
186.777	-19.46
186.997	27.65
187.216	-11.26
187.436	132.09
187.655	68.61
187.875	27.65
188.095	-3.07
188.314	21.5
188.534	115.71
188.753	-27.65
188.973	-13.31
189.192	74.75
189.412	-31.74
189.631	-1.02
189.851	21.5
190.07	44.03
190.29	46.08
190.509	-58.37
190.729	1.02
190.948	74.75
191.168	95.23
191.387	37.89
191.607	-35.84
191.826	17.41
192.045	-31.74
192.265	15.36
192.484	33.79
192.704	-3.07
192.923	-46.08
193.142	93.18
193.362	56.32
193.581	50.18
193.8	52.22
194.02	68.61
194.239	54.27
194.458	99.33
194.678	-1.02
194.897	13.31
195.116	78.85
195.335	-17.41
195.555	99.33
195.774	37.89
195.993	80.89
196.212	13.31
196.432	-44.03
196.651	82.94
196.87	-1.02
197.089	-5.12
197.308	50.18
197.528	60.42
197.747	-19.46
197.966	48.13
198.185	33.79
198.404	-37.89
198.623	44.03
198.842	82.94
199.062	-3.07
199.281	35.84
199.5	-37.89
199.719	60.42
199.938	54.27
200.157	33.79
200.376	19.46
200.595	115.71
200.814	60.42
201.033	-5.12
201.252	132.09
201.471	-27.65
201.69	44.03
201.909	19.46
202.128	13.31
202.347	25.6
202.566	37.89
202.785	17.41
203.004	-54.27
203.223	123.9
203.442	25.6
203.661	9.22
203.879	-31.74
204.098	80.89
204.317	-46.08
204.536	17.41
204.755	29.7
204.974	23.55
205.193	-5.12
205.411	154.62
205.63	17.41
205.849	39.94
206.068	-17.41
206.287	17.41
206.505	15.36
206.724	21.5
206.943	-9.22
207.162	58.37
207.381	76.8
207.599	-17.41
207.818	68.61
208.037	-46.08
208.255	-5.12
208.474	50.18
208.693	50.18
208.911	-37.89
209.13	3.07
209.349	44.03
209.567	50.18
209.786	35.84
210.005	44.03
210.223	-54.27
210.442	68.61
210.661	19.46
210.879	-11.26
211.098	87.04
211.316	-5.12
211.535	19.46
211.753	41.98
211.972	-7.17
212.191	39.94
212.409	39.94
212.628	-41.98
212.846	-31.74
213.065	111.61
213.283	-3.07
213.502	23.55
213.72	91.13
213.938	27.65
214.157	9.22
214.375	41.98
214.594	-11.26
214.812	113.66
215.031	-33.79
215.249	3.07
215.467	21.5
215.686	37.89
215.904	115.71
216.122	19.46
216.341	78.85
216.559	25.6
216.778	17.41
216.996	39.94
217.214	21.5
217.432	-25.6
217.651	7.17
217.869	17.41
218.087	-11.26
218.306	-3.07
218.524	37.89
218.742	37.89
218.96	50.18
219.179	74.75
219.397	35.84
219.615	64.51
219.833	7.17
220.051	7.17
220.27	74.75
220.488	-5.12
220.706	44.03
220.924	74.75
221.142	82.94
221.36	41.98
221.578	19.46
221.796	-3.07
222.015	3.07
222.233	21.5
222.451	35.84
222.669	-74.75
222.887	3.07
223.105	7.17
223.323	37.89
223.541	-21.5
223.759	15.36
223.977	50.18
224.195	152.57
224.413	27.65
224.631	3.07
224.849	-41.98
225.067	66.56
225.285	-33.79
225.503	-5.12
225.721	1.02
225.939	1.02
226.157	39.94
226.375	107.52
226.592	3.07
226.81	19.46
227.028	11.26
227.246	82.94
227.464	39.94
227.682	87.04
227.9	82.94
228.117	27.65
228.335	-7.17
228.553	5.12
228.771	9.22
228.989	35.84
229.206	39.94
229.424	-9.22
229.642	31.74
229.86	35.84
230.077	119.81
230.295	1.02
230.513	60.42
230.731	66.56
230.948	-41.98
231.166	87.04
231.384	-9.22
231.601	-3.07
231.819	89.09
232.037	58.37
232.254	27.65
232.472	72.7
232.689	-15.36
232.907	-3.07
233.125	37.89
233.342	-13.31
233.56	39.94
233.777	3.07
233.995	46.08
234.213	89.09
234.43	17.41
234.648	21.5
234.865	80.89
235.083	3.07
235.3	-17.41
235.518	97.28
235.735	41.98
235.953	33.79
236.17	9.22
236.388	-13.31
236.605	87.04
236.822	64.51
237.04	-1.02
237.257	19.46
237.475	3.07
237.692	-1.02
237.909	39.94
238.127	44.03
238.344	37.89
238.562	-37.89
238.779	-60.42
238.996	11.26
239.214	-27.65
239.431	15.36
239.648	62.46
239.865	11.26
240.083	78.85
240.3	87.04
240.517	21.5
240.735	41.98
240.952	121.85
241.169	-9.22
241.386	17.41
241.603	9.22
241.821	-11.26
242.038	13.31
242.255	13.31
242.472	-27.65
242.689	54.27
242.907	44.03
243.124	39.94
243.341	-13.31
243.558	64.51
243.775	-46.08
243.992	25.6
244.209	23.55
244.426	56.32
244.643	17.41
244.86	-11.26
245.078	48.13
245.295	19.46
245.512	62.46
245.729	-9.22
245.946	54.27
246.163	72.7
246.38	41.98
246.597	68.61
246.814	52.22
247.031	84.99
247.248	31.74
247.464	82.94
247.681	19.46
247.898	27.65
248.115	76.8
248.332	-13.31
248.549	48.13
248.766	17.41
248.983	48.13
249.2	23.55
249.417	-13.31
249.633	44.03
249.85	78.85
250.067	23.55
250.284	35.84
250.501	82.94
250.717	37.89
250.934	1.02
251.151	-1.02
251.368	17.41
251.585	54.27
251.801	3.07
252.018	-87.04
252.235	84.99
252.451	-50.18
252.668	3.07
252.885	-37.89
253.102	-7.17
253.318	-19.46
253.535	68.61
253.752	5.12
253.968	101.37
254.185	-11.26
254.401	70.65
254.618	15.36
254.835	9.22
255.051	123.9
255.268	9.22
255.484	29.7
255.701	-39.94
255.917	66.56
256.134	-27.65
256.351	78.85
256.567	44.03
256.784	78.85
257	-37.89
257.217	19.46
257.433	109.57
257.65	-35.84
257.866	56.32
258.082	80.89
258.299	123.9
258.515	60.42
258.732	-11.26
258.948	1.02
259.165	25.6
259.381	52.22
259.597	19.46
259.814	50.18
260.03	-11.26
260.246	-50.18
260.463	33.79
260.679	62.46
260.895	68.61
261.112	44.03
261.328	-33.79
261.544	-9.22
261.761	125.95
261.977	11.26
262.193	-35.84
262.409	-15.36
262.626	-31.74
262.842	15.36
263.058	23.55
263.274	44.03
263.49	-7.17
263.707	56.32
263.923	74.75
264.139	54.27
264.355	37.89
264.571	46.08
264.787	13.31
265.004	37.89
265.22	48.13
265.436	15.36
265.652	-13.31
265.868	17.41
266.084	-3.07
266.3	-5.12
266.516	84.99
266.732	-23.55
266.948	-21.5
267.164	25.6
267.38	109.57
267.596	1.02
267.812	25.6
268.028	21.5
268.244	3.07
268.46	27.65
268.676	-17.41
268.892	9.22
269.108	-64.51
269.324	-44.03
269.54	23.55
269.756	144.38
269.972	-5.12
270.188	7.17
270.403	-41.98
270.619	3.07
270.835	41.98
271.051	44.03
271.267	56.32
271.483	5.12
271.698	31.74
271.914	-33.79
272.13	17.41
272.346	44.03
272.562	48.13
272.777	9.22
272.993	13.31
273.209	-52.22
273.425	3.07
273.64	19.46
273.856	15.36
274.072	-56.32
274.287	23.55
274.503	68.61
274.719	7.17
274.934	11.26
275.15	-15.36
275.366	62.46
275.581	-1.02
275.797	5.12
276.012	-11.26
276.228	-70.65
276.444	-39.94
276.659	27.65
276.875	-9.22
277.09	13.31
277.306	-9.22
277.521	37.89
277.737	21.5
277.952	44.03
278.168	101.37
278.383	9.22
278.599	31.74
278.814	41.98
279.03	-89.09
279.245	52.22
279.461	37.89
279.676	54.27
279.892	21.5
280.107	-5.12
280.322	-3.07
280.538	48.13
280.753	64.51
280.969	-1.02
281.184	39.94
281.399	-9.22
281.615	35.84
281.83	-37.89
282.045	56.32
282.26	-9.22
282.476	-21.5
282.691	19.46
282.906	23.55
283.122	78.85
283.337	3.07
283.552	31.74
283.767	-23.55
283.983	66.56
284.198	72.7
284.413	58.37
284.628	-9.22
284.843	46.08
285.058	13.31
285.274	21.5
285.489	13.31
285.704	33.79
285.919	-3.07
286.134	33.79
286.349	52.22
286.564	-1.02
286.779	76.8
286.995	17.41
287.21	-56.32
287.425	95.23
287.64	17.41
287.855	68.61
288.07	-39.94
288.285	58.37
288.5	15.36
288.715	62.46
288.93	35.84
289.145	1.02
289.36	11.26
289.575	-74.75
289.79	70.65
290.004	41.98
290.219	29.7
290.434	7.17
290.649	-7.17
290.864	25.6
291.079	29.7
291.294	64.51
291.509	-15.36
291.724	54.27
291.938	7.17
292.153	17.41
292.368	-7.17
292.583	44.03
292.798	46.08
293.012	21.5
293.227	25.6
293.442	62.46
293.657	54.27
293.871	105.47
294.086	35.84
294.301	27.65
294.516	11.26
294.73	-5.12
294.945	11.26
295.16	1.02
295.374	119.81
295.589	64.51
295.804	80.89
296.018	48.13
296.233	74.75
296.447	23.55
296.662	25.6
296.877	60.42
297.091	-9.22
297.306	-5.12
297.52	-62.46
297.735	31.74
297.949	31.74
298.164	60.42
298.378	33.79
298.593	-31.74
298.807	-5.12
299.022	52.22
299.236	-39.94
299.451	29.7
299.665	15.36
299.88	31.74
300.094	31.74
300.309	52.22
300.523	3.07
300.737	1.02
300.952	68.61
301.166	-9.22
301.381	37.89
301.595	9.22
301.809	41.98
302.024	-70.65
302.238	3.07
302.452	27.65
302.667	-66.56
302.881	62.46
303.095	39.94
303.309	48.13
303.524	17.41
303.738	7.17
303.952	7.17
304.166	9.22
304.381	9.22
304.595	54.27
304.809	5.12
305.023	50.18
305.237	15.36
305.452	64.51
305.666	82.94
305.88	1.02
306.094	84.99
306.308	99.33
306.522	84.99
306.736	-3.07
306.95	80.89
307.164	19.46
307.379	17.41
307.593	52.22
307.807	82.94
308.021	84.99
308.235	93.18
308.449	-5.12
308.663	-27.65
308.877	46.08
309.091	-3.07
309.305	-11.26
309.519	-37.89
309.733	60.42
309.947	35.84
310.161	60.42
310.374	46.08
310.588	60.42
310.802	33.79
311.016	41.98
311.23	33.79
311.444	-52.22
311.658	-13.31
311.872	50.18
312.085	31.74
312.299	76.8
312.513	54.27
312.727	11.26
312.941	-21.5
313.154	-29.7
313.368	-5.12
313.582	76.8
313.796	74.75
314.009	-13.31
314.223	99.33
314.437	17.41
314.651	64.51
314.864	-21.5
315.078	25.6
315.292	-1.02
315.505	9.22
315.719	58.37
315.933	41.98
316.146	37.89
316.36	7.17
316.573	37.89
316.787	35.84
317.001	72.7
317.214	-19.46
317.428	46.08
317.641	11.26
317.855	19.46
318.068	54.27
318.282	15.36
318.495	66.56
318.709	52.22
318.922	9.22
319.136	80.89
319.349	62.46
319.563	21.5
319.776	-3.07
319.99	-5.12
320.203	89.09
320.417	44.03
320.63	15.36
320.843	9.22
321.057	31.74
321.27	74.75
321.483	-15.36
321.697	66.56
321.91	5.12
322.124	-41.98
322.337	31.74
322.55	3.07
322.763	-35.84
322.977	25.6
323.19	-19.46
323.403	33.79
323.617	5.12
323.83	-21.5
324.043	7.17
324.256	66.56
324.469	76.8
324.683	-58.37
324.896	60.42
325.109	84.99
325.322	-97.28
325.535	74.75
325.748	44.03
325.962	-5.12
326.175	52.22
326.388	62.46
326.601	50.18
326.814	1.02
327.027	15.36
327.24	123.9
327.453	-82.94
327.666	-41.98
327.879	-19.46
328.092	48.13
328.305	23.55
328.518	99.33
328.731	37.89
328.944	-7.17
329.157	50.18
329.37	-41.98
329.583	99.33
329.796	50.18
330.009	-29.7
330.222	27.65
330.435	23.55
330.648	9.22
330.861	50.18
331.073	-48.13
331.286	-50.18
331.499	15.36
331.712	-39.94
331.925	7.17
332.138	19.46
332.35	58.37
332.563	-21.5
332.776	105.47
332.989	-60.42
333.202	-48.13
333.414	19.46
333.627	-1.02
333.84	31.74
334.053	72.7
334.265	-7.17
334.478	19.46
334.691	74.75
334.903	64.51
335.116	-41.98
335.329	-1.02
335.541	17.41
335.754	82.94
335.966	-21.5
336.179	-35.84
336.392	72.7
336.604	46.08
336.817	-70.65
337.029	31.74
337.242	-21.5
337.454	66.56
337.667	23.55
337.88	27.65
338.092	35.84
338.305	21.5
338.517	25.6
338.729	52.22
338.942	80.89
339.154	23.55
339.367	-33.79
339.579	91.13
339.792	25.6
340.004	31.74
340.217	50.18
340.429	-17.41
340.641	-15.36
340.854	-1.02
341.066	11.26
341.278	41.98
341.491	128
341.703	-5.12
341.915	91.13
342.128	84.99
342.34	62.46
342.552	17.41
342.764	80.89
342.977	80.89
343.189	44.03
343.401	-15.36
343.613	-31.74
343.826	-15.36
344.038	11.26
344.25	7.17
344.462	33.79
344.674	113.66
344.886	89.09
345.099	56.32
345.311	62.46
345.523	23.55
345.735	15.36
345.947	-3.07
346.159	-56.32
346.371	54.27
346.583	48.13
346.795	52.22
347.007	-39.94
347.219	-25.6
347.431	-33.79
347.643	66.56
347.855	-37.89
348.067	11.26
348.279	9.22
348.491	29.7
348.703	33.79
348.915	31.74
349.127	-39.94
349.339	13.31
349.551	66.56
349.763	56.32
349.975	33.79
350.187	31.74
350.399	52.22
350.61	37.89
350.822	44.03
351.034	97.28
351.246	-5.12
351.458	-3.07
351.669	-31.74
351.881	-39.94
352.093	-11.26
352.305	105.47
352.517	39.94
352.728	125.95
352.94	27.65
353.152	50.18
353.363	31.74
353.575	31.74
353.787	70.65
353.999	68.61
354.21	134.14
354.422	-27.65
354.633	56.32
354.845	44.03
355.057	107.52
355.268	9.22
355.48	66.56
355.692	15.36
355.903	17.41
356.115	-46.08
356.326	-39.94
356.538	35.84
356.749	39.94
356.961	91.13
357.172	46.08
357.384	50.18
357.595	52.22
357.807	-19.46
358.018	-19.46
358.23	60.42
358.441	119.81
358.653	-13.31
358.864	-15.36
359.075	-11.26
359.287	23.55
359.498	66.56
359.709	-33.79
359.921	-17.41
360.132	93.18
360.344	52.22
360.555	52.22
360.766	23.55
360.977	-19.46
361.189	-31.74
361.4	11.26
361.611	87.04
361.823	44.03
362.034	5.12
362.245	13.31
362.456	-39.94
362.667	3.07
362.879	31.74
363.09	9.22
363.301	76.8
363.512	17.41
363.723	-17.41
363.935	-11.26
364.146	101.37
364.357	74.75
364.568	41.98
364.779	54.27
364.99	74.75
365.201	-44.03
365.412	25.6
365.623	-76.8
365.834	-9.22
366.045	41.98
366.256	82.94
366.467	41.98
366.678	39.94
366.889	68.61
367.1	3.07
367.311	-23.55
367.522	44.03
367.733	52.22
367.944	109.57
368.155	119.81
368.366	80.89
368.577	113.66
368.788	121.85
368.999	-5.12
369.209	9.22
369.42	-1.02
369.631	140.29
369.842	35.84
370.053	41.98
370.264	54.27
370.474	93.18
370.685	56.32
370.896	11.26
371.107	82.94
371.317	-9.22
371.528	27.65
371.739	78.85
371.95	33.79
372.16	44.03
372.371	-17.41
372.582	-50.18
372.792	60.42
373.003	64.51
373.214	-52.22
373.424	78.85
373.635	35.84
373.846	46.08
374.056	64.51
374.267	62.46
374.477	39.94
374.688	-25.6
374.898	23.55
375.109	25.6
375.319	54.27
375.53	25.6
375.74	37.89
375.951	-19.46
376.161	54.27
376.372	76.8
376.582	-25.6
376.793	3.07
377.003	60.42
377.214	17.41
377.424	99.33
377.635	27.65
377.845	68.61
378.055	52.22
378.266	5.12
378.476	27.65
378.686	3.07
378.897	60.42
379.107	-15.36
379.317	5.12
379.528	50.18
379.738	64.51
379.948	-29.7
380.158	39.94
380.369	-74.75
380.579	56.32
380.789	76.8
380.999	11.26
381.21	-11.26
381.42	111.61
381.63	27.65
381.84	-9.22
382.05	54.27
382.261	52.22
382.471	56.32
382.681	11.26
382.891	35.84
383.101	66.56
383.311	-35.84
383.521	-23.55
383.731	82.94
383.941	138.24
384.151	48.13
384.361	13.31
384.571	70.65
384.781	-27.65
384.991	113.66
385.201	117.76
385.411	33.79
385.621	66.56
385.831	13.31
386.041	13.31
386.251	54.27
386.461	91.13
386.671	-25.6
386.881	35.84
387.091	93.18
387.301	76.8
387.511	44.03
387.72	17.41
387.93	56.32
388.14	-11.26
388.35	-9.22
388.56	44.03
388.769	105.47
388.979	-19.46
389.189	25.6
389.399	66.56
389.609	41.98
389.818	115.71
390.028	48.13
390.238	62.46
390.447	29.7
390.657	91.13
390.867	66.56
391.076	-15.36
391.286	60.42
391.496	89.09
391.705	3.07
391.915	31.74
392.125	19.46
392.334	5.12
392.544	44.03
392.753	70.65
392.963	-66.56
393.172	111.61
393.382	62.46
393.591	95.23
393.801	33.79
394.01	109.57
394.22	19.46
394.429	76.8
394.639	58.37
394.848	76.8
395.058	54.27
395.267	44.03
395.477	82.94
395.686	62.46
395.895	80.89
396.105	123.9
396.314	-58.37
396.524	23.55
396.733	-52.22
396.942	164.86
397.152	93.18
397.361	76.8
397.57	80.89
397.78	101.37
397.989	17.41
398.198	140.29
398.407	23.55
398.617	101.37
398.826	-5.12
399.035	29.7
399.244	56.32
399.453	64.51
399.663	27.65
399.872	35.84
400.081	48.13
400.29	164.86
400.499	-13.31
400.708	119.81
400.917	7.17
401.127	78.85
401.336	80.89
401.545	109.57
401.754	177.15
401.963	91.13
402.172	35.84
402.381	13.31
402.59	33.79
402.799	-11.26
403.008	68.61
403.217	123.9
403.426	41.98
403.635	152.57
403.844	84.99
404.053	99.33
404.262	17.41
404.471	82.94
404.68	82.94
404.888	-54.27
405.097	48.13
405.306	156.67
405.515	152.57
405.724	115.71
405.933	134.14
406.142	121.85
406.35	132.09
406.559	164.86
406.768	140.29
406.977	113.66
407.185	103.42
407.394	95.23
407.603	107.52
407.812	240.64
408.02	130.05
408.229	144.38
408.438	70.65
408.646	101.37
408.855	109.57
409.064	123.9
409.272	152.57
409.481	162.81
409.69	138.24
409.898	156.67
410.107	228.35
410.315	168.96
410.524	238.59
410.733	242.68
410.941	148.48
411.15	158.72
411.358	177.15
411.567	279.55
411.775	220.16
411.984	252.92
412.192	203.77
412.401	216.06
412.609	238.59
412.818	304.12
413.026	322.56
413.234	199.68
413.443	306.17
413.651	244.73
413.86	271.36
414.068	353.27
414.276	334.84
414.485	330.75
414.693	388.09
414.901	441.34
415.11	457.72
415.318	455.67
415.526	406.52
415.734	435.19
415.943	390.14
416.151	465.91
416.359	416.76
416.567	410.62
416.776	535.54
416.984	515.06
417.192	572.41
417.4	613.37
417.608	443.39
417.817	556.02
418.025	754.68
418.233	734.2
418.441	611.32
418.649	582.65
418.857	709.62
419.065	723.96
419.273	719.86
419.481	742.39
419.689	795.64
419.897	826.36
420.105	807.92
420.313	908.27
420.521	916.47
420.729	902.13
420.937	871.41
421.145	902.13
421.353	998.38
421.561	1068.02
421.769	1154.03
421.977	1147.89
422.185	1156.08
422.393	1233.9
422.601	1309.68
422.809	1285.1
423.017	1309.68
423.224	1301.48
423.432	1334.25
423.64	1405.93
423.848	1541.1
424.056	1547.24
424.263	1534.95
424.471	1586.15
424.679	1692.65
424.887	1663.97
425.094	1805.28
425.302	1774.56
425.51	1778.66
425.718	1879.01
425.925	1915.87
426.133	1807.33
426.341	2145.25
426.548	2143.2
426.756	2218.97
426.964	2223.07
427.171	2325.47
427.379	2329.56
427.586	2495.45
427.794	2509.79
428.001	2642.9
428.209	2780.12
428.417	2741.21
428.624	2925.52
428.832	2808.79
429.039	2890.71
429.247	2859.99
429.454	3089.36
429.662	3326.93
429.869	3242.96
430.076	3255.25
430.284	3314.64
430.491	3443.66
430.699	3525.58
430.906	3582.92
431.114	3648.46
431.321	3851.21
431.528	3951.56
431.736	4172.74
431.943	4168.64
432.15	4217.79
432.358	4154.3
432.565	4506.56
432.772	4285.37
432.979	4606.91
433.187	4656.06
433.394	4674.49
433.601	5145.52
433.808	5190.58
434.016	5155.76
434.223	5223.34
434.43	5651.37
434.637	5475.24
434.844	5727.14
435.052	5866.41
435.259	6030.24
435.466	6091.68
435.673	5948.33
435.88	6388.64
436.087	6572.96
436.294	6638.49
436.501	6560.67
436.708	6552.48
436.915	6933.4
437.122	7177.11
437.329	7056.28
437.537	7424.91
437.743	7476.11
437.95	7400.34
438.157	7814.02
438.364	8145.8
438.571	8063.88
438.778	8096.64
438.985	8905.59
439.192	8403.84
439.399	8751.99
439.606	8719.23
439.813	9186.16
440.02	9784.17
440.227	9386.86
440.433	9470.83
440.64	9683.82
440.847	9536.37
441.054	9931.62
441.261	10658.65
441.467	10503.01
441.674	10613.6
441.881	11092.82
442.088	11019.1
442.294	10756.96
442.501	11326.29
442.708	11619.15
442.914	11834.19
443.121	12493.63
443.328	11967.31
443.534	13022.01
443.741	12675.9
443.948	12256.07
444.154	13220.66
444.361	13267.77
444.568	13331.25
444.774	13155.13
444.981	13429.56
445.187	14025.51
445.394	14310.18
445.6	14308.13
445.807	15403.8
446.013	14850.85
446.22	15244.06
446.426	15940.36
446.633	16212.74
446.839	16470.79
447.046	16038.67
447.252	16558.85
447.459	16718.59
447.665	16835.33
447.871	17486.58
448.078	18373.35
448.284	17308.41
448.491	17896.17
448.697	18557.67
448.903	19167.96
449.11	18623.2
449.316	18543.33
449.522	19122.91
449.728	19321.56
449.935	19704.53
450.141	19565.27
450.347	20159.18
450.553	19442.39
450.76	19718.87
450.966	20144.84
451.172	20167.37
451.378	20830.91
451.584	20339.4
451.791	20789.95
451.997	20499.14
452.203	21029.57
452.409	21037.76
452.615	20953.79
452.821	20112.08
453.027	19804.88
453.233	20906.69
453.44	19968.72
453.646	20411.08
453.852	20730.56
454.058	20832.96
454.264	20021.97
454.47	20742.85
454.676	20071.12
454.882	20832.96
455.088	18979.55
455.294	19344.09
455.5	19450.58
455.705	19608.28
455.911	18950.88
456.117	18770.66
456.323	18387.69
456.529	17324.79
456.735	18197.23
456.941	17566.45
457.147	17341.18
457.352	16782.08
457.558	16597.76
457.764	16640.77
457.97	16360.2
458.176	16079.63
458.381	15846.16
458.587	15168.28
458.793	15057.69
458.999	14381.86
459.204	15635.22
459.41	14971.68
459.616	13841.2
459.821	14101.29
460.027	13929.26
460.233	13828.91
460.438	13187.89
460.644	13024.06
460.85	12456.77
461.055	12464.96
461.261	12507.97
461.466	11502.42
461.672	11105.11
461.878	11897.67
462.083	10947.42
462.289	10834.78
462.494	10793.82
462.7	10373.99
462.905	10001.26
463.111	10494.82
463.316	10333.03
463.522	10140.52
463.727	10066.79
463.932	10183.52
464.138	9966.44
464.343	10109.8
464.549	9874.28
464.754	10040.17
464.959	9888.62
465.165	9818.99
465.37	9485.17
465.575	9167.73
465.781	9562.99
465.986	9698.16
466.191	9266.03
466.397	9249.65
466.602	8641.4
466.807	9028.47
467.012	8932.22
467.218	9112.44
467.423	9069.43
467.628	8967.03
467.833	9388.91
468.038	8817.53
468.244	8647.55
468.449	9028.47
468.654	8725.37
468.859	8526.72
469.064	8596.35
469.269	8328.06
469.474	8491.9
469.679	8645.5
469.885	8223.62
470.09	8371.07
470.295	8371.07
470.5	8018.82
470.705	8295.3
470.91	8100.74
471.115	7818.12
471.32	8053.64
471.525	8022.92
471.73	8057.73
471.935	7736.2
472.139	7408.53
472.344	7576.46
472.549	7506.83
472.754	7603.08
472.959	7463.82
473.164	7267.22
473.369	7164.82
473.574	7441.29
473.778	7283.6
473.983	7156.63
474.188	7175.06
474.393	6902.68
474.598	6882.2
474.802	6675.35
475.007	6845.34
475.212	6665.11
475.417	6525.85
475.621	6638.49
475.826	6781.85
476.031	6570.91
476.235	6226.85
476.44	6536.09
476.645	6126.5
476.849	6321.06
477.054	6222.75
477.259	6050.72
477.463	6106.02
477.668	5921.7
477.872	6081.44
478.077	6022.05
478.282	5716.9
478.486	5723.05
478.691	5776.3
478.895	5669.8
479.1	5690.28
479.304	5641.13
479.509	5489.58
479.713	5632.94
479.918	5403.57
480.122	5378.99
480.326	5473.2
480.531	5530.54
480.735	5311.41
480.94	5465
481.144	5395.37
481.348	5368.75
481.553	5239.73
481.757	5221.3
481.961	5430.19
482.166	5352.37
482.37	5288.88
482.574	5219.25
482.778	5338.03
482.983	5219.25
483.187	5290.93
483.391	5389.23
483.595	5260.21
483.8	5131.19
484.004	5305.26
484.208	5346.22
484.412	5323.69
484.616	5409.71
484.821	5364.65
485.025	5090.23
485.229	5219.25
485.433	5268.4
485.637	5184.43
485.841	5172.15
486.045	5370.8
486.249	5249.97
486.453	5252.02
486.657	5331.89
486.861	5235.63
487.065	5174.19
487.269	5202.86
487.473	5145.52
487.677	5268.4
487.881	5340.08
488.085	5317.55
488.289	5469.1
488.493	5295.02
488.697	5354.41
488.901	5225.39
489.105	5159.86
489.309	5182.38
489.512	5301.17
489.716	5356.46
489.92	5405.61
490.124	5225.39
490.328	5393.33
490.531	5399.47
490.735	5235.63
490.939	5344.17
491.143	5348.27
491.346	5370.8
491.55	5413.81
491.754	5548.97
491.958	5438.38
492.161	5477.29
492.365	5616.55
492.569	5419.95
492.772	5546.92
492.976	5731.24
493.18	5548.97
493.383	5841.83
493.587	5821.35
493.79	5809.06
493.994	5804.97
494.197	5874.6
494.401	5989.28
494.605	5977
494.808	6058.92
495.012	6017.96
495.215	5952.42
495.419	6009.76
495.622	5944.23
495.825	6200.23
496.029	6288.29
496.232	6362.01
496.436	6226.85
496.639	6441.89
496.843	6232.99
497.046	6550.43
497.249	6581.15
497.453	6495.13
497.656	6527.9
497.859	6593.44
498.063	6671.26
498.266	6949.78
498.469	6802.33
498.673	6955.93
498.876	7222.16
499.079	7175.06
499.282	7043.99
499.485	7240.59
499.689	7357.33
499.892	7396.24
500.095	7392.14
500.298	7537.55
500.501	7687.05
500.705	7957.38
500.908	7822.22
501.111	7869.32
501.314	8027.01
501.517	8022.92
501.72	8131.46
501.923	8211.33
502.126	8510.33
502.329	8608.64
502.532	8588.16
502.735	8686.46
502.938	8735.61
503.141	8973.18
503.344	9022.33
503.547	9014.13
503.75	9270.13
503.953	9251.7
504.156	9327.47
504.359	9440.11
504.562	9704.3
504.765	9839.47
504.968	9728.88
505.17	9929.58
505.373	9948.01
505.576	10038.12
505.779	10185.57
505.982	10398.56
506.185	10752.86
506.387	10646.37
506.59	10646.37
506.793	10957.66
506.996	11019.1
507.198	11238.23
507.401	10955.61
507.604	11486.03
507.807	11752.27
508.009	11545.42
508.212	11772.75
508.415	11742.03
508.617	11871.05
508.82	12047.18
509.022	12137.29
509.225	12430.15
509.428	12493.63
509.63	12548.93
509.833	12708.67
510.035	12970.81
510.238	12935.99
510.44	12991.29
510.643	13353.78
510.845	13499.19
511.048	13564.72
511.25	13364.02
511.453	13888.3
511.655	14375.72
511.858	14146.34
512.06	14478.12
512.262	14535.46
512.465	14385.96
512.667	14994.2
512.87	14664.48
513.072	14773.02
513.274	15235.86
513.477	15543.06
513.679	15561.49
513.881	15721.23
514.084	15905.55
514.286	16194.31
514.488	16143.11
514.69	16489.22
514.893	16829.18
515.095	16685.83
515.297	16939.77
515.499	16970.49
515.701	17275.64
515.904	17476.34
516.106	17824.5
516.308	18012.91
516.51	18197.23
516.712	18307.82
516.914	18281.19
517.116	18617.06
517.318	18834.14
517.52	19264.22
517.722	19161.82
517.925	19323.61
518.127	19761.87
518.329	19919.57
518.531	19663.57
518.733	20048.59
518.935	20462.28
519.136	20390.6
519.338	20622.02
519.54	21050.05
519.742	21189.31
519.944	21439.16
520.146	21762.74
520.348	21369.53
520.55	22063.79
520.752	21742.26
520.954	22364.84
521.155	22229.68
521.357	22495.91
521.559	22782.63
521.761	23083.68
521.963	23454.36
522.164	23667.35
522.366	23497.37
522.568	24019.6
522.77	24054.42
522.971	24334.99
523.173	24365.71
523.375	24543.88
523.576	24289.93
523.778	24644.23
523.98	24877.7
524.181	24978.05
524.383	25023.11
524.584	25475.71
524.786	25621.11
524.988	25692.79
525.189	26055.28
525.391	25967.22
525.592	26497.64
525.794	26184.3
525.995	26544.75
526.197	26632.81
526.398	26935.91
526.6	26870.37
526.801	26862.18
527.003	27433.57
527.204	27312.74
527.406	27734.62
527.607	27492.96
527.808	27724.38
528.01	27257.44
528.211	27923.03
528.412	28453.45
528.614	28514.89
528.815	28334.67
529.016	28686.92
529.218	28363.34
529.419	28467.79
529.62	28672.59
529.822	28725.83
530.023	28717.64
530.224	28774.98
530.425	28686.92
530.626	28953.16
530.828	28947.01
531.029	29278.79
531.23	29082.18
531.431	29254.21
531.632	29852.22
531.833	29235.78
532.035	29696.57
532.236	29409.86
532.437	29504.06
532.638	29454.91
532.839	29676.09
533.04	29762.11
533.241	29581.88
533.442	30188.08
533.643	29893.18
533.844	30077.49
534.045	29876.79
534.246	30065.21
534.447	29829.69
534.648	30194.23
534.849	30124.6
535.05	29968.95
535.251	30218.8
535.451	30073.4
535.652	30014.01
535.853	30085.68
536.054	30429.74
536.255	30165.56
536.456	29987.38
536.657	30323.25
536.857	30057.01
537.058	30231.09
537.259	30462.51
537.46	30509.61
537.66	30415.41
537.861	30446.13
538.062	30249.52
538.263	30265.91
538.463	29991.48
538.664	29966.9
538.865	30179.89
539.065	30427.7
539.266	29862.46
539.466	30253.62
539.667	29954.61
539.868	30362.16
540.068	30376.5
540.269	30450.22
540.469	30442.03
540.67	30126.64
540.87	30474.8
541.071	30128.69
541.271	30374.45
541.472	30331.44
541.672	30026.29
541.873	30151.22
542.073	29753.91
542.274	30308.91
542.474	30468.66
542.675	30325.3
542.875	30229.04
543.075	30282.29
543.276	29774.39
543.476	30161.46
543.676	30249.52
543.877	29901.37
544.077	30192.18
544.277	30196.28
544.478	29889.08
544.678	30204.47
544.878	30282.29
545.078	30183.99
545.279	29776.44
545.479	30204.47
545.679	30388.78
545.879	29991.48
546.079	30181.94
546.28	29817.4
546.48	29604.41
546.68	30210.61
546.88	30288.43
547.08	29952.57
547.28	29958.71
547.48	29825.59
547.68	29907.51
547.88	29895.22
548.081	30120.5
548.281	30149.17
548.481	29805.11
548.681	30458.42
548.881	30235.19
549.081	29639.23
549.28	29956.66
549.48	29927.99
549.68	30018.1
549.88	30145.08
550.08	29880.89
550.28	30136.88
550.48	29991.48
550.68	30360.11
550.88	29983.29
551.08	30024.25
551.279	30378.54
551.479	29772.35
551.679	30026.29
551.879	29829.69
552.079	29936.18
552.278	29692.47
552.478	30267.95
552.678	30165.56
552.878	30093.88
553.077	30083.64
553.277	29532.73
553.477	30140.98
553.676	29532.73
553.876	29583.93
554.076	29784.63
554.275	29626.94
554.475	29190.72
554.674	29508.16
554.874	29766.2
555.074	29301.31
555.273	29557.31
555.473	29436.48
555.672	29608.51
555.872	29549.12
556.071	29434.43
556.271	29581.88
556.47	29274.69
556.67	28934.73
556.869	29252.16
557.068	29481.53
557.268	29037.12
557.467	29112.9
557.667	29008.45
557.866	29477.44
558.065	29076.04
558.265	29112.9
558.464	28914.25
558.663	29104.71
558.863	28598.86
559.062	29233.73
559.261	28295.76
559.461	29133.38
559.66	28332.62
559.859	28768.84
560.058	28639.82
560.258	28443.21
560.457	28043.86
560.656	28553.8
560.855	28418.64
561.054	28424.78
561.253	27916.89
561.453	28123.73
561.652	28021.33
561.851	28162.64
562.05	27984.47
562.249	27634.27
562.448	27902.55
562.647	27638.36
562.846	27873.88
563.045	27384.41
563.244	27589.21
563.443	27824.73
563.642	27206.24
563.841	27370.08
564.04	27417.18
564.239	27603.55
564.438	27144.8
564.637	27427.42
564.836	27388.51
565.035	26516.08
565.234	26856.04
565.432	26698.34
565.631	26681.96
565.83	27109.99
566.029	26780.26
566.228	26561.13
566.427	26448.49
566.625	26421.87
566.824	25934.45
567.023	26438.25
567.222	25913.97
567.42	26217.07
567.619	26002.04
567.818	25737.85
568.016	25797.24
568.215	25918.07
568.414	25481.85
568.612	25844.34
568.811	25729.66
569.01	25365.12
569.208	25098.88
569.407	25170.56
569.605	24937.09
569.804	25350.78
570.002	24550.03
570.201	25205.38
570.4	24793.73
570.598	24361.61
570.797	24445.58
570.995	24425.1
571.193	24543.88
571.392	24267.41
571.59	24199.82
571.789	24715.91
571.987	24003.22
572.186	23974.55
572.384	23970.45
572.582	23911.06
572.781	24142.48
572.979	23358.11
573.177	23775.89
573.376	23567
573.574	23329.44
573.772	23470.75
573.971	23454.36
574.169	23186.08
574.367	23255.71
574.565	23091.87
574.763	22866.6
574.962	23020.19
575.16	22700.71
575.358	22862.5
575.556	22631.08
575.754	22663.85
575.952	22487.72
576.151	22457
576.349	22141.61
576.547	22389.42
576.745	22299.31
576.943	22119.09
577.141	22012.59
577.339	22321.84
577.537	21670.58
577.735	22065.84
577.933	21684.92
578.131	21641.91
578.329	21838.51
578.527	21473.98
578.725	21306.04
578.923	21537.46
579.121	21455.54
579.319	21246.65
579.516	21414.59
579.714	21271.23
579.912	21283.52
580.11	20890.31
580.308	21115.58
580.506	20902.59
580.704	20523.72
580.901	20882.11
581.099	20951.74
581.297	20619.97
581.495	20581.06
581.692	20867.78
581.89	20275.91
582.088	20433.61
582.285	20439.75
582.483	20085.45
582.681	20411.08
582.878	20032.21
583.076	19876.56
583.274	20097.74
583.471	19933.9
583.669	19833.55
583.866	19563.22
584.064	19704.53
584.262	19649.24
584.459	19878.61
584.657	19634.9
584.854	19757.78
585.052	19428.06
585.249	19448.54
585.447	19673.81
585.644	19116.76
585.841	19346.14
586.039	19192.54
586.236	18899.68
586.434	19303.13
586.631	19120.86
586.828	18995.93
587.026	18936.54
587.223	18713.31
587.42	18686.69
587.618	18787.04
587.815	18526.95
588.012	18479.85
588.21	18047.72
588.407	18729.7
588.604	18664.16
588.801	18330.34
588.999	18197.23
589.196	18234.09
589.393	17988.33
589.59	18279.15
589.787	18084.59
589.984	18199.27
590.182	17773.3
590.379	17965.81
590.576	17789.68
590.773	17588.98
590.97	17814.26
591.167	17660.66
591.364	17451.77
591.561	17531.64
591.758	17416.95
591.955	17832.69
592.152	17670.9
592.349	17390.33
592.546	17210.11
592.743	17058.56
592.94	16816.9
593.137	17107.71
593.334	17201.91
593.531	16997.12
593.727	16866.05
593.924	17054.46
594.121	16820.99
594.318	17019.64
594.515	16626.43
594.712	16956.16
594.908	16773.89
595.105	16771.84
595.302	16487.17
595.499	16655.11
595.696	16575.24
595.892	16274.18
596.089	16468.74
596.286	16200.46
596.482	16352.01
596.679	16472.84
596.876	16184.07
597.072	16077.58
597.269	15858.45
597.466	15698.7
597.662	15811.34
597.859	16063.24
598.055	15889.17
598.252	15649.55
598.448	15721.23
598.645	15690.51
598.841	15342.36
599.038	15579.92
599.234	15612.69
599.431	15305.49
599.627	15455
599.824	15389.46
600.02	15510.29
600.217	15465.24
600.413	15108.89
600.609	15201.05
600.806	14879.52
601.002	15092.51
601.198	15041.31
601.395	14973.72
601.591	15047.45
601.787	15029.02
601.984	14625.57
602.18	14891.8
602.376	14932.76
602.572	14682.91
602.769	14517.03
602.965	14517.03
603.161	14705.44
603.357	14258.98
603.553	14431.01
603.75	14322.47
603.946	14447.4
604.142	14498.59
604.338	14330.66
604.534	14189.35
604.73	14297.89
604.926	14058.28
605.122	14054.19
605.318	14082.86
605.514	14121.77
605.71	14013.23
605.906	13910.83
606.102	13861.68
606.298	13806.38
606.494	13798.19
606.69	13796.14
606.886	13695.79
607.082	13589.3
607.278	13894.44
607.474	13777.71
607.67	13787.95
607.866	13351.73
608.062	13445.94
608.257	13476.66
608.453	13329.2
608.649	13347.64
608.845	13462.32
609.041	13341.49
609.236	13620.02
609.432	13218.61
609.628	13353.78
609.824	13222.71
610.019	13011.77
610.215	13196.09
610.411	13282.1
610.606	13165.37
610.802	13036.35
610.998	13075.26
611.193	13171.51
611.389	12798.78
611.584	12925.75
611.78	12745.53
611.976	12720.96
612.171	12845.88
612.367	12825.4
612.562	12667.71
612.758	12464.96
612.953	12419.91
613.149	12933.95
613.344	12499.78
613.539	12741.44
613.735	12473.15
613.93	12493.63
614.126	12485.44
614.321	12530.5
614.517	12507.97
614.712	12526.4
614.907	12356.42
615.103	12448.58
615.298	12174.15
615.493	12323.65
615.688	12217.16
615.884	12276.55
616.079	12075.85
616.274	12180.29
616.47	12069.7
616.665	11961.16
616.86	11989.83
617.055	12112.71
617.25	11950.92
617.445	11881.29
617.641	11782.99
617.836	11838.28
618.031	11707.21
618.226	11887.43
618.421	11529.04
618.616	11711.31
618.811	11567.95
619.006	11959.11
619.201	11645.77
619.396	11594.58
619.591	11350.87
619.786	11656.01
619.981	11508.56
620.176	11531.09
620.371	11264.85
620.566	11105.11
620.761	11295.57
620.956	11209.56
621.151	10910.55
621.346	11107.16
621.541	10877.79
621.735	11078.49
621.93	10806.11
622.125	10953.56
622.32	10634.08
622.515	10935.13
622.709	10648.41
622.904	10795.87
623.099	10533.73
623.294	10644.32
623.488	10474.34
623.683	10431.33
623.878	10251.11
624.072	10558.3
624.267	10177.38
624.462	10390.37
624.656	10036.07
624.851	10130.28
625.046	10025.83
625.24	10171.24
625.435	9790.31
625.629	10142.57
625.824	9708.4
626.018	9829.23
626.213	9583.47
626.407	9601.9
626.602	9583.47
626.796	9694.06
626.991	9800.55
627.185	9663.34
627.38	9354.1
627.574	9337.71
627.768	9399.15
627.963	9270.13
628.157	9014.13
628.352	9061.24
628.546	9026.42
628.74	9192.31
628.935	8895.35
629.129	9120.63
629.323	8893.3
629.517	9022.33
629.712	8817.53
629.906	8672.12
630.1	8764.28
630.294	8887.16
630.489	8678.27
630.683	8819.58
630.877	8606.59
631.071	8555.39
631.265	8582.01
631.459	8436.61
631.653	8389.5
631.848	8536.96
632.042	8377.22
632.236	8291.2
632.43	8172.42
632.624	8192.9
632.818	8133.51
633.012	8108.93
633.206	7994.25
633.4	8086.4
633.594	8020.87
633.788	8063.88
633.982	7941
634.176	7861.13
634.369	7756.68
634.563	7807.88
634.757	7824.26
634.951	7842.7
635.145	7912.33
635.339	7691.15
635.533	7488.4
635.726	7406.48
635.92	7277.46
636.114	7531.41
636.308	7478.16
636.501	7242.64
636.695	7424.91
636.889	7287.7
637.083	7347.09
637.276	7158.67
637.47	7052.18
637.664	7162.77
637.857	7060.37
638.051	7037.84
638.244	7138.2
638.438	7097.24
638.632	6925.21
638.825	6796.18
639.019	6806.42
639.212	6816.66
639.406	6919.06
639.599	6722.46
639.793	6638.49
639.986	6781.85
640.18	6452.13
640.373	6472.61
640.567	6734.75
640.76	6556.57
640.954	6380.45
641.147	6321.06
641.34	6327.2
641.534	6382.49
641.727	6607.77
641.92	6495.13
642.114	6263.71
642.307	6212.51
642.5	6230.94
642.694	6155.17
642.887	5964.71
643.08	6142.88
643.273	5964.71
643.467	5909.41
643.66	5665.71
643.853	6026.15
644.046	5837.73
644.239	5764.01
644.432	5667.75
644.626	5759.91
644.819	5786.54
645.012	5661.61
645.205	5778.34
645.398	5727.14
645.591	5632.94
645.784	5555.12
645.977	5671.85
646.17	5430.19
646.363	5350.32
646.556	5620.65
646.749	5454.76
646.942	5602.22
647.135	5352.37
647.328	5419.95
647.521	5403.57
647.714	5088.18
647.907	5366.7
648.099	5278.64
648.292	5321.65
648.485	5223.34
648.678	5256.11
648.871	5084.08
649.064	5135.28
649.256	5186.48
649.449	5092.27
649.642	4910.01
649.835	5077.94
650.027	4907.96
650.22	4989.88
650.413	4899.77
650.605	4905.91
650.798	4930.48
650.991	4756.41
651.183	4844.47
651.376	4705.21
651.568	4830.13
651.761	4748.22
651.954	4737.98
652.146	4631.48
652.339	4785.08
652.531	4811.7
652.724	4680.63
652.916	4443.07
653.109	4545.47
653.301	4512.7
653.494	4633.53
653.686	4510.65
653.879	4684.73
654.071	4357.05
654.263	4496.32
654.456	4506.56
654.648	4518.84
654.84	4357.05
655.033	4393.92
655.225	4375.49
655.417	4201.41
655.61	4312
655.802	4324.29
655.994	4246.46
656.186	4150.21
656.379	4230.08
656.571	4252.61
656.763	4035.52
656.955	4178.88
657.148	4195.26
657.34	4197.31
657.532	4113.35
657.724	4064.19
657.916	4146.11
658.108	4125.63
658.3	3982.28
658.492	4041.67
658.684	4017.09
658.876	4004.8
659.068	4066.24
659.26	3886.02
659.452	3992.52
659.644	3777.48
659.836	3771.33
660.028	3951.56
660.22	3828.68
660.412	3802.05
660.604	3734.47
660.796	3900.36
660.988	3664.84
661.18	3759.05
661.372	3630.02
661.563	3687.37
661.755	3601.35
661.947	3664.84
662.139	3703.75
662.331	3609.54
662.522	3552.2
662.714	3607.5
662.906	3670.98
663.097	3464.14
663.289	3527.63
663.481	3523.53
663.673	3568.59
663.864	3529.67
664.056	3458
664.247	3470.28
664.439	3326.93
664.631	3437.52
664.822	3337.17
665.014	3443.66
665.205	3314.64
665.397	3378.12
665.588	3351.5
665.78	3425.23
665.971	3414.99
666.163	3414.99
666.354	3402.7
666.546	3341.26
666.737	3247.05
666.929	3322.83
667.12	3302.35
667.311	3300.3
667.503	3310.54
667.694	3384.27
667.885	3271.63
668.077	3195.86
668.268	3152.85
668.459	3222.48
668.651	3142.61
668.842	3015.63
669.033	3251.15
669.224	3328.97
669.416	3204.05
669.607	3277.77
669.798	3083.22
669.989	3249.1
670.18	3083.22
670.371	3140.56
670.563	3048.4
670.754	3259.34
670.945	3060.69
671.136	3175.38
671.327	2997.2
671.518	3177.42
671.709	3224.53
671.9	3167.18
672.091	3165.14
672.282	3206.1
672.473	3070.93
672.664	3062.74
672.855	3046.35
673.046	3130.32
673.237	3136.46
673.428	3101.65
673.619	3156.94
673.809	3079.12
674	3103.7
674.191	3068.88
674.382	2898.9
674.573	3046.35
674.764	3019.73
674.954	3083.22
675.145	2986.96
675.336	3103.7
675.527	3009.49
675.717	3097.55
675.908	3109.84
676.099	3144.66
676.289	3193.81
676.48	3048.4
676.671	3101.65
676.861	3038.16
677.052	3077.07
677.243	3066.83
677.433	3089.36
677.624	3115.98
677.814	3150.8
678.005	3029.97
678.195	3038.16
678.386	3120.08
678.576	3087.31
678.767	3015.63
678.957	3085.26
679.148	3064.79
679.338	3222.48
679.529	3003.35
679.719	3058.64
679.909	3154.9
680.1	3199.95
680.29	3181.52
680.481	3210.19
680.671	3146.7
680.861	3179.47
681.052	3193.81
681.242	3005.39
681.432	3142.61
681.622	3218.38
681.813	2993.11
682.003	3085.26
682.193	3173.33
682.383	3120.08
682.573	3130.32
682.764	3236.81
682.954	3165.14
683.144	3271.63
683.334	3236.81
683.524	3079.12
683.714	3148.75
683.904	3109.84
684.094	3251.15
684.284	3001.3
684.474	3132.37
684.664	3150.8
684.854	3202
685.044	3120.08
685.234	3036.11
685.424	3138.51
685.614	3072.98
685.804	3171.28
685.994	3150.8
686.184	3232.72
686.374	3120.08
686.564	3083.22
686.753	3064.79
686.943	3150.8
687.133	3097.55
687.323	2950.1
687.513	3007.44
687.702	2919.38
687.892	2995.15
688.082	3001.3
688.272	3003.35
688.461	3075.03
688.651	3025.87
688.841	2950.1
689.03	2892.76
689.22	2855.89
689.41	2851.8
689.599	2888.66
689.789	2911.19
689.979	2849.75
690.168	2776.02
690.358	2728.92
690.547	2810.84
690.737	2833.36
690.926	2847.7
691.116	2659.29
691.305	2722.77
691.495	2683.86
691.684	2671.58
691.874	2724.82
692.063	2692.05
692.252	2671.58
692.442	2726.87
692.631	2716.63
692.82	2493.4
693.01	2716.63
693.199	2628.57
693.388	2530.27
693.578	2524.12
693.767	2632.66
693.956	2659.29
694.146	2573.27
694.335	2560.98
694.524	2632.66
694.713	2540.51
694.902	2517.98
695.092	2462.68
695.281	2477.02
695.47	2681.82
695.659	2524.12
695.848	2366.43
696.037	2544.6
696.226	2544.6
696.415	2444.25
696.604	2489.31
696.793	2526.17
696.982	2511.83
697.171	2454.49
697.36	2505.69
697.549	2415.58
697.738	2345.95
697.927	2474.97
698.116	2503.64
698.305	2483.16
698.494	2458.59
698.683	2382.81
698.872	2456.54
699.061	2368.48
699.25	2454.49
699.438	2464.73
699.627	2352.09
699.816	2550.75
700.005	2466.78
700.193	2522.07
700.382	2446.3
700.571	2407.39
700.76	2388.96
700.948	2358.24
701.137	2450.39
701.326	2497.5
701.514	2497.5
701.703	2431.96
701.892	2413.53
702.08	2520.03
702.269	2407.39
702.457	2302.94
702.646	2434.01
702.834	2384.86
703.023	2464.73
703.212	2550.75
703.4	2542.55
703.589	2450.39
703.777	2419.68
703.965	2460.63
704.154	2442.2
704.342	2417.63
704.531	2571.22
704.719	2460.63
704.907	2558.94
705.096	2573.27
705.284	2503.64
705.472	2472.92
705.661	2452.44
705.849	2419.68
706.037	2384.86
706.226	2458.59
706.414	2485.21
706.602	2538.46
706.79	2587.61
706.979	2597.85
707.167	2524.12
707.355	2647
707.543	2601.94
707.731	2587.61
707.919	2634.71
708.107	2425.82
708.296	2499.55
708.484	2577.37
708.672	2513.88
708.86	2487.26
709.048	2589.66
709.236	2548.7
709.424	2567.13
709.612	2536.41
709.8	2622.42
709.988	2434.01
710.176	2628.57
710.364	2577.37
710.551	2593.75
710.739	2659.29
710.927	2624.47
711.115	2618.33
711.303	2708.44
711.491	2690.01
711.679	2610.14
711.866	2696.15
712.054	2636.76
712.242	2681.82
712.43	2667.48
712.617	2589.66
712.805	2743.25
712.993	2599.9
713.181	2610.14
713.368	2671.58
713.556	2681.82
713.744	2628.57
713.931	2773.97
714.119	2819.03
714.306	2771.93
714.494	2831.32
714.682	2730.97
714.869	2706.39
715.057	2804.69
715.244	2757.59
715.432	2739.16
715.619	2704.34
715.807	2769.88
715.994	2620.38
716.182	2829.27
716.369	2804.69
716.556	2835.41
716.744	2849.75
716.931	2886.61
717.119	2968.53
717.306	2747.35
717.493	2630.62
717.681	2743.25
717.868	2835.41
718.055	2835.41
718.242	2911.19
718.43	2876.37
718.617	2972.63
718.804	2870.23
718.991	2757.59
719.179	2870.23
719.366	2821.08
719.553	2859.99
719.74	2919.38
719.927	2923.48
720.114	2999.25
720.301	2915.28
720.488	2958.29
720.676	2857.94
720.863	2905.04
721.05	2931.67
721.237	3025.87
721.424	2993.11
721.611	3062.74
721.798	2880.47
721.985	2864.08
722.172	3017.68
722.358	3003.35
722.545	3056.59
722.732	2866.13
722.919	3044.31
723.106	3019.73
723.293	3054.55
723.48	3007.44
723.667	3005.39
723.853	2907.09
724.04	3095.5
724.227	3075.03
724.414	3111.89
724.6	3013.59
724.787	3105.74
724.974	3146.7
725.161	3032.02
725.347	2964.43
725.534	3089.36
725.72	2946
725.907	3195.86
726.094	3044.31
726.28	3009.49
726.467	2952.15
726.653	3105.74
726.84	3236.81
727.027	3169.23
727.213	3206.1
727.4	3261.39
727.586	3259.34
727.773	3062.74
727.959	3138.51
728.145	3136.46
728.332	3279.82
728.518	3146.7
728.705	3202
728.891	3107.79
729.077	3195.86
729.264	3185.62
729.45	3212.24
729.636	3292.11
729.823	3249.1
730.009	3455.95
730.195	3245.01
730.382	3285.97
730.568	3294.16
730.754	3308.49
730.94	3253.2
731.126	3242.96
731.313	3292.11
731.499	3191.76
731.685	3185.62
731.871	3333.07
732.057	3259.34
732.243	3371.98
732.429	3324.88
732.615	3267.53
732.801	3257.29
732.987	3304.4
733.173	3359.69
733.359	3384.27
733.545	3283.92
733.731	3191.76
733.917	3392.46
734.103	3343.31
734.289	3324.88
734.475	3341.26
734.661	3396.56
734.847	3453.9
735.033	3408.84
735.219	3331.02
735.404	3464.14
735.59	3298.25
735.776	3312.59
735.962	3564.49
736.148	3304.4
736.333	3314.64
736.519	3417.04
736.705	3355.6
736.89	3294.16
737.076	3310.54
737.262	3236.81
737.447	3310.54
737.633	3294.16
737.819	3378.12
738.004	3392.46
738.19	3402.7
738.375	3390.41
738.561	3494.86
738.747	3378.12
738.932	3285.97
739.118	3490.76
739.303	3363.79
739.489	3447.76
739.674	3263.44
739.859	3310.54
740.045	3322.83
740.23	3222.48
740.416	3220.43
740.601	3333.07
740.786	3341.26
740.972	3476.43
741.157	3259.34
741.342	3146.7
741.528	3247.05
741.713	3279.82
741.898	3275.73
742.084	3320.78
742.269	3388.36
742.454	3179.47
742.639	3349.45
742.824	3187.66
743.01	3271.63
743.195	3365.84
743.38	3214.29
743.565	3247.05
743.75	3255.25
743.935	3091.41
744.12	3185.62
744.305	3103.7
744.49	3130.32
744.675	3120.08
744.86	3169.23
745.045	3138.51
745.23	3040.21
745.415	3017.68
745.6	3181.52
745.785	3085.26
745.97	3056.59
746.155	3115.98
746.34	3091.41
746.525	3007.44
746.71	3124.18
746.895	2972.63
747.079	2993.11
747.264	2956.24
747.449	2943.96
747.634	3036.11
747.819	2898.9
748.003	2872.28
748.188	2767.83
748.373	2950.1
748.557	2843.6
748.742	2806.74
748.927	2825.17
749.111	2792.41
749.296	2724.82
749.481	2794.45
749.665	2759.64
749.85	2700.25
750.034	2747.35
750.219	2663.38
750.404	2630.62
750.588	2687.96
750.773	2692.05
750.957	2681.82
751.141	2642.9
751.326	2698.2
751.51	2507.74
751.695	2507.74
751.879	2511.83
752.064	2515.93
752.248	2534.36
752.432	2579.42
752.617	2493.4
752.801	2587.61
752.985	2425.82
753.17	2427.87
753.354	2462.68
753.538	2393.05
753.722	2345.95
753.907	2444.25
754.091	2302.94
754.275	2327.52
754.459	2319.32
754.643	2325.47
754.828	2388.96
755.012	2272.22
755.196	2231.26
755.38	2272.22
755.564	2208.73
755.748	2163.68
755.932	2163.68
756.116	2143.2
756.3	2157.54
756.484	2247.65
756.668	2212.83
756.852	2102.24
757.036	2094.05
757.22	2124.77
757.404	2141.15
757.588	2034.66
757.772	2016.23
757.956	2098.14
758.14	2182.11
758.323	1932.26
758.507	1993.7
758.691	1969.12
758.875	1997.79
759.059	2034.66
759.242	2012.13
759.426	1854.44
759.61	2016.23
759.794	1940.45
759.977	1784.8
760.161	2026.47
760.345	1911.78
760.528	1969.12
760.712	1981.41
760.895	1889.25
761.079	1840.1
761.263	1776.61
761.446	1797.09
761.63	1889.25
761.813	1784.8
761.997	1666.02
762.18	1721.32
762.364	1838.05
762.547	1760.23
762.731	1743.85
762.914	1811.43
763.098	1729.51
763.281	1811.43
763.464	1672.17
763.648	1747.94
763.831	1688.55
764.015	1627.11
764.198	1704.93
764.381	1790.95
764.564	1584.1
764.748	1602.54
764.931	1616.87
765.114	1623.02
765.297	1629.16
765.481	1567.72
765.664	1637.35
765.847	1672.17
766.03	1663.97
766.213	1610.73
766.397	1661.93
766.58	1600.49
766.763	1567.72
766.946	1512.42
767.129	1412.07
767.312	1563.62
767.495	1532.9
767.678	1577.96
767.861	1434.6
768.044	1377.26
768.227	1596.39
768.41	1479.66
768.593	1573.86
768.776	1512.42
768.959	1465.32
769.142	1493.99
769.324	1426.41
769.507	1399.79
769.69	1446.89
769.873	1475.56
770.056	1524.71
770.239	1424.36
770.421	1510.38
770.604	1524.71
770.787	1418.22
770.97	1321.96
771.152	1450.99
771.335	1352.68
771.518	1375.21
771.7	1403.88
771.883	1338.35
772.066	1319.92
772.248	1281
772.431	1420.27
772.613	1352.68
772.796	1401.83
772.978	1377.26
773.161	1295.34
773.343	1147.89
773.526	1338.35
773.708	1240.05
773.891	1244.14
774.073	1268.72
774.256	1242.09
774.438	1242.09
774.621	1170.41
774.803	1199.09
774.985	1231.85
775.168	1223.66
775.35	1172.46
775.532	1205.23
775.715	1190.89
775.897	1240.05
776.079	1229.81
776.261	1291.24
776.444	1047.54
776.626	1174.51
776.808	1076.21
776.99	1080.3
777.173	1135.6
777.355	1113.07
777.537	1055.73
777.719	1049.58
777.901	1104.88
778.083	1033.2
778.265	988.14
778.447	941.04
778.629	932.85
778.811	1012.72
778.993	996.34
779.175	947.19
779.357	1000.43
779.539	936.95
779.721	967.67
779.903	1002.48
780.085	977.91
780.267	994.29
780.449	938.99
780.631	977.91
780.812	967.67
780.994	1022.96
781.176	898.03
781.358	932.85
781.54	850.93
781.721	832.5
781.903	881.65
782.085	803.83
782.267	873.46
782.448	885.75
782.63	885.75
782.812	830.45
782.993	789.49
783.175	787.44
783.357	779.25
783.538	863.22
783.72	797.68
783.901	723.96
784.083	795.64
784.264	717.81
784.446	721.91
784.627	666.61
784.809	775.16
784.99	680.95
785.172	779.25
785.353	721.91
785.535	711.67
785.716	672.76
785.897	740.34
786.079	773.11
786.26	613.37
786.441	680.95
786.623	631.8
786.804	750.58
786.985	658.42
787.167	652.28
787.348	656.37
787.529	635.89
787.71	650.23
787.891	711.67
788.073	543.74
788.254	590.84
788.435	691.19
788.616	635.89
788.797	574.46
788.978	639.99
789.159	521.21
789.34	656.37
789.522	578.55
789.703	588.79
789.884	611.32
790.065	658.42
790.246	676.85
790.427	490.49
790.607	556.02
790.788	531.45
790.969	572.41
791.15	644.09
791.331	562.17
791.512	547.83
791.693	543.74
791.874	553.98
792.054	676.85
792.235	601.08
792.416	521.21
792.597	566.26
792.778	521.21
792.958	578.55
793.139	517.11
793.32	529.4
793.5	515.06
793.681	529.4
793.862	486.39
794.042	521.21
794.223	435.19
794.404	435.19
794.584	429.05
794.765	392.19
794.945	478.2
795.126	465.91
795.306	422.91
795.487	410.62
795.667	472.06
795.848	445.43
796.028	451.58
796.209	510.97
796.389	486.39
796.57	484.34
796.75	429.05
796.93	353.27
797.111	345.08
797.291	383.99
797.471	435.19
797.652	467.96
797.832	412.67
798.012	410.62
798.192	353.27
798.373	377.85
798.553	381.95
798.733	377.85
798.913	494.58
799.093	412.67
799.274	406.52
799.454	404.47
799.634	412.67
799.814	420.86
799.994	402.43
800.174	379.9
800.354	357.37
800.534	310.27
800.714	357.37
800.894	347.13
801.074	398.33
801.254	334.84
801.434	357.37
801.614	338.94
801.794	373.75
801.974	1008.62
802.154	449.53
802.334	392.19
802.514	371.71
802.693	306.17
802.873	320.51
803.053	343.03
803.233	361.47
803.413	398.33
803.592	310.27
803.772	312.32
803.952	371.71
804.131	322.56
804.311	340.99
804.491	328.7
804.67	322.56
804.85	400.38
805.03	306.17
805.209	336.89
805.389	324.6
805.568	345.08
805.748	379.9
805.928	252.92
806.107	320.51
806.287	326.65
806.466	369.66
806.646	336.89
806.825	259.07
807.004	326.65
807.184	285.69
807.363	293.88
807.543	293.88
807.722	263.16
807.901	297.98
808.081	373.75
808.26	158.72
808.439	289.79
808.619	242.68
808.798	355.32
808.977	277.5
809.156	367.61
809.336	250.88
809.515	320.51
809.694	302.08
809.873	285.69
810.052	349.18
810.231	330.75
810.411	236.54
810.59	297.98
810.769	359.42
810.948	244.73
811.127	205.82
811.306	232.44
811.485	236.54
811.664	287.74
811.843	328.7
812.022	326.65
812.201	263.16
812.38	293.88
812.559	220.16
812.737	265.21
812.916	185.34
813.095	267.26
813.274	185.34
813.453	164.86
813.632	160.77
813.811	265.21
813.989	242.68
814.168	242.68
814.347	199.68
814.526	201.72
814.704	214.01
814.883	205.82
815.062	199.68
815.24	257.02
815.419	209.92
815.598	250.88
815.776	195.58
815.955	242.68
816.133	201.72
816.312	162.81
816.49	158.72
816.669	146.43
816.847	152.57
817.026	242.68
817.204	168.96
817.383	183.29
817.561	125.95
817.74	177.15
817.918	187.39
818.097	195.58
818.275	173.05
818.453	189.44
818.632	230.4
818.81	183.29
818.988	171.01
819.167	164.86
819.345	211.96
819.523	214.01
819.701	160.77
819.879	240.64
820.058	234.49
820.236	207.87
820.414	189.44
820.592	148.48
820.77	132.09
820.948	199.68
821.127	162.81
821.305	191.49
821.483	164.86
821.661	238.59
821.839	164.86
822.017	150.53
822.195	156.67
822.373	257.02
822.551	97.28
822.729	117.76
822.907	89.09
823.085	187.39
823.262	177.15
823.44	132.09
823.618	154.62
823.796	156.67
823.974	166.91
824.152	230.4
824.329	205.82
824.507	173.05
824.685	132.09
824.863	222.2
825.04	158.72
825.218	226.3
825.396	136.19
825.574	130.05
825.751	156.67
825.929	175.1
826.107	84.99
826.284	134.14
826.462	146.43
826.639	146.43
826.817	134.14
826.994	201.72
827.172	105.47
827.349	197.63
827.527	113.66
827.704	128
827.882	142.33
828.059	123.9
828.237	130.05
828.414	117.76
828.591	41.98
828.769	222.2
828.946	48.13
829.124	150.53
829.301	144.38
829.478	91.13
829.655	89.09
829.833	101.37
830.01	82.94
830.187	125.95
830.364	193.53
830.542	117.76
830.719	185.34
830.896	166.91
831.073	148.48
831.25	64.51
831.427	91.13
831.604	138.24
831.782	97.28
831.959	87.04
832.136	154.62
832.313	140.29
832.49	84.99
832.667	113.66
832.844	91.13
833.021	164.86
833.198	134.14
833.374	123.9
833.551	103.42
833.728	99.33
833.905	175.1
834.082	91.13
834.259	109.57
834.436	93.18
834.612	103.42
834.789	179.2
834.966	115.71
835.143	50.18
835.319	70.65
835.496	150.53
835.673	132.09
835.85	201.72
836.026	50.18
836.203	109.57
836.38	50.18
836.556	62.46
836.733	46.08
836.909	58.37
837.086	113.66
837.262	35.84
837.439	97.28
837.616	72.7
837.792	78.85
837.968	142.33
838.145	46.08
838.321	146.43
838.498	134.14
838.674	78.85
838.851	87.04
839.027	78.85
839.203	146.43
839.38	109.57
839.556	-15.36
839.732	101.37
839.909	19.46
840.085	132.09
840.261	78.85
840.437	21.5
840.614	62.46
840.79	144.38
840.966	64.51
841.142	84.99
841.318	128
841.494	82.94
841.671	101.37
841.847	82.94
842.023	25.6
842.199	140.29
842.375	95.23
842.551	15.36
842.727	72.7
842.903	156.67
843.079	80.89
843.255	109.57
843.431	-13.31
843.607	109.57
843.783	-11.26
843.959	95.23
844.134	103.42
844.31	113.66
844.486	17.41
844.662	76.8
844.838	62.46
845.013	33.79
845.189	74.75
845.365	62.46
845.541	35.84
845.716	-5.12
845.892	84.99
846.068	33.79
846.244	82.94
846.419	23.55
846.595	33.79
846.77	66.56
846.946	66.56
847.122	35.84
847.297	9.22
847.473	121.85
847.648	1.02
847.824	58.37
847.999	23.55
848.175	70.65
848.35	58.37
848.526	125.95
848.701	74.75
848.876	115.71
849.052	89.09
849.227	35.84
849.403	17.41
849.578	21.5
849.753	70.65
849.929	60.42
850.104	87.04
850.279	72.7
850.454	56.32
850.63	109.57
850.805	89.09
850.98	103.42
851.155	50.18
851.33	74.75
851.505	78.85
851.681	107.52
851.856	87.04
852.031	111.61
852.206	66.56
852.381	17.41
852.556	50.18
852.731	48.13
852.906	128
853.081	56.32
853.256	132.09
853.431	78.85
853.606	3.07
853.781	-29.7
853.956	1.02
854.131	101.37
854.305	27.65
854.48	-21.5
854.655	50.18
854.83	44.03
855.005	91.13
855.18	89.09
855.354	33.79
855.529	-1.02
855.704	39.94
855.879	115.71
856.053	39.94
856.228	41.98
856.403	41.98
856.577	37.89
856.752	29.7
856.926	39.94
857.101	97.28
857.276	50.18
857.45	27.65
857.625	-3.07
857.799	97.28
857.974	29.7
858.148	-50.18
858.323	68.61
858.497	-56.32
858.672	41.98
858.846	-7.17
859.02	25.6
859.195	70.65
859.369	17.41
859.543	37.89
859.718	46.08
859.892	27.65
860.066	9.22
860.241	27.65
860.415	9.22
860.589	7.17
860.763	9.22
860.938	-44.03
861.112	27.65
861.286	41.98
861.46	125.95
861.634	56.32
861.808	68.61
861.982	33.79
862.157	41.98
862.331	44.03
862.505	29.7
862.679	13.31
862.853	54.27
863.027	-1.02
863.201	56.32
863.375	-35.84
863.549	31.74
863.722	89.09
863.896	39.94
864.07	-29.7
864.244	68.61
864.418	115.71
864.592	21.5
864.766	21.5
864.939	-3.07
865.113	19.46
865.287	89.09
865.461	-21.5
865.634	27.65
865.808	23.55
865.982	7.17
866.156	33.79
866.329	-15.36
866.503	-11.26
866.676	9.22
866.85	7.17
867.024	41.98
867.197	82.94
867.371	58.37
867.544	48.13
867.718	13.31
867.891	39.94
868.065	-93.18
868.238	5.12
868.412	35.84
868.585	44.03
868.759	23.55
868.932	-41.98
869.105	-3.07
869.279	7.17
869.452	17.41
869.625	54.27
869.799	11.26
869.972	11.26
870.145	115.71
870.319	64.51
870.492	-5.12
870.665	41.98
870.838	17.41
871.011	-7.17
871.185	33.79
871.358	-50.18
871.531	117.76
871.704	-25.6
871.877	17.41
872.05	35.84
872.223	9.22
872.396	25.6
872.569	76.8
872.742	-13.31
872.915	31.74
873.088	89.09
873.261	78.85
873.434	19.46
873.607	-60.42
873.78	76.8
873.953	58.37
874.126	-21.5
874.299	1.02
874.471	3.07
874.644	-15.36
874.817	-19.46
874.99	60.42
875.163	41.98
875.335	66.56
875.508	-5.12
875.681	21.5
875.853	25.6
876.026	-1.02
876.199	13.31
876.371	78.85
876.544	-25.6
876.717	9.22
876.889	-21.5
877.062	39.94
877.234	-37.89
877.407	33.79
877.579	23.55
877.752	115.71
877.924	48.13
878.097	54.27
878.269	-11.26
878.442	-1.02
878.614	19.46
878.786	21.5
878.959	44.03
879.131	19.46
879.303	-41.98
879.476	19.46
879.648	76.8
879.82	41.98
879.993	-19.46
880.165	-21.5
880.337	-21.5
880.509	-3.07
880.681	-41.98
880.854	89.09
881.026	-5.12
881.198	52.22
881.37	5.12
881.542	-7.17
881.714	-3.07
881.886	-31.74
882.058	1.02
882.23	-52.22
882.402	35.84
882.574	70.65
882.746	17.41
882.918	44.03
883.09	17.41
883.262	13.31
883.434	15.36
883.606	-48.13
883.778	17.41
883.95	54.27
884.122	-3.07
884.293	11.26
884.465	-25.6
884.637	19.46
884.809	-15.36
884.98	31.74
885.152	9.22
885.324	27.65
885.496	29.7
885.667	50.18
885.839	-13.31
886.011	87.04
886.182	3.07
886.354	-33.79
886.525	56.32
886.697	17.41
886.869	3.07
887.04	-44.03
887.212	52.22
887.383	99.33
887.555	-1.02
887.726	50.18
887.897	64.51
888.069	-35.84
888.24	41.98
888.412	-3.07
888.583	-31.74
888.754	35.84
888.926	-87.04
889.097	-21.5
889.268	31.74
889.44	-13.31
889.611	7.17
889.782	-44.03
889.953	52.22
890.125	35.84
890.296	3.07
890.467	-19.46
890.638	-35.84
890.809	-11.26
890.98	-37.89
891.151	41.98
891.323	41.98
891.494	-17.41
891.665	-1.02
891.836	-80.89
892.007	87.04
892.178	68.61
892.349	-13.31
892.52	1.02
892.691	-58.37
892.862	27.65
893.032	-27.65
893.203	7.17
893.374	15.36
893.545	41.98
893.716	21.5
893.887	-25.6
894.057	-21.5
894.228	39.94
894.399	-25.6
894.57	-5.12
894.74	-25.6
894.911	23.55
895.082	-66.56
895.253	-1.02
895.423	-1.02
895.594	52.22
895.764	50.18
895.935	-72.7
896.106	60.42
896.276	50.18
896.447	-56.32
896.617	-54.27
896.788	5.12
896.958	25.6
897.129	-17.41
897.299	25.6
897.47	44.03
897.64	39.94
897.81	3.07
897.981	7.17
898.151	5.12
898.322	105.47
898.492	-13.31
898.662	-15.36
898.832	-41.98
899.003	17.41
899.173	-25.6
899.343	21.5
899.513	-31.74
