Data from USB4F104151__42__12-23-53-209.txt Node

Date: Fri Mar 14 12:23:53 EDT 2025
User: louis
Spectrometer: USB4F10415
Trigger mode: 4
Integration Time (sec): 3.500000E-2
Scans to average: 1
Electric dark correction enabled: true
Nonlinearity correction enabled: false
Boxcar width: 0
XAxis mode: Wavelengths
Number of Pixels in Spectrum: 3648
>>>>>Begin Spectral Data<<<<<
178.204	-131.41
178.424	-131.41
178.644	-131.41
178.864	-172.37
179.084	-155.99
179.304	61.1
179.524	3.75
179.744	20.14
179.964	42.67
180.184	-53.59
180.404	1.71
180.624	1.71
180.844	-51.54
181.064	-43.35
181.283	5.8
181.503	7.85
181.723	3.75
181.943	5.8
182.163	112.3
182.383	116.39
182.602	36.52
182.822	95.91
183.042	-0.34
183.262	-14.68
183.482	-26.96
183.701	-22.87
183.921	67.24
184.141	-41.3
184.361	-14.68
184.58	30.38
184.8	67.24
185.02	-33.11
185.239	108.2
185.459	120.49
185.679	75.43
185.898	7.85
186.118	40.62
186.338	-2.39
186.557	-0.34
186.777	-2.39
186.997	11.95
187.216	77.48
187.436	118.44
187.655	48.81
187.875	34.47
188.095	-0.34
188.314	54.95
188.534	126.63
188.753	28.33
188.973	28.33
189.192	97.96
189.412	61.1
189.631	28.33
189.851	38.57
190.07	126.63
190.29	26.28
190.509	42.67
190.729	83.63
190.948	108.2
191.168	220.84
191.387	112.3
191.607	67.24
191.826	52.91
192.045	83.63
192.265	85.67
192.484	95.91
192.704	85.67
192.923	40.62
193.142	83.63
193.362	-6.49
193.581	57
193.8	118.44
194.02	136.87
194.239	11.95
194.458	77.48
194.678	5.8
194.897	81.58
195.116	32.43
195.335	36.52
195.555	120.49
195.774	85.67
195.993	50.86
196.212	52.91
196.432	67.24
196.651	44.71
196.87	16.04
197.089	91.82
197.308	-10.58
197.528	85.67
197.747	36.52
197.966	-26.96
198.185	116.39
198.404	24.23
198.623	89.77
198.842	69.29
199.062	93.87
199.281	36.52
199.5	3.75
199.719	91.82
199.938	95.91
200.157	106.15
200.376	67.24
200.595	48.81
200.814	-2.39
201.033	-67.92
201.252	77.48
201.471	28.33
201.69	116.39
201.909	40.62
202.128	50.86
202.347	11.95
202.566	93.87
202.785	20.14
203.004	13.99
203.223	114.34
203.442	7.85
203.661	22.19
203.879	67.24
204.098	110.25
204.317	32.43
204.536	40.62
204.755	81.58
204.974	69.29
205.193	69.29
205.411	116.39
205.63	79.53
205.849	85.67
206.068	-2.39
206.287	147.11
206.505	26.28
206.724	30.38
206.943	38.57
207.162	11.95
207.381	40.62
207.599	38.57
207.818	75.43
208.037	-22.87
208.255	28.33
208.474	69.29
208.693	77.48
208.911	28.33
209.13	20.14
209.349	183.98
209.567	30.38
209.786	93.87
210.005	57
210.223	57
210.442	-12.63
210.661	44.71
210.879	65.19
211.098	79.53
211.316	104.11
211.535	71.34
211.753	42.67
211.972	71.34
212.191	-10.58
212.409	7.85
212.628	7.85
212.846	28.33
213.065	79.53
213.283	28.33
213.502	52.91
213.72	120.49
213.938	67.24
214.157	24.23
214.375	114.34
214.594	-10.58
214.812	26.28
215.031	50.86
215.249	54.95
215.467	28.33
215.686	20.14
215.904	73.39
216.122	81.58
216.341	126.63
216.559	61.1
216.778	57
216.996	57
217.214	34.47
217.432	48.81
217.651	13.99
217.869	57
218.087	59.05
218.306	16.04
218.524	79.53
218.742	32.43
218.96	26.28
219.179	28.33
219.397	42.67
219.615	77.48
219.833	44.71
220.051	34.47
220.27	59.05
220.488	42.67
220.706	73.39
220.924	-22.87
221.142	89.77
221.36	132.78
221.578	38.57
221.796	24.23
222.015	-12.63
222.233	36.52
222.451	102.06
222.669	13.99
222.887	120.49
223.105	30.38
223.323	26.28
223.541	-8.53
223.759	63.15
223.977	79.53
224.195	104.11
224.413	11.95
224.631	89.77
224.849	18.09
225.067	63.15
225.285	46.76
225.503	57
225.721	-20.82
225.939	79.53
226.157	50.86
226.375	112.3
226.592	20.14
226.81	71.34
227.028	57
227.246	65.19
227.464	77.48
227.682	42.67
227.9	-22.87
228.117	87.72
228.335	44.71
228.553	-18.77
228.771	34.47
228.989	108.2
229.206	97.96
229.424	-16.73
229.642	16.04
229.86	-45.4
230.077	28.33
230.295	63.15
230.513	110.25
230.731	11.95
230.948	57
231.166	85.67
231.384	-57.68
231.601	18.09
231.819	106.15
232.037	30.38
232.254	24.23
232.472	63.15
232.689	63.15
232.907	83.63
233.125	67.24
233.342	77.48
233.56	28.33
233.777	75.43
233.995	24.23
234.213	54.95
234.43	65.19
234.648	-24.92
234.865	16.04
235.083	5.8
235.3	59.05
235.518	132.78
235.735	57
235.953	134.82
236.17	22.19
236.388	-35.16
236.605	95.91
236.822	118.44
237.04	85.67
237.257	-6.49
237.475	-18.77
237.692	-8.53
237.909	65.19
238.127	95.91
238.344	3.75
238.562	46.76
238.779	63.15
238.996	50.86
239.214	54.95
239.431	112.3
239.648	61.1
239.865	59.05
240.083	85.67
240.3	130.73
240.517	42.67
240.735	61.1
240.952	40.62
241.169	114.34
241.386	34.47
241.603	57
241.821	65.19
242.038	110.25
242.255	-29.01
242.472	73.39
242.689	54.95
242.907	114.34
243.124	44.71
243.341	61.1
243.558	-8.53
243.775	54.95
243.992	-33.11
244.209	132.78
244.426	100.01
244.643	118.44
244.86	38.57
245.078	95.91
245.295	-22.87
245.512	46.76
245.729	26.28
245.946	32.43
246.163	71.34
246.38	85.67
246.597	59.05
246.814	83.63
247.031	11.95
247.248	13.99
247.464	46.76
247.681	42.67
247.898	59.05
248.115	52.91
248.332	40.62
248.549	120.49
248.766	24.23
248.983	73.39
249.2	140.97
249.417	77.48
249.633	46.76
249.85	118.44
250.067	65.19
250.284	9.9
250.501	77.48
250.717	124.58
250.934	24.23
251.151	34.47
251.368	91.82
251.585	69.29
251.801	5.8
252.018	9.9
252.235	95.91
252.451	59.05
252.668	5.8
252.885	87.72
253.102	32.43
253.318	40.62
253.535	91.82
253.752	-33.11
253.968	20.14
254.185	28.33
254.401	69.29
254.618	89.77
254.835	22.19
255.051	102.06
255.268	116.39
255.484	42.67
255.701	11.95
255.917	16.04
256.134	50.86
256.351	48.81
256.567	65.19
256.784	38.57
257	-24.92
257.217	126.63
257.433	108.2
257.65	75.43
257.866	106.15
258.082	40.62
258.299	75.43
258.515	-10.58
258.732	1.71
258.948	1.71
259.165	57
259.381	38.57
259.597	38.57
259.814	52.91
260.03	-49.49
260.246	3.75
260.463	95.91
260.679	95.91
260.895	13.99
261.112	73.39
261.328	-37.2
261.544	5.8
261.761	173.74
261.977	44.71
262.193	-22.87
262.409	97.96
262.626	54.95
262.842	63.15
263.058	-8.53
263.274	38.57
263.49	36.52
263.707	38.57
263.923	40.62
264.139	-22.87
264.355	91.82
264.571	93.87
264.787	54.95
265.004	120.49
265.22	89.77
265.436	36.52
265.652	-18.77
265.868	79.53
266.084	11.95
266.3	95.91
266.516	-43.35
266.732	87.72
266.948	69.29
267.164	32.43
267.38	89.77
267.596	50.86
267.812	24.23
268.028	1.71
268.244	46.76
268.46	-6.49
268.676	3.75
268.892	38.57
269.108	67.24
269.324	-31.06
269.54	26.28
269.756	57
269.972	3.75
270.188	83.63
270.403	3.75
270.619	-65.88
270.835	85.67
271.051	57
271.267	-24.92
271.483	104.11
271.698	102.06
271.914	126.63
272.13	102.06
272.346	52.91
272.562	54.95
272.777	97.96
272.993	26.28
273.209	46.76
273.425	85.67
273.64	36.52
273.856	38.57
274.072	20.14
274.287	63.15
274.503	61.1
274.719	89.77
274.934	79.53
275.15	-18.77
275.366	63.15
275.581	-22.87
275.797	36.52
276.012	5.8
276.228	30.38
276.444	7.85
276.659	104.11
276.875	44.71
277.09	28.33
277.306	44.71
277.521	61.1
277.737	34.47
277.952	79.53
278.168	73.39
278.383	7.85
278.599	40.62
278.814	175.78
279.03	73.39
279.245	108.2
279.461	-0.34
279.676	52.91
279.892	28.33
280.107	34.47
280.322	52.91
280.538	22.19
280.753	52.91
280.969	97.96
281.184	34.47
281.399	61.1
281.615	67.24
281.83	-4.44
282.045	42.67
282.26	52.91
282.476	-14.68
282.691	118.44
282.906	85.67
283.122	36.52
283.337	9.9
283.552	5.8
283.767	-0.34
283.983	54.95
284.198	40.62
284.413	44.71
284.628	3.75
284.843	71.34
285.058	91.82
285.274	128.68
285.489	1.71
285.704	143.02
285.919	32.43
286.134	5.8
286.349	-18.77
286.564	20.14
286.779	120.49
286.995	32.43
287.21	-39.25
287.425	102.06
287.64	61.1
287.855	87.72
288.07	36.52
288.285	61.1
288.5	100.01
288.715	7.85
288.93	54.95
289.145	77.48
289.36	65.19
289.575	24.23
289.79	65.19
290.004	-18.77
290.219	54.95
290.434	61.1
290.649	110.25
290.864	22.19
291.079	75.43
291.294	50.86
291.509	97.96
291.724	3.75
291.938	50.86
292.153	5.8
292.368	28.33
292.583	61.1
292.798	46.76
293.012	-0.34
293.227	57
293.442	42.67
293.657	134.82
293.871	124.58
294.086	95.91
294.301	104.11
294.516	40.62
294.73	124.58
294.945	-10.58
295.16	110.25
295.374	79.53
295.589	130.73
295.804	50.86
296.018	71.34
296.233	38.57
296.447	75.43
296.662	30.38
296.877	77.48
297.091	102.06
297.306	36.52
297.52	54.95
297.735	61.1
297.949	85.67
298.164	67.24
298.378	30.38
298.593	-18.77
298.807	44.71
299.022	87.72
299.236	102.06
299.451	69.29
299.665	16.04
299.88	50.86
300.094	91.82
300.309	61.1
300.523	28.33
300.737	20.14
300.952	24.23
301.166	50.86
301.381	-24.92
301.595	97.96
301.809	85.67
302.024	-33.11
302.238	57
302.452	128.68
302.667	120.49
302.881	93.87
303.095	77.48
303.309	52.91
303.524	61.1
303.738	-47.44
303.952	18.09
304.166	85.67
304.381	-26.96
304.595	81.58
304.809	24.23
305.023	-12.63
305.237	77.48
305.452	52.91
305.666	44.71
305.88	81.58
306.094	77.48
306.308	50.86
306.522	65.19
306.736	106.15
306.95	77.48
307.164	-20.82
307.379	44.71
307.593	69.29
307.807	40.62
308.021	44.71
308.235	145.06
308.449	-35.16
308.663	34.47
308.877	130.73
309.091	30.38
309.305	61.1
309.519	30.38
309.733	50.86
309.947	28.33
310.161	106.15
310.374	128.68
310.588	97.96
310.802	95.91
311.016	36.52
311.23	54.95
311.444	85.67
311.658	100.01
311.872	138.92
312.085	108.2
312.299	59.05
312.513	91.82
312.727	32.43
312.941	16.04
313.154	95.91
313.368	13.99
313.582	81.58
313.796	93.87
314.009	-16.73
314.223	97.96
314.437	30.38
314.651	48.81
314.864	26.28
315.078	79.53
315.292	61.1
315.505	36.52
315.719	13.99
315.933	124.58
316.146	48.81
316.36	36.52
316.573	30.38
316.787	30.38
317.001	18.09
317.214	20.14
317.428	69.29
317.641	-4.44
317.855	24.23
318.068	28.33
318.282	52.91
318.495	126.63
318.709	124.58
318.922	-18.77
319.136	140.97
319.349	161.45
319.563	75.43
319.776	85.67
319.99	-35.16
320.203	95.91
320.417	3.75
320.63	108.2
320.843	44.71
321.057	59.05
321.27	-6.49
321.483	89.77
321.697	106.15
321.91	77.48
322.124	65.19
322.337	5.8
322.55	22.19
322.763	11.95
322.977	67.24
323.19	38.57
323.403	32.43
323.617	36.52
323.83	118.44
324.043	22.19
324.256	57
324.469	-43.35
324.683	61.1
324.896	38.57
325.109	132.78
325.322	1.71
325.535	112.3
325.748	116.39
325.962	18.09
326.175	63.15
326.388	81.58
326.601	83.63
326.814	18.09
327.027	34.47
327.24	110.25
327.453	18.09
327.666	77.48
327.879	71.34
328.092	46.76
328.305	108.2
328.518	38.57
328.731	32.43
328.944	-6.49
329.157	24.23
329.37	79.53
329.583	116.39
329.796	110.25
330.009	38.57
330.222	61.1
330.435	95.91
330.648	-12.63
330.861	26.28
331.073	38.57
331.286	1.71
331.499	57
331.712	77.48
331.925	95.91
332.138	104.11
332.35	83.63
332.563	48.81
332.776	79.53
332.989	65.19
333.202	97.96
333.414	69.29
333.627	-0.34
333.84	40.62
334.053	77.48
334.265	120.49
334.478	118.44
334.691	-31.06
334.903	16.04
335.116	9.9
335.329	81.58
335.541	30.38
335.754	120.49
335.966	59.05
336.179	57
336.392	24.23
336.604	32.43
336.817	20.14
337.029	91.82
337.242	-59.73
337.454	83.63
337.667	5.8
337.88	143.02
338.092	110.25
338.305	110.25
338.517	40.62
338.729	95.91
338.942	165.54
339.154	34.47
339.367	32.43
339.579	87.72
339.792	38.57
340.004	61.1
340.217	34.47
340.429	106.15
340.641	20.14
340.854	-26.96
341.066	52.91
341.278	114.34
341.491	93.87
341.703	159.4
341.915	-20.82
342.128	63.15
342.34	59.05
342.552	20.14
342.764	-49.49
342.977	75.43
343.189	63.15
343.401	75.43
343.613	26.28
343.826	81.58
344.038	9.9
344.25	110.25
344.462	44.71
344.674	87.72
344.886	-31.06
345.099	79.53
345.311	104.11
345.523	1.71
345.735	-35.16
345.947	102.06
346.159	85.67
346.371	104.11
346.583	40.62
346.795	108.2
347.007	13.99
347.219	59.05
347.431	13.99
347.643	100.01
347.855	-2.39
348.067	126.63
348.279	-8.53
348.491	110.25
348.703	124.58
348.915	61.1
349.127	63.15
349.339	5.8
349.551	9.9
349.763	75.43
349.975	95.91
350.187	108.2
350.399	79.53
350.61	85.67
350.822	77.48
351.034	118.44
351.246	54.95
351.458	97.96
351.669	112.3
351.881	102.06
352.093	71.34
352.305	50.86
352.517	38.57
352.728	69.29
352.94	50.86
353.152	93.87
353.363	54.95
353.575	110.25
353.787	112.3
353.999	83.63
354.21	110.25
354.422	42.67
354.633	71.34
354.845	40.62
355.057	87.72
355.268	61.1
355.48	114.34
355.692	71.34
355.903	87.72
356.115	73.39
356.326	22.19
356.538	91.82
356.749	71.34
356.961	54.95
357.172	30.38
357.384	32.43
357.595	161.45
357.807	-4.44
358.018	16.04
358.23	71.34
358.441	61.1
358.653	106.15
358.864	102.06
359.075	26.28
359.287	7.85
359.498	106.15
359.709	59.05
359.921	91.82
360.132	-47.44
360.344	57
360.555	71.34
360.766	149.16
360.977	22.19
361.189	85.67
361.4	134.82
361.611	106.15
361.823	48.81
362.034	147.11
362.245	1.71
362.456	38.57
362.667	122.54
362.879	-51.54
363.09	143.02
363.301	91.82
363.512	38.57
363.723	20.14
363.935	44.71
364.146	46.76
364.357	71.34
364.568	38.57
364.779	-47.44
364.99	91.82
365.201	38.57
365.412	120.49
365.623	-26.96
365.834	91.82
366.045	32.43
366.256	28.33
366.467	95.91
366.678	16.04
366.889	81.58
367.1	40.62
367.311	57
367.522	93.87
367.733	85.67
367.944	126.63
368.155	48.81
368.366	108.2
368.577	87.72
368.788	120.49
368.999	46.76
369.209	-2.39
369.42	104.11
369.631	83.63
369.842	46.76
370.053	63.15
370.264	-22.87
370.474	108.2
370.685	85.67
370.896	36.52
371.107	77.48
371.317	11.95
371.528	18.09
371.739	89.77
371.95	102.06
372.16	116.39
372.371	11.95
372.582	89.77
372.792	59.05
373.003	1.71
373.214	155.3
373.424	81.58
373.635	95.91
373.846	118.44
374.056	46.76
374.267	95.91
374.477	89.77
374.688	22.19
374.898	85.67
375.109	59.05
375.319	54.95
375.53	102.06
375.74	85.67
375.951	24.23
376.161	-10.58
376.372	73.39
376.582	34.47
376.793	87.72
377.003	16.04
377.214	77.48
377.424	134.82
377.635	77.48
377.845	30.38
378.055	126.63
378.266	22.19
378.476	97.96
378.686	120.49
378.897	93.87
379.107	116.39
379.317	87.72
379.528	77.48
379.738	93.87
379.948	48.81
380.158	102.06
380.369	28.33
380.579	108.2
380.789	65.19
380.999	93.87
381.21	65.19
381.42	175.78
381.63	79.53
381.84	48.81
382.05	120.49
382.261	153.26
382.471	93.87
382.681	71.34
382.891	138.92
383.101	50.86
383.311	-4.44
383.521	24.23
383.731	102.06
383.941	161.45
384.151	83.63
384.361	83.63
384.571	134.82
384.781	73.39
384.991	69.29
385.201	122.54
385.411	145.06
385.621	73.39
385.831	91.82
386.041	75.43
386.251	40.62
386.461	106.15
386.671	46.76
386.881	136.87
387.091	91.82
387.301	91.82
387.511	114.34
387.72	48.81
387.93	134.82
388.14	28.33
388.35	79.53
388.56	34.47
388.769	95.91
388.979	93.87
389.189	26.28
389.399	81.58
389.609	79.53
389.818	69.29
390.028	106.15
390.238	161.45
390.447	91.82
390.657	71.34
390.867	28.33
391.076	104.11
391.286	85.67
391.496	28.33
391.705	34.47
391.915	120.49
392.125	183.98
392.334	48.81
392.544	67.24
392.753	40.62
392.963	77.48
393.172	16.04
393.382	85.67
393.591	83.63
393.801	11.95
394.01	130.73
394.22	132.78
394.429	87.72
394.639	108.2
394.848	118.44
395.058	120.49
395.267	26.28
395.477	149.16
395.686	106.15
395.895	194.22
396.105	151.21
396.314	100.01
396.524	149.16
396.733	67.24
396.942	136.87
397.152	97.96
397.361	169.64
397.57	100.01
397.78	108.2
397.989	177.83
398.198	200.36
398.407	67.24
398.617	32.43
398.826	106.15
399.035	91.82
399.244	149.16
399.453	140.97
399.663	159.4
399.872	118.44
400.081	122.54
400.29	157.35
400.499	52.91
400.708	130.73
400.917	63.15
401.127	44.71
401.336	128.68
401.545	280.23
401.754	67.24
401.963	169.64
402.172	122.54
402.381	102.06
402.59	97.96
402.799	138.92
403.008	91.82
403.217	145.06
403.426	171.69
403.635	153.26
403.844	118.44
404.053	104.11
404.262	40.62
404.471	183.98
404.68	132.78
404.888	161.45
405.097	108.2
405.306	183.98
405.515	163.5
405.724	132.78
405.933	124.58
406.142	249.51
406.35	208.55
406.559	165.54
406.768	140.97
406.977	198.31
407.185	229.03
407.394	206.5
407.603	161.45
407.812	192.17
408.02	233.13
408.229	241.32
408.438	257.7
408.646	192.17
408.855	276.13
409.064	196.26
409.272	274.09
409.481	407.2
409.69	165.54
409.898	310.95
410.107	241.32
410.315	335.53
410.524	245.41
410.733	304.81
410.941	384.68
411.15	390.82
411.358	325.29
411.567	405.16
411.775	337.57
411.984	341.67
412.192	468.64
412.401	439.97
412.609	431.78
412.818	558.75
413.026	614.05
413.234	497.32
413.443	493.22
413.651	472.74
413.86	558.75
414.068	601.76
414.276	599.71
414.485	558.75
414.693	609.95
414.901	663.2
415.11	698.02
415.318	636.58
415.526	650.91
415.734	732.83
415.943	708.26
416.151	759.46
416.359	822.94
416.567	822.94
416.776	859.81
416.984	894.62
417.192	890.53
417.4	927.39
417.608	908.96
417.817	984.73
418.025	1015.45
418.233	1099.42
418.441	1009.31
418.649	1126.04
418.857	1160.86
419.065	1242.78
419.273	1167
419.481	1175.19
419.689	1345.17
419.897	1320.6
420.105	1402.52
420.313	1353.37
420.521	1529.49
420.729	1539.73
420.937	1541.78
421.145	1570.45
421.353	1652.37
421.561	1695.38
421.769	1799.82
421.977	1928.85
422.185	1986.19
422.393	1988.24
422.601	2139.79
422.809	2111.11
423.017	2172.55
423.224	2293.38
423.432	2201.23
423.64	2373.25
423.848	2526.85
424.056	2528.9
424.263	2725.51
424.471	2709.12
424.679	2780.8
424.887	2727.55
425.094	2821.76
425.302	3014.27
425.51	3100.28
425.718	3196.54
425.925	3083.9
426.133	3300.98
426.341	3528.31
426.548	3593.84
426.756	3659.38
426.964	3632.76
427.171	3931.76
427.379	3935.85
427.586	4058.73
427.794	4216.43
428.001	4413.03
428.209	4537.96
428.417	4580.96
428.624	4822.63
428.832	4843.1
429.039	4802.15
429.247	4787.81
429.454	5248.6
429.662	5537.37
429.869	5367.38
430.076	5408.34
430.284	5645.91
430.491	5703.25
430.699	5963.34
430.906	6069.84
431.114	6092.37
431.321	6471.24
431.528	6446.66
431.736	6780.48
431.943	7089.73
432.15	7011.9
432.358	7005.76
432.565	7444.03
432.772	7439.93
432.979	7841.33
433.187	7951.92
433.394	8066.61
433.601	8474.15
433.808	8517.16
434.016	8427.05
434.223	8871.46
434.43	9274.91
434.637	9309.72
434.844	9670.17
435.052	9858.58
435.259	9934.36
435.466	10069.52
435.673	9983.51
435.88	10597.9
436.087	11095.55
436.294	10954.24
436.501	10806.79
436.708	11212.29
436.915	11394.56
437.122	11920.88
437.329	11976.18
437.537	12555.76
437.743	12279.28
437.95	12404.21
438.157	12885.48
438.364	13637.08
438.571	13530.59
438.778	13440.48
438.985	14806.47
439.192	14292.43
439.399	14693.83
439.606	14274
439.813	15140.29
440.02	16113.08
440.227	15756.73
440.433	15844.79
440.64	16166.32
440.847	15922.62
441.054	16483.76
441.261	17649.05
441.467	17493.41
441.674	17851.8
441.881	18548.11
442.088	18150.81
442.294	18083.22
442.501	18812.3
442.708	19029.38
442.914	19635.58
443.121	20571.5
443.328	20071.8
443.534	21474.66
443.741	21075.31
443.948	20761.97
444.154	22228.31
444.361	22371.67
444.568	22291.8
444.774	22252.89
444.981	22574.42
445.187	22961.48
445.394	23967.04
445.6	23924.03
445.807	26357.02
446.013	24939.82
446.22	25115.95
446.426	26371.35
446.633	26756.37
446.839	27637
447.046	26281.24
447.252	27956.48
447.459	27800.83
447.665	28056.83
447.871	29230.32
448.078	30192.86
448.284	28761.33
448.491	29727.97
448.697	30844.12
448.903	31595.72
449.11	31435.98
449.316	30852.31
449.522	31425.74
449.728	32011.46
449.935	32677.05
450.141	32386.24
450.347	33182.9
450.553	32357.56
450.76	32851.13
450.966	33854.63
451.172	33408.17
451.378	34270.37
451.584	33559.72
451.791	34114.72
451.997	34018.47
452.203	34944.15
452.409	34618.52
452.615	34286.75
452.821	33678.5
453.027	32951.48
453.233	34661.53
453.44	33295.53
453.646	34049.19
453.852	34000.04
454.058	34409.63
454.264	33324.21
454.47	34247.84
454.676	33074.35
454.882	34509.98
455.088	31257.81
455.294	31851.72
455.5	32050.37
455.705	32476.35
455.911	31157.46
456.117	30598.36
456.323	30360.8
456.529	28845.3
456.735	29766.88
456.941	28886.26
457.147	28921.07
457.352	27487.5
457.558	27381
457.764	27297.03
457.97	26959.12
458.176	26506.52
458.381	26352.92
458.587	24778.03
458.793	24995.12
458.999	23567.68
459.204	25238.83
459.41	24851.76
459.616	23207.24
459.821	22981.96
460.027	22875.47
460.233	22572.37
460.438	21427.56
460.644	21570.91
460.85	20624.75
461.055	20254.07
461.261	20360.56
461.466	18658.7
461.672	18138.52
461.878	19187.08
462.083	18259.35
462.289	18132.37
462.494	17890.71
462.7	16803.24
462.905	16295.35
463.111	16905.64
463.316	16874.92
463.522	16496.05
463.727	16879.02
463.932	16575.92
464.138	16577.97
464.343	16903.59
464.549	16176.56
464.754	16430.51
464.959	16500.14
465.165	16663.98
465.37	15728.06
465.575	15162.82
465.781	15836.6
465.986	15979.96
466.191	15384
466.397	15087.04
466.602	14554.57
466.807	15015.37
467.012	14900.68
467.218	14988.74
467.423	14435.79
467.628	14695.88
467.833	15371.71
468.038	14734.79
468.244	14327.25
468.449	14931.4
468.654	14329.3
468.859	14452.17
469.064	14200.27
469.269	13735.39
469.474	13995.48
469.679	14185.94
469.885	13727.19
470.09	13911.51
470.295	13757.91
470.5	13579.74
470.705	13751.77
470.91	13231.58
471.115	13170.15
471.32	13401.57
471.525	13424.09
471.73	12977.64
471.935	12893.67
472.139	12338.67
472.344	12619.24
472.549	12469.74
472.754	12293.62
472.959	12021.24
473.164	11757.05
473.369	11636.22
473.574	12004.85
473.778	12008.95
473.983	11918.84
474.188	12002.8
474.393	11042.31
474.598	11286.01
474.802	11005.44
475.007	10984.96
475.212	11177.47
475.417	10755.59
475.621	10690.06
475.826	10608.14
476.031	10419.72
476.235	10145.3
476.44	10700.3
476.645	10257.93
476.849	10325.52
477.054	10122.77
477.259	9893.4
477.463	10130.96
477.668	9840.15
477.872	9868.82
478.077	9764.37
478.282	9530.91
478.486	9496.09
478.691	9360.92
478.895	9293.34
479.1	9629.21
479.304	9422.36
479.509	9025.06
479.713	9172.51
479.918	8955.43
480.122	8738.34
480.326	8830.5
480.531	9154.08
480.735	8588.84
480.94	8875.56
481.144	9135.65
481.348	8543.78
481.553	8781.35
481.757	8515.11
481.961	8637.99
482.166	8902.18
482.37	8742.44
482.574	8599.08
482.778	8615.46
482.983	8775.2
483.187	8545.83
483.391	8623.66
483.595	8627.75
483.8	8416.81
484.004	8656.42
484.208	8767.01
484.412	8523.3
484.616	8420.91
484.821	8627.75
485.025	8465.96
485.229	8779.3
485.433	8562.22
485.637	8789.54
485.841	8511.02
486.045	8619.56
486.249	8398.38
486.453	8525.35
486.657	8511.02
486.861	8767.01
487.065	8584.74
487.269	8668.71
487.473	8381.99
487.677	8531.5
487.881	8738.34
488.085	8709.67
488.289	8642.09
488.493	8662.57
488.697	8640.04
488.901	8582.7
489.105	8590.89
489.309	8676.9
489.512	8685.09
489.716	8693.29
489.92	9033.25
490.124	8769.06
490.328	9182.75
490.531	8824.36
490.735	8736.29
490.939	8834.6
491.143	8850.98
491.346	8855.08
491.55	9129.5
491.754	8945.19
491.958	9219.61
492.161	9020.96
492.365	9137.7
492.569	9115.17
492.772	9141.79
492.976	9229.85
493.18	9289.24
493.383	9340.44
493.587	9428.51
493.79	9453.08
493.994	9399.84
494.197	9358.88
494.401	9776.66
494.605	9756.18
494.808	9821.72
495.012	9883.16
495.215	9950.74
495.419	9829.91
495.622	9823.76
495.825	10104.34
496.029	10167.82
496.232	10219.02
496.436	10227.21
496.639	10503.69
496.843	10311.18
497.046	10819.08
497.249	10765.83
497.453	10855.94
497.656	10708.49
497.859	10923.52
498.063	11068.93
498.266	11367.93
498.469	11222.53
498.673	11113.99
498.876	11339.26
499.079	11644.41
499.282	11656.7
499.485	11998.71
499.689	12170.74
499.892	12029.43
500.095	12248.56
500.298	12418.54
500.501	12375.53
500.705	12754.41
500.908	12764.65
501.111	13032.93
501.314	13151.71
501.517	13272.54
501.72	13614.55
501.923	13356.51
502.126	13698.52
502.329	14058.96
502.532	14167.51
502.735	14147.03
502.938	14390.74
503.141	14652.88
503.344	14683.59
503.547	14720.46
503.75	15017.41
503.953	15289.79
504.156	15353.28
504.359	15420.86
504.562	15484.35
504.765	16213.43
504.968	16170.42
505.17	16362.93
505.373	16174.52
505.576	16557.49
505.779	16647.6
505.982	16686.51
506.185	17235.36
506.387	17108.39
506.59	17419.68
506.793	17956.25
506.996	17798.56
507.198	18365.84
507.401	18011.54
507.604	18357.65
507.807	18726.28
508.009	19021.19
508.212	19004.81
508.415	19410.31
508.617	19262.85
508.82	19783.04
509.022	19492.23
509.225	20172.15
509.428	20297.08
509.63	20290.93
509.833	20587.89
510.035	20821.36
510.238	20706.67
510.44	21138.79
510.643	21542.24
510.845	21812.57
511.048	21577.06
511.25	22281.56
511.453	22345.05
511.655	23276.87
511.858	22738.26
512.06	23100.75
512.262	23383.37
512.465	23235.91
512.667	23940.41
512.87	24112.44
513.072	24032.57
513.274	24761.65
513.477	24472.89
513.679	25085.23
513.881	25457.96
514.084	25722.15
514.286	25365.8
514.488	25910.56
514.69	26545.43
514.893	26918.16
515.095	26694.93
515.297	27184.4
515.499	27153.68
515.701	27485.45
515.904	27671.81
516.106	28079.36
516.308	28701.94
516.51	28865.78
516.712	29148.4
516.914	29234.41
517.116	29822.18
517.318	29799.65
517.52	30010.59
517.722	30301.4
517.925	30842.07
518.127	30895.32
518.329	31386.83
518.531	30923.99
518.733	31952.07
518.935	32347.33
519.136	32105.66
519.338	32591.03
519.54	33186.99
519.742	33416.36
519.944	33557.67
520.146	33997.99
520.348	34163.87
520.55	34423.97
520.752	34127.01
520.954	34985.11
521.155	35310.74
521.357	35503.24
521.559	35773.58
521.761	36560
521.963	36258.95
522.164	36424.83
522.366	36859
522.568	37172.34
522.77	37393.52
522.971	38151.27
523.173	37624.94
523.375	38016.1
523.576	38360.16
523.778	38550.62
523.98	39079
524.181	39070.81
524.383	39324.75
524.584	39822.41
524.786	39685.2
524.988	39664.72
525.189	40512.58
525.391	40453.19
525.592	40645.69
525.794	40922.17
525.995	40973.37
526.197	41131.06
526.398	41284.66
526.6	41974.83
526.801	41739.31
527.003	42325.03
527.204	42173.48
527.406	42638.37
527.607	42765.34
527.808	42851.36
528.01	42224.68
528.211	42677.28
528.412	43869.2
528.614	43342.87
528.815	43387.92
529.016	43897.87
529.218	43308.05
529.419	44008.46
529.62	43662.35
529.822	43693.07
530.023	44065.8
530.224	43799.57
530.425	44329.99
530.626	43562
530.828	43744.27
531.029	44774.4
531.23	44352.52
531.431	44637.19
531.632	44469.25
531.833	44604.42
532.035	44817.41
532.236	44928
532.437	45296.63
532.638	44469.25
532.839	45409.27
533.04	45345.78
533.241	45050.88
533.442	45364.21
533.643	45140.99
533.844	45345.78
534.045	45513.72
534.246	45425.65
534.447	45728.75
534.648	45054.97
534.849	45433.85
535.05	45411.32
535.251	45566.96
535.451	45204.47
535.652	45792.24
535.853	45550.58
536.054	45917.17
536.255	45802.48
536.456	45478.9
536.657	45878.25
536.857	45509.62
537.058	45515.76
537.259	45679.6
537.46	45646.83
537.66	45849.58
537.861	45358.07
538.062	45609.97
538.263	45870.06
538.463	45339.64
538.664	45841.39
538.865	45802.48
539.065	45888.49
539.266	45444.09
539.466	45751.28
539.667	45083.64
539.868	45736.94
540.068	45411.32
540.269	45231.1
540.469	45759.47
540.67	45366.26
540.87	45134.84
541.071	45571.06
541.271	45712.37
541.472	45388.79
541.672	45616.11
541.873	45118.46
542.073	44608.51
542.274	45573.11
542.474	45263.86
542.675	45083.64
542.875	45810.67
543.075	45247.48
543.276	44788.74
543.476	45716.47
543.676	45575.16
543.877	45560.82
544.077	45589.49
544.277	45409.27
544.478	45181.95
544.678	45376.5
544.878	45419.51
545.078	45472.76
545.279	44798.98
545.479	45222.9
545.679	45450.23
545.879	45110.27
546.079	45085.69
546.28	45286.39
546.48	44743.68
546.68	45159.42
546.88	45566.96
547.08	45108.22
547.28	45470.71
547.48	44792.83
547.68	45153.27
547.88	44772.35
548.081	45329.4
548.281	44938.24
548.481	45044.73
548.681	45509.62
548.881	45360.12
549.081	44870.65
549.28	44770.3
549.48	45243.38
549.68	44993.53
549.88	45788.14
550.08	44952.57
550.28	45042.68
550.48	44643.33
550.68	45282.3
550.88	44868.61
551.08	44827.65
551.279	45007.87
551.479	45003.77
551.679	44905.47
551.879	44559.36
552.079	44985.34
552.278	44993.53
552.478	45208.57
552.678	44848.13
552.878	45439.99
553.077	44846.08
553.277	44170.25
553.477	45100.03
553.676	44217.35
553.876	44495.88
554.076	44624.9
554.275	44817.41
554.475	43734.03
554.674	44436.48
554.874	45220.86
555.074	44090.38
555.273	44899.33
555.473	44643.33
555.672	44078.09
555.872	44250.12
556.071	44323.85
556.271	44379.14
556.47	44012.56
556.67	44008.46
556.869	44053.51
557.068	44456.96
557.268	43916.3
557.467	43734.03
557.667	43854.86
557.866	43914.25
558.065	43525.14
558.265	43562
558.464	43142.17
558.663	43717.65
558.863	43289.62
559.062	43891.72
559.261	43275.29
559.461	43756.56
559.66	43080.73
559.859	42908.7
560.058	42681.38
560.258	43123.74
560.457	42425.38
560.656	43000.86
560.855	42810.4
561.054	42978.33
561.253	42288.17
561.453	42636.32
561.652	42597.41
561.851	42273.83
562.05	42353.7
562.249	41985.07
562.448	42101.8
562.647	42253.35
562.846	42062.89
563.045	42011.69
563.244	41907.24
563.443	41747.5
563.642	41315.38
563.841	41339.96
564.04	41348.15
564.239	41897
564.438	41307.19
564.637	40946.75
564.836	41370.68
565.035	40940.6
565.234	40959.03
565.432	41012.28
565.631	40776.76
565.83	40571.97
566.029	40651.84
566.228	40537.15
566.427	40541.25
566.625	40014.92
566.824	39814.22
567.023	39935.05
567.222	38849.63
567.42	40184.9
567.619	39765.07
567.818	39562.32
568.016	39683.15
568.215	39806.03
568.414	39281.75
568.612	39355.47
568.811	38833.24
569.01	39165.01
569.208	38505.57
569.407	38874.2
569.605	38405.22
569.804	38745.18
570.002	38237.28
570.201	38519.9
570.4	38014.05
570.598	37923.94
570.797	37647.47
570.995	37741.67
571.193	37467.25
571.392	37661.8
571.59	37710.96
571.789	37561.45
571.987	37071.99
572.186	36895.86
572.384	37002.36
572.582	36975.73
572.781	36951.16
572.979	35976.33
573.177	36961.4
573.376	36560
573.574	36404.35
573.772	36523.13
573.971	36328.58
574.169	35458.19
574.367	35740.81
574.565	36041.86
574.763	35550.35
574.962	35808.39
575.16	34997.4
575.358	35517.58
575.556	35218.58
575.754	35296.4
575.952	34843.8
576.151	35493.01
576.349	34847.89
576.547	34489.5
576.745	34731.16
576.943	34806.94
577.141	34270.37
577.339	34284.7
577.537	34036.9
577.735	34102.43
577.933	33717.42
578.131	34167.97
578.329	33903.78
578.527	33907.88
578.725	33473.71
578.923	33617.07
579.121	33442.99
579.319	33156.27
579.516	33361.07
579.714	33258.67
579.912	33334.45
580.11	32828.6
580.308	32771.25
580.506	32834.74
580.704	32705.72
580.901	32781.49
581.099	32779.45
581.297	32216.26
581.495	32427.2
581.692	32259.26
581.89	31861.96
582.088	32038.08
582.285	31859.91
582.483	32017.6
582.681	31737.03
582.878	31821
583.076	31323.34
583.274	31544.52
583.471	31395.02
583.669	31544.52
583.866	30790.87
584.064	31204.56
584.262	31171.79
584.459	31014.1
584.657	30424.28
584.854	30778.58
585.052	30266.59
585.249	30891.22
585.447	30610.65
585.644	30143.71
585.841	30485.72
586.039	30371.04
586.236	29883.62
586.434	29863.14
586.631	29809.89
586.828	29471.98
587.026	29775.08
587.223	29615.33
587.42	29502.7
587.618	29760.74
587.815	29261.04
588.012	29183.21
588.21	28959.98
588.407	29525.22
588.604	28818.67
588.801	28779.76
588.999	28755.19
589.196	28552.44
589.393	28587.25
589.59	28564.73
589.787	28636.41
589.984	28583.16
590.182	27884.8
590.379	28527.86
590.576	28038.4
590.773	27895.04
590.97	27890.95
591.167	27970.82
591.364	27534.6
591.561	27733.25
591.758	27258.12
591.955	27620.61
592.152	27563.27
592.349	27184.4
592.546	27467.02
592.743	27088.14
592.94	26590.48
593.137	26993.93
593.334	27215.12
593.531	26680.6
593.727	26918.16
593.924	26934.54
594.121	26602.77
594.318	26813.71
594.515	25791.78
594.712	26518.81
594.908	26527
595.105	26340.63
595.302	26123.55
595.499	26195.23
595.696	26389.78
595.892	26088.73
596.089	26027.29
596.286	25640.23
596.482	25992.48
596.679	25730.34
596.876	25521.45
597.072	25640.23
597.269	25445.67
597.466	25304.36
597.662	25019.69
597.859	25009.45
598.055	25167.15
598.252	24995.12
598.448	25111.85
598.645	25031.98
598.841	24505.65
599.038	24823.09
599.234	24618.29
599.431	24263.99
599.627	24350.01
599.824	24343.86
600.02	24065.34
600.217	24403.25
600.413	24536.37
600.609	23813.44
600.806	23823.68
601.002	24038.72
601.198	23602.5
601.395	23698.75
601.591	23661.89
601.787	23817.54
601.984	23821.63
602.18	23649.6
602.376	23516.48
602.572	23139.66
602.769	23270.73
602.965	22895.95
603.161	23029.07
603.357	23106.89
603.553	23414.09
603.75	22621.52
603.946	22652.24
604.142	22842.7
604.338	22648.15
604.534	22605.14
604.73	22617.43
604.926	22324.57
605.122	22351.19
605.318	21998.94
605.514	22293.85
605.71	22076.76
605.906	22168.92
606.102	21597.54
606.298	22111.58
606.494	21828.96
606.69	21902.68
606.886	21816.67
607.082	21902.68
607.278	21697.89
607.474	21603.68
607.67	21607.78
607.866	21396.84
608.062	21503.33
608.257	21595.49
608.453	21620.06
608.649	21331.3
608.845	21042.54
609.041	21075.31
609.236	21263.72
609.432	20931.95
609.628	21106.02
609.824	20852.08
610.019	20723.05
610.215	20944.24
610.411	20671.86
610.606	20698.48
610.802	20804.97
610.998	20475.25
611.193	20290.93
611.389	20516.21
611.584	20481.39
611.78	20194.68
611.976	20221.3
612.171	20544.88
612.367	20426.1
612.562	20249.97
612.758	19981.69
612.953	20100.47
613.149	20385.14
613.344	19842.43
613.539	20393.33
613.735	20163.96
613.93	20239.73
614.126	19772.8
614.321	20086.14
614.517	19821.95
614.712	19901.82
614.907	19785.08
615.103	19961.21
615.298	19754.37
615.493	19953.02
615.688	19250.56
615.884	19801.47
616.079	19479.94
616.274	19504.51
616.47	19178.89
616.665	19252.61
616.86	19154.31
617.055	19150.21
617.25	19133.83
617.445	19369.35
617.641	18892.17
617.836	19111.3
618.031	18654.61
618.226	19178.89
618.421	18773.39
618.616	19035.53
618.811	18718.09
619.006	18675.09
619.201	18335.12
619.396	18709.9
619.591	17792.41
619.786	18478.48
619.981	18226.58
620.176	18292.12
620.371	18089.37
620.566	18163.09
620.761	18011.54
620.956	18118.04
621.151	17698.2
621.346	17999.26
621.541	17575.33
621.735	17579.42
621.93	17364.39
622.125	17270.18
622.32	16895.4
622.515	17053.09
622.709	16971.18
622.904	17253.8
623.099	16842.15
623.294	17051.05
623.488	16590.25
623.683	16795.05
623.878	16647.6
624.072	16721.32
624.267	16387.5
624.462	16350.64
624.656	16186.8
624.851	16448.94
625.046	16027.06
625.24	16061.88
625.435	15715.77
625.629	15932.86
625.824	15707.58
626.018	15568.32
626.213	15363.52
626.407	15338.94
626.602	15322.56
626.796	15123.91
626.991	15162.82
627.185	15289.79
627.38	15154.63
627.574	14917.06
627.768	14826.95
627.963	14628.3
628.157	14785.99
628.352	14570.96
628.546	14394.83
628.74	14753.23
628.935	14458.32
629.129	14226.9
629.323	14276.05
629.517	14247.38
629.712	14179.79
629.906	14114.26
630.1	13802.97
630.294	13952.47
630.489	13784.54
630.683	13817.3
630.877	13452.77
631.071	13489.63
631.265	13538.78
631.459	13653.47
631.653	13272.54
631.848	13489.63
632.042	13323.74
632.236	13313.5
632.43	13118.95
632.624	13200.87
632.818	12975.59
633.012	12959.2
633.206	12922.34
633.4	12707.3
633.594	12619.24
633.788	12910.05
633.982	12744.17
634.176	12522.99
634.369	12424.69
634.563	12336.62
634.757	12215.79
634.951	12148.21
635.145	12324.33
635.339	12262.9
635.533	12021.24
635.726	12060.15
635.92	12002.8
636.114	11785.72
636.308	11976.18
636.501	11695.61
636.695	11826.68
636.889	11628.03
637.083	11374.08
637.276	11384.32
637.47	11357.69
637.664	11423.23
637.857	11177.47
638.051	11173.38
638.244	11251.2
638.438	11122.18
638.632	11001.35
638.825	10987.01
639.019	10931.72
639.212	10966.53
639.406	10835.46
639.599	10995.2
639.793	10892.8
639.986	10497.55
640.18	10724.87
640.373	10444.3
640.567	10419.72
640.76	10464.78
640.954	10155.54
641.147	10098.19
641.34	10124.82
641.534	10071.57
641.727	10153.49
641.92	10198.54
642.114	9948.69
642.307	9952.79
642.5	9784.85
642.694	9733.65
642.887	9670.17
643.08	9680.41
643.273	9750.04
643.467	9750.04
643.66	9555.48
643.853	9514.52
644.046	9369.12
644.239	9260.57
644.432	9383.45
644.626	9207.33
644.819	9379.36
645.012	9254.43
645.205	9096.74
645.398	9184.8
645.591	8920.61
645.784	8922.66
645.977	8697.38
646.17	8850.98
646.363	8828.45
646.556	8762.92
646.749	8744.49
646.942	8830.5
647.135	8672.81
647.328	8781.35
647.521	8584.74
647.714	8400.43
647.907	8662.57
648.099	8298.03
648.292	8369.71
648.485	8386.09
648.678	8306.22
648.871	8463.91
649.064	8150.57
649.256	8322.6
649.449	8021.55
649.642	8126
649.835	7984.69
650.027	8054.32
650.22	7913.01
650.413	7886.39
650.605	7806.52
650.798	7763.51
650.991	7657.01
651.183	7710.26
651.376	7747.12
651.568	7661.11
651.761	7683.64
651.954	7532.09
652.146	7607.86
652.339	7431.74
652.531	7530.04
652.724	7417.4
652.916	7392.83
653.109	7349.82
653.301	7323.19
653.494	7407.16
653.686	7089.73
653.879	7200.32
654.071	7132.73
654.263	7071.29
654.456	6938.18
654.648	7298.62
654.84	6895.17
655.033	6866.5
655.225	6870.59
655.417	6841.92
655.61	6878.79
655.802	6968.9
655.994	6766.15
656.186	6686.28
656.379	6823.49
656.571	6741.57
656.763	6596.17
656.955	6587.97
657.148	6729.28
657.34	6747.72
657.532	6649.41
657.724	6516.3
657.916	6479.43
658.108	6465.1
658.3	6516.3
658.492	6426.18
658.684	6174.28
658.876	6334.03
659.068	6282.83
659.26	6307.4
659.452	6155.85
659.644	6178.38
659.836	6053.45
660.028	6145.61
660.22	5955.15
660.412	6014.54
660.604	6067.79
660.796	5953.1
660.988	5879.38
661.18	5901.9
661.372	5834.32
661.563	5867.09
661.755	5830.23
661.947	5801.55
662.139	5738.07
662.331	5811.79
662.522	5576.28
662.714	5537.37
662.906	5539.41
663.097	5807.7
663.289	5592.66
663.481	5549.65
663.673	5588.57
663.864	5557.85
664.056	5434.97
664.247	5412.44
664.439	5281.37
664.631	5254.75
664.822	5443.16
665.014	5504.6
665.205	5262.94
665.397	5363.29
665.588	5310.04
665.78	5326.43
665.971	5410.39
666.163	5344.86
666.354	5226.07
666.546	5187.16
666.737	5078.62
666.929	5260.89
667.12	5123.68
667.311	5199.45
667.503	5052
667.694	5049.95
667.885	5068.38
668.077	5097.05
668.268	4906.59
668.459	5131.87
668.651	5092.96
668.842	4873.82
669.033	5064.29
669.224	4925.02
669.416	5047.9
669.607	4896.35
669.798	4877.92
669.989	4988.51
670.18	4882.02
670.371	4953.7
670.563	4763.23
670.754	4783.71
670.945	4812.39
671.136	4816.48
671.327	4744.8
671.518	4839.01
671.709	4916.83
671.9	4810.34
672.091	4757.09
672.282	4798.05
672.473	4644.45
672.664	4810.34
672.855	4636.26
673.046	4621.92
673.237	4638.31
673.428	4603.49
673.619	4671.08
673.809	4611.68
674	4662.88
674.191	4744.8
674.382	4576.87
674.573	4617.83
674.764	4697.7
674.954	4576.87
675.145	4421.22
675.336	4716.13
675.527	4609.64
675.717	4542.05
675.908	4546.15
676.099	4478.57
676.289	4443.75
676.48	4552.29
676.671	4476.52
676.861	4601.44
677.052	4546.15
677.243	4476.52
677.433	4486.76
677.624	4560.49
677.814	4546.15
678.005	4548.2
678.195	4535.91
678.386	4433.51
678.576	4427.37
678.767	4437.61
678.957	4384.36
679.148	4630.12
679.338	4544.1
679.529	4517.48
679.719	4476.52
679.909	4499.05
680.1	4437.61
680.29	4437.61
680.481	4273.77
680.671	4638.31
680.861	4408.94
681.052	4443.75
681.242	4443.75
681.432	4460.13
681.622	4511.33
681.813	4458.09
682.003	4374.12
682.193	4458.09
682.383	4451.94
682.573	4460.13
682.764	4460.13
682.954	4617.83
683.144	4392.55
683.334	4509.29
683.524	4453.99
683.714	4523.62
683.904	4298.35
684.094	4550.25
684.284	4560.49
684.474	4636.26
684.664	4410.98
684.854	4281.96
685.044	4566.63
685.234	4441.7
685.424	4421.22
685.614	4402.79
685.804	4318.82
685.994	4374.12
686.184	4347.5
686.374	4341.35
686.564	4277.87
686.753	4376.17
686.943	4298.35
687.133	4247.15
687.323	4165.23
687.513	4296.3
687.702	4042.35
687.892	4140.65
688.082	4273.77
688.272	4281.96
688.461	4105.84
688.651	4109.93
688.841	4200.04
689.03	4175.47
689.22	3989.1
689.41	4161.13
689.599	3970.67
689.789	4091.5
689.979	3968.62
690.168	4136.56
690.358	4023.92
690.547	3962.48
690.737	3901.04
690.926	3985.01
691.116	3935.85
691.305	3903.09
691.495	3804.78
691.684	3835.5
691.874	3937.9
692.063	3913.33
692.252	3774.07
692.442	3749.49
692.631	3690.1
692.82	3825.26
693.01	3688.05
693.199	3659.38
693.388	3599.99
693.578	3747.44
693.767	3665.52
693.956	3741.3
694.146	3712.63
694.335	3561.08
694.524	3597.94
694.713	3608.18
694.902	3643
695.092	3788.4
695.281	3653.23
695.47	3620.47
695.659	3616.37
695.848	3511.93
696.037	3622.52
696.226	3550.84
696.415	3487.35
696.604	3436.15
696.793	3583.6
696.982	3507.83
697.171	3579.51
697.36	3694.19
697.549	3405.43
697.738	3368.57
697.927	3481.21
698.116	3526.26
698.305	3495.54
698.494	3520.12
698.683	3567.22
698.872	3581.56
699.061	3436.15
699.25	3475.06
699.438	3405.43
699.627	3409.53
699.816	3624.56
700.005	3405.43
700.193	3495.54
700.382	3460.73
700.571	3511.93
700.76	3530.36
700.948	3495.54
701.137	3348.09
701.326	3417.72
701.514	3466.87
701.703	3559.03
701.892	3352.18
702.08	3495.54
702.269	3362.42
702.457	3352.18
702.646	3454.58
702.834	3346.04
703.023	3313.27
703.212	3491.45
703.4	3337.85
703.589	3456.63
703.777	3559.03
703.965	3454.58
704.154	3389.05
704.342	3475.06
704.531	3374.71
704.719	3350.14
704.907	3487.35
705.096	3391.09
705.284	3466.87
705.472	3419.77
705.661	3532.4
705.849	3487.35
706.037	3466.87
706.226	3458.68
706.414	3460.73
706.602	3331.7
706.79	3559.03
706.979	3432.05
707.167	3440.25
707.355	3516.02
707.543	3561.08
707.731	3456.63
707.919	3427.96
708.107	3413.62
708.296	3579.51
708.484	3409.53
708.672	3425.91
708.86	3436.15
709.048	3458.68
709.236	3421.81
709.424	3454.58
709.612	3602.04
709.8	3350.14
709.988	3415.67
710.176	3468.92
710.364	3464.82
710.551	3448.44
710.739	3399.29
710.927	3509.88
711.115	3540.6
711.303	3522.16
711.491	3448.44
711.679	3546.74
711.866	3452.53
712.054	3589.75
712.242	3511.93
712.43	3571.32
712.617	3475.06
712.805	3534.45
712.993	3518.07
713.181	3579.51
713.368	3589.75
713.556	3618.42
713.744	3563.12
713.931	3688.05
714.119	3567.22
714.306	3552.88
714.494	3536.5
714.682	3669.62
714.869	3518.07
715.057	3511.93
715.244	3460.73
715.432	3561.08
715.619	3542.64
715.807	3597.94
715.994	3602.04
716.182	3665.52
716.369	3690.1
716.556	3587.7
716.744	3466.87
716.931	3671.67
717.119	3743.35
717.306	3614.32
717.493	3622.52
717.681	3798.64
717.868	3618.42
718.055	3655.28
718.242	3694.19
718.43	3677.81
718.617	3683.95
718.804	3659.38
718.991	3698.29
719.179	3655.28
719.366	3692.15
719.553	3745.39
719.74	3669.62
719.927	3761.78
720.114	3737.2
720.301	3653.23
720.488	3792.5
720.676	3587.7
720.863	3792.5
721.05	3794.54
721.237	3749.49
721.424	3870.32
721.611	3753.59
721.798	3595.89
721.985	3690.1
722.172	3739.25
722.358	3696.24
722.545	3745.39
722.732	3780.21
722.919	3786.35
723.106	3858.03
723.293	3855.98
723.48	3763.83
723.667	3870.32
723.853	3716.72
724.04	3942
724.227	3855.98
724.414	3878.51
724.6	3716.72
724.787	3835.5
724.974	3890.8
725.161	3985.01
725.347	3714.67
725.534	3931.76
725.72	3989.1
725.907	3833.46
726.094	3942
726.28	3860.08
726.467	3745.39
726.653	3835.5
726.84	4046.44
727.027	3915.37
727.213	3872.37
727.4	3972.72
727.586	3890.8
727.773	3804.78
727.959	4009.58
728.145	3788.4
728.332	3853.94
728.518	3952.24
728.705	4021.87
728.891	3985.01
729.077	3870.32
729.264	3948.14
729.45	3978.86
729.636	4032.11
729.823	3960.43
730.009	3960.43
730.195	3960.43
730.382	4040.3
730.568	3821.17
730.754	4023.92
730.94	3915.37
731.126	4150.89
731.313	4105.84
731.499	3939.95
731.685	3978.86
731.871	4054.64
732.057	4038.25
732.243	4081.26
732.429	4167.28
732.615	4032.11
732.801	4157.04
732.987	3935.85
733.173	4023.92
733.359	4122.22
733.545	4105.84
733.731	4015.73
733.917	4034.16
734.103	4075.12
734.289	4144.75
734.475	4060.78
734.661	4109.93
734.847	4042.35
735.033	4046.44
735.219	4032.11
735.404	4073.07
735.59	3896.94
735.776	4109.93
735.962	4120.17
736.148	4054.64
736.333	4048.49
736.519	3927.66
736.705	3999.34
736.89	4038.25
737.076	3987.05
737.262	4185.71
737.447	4064.88
737.633	4068.97
737.819	4093.55
738.004	3995.25
738.19	4044.4
738.375	4103.79
738.561	4142.7
738.747	3939.95
738.932	4099.69
739.118	4068.97
739.303	4009.58
739.489	3993.2
739.674	3931.76
739.859	3886.7
740.045	4011.63
740.23	4001.39
740.416	3960.43
740.601	4009.58
740.786	4015.73
740.972	3968.62
741.157	3958.38
741.342	3972.72
741.528	3841.65
741.713	4040.3
741.898	3851.89
742.084	4009.58
742.269	3933.81
742.454	3862.13
742.639	3892.85
742.824	3874.42
743.01	3942
743.195	3769.97
743.38	3937.9
743.565	3786.35
743.75	3892.85
743.935	3765.87
744.12	3896.94
744.305	3810.93
744.49	3718.77
744.675	3872.37
744.86	3630.71
745.045	3659.38
745.23	3821.17
745.415	3743.35
745.6	3753.59
745.785	3743.35
745.97	3739.25
746.155	3706.48
746.34	3649.14
746.525	3485.3
746.71	3571.32
746.895	3434.1
747.079	3479.16
747.264	3479.16
747.449	3448.44
747.634	3337.85
747.819	3585.65
748.003	3540.6
748.188	3384.95
748.373	3374.71
748.557	3389.05
748.742	3442.29
748.927	3380.86
749.111	3346.04
749.296	3278.46
749.481	3192.44
749.665	3335.8
749.85	3180.15
750.034	3339.9
750.219	3217.02
750.404	2989.69
750.588	3303.03
750.773	3057.28
750.957	3174.01
751.141	3239.55
751.326	3174.01
751.51	3098.24
751.695	3141.24
751.879	3094.14
752.064	3030.65
752.248	3049.08
752.432	3192.44
752.617	2940.54
752.801	2856.58
752.985	2915.97
753.17	2995.84
753.354	2840.19
753.538	2961.02
753.722	2983.55
753.907	2805.38
754.091	2889.34
754.275	2836.1
754.459	2795.14
754.643	2766.46
754.828	2745.98
755.012	2700.93
755.196	2522.76
755.38	2719.36
755.564	2651.78
755.748	2715.27
755.932	2651.78
756.116	2510.47
756.3	2596.48
756.484	2619.01
756.668	2690.69
756.852	2492.04
757.036	2692.74
757.22	2584.2
757.404	2453.13
757.588	2485.89
757.772	2508.42
757.956	2553.48
758.14	2520.71
758.323	2387.59
758.507	2387.59
758.691	2512.52
758.875	2346.63
759.059	2281.1
759.242	2307.72
759.426	2352.77
759.61	2332.3
759.794	2356.87
759.977	2297.48
760.161	2352.77
760.345	2236.04
760.528	2356.87
760.712	2203.27
760.895	2186.89
761.079	2119.31
761.263	2131.59
761.446	2102.92
761.63	2223.75
761.813	2236.04
761.997	2061.96
762.18	2111.11
762.364	2090.63
762.547	2074.25
762.731	2129.55
762.914	1994.38
763.098	2045.58
763.281	2176.65
763.464	2055.82
763.648	2096.78
763.831	2012.81
764.015	2078.35
764.198	1959.56
764.381	1937.04
764.564	2008.72
764.748	2037.39
764.931	1996.43
765.114	2025.1
765.297	2018.96
765.481	1965.71
765.664	2008.72
765.847	1904.27
766.03	1941.13
766.213	1838.73
766.397	1992.33
766.58	1871.5
766.763	1775.25
766.946	1885.84
767.129	1980.04
767.312	1865.36
767.495	1875.6
767.678	1824.4
767.861	1738.38
768.044	1691.28
768.227	1773.2
768.41	1760.91
768.593	1814.16
768.776	1873.55
768.959	1824.4
769.142	1857.17
769.324	1773.2
769.507	1822.35
769.69	1709.71
769.873	1730.19
770.056	1797.78
770.239	1707.66
770.421	1771.15
770.604	1666.71
770.787	1691.28
770.97	1693.33
771.152	1601.17
771.335	1683.09
771.518	1590.93
771.7	1668.75
771.883	1617.55
772.066	1603.22
772.248	1726.1
772.431	1609.36
772.613	1543.83
772.796	1511.06
772.978	1613.46
773.161	1621.65
773.343	1537.68
773.526	1484.44
773.708	1445.52
773.891	1480.34
774.073	1453.72
774.256	1447.57
774.438	1615.51
774.621	1443.48
774.803	1459.86
774.985	1400.47
775.168	1388.18
775.35	1388.18
775.532	1453.72
775.715	1349.27
775.897	1488.53
776.079	1408.66
776.261	1365.65
776.444	1404.57
776.626	1408.66
776.808	1236.63
776.99	1265.3
777.173	1244.82
777.355	1289.88
777.537	1345.17
777.719	1300.12
777.901	1203.86
778.083	1248.92
778.265	1117.85
778.447	1330.84
778.629	1232.54
778.811	1250.97
778.993	1232.54
779.175	1298.07
779.357	1224.34
779.539	1134.23
779.721	1062.55
779.903	1214.1
780.085	1132.19
780.267	1085.08
780.449	1128.09
780.631	1017.5
780.812	1158.81
780.994	1146.52
781.176	1160.86
781.358	1007.26
781.54	1033.88
781.721	1054.36
781.903	1132.19
782.085	958.11
782.267	1160.86
782.448	1001.12
782.63	988.83
782.812	1015.45
782.993	994.97
783.175	990.88
783.357	929.44
783.538	1029.79
783.72	923.29
783.901	978.59
784.083	931.48
784.264	939.68
784.446	964.25
784.627	894.62
784.809	927.39
784.99	990.88
785.172	956.06
785.353	962.2
785.535	915.1
785.716	868
785.897	878.24
786.079	863.9
786.26	876.19
786.441	904.86
786.623	849.57
786.804	718.5
786.985	857.76
787.167	786.08
787.348	861.85
787.529	804.51
787.71	857.76
787.891	808.61
788.073	767.65
788.254	822.94
788.435	706.21
788.616	714.4
788.797	741.02
788.978	736.93
789.159	784.03
789.34	736.93
789.522	691.87
789.703	669.34
789.884	753.31
790.065	708.26
790.246	728.74
790.427	609.95
790.607	747.17
790.788	708.26
790.969	741.02
791.15	761.5
791.331	663.2
791.512	681.63
791.693	587.43
791.874	630.43
792.054	663.2
792.235	691.87
792.416	548.51
792.597	550.56
792.778	630.43
792.958	663.2
793.139	636.58
793.32	521.89
793.5	607.91
793.681	698.02
793.862	571.04
794.042	599.71
794.223	534.18
794.404	599.71
794.584	577.19
794.765	599.71
794.945	581.28
795.126	577.19
795.306	607.91
795.487	548.51
795.667	609.95
795.848	609.95
796.028	497.32
796.209	546.47
796.389	624.29
796.57	530.08
796.75	599.71
796.93	523.94
797.111	558.75
797.291	530.08
797.471	612
797.652	562.85
797.832	505.51
798.012	595.62
798.192	497.32
798.373	442.02
798.553	480.93
798.733	523.94
798.913	470.69
799.093	562.85
799.274	474.79
799.454	509.6
799.634	548.51
799.814	538.27
799.994	444.07
800.174	499.36
800.354	456.36
800.534	462.5
800.714	489.12
800.894	513.7
801.074	403.11
801.254	472.74
801.434	489.12
801.614	411.3
801.794	431.78
801.974	1193.62
802.154	458.4
802.334	482.98
802.514	442.02
802.693	429.73
802.873	470.69
803.053	534.18
803.233	362.15
803.413	403.11
803.592	380.58
803.772	480.93
803.952	437.92
804.131	374.44
804.311	442.02
804.491	435.88
804.67	480.93
804.85	442.02
805.03	523.94
805.209	368.29
805.389	394.92
805.568	372.39
805.748	358.05
805.928	374.44
806.107	433.83
806.287	382.63
806.466	409.25
806.646	323.24
806.825	384.68
807.004	347.81
807.184	308.9
807.363	390.82
807.543	374.44
807.722	349.86
807.901	460.45
808.081	380.58
808.26	343.72
808.439	425.64
808.619	366.25
808.798	304.81
808.977	333.48
809.156	317.09
809.336	296.61
809.515	353.96
809.694	366.25
809.873	366.25
810.052	386.72
810.231	351.91
810.411	306.85
810.59	372.39
810.769	378.53
810.948	331.43
811.127	286.37
811.306	296.61
811.485	288.42
811.664	423.59
811.843	384.68
812.022	335.53
812.201	267.94
812.38	315.05
812.559	251.56
812.737	394.92
812.916	226.98
813.095	315.05
813.274	280.23
813.453	276.13
813.632	321.19
813.811	306.85
813.989	298.66
814.168	284.33
814.347	302.76
814.526	237.22
814.704	329.38
814.883	327.33
815.062	208.55
815.24	267.94
815.419	247.46
815.598	233.13
815.776	218.79
815.955	241.32
816.133	226.98
816.312	313
816.49	298.66
816.669	288.42
816.847	204.46
817.026	255.65
817.204	210.6
817.383	310.95
817.561	284.33
817.74	276.13
817.918	267.94
818.097	286.37
818.275	263.85
818.453	224.94
818.632	315.05
818.81	358.05
818.988	226.98
819.167	280.23
819.345	278.18
819.523	278.18
819.701	153.26
819.879	171.69
820.058	247.46
820.236	280.23
820.414	226.98
820.592	265.89
820.77	251.56
820.948	259.75
821.127	233.13
821.305	241.32
821.483	118.44
821.661	315.05
821.839	171.69
822.017	208.55
822.195	222.89
822.373	306.85
822.551	224.94
822.729	222.89
822.907	200.36
823.085	218.79
823.262	198.31
823.44	218.79
823.618	177.83
823.796	159.4
823.974	196.26
824.152	218.79
824.329	224.94
824.507	235.18
824.685	231.08
824.863	216.74
825.04	278.18
825.218	229.03
825.396	204.46
825.574	151.21
825.751	102.06
825.929	177.83
826.107	214.7
826.284	126.63
826.462	183.98
826.639	181.93
826.817	255.65
826.994	188.07
827.172	177.83
827.349	218.79
827.527	190.12
827.704	173.74
827.882	239.27
828.059	200.36
828.237	181.93
828.414	220.84
828.591	126.63
828.769	169.64
828.946	138.92
829.124	300.71
829.301	190.12
829.478	243.37
829.655	214.7
829.833	79.53
830.01	112.3
830.187	110.25
830.364	173.74
830.542	226.98
830.719	177.83
830.896	153.26
831.073	143.02
831.25	208.55
831.427	186.02
831.604	190.12
831.782	237.22
831.959	204.46
832.136	188.07
832.313	155.3
832.49	186.02
832.667	220.84
832.844	151.21
833.021	206.5
833.198	134.82
833.374	272.04
833.551	181.93
833.728	206.5
833.905	214.7
834.082	175.78
834.259	155.3
834.436	179.88
834.612	136.87
834.789	200.36
834.966	151.21
835.143	196.26
835.319	128.68
835.496	214.7
835.673	138.92
835.85	126.63
836.026	183.98
836.203	153.26
836.38	112.3
836.556	136.87
836.733	116.39
836.909	186.02
837.086	145.06
837.262	114.34
837.439	145.06
837.616	54.95
837.792	81.58
837.968	161.45
838.145	169.64
838.321	40.62
838.498	102.06
838.674	147.11
838.851	169.64
839.027	112.3
839.203	73.39
839.38	214.7
839.556	157.35
839.732	175.78
839.909	116.39
840.085	147.11
840.261	140.97
840.437	126.63
840.614	128.68
840.79	192.17
840.966	91.82
841.142	140.97
841.318	106.15
841.494	138.92
841.671	130.73
841.847	54.95
842.023	67.24
842.199	128.68
842.375	140.97
842.551	110.25
842.727	91.82
842.903	95.91
843.079	95.91
843.255	143.02
843.431	165.54
843.607	102.06
843.783	61.1
843.959	140.97
844.134	108.2
844.31	173.74
844.486	63.15
844.662	-0.34
844.838	81.58
845.013	126.63
845.189	126.63
845.365	65.19
845.541	112.3
845.716	7.85
845.892	163.5
846.068	165.54
846.244	48.81
846.419	104.11
846.595	69.29
846.77	95.91
846.946	122.54
847.122	3.75
847.297	85.67
847.473	175.78
847.648	67.24
847.824	75.43
847.999	40.62
848.175	36.52
848.35	50.86
848.526	173.74
848.701	120.49
848.876	89.77
849.052	114.34
849.227	106.15
849.403	59.05
849.578	-8.53
849.753	34.47
849.929	61.1
850.104	-12.63
850.279	77.48
850.454	149.16
850.63	159.4
850.805	63.15
850.98	59.05
851.155	26.28
851.33	97.96
851.505	34.47
851.681	81.58
851.856	26.28
852.031	77.48
852.206	140.97
852.381	42.67
852.556	114.34
852.731	140.97
852.906	128.68
853.081	50.86
853.256	132.78
853.431	77.48
853.606	-16.73
853.781	11.95
853.956	-22.87
854.131	147.11
854.305	9.9
854.48	100.01
854.655	126.63
854.83	54.95
855.005	54.95
855.18	30.38
855.354	130.73
855.529	106.15
855.704	36.52
855.879	40.62
856.053	5.8
856.228	108.2
856.403	11.95
856.577	102.06
856.752	128.68
856.926	46.76
857.101	34.47
857.276	18.09
857.45	50.86
857.625	112.3
857.799	54.95
857.974	63.15
858.148	40.62
858.323	153.26
858.497	30.38
858.672	36.52
858.846	22.19
859.02	3.75
859.195	95.91
859.369	20.14
859.543	28.33
859.718	30.38
859.892	91.82
860.066	46.76
860.241	48.81
860.415	34.47
860.589	93.87
860.763	61.1
860.938	85.67
861.112	104.11
861.286	67.24
861.46	36.52
861.634	-4.44
861.808	36.52
861.982	71.34
862.157	13.99
862.331	40.62
862.505	-0.34
862.679	48.81
862.853	59.05
863.027	11.95
863.201	102.06
863.375	97.96
863.549	132.78
863.722	20.14
863.896	67.24
864.07	-2.39
864.244	46.76
864.418	36.52
864.592	-4.44
864.766	32.43
864.939	79.53
865.113	34.47
865.287	38.57
865.461	1.71
865.634	134.82
865.808	100.01
865.982	61.1
866.156	63.15
866.329	48.81
866.503	89.77
866.676	102.06
866.85	61.1
867.024	20.14
867.197	7.85
867.371	7.85
867.544	30.38
867.718	24.23
867.891	108.2
868.065	-12.63
868.238	52.91
868.412	102.06
868.585	9.9
868.759	18.09
868.932	44.71
869.105	-2.39
869.279	13.99
869.452	26.28
869.625	130.73
869.799	11.95
869.972	-16.73
870.145	77.48
870.319	67.24
870.492	-49.49
870.665	106.15
870.838	7.85
871.011	61.1
871.185	-4.44
871.358	36.52
871.531	-22.87
871.704	-33.11
871.877	5.8
872.05	24.23
872.223	48.81
872.396	34.47
872.569	73.39
872.742	5.8
872.915	-6.49
873.088	73.39
873.261	44.71
873.434	81.58
873.607	46.76
873.78	11.95
873.953	7.85
874.126	57
874.299	61.1
874.471	63.15
874.644	85.67
874.817	-29.01
874.99	118.44
875.163	34.47
875.335	18.09
875.508	20.14
875.681	79.53
875.853	7.85
876.026	79.53
876.199	36.52
876.371	116.39
876.544	-6.49
876.717	40.62
876.889	50.86
877.062	5.8
877.234	77.48
877.407	11.95
877.579	48.81
877.752	9.9
877.924	71.34
878.097	9.9
878.269	134.82
878.442	7.85
878.614	-4.44
878.786	40.62
878.959	-53.59
879.131	85.67
879.303	26.28
879.476	13.99
879.648	83.63
879.82	18.09
879.993	-12.63
880.165	-33.11
880.337	9.9
880.509	44.71
880.681	9.9
880.854	18.09
881.026	61.1
881.198	91.82
881.37	36.52
881.542	1.71
881.714	18.09
881.886	-16.73
882.058	1.71
882.23	173.74
882.402	-2.39
882.574	69.29
882.746	1.71
882.918	159.4
883.09	20.14
883.262	38.57
883.434	-0.34
883.606	-2.39
883.778	-18.77
883.95	57
884.122	26.28
884.293	44.71
884.465	16.04
884.637	42.67
884.809	-61.78
884.98	26.28
885.152	28.33
885.324	24.23
885.496	-2.39
885.667	44.71
885.839	22.19
886.011	108.2
886.182	11.95
886.354	81.58
886.525	30.38
886.697	-37.2
886.869	1.71
887.04	-67.92
887.212	59.05
887.383	91.82
887.555	13.99
887.726	40.62
887.897	42.67
888.069	69.29
888.24	1.71
888.412	73.39
888.583	42.67
888.754	54.95
888.926	16.04
889.097	-10.58
889.268	-20.82
889.44	-2.39
889.611	-4.44
889.782	26.28
889.953	16.04
890.125	83.63
890.296	-26.96
890.467	-2.39
890.638	36.52
890.809	9.9
890.98	-4.44
891.151	106.15
891.323	34.47
891.494	69.29
891.665	-61.78
891.836	18.09
892.007	18.09
892.178	73.39
892.349	42.67
892.52	1.71
892.691	-20.82
892.862	18.09
893.032	-43.35
893.203	32.43
893.374	-16.73
893.545	54.95
893.716	83.63
893.887	61.1
894.057	-4.44
894.228	3.75
894.399	28.33
894.57	13.99
894.74	-14.68
894.911	16.04
895.082	67.24
895.253	11.95
895.423	7.85
895.594	81.58
895.764	75.43
895.935	-2.39
896.106	32.43
896.276	34.47
896.447	1.71
896.617	-22.87
896.788	-12.63
896.958	38.57
897.129	-20.82
897.299	13.99
897.47	87.72
897.64	-0.34
897.81	5.8
897.981	54.95
898.151	28.33
898.322	-0.34
898.492	57
898.662	28.33
898.832	-45.4
899.003	3.75
899.173	-18.77
899.343	36.52
899.513	-80.21
