Data from USB4F104151__21__12-23-32-246.txt Node

Date: Fri Mar 14 12:23:32 EDT 2025
User: louis
Spectrometer: USB4F10415
Trigger mode: 4
Integration Time (sec): 3.500000E-2
Scans to average: 1
Electric dark correction enabled: true
Nonlinearity correction enabled: false
Boxcar width: 0
XAxis mode: Wavelengths
Number of Pixels in Spectrum: 3648
>>>>>Begin Spectral Data<<<<<
178.204	-161.11
178.424	-161.11
178.644	-161.11
178.864	-120.15
179.084	-144.72
179.304	-36.18
179.524	-93.52
179.744	-60.76
179.964	55.98
180.184	19.11
180.404	2.73
180.624	0.68
180.844	35.5
181.064	-34.13
181.283	31.4
181.503	33.45
181.723	45.74
181.943	8.87
182.163	62.12
182.383	60.07
182.602	70.31
182.822	6.83
183.042	96.94
183.262	-23.89
183.482	25.26
183.701	101.03
183.921	78.51
184.141	21.16
184.361	47.79
184.58	8.87
184.8	78.51
185.02	-9.56
185.239	111.27
185.459	27.31
185.679	62.12
185.898	-36.18
186.118	19.11
186.338	92.84
186.557	64.17
186.777	-25.94
186.997	60.07
187.216	53.93
187.436	6.83
187.655	35.5
187.875	43.69
188.095	45.74
188.314	86.7
188.534	80.55
188.753	23.21
188.973	15.02
189.192	12.97
189.412	31.4
189.631	78.51
189.851	17.07
190.07	49.83
190.29	4.78
190.509	60.07
190.729	45.74
190.948	53.93
191.168	197.29
191.387	58.03
191.607	-58.71
191.826	92.84
192.045	-13.65
192.265	-19.8
192.484	10.92
192.704	-9.56
192.923	21.16
193.142	103.08
193.362	31.4
193.581	8.87
193.8	111.27
194.02	25.26
194.239	23.21
194.458	31.4
194.678	12.97
194.897	19.11
195.116	33.45
195.335	-44.37
195.555	62.12
195.774	49.83
195.993	109.22
196.212	64.17
196.432	2.73
196.651	47.79
196.87	53.93
197.089	82.6
197.308	-25.94
197.528	29.35
197.747	-3.41
197.966	-15.7
198.185	70.31
198.404	21.16
198.623	70.31
198.842	41.64
199.062	21.16
199.281	127.66
199.5	31.4
199.719	76.46
199.938	-27.99
200.157	62.12
200.376	17.07
200.595	101.03
200.814	96.94
201.033	55.98
201.252	109.22
201.471	-44.37
201.69	64.17
201.909	19.11
202.128	107.18
202.347	76.46
202.566	0.68
202.785	0.68
203.004	-17.75
203.223	80.55
203.442	-32.08
203.661	72.36
203.879	90.79
204.098	27.31
204.317	-107.86
204.536	27.31
204.755	66.22
204.974	-21.85
205.193	25.26
205.411	86.7
205.63	49.83
205.849	74.41
206.068	41.64
206.287	-15.7
206.505	45.74
206.724	47.79
206.943	33.45
207.162	6.83
207.381	17.07
207.599	68.27
207.818	-23.89
208.037	41.64
208.255	-11.61
208.474	17.07
208.693	109.22
208.911	33.45
209.13	21.16
209.349	68.27
209.567	72.36
209.786	76.46
210.005	84.65
210.223	-40.28
210.442	0.68
210.661	39.59
210.879	45.74
211.098	94.89
211.316	2.73
211.535	45.74
211.753	43.69
211.972	74.41
212.191	12.97
212.409	4.78
212.628	21.16
212.846	-44.37
213.065	-13.65
213.283	31.4
213.502	66.22
213.72	-36.18
213.938	-25.94
214.157	72.36
214.375	51.88
214.594	-36.18
214.812	51.88
215.031	43.69
215.249	60.07
215.467	4.78
215.686	15.02
215.904	53.93
216.122	15.02
216.341	113.32
216.559	154.28
216.778	60.07
216.996	23.21
217.214	33.45
217.432	-32.08
217.651	-38.23
217.869	43.69
218.087	82.6
218.306	-13.65
218.524	55.98
218.742	49.83
218.96	109.22
219.179	53.93
219.397	31.4
219.615	148.14
219.833	98.99
220.051	4.78
220.27	41.64
220.488	-9.56
220.706	-19.8
220.924	23.21
221.142	0.68
221.36	45.74
221.578	0.68
221.796	12.97
222.015	19.11
222.233	27.31
222.451	68.27
222.669	66.22
222.887	86.7
223.105	4.78
223.323	15.02
223.541	37.55
223.759	64.17
223.977	29.35
224.195	115.37
224.413	41.64
224.631	66.22
224.849	43.69
225.067	55.98
225.285	-15.7
225.503	29.35
225.721	-13.65
225.939	80.55
226.157	-7.51
226.375	135.85
226.592	-38.23
226.81	-15.7
227.028	84.65
227.246	115.37
227.464	21.16
227.682	58.03
227.9	92.84
228.117	-60.76
228.335	-7.51
228.553	64.17
228.771	-21.85
228.989	31.4
229.206	60.07
229.424	-23.89
229.642	74.41
229.86	2.73
230.077	31.4
230.295	45.74
230.513	76.46
230.731	23.21
230.948	90.79
231.166	76.46
231.384	0.68
231.601	47.79
231.819	121.51
232.037	35.5
232.254	-3.41
232.472	88.75
232.689	17.07
232.907	109.22
233.125	-30.04
233.342	109.22
233.56	-13.65
233.777	70.31
233.995	29.35
234.213	137.9
234.43	-3.41
234.648	-1.37
234.865	58.03
235.083	49.83
235.3	29.35
235.518	-7.51
235.735	92.84
235.953	55.98
236.17	51.88
236.388	64.17
236.605	-21.85
236.822	60.07
237.04	31.4
237.257	94.89
237.475	53.93
237.692	4.78
237.909	101.03
238.127	31.4
238.344	39.59
238.562	33.45
238.779	31.4
238.996	43.69
239.214	6.83
239.431	113.32
239.648	12.97
239.865	53.93
240.083	-17.75
240.3	113.32
240.517	45.74
240.735	92.84
240.952	117.42
241.169	88.75
241.386	29.35
241.603	37.55
241.821	19.11
242.038	74.41
242.255	98.99
242.472	33.45
242.689	53.93
242.907	35.5
243.124	70.31
243.341	72.36
243.558	-1.37
243.775	-60.76
243.992	-36.18
244.209	17.07
244.426	41.64
244.643	70.31
244.86	21.16
245.078	-13.65
245.295	12.97
245.512	12.97
245.729	-32.08
245.946	72.36
246.163	-9.56
246.38	29.35
246.597	-34.13
246.814	103.08
247.031	-17.75
247.248	72.36
247.464	66.22
247.681	31.4
247.898	88.75
248.115	45.74
248.332	-50.52
248.549	68.27
248.766	137.9
248.983	12.97
249.2	33.45
249.417	45.74
249.633	64.17
249.85	-3.41
250.067	27.31
250.284	29.35
250.501	82.6
250.717	64.17
250.934	98.99
251.151	37.55
251.368	10.92
251.585	98.99
251.801	2.73
252.018	2.73
252.235	109.22
252.451	-36.18
252.668	33.45
252.885	60.07
253.102	60.07
253.318	68.27
253.535	27.31
253.752	10.92
253.968	43.69
254.185	-27.99
254.401	25.26
254.618	123.56
254.835	6.83
255.051	109.22
255.268	94.89
255.484	125.61
255.701	33.45
255.917	53.93
256.134	27.31
256.351	25.26
256.567	-56.66
256.784	66.22
257	4.78
257.217	51.88
257.433	76.46
257.65	25.26
257.866	27.31
258.082	51.88
258.299	29.35
258.515	49.83
258.732	90.79
258.948	62.12
259.165	33.45
259.381	0.68
259.597	84.65
259.814	29.35
260.03	37.55
260.246	96.94
260.463	109.22
260.679	39.59
260.895	103.08
261.112	35.5
261.328	-7.51
261.544	8.87
261.761	103.08
261.977	17.07
262.193	55.98
262.409	45.74
262.626	15.02
262.842	101.03
263.058	-21.85
263.274	33.45
263.49	15.02
263.707	51.88
263.923	23.21
264.139	39.59
264.355	53.93
264.571	49.83
264.787	125.61
265.004	0.68
265.22	37.55
265.436	49.83
265.652	6.83
265.868	66.22
266.084	74.41
266.3	-66.9
266.516	-13.65
266.732	105.13
266.948	39.59
267.164	-30.04
267.38	15.02
267.596	84.65
267.812	51.88
268.028	98.99
268.244	-11.61
268.46	-19.8
268.676	19.11
268.892	6.83
269.108	66.22
269.324	-13.65
269.54	55.98
269.756	62.12
269.972	15.02
270.188	23.21
270.403	6.83
270.619	39.59
270.835	19.11
271.051	17.07
271.267	29.35
271.483	60.07
271.698	88.75
271.914	78.51
272.13	21.16
272.346	-21.85
272.562	-3.41
272.777	8.87
272.993	-32.08
273.209	66.22
273.425	84.65
273.64	15.02
273.856	86.7
274.072	15.02
274.287	39.59
274.503	62.12
274.719	-9.56
274.934	2.73
275.15	43.69
275.366	47.79
275.581	-34.13
275.797	0.68
276.012	23.21
276.228	10.92
276.444	27.31
276.659	82.6
276.875	68.27
277.09	92.84
277.306	51.88
277.521	70.31
277.737	-11.61
277.952	17.07
278.168	-48.47
278.383	74.41
278.599	23.21
278.814	37.55
279.03	43.69
279.245	55.98
279.461	39.59
279.676	55.98
279.892	-32.08
280.107	0.68
280.322	-3.41
280.538	90.79
280.753	-30.04
280.969	47.79
281.184	-11.61
281.399	62.12
281.615	-13.65
281.83	-5.46
282.045	-9.56
282.26	-9.56
282.476	43.69
282.691	25.26
282.906	8.87
283.122	101.03
283.337	39.59
283.552	58.03
283.767	37.55
283.983	72.36
284.198	23.21
284.413	37.55
284.628	31.4
284.843	53.93
285.058	74.41
285.274	37.55
285.489	15.02
285.704	78.51
285.919	19.11
286.134	-9.56
286.349	53.93
286.564	6.83
286.779	51.88
286.995	58.03
287.21	10.92
287.425	72.36
287.64	62.12
287.855	6.83
288.07	-13.65
288.285	127.66
288.5	70.31
288.715	121.51
288.93	80.55
289.145	49.83
289.36	51.88
289.575	60.07
289.79	127.66
290.004	29.35
290.219	51.88
290.434	62.12
290.649	68.27
290.864	41.64
291.079	66.22
291.294	-7.51
291.509	25.26
291.724	82.6
291.938	10.92
292.153	33.45
292.368	-17.75
292.583	64.17
292.798	45.74
293.012	90.79
293.227	12.97
293.442	66.22
293.657	62.12
293.871	45.74
294.086	127.66
294.301	82.6
294.516	105.13
294.73	101.03
294.945	21.16
295.16	60.07
295.374	6.83
295.589	66.22
295.804	-46.42
296.018	41.64
296.233	103.08
296.447	55.98
296.662	-17.75
296.877	-3.41
297.091	109.22
297.306	105.13
297.52	-40.28
297.735	29.35
297.949	66.22
298.164	76.46
298.378	66.22
298.593	45.74
298.807	80.55
299.022	37.55
299.236	92.84
299.451	25.26
299.665	25.26
299.88	17.07
300.094	55.98
300.309	23.21
300.523	62.12
300.737	31.4
300.952	66.22
301.166	19.11
301.381	4.78
301.595	17.07
301.809	64.17
302.024	43.69
302.238	37.55
302.452	94.89
302.667	78.51
302.881	49.83
303.095	88.75
303.309	62.12
303.524	17.07
303.738	74.41
303.952	-3.41
304.166	86.7
304.381	-75.09
304.595	80.55
304.809	12.97
305.023	39.59
305.237	43.69
305.452	2.73
305.666	94.89
305.88	144.04
306.094	76.46
306.308	-1.37
306.522	103.08
306.736	55.98
306.95	101.03
307.164	-25.94
307.379	12.97
307.593	70.31
307.807	-23.89
308.021	131.75
308.235	43.69
308.449	-60.76
308.663	55.98
308.877	123.56
309.091	21.16
309.305	37.55
309.519	2.73
309.733	29.35
309.947	6.83
310.161	62.12
310.374	10.92
310.588	103.08
310.802	-54.61
311.016	37.55
311.23	27.31
311.444	45.74
311.658	33.45
311.872	-9.56
312.085	-13.65
312.299	23.21
312.513	62.12
312.727	49.83
312.941	15.02
313.154	101.03
313.368	21.16
313.582	19.11
313.796	64.17
314.009	72.36
314.223	84.65
314.437	88.75
314.651	64.17
314.864	21.16
315.078	37.55
315.292	35.5
315.505	80.55
315.719	84.65
315.933	23.21
316.146	4.78
316.36	64.17
316.573	117.42
316.787	105.13
317.001	76.46
317.214	23.21
317.428	92.84
317.641	-19.8
317.855	35.5
318.068	23.21
318.282	72.36
318.495	131.75
318.709	25.26
318.922	31.4
319.136	66.22
319.349	88.75
319.563	29.35
319.776	55.98
319.99	10.92
320.203	113.32
320.417	2.73
320.63	125.61
320.843	78.51
321.057	31.4
321.27	58.03
321.483	154.28
321.697	51.88
321.91	109.22
322.124	62.12
322.337	78.51
322.55	70.31
322.763	105.13
322.977	94.89
323.19	39.59
323.403	29.35
323.617	72.36
323.83	45.74
324.043	53.93
324.256	-27.99
324.469	6.83
324.683	121.51
324.896	-46.42
325.109	-44.37
325.322	-36.18
325.535	53.93
325.748	37.55
325.962	60.07
326.175	19.11
326.388	51.88
326.601	10.92
326.814	-9.56
327.027	12.97
327.24	62.12
327.453	35.5
327.666	60.07
327.879	98.99
328.092	55.98
328.305	43.69
328.518	92.84
328.731	-17.75
328.944	68.27
329.157	53.93
329.37	55.98
329.583	68.27
329.796	119.46
330.009	47.79
330.222	12.97
330.435	74.41
330.648	37.55
330.861	94.89
331.073	111.27
331.286	43.69
331.499	88.75
331.712	53.93
331.925	39.59
332.138	84.65
332.35	84.65
332.563	84.65
332.776	6.83
332.989	21.16
333.202	41.64
333.414	-3.41
333.627	49.83
333.84	-3.41
334.053	125.61
334.265	-5.46
334.478	58.03
334.691	17.07
334.903	19.11
335.116	-30.04
335.329	80.55
335.541	6.83
335.754	37.55
335.966	66.22
336.179	78.51
336.392	29.35
336.604	-3.41
336.817	125.61
337.029	-27.99
337.242	23.21
337.454	96.94
337.667	111.27
337.88	125.61
338.092	-25.94
338.305	25.26
338.517	55.98
338.729	90.79
338.942	74.41
339.154	10.92
339.367	-9.56
339.579	90.79
339.792	60.07
340.004	88.75
340.217	47.79
340.429	4.78
340.641	39.59
340.854	72.36
341.066	-11.61
341.278	113.32
341.491	88.75
341.703	43.69
341.915	-21.85
342.128	94.89
342.34	68.27
342.552	39.59
342.764	6.83
342.977	4.78
343.189	15.02
343.401	8.87
343.613	-3.41
343.826	76.46
344.038	80.55
344.25	41.64
344.462	31.4
344.674	45.74
344.886	17.07
345.099	21.16
345.311	70.31
345.523	12.97
345.735	49.83
345.947	96.94
346.159	47.79
346.371	4.78
346.583	6.83
346.795	109.22
347.007	98.99
347.219	19.11
347.431	0.68
347.643	35.5
347.855	70.31
348.067	105.13
348.279	-42.32
348.491	84.65
348.703	68.27
348.915	-3.41
349.127	10.92
349.339	68.27
349.551	17.07
349.763	66.22
349.975	66.22
350.187	37.55
350.399	17.07
350.61	103.08
350.822	-27.99
351.034	49.83
351.246	45.74
351.458	6.83
351.669	86.7
351.881	144.04
352.093	150.18
352.305	33.45
352.517	74.41
352.728	137.9
352.94	68.27
353.152	43.69
353.363	6.83
353.575	78.51
353.787	101.03
353.999	60.07
354.21	80.55
354.422	12.97
354.633	-7.51
354.845	41.64
355.057	68.27
355.268	2.73
355.48	92.84
355.692	6.83
355.903	92.84
356.115	12.97
356.326	10.92
356.538	127.66
356.749	15.02
356.961	127.66
357.172	-3.41
357.384	62.12
357.595	139.94
357.807	76.46
358.018	47.79
358.23	47.79
358.441	101.03
358.653	80.55
358.864	123.56
359.075	55.98
359.287	37.55
359.498	72.36
359.709	64.17
359.921	64.17
360.132	101.03
360.344	-1.37
360.555	55.98
360.766	23.21
360.977	55.98
361.189	27.31
361.4	17.07
361.611	-1.37
361.823	53.93
362.034	41.64
362.245	8.87
362.456	33.45
362.667	35.5
362.879	21.16
363.09	51.88
363.301	113.32
363.512	-3.41
363.723	31.4
363.935	-23.89
364.146	43.69
364.357	88.75
364.568	39.59
364.779	45.74
364.99	98.99
365.201	23.21
365.412	45.74
365.623	23.21
365.834	37.55
366.045	-3.41
366.256	55.98
366.467	23.21
366.678	35.5
366.889	72.36
367.1	10.92
367.311	94.89
367.522	51.88
367.733	25.26
367.944	35.5
368.155	49.83
368.366	86.7
368.577	62.12
368.788	64.17
368.999	115.37
369.209	17.07
369.42	109.22
369.631	88.75
369.842	66.22
370.053	101.03
370.264	49.83
370.474	33.45
370.685	49.83
370.896	76.46
371.107	27.31
371.317	105.13
371.528	4.78
371.739	78.51
371.95	64.17
372.16	105.13
372.371	15.02
372.582	62.12
372.792	62.12
373.003	64.17
373.214	55.98
373.424	62.12
373.635	35.5
373.846	86.7
374.056	0.68
374.267	23.21
374.477	37.55
374.688	47.79
374.898	21.16
375.109	55.98
375.319	105.13
375.53	111.27
375.74	113.32
375.951	80.55
376.161	78.51
376.372	37.55
376.582	39.59
376.793	68.27
377.003	58.03
377.214	-23.89
377.424	76.46
377.635	90.79
377.845	6.83
378.055	82.6
378.266	-5.46
378.476	51.88
378.686	90.79
378.897	29.35
379.107	84.65
379.317	68.27
379.528	-42.32
379.738	35.5
379.948	27.31
380.158	135.85
380.369	29.35
380.579	74.41
380.789	78.51
380.999	115.37
381.21	39.59
381.42	111.27
381.63	60.07
381.84	47.79
382.05	17.07
382.261	111.27
382.471	127.66
382.681	33.45
382.891	31.4
383.101	33.45
383.311	27.31
383.521	35.5
383.731	66.22
383.941	88.75
384.151	33.45
384.361	41.64
384.571	64.17
384.781	107.18
384.991	131.75
385.201	160.42
385.411	127.66
385.621	35.5
385.831	82.6
386.041	41.64
386.251	-11.61
386.461	84.65
386.671	70.31
386.881	74.41
387.091	58.03
387.301	55.98
387.511	51.88
387.72	21.16
387.93	66.22
388.14	60.07
388.35	78.51
388.56	68.27
388.769	51.88
388.979	80.55
389.189	23.21
389.399	66.22
389.609	68.27
389.818	58.03
390.028	55.98
390.238	103.08
390.447	62.12
390.657	80.55
390.867	-5.46
391.076	19.11
391.286	45.74
391.496	29.35
391.705	21.16
391.915	84.65
392.125	107.18
392.334	45.74
392.544	141.99
392.753	141.99
392.963	6.83
393.172	62.12
393.382	45.74
393.591	125.61
393.801	43.69
394.01	205.48
394.22	70.31
394.429	113.32
394.639	60.07
394.848	170.66
395.058	121.51
395.267	103.08
395.477	6.83
395.686	68.27
395.895	103.08
396.105	121.51
396.314	31.4
396.524	103.08
396.733	127.66
396.942	88.75
397.152	51.88
397.361	150.18
397.57	103.08
397.78	41.64
397.989	164.52
398.198	144.04
398.407	117.42
398.617	53.93
398.826	105.13
399.035	86.7
399.244	109.22
399.453	96.94
399.663	84.65
399.872	76.46
400.081	49.83
400.29	205.48
400.499	43.69
400.708	115.37
400.917	94.89
401.127	86.7
401.336	172.71
401.545	137.9
401.754	90.79
401.963	152.23
402.172	64.17
402.381	137.9
402.59	160.42
402.799	162.47
403.008	197.29
403.217	105.13
403.426	121.51
403.635	119.46
403.844	166.57
404.053	92.84
404.262	62.12
404.471	129.7
404.68	101.03
404.888	117.42
405.097	66.22
405.306	133.8
405.515	98.99
405.724	92.84
405.933	154.28
406.142	160.42
406.35	113.32
406.559	154.28
406.768	141.99
406.977	180.9
407.185	230.06
407.394	236.2
407.603	141.99
407.812	180.9
408.02	197.29
408.229	166.57
408.438	164.52
408.646	166.57
408.855	197.29
409.064	219.82
409.272	176.81
409.481	277.16
409.69	230.06
409.898	266.92
410.107	209.58
410.315	268.97
410.524	211.62
410.733	234.15
410.941	318.12
411.15	285.35
411.358	309.93
411.567	361.13
411.775	246.44
411.984	324.26
412.192	346.79
412.401	332.45
412.609	330.41
412.818	385.7
413.026	383.65
413.234	414.37
413.443	500.39
413.651	428.71
413.86	416.42
414.068	504.48
414.276	602.79
414.485	465.57
414.693	463.52
414.901	492.2
415.11	545.44
415.318	430.76
415.526	553.63
415.734	588.45
415.943	621.22
416.151	619.17
416.359	610.98
416.567	686.75
416.776	715.42
416.984	742.05
417.192	744.1
417.4	721.57
417.608	750.24
417.817	723.62
418.025	854.69
418.233	969.37
418.441	879.26
418.649	809.63
418.857	1016.48
419.065	1016.48
419.273	1043.1
419.481	1053.34
419.689	1057.43
419.897	1073.82
420.105	1155.74
420.313	1233.56
420.521	1262.23
420.729	1247.9
420.937	1225.37
421.145	1274.52
421.353	1454.74
421.561	1450.64
421.769	1516.18
421.977	1561.23
422.185	1530.52
422.393	1645.2
422.601	1768.08
422.809	1677.97
423.017	1757.84
423.224	1856.14
423.432	1860.24
423.64	1938.06
423.848	2173.58
424.056	1993.36
424.263	2214.54
424.471	2093.71
424.679	2304.65
424.887	2157.19
425.094	2454.15
425.302	2366.09
425.51	2628.23
425.718	2591.36
425.925	2603.65
426.133	2798.21
426.341	2777.73
426.548	2884.22
426.756	2978.43
426.964	3064.44
427.171	3213.95
427.379	3222.14
427.586	3359.35
427.794	3437.17
428.001	3590.77
428.209	3715.7
428.417	3705.46
428.624	3963.5
428.832	3949.17
429.039	3947.12
429.247	3848.82
429.454	4248.17
429.662	4475.49
429.869	4289.13
430.076	4594.28
430.284	4522.6
430.491	4682.34
430.699	4977.25
430.906	4932.19
431.114	5063.26
431.321	5347.93
431.528	5280.35
431.736	5700.18
431.943	5796.43
432.15	5810.77
432.358	5864.02
432.565	6046.29
432.772	6066.77
432.979	6423.11
433.187	6470.22
433.394	6386.25
433.601	6933.06
433.808	7021.12
434.016	7025.22
434.223	7264.83
434.43	7676.47
434.637	7412.28
434.844	7907.89
435.052	8170.03
435.259	8034.86
435.466	8180.27
435.673	8118.83
435.88	8847.91
436.087	9171.49
436.294	9120.29
436.501	8716.84
436.708	8997.41
436.915	9269.79
437.122	9824.79
437.329	9828.88
437.537	10121.74
437.743	10400.27
437.95	10154.51
438.157	10891.78
438.364	11082.24
438.571	10979.84
438.778	11143.68
438.985	11975.16
439.192	11575.8
439.399	12044.79
439.606	11764.22
439.813	12548.59
440.02	13267.42
440.227	12857.83
440.433	12765.67
440.64	13181.41
440.847	13255.14
441.054	13595.1
441.261	14678.47
441.467	14242.26
441.674	14649.8
441.881	15098.31
442.088	15079.88
442.294	14739.91
442.501	15372.74
442.708	15555.01
442.914	16083.38
443.121	17039.78
443.328	16511.41
443.534	17717.66
443.741	17267.11
443.948	16865.71
444.154	18508.18
444.361	17942.94
444.568	18106.77
444.774	18284.95
444.981	18567.57
445.187	18989.45
445.394	19798.4
445.6	19644.8
445.807	21352.8
446.013	20433.27
446.22	20873.58
446.426	21899.61
446.633	22002.01
446.839	22679.89
447.046	21660
447.252	22882.64
447.459	23175.5
447.665	22849.87
447.871	23722.3
448.078	24901.93
448.284	23869.76
448.491	24766.77
448.697	25626.92
448.903	25753.89
449.11	25563.43
449.316	25450.79
449.522	25913.63
449.728	26806.55
449.935	27060.49
450.141	26698
450.347	27365.64
450.553	26734.87
450.76	26997.01
450.966	27908.35
451.172	27681.03
451.378	28180.73
451.584	27484.42
451.791	28446.97
451.997	28256.51
452.203	28770.55
452.409	28803.32
452.615	28250.36
452.821	27445.51
453.027	27398.41
453.233	28311.8
453.44	27332.87
453.646	27820.29
453.852	27934.98
454.058	28430.58
454.264	27312.39
454.47	28260.6
454.676	27283.72
454.882	28471.54
455.088	25665.83
455.294	26108.19
455.5	26417.43
455.705	26925.33
455.911	25858.34
456.117	25420.07
456.323	24840.5
456.529	23697.73
456.735	24830.26
456.941	23888.19
457.147	23511.36
457.352	22806.86
457.558	22714.7
457.764	22772.05
457.97	22462.8
458.176	21725.54
458.381	21641.57
458.587	20736.37
458.793	20709.74
458.999	19667.33
459.204	20984.17
459.41	20279.67
459.616	18882.95
459.821	19143.05
460.027	19102.09
460.233	18885
460.438	17637.79
460.644	17992.09
460.85	17035.69
461.055	16773.55
461.261	16978.34
461.466	15634.88
461.672	15200.71
461.878	16087.48
462.083	14774.73
462.289	14803.4
462.494	14533.07
462.7	14111.19
462.905	13640.15
463.111	14324.18
463.316	14246.35
463.522	13898.2
463.727	13806.04
463.932	13986.26
464.138	13734.36
464.343	13771.22
464.549	13304.29
464.754	14055.89
464.959	13537.76
465.165	13482.46
465.37	12892.65
465.575	12597.74
465.781	12929.51
465.986	13136.35
466.191	12786.15
466.397	12509.68
466.602	11731.45
466.807	12288.5
467.012	12227.06
467.218	12315.12
467.423	12274.16
467.628	12128.75
467.833	12560.88
468.038	12333.55
468.244	11973.11
468.449	12466.67
468.654	11989.49
468.859	11735.54
469.064	11932.15
469.269	11477.5
469.474	11334.14
469.679	11534.84
469.885	11330.05
470.09	11502.08
470.295	11469.31
470.5	10992.13
470.705	11280.89
470.91	11022.85
471.115	10861.06
471.32	10867.2
471.525	10963.46
471.73	10668.55
471.935	10809.86
472.139	10095.12
472.344	10529.29
472.549	10340.88
472.754	10344.97
472.959	9972.24
473.164	9806.36
473.369	9638.42
473.574	9980.43
473.778	9939.48
473.983	9769.49
474.188	9818.64
474.393	9335.32
474.598	9214.49
474.802	9286.17
475.007	9241.12
475.212	9159.2
475.417	8888.87
475.621	8782.37
475.826	8938.02
476.031	8702.5
476.235	8534.57
476.44	8675.88
476.645	8655.4
476.849	8618.54
477.054	8550.95
477.259	8260.14
477.463	8231.47
477.668	8200.75
477.872	8157.74
478.077	8012.34
478.282	7883.31
478.486	7645.75
478.691	7793.2
478.895	7799.35
479.1	7619.13
479.304	7696.95
479.509	7578.17
479.713	7524.92
479.918	7275.07
480.122	7182.91
480.326	7598.65
480.531	7623.22
480.735	7262.78
480.94	7217.72
481.144	7455.29
481.348	6996.54
481.553	7377.47
481.757	7115.33
481.961	7221.82
482.166	7262.78
482.37	7066.17
482.574	7084.61
482.778	7139.9
482.983	7365.18
483.187	7094.85
483.391	7250.49
483.595	6957.63
483.8	7111.23
484.004	7184.96
484.208	7162.43
484.412	7199.29
484.616	7047.74
484.821	7111.23
485.025	6986.3
485.229	7260.73
485.433	6978.11
485.637	7117.37
485.841	7045.7
486.045	7107.13
486.249	7219.77
486.453	7092.8
486.657	7109.18
486.861	7096.89
487.065	7039.55
487.269	7191.1
487.473	6894.15
487.677	7109.18
487.881	7373.37
488.085	7068.22
488.289	7154.24
488.493	7100.99
488.697	7187
488.901	7213.63
489.105	7209.53
489.309	7215.68
489.512	7344.7
489.716	7184.96
489.92	7131.71
490.124	7225.92
490.328	7311.93
490.531	7213.63
490.735	7402.04
490.939	7369.27
491.143	7193.15
491.346	7279.16
491.55	7502.39
491.754	7449.15
491.958	7471.67
492.161	7549.5
492.365	7406.14
492.569	7418.43
492.772	7655.99
492.976	7596.6
493.18	7782.96
493.383	7965.23
493.587	7807.54
493.79	7954.99
493.994	7930.42
494.197	7922.23
494.401	7965.23
494.605	7983.66
494.808	8184.37
495.012	8090.16
495.215	8239.66
495.419	8356.4
495.622	8088.11
495.825	8421.93
496.029	8299.05
496.232	8434.22
496.436	8622.63
496.639	8833.57
496.843	8602.15
497.046	8849.96
497.249	8913.44
497.453	9187.87
497.656	9048.61
497.859	8911.39
498.063	9040.42
498.266	9386.52
498.469	9353.76
498.673	9531.93
498.876	9542.17
499.079	9828.88
499.282	9726.49
499.485	10082.83
499.689	9943.57
499.892	10056.21
500.095	10199.57
500.298	10519.05
500.501	10129.94
500.705	10697.22
500.908	10560.01
501.111	10899.97
501.314	10752.52
501.517	11180.54
501.72	11082.24
501.923	10998.27
502.126	11448.83
502.329	11500.03
502.532	11653.62
502.735	11579.9
502.938	11788.79
503.141	12046.83
503.344	12124.66
503.547	12120.56
503.75	12294.64
503.953	12374.51
504.156	12700.14
504.359	12634.6
504.562	12777.96
504.765	13343.2
504.968	13390.3
505.17	13533.66
505.373	13464.03
505.576	13908.44
505.779	13699.55
505.982	13734.36
506.185	14117.33
506.387	14361.04
506.59	14629.32
506.793	14492.11
506.996	14725.58
507.198	15180.23
507.401	15086.02
507.604	15339.97
507.807	15225.28
508.009	15802.81
508.212	15833.53
508.415	15987.13
508.617	16044.47
508.82	16286.13
509.022	16236.98
509.225	16798.12
509.428	16826.79
509.63	17033.64
509.833	17197.48
510.035	17385.89
510.238	17449.38
510.44	17437.09
510.643	18020.76
510.845	18250.13
511.048	18045.34
511.25	18383.25
511.453	18598.29
511.655	19202.44
511.858	18829.71
512.06	19188.1
512.262	19446.15
512.465	19644.8
512.667	19951.99
512.87	19941.75
513.072	19802.49
513.274	20670.83
513.477	20562.29
513.679	20822.38
513.881	21057.9
514.084	21287.27
514.286	21352.8
514.488	21731.68
514.69	22061.4
514.893	22430.04
515.095	22208.86
515.297	22366.55
515.499	22819.15
515.701	23191.88
515.904	23302.47
516.106	23365.96
516.308	23433.54
516.51	23832.9
516.712	24277.3
516.914	24441.14
517.116	25045.29
517.318	24940.85
517.52	25076.01
517.722	25241.9
517.925	25706.79
518.127	26030.37
518.329	26018.08
518.531	25942.3
518.733	26505.49
518.935	27021.58
519.136	27040.01
519.338	27253
519.54	27314.44
519.742	27887.87
519.944	28197.12
520.146	28481.78
520.348	28422.39
520.55	28797.17
520.752	29053.17
520.954	29276.4
521.155	29497.58
521.357	29794.53
521.559	30183.65
521.761	30519.51
521.963	30443.74
522.164	30658.77
522.366	30920.91
522.568	31049.94
522.77	31895.75
522.971	31668.42
523.173	31647.94
523.375	31971.52
523.576	31758.53
523.778	32334.01
523.98	33020.08
524.181	32856.25
524.383	33251.5
524.584	33673.38
524.786	33835.17
524.988	33462.44
525.189	34046.12
525.391	34345.12
525.592	34566.3
525.794	34322.59
525.995	34816.15
526.197	34560.16
526.398	34723.99
526.6	35287.18
526.801	35358.86
527.003	35743.88
527.204	35575.95
527.406	35821.7
527.607	35999.88
527.808	36194.43
528.01	35465.36
528.211	36198.53
528.412	36835.45
528.614	36710.52
528.815	36845.69
529.016	37376.11
529.218	36778.11
529.419	37378.16
529.62	37027.96
529.822	37156.98
530.023	37404.78
530.224	37845.1
530.425	37390.45
530.626	37611.63
530.828	38160.48
531.029	38426.72
531.23	37521.52
531.431	37769.32
531.632	37961.83
531.833	38197.35
532.035	37769.32
532.236	38410.34
532.437	38152.29
532.638	38363.23
532.839	38479.97
533.04	38842.46
533.241	38088.81
533.442	39002.2
533.643	38596.7
533.844	38895.71
534.045	38932.57
534.246	38742.11
534.447	38813.79
534.648	38756.44
534.849	39155.8
535.05	38531.17
535.251	38920.28
535.451	38811.74
535.652	39145.56
535.853	38871.13
536.054	38969.43
536.255	39049.3
536.456	38350.95
536.657	39641.17
536.857	38867.03
537.058	38842.46
537.259	39176.28
537.46	39379.03
537.66	38981.72
537.861	39141.46
538.062	38994.01
538.263	38979.67
538.463	38867.03
538.664	39075.93
538.865	39313.49
539.065	39280.72
539.266	38699.1
539.466	39356.5
539.667	38873.18
539.868	39376.98
540.068	39223.38
540.269	39188.56
540.469	39104.6
540.67	38860.89
540.87	39178.32
541.071	38891.61
541.271	39643.21
541.472	39004.25
541.672	38953.05
541.873	39329.87
542.073	38627.42
542.274	39221.33
542.474	39020.63
542.675	39151.7
542.875	39247.96
543.075	39340.11
543.276	38467.68
543.476	39536.72
543.676	39039.06
543.877	39293.01
544.077	38893.66
544.277	38914.14
544.478	38899.8
544.678	38785.11
544.878	38707.29
545.078	38991.96
545.279	38656.09
545.479	38584.41
545.679	38668.38
545.879	39157.85
546.079	39096.41
546.28	39272.53
546.48	38436.96
546.68	38965.34
546.88	38807.64
547.08	39055.45
547.28	38828.12
547.48	38516.83
547.68	38580.32
547.88	38641.76
548.081	39415.89
548.281	38813.79
548.481	38826.07
548.681	39166.04
548.881	38813.79
549.081	38803.55
549.28	38803.55
549.48	39053.4
549.68	38041.7
549.88	39534.67
550.08	38543.45
550.28	38680.67
550.48	38608.99
550.68	39465.04
550.88	38445.15
551.08	38901.85
551.279	38821.98
551.479	38490.21
551.679	38498.4
551.879	38537.31
552.079	38836.31
552.278	38522.97
552.478	38533.21
552.678	38322.27
552.878	38744.16
553.077	38537.31
553.277	38047.85
553.477	38785.11
553.676	38363.23
553.876	38547.55
554.076	38414.43
554.275	38076.52
554.475	38101.09
554.674	38479.97
554.874	38248.55
555.074	38326.37
555.273	38525.02
555.473	38393.95
555.672	38004.84
555.872	38051.94
556.071	37642.35
556.271	38391.9
556.47	37929.06
556.67	37834.86
556.869	37714.03
557.068	38254.69
557.268	37863.53
557.467	37685.36
557.667	37558.38
557.866	37621.87
558.065	37492.85
558.265	37468.27
558.464	37292.15
558.663	37570.67
558.863	37128.31
559.062	37611.63
559.261	37197.94
559.461	37331.06
559.66	36860.02
559.859	37206.13
560.058	36669.56
560.258	36792.44
560.457	36630.65
560.656	36962.42
560.855	37089.4
561.054	36878.46
561.253	36151.43
561.453	36495.49
561.652	36745.34
561.851	36528.25
562.05	36503.68
562.249	36227.2
562.448	36178.05
562.647	36188.29
562.846	35932.29
563.045	35799.18
563.244	35442.83
563.443	35891.33
563.642	35442.83
563.841	35446.93
564.04	35717.26
564.239	35737.74
564.438	35160.21
564.637	35313.81
564.836	35192.98
565.035	34834.58
565.234	35143.83
565.432	34709.66
565.631	34662.55
565.83	34965.65
566.029	34717.85
566.228	34400.41
566.427	34263.2
566.625	34052.26
566.824	34058.4
567.023	34338.97
567.222	33663.14
567.42	33923.24
567.619	33814.69
567.818	33683.62
568.016	33665.19
568.215	33906.85
568.414	33548.46
568.612	33583.27
568.811	33355.95
569.01	33390.77
569.208	32616.63
569.407	33013.94
569.605	32868.53
569.804	32882.87
570.002	32633.02
570.201	32811.19
570.4	32745.65
570.598	32303.29
570.797	32428.22
570.995	32618.68
571.193	31797.45
571.392	32104.64
571.59	31985.86
571.789	31662.28
571.987	31840.45
572.186	31660.23
572.384	31363.28
572.582	31566.03
572.781	31520.97
572.979	30763.22
573.177	31465.67
573.376	31049.94
573.574	30884.05
573.772	30941.39
573.971	30779.6
574.169	30449.88
574.367	30357.72
574.565	30277.85
574.763	30142.69
574.962	30486.75
575.16	30030.05
575.358	29917.41
575.556	30019.81
575.754	29882.59
575.952	29784.29
576.151	29948.13
576.349	29612.26
576.547	29210.86
576.745	29540.58
576.943	29221.1
577.141	29286.64
577.339	29323.5
577.537	29094.13
577.735	29042.93
577.933	28899.57
578.131	28973.3
578.329	28993.78
578.527	28473.59
578.725	28432.63
578.923	28244.22
579.121	28272.89
579.319	28059.9
579.516	28033.28
579.714	28348.67
579.912	28043.52
580.11	27934.98
580.308	27869.44
580.506	27302.15
580.704	26984.72
580.901	27676.93
581.099	27662.6
581.297	27447.56
581.495	27269.39
581.692	27527.43
581.89	27193.61
582.088	26988.81
582.285	26820.88
582.483	27117.84
582.681	26890.51
582.878	26775.83
583.076	26519.83
583.274	26962.19
583.471	26370.33
583.669	26511.64
583.866	26050.85
584.064	26159.39
584.262	26171.68
584.459	26202.39
584.657	26026.27
584.854	26163.48
585.052	25815.33
585.249	25919.78
585.447	25743.65
585.644	25807.14
585.841	25579.81
586.039	25639.2
586.236	25264.43
586.434	25348.39
586.631	25375.02
586.828	25473.32
587.026	25293.1
587.223	25159.98
587.42	25061.68
587.618	25069.87
587.815	24715.57
588.012	24652.08
588.21	24639.79
588.407	24799.54
588.604	24686.9
588.801	24576.31
588.999	24467.77
589.196	24334.65
589.393	24385.85
589.59	24174.91
589.787	24230.2
589.984	24033.6
590.182	23710.02
590.379	24109.37
590.576	23615.81
590.773	24162.62
590.97	23449.92
591.167	23789.89
591.364	23361.86
591.561	23499.08
591.758	23173.45
591.955	23290.18
592.152	23335.24
592.349	22946.12
592.546	22997.32
592.743	23155.02
592.94	22436.18
593.137	23083.34
593.334	22802.77
593.531	22403.41
593.727	22544.72
593.924	22417.75
594.121	22440.28
594.318	22554.96
594.515	22196.57
594.712	22552.91
594.908	22593.87
595.105	22526.29
595.302	22137.18
595.499	22102.36
595.696	22022.49
595.892	22073.69
596.089	22268.25
596.286	21920.09
596.482	21641.57
596.679	21739.87
596.876	21750.11
597.072	21637.47
597.269	21309.8
597.466	21336.42
597.662	21184.87
597.859	21516.64
598.055	21469.54
598.252	21041.51
598.448	21293.41
598.645	21367.14
598.841	21037.42
599.038	20998.51
599.234	20967.79
599.431	20582.77
599.627	20588.91
599.824	20681.07
600.02	20570.48
600.217	20353.4
600.413	20314.48
600.609	20074.87
600.806	20273.53
601.002	20222.33
601.198	20173.17
601.395	19992.95
601.591	19882.36
601.787	19995
601.984	19779.96
602.18	19915.13
602.376	19833.21
602.572	19663.23
602.769	19528.06
602.965	19337.6
603.161	19532.16
603.357	19403.14
603.553	19564.93
603.75	19478.91
603.946	19284.36
604.142	19526.02
604.338	18979.21
604.534	19274.12
604.73	19046.79
604.926	19159.43
605.122	19249.54
605.318	19005.83
605.514	18940.3
605.71	18622.86
605.906	18657.68
606.102	18542.99
606.298	18629.01
606.494	18620.81
606.69	18641.29
606.886	18688.4
607.082	18217.36
607.278	18436.5
607.474	18311.57
607.67	18123.16
607.866	17987.99
608.062	18383.25
608.257	17936.79
608.453	17983.9
608.649	18084.25
608.845	17748.38
609.041	17887.64
609.236	17684.89
609.432	17680.8
609.628	17838.49
609.824	17715.61
610.019	17568.16
610.215	17564.06
610.411	17594.78
610.606	17596.83
610.802	17396.13
610.998	17344.93
611.193	17416.61
611.389	17443.23
611.584	17021.35
611.78	17105.32
611.976	17248.68
612.171	17465.76
612.367	17103.27
612.562	17109.41
612.758	16873.9
612.953	17101.22
613.149	17035.69
613.344	16650.67
613.539	17074.6
613.735	16908.71
613.93	17011.11
614.126	16642.48
614.321	16996.78
614.517	17011.11
614.712	16615.85
614.907	16587.18
615.103	16779.69
615.298	16595.37
615.493	16894.38
615.688	16261.55
615.884	16724.4
616.079	16441.78
616.274	16488.88
616.47	16421.3
616.665	16218.55
616.86	16034.23
617.055	15978.93
617.25	16023.99
617.445	16202.16
617.641	15929.78
617.836	16140.72
618.031	16042.42
618.226	16198.07
618.421	16003.51
618.616	15987.13
618.811	15776.19
619.006	16214.45
619.201	15434.18
619.396	15753.66
619.591	15249.86
619.786	15409.6
619.981	15260.1
620.176	15481.28
620.371	15270.34
620.566	15346.11
620.761	15313.35
620.956	15028.68
621.151	14866.89
621.346	15133.12
621.541	14614.99
621.735	14807.5
621.93	14610.89
622.125	14701
622.32	14418.38
622.515	14502.35
622.709	14381.52
622.904	14391.76
623.099	14272.98
623.294	14293.46
623.488	14283.22
623.683	14117.33
623.878	13971.93
624.072	13836.76
624.267	13945.3
624.462	13844.95
624.656	13685.21
624.851	13738.46
625.046	13584.86
625.24	13474.27
625.435	13523.42
625.629	13484.51
625.824	13611.48
626.018	13359.58
626.213	13066.72
626.407	13224.42
626.602	12968.42
626.796	13130.21
626.991	12939.75
627.185	12880.36
627.38	12718.57
627.574	12683.75
627.768	12548.59
627.963	12718.57
628.157	12399.09
628.352	12409.33
628.546	12165.62
628.74	12399.09
628.935	12210.67
629.129	12241.39
629.323	11930.1
629.517	11848.18
629.712	11923.96
629.906	12034.55
630.1	11768.31
630.294	11975.16
630.489	11624.95
630.683	11770.36
630.877	11475.45
631.071	11338.24
631.265	11373.05
631.459	11153.92
631.653	11252.22
631.848	11479.55
632.042	11170.3
632.236	11133.44
632.43	11145.73
632.624	11028.99
632.818	10789.38
633.012	10961.41
633.206	10811.91
633.4	10945.03
633.594	10643.98
633.788	10588.68
633.982	10680.84
634.176	10617.35
634.369	10662.41
634.563	10418.7
634.757	10287.63
634.951	10332.68
635.145	10293.77
635.339	10158.61
635.533	10416.65
635.726	9923.09
635.92	10060.31
636.114	10174.99
636.308	9921.04
636.501	9888.28
636.695	9968.15
636.889	9841.17
637.083	9828.88
637.276	9648.66
637.47	9570.84
637.664	9538.07
637.857	9574.94
638.051	9437.72
638.244	9497.11
638.438	9468.44
638.632	9370.14
638.825	9191.97
639.019	9347.61
639.212	9241.12
639.406	9296.41
639.599	9200.16
639.793	9093.66
639.986	8899.11
640.18	9048.61
640.373	8933.92
640.567	8809
640.76	8880.68
640.954	8720.93
641.147	8591.91
641.34	8546.86
641.534	8649.25
641.727	8493.61
641.92	8548.9
642.114	8456.75
642.307	8454.7
642.5	8340.01
642.694	8192.56
642.887	8188.46
643.08	8297
643.273	8190.51
643.467	8045.1
643.66	8006.19
643.853	8061.49
644.046	8041.01
644.239	7885.36
644.432	7998
644.626	7793.2
644.819	7803.44
645.012	7735.86
645.205	7797.3
645.398	7522.87
645.591	7559.74
645.784	7760.44
645.977	7621.17
646.17	7510.58
646.363	7483.96
646.556	7473.72
646.749	7348.79
646.942	7385.66
647.135	7311.93
647.328	7303.74
647.521	7273.02
647.714	7291.45
647.907	7162.43
648.099	7119.42
648.292	6984.26
648.485	7062.08
648.678	6818.37
648.871	6918.72
649.064	6996.54
649.256	6746.69
649.449	6963.78
649.642	6924.86
649.835	6687.3
650.027	6541.89
650.22	6615.62
650.413	6648.39
650.605	6617.67
650.798	6775.36
650.991	6535.75
651.183	6767.17
651.376	6437.45
651.568	6672.96
651.761	6339.15
651.954	6548.04
652.146	6453.83
652.339	6455.88
652.531	6396.49
652.724	6255.18
652.916	6070.86
653.109	6257.23
653.301	6134.35
653.494	6339.15
653.686	5984.85
653.879	6171.21
654.071	6046.29
654.263	6216.27
654.456	6011.47
654.648	6003.28
654.84	6087.25
655.033	5898.83
655.225	5710.42
655.417	5849.68
655.61	5878.35
655.802	5743.19
655.994	5687.89
656.186	5739.09
656.379	5743.19
656.571	5636.69
656.763	5519.96
656.955	5620.31
657.148	5626.45
657.34	5704.28
657.532	5620.31
657.724	5517.91
657.916	5366.36
658.108	5466.71
658.3	5444.18
658.492	5403.22
658.684	5329.5
658.876	5286.49
659.068	5343.83
659.26	5411.42
659.452	5243.48
659.644	5200.48
659.836	5235.29
660.028	5294.68
660.22	5132.89
660.412	5128.8
660.604	5108.32
660.796	5227.1
660.988	4954.72
661.18	5032.54
661.372	5055.07
661.563	5214.81
661.755	5050.97
661.947	4862.56
662.139	4915.81
662.331	4772.45
662.522	4911.71
662.714	4981.34
662.906	4772.45
663.097	4870.75
663.289	4762.21
663.481	4717.15
663.673	4852.32
663.864	4688.48
664.056	4682.34
664.247	4579.94
664.439	4577.89
664.631	4708.96
664.822	4723.3
665.014	4629.09
665.205	4551.27
665.397	4569.7
665.588	4450.92
665.78	4536.93
665.971	4557.41
666.163	4395.62
666.354	4407.91
666.546	4549.22
666.737	4455.01
666.929	4321.9
667.12	4438.63
667.311	4375.14
667.503	4301.42
667.694	4219.5
667.885	4278.89
668.077	4342.38
668.268	4270.7
668.459	4387.43
668.651	4313.7
668.842	4389.48
669.033	4207.21
669.224	4139.63
669.416	4295.27
669.607	4213.35
669.798	4141.68
669.989	4211.31
670.18	4186.73
670.371	4141.68
670.563	4098.67
670.754	4239.98
670.945	4113
671.136	4180.59
671.327	4180.59
671.518	4121.2
671.709	4127.34
671.9	4186.73
672.091	4117.1
672.282	3795.57
672.473	4229.74
672.664	3918.45
672.855	4061.8
673.046	4113
673.237	4153.96
673.428	4094.57
673.619	3916.4
673.809	4078.19
674	4035.18
674.191	4086.38
674.382	4100.72
674.573	4039.28
674.764	3922.54
674.954	3998.32
675.145	3867.25
675.336	3859.06
675.527	4070
675.717	3983.98
675.908	3889.78
676.099	3959.41
676.289	3988.08
676.48	3895.92
676.671	3934.83
676.861	3916.4
677.052	3906.16
677.243	3902.06
677.433	4080.24
677.624	3904.11
677.814	3893.87
678.005	3818.1
678.195	3887.73
678.386	3971.69
678.576	3805.81
678.767	3887.73
678.957	3920.49
679.148	3926.64
679.338	3881.58
679.529	3943.02
679.719	3979.89
679.909	3938.93
680.1	3930.73
680.29	3785.33
680.481	4018.8
680.671	3928.69
680.861	3797.62
681.052	4016.75
681.242	3998.32
681.432	3994.22
681.622	3875.44
681.813	3906.16
682.003	3953.26
682.193	3777.14
682.383	3983.98
682.573	3965.55
682.764	3859.06
682.954	3854.96
683.144	3785.33
683.334	3932.78
683.524	3955.31
683.714	3957.36
683.904	3977.84
684.094	3951.21
684.284	3713.65
684.474	3783.28
684.664	3908.21
684.854	3785.33
685.044	3756.66
685.234	3893.87
685.424	3834.48
685.614	3928.69
685.804	3805.81
685.994	3879.54
686.184	3846.77
686.374	3842.67
686.564	3697.27
686.753	3684.98
686.943	3570.29
687.133	3773.04
687.323	3748.47
687.513	3816.05
687.702	3791.47
687.892	3664.5
688.082	3691.12
688.272	3641.97
688.461	3654.26
688.651	3641.97
688.841	3560.05
689.03	3521.14
689.22	3644.02
689.41	3545.72
689.599	3492.47
689.789	3486.33
689.979	3445.37
690.168	3410.55
690.358	3422.84
690.547	3494.52
690.737	3523.19
690.926	3527.28
691.116	3340.92
691.305	3490.42
691.495	3332.73
691.684	3297.91
691.874	3381.88
692.063	3322.49
692.252	3277.43
692.442	3254.9
692.631	3324.54
692.82	3322.49
693.01	3191.42
693.199	3232.38
693.388	3345.02
693.578	3170.94
693.767	3242.62
693.956	3189.37
694.146	3263.1
694.335	3146.36
694.524	3168.89
694.713	3136.12
694.902	3113.6
695.092	3177.08
695.281	3193.47
695.47	3109.5
695.659	3054.2
695.848	3052.16
696.037	3197.56
696.226	3129.98
696.415	3175.03
696.604	3113.6
696.793	3140.22
696.982	3138.17
697.171	3072.64
697.36	3035.77
697.549	3003
697.738	3021.44
697.927	3132.03
698.116	3099.26
698.305	3046.01
698.494	3207.8
698.683	3099.26
698.872	3066.49
699.061	2900.61
699.25	3043.96
699.438	3080.83
699.627	3123.84
699.816	3207.8
700.005	2982.53
700.193	3091.07
700.382	3179.13
700.571	2976.38
700.76	3015.29
700.948	3009.15
701.137	2955.9
701.326	3060.35
701.514	3035.77
701.703	3078.78
701.892	3097.21
702.08	3177.08
702.269	3003
702.457	3084.92
702.646	3078.78
702.834	3082.88
703.023	3183.23
703.212	3117.69
703.4	3033.72
703.589	3072.64
703.777	3091.07
703.965	2968.19
704.154	3074.68
704.342	2937.47
704.531	3107.45
704.719	3054.2
704.907	3166.84
705.096	3056.25
705.284	3127.93
705.472	3101.31
705.661	3007.1
705.849	3232.38
706.037	3142.27
706.226	3306.1
706.414	3144.31
706.602	3113.6
706.79	3058.3
706.979	3109.5
707.167	3146.36
707.355	2974.33
707.543	3207.8
707.731	3201.66
707.919	3185.27
708.107	3021.44
708.296	3164.79
708.484	3043.96
708.672	3269.24
708.86	3172.99
709.048	3228.28
709.236	3146.36
709.424	3156.6
709.612	3041.92
709.8	3099.26
709.988	3213.95
710.176	3127.93
710.364	3259
710.551	3201.66
710.739	3154.55
710.927	3226.23
711.115	3220.09
711.303	3355.26
711.491	3213.95
711.679	3220.09
711.866	3209.85
712.054	3308.15
712.242	3252.86
712.43	3244.67
712.617	3191.42
712.805	3203.71
712.993	3314.3
713.181	3263.1
713.368	3273.34
713.556	3254.9
713.744	3226.23
713.931	3406.45
714.119	3238.52
714.306	3271.29
714.494	3308.15
714.682	3234.43
714.869	3185.27
715.057	3396.21
715.244	3211.9
715.432	3377.78
715.619	3377.78
715.807	3213.95
715.994	3334.78
716.182	3269.24
716.369	3390.07
716.556	3447.41
716.744	3228.28
716.931	3293.82
717.119	3461.75
717.306	3494.52
717.493	3367.54
717.681	3365.5
717.868	3426.93
718.055	3480.18
718.242	3400.31
718.43	3388.02
718.617	3545.72
718.804	3355.26
718.991	3480.18
719.179	3441.27
719.366	3314.3
719.553	3385.98
719.74	3388.02
719.927	3443.32
720.114	3486.33
720.301	3412.6
720.488	3504.76
720.676	3519.09
720.863	3611.25
721.05	3609.2
721.237	3498.61
721.424	3469.94
721.611	3601.01
721.798	3558
721.985	3596.92
722.172	3502.71
722.358	3547.76
722.545	3658.35
722.732	3535.48
722.919	3594.87
723.106	3541.62
723.293	3515
723.48	3535.48
723.667	3646.07
723.853	3412.6
724.04	3611.25
724.227	3439.22
724.414	3596.92
724.6	3435.13
724.787	3695.22
724.974	3510.9
725.161	3586.68
725.347	3496.57
725.534	3639.92
725.72	3730.03
725.907	3713.65
726.094	3523.19
726.28	3627.64
726.467	3611.25
726.653	3598.96
726.84	3596.92
727.027	3748.47
727.213	3650.16
727.4	3684.98
727.586	3666.55
727.773	3695.22
727.959	3697.27
728.145	3703.41
728.332	3646.07
728.518	3662.45
728.705	3592.82
728.891	3709.55
729.077	3648.11
729.264	3740.27
729.45	3633.78
729.636	3684.98
729.823	3560.05
730.009	3807.86
730.195	3752.56
730.382	3619.44
730.568	3719.79
730.754	3805.81
730.94	3793.52
731.126	4026.99
731.313	3824.24
731.499	3885.68
731.685	3727.99
731.871	3742.32
732.057	3824.24
732.243	3770.99
732.429	3730.03
732.615	3850.86
732.801	3791.47
732.987	3748.47
733.173	3707.51
733.359	3922.54
733.545	3805.81
733.731	3932.78
733.917	3768.95
734.103	3897.97
734.289	3910.26
734.475	3897.97
734.661	3900.02
734.847	3752.56
735.033	3781.23
735.219	3900.02
735.404	3736.18
735.59	3807.86
735.776	3840.62
735.962	3857.01
736.148	3908.21
736.333	3793.52
736.519	3709.55
736.705	3867.25
736.89	3775.09
737.076	3766.9
737.262	3740.27
737.447	3793.52
737.633	3760.75
737.819	3811.95
738.004	3783.28
738.19	3805.81
738.375	3738.23
738.561	3779.19
738.747	3752.56
738.932	3750.51
739.118	3756.66
739.303	3705.46
739.489	3895.92
739.674	3816.05
739.859	3736.18
740.045	3680.88
740.23	3738.23
740.416	3664.5
740.601	3875.44
740.786	3641.97
740.972	3719.79
741.157	3660.4
741.342	3680.88
741.528	3807.86
741.713	3555.96
741.898	3623.54
742.084	3717.75
742.269	3639.92
742.454	3791.47
742.639	3732.08
742.824	3547.76
743.01	3639.92
743.195	3603.06
743.38	3529.33
743.565	3615.35
743.75	3689.07
743.935	3482.23
744.12	3603.06
744.305	3529.33
744.49	3521.14
744.675	3500.66
744.86	3545.72
745.045	3510.9
745.23	3510.9
745.415	3410.55
745.6	3484.28
745.785	3375.74
745.97	3527.28
746.155	3570.29
746.34	3355.26
746.525	3312.25
746.71	3275.38
746.895	3297.91
747.079	3312.25
747.264	3181.18
747.449	3277.43
747.634	3357.3
747.819	3224.19
748.003	3205.75
748.188	3136.12
748.373	3207.8
748.557	3091.07
748.742	3129.98
748.927	3099.26
749.111	3148.41
749.296	3086.97
749.481	3146.36
749.665	3068.54
749.85	3015.29
750.034	3084.92
750.219	3029.63
750.404	2871.93
750.588	3009.15
750.773	3013.24
750.957	2962.05
751.141	2988.67
751.326	2896.51
751.51	2878.08
751.695	2847.36
751.879	2855.55
752.064	3011.2
752.248	2869.89
752.432	2812.54
752.617	2841.22
752.801	2824.83
752.985	2843.26
753.17	2824.83
753.354	2808.45
753.538	2740.86
753.722	2540.16
753.907	2736.77
754.091	2697.86
754.275	2660.99
754.459	2595.46
754.643	2636.42
754.828	2517.64
755.012	2607.75
755.196	2491.01
755.38	2574.98
755.564	2429.57
755.748	2480.77
755.932	2546.31
756.116	2554.5
756.3	2372.23
756.484	2421.38
756.668	2318.98
756.852	2355.85
757.036	2372.23
757.22	2331.27
757.404	2284.17
757.588	2232.97
757.772	2278.02
757.956	2286.22
758.14	2374.28
758.323	2175.63
758.507	2226.82
758.691	2226.82
758.875	2294.41
759.059	2177.67
759.242	2134.67
759.426	2149
759.61	2118.28
759.794	2134.67
759.977	2124.43
760.161	2126.47
760.345	2167.43
760.528	2075.27
760.712	2067.08
760.895	1913.49
761.079	2149
761.263	2075.27
761.446	1991.31
761.63	2005.64
761.813	2077.32
761.997	1944.2
762.18	1970.83
762.364	2034.32
762.547	1911.44
762.731	1981.07
762.914	1897.1
763.098	1806.99
763.281	1923.73
763.464	1950.35
763.648	1837.71
763.831	1862.29
764.015	1927.82
764.198	1876.62
764.381	1835.66
764.564	1901.2
764.748	1915.53
764.931	1876.62
765.114	1907.34
765.297	1819.28
765.481	1809.04
765.664	1866.38
765.847	1804.94
766.03	1786.51
766.213	1809.04
766.397	1843.85
766.58	1813.13
766.763	1813.13
766.946	1712.78
767.129	1774.22
767.312	1743.5
767.495	1718.93
767.678	1692.3
767.861	1714.83
768.044	1694.35
768.227	1720.98
768.41	1747.6
768.593	1706.64
768.776	1712.78
768.959	1604.24
769.142	1725.07
769.324	1657.49
769.507	1649.3
769.69	1454.74
769.873	1542.8
770.056	1518.23
770.239	1622.67
770.421	1614.48
770.604	1546.9
770.787	1694.35
770.97	1557.14
771.152	1475.22
771.335	1630.87
771.518	1567.38
771.7	1571.47
771.883	1577.62
772.066	1471.12
772.248	1503.89
772.431	1475.22
772.613	1518.23
772.796	1532.56
772.978	1430.16
773.161	1399.45
773.343	1567.38
773.526	1368.73
773.708	1360.53
773.891	1376.92
774.073	1493.65
774.256	1376.92
774.438	1403.54
774.621	1350.29
774.803	1321.62
774.985	1346.2
775.168	1350.29
775.35	1348.25
775.532	1419.92
775.715	1245.85
775.897	1299.09
776.079	1284.76
776.261	1340.05
776.444	1254.04
776.626	1335.96
776.808	1186.46
776.99	1274.52
777.173	1284.76
777.355	1211.03
777.537	1241.75
777.719	1204.89
777.901	1206.94
778.083	1145.5
778.265	1102.49
778.447	1231.51
778.629	1153.69
778.811	1047.19
778.993	1182.36
779.175	1069.72
779.357	1153.69
779.539	1104.54
779.721	1125.02
779.903	1057.43
780.085	1020.57
780.267	1051.29
780.449	1092.25
780.631	1053.34
780.812	1049.24
780.994	1110.68
781.176	1018.52
781.358	955.04
781.54	912.03
781.721	991.9
781.903	1049.24
782.085	909.98
782.267	981.66
782.448	991.9
782.63	912.03
782.812	938.65
782.993	965.28
783.175	963.23
783.357	854.69
783.538	944.8
783.72	918.17
783.901	793.25
784.083	793.25
784.264	842.4
784.446	842.4
784.627	838.3
784.809	852.64
784.99	838.3
785.172	819.87
785.353	776.86
785.535	854.69
785.716	645.79
785.897	817.82
786.079	799.39
786.26	842.4
786.441	764.58
786.623	680.61
786.804	682.66
786.985	717.47
787.167	744.1
787.348	787.1
787.529	717.47
787.71	744.1
787.891	721.57
788.073	819.87
788.254	647.84
788.435	764.58
788.616	725.66
788.797	682.66
788.978	758.43
789.159	721.57
789.34	666.27
789.522	694.94
789.703	678.56
789.884	647.84
790.065	723.62
790.246	733.86
790.427	596.64
790.607	705.18
790.788	705.18
790.969	647.84
791.15	678.56
791.331	621.22
791.512	696.99
791.693	610.98
791.874	639.65
792.054	553.63
792.235	645.79
792.416	604.83
792.597	543.39
792.778	537.25
792.958	602.79
793.139	574.11
793.32	545.44
793.5	473.76
793.681	596.64
793.862	500.39
794.042	580.26
794.223	445.09
794.404	520.87
794.584	475.81
794.765	506.53
794.945	539.3
795.126	541.35
795.306	572.07
795.487	539.3
795.667	600.74
795.848	516.77
796.028	475.81
796.209	453.28
796.389	461.48
796.57	430.76
796.75	424.61
796.93	514.72
797.111	475.81
797.291	543.39
797.471	510.63
797.652	391.84
797.832	443.04
798.012	492.2
798.192	457.38
798.373	457.38
798.553	443.04
798.733	561.83
798.913	463.52
799.093	432.8
799.274	352.93
799.454	520.87
799.634	467.62
799.814	522.91
799.994	463.52
800.174	432.8
800.354	418.47
800.534	494.24
800.714	445.09
800.894	397.99
801.074	408.23
801.254	471.72
801.434	418.47
801.614	375.46
801.794	393.89
801.974	1213.08
802.154	412.32
802.334	463.52
802.514	359.08
802.693	422.56
802.873	412.32
803.053	436.9
803.233	443.04
803.413	354.98
803.592	365.22
803.772	363.17
803.952	367.27
804.131	330.41
804.311	332.45
804.491	397.99
804.67	418.47
804.85	354.98
805.03	295.59
805.209	463.52
805.389	320.17
805.568	367.27
805.748	307.88
805.928	326.31
806.107	412.32
806.287	289.45
806.466	422.56
806.646	412.32
806.825	305.83
807.004	342.69
807.184	389.8
807.363	430.76
807.543	330.41
807.722	326.31
807.901	338.6
808.081	383.65
808.26	180.9
808.439	342.69
808.619	326.31
808.798	301.73
808.977	256.68
809.156	406.18
809.336	369.32
809.515	369.32
809.694	262.82
809.873	320.17
810.052	326.31
810.231	283.3
810.411	266.92
810.59	318.12
810.769	320.17
810.948	293.54
811.127	252.58
811.306	301.73
811.485	217.77
811.664	307.88
811.843	348.84
812.022	256.68
812.201	268.97
812.38	301.73
812.559	221.86
812.737	273.06
812.916	277.16
813.095	219.82
813.274	262.82
813.453	293.54
813.632	246.44
813.811	303.78
813.989	303.78
814.168	260.77
814.347	191.14
814.526	268.97
814.704	318.12
814.883	303.78
815.062	230.06
815.24	303.78
815.419	203.43
815.598	293.54
815.776	271.01
815.955	232.1
816.133	324.26
816.312	281.25
816.49	281.25
816.669	209.58
816.847	250.53
817.026	264.87
817.204	252.58
817.383	244.39
817.561	191.14
817.74	287.4
817.918	250.53
818.097	205.48
818.275	209.58
818.453	287.4
818.632	271.01
818.81	264.87
818.988	178.86
819.167	258.73
819.345	213.67
819.523	168.62
819.701	193.19
819.879	246.44
820.058	238.25
820.236	191.14
820.414	211.62
820.592	273.06
820.77	185
820.948	131.75
821.127	238.25
821.305	172.71
821.483	281.25
821.661	262.82
821.839	221.86
822.017	94.89
822.195	191.14
822.373	223.91
822.551	232.1
822.729	193.19
822.907	154.28
823.085	295.59
823.262	215.72
823.44	117.42
823.618	127.66
823.796	203.43
823.974	219.82
824.152	215.72
824.329	174.76
824.507	156.33
824.685	162.47
824.863	131.75
825.04	199.34
825.218	166.57
825.396	217.77
825.574	240.3
825.751	166.57
825.929	260.77
826.107	131.75
826.284	166.57
826.462	199.34
826.639	193.19
826.817	164.52
826.994	168.62
827.172	189.1
827.349	193.19
827.527	176.81
827.704	148.14
827.882	207.53
828.059	133.8
828.237	121.51
828.414	152.23
828.591	62.12
828.769	162.47
828.946	164.52
829.124	127.66
829.301	189.1
829.478	117.42
829.655	96.94
829.833	195.24
830.01	131.75
830.187	158.38
830.364	162.47
830.542	174.76
830.719	156.33
830.896	162.47
831.073	115.37
831.25	125.61
831.427	154.28
831.604	117.42
831.782	139.94
831.959	217.77
832.136	90.79
832.313	101.03
832.49	105.13
832.667	88.75
832.844	74.41
833.021	103.08
833.198	113.32
833.374	139.94
833.551	146.09
833.728	84.65
833.905	131.75
834.082	12.97
834.259	74.41
834.436	185
834.612	103.08
834.789	144.04
834.966	88.75
835.143	162.47
835.319	51.88
835.496	168.62
835.673	209.58
835.85	137.9
836.026	137.9
836.203	137.9
836.38	191.14
836.556	86.7
836.733	139.94
836.909	197.29
837.086	131.75
837.262	78.51
837.439	150.18
837.616	160.42
837.792	205.48
837.968	115.37
838.145	107.18
838.321	103.08
838.498	58.03
838.674	195.24
838.851	103.08
839.027	64.17
839.203	109.22
839.38	117.42
839.556	74.41
839.732	101.03
839.909	150.18
840.085	129.7
840.261	168.62
840.437	55.98
840.614	88.75
840.79	98.99
840.966	96.94
841.142	64.17
841.318	105.13
841.494	141.99
841.671	119.46
841.847	72.36
842.023	2.73
842.199	164.52
842.375	166.57
842.551	90.79
842.727	58.03
842.903	131.75
843.079	10.92
843.255	127.66
843.431	125.61
843.607	96.94
843.783	27.31
843.959	70.31
844.134	55.98
844.31	109.22
844.486	125.61
844.662	39.59
844.838	96.94
845.013	86.7
845.189	189.1
845.365	45.74
845.541	68.27
845.716	94.89
845.892	127.66
846.068	21.16
846.244	53.93
846.419	133.8
846.595	64.17
846.77	117.42
846.946	29.35
847.122	49.83
847.297	72.36
847.473	107.18
847.648	45.74
847.824	101.03
847.999	10.92
848.175	82.6
848.35	117.42
848.526	70.31
848.701	60.07
848.876	88.75
849.052	82.6
849.227	111.27
849.403	60.07
849.578	90.79
849.753	37.55
849.929	115.37
850.104	78.51
850.279	119.46
850.454	45.74
850.63	170.66
850.805	96.94
850.98	10.92
851.155	117.42
851.33	82.6
851.505	35.5
851.681	96.94
851.856	21.16
852.031	107.18
852.206	94.89
852.381	70.31
852.556	55.98
852.731	72.36
852.906	107.18
853.081	12.97
853.256	72.36
853.431	62.12
853.606	19.11
853.781	27.31
853.956	94.89
854.131	113.32
854.305	88.75
854.48	10.92
854.655	86.7
854.83	25.26
855.005	43.69
855.18	101.03
855.354	64.17
855.529	109.22
855.704	33.45
855.879	8.87
856.053	60.07
856.228	17.07
856.403	4.78
856.577	76.46
856.752	123.56
856.926	-23.89
857.101	135.85
857.276	49.83
857.45	135.85
857.625	47.79
857.799	39.59
857.974	101.03
858.148	-23.89
858.323	27.31
858.497	49.83
858.672	47.79
858.846	72.36
859.02	27.31
859.195	-17.75
859.369	113.32
859.543	49.83
859.718	60.07
859.892	31.4
860.066	6.83
860.241	72.36
860.415	53.93
860.589	47.79
860.763	2.73
860.938	-27.99
861.112	43.69
861.286	62.12
861.46	45.74
861.634	19.11
861.808	105.13
861.982	-32.08
862.157	70.31
862.331	49.83
862.505	23.21
862.679	-32.08
862.853	72.36
863.027	-1.37
863.201	111.27
863.375	51.88
863.549	35.5
863.722	74.41
863.896	137.9
864.07	31.4
864.244	41.64
864.418	51.88
864.592	72.36
864.766	23.21
864.939	68.27
865.113	2.73
865.287	41.64
865.461	35.5
865.634	58.03
865.808	12.97
865.982	0.68
866.156	8.87
866.329	-9.56
866.503	25.26
866.676	64.17
866.85	25.26
867.024	17.07
867.197	45.74
867.371	98.99
867.544	86.7
867.718	31.4
867.891	115.37
868.065	92.84
868.238	23.21
868.412	6.83
868.585	82.6
868.759	58.03
868.932	2.73
869.105	84.65
869.279	25.26
869.452	39.59
869.625	80.55
869.799	53.93
869.972	-13.65
870.145	-3.41
870.319	74.41
870.492	-17.75
870.665	2.73
870.838	-21.85
871.011	-1.37
871.185	55.98
871.358	10.92
871.531	17.07
871.704	78.51
871.877	47.79
872.05	66.22
872.223	41.64
872.396	92.84
872.569	47.79
872.742	-19.8
872.915	0.68
873.088	37.55
873.261	23.21
873.434	21.16
873.607	17.07
873.78	25.26
873.953	43.69
874.126	58.03
874.299	76.46
874.471	53.93
874.644	43.69
874.817	53.93
874.99	47.79
875.163	31.4
875.335	23.21
875.508	55.98
875.681	12.97
875.853	6.83
876.026	72.36
876.199	53.93
876.371	21.16
876.544	-17.75
876.717	-17.75
876.889	-19.8
877.062	23.21
877.234	12.97
877.407	-3.41
877.579	12.97
877.752	-27.99
877.924	58.03
878.097	45.74
878.269	21.16
878.442	41.64
878.614	2.73
878.786	-36.18
878.959	60.07
879.131	92.84
879.303	-40.28
879.476	31.4
879.648	43.69
879.82	29.35
879.993	2.73
880.165	64.17
880.337	-15.7
880.509	45.74
880.681	-34.13
880.854	4.78
881.026	4.78
881.198	133.8
881.37	-9.56
881.542	51.88
881.714	-3.41
881.886	45.74
882.058	19.11
882.23	23.21
882.402	2.73
882.574	37.55
882.746	15.02
882.918	62.12
883.09	41.64
883.262	58.03
883.434	-7.51
883.606	-15.7
883.778	-1.37
883.95	51.88
884.122	21.16
884.293	103.08
884.465	39.59
884.637	2.73
884.809	-15.7
884.98	51.88
885.152	-1.37
885.324	37.55
885.496	-21.85
885.667	-19.8
885.839	6.83
886.011	35.5
886.182	131.75
886.354	96.94
886.525	86.7
886.697	0.68
886.869	0.68
887.04	80.55
887.212	60.07
887.383	55.98
887.555	70.31
887.726	4.78
887.897	45.74
888.069	2.73
888.24	-23.89
888.412	-11.61
888.583	29.35
888.754	37.55
888.926	82.6
889.097	35.5
889.268	23.21
889.44	-13.65
889.611	-9.56
889.782	15.02
889.953	62.12
890.125	131.75
890.296	0.68
890.467	12.97
890.638	-11.61
890.809	45.74
890.98	-46.42
891.151	86.7
891.323	105.13
891.494	45.74
891.665	19.11
891.836	-19.8
892.007	4.78
892.178	62.12
892.349	0.68
892.52	23.21
892.691	-30.04
892.862	-15.7
893.032	47.79
893.203	39.59
893.374	29.35
893.545	53.93
893.716	-19.8
893.887	105.13
894.057	-7.51
894.228	47.79
894.399	-44.37
894.57	103.08
894.74	64.17
894.911	109.22
895.082	-60.76
895.253	39.59
895.423	-5.46
895.594	41.64
895.764	-30.04
895.935	-21.85
896.106	-1.37
896.276	-17.75
896.447	51.88
896.617	-62.8
896.788	31.4
896.958	6.83
897.129	-1.37
897.299	-93.52
897.47	35.5
897.64	12.97
897.81	-21.85
897.981	66.22
898.151	0.68
898.322	-58.71
898.492	25.26
898.662	-11.61
898.832	49.83
899.003	21.16
899.173	-19.8
899.343	-21.85
899.513	-36.18
