Data from USB4F104151__40__12-23-52-439.txt Node

Date: Fri Mar 14 12:23:52 EDT 2025
User: louis
Spectrometer: USB4F10415
Trigger mode: 4
Integration Time (sec): 3.500000E-2
Scans to average: 1
Electric dark correction enabled: true
Nonlinearity correction enabled: false
Boxcar width: 0
XAxis mode: Wavelengths
Number of Pixels in Spectrum: 3648
>>>>>Begin Spectral Data<<<<<
178.204	-155.82
178.424	-155.82
178.644	-155.82
178.864	-47.27
179.084	-159.91
179.304	-10.41
179.524	26.45
179.744	46.93
179.964	32.6
180.184	-41.13
180.404	-4.27
180.624	5.97
180.844	8.02
181.064	-51.37
181.283	34.64
181.503	-22.7
181.723	-24.75
181.943	-73.9
182.163	94.04
182.383	26.45
182.602	34.64
182.822	24.4
183.042	61.27
183.262	20.31
183.482	-8.36
183.701	-43.18
183.921	48.98
184.141	-32.94
184.361	137.04
184.58	12.12
184.8	42.84
185.02	-32.94
185.239	38.74
185.459	34.64
185.679	132.95
185.898	-2.22
186.118	116.56
186.338	22.36
186.557	139.09
186.777	32.6
186.997	81.75
187.216	18.26
187.436	153.43
187.655	67.41
187.875	51.03
188.095	22.36
188.314	98.13
188.534	85.84
188.753	-2.22
188.973	24.4
189.192	65.36
189.412	46.93
189.631	26.45
189.851	36.69
190.07	46.93
190.29	36.69
190.509	48.98
190.729	-4.27
190.948	126.8
191.168	157.52
191.387	67.41
191.607	1.88
191.826	38.74
192.045	81.75
192.265	42.84
192.484	20.31
192.704	32.6
192.923	-12.46
193.142	57.17
193.362	110.42
193.581	112.47
193.8	69.46
194.02	69.46
194.239	46.93
194.458	55.12
194.678	3.93
194.897	26.45
195.116	42.84
195.335	28.5
195.555	48.98
195.774	-10.41
195.993	12.12
196.212	16.21
196.432	-26.79
196.651	-6.31
196.87	-0.17
197.089	85.84
197.308	100.18
197.528	85.84
197.747	-41.13
197.966	65.36
198.185	42.84
198.404	30.55
198.623	26.45
198.842	53.08
199.062	96.08
199.281	71.51
199.5	34.64
199.719	-16.55
199.938	30.55
200.157	137.04
200.376	34.64
200.595	28.5
200.814	22.36
201.033	-45.23
201.252	55.12
201.471	-0.17
201.69	87.89
201.909	96.08
202.128	98.13
202.347	8.02
202.566	-24.75
202.785	8.02
203.004	22.36
203.223	126.8
203.442	34.64
203.661	-14.51
203.879	44.88
204.098	53.08
204.317	38.74
204.536	53.08
204.755	55.12
204.974	42.84
205.193	48.98
205.411	71.51
205.63	-24.75
205.849	114.52
206.068	61.27
206.287	-20.65
206.505	8.02
206.724	28.5
206.943	30.55
207.162	22.36
207.381	34.64
207.599	8.02
207.818	32.6
208.037	18.26
208.255	34.64
208.474	81.75
208.693	30.55
208.911	-47.27
209.13	22.36
209.349	83.8
209.567	53.08
209.786	57.17
210.005	44.88
210.223	42.84
210.442	-18.6
210.661	-22.7
210.879	-30.89
211.098	24.4
211.316	57.17
211.535	141.14
211.753	59.22
211.972	16.21
212.191	26.45
212.409	30.55
212.628	51.03
212.846	-24.75
213.065	51.03
213.283	59.22
213.502	75.6
213.72	38.74
213.938	-24.75
214.157	46.93
214.375	22.36
214.594	83.8
214.812	-6.31
215.031	-34.99
215.249	5.97
215.467	44.88
215.686	94.04
215.904	46.93
216.122	34.64
216.341	77.65
216.559	61.27
216.778	79.7
216.996	32.6
217.214	-41.13
217.432	-6.31
217.651	-10.41
217.869	85.84
218.087	-14.51
218.306	-10.41
218.524	16.21
218.742	5.97
218.96	118.61
219.179	1.88
219.397	46.93
219.615	77.65
219.833	38.74
220.051	-28.84
220.27	40.79
220.488	-6.31
220.706	26.45
220.924	-6.31
221.142	-26.79
221.36	40.79
221.578	46.93
221.796	8.02
222.015	87.89
222.233	26.45
222.451	34.64
222.669	14.17
222.887	-28.84
223.105	34.64
223.323	-28.84
223.541	8.02
223.759	98.13
223.977	30.55
224.195	73.56
224.413	104.28
224.631	104.28
224.849	63.32
225.067	36.69
225.285	53.08
225.503	44.88
225.721	-71.85
225.939	98.13
226.157	51.03
226.375	180.05
226.592	3.93
226.81	44.88
227.028	24.4
227.246	102.23
227.464	40.79
227.682	-0.17
227.9	26.45
228.117	-0.17
228.335	87.89
228.553	51.03
228.771	22.36
228.989	91.99
229.206	18.26
229.424	-8.36
229.642	69.46
229.86	59.22
230.077	16.21
230.295	48.98
230.513	71.51
230.731	106.32
230.948	79.7
231.166	61.27
231.384	-22.7
231.601	61.27
231.819	63.32
232.037	44.88
232.254	-67.75
232.472	-10.41
232.689	-6.31
232.907	63.32
233.125	24.4
233.342	16.21
233.56	-77.99
233.777	20.31
233.995	18.26
234.213	106.32
234.43	8.02
234.648	18.26
234.865	79.7
235.083	75.6
235.3	20.31
235.518	14.17
235.735	89.94
235.953	28.5
236.17	28.5
236.388	71.51
236.605	24.4
236.822	42.84
237.04	30.55
237.257	34.64
237.475	71.51
237.692	16.21
237.909	-0.17
238.127	-10.41
238.344	28.5
238.562	73.56
238.779	3.93
238.996	16.21
239.214	-12.46
239.431	102.23
239.648	20.31
239.865	89.94
240.083	106.32
240.3	-10.41
240.517	116.56
240.735	-16.55
240.952	63.32
241.169	73.56
241.386	73.56
241.603	20.31
241.821	-16.55
242.038	24.4
242.255	48.98
242.472	-53.42
242.689	94.04
242.907	79.7
243.124	-18.6
243.341	14.17
243.558	28.5
243.775	18.26
243.992	89.94
244.209	51.03
244.426	57.17
244.643	51.03
244.86	26.45
245.078	20.31
245.295	65.36
245.512	18.26
245.729	16.21
245.946	14.17
246.163	110.42
246.38	91.99
246.597	20.31
246.814	42.84
247.031	20.31
247.248	67.41
247.464	22.36
247.681	38.74
247.898	24.4
248.115	36.69
248.332	40.79
248.549	44.88
248.766	32.6
248.983	57.17
249.2	40.79
249.417	94.04
249.633	69.46
249.85	-16.55
250.067	32.6
250.284	75.6
250.501	120.66
250.717	96.08
250.934	10.07
251.151	63.32
251.368	18.26
251.585	32.6
251.801	59.22
252.018	32.6
252.235	30.55
252.451	12.12
252.668	-24.75
252.885	57.17
253.102	51.03
253.318	36.69
253.535	1.88
253.752	38.74
253.968	10.07
254.185	16.21
254.401	-8.36
254.618	114.52
254.835	63.32
255.051	5.97
255.268	-49.32
255.484	38.74
255.701	3.93
255.917	57.17
256.134	-22.7
256.351	40.79
256.567	32.6
256.784	-43.18
257	-26.79
257.217	10.07
257.433	59.22
257.65	1.88
257.866	79.7
258.082	-39.08
258.299	71.51
258.515	63.32
258.732	-75.95
258.948	-18.6
259.165	67.41
259.381	5.97
259.597	79.7
259.814	51.03
260.03	18.26
260.246	-32.94
260.463	157.52
260.679	16.21
260.895	73.56
261.112	28.5
261.328	44.88
261.544	57.17
261.761	85.84
261.977	-24.75
262.193	40.79
262.409	63.32
262.626	5.97
262.842	30.55
263.058	85.84
263.274	46.93
263.49	28.5
263.707	30.55
263.923	73.56
264.139	-12.46
264.355	67.41
264.571	124.76
264.787	24.4
265.004	149.33
265.22	24.4
265.436	-0.17
265.652	61.27
265.868	61.27
266.084	-0.17
266.3	77.65
266.516	-18.6
266.732	118.61
266.948	44.88
267.164	100.18
267.38	12.12
267.596	83.8
267.812	61.27
268.028	-8.36
268.244	-30.89
268.46	120.66
268.676	14.17
268.892	91.99
269.108	28.5
269.324	-30.89
269.54	8.02
269.756	126.8
269.972	5.97
270.188	65.36
270.403	-0.17
270.619	44.88
270.835	85.84
271.051	-30.89
271.267	8.02
271.483	30.55
271.698	57.17
271.914	91.99
272.13	38.74
272.346	10.07
272.562	53.08
272.777	98.13
272.993	36.69
273.209	-14.51
273.425	55.12
273.64	30.55
273.856	28.5
274.072	-8.36
274.287	51.03
274.503	8.02
274.719	48.98
274.934	75.6
275.15	-8.36
275.366	71.51
275.581	-10.41
275.797	53.08
276.012	55.12
276.228	46.93
276.444	-2.22
276.659	91.99
276.875	12.12
277.09	77.65
277.306	85.84
277.521	79.7
277.737	8.02
277.952	122.71
278.168	28.5
278.383	57.17
278.599	-10.41
278.814	-0.17
279.03	-2.22
279.245	87.89
279.461	18.26
279.676	85.84
279.892	-59.56
280.107	-2.22
280.322	30.55
280.538	3.93
280.753	87.89
280.969	16.21
281.184	3.93
281.399	57.17
281.615	-26.79
281.83	38.74
282.045	48.98
282.26	-0.17
282.476	51.03
282.691	112.47
282.906	55.12
283.122	48.98
283.337	85.84
283.552	96.08
283.767	30.55
283.983	81.75
284.198	61.27
284.413	-4.27
284.628	-26.79
284.843	71.51
285.058	18.26
285.274	-8.36
285.489	-6.31
285.704	46.93
285.919	40.79
286.134	57.17
286.349	77.65
286.564	48.98
286.779	96.08
286.995	75.6
287.21	-2.22
287.425	53.08
287.64	85.84
287.855	69.46
288.07	-0.17
288.285	91.99
288.5	120.66
288.715	108.37
288.93	32.6
289.145	38.74
289.36	-10.41
289.575	55.12
289.79	71.51
290.004	24.4
290.219	77.65
290.434	-10.41
290.649	10.07
290.864	14.17
291.079	32.6
291.294	-2.22
291.509	42.84
291.724	14.17
291.938	1.88
292.153	116.56
292.368	-41.13
292.583	26.45
292.798	40.79
293.012	30.55
293.227	-22.7
293.442	67.41
293.657	91.99
293.871	81.75
294.086	26.45
294.301	143.19
294.516	112.47
294.73	67.41
294.945	-2.22
295.16	42.84
295.374	139.09
295.589	96.08
295.804	22.36
296.018	71.51
296.233	44.88
296.447	69.46
296.662	24.4
296.877	59.22
297.091	44.88
297.306	38.74
297.52	28.5
297.735	14.17
297.949	-28.84
298.164	32.6
298.378	98.13
298.593	36.69
298.807	22.36
299.022	73.56
299.236	-4.27
299.451	32.6
299.665	22.36
299.88	38.74
300.094	147.28
300.309	94.04
300.523	73.56
300.737	-18.6
300.952	61.27
301.166	42.84
301.381	-0.17
301.595	-2.22
301.809	16.21
302.024	38.74
302.238	10.07
302.452	53.08
302.667	73.56
302.881	48.98
303.095	28.5
303.309	55.12
303.524	63.32
303.738	28.5
303.952	-4.27
304.166	51.03
304.381	10.07
304.595	28.5
304.809	10.07
305.023	16.21
305.237	61.27
305.452	26.45
305.666	40.79
305.88	75.6
306.094	98.13
306.308	59.22
306.522	135
306.736	108.37
306.95	34.64
307.164	44.88
307.379	40.79
307.593	81.75
307.807	-8.36
308.021	108.37
308.235	55.12
308.449	-8.36
308.663	20.31
308.877	151.38
309.091	71.51
309.305	32.6
309.519	10.07
309.733	89.94
309.947	-32.94
310.161	48.98
310.374	73.56
310.588	57.17
310.802	32.6
311.016	8.02
311.23	-8.36
311.444	38.74
311.658	-4.27
311.872	67.41
312.085	98.13
312.299	120.66
312.513	75.6
312.727	91.99
312.941	53.08
313.154	-6.31
313.368	89.94
313.582	30.55
313.796	128.85
314.009	67.41
314.223	36.69
314.437	91.99
314.651	48.98
314.864	5.97
315.078	28.5
315.292	28.5
315.505	71.51
315.719	77.65
315.933	87.89
316.146	8.02
316.36	22.36
316.573	110.42
316.787	104.28
317.001	48.98
317.214	112.47
317.428	28.5
317.641	18.26
317.855	36.69
318.068	34.64
318.282	46.93
318.495	122.71
318.709	14.17
318.922	-28.84
319.136	114.52
319.349	-14.51
319.563	16.21
319.776	61.27
319.99	42.84
320.203	65.36
320.417	94.04
320.63	63.32
320.843	137.04
321.057	46.93
321.27	63.32
321.483	26.45
321.697	57.17
321.91	79.7
322.124	-18.6
322.337	106.32
322.55	-24.75
322.763	98.13
322.977	67.41
323.19	-12.46
323.403	10.07
323.617	91.99
323.83	94.04
324.043	36.69
324.256	32.6
324.469	5.97
324.683	171.86
324.896	57.17
325.109	12.12
325.322	-34.99
325.535	126.8
325.748	3.93
325.962	12.12
326.175	69.46
326.388	26.45
326.601	75.6
326.814	3.93
327.027	46.93
327.24	69.46
327.453	18.26
327.666	48.98
327.879	108.37
328.092	-14.51
328.305	48.98
328.518	34.64
328.731	36.69
328.944	67.41
329.157	83.8
329.37	20.31
329.583	91.99
329.796	32.6
330.009	16.21
330.222	34.64
330.435	57.17
330.648	-4.27
330.861	-41.13
331.073	32.6
331.286	46.93
331.499	3.93
331.712	8.02
331.925	98.13
332.138	26.45
332.35	71.51
332.563	69.46
332.776	75.6
332.989	-20.65
333.202	114.52
333.414	-16.55
333.627	57.17
333.84	-57.51
334.053	42.84
334.265	57.17
334.478	40.79
334.691	87.89
334.903	98.13
335.116	3.93
335.329	24.4
335.541	61.27
335.754	96.08
335.966	38.74
336.179	69.46
336.392	36.69
336.604	44.88
336.817	61.27
337.029	75.6
337.242	22.36
337.454	126.8
337.667	51.03
337.88	30.55
338.092	73.56
338.305	32.6
338.517	16.21
338.729	106.32
338.942	32.6
339.154	-8.36
339.367	20.31
339.579	28.5
339.792	53.08
340.004	71.51
340.217	44.88
340.429	28.5
340.641	38.74
340.854	122.71
341.066	8.02
341.278	46.93
341.491	100.18
341.703	34.64
341.915	12.12
342.128	73.56
342.34	61.27
342.552	10.07
342.764	38.74
342.977	8.02
343.189	106.32
343.401	81.75
343.613	-61.61
343.826	149.33
344.038	8.02
344.25	-0.17
344.462	32.6
344.674	53.08
344.886	57.17
345.099	18.26
345.311	1.88
345.523	51.03
345.735	63.32
345.947	51.03
346.159	20.31
346.371	61.27
346.583	51.03
346.795	143.19
347.007	46.93
347.219	57.17
347.431	-0.17
347.643	98.13
347.855	42.84
348.067	20.31
348.279	-43.18
348.491	51.03
348.703	8.02
348.915	34.64
349.127	32.6
349.339	44.88
349.551	-47.27
349.763	5.97
349.975	69.46
350.187	149.33
350.399	120.66
350.61	124.76
350.822	57.17
351.034	48.98
351.246	85.84
351.458	36.69
351.669	51.03
351.881	135
352.093	77.65
352.305	34.64
352.517	100.18
352.728	71.51
352.94	104.28
353.152	59.22
353.363	85.84
353.575	-67.75
353.787	155.47
353.999	65.36
354.21	126.8
354.422	65.36
354.633	-30.89
354.845	114.52
355.057	135
355.268	122.71
355.48	94.04
355.692	-43.18
355.903	42.84
356.115	22.36
356.326	-30.89
356.538	124.76
356.749	-34.99
356.961	165.71
357.172	63.32
357.384	30.55
357.595	178
357.807	34.64
358.018	42.84
358.23	48.98
358.441	143.19
358.653	20.31
358.864	3.93
359.075	85.84
359.287	53.08
359.498	38.74
359.709	126.8
359.921	26.45
360.132	57.17
360.344	26.45
360.555	-14.51
360.766	98.13
360.977	44.88
361.189	122.71
361.4	69.46
361.611	3.93
361.823	65.36
362.034	51.03
362.245	40.79
362.456	106.32
362.667	114.52
362.879	30.55
363.09	132.95
363.301	53.08
363.512	10.07
363.723	81.75
363.935	42.84
364.146	100.18
364.357	122.71
364.568	98.13
364.779	-51.37
364.99	137.04
365.201	-18.6
365.412	114.52
365.623	36.69
365.834	87.89
366.045	67.41
366.256	40.79
366.467	44.88
366.678	32.6
366.889	42.84
367.1	83.8
367.311	28.5
367.522	48.98
367.733	30.55
367.944	34.64
368.155	48.98
368.366	8.02
368.577	55.12
368.788	100.18
368.999	-10.41
369.209	26.45
369.42	91.99
369.631	196.43
369.842	14.17
370.053	30.55
370.264	114.52
370.474	65.36
370.685	94.04
370.896	67.41
371.107	108.37
371.317	16.21
371.528	34.64
371.739	69.46
371.95	14.17
372.16	102.23
372.371	-14.51
372.582	73.56
372.792	10.07
373.003	34.64
373.214	122.71
373.424	20.31
373.635	38.74
373.846	83.8
374.056	26.45
374.267	38.74
374.477	87.89
374.688	-4.27
374.898	38.74
375.109	75.6
375.319	24.4
375.53	28.5
375.74	67.41
375.951	26.45
376.161	85.84
376.372	16.21
376.582	36.69
376.793	104.28
377.003	48.98
377.214	100.18
377.424	137.04
377.635	48.98
377.845	89.94
378.055	69.46
378.266	10.07
378.476	26.45
378.686	73.56
378.897	28.5
379.107	24.4
379.317	20.31
379.528	-26.79
379.738	81.75
379.948	-22.7
380.158	98.13
380.369	53.08
380.579	38.74
380.789	77.65
380.999	67.41
381.21	44.88
381.42	89.94
381.63	59.22
381.84	75.6
382.05	16.21
382.261	98.13
382.471	89.94
382.681	71.51
382.891	3.93
383.101	77.65
383.311	55.12
383.521	34.64
383.731	30.55
383.941	94.04
384.151	63.32
384.361	108.37
384.571	-6.31
384.781	20.31
384.991	106.32
385.201	114.52
385.411	61.27
385.621	73.56
385.831	71.51
386.041	96.08
386.251	3.93
386.461	16.21
386.671	85.84
386.881	87.89
387.091	12.12
387.301	48.98
387.511	-4.27
387.72	83.8
387.93	73.56
388.14	83.8
388.35	10.07
388.56	135
388.769	159.57
388.979	79.7
389.189	85.84
389.399	77.65
389.609	55.12
389.818	81.75
390.028	38.74
390.238	108.37
390.447	77.65
390.657	98.13
390.867	30.55
391.076	44.88
391.286	44.88
391.496	75.6
391.705	14.17
391.915	77.65
392.125	85.84
392.334	57.17
392.544	122.71
392.753	77.65
392.963	14.17
393.172	98.13
393.382	73.56
393.591	190.29
393.801	3.93
394.01	122.71
394.22	69.46
394.429	89.94
394.639	65.36
394.848	59.22
395.058	108.37
395.267	67.41
395.477	34.64
395.686	87.89
395.895	132.95
396.105	173.91
396.314	94.04
396.524	89.94
396.733	96.08
396.942	94.04
397.152	167.76
397.361	100.18
397.57	116.56
397.78	165.71
397.989	132.95
398.198	102.23
398.407	116.56
398.617	40.79
398.826	46.93
399.035	89.94
399.244	81.75
399.453	57.17
399.663	145.24
399.872	94.04
400.081	188.24
400.29	128.85
400.499	128.85
400.708	141.14
400.917	116.56
401.127	124.76
401.336	83.8
401.545	147.28
401.754	143.19
401.963	128.85
402.172	130.9
402.381	77.65
402.59	124.76
402.799	98.13
403.008	122.71
403.217	165.71
403.426	163.67
403.635	96.08
403.844	51.03
404.053	104.28
404.262	151.38
404.471	214.87
404.68	184.15
404.888	198.48
405.097	182.1
405.306	61.27
405.515	178
405.724	100.18
405.933	202.58
406.142	173.91
406.35	186.19
406.559	104.28
406.768	239.44
406.977	182.1
407.185	186.19
407.394	251.73
407.603	116.56
407.812	212.82
408.02	257.87
408.229	198.48
408.438	239.44
408.646	247.63
408.855	202.58
409.064	352.08
409.272	180.05
409.481	315.22
409.69	272.21
409.898	321.36
410.107	327.5
410.315	274.26
410.524	347.98
410.733	358.22
410.941	245.59
411.15	376.66
411.358	317.26
411.567	452.43
411.775	352.08
411.984	358.22
412.192	509.77
412.401	454.48
412.609	485.2
412.818	558.92
413.026	427.85
413.234	440.14
413.443	485.2
413.651	497.49
413.86	571.21
414.068	630.6
414.276	630.6
414.485	538.45
414.693	630.6
414.901	728.91
415.11	669.52
415.318	739.15
415.526	698.19
415.734	722.76
415.943	767.82
416.151	792.39
416.359	905.03
416.567	788.3
416.776	829.26
416.984	853.83
417.192	1005.38
417.4	913.22
417.608	943.94
417.817	974.66
418.025	952.13
418.233	1054.53
418.441	1089.35
418.649	1142.6
418.857	1316.67
419.065	1230.66
419.273	1191.75
419.481	1337.15
419.689	1328.96
419.897	1390.4
420.105	1492.8
420.313	1433.41
420.521	1548.09
420.729	1474.37
420.937	1611.58
421.145	1548.09
421.353	1740.6
421.561	1888.06
421.769	1857.34
421.977	1918.78
422.185	1996.6
422.393	1900.34
422.601	2088.76
422.809	2101.05
423.017	2107.19
423.224	2242.36
423.432	2367.28
423.64	2436.91
423.848	2684.72
424.056	2498.35
424.263	2664.24
424.471	2735.92
424.679	2688.81
424.887	2955.05
425.094	2959.14
425.302	2883.37
425.51	3047.21
425.718	3178.28
425.925	3252
426.133	3352.35
426.341	3581.73
426.548	3735.32
426.756	3542.82
426.964	3733.28
427.171	3743.52
427.379	4130.58
427.586	4110.1
427.794	4058.9
428.001	4458.26
428.209	4630.29
428.417	4525.84
428.624	4839.18
428.832	4849.42
429.039	4910.86
429.247	4873.99
429.454	5156.61
429.662	5789.44
429.869	5302.02
430.076	5572.35
430.284	5459.71
430.491	5744.38
430.699	6209.27
430.906	6096.63
431.114	6125.3
431.321	6407.92
431.528	6389.49
431.736	6973.16
431.943	7145.19
432.15	6995.69
432.358	7034.6
432.565	7470.82
432.772	7411.43
432.979	7743.2
433.187	7835.36
433.394	8015.58
433.601	8537.81
433.808	8697.55
434.016	8574.67
434.223	8996.56
434.43	9633.47
434.637	9129.67
434.844	9742.02
435.052	9950.91
435.259	9993.92
435.466	10041.02
435.673	10024.64
435.88	10567.35
436.087	11173.55
436.294	11112.11
436.501	10858.16
436.708	11208.36
436.915	11529.89
437.122	12074.65
437.329	11927.2
437.537	12506.77
437.743	12588.69
437.95	12418.71
438.157	13192.84
438.364	13471.37
438.571	13549.19
438.778	13772.42
438.985	14896.75
439.192	14272.12
439.399	14978.67
439.606	14472.82
439.813	15525.48
440.02	16299.61
440.227	15922.79
440.433	15668.84
440.64	16479.83
440.847	16410.2
441.054	16549.46
441.261	17628.74
441.467	17505.87
441.674	17886.79
441.881	18345.53
442.088	18462.27
442.294	18521.66
442.501	19013.17
442.708	19303.98
442.914	20074.02
443.121	20659.74
443.328	20272.67
443.534	21724.68
443.741	21204.5
443.948	20758.04
444.154	22648.32
444.361	22148.61
444.568	22210.05
444.774	22414.85
444.981	22709.75
445.187	23082.49
445.394	24061.41
445.6	23813.61
445.807	26377.67
446.013	25034.2
446.22	25624.01
446.426	26500.54
446.633	26815.93
446.839	27731.37
447.046	26441.15
447.252	28218.79
447.459	27993.51
447.665	27999.66
447.871	29369.75
448.078	30469.51
448.284	28941.72
448.491	30096.78
448.697	31032.7
448.903	31833.46
449.11	31563.12
449.316	30887.29
449.522	31808.88
449.728	32261.48
449.935	32660.83
450.141	32914.78
450.347	33832.27
450.553	32437.61
450.76	32779.62
450.966	33981.77
451.172	33533.27
451.378	34463.05
451.584	33916.24
451.791	34692.42
451.997	34542.92
452.203	35216.7
452.409	35032.38
452.615	34770.24
452.821	33242.46
453.027	33314.14
453.233	34792.77
453.44	33629.52
453.646	33766.74
453.852	34155.85
454.058	34561.35
454.264	33719.63
454.47	34360.65
454.676	33293.66
454.882	34489.67
455.088	31761.78
455.294	31772.02
455.5	32847.2
455.705	32566.63
455.911	31323.51
456.117	31047.04
456.323	30387.59
456.529	28775.84
456.735	30029.2
456.941	29625.75
457.147	28634.53
457.352	28050.86
457.558	27448.75
457.764	27884.97
457.97	27051.45
458.176	26537.41
458.381	26459.59
458.587	25198.04
458.793	25277.91
458.999	23866.86
459.204	25718.22
459.41	24944.09
459.616	23264.75
459.821	23168.5
460.027	23031.29
460.233	22447.61
460.438	21392.91
460.644	21845.51
460.85	20618.78
461.055	20377.12
461.261	20268.58
461.466	18654.78
461.672	18355.77
461.878	19813.93
462.083	18099.78
462.289	17931.84
462.494	17749.57
462.7	16907.86
462.905	16688.73
463.111	16885.33
463.316	17196.62
463.522	16787.03
463.727	16895.57
463.932	16684.63
464.138	16428.63
464.343	16629.34
464.549	16193.12
464.754	16660.06
464.959	16604.76
465.165	16490.07
465.37	15703.65
465.575	15400.55
465.781	16051.81
465.986	16135.78
466.191	15599.21
466.397	15107.69
466.602	14153.34
466.807	14937.71
467.012	14978.67
467.218	15013.49
467.423	14947.95
467.628	14917.23
467.833	15328.88
468.038	15033.97
468.244	14528.12
468.449	15007.34
468.654	14532.22
468.859	14460.54
469.064	14495.35
469.269	13903.49
469.474	13799.04
469.679	14075.52
469.885	13846.15
470.09	13989.5
470.295	13993.6
470.5	13188.75
470.705	13567.62
470.91	13338.25
471.115	13211.28
471.32	13524.61
471.525	13393.54
471.73	12854.93
471.935	12975.76
472.139	12301.98
472.344	12424.86
472.549	12654.23
472.754	12420.76
472.959	12080.8
473.164	11775.65
473.369	11949.73
473.574	12140.19
473.778	11894.43
473.983	11990.69
474.188	11882.14
474.393	11163.31
474.598	11499.17
474.802	11304.62
475.007	11065
475.212	11163.31
475.417	10622.64
475.621	10925.74
475.826	10718.9
476.031	10581.68
476.235	10282.68
476.44	10503.86
476.645	10290.87
476.849	10374.84
477.054	10194.62
477.259	10088.12
477.463	10196.67
477.668	10026.68
477.872	9905.85
478.077	9834.18
478.282	9610.95
478.486	9457.35
478.691	9516.74
478.895	9436.87
479.1	9344.71
479.304	9058
479.509	8992.46
479.713	9316.04
479.918	9119.43
480.122	8924.88
480.326	9113.29
480.531	8994.51
480.735	8965.84
480.94	8840.91
481.144	9156.3
481.348	8683.22
481.553	8838.86
481.757	8519.38
481.961	8890.06
482.166	8908.49
482.37	8718.03
482.574	8617.68
482.778	8668.88
482.983	8914.64
483.187	8822.48
483.391	8806.09
483.595	8675.02
483.8	8650.45
484.004	8869.58
484.208	8824.53
484.412	8476.37
484.616	8814.29
484.821	8650.45
485.025	8470.23
485.229	8644.31
485.433	8535.76
485.637	8761.04
485.841	8752.85
486.045	8509.14
486.249	8605.39
486.453	8730.32
486.657	8654.55
486.861	8742.61
487.065	8480.47
487.269	8580.82
487.473	8423.12
487.677	8621.78
487.881	8634.07
488.085	8568.53
488.289	8677.07
488.493	8726.22
488.697	8556.24
488.901	8752.85
489.105	8677.07
489.309	8613.59
489.512	8939.21
489.716	8988.36
489.92	8713.94
490.124	8840.91
490.328	8986.32
490.531	8974.03
490.735	8941.26
490.939	8955.6
491.143	9084.62
491.346	8967.88
491.55	8974.03
491.754	9113.29
491.958	9291.46
492.161	8953.55
492.365	9281.22
492.569	9182.92
492.772	9244.36
492.976	9156.3
493.18	9375.43
493.383	9369.29
493.587	9561.8
493.79	9612.99
493.994	9496.26
494.197	9584.32
494.401	9641.67
494.605	9516.74
494.808	9905.85
495.012	9973.44
495.215	9840.32
495.419	10190.52
495.622	9914.05
495.825	9977.53
496.029	10112.7
496.232	10348.22
496.436	10350.26
496.639	10503.86
496.843	10305.21
497.046	10544.82
497.249	10755.76
497.453	10929.84
497.656	11157.16
497.859	10782.38
498.063	11300.52
498.266	11210.41
498.469	11355.82
498.673	11339.43
498.876	11533.99
499.079	11779.75
499.282	11658.92
499.485	12070.56
499.689	11890.34
499.892	12215.96
500.095	12230.3
500.298	12703.38
500.501	12463.77
500.705	12861.07
500.908	13065.87
501.111	13131.4
501.314	13262.47
501.517	13377.16
501.72	13461.13
501.923	13491.85
502.126	13940.35
502.329	13885.06
502.532	14052.99
502.735	14141.05
502.938	14405.24
503.141	14450.3
503.344	15048.3
503.547	14968.43
503.75	15089.26
503.953	15355.5
504.156	15474.28
504.359	15650.41
504.562	15695.46
504.765	15969.89
504.968	16313.95
505.17	16322.14
505.373	16402.01
505.576	16744.02
505.779	17010.26
505.982	16868.95
506.185	17260.11
506.387	17290.83
506.59	17452.62
506.793	17980.99
506.996	17806.92
507.198	18300.48
507.401	18228.8
507.604	18452.03
507.807	18828.85
508.009	19117.62
508.212	18998.84
508.415	19254.83
508.617	19758.63
508.82	19734.06
509.022	19549.74
509.225	20334.11
509.428	20424.22
509.63	20590.11
509.833	20633.11
510.035	21188.11
510.238	21022.23
510.44	21345.81
510.643	21734.92
510.845	21982.73
511.048	22042.12
511.25	22238.72
511.453	22427.14
511.655	23213.56
511.858	23227.89
512.06	22930.94
512.262	23553.52
512.465	23373.3
512.667	23694.83
512.87	24294.88
513.072	24405.47
513.274	24681.95
513.477	24927.7
513.679	25159.13
513.881	25703.89
514.084	26072.52
514.286	25726.41
514.488	26375.62
514.69	27164.09
514.893	26807.74
515.095	26992.06
515.297	27424.18
515.499	27600.3
515.701	27624.88
515.904	28327.33
516.106	28147.11
516.308	28835.23
516.51	28904.86
516.712	28857.76
516.914	29638.03
517.116	30010.76
517.318	30008.72
517.52	30016.91
517.722	29986.19
517.925	30672.26
518.127	31350.13
518.329	31796.59
518.531	31796.59
518.733	32284.01
518.935	32226.67
519.136	32533.86
519.338	32961.89
519.54	33578.32
519.742	33473.88
519.944	33469.78
520.146	34436.42
520.348	34196.81
520.55	34807.11
520.752	34710.85
520.954	35573.05
521.155	35310.91
521.357	35802.42
521.559	36035.89
521.761	36685.09
521.963	36625.7
522.164	36877.6
522.366	37356.83
522.568	37453.08
522.77	37707.03
522.971	38331.66
523.173	37977.36
523.375	38575.37
523.576	38333.71
523.778	38659.34
523.98	39093.5
524.181	39165.18
524.383	39154.94
524.584	39978.23
524.786	40002.8
524.988	39601.4
525.189	40639.72
525.391	40905.96
525.592	40754.41
525.794	41278.69
525.995	41358.56
526.197	41196.77
526.398	41235.68
526.6	41958.61
526.801	41972.95
527.003	42130.64
527.204	42372.3
527.406	42814.66
527.607	42573
527.808	43297.98
528.01	42597.58
528.211	43031.75
528.412	43631.8
528.614	43861.18
528.815	43404.48
529.016	43877.56
529.218	43578.56
529.419	43744.44
529.62	44446.9
529.822	43816.12
530.023	44483.76
530.224	44330.16
530.425	44104.88
530.626	44090.55
530.828	44530.86
531.029	45024.42
531.23	44575.92
531.431	44602.54
531.632	45096.1
531.833	44930.22
532.035	45358.24
532.236	44993.7
532.437	45288.61
532.638	44879.02
532.839	45665.44
533.04	45229.22
533.241	44162.23
533.442	45802.65
533.643	45710.49
533.844	45470.88
534.045	45458.59
534.246	45323.43
534.447	45515.93
534.648	45583.52
534.849	45391.01
535.05	45337.76
535.251	45487.26
535.451	45671.58
535.652	45567.13
535.853	46220.44
536.054	45753.5
536.255	45837.47
536.456	45302.95
536.657	45991.06
536.857	45601.95
537.058	45485.22
537.259	46115.99
537.46	45960.34
537.66	45835.42
537.861	45823.13
538.062	45483.17
538.263	45855.9
538.463	45857.95
538.664	45569.18
538.865	45556.89
539.065	45923.48
539.266	45354.15
539.466	46578.83
539.667	45302.95
539.868	46288.02
540.068	45890.71
540.269	45472.93
540.469	46202
540.67	45778.07
540.87	45872.28
541.071	45886.62
541.271	46228.63
541.472	45751.45
541.672	45505.69
541.873	45919.38
542.073	45010.09
542.274	46105.75
542.474	45943.96
542.675	45157.54
542.875	46509.2
543.075	45309.09
543.276	45350.05
543.476	46023.83
543.676	45302.95
543.877	46163.09
544.077	45401.25
544.277	45497.5
544.478	45423.78
544.678	45720.73
544.878	45792.41
545.078	45767.83
545.279	45651.1
545.479	45278.37
545.679	45481.12
545.879	45182.12
546.079	45384.86
546.28	45489.31
546.48	44752.04
546.68	45497.5
546.88	45630.62
547.08	45296.8
547.28	45546.65
547.48	45157.54
547.68	45499.55
547.88	45022.37
548.081	45495.46
548.281	45792.41
548.481	45315.23
548.681	45304.99
548.881	45190.31
549.081	45382.82
549.28	44862.63
549.48	45550.75
549.68	45231.27
549.88	45993.11
550.08	45053.09
550.28	45341.86
550.48	45370.53
550.68	45610.14
550.88	44862.63
551.08	44924.07
551.279	45366.43
551.479	44864.68
551.679	45284.51
551.879	44704.94
552.079	45264.03
552.278	44864.68
552.478	44870.82
552.678	45366.43
552.878	45255.84
553.077	45079.72
553.277	44704.94
553.477	45098.15
553.676	44397.74
553.876	45030.57
554.076	45040.81
554.275	44623.02
554.475	44702.89
554.674	44641.45
554.874	44741.8
555.074	44268.72
555.273	44389.55
555.473	44651.69
555.672	44461.23
555.872	44715.18
556.071	44602.54
556.271	44940.46
556.47	43998.39
556.67	43760.83
556.869	44031.16
557.068	44137.65
557.268	43900.09
557.467	44379.31
557.667	43826.36
557.866	44299.44
558.065	43820.22
558.265	43533.5
558.464	43533.5
558.663	43939
558.863	43629.76
559.062	44151.99
559.261	43582.65
559.461	43977.91
559.66	43209.92
559.859	43304.13
560.058	43310.27
560.258	43599.04
560.457	42640.59
560.656	43666.62
560.855	43113.67
561.054	43300.03
561.253	42904.77
561.453	42503.37
561.652	42646.73
561.851	42777.8
562.05	42306.77
562.249	42140.88
562.448	42382.54
562.647	42044.63
562.846	42165.46
563.045	42380.49
563.244	41796.82
563.443	42265.81
563.642	41604.31
563.841	41753.82
564.04	41372.89
564.239	41915.61
564.438	41409.76
564.637	41422.05
564.836	41405.66
565.035	41057.51
565.234	41323.74
565.432	40858.85
565.631	41020.64
565.83	41028.84
566.029	40692.97
566.228	40584.43
566.427	40086.77
566.625	40195.31
566.824	40000.75
567.023	40506.6
567.222	39523.58
567.42	40672.49
567.619	39943.41
567.818	39755
568.016	39396.6
568.215	40049.91
568.414	39447.8
568.612	39361.79
568.811	39042.31
569.01	39056.64
569.208	38610.18
569.407	39075.07
569.605	39081.22
569.804	38948.1
570.002	38378.76
570.201	38767.88
570.4	38343.95
570.598	38470.92
570.797	37719.32
570.995	38509.83
571.193	37121.31
571.392	37905.68
571.59	37584.15
571.789	37750.04
571.987	37518.62
572.186	37522.71
572.384	37109.02
572.582	37422.36
572.781	37078.3
572.979	36654.37
573.177	37248.28
573.376	36834.6
573.574	36418.86
573.772	36689.19
573.971	36379.95
574.169	36093.23
574.367	35829.04
574.565	36074.8
574.763	35843.38
574.962	35786.04
575.16	35429.69
575.358	35523.9
575.556	35237.18
575.754	35722.55
575.952	35331.39
576.151	35550.52
576.349	34872.64
576.547	34798.91
576.745	35206.46
576.943	34665.8
577.141	34655.56
577.339	34661.7
577.537	34325.83
577.735	34317.64
577.933	34032.97
578.131	34096.46
578.329	33678.68
578.527	33783.12
578.725	33889.62
578.923	33428.82
579.121	33529.17
579.319	33328.47
579.516	33432.92
579.714	33301.85
579.912	32898.4
580.11	33195.35
580.308	33256.79
580.506	32748.9
580.704	32374.12
580.901	32626.02
581.099	33052
581.297	32771.43
581.495	32310.63
581.692	32394.6
581.89	31798.64
582.088	32609.64
582.285	31792.5
582.483	32111.98
582.681	31778.16
582.878	31567.22
583.076	31542.64
583.274	31563.12
583.471	31387
583.669	31681.91
583.866	31153.53
584.064	31597.94
584.262	30875.01
584.459	31087.99
584.657	30926.21
584.854	31001.98
585.052	30166.41
585.249	30834.05
585.447	30832
585.644	30076.3
585.841	30174.6
586.039	30791.04
586.236	29853.07
586.434	30035.34
586.631	29652.37
586.828	30115.21
587.026	29898.13
587.223	29717.9
587.42	29625.75
587.618	29812.11
587.815	29349.27
588.012	29425.04
588.21	29363.61
588.407	29463.96
588.604	29363.61
588.801	29005.21
588.999	29083.03
589.196	29105.56
589.393	28829.09
589.59	28839.33
589.787	28605.86
589.984	28730.78
590.182	28169.64
590.379	28347.81
590.576	28308.9
590.773	28245.41
590.97	28143.02
591.167	28415.4
591.364	27639.22
591.561	28020.14
591.758	27712.94
591.955	27903.4
592.152	27831.72
592.349	27274.68
592.546	27510.19
592.743	27581.87
592.94	26811.84
593.137	27442.61
593.334	27014.59
593.531	26983.87
593.727	26817.98
593.924	26961.34
594.121	26783.16
594.318	26654.14
594.515	26414.53
594.712	26707.39
594.908	26301.89
595.105	26529.22
595.302	26201.54
595.499	26078.66
595.696	26115.53
595.892	26109.38
596.089	26283.46
596.286	26150.34
596.482	25767.37
596.679	25886.15
596.876	25761.23
597.072	25523.66
597.269	25374.16
597.466	25382.35
597.662	25370.07
597.859	25538
598.055	25365.97
598.252	24999.38
598.448	25216.47
598.645	24714.72
598.841	24884.7
599.038	24946.14
599.234	24716.76
599.431	24810.97
599.627	24511.97
599.824	24579.55
600.02	24161.76
600.217	24374.75
600.413	24315.36
600.609	23999.98
600.806	23721.45
601.002	24255.97
601.198	24188.39
601.395	23829.99
601.591	23680.49
601.787	23778.79
601.984	23551.47
602.18	24002.02
602.376	23703.02
602.572	23477.74
602.769	23367.15
602.965	23328.24
603.161	23209.46
603.357	23037.43
603.553	23217.65
603.75	23045.62
603.946	22562.3
604.142	22963.7
604.338	22703.61
604.534	22881.78
604.73	22466.05
604.926	22353.41
605.122	22539.77
605.318	22619.64
605.514	22584.83
605.71	22185.47
605.906	22074.88
606.102	21978.63
606.298	22185.47
606.494	22056.45
606.69	22058.5
606.886	21943.81
607.082	21919.24
607.278	22095.36
607.474	21523.98
607.67	22081.03
607.866	21249.55
608.062	21935.62
608.257	21468.69
608.453	21460.49
608.649	21427.73
608.845	21573.13
609.041	21526.03
609.236	21259.79
609.432	21345.81
609.628	21155.35
609.824	21069.33
610.019	20848.15
610.215	20629.02
610.411	21200.4
610.606	20930.07
610.802	20751.9
610.998	20549.15
611.193	20899.35
611.389	20682.27
611.584	20608.54
611.78	20448.8
611.976	20356.64
612.171	20729.37
612.367	20459.04
612.562	20407.84
612.758	20078.11
612.953	20133.41
613.149	20334.11
613.344	20102.69
613.539	20530.72
613.735	20065.83
613.93	20180.51
614.126	19844.65
614.321	20110.88
614.517	19965.48
614.712	19684.9
614.907	19803.69
615.103	20059.68
615.298	19723.82
615.493	19791.4
615.688	19463.72
615.884	19932.71
616.079	19521.07
616.274	19357.23
616.47	19344.94
616.665	19246.64
616.86	19512.88
617.055	19439.15
617.25	19129.91
617.445	19500.59
617.641	18943.54
617.836	19306.03
618.031	18980.4
618.226	19031.6
618.421	18802.23
618.616	18953.78
618.811	18409.02
619.006	18761.27
619.201	18413.12
619.396	18736.7
619.591	18296.38
619.786	18593.34
619.981	18320.96
620.176	18486.84
620.371	18124.35
620.566	18089.54
620.761	18161.22
620.956	18058.82
621.151	17446.48
621.346	18083.39
621.541	17548.87
621.735	17858.12
621.93	17329.74
622.125	17690.18
622.32	17235.53
622.515	17180.24
622.709	17335.88
622.904	17258.06
623.099	16971.35
623.294	17256.01
623.488	16592.47
623.683	16883.28
623.878	16766.55
624.072	16555.61
624.267	16297.56
624.462	16131.68
624.656	16246.37
624.851	16189.02
625.046	16275.04
625.24	16006.75
625.435	15943.27
625.629	15828.58
625.824	15740.52
626.018	15687.27
626.213	15468.14
626.407	15695.46
626.602	15371.88
626.796	15447.66
626.991	15416.94
627.185	15267.44
627.38	15132.27
627.574	15208.05
627.768	14982.77
627.963	14739.06
628.157	14775.92
628.352	14550.65
628.546	14327.42
628.74	14761.59
628.935	14626.42
629.129	14521.98
629.323	14200.44
629.517	14153.34
629.712	14235.26
629.906	14229.12
630.1	13907.59
630.294	14149.25
630.489	13893.25
630.683	13731.46
630.877	13631.11
631.071	13764.23
631.265	13950.59
631.459	13581.96
631.653	13491.85
631.848	13356.68
632.042	13381.26
632.236	13448.84
632.43	13168.27
632.624	13164.17
632.818	12973.71
633.012	12877.46
633.206	13024.91
633.4	12942.99
633.594	12730
633.788	12631.7
633.982	12660.37
634.176	12512.92
634.369	12408.47
634.563	12250.78
634.757	12445.34
634.951	12363.42
635.145	12328.6
635.339	12115.61
635.533	12168.86
635.726	12162.72
635.92	11910.82
636.114	11781.79
636.308	11945.63
636.501	12002.97
636.695	11777.7
636.889	11695.78
637.083	11472.55
637.276	11339.43
637.47	11208.36
637.664	11339.43
637.857	11251.37
638.051	11165.35
638.244	11206.31
638.438	11136.68
638.632	11214.51
638.825	10933.93
639.019	10823.34
639.212	11073.2
639.406	10931.89
639.599	10653.36
639.793	10806.96
639.986	10503.86
640.18	10614.45
640.373	10563.25
640.567	10432.18
640.76	10356.41
640.954	10319.54
641.147	10292.92
641.34	10333.88
641.534	10208.95
641.727	10239.67
641.92	10090.17
642.114	10051.26
642.307	9948.86
642.5	9905.85
642.694	9793.22
642.887	9789.12
643.08	9952.96
643.273	9840.32
643.467	9721.54
643.66	9459.4
643.853	9615.04
644.046	9340.61
644.239	9479.88
644.432	9475.78
644.626	9227.98
644.819	9082.57
645.012	9227.98
645.205	9270.98
645.398	9248.46
645.591	9027.28
645.784	8988.36
645.977	8859.34
646.17	9053.9
646.363	8914.64
646.556	8609.49
646.749	8840.91
646.942	8781.52
647.135	8586.96
647.328	8492.76
647.521	8691.41
647.714	8419.03
647.907	8662.74
648.099	8494.8
648.292	8457.94
648.485	8408.79
648.678	8208.09
648.871	8226.52
649.064	8296.15
649.256	8351.45
649.449	8029.91
649.642	8072.92
649.835	8034.01
650.027	7964.38
650.22	7952.09
650.413	7857.89
650.605	7956.19
650.798	7943.9
650.991	7718.62
651.183	7810.78
651.376	7882.46
651.568	7538.4
651.761	7745.25
651.954	7718.62
652.146	7505.63
652.339	7626.46
652.531	7433.96
652.724	7433.96
652.916	7306.98
653.109	7231.21
653.301	7460.58
653.494	7495.39
653.686	7116.52
653.879	7366.37
654.071	7093.99
654.263	7339.75
654.456	7149.29
654.648	7093.99
654.84	6958.83
655.033	6944.49
655.225	7048.94
655.417	6960.88
655.61	6977.26
655.802	6883.05
655.994	6794.99
656.186	6868.72
656.379	6706.93
656.571	6608.62
656.763	6698.74
656.955	6622.96
657.148	6745.84
657.34	6524.66
657.532	6534.9
657.724	6547.19
657.916	6502.13
658.108	6500.08
658.3	6346.48
658.492	6381.3
658.684	6340.34
658.876	6295.29
659.068	6217.46
659.26	6307.57
659.452	6239.99
659.644	6280.95
659.836	6274.81
660.028	6305.53
660.22	6086.39
660.412	5986.04
660.604	6151.93
660.796	6092.54
660.988	6123.26
661.18	6022.91
661.372	6000.38
661.563	5861.12
661.755	5789.44
661.947	5576.45
662.139	5865.21
662.331	5848.83
662.522	5721.85
662.714	5754.62
662.906	5615.36
663.097	5682.94
663.289	5531.39
663.481	5629.7
663.673	5535.49
663.864	5570.3
664.056	5355.27
664.247	5482.24
664.439	5469.95
664.631	5539.58
664.822	5455.62
665.014	5392.13
665.205	5490.43
665.397	5347.08
665.588	5418.75
665.78	5326.6
665.971	5256.97
666.163	5209.86
666.354	5379.84
666.546	5123.85
666.737	5107.46
666.929	5230.34
667.12	5189.38
667.311	5050.12
667.503	5185.29
667.694	5170.95
667.885	5160.71
668.077	5009.16
668.268	4970.25
668.459	5013.26
668.651	5158.66
668.842	5086.98
669.033	4976.39
669.224	4876.04
669.416	5209.86
669.607	4873.99
669.798	4824.84
669.989	4898.57
670.18	4886.28
670.371	4912.91
670.563	4794.12
670.754	4806.41
670.945	4740.88
671.136	4718.35
671.327	4693.77
671.518	4865.8
671.709	4837.13
671.9	4861.71
672.091	4720.4
672.282	4675.34
672.473	4751.12
672.664	4679.44
672.855	4851.47
673.046	4634.38
673.237	4718.35
673.428	4611.85
673.619	4665.1
673.809	4620.05
674	4775.69
674.191	4648.72
674.382	4437.78
674.573	4591.38
674.764	4585.23
674.954	4620.05
675.145	4542.22
675.336	4495.12
675.527	4595.47
675.717	4634.38
675.908	4503.31
676.099	4728.59
676.289	4638.48
676.48	4519.7
676.671	4472.59
676.861	4480.78
677.052	4482.83
677.243	4398.87
677.433	4425.49
677.624	4671.25
677.814	4517.65
678.005	4386.58
678.195	4583.18
678.386	4630.29
678.576	4523.79
678.767	4351.76
678.957	4599.57
679.148	4577.04
679.338	4583.18
679.529	4491.02
679.719	4425.49
679.909	4560.66
680.1	4591.38
680.29	4523.79
680.481	4589.33
680.671	4632.33
680.861	4460.31
681.052	4574.99
681.242	4454.16
681.432	4523.79
681.622	4353.81
681.813	4497.17
682.003	4644.62
682.193	4495.12
682.383	4419.35
682.573	4597.52
682.764	4423.44
682.954	4448.02
683.144	4466.45
683.334	4523.79
683.524	4333.33
683.714	4429.59
683.904	4519.7
684.094	4366.1
684.284	4460.31
684.474	4515.6
684.664	4312.85
684.854	4546.32
685.044	4255.51
685.234	4411.15
685.424	4347.67
685.614	4286.23
685.804	4556.56
685.994	4302.61
686.184	4327.19
686.374	4431.63
686.564	4280.08
686.753	4237.08
686.943	4288.28
687.133	4263.7
687.323	4271.89
687.513	4253.46
687.702	4050.71
687.892	4144.92
688.082	4189.97
688.272	4249.36
688.461	4120.34
688.651	4159.25
688.841	3911.45
689.03	4167.45
689.22	4032.28
689.41	4095.77
689.599	3999.51
689.789	3915.55
689.979	3931.93
690.168	4138.77
690.358	4011.8
690.547	3927.83
690.737	3878.68
690.926	3981.08
691.116	3876.63
691.305	3903.26
691.495	3854.11
691.684	3866.39
691.874	3778.33
692.063	3788.57
692.252	3759.9
692.442	3833.63
692.631	3704.6
692.82	3792.67
693.01	3704.6
693.199	3727.13
693.388	3657.5
693.578	3798.81
693.767	3794.72
693.956	3651.36
694.146	3532.58
694.335	3634.97
694.524	3510.05
694.713	3692.32
694.902	3589.92
695.092	3639.07
695.281	3567.39
695.47	3575.58
695.659	3452.7
695.848	3528.48
696.037	3503.9
696.226	3581.73
696.415	3440.42
696.604	3520.29
696.793	3383.07
696.982	3479.33
697.171	3473.18
697.36	3497.76
697.549	3391.27
697.738	3415.84
697.927	3436.32
698.116	3442.46
698.305	3434.27
698.494	3462.94
698.683	3440.42
698.872	3575.58
699.061	3374.88
699.25	3428.13
699.438	3407.65
699.627	3430.18
699.816	3454.75
700.005	3399.46
700.193	3415.84
700.382	3444.51
700.571	3471.14
700.76	3344.16
700.948	3428.13
701.137	3399.46
701.326	3434.27
701.514	3323.68
701.703	3397.41
701.892	3424.03
702.08	3524.38
702.269	3501.86
702.457	3454.75
702.646	3518.24
702.834	3411.75
703.023	3266.34
703.212	3301.15
703.4	3559.2
703.589	3403.55
703.777	3436.32
703.965	3415.84
704.154	3387.17
704.342	3409.7
704.531	3471.14
704.719	3350.31
704.907	3421.99
705.096	3360.55
705.284	3548.96
705.472	3362.59
705.661	3438.37
705.849	3524.38
706.037	3303.2
706.226	3329.83
706.414	3278.63
706.602	3419.94
706.79	3557.15
706.979	3411.75
707.167	3489.57
707.355	3448.61
707.543	3272.48
707.731	3505.95
707.919	3520.29
708.107	3440.42
708.296	3436.32
708.484	3489.57
708.672	3438.37
708.86	3489.57
709.048	3436.32
709.236	3428.13
709.424	3528.48
709.612	3485.47
709.8	3460.9
709.988	3426.08
710.176	3616.54
710.364	3458.85
710.551	3426.08
710.739	3503.9
710.927	3561.25
711.115	3358.5
711.303	3548.96
711.491	3421.99
711.679	3413.79
711.866	3473.18
712.054	3458.85
712.242	3415.84
712.43	3456.8
712.617	3446.56
712.805	3538.72
712.993	3544.86
713.181	3460.9
713.368	3434.27
713.556	3589.92
713.744	3479.33
713.931	3764
714.119	3530.53
714.306	3434.27
714.494	3553.06
714.682	3442.46
714.869	3495.71
715.057	3643.17
715.244	3589.92
715.432	3690.27
715.619	3655.45
715.807	3630.88
715.994	3784.48
716.182	3561.25
716.369	3632.93
716.556	3677.98
716.744	3514.14
716.931	3647.26
717.119	3616.54
717.306	3573.53
717.493	3655.45
717.681	3702.56
717.868	3596.06
718.055	3622.69
718.242	3665.69
718.43	3737.37
718.617	3659.55
718.804	3630.88
718.991	3624.73
719.179	3643.17
719.366	3725.08
719.553	3686.17
719.74	3653.41
719.927	3600.16
720.114	3759.9
720.301	3725.08
720.488	3743.52
720.676	3735.32
720.863	3755.8
721.05	3817.24
721.237	3743.52
721.424	3807
721.611	3729.18
721.798	3731.23
721.985	3702.56
722.172	3643.17
722.358	3735.32
722.545	3735.32
722.732	3786.52
722.919	3757.85
723.106	3776.28
723.293	3688.22
723.48	3725.08
723.667	3925.79
723.853	3811.1
724.04	3823.39
724.227	3807
724.414	3884.83
724.6	3735.32
724.787	3802.91
724.974	3862.3
725.161	3813.15
725.347	3768.09
725.534	3925.79
725.72	3788.57
725.907	3847.96
726.094	3770.14
726.28	3954.46
726.467	3751.71
726.653	3938.07
726.84	3807
727.027	4019.99
727.213	3749.66
727.4	3999.51
727.586	3807
727.773	3862.3
727.959	3888.92
728.145	3999.51
728.332	3956.5
728.518	3929.88
728.705	3829.53
728.891	3962.65
729.077	3940.12
729.264	3917.59
729.45	3864.35
729.636	4028.18
729.823	3907.35
730.009	4009.75
730.195	4067.1
730.382	3929.88
730.568	3856.15
730.754	4022.04
730.94	3950.36
731.126	4136.73
731.313	4149.01
731.499	3917.59
731.685	3938.07
731.871	4028.18
732.057	4034.33
732.243	4126.49
732.429	3944.22
732.615	4099.86
732.801	3936.03
732.987	3970.84
733.173	3993.37
733.359	4019.99
733.545	3964.7
733.731	3970.84
733.917	4040.47
734.103	4083.48
734.289	4073.24
734.475	3852.06
734.661	4116.25
734.847	3989.27
735.033	4022.04
735.219	3993.37
735.404	4083.48
735.59	3950.36
735.776	4038.42
735.962	4161.3
736.148	4044.57
736.333	3991.32
736.519	4202.26
736.705	4073.24
736.89	4019.99
737.076	3950.36
737.262	4124.44
737.447	4085.53
737.633	3829.53
737.819	4034.33
738.004	3995.42
738.19	4038.42
738.375	3972.89
738.561	4028.18
738.747	3993.37
738.932	3929.88
739.118	3929.88
739.303	3948.31
739.489	3927.83
739.674	3884.83
739.859	3825.43
740.045	3831.58
740.23	3954.46
740.416	3886.87
740.601	3966.74
740.786	3882.78
740.972	3956.5
741.157	3936.03
741.342	3823.39
741.528	3823.39
741.713	3858.2
741.898	3866.39
742.084	3901.21
742.269	3854.11
742.454	3776.28
742.639	3843.87
742.824	3671.84
743.01	3974.94
743.195	3878.68
743.38	3815.2
743.565	3720.99
743.75	3786.52
743.935	3792.67
744.12	3813.15
744.305	3573.53
744.49	3661.6
744.675	3622.69
744.86	3675.93
745.045	3751.71
745.23	3733.28
745.415	3589.92
745.6	3696.41
745.785	3518.24
745.97	3671.84
746.155	3514.14
746.34	3616.54
746.525	3591.97
746.71	3495.71
746.895	3508
747.079	3577.63
747.264	3514.14
747.449	3417.89
747.634	3522.34
747.819	3368.74
748.003	3362.59
748.188	3456.8
748.373	3409.7
748.557	3303.2
748.742	3503.9
748.927	3364.64
749.111	3276.58
749.296	3135.27
749.481	3329.83
749.665	3157.8
749.85	3163.94
750.034	3305.25
750.219	3122.98
750.404	3178.28
750.588	3036.97
750.773	2955.05
750.957	3233.57
751.141	3149.61
751.326	3143.46
751.51	2914.09
751.695	3075.88
751.879	3000.1
752.064	3110.69
752.248	2957.1
752.432	2926.38
752.617	2893.61
752.801	2858.79
752.985	2975.53
753.17	2893.61
753.354	2928.42
753.538	2826.03
753.722	2756.4
753.907	2793.26
754.091	2772.78
754.275	2715.44
754.459	2733.87
754.643	2694.96
754.828	2625.33
755.012	2721.58
755.196	2785.07
755.38	2641.71
755.564	2615.09
755.748	2623.28
755.932	2690.86
756.116	2582.32
756.3	2520.88
756.484	2541.36
756.668	2436.91
756.852	2443.06
757.036	2531.12
757.22	2522.93
757.404	2398
757.588	2402.1
757.772	2486.06
757.956	2422.58
758.14	2443.06
758.323	2463.54
758.507	2363.19
758.691	2340.66
758.875	2357.04
759.059	2373.43
759.242	2301.75
759.426	2250.55
759.61	2209.59
759.794	2254.64
759.977	2305.84
760.161	2336.56
760.345	2201.4
760.528	2131.76
760.712	2322.23
760.895	2174.77
761.079	2213.68
761.263	2160.44
761.446	2199.35
761.63	2174.77
761.813	2164.53
761.997	2109.24
762.18	2029.37
762.364	2166.58
762.547	2017.08
762.731	2082.61
762.914	2066.23
763.098	1980.22
763.281	2041.65
763.464	1894.2
763.648	2088.76
763.831	1959.74
764.015	1892.15
764.198	2078.52
764.381	1994.55
764.564	2017.08
764.748	2008.89
764.931	1916.73
765.114	2033.46
765.297	1953.59
765.481	1914.68
765.664	1875.77
765.847	1945.4
766.03	1890.1
766.213	1902.39
766.397	1875.77
766.58	1806.14
766.763	1914.68
766.946	1767.23
767.129	1881.91
767.312	1769.27
767.495	1877.82
767.678	1853.24
767.861	1820.47
768.044	1759.03
768.227	1840.95
768.41	1781.56
768.593	1883.96
768.776	1695.55
768.959	1705.79
769.142	1793.85
769.324	1679.16
769.507	1716.03
769.69	1736.51
769.873	1718.08
770.056	1736.51
770.239	1617.72
770.421	1566.53
770.604	1634.11
770.787	1605.44
770.97	1640.25
771.152	1572.67
771.335	1666.88
771.518	1662.78
771.7	1701.69
771.883	1621.82
772.066	1537.85
772.248	1679.16
772.431	1619.77
772.613	1591.1
772.796	1484.61
772.978	1597.24
773.161	1640.25
773.343	1486.65
773.526	1478.46
773.708	1437.5
773.891	1457.98
774.073	1382.21
774.256	1439.55
774.438	1447.74
774.621	1425.22
774.803	1445.7
774.985	1396.54
775.168	1443.65
775.35	1398.59
775.532	1460.03
775.715	1386.3
775.897	1285.95
776.079	1353.54
776.261	1365.82
776.444	1361.73
776.626	1310.53
776.808	1404.74
776.99	1322.82
777.173	1320.77
777.355	1314.63
777.537	1298.24
777.719	1288
777.901	1230.66
778.083	1156.93
778.265	1232.71
778.447	1281.86
778.629	1130.31
778.811	1181.51
778.993	1158.98
779.175	1288
779.357	1183.56
779.539	1138.5
779.721	1204.03
779.903	1181.51
780.085	1126.21
780.267	1142.6
780.449	1058.63
780.631	1113.92
780.812	1191.75
780.994	1011.53
781.176	1095.49
781.358	974.66
781.54	993.09
781.721	1019.72
781.903	945.99
782.085	1091.4
782.267	1093.44
782.448	986.95
782.63	966.47
782.812	907.08
782.993	958.28
783.175	980.81
783.357	935.75
783.538	870.22
783.72	970.57
783.901	886.6
784.083	962.37
784.264	898.89
784.446	870.22
784.627	866.12
784.809	907.08
784.99	927.56
785.172	821.06
785.353	931.66
785.535	761.67
785.716	810.82
785.897	800.59
786.079	751.43
786.26	847.69
786.441	847.69
786.623	847.69
786.804	786.25
786.985	784.2
787.167	812.87
787.348	700.23
787.529	902.98
787.71	888.65
787.891	733
788.073	733
788.254	771.91
788.435	749.39
788.616	788.3
788.797	798.54
788.978	749.39
789.159	687.95
789.34	753.48
789.522	665.42
789.703	753.48
789.884	653.13
790.065	743.24
790.246	712.52
790.427	755.53
790.607	743.24
790.788	761.67
790.969	692.04
791.15	702.28
791.331	722.76
791.512	640.84
791.693	755.53
791.874	722.76
792.054	733
792.235	718.67
792.416	616.27
792.597	624.46
792.778	620.36
792.958	610.12
793.139	618.32
793.32	677.71
793.5	536.4
793.681	646.99
793.862	612.17
794.042	558.92
794.223	526.16
794.404	589.64
794.584	481.1
794.765	499.53
794.945	571.21
795.126	479.05
795.306	646.99
795.487	532.3
795.667	503.63
795.848	511.82
796.028	517.97
796.209	466.77
796.389	536.4
796.57	532.3
796.75	524.11
796.93	532.3
797.111	507.73
797.291	569.16
797.471	591.69
797.652	470.86
797.832	454.48
798.012	534.35
798.192	481.1
798.373	538.45
798.553	487.25
798.733	499.53
798.913	464.72
799.093	485.2
799.274	477.01
799.454	429.9
799.634	542.54
799.814	563.02
799.994	509.77
800.174	532.3
800.354	405.33
800.534	483.15
800.714	489.29
800.894	395.09
801.074	390.99
801.254	423.76
801.434	460.62
801.614	481.1
801.794	384.85
801.974	1036.1
802.154	415.57
802.334	452.43
802.514	464.72
802.693	415.57
802.873	458.57
803.053	544.59
803.233	427.85
803.413	397.14
803.592	345.94
803.772	393.04
803.952	405.33
804.131	452.43
804.311	362.32
804.491	395.09
804.67	409.42
804.85	429.9
805.03	384.85
805.209	474.96
805.389	393.04
805.568	419.66
805.748	335.7
805.928	421.71
806.107	378.7
806.287	368.46
806.466	405.33
806.646	343.89
806.825	337.74
807.004	354.13
807.184	368.46
807.363	401.23
807.543	380.75
807.722	339.79
807.901	319.31
808.081	341.84
808.26	294.74
808.439	317.26
808.619	272.21
808.798	337.74
808.977	311.12
809.156	329.55
809.336	309.07
809.515	356.18
809.694	309.07
809.873	259.92
810.052	302.93
810.231	329.55
810.411	360.27
810.59	335.7
810.769	350.03
810.948	339.79
811.127	368.46
811.306	341.84
811.485	282.45
811.664	409.42
811.843	280.4
812.022	315.22
812.201	286.54
812.38	323.41
812.559	229.2
812.737	292.69
812.916	296.78
813.095	200.53
813.274	243.54
813.453	278.35
813.632	290.64
813.811	298.83
813.989	382.8
814.168	388.94
814.347	243.54
814.526	290.64
814.704	286.54
814.883	300.88
815.062	208.72
815.24	225.11
815.419	317.26
815.598	309.07
815.776	214.87
815.955	278.35
816.133	225.11
816.312	216.91
816.49	118.61
816.669	237.39
816.847	241.49
817.026	298.83
817.204	218.96
817.383	202.58
817.561	198.48
817.74	350.03
817.918	202.58
818.097	186.19
818.275	210.77
818.453	264.02
818.632	214.87
818.81	274.26
818.988	198.48
819.167	204.63
819.345	192.34
819.523	212.82
819.701	221.01
819.879	253.78
820.058	268.11
820.236	206.67
820.414	266.07
820.592	257.87
820.77	239.44
820.948	98.13
821.127	235.35
821.305	261.97
821.483	231.25
821.661	188.24
821.839	292.69
822.017	161.62
822.195	157.52
822.373	259.92
822.551	272.21
822.729	225.11
822.907	204.63
823.085	225.11
823.262	208.72
823.44	206.67
823.618	173.91
823.796	202.58
823.974	171.86
824.152	178
824.329	237.39
824.507	163.67
824.685	218.96
824.863	229.2
825.04	214.87
825.218	163.67
825.396	204.63
825.574	194.39
825.751	120.66
825.929	151.38
826.107	108.37
826.284	190.29
826.462	145.24
826.639	163.67
826.817	157.52
826.994	126.8
827.172	149.33
827.349	280.4
827.527	153.43
827.704	227.15
827.882	192.34
828.059	237.39
828.237	249.68
828.414	165.71
828.591	223.06
828.769	175.95
828.946	159.57
829.124	180.05
829.301	218.96
829.478	165.71
829.655	204.63
829.833	114.52
830.01	137.04
830.187	128.85
830.364	239.44
830.542	173.91
830.719	173.91
830.896	188.24
831.073	200.53
831.25	216.91
831.427	147.28
831.604	122.71
831.782	186.19
831.959	251.73
832.136	94.04
832.313	100.18
832.49	114.52
832.667	202.58
832.844	67.41
833.021	175.95
833.198	180.05
833.374	155.47
833.551	169.81
833.728	85.84
833.905	165.71
834.082	38.74
834.259	143.19
834.436	157.52
834.612	137.04
834.789	198.48
834.966	73.56
835.143	184.15
835.319	135
835.496	69.46
835.673	190.29
835.85	132.95
836.026	63.32
836.203	155.47
836.38	36.69
836.556	44.88
836.733	-2.22
836.909	188.24
837.086	57.17
837.262	126.8
837.439	122.71
837.616	120.66
837.792	77.65
837.968	94.04
838.145	26.45
838.321	139.09
838.498	216.91
838.674	126.8
838.851	132.95
839.027	126.8
839.203	147.28
839.38	204.63
839.556	94.04
839.732	81.75
839.909	42.84
840.085	171.86
840.261	73.56
840.437	157.52
840.614	141.14
840.79	114.52
840.966	102.23
841.142	155.47
841.318	98.13
841.494	110.42
841.671	51.03
841.847	53.08
842.023	108.37
842.199	208.72
842.375	161.62
842.551	89.94
842.727	5.97
842.903	171.86
843.079	81.75
843.255	120.66
843.431	108.37
843.607	87.89
843.783	3.93
843.959	94.04
844.134	67.41
844.31	34.64
844.486	94.04
844.662	122.71
844.838	102.23
845.013	180.05
845.189	151.38
845.365	91.99
845.541	30.55
845.716	65.36
845.892	159.57
846.068	73.56
846.244	59.22
846.419	132.95
846.595	77.65
846.77	89.94
846.946	182.1
847.122	42.84
847.297	116.56
847.473	57.17
847.648	135
847.824	55.12
847.999	32.6
848.175	65.36
848.35	24.4
848.526	116.56
848.701	85.84
848.876	91.99
849.052	118.61
849.227	44.88
849.403	65.36
849.578	67.41
849.753	69.46
849.929	42.84
850.104	22.36
850.279	48.98
850.454	61.27
850.63	137.04
850.805	87.89
850.98	67.41
851.155	96.08
851.33	83.8
851.505	36.69
851.681	94.04
851.856	-43.18
852.031	34.64
852.206	48.98
852.381	96.08
852.556	100.18
852.731	77.65
852.906	124.76
853.081	102.23
853.256	61.27
853.431	34.64
853.606	32.6
853.781	20.31
853.956	-18.6
854.131	110.42
854.305	1.88
854.48	26.45
854.655	38.74
854.83	26.45
855.005	63.32
855.18	143.19
855.354	122.71
855.529	24.4
855.704	40.79
855.879	77.65
856.053	57.17
856.228	34.64
856.403	1.88
856.577	79.7
856.752	5.97
856.926	108.37
857.101	42.84
857.276	-0.17
857.45	89.94
857.625	61.27
857.799	61.27
857.974	108.37
858.148	3.93
858.323	77.65
858.497	30.55
858.672	30.55
858.846	73.56
859.02	141.14
859.195	44.88
859.369	63.32
859.543	30.55
859.718	36.69
859.892	106.32
860.066	-84.14
860.241	38.74
860.415	1.88
860.589	38.74
860.763	91.99
860.938	89.94
861.112	57.17
861.286	108.37
861.46	51.03
861.634	67.41
861.808	77.65
861.982	28.5
862.157	53.08
862.331	83.8
862.505	16.21
862.679	3.93
862.853	61.27
863.027	69.46
863.201	79.7
863.375	53.08
863.549	61.27
863.722	57.17
863.896	73.56
864.07	12.12
864.244	46.93
864.418	1.88
864.592	51.03
864.766	44.88
864.939	67.41
865.113	44.88
865.287	61.27
865.461	30.55
865.634	40.79
865.808	42.84
865.982	36.69
866.156	26.45
866.329	-18.6
866.503	5.97
866.676	34.64
866.85	89.94
867.024	8.02
867.197	106.32
867.371	5.97
867.544	34.64
867.718	12.12
867.891	135
868.065	42.84
868.238	-18.6
868.412	42.84
868.585	51.03
868.759	-32.94
868.932	3.93
869.105	-20.65
869.279	32.6
869.452	-30.89
869.625	14.17
869.799	-49.32
869.972	30.55
870.145	36.69
870.319	63.32
870.492	46.93
870.665	-20.65
870.838	67.41
871.011	-14.51
871.185	98.13
871.358	71.51
871.531	61.27
871.704	-12.46
871.877	28.5
872.05	51.03
872.223	-28.84
872.396	63.32
872.569	-28.84
872.742	20.31
872.915	106.32
873.088	-14.51
873.261	-59.56
873.434	122.71
873.607	-2.22
873.78	98.13
873.953	10.07
874.126	24.4
874.299	40.79
874.471	8.02
874.644	-12.46
874.817	-26.79
874.99	63.32
875.163	20.31
875.335	44.88
875.508	22.36
875.681	120.66
875.853	8.02
876.026	26.45
876.199	12.12
876.371	-6.31
876.544	61.27
876.717	28.5
876.889	34.64
877.062	-24.75
877.234	3.93
877.407	59.22
877.579	-28.84
877.752	83.8
877.924	44.88
878.097	30.55
878.269	98.13
878.442	46.93
878.614	42.84
878.786	83.8
878.959	28.5
879.131	-6.31
879.303	-12.46
879.476	-14.51
879.648	71.51
879.82	-8.36
879.993	26.45
880.165	-2.22
880.337	48.98
880.509	34.64
880.681	3.93
880.854	59.22
881.026	18.26
881.198	100.18
881.37	69.46
881.542	24.4
881.714	3.93
881.886	8.02
882.058	79.7
882.23	55.12
882.402	-28.84
882.574	-18.6
882.746	67.41
882.918	59.22
883.09	51.03
883.262	-12.46
883.434	18.26
883.606	-49.32
883.778	18.26
883.95	85.84
884.122	28.5
884.293	-14.51
884.465	48.98
884.637	89.94
884.809	1.88
884.98	16.21
885.152	-30.89
885.324	38.74
885.496	-39.08
885.667	24.4
885.839	16.21
886.011	42.84
886.182	10.07
886.354	94.04
886.525	14.17
886.697	-4.27
886.869	-41.13
887.04	-37.03
887.212	22.36
887.383	59.22
887.555	-16.55
887.726	32.6
887.897	5.97
888.069	12.12
888.24	28.5
888.412	-45.23
888.583	100.18
888.754	-16.55
888.926	28.5
889.097	53.08
889.268	32.6
889.44	40.79
889.611	-84.14
889.782	-45.23
889.953	22.36
890.125	110.42
890.296	-14.51
890.467	-18.6
890.638	-51.37
890.809	55.12
890.98	38.74
891.151	1.88
891.323	38.74
891.494	55.12
891.665	57.17
891.836	32.6
892.007	28.5
892.178	116.56
892.349	38.74
892.52	-26.79
892.691	65.36
892.862	48.98
893.032	-28.84
893.203	10.07
893.374	-22.7
893.545	48.98
893.716	-12.46
893.887	40.79
894.057	14.17
894.228	18.26
894.399	24.4
894.57	14.17
894.74	18.26
894.911	10.07
895.082	30.55
895.253	55.12
895.423	1.88
895.594	59.22
895.764	38.74
895.935	-14.51
896.106	57.17
896.276	57.17
896.447	26.45
896.617	1.88
896.788	14.17
896.958	26.45
897.129	-8.36
897.299	32.6
897.47	28.5
897.64	20.31
897.81	-0.17
897.981	32.6
898.151	-16.55
898.322	-32.94
898.492	42.84
898.662	-28.84
898.832	3.93
899.003	-14.51
899.173	51.03
899.343	-92.33
899.513	-53.42
