Data from USB4F104151__61__12-24-09-622.txt Node

Date: Fri Mar 14 12:24:09 EDT 2025
User: louis
Spectrometer: USB4F10415
Trigger mode: 4
Integration Time (sec): 3.500000E-2
Scans to average: 1
Electric dark correction enabled: true
Nonlinearity correction enabled: false
Boxcar width: 0
XAxis mode: Wavelengths
Number of Pixels in Spectrum: 3648
>>>>>Begin Spectral Data<<<<<
178.204	-141.99
178.424	-141.99
178.644	-141.99
178.864	-139.94
179.084	-182.95
179.304	7.51
179.524	9.56
179.744	-10.92
179.964	-10.92
180.184	30.04
180.404	52.56
180.624	11.61
180.844	30.04
181.064	-51.88
181.283	-72.36
181.503	5.46
181.723	-0.68
181.943	-74.41
182.163	101.72
182.383	-39.59
182.602	60.76
182.822	38.23
183.042	21.85
183.262	3.41
183.482	-10.92
183.701	11.61
183.921	13.65
184.141	-4.78
184.361	99.67
184.58	-6.83
184.8	62.8
185.02	-41.64
185.239	81.24
185.459	42.32
185.679	97.62
185.898	-10.92
186.118	66.9
186.338	23.89
186.557	73.04
186.777	13.65
186.997	77.14
187.216	44.37
187.436	62.8
187.655	-6.83
187.875	19.8
188.095	5.46
188.314	71
188.534	120.15
188.753	-27.31
188.973	-21.16
189.192	-27.31
189.412	25.94
189.631	-6.83
189.851	30.04
190.07	13.65
190.29	-0.68
190.509	17.75
190.729	7.51
190.948	89.43
191.168	140.63
191.387	46.42
191.607	52.56
191.826	25.94
192.045	-6.83
192.265	32.08
192.484	-6.83
192.704	-19.11
192.923	-66.22
193.142	75.09
193.362	11.61
193.581	83.28
193.8	-15.02
194.02	-10.92
194.239	9.56
194.458	25.94
194.678	-10.92
194.897	101.72
195.116	44.37
195.335	-4.78
195.555	27.99
195.774	36.18
195.993	58.71
196.212	15.7
196.432	5.46
196.651	27.99
196.87	15.7
197.089	46.42
197.308	68.95
197.528	11.61
197.747	30.04
197.966	13.65
198.185	66.9
198.404	21.85
198.623	27.99
198.842	19.8
199.062	83.28
199.281	99.67
199.5	-17.07
199.719	-4.78
199.938	-25.26
200.157	44.37
200.376	-4.78
200.595	52.56
200.814	30.04
201.033	38.23
201.252	48.47
201.471	3.41
201.69	130.39
201.909	62.8
202.128	46.42
202.347	44.37
202.566	-47.79
202.785	15.7
203.004	-27.31
203.223	116.05
203.442	-51.88
203.661	-12.97
203.879	-66.22
204.098	79.19
204.317	25.94
204.536	27.99
204.755	13.65
204.974	11.61
205.193	-6.83
205.411	93.52
205.63	-8.87
205.849	48.47
206.068	11.61
206.287	56.66
206.505	50.52
206.724	-33.45
206.943	32.08
207.162	-17.07
207.381	17.75
207.599	-41.64
207.818	-15.02
208.037	15.7
208.255	30.04
208.474	1.37
208.693	13.65
208.911	73.04
209.13	85.33
209.349	60.76
209.567	19.8
209.786	-17.07
210.005	73.04
210.223	58.71
210.442	-66.22
210.661	-4.78
210.879	-0.68
211.098	60.76
211.316	5.46
211.535	15.7
211.753	36.18
211.972	36.18
212.191	-51.88
212.409	21.85
212.628	-35.5
212.846	23.89
213.065	25.94
213.283	87.38
213.502	11.61
213.72	27.99
213.938	-10.92
214.157	13.65
214.375	34.13
214.594	50.52
214.812	32.08
215.031	-23.21
215.249	50.52
215.467	109.91
215.686	64.85
215.904	91.48
216.122	-21.16
216.341	77.14
216.559	15.7
216.778	42.32
216.996	107.86
217.214	13.65
217.432	-31.4
217.651	-27.31
217.869	15.7
218.087	15.7
218.306	93.52
218.524	17.75
218.742	-10.92
218.96	27.99
219.179	25.94
219.397	68.95
219.615	54.61
219.833	62.8
220.051	-51.88
220.27	66.9
220.488	9.56
220.706	27.99
220.924	34.13
221.142	-51.88
221.36	44.37
221.578	38.23
221.796	48.47
222.015	-2.73
222.233	71
222.451	68.95
222.669	21.85
222.887	-4.78
223.105	-19.11
223.323	15.7
223.541	89.43
223.759	73.04
223.977	-2.73
224.195	40.28
224.413	62.8
224.631	36.18
224.849	-23.21
225.067	73.04
225.285	-21.16
225.503	-8.87
225.721	-53.93
225.939	-4.78
226.157	56.66
226.375	109.91
226.592	3.41
226.81	54.61
227.028	44.37
227.246	81.24
227.464	25.94
227.682	44.37
227.9	44.37
228.117	64.85
228.335	7.51
228.553	138.58
228.771	27.99
228.989	36.18
229.206	-19.11
229.424	-25.26
229.642	-31.4
229.86	-4.78
230.077	5.46
230.295	-68.27
230.513	-23.21
230.731	64.85
230.948	25.94
231.166	13.65
231.384	-10.92
231.601	21.85
231.819	66.9
232.037	50.52
232.254	-49.83
232.472	38.23
232.689	64.85
232.907	1.37
233.125	9.56
233.342	-0.68
233.56	30.04
233.777	-33.45
233.995	-27.31
234.213	-0.68
234.43	42.32
234.648	3.41
234.865	-8.87
235.083	66.9
235.3	-27.31
235.518	3.41
235.735	23.89
235.953	40.28
236.17	-6.83
236.388	-8.87
236.605	81.24
236.822	64.85
237.04	42.32
237.257	17.75
237.475	3.41
237.692	13.65
237.909	32.08
238.127	11.61
238.344	-23.21
238.562	9.56
238.779	-27.31
238.996	-47.79
239.214	48.47
239.431	34.13
239.648	-29.35
239.865	46.42
240.083	21.85
240.3	54.61
240.517	-29.35
240.735	83.28
240.952	77.14
241.169	-17.07
241.386	-29.35
241.603	58.71
241.821	-47.79
242.038	21.85
242.255	-15.02
242.472	-58.03
242.689	-8.87
242.907	46.42
243.124	1.37
243.341	9.56
243.558	5.46
243.775	21.85
243.992	-64.17
244.209	32.08
244.426	85.33
244.643	25.94
244.86	13.65
245.078	40.28
245.295	68.95
245.512	23.89
245.729	5.46
245.946	52.56
246.163	60.76
246.38	23.89
246.597	-60.07
246.814	-80.55
247.031	19.8
247.248	-10.92
247.464	-35.5
247.681	7.51
247.898	3.41
248.115	17.75
248.332	11.61
248.549	81.24
248.766	13.65
248.983	46.42
249.2	48.47
249.417	36.18
249.633	-10.92
249.85	7.51
250.067	27.99
250.284	-68.27
250.501	87.38
250.717	7.51
250.934	3.41
251.151	1.37
251.368	5.46
251.585	-10.92
251.801	21.85
252.018	25.94
252.235	-39.59
252.451	7.51
252.668	-25.26
252.885	93.52
253.102	-19.11
253.318	-60.07
253.535	-33.45
253.752	7.51
253.968	13.65
254.185	19.8
254.401	1.37
254.618	-60.07
254.835	-55.98
255.051	40.28
255.268	71
255.484	19.8
255.701	-31.4
255.917	75.09
256.134	11.61
256.351	38.23
256.567	13.65
256.784	-17.07
257	-10.92
257.217	19.8
257.433	91.48
257.65	42.32
257.866	-0.68
258.082	-23.21
258.299	-4.78
258.515	30.04
258.732	21.85
258.948	-10.92
259.165	-70.31
259.381	48.47
259.597	52.56
259.814	15.7
260.03	34.13
260.246	58.71
260.463	132.44
260.679	36.18
260.895	-39.59
261.112	13.65
261.328	-6.83
261.544	-21.16
261.761	87.38
261.977	-21.16
262.193	-62.12
262.409	58.71
262.626	40.28
262.842	25.94
263.058	19.8
263.274	73.04
263.49	-8.87
263.707	118.1
263.923	68.95
264.139	19.8
264.355	54.61
264.571	68.95
264.787	15.7
265.004	-21.16
265.22	-19.11
265.436	-62.12
265.652	17.75
265.868	-33.45
266.084	-70.31
266.3	-23.21
266.516	19.8
266.732	21.85
266.948	-33.45
267.164	-19.11
267.38	87.38
267.596	75.09
267.812	83.28
268.028	11.61
268.244	52.56
268.46	17.75
268.676	-10.92
268.892	46.42
269.108	17.75
269.324	-31.4
269.54	-41.64
269.756	-47.79
269.972	-70.31
270.188	3.41
270.403	-66.22
270.619	44.37
270.835	54.61
271.051	54.61
271.267	-55.98
271.483	54.61
271.698	50.52
271.914	23.89
272.13	42.32
272.346	1.37
272.562	30.04
272.777	77.14
272.993	11.61
273.209	21.85
273.425	-49.83
273.64	21.85
273.856	62.8
274.072	17.75
274.287	-41.64
274.503	36.18
274.719	-0.68
274.934	30.04
275.15	-72.36
275.366	-0.68
275.581	5.46
275.797	34.13
276.012	9.56
276.228	-0.68
276.444	9.56
276.659	101.72
276.875	-6.83
277.09	54.61
277.306	-2.73
277.521	68.95
277.737	-45.74
277.952	103.76
278.168	75.09
278.383	30.04
278.599	27.99
278.814	93.52
279.03	17.75
279.245	15.7
279.461	3.41
279.676	-31.4
279.892	-0.68
280.107	-25.26
280.322	34.13
280.538	38.23
280.753	52.56
280.969	68.95
281.184	3.41
281.399	30.04
281.615	-21.16
281.83	85.33
282.045	-66.22
282.26	-37.55
282.476	-41.64
282.691	93.52
282.906	87.38
283.122	21.85
283.337	-27.31
283.552	34.13
283.767	-15.02
283.983	15.7
284.198	3.41
284.413	42.32
284.628	-23.21
284.843	-0.68
285.058	56.66
285.274	7.51
285.489	21.85
285.704	5.46
285.919	42.32
286.134	64.85
286.349	7.51
286.564	91.48
286.779	91.48
286.995	48.47
287.21	11.61
287.425	42.32
287.64	-10.92
287.855	42.32
288.07	54.61
288.285	91.48
288.5	52.56
288.715	30.04
288.93	-31.4
289.145	15.7
289.36	40.28
289.575	-12.97
289.79	66.9
290.004	36.18
290.219	103.76
290.434	-23.21
290.649	15.7
290.864	97.62
291.079	-19.11
291.294	25.94
291.509	-25.26
291.724	-51.88
291.938	50.52
292.153	-4.78
292.368	38.23
292.583	71
292.798	62.8
293.012	-39.59
293.227	-25.26
293.442	46.42
293.657	71
293.871	54.61
294.086	11.61
294.301	99.67
294.516	105.81
294.73	-6.83
294.945	-25.26
295.16	3.41
295.374	34.13
295.589	99.67
295.804	42.32
296.018	77.14
296.233	60.76
296.447	27.99
296.662	-23.21
296.877	66.9
297.091	52.56
297.306	-25.26
297.52	-8.87
297.735	-17.07
297.949	9.56
298.164	64.85
298.378	38.23
298.593	54.61
298.807	-72.36
299.022	40.28
299.236	140.63
299.451	11.61
299.665	36.18
299.88	5.46
300.094	34.13
300.309	50.52
300.523	60.76
300.737	-0.68
300.952	42.32
301.166	-2.73
301.381	50.52
301.595	71
301.809	30.04
302.024	1.37
302.238	38.23
302.452	58.71
302.667	-0.68
302.881	40.28
303.095	154.96
303.309	34.13
303.524	13.65
303.738	-6.83
303.952	-15.02
304.166	36.18
304.381	-33.45
304.595	146.77
304.809	27.99
305.023	27.99
305.237	-27.31
305.452	50.52
305.666	9.56
305.88	81.24
306.094	97.62
306.308	-2.73
306.522	50.52
306.736	23.89
306.95	25.94
307.164	27.99
307.379	-53.93
307.593	66.9
307.807	-21.16
308.021	36.18
308.235	17.75
308.449	-31.4
308.663	-29.35
308.877	114
309.091	3.41
309.305	-8.87
309.519	-49.83
309.733	77.14
309.947	11.61
310.161	3.41
310.374	52.56
310.588	62.8
310.802	-4.78
311.016	36.18
311.23	52.56
311.444	32.08
311.658	52.56
311.872	60.76
312.085	124.24
312.299	75.09
312.513	-0.68
312.727	42.32
312.941	-2.73
313.154	7.51
313.368	32.08
313.582	-41.64
313.796	-47.79
314.009	15.7
314.223	-0.68
314.437	44.37
314.651	-0.68
314.864	40.28
315.078	-41.64
315.292	-6.83
315.505	-49.83
315.719	-27.31
315.933	52.56
316.146	-0.68
316.36	17.75
316.573	36.18
316.787	44.37
317.001	58.71
317.214	-8.87
317.428	89.43
317.641	34.13
317.855	5.46
318.068	13.65
318.282	46.42
318.495	42.32
318.709	77.14
318.922	71
319.136	81.24
319.349	140.63
319.563	-19.11
319.776	-47.79
319.99	-6.83
320.203	54.61
320.417	-2.73
320.63	-0.68
320.843	68.95
321.057	54.61
321.27	54.61
321.483	19.8
321.697	81.24
321.91	21.85
322.124	40.28
322.337	11.61
322.55	-66.22
322.763	152.91
322.977	32.08
323.19	3.41
323.403	23.89
323.617	81.24
323.83	44.37
324.043	40.28
324.256	83.28
324.469	-19.11
324.683	54.61
324.896	30.04
325.109	9.56
325.322	-4.78
325.535	83.28
325.748	56.66
325.962	62.8
326.175	15.7
326.388	1.37
326.601	66.9
326.814	68.95
327.027	60.76
327.24	97.62
327.453	-15.02
327.666	103.76
327.879	32.08
328.092	101.72
328.305	23.89
328.518	-49.83
328.731	23.89
328.944	77.14
329.157	73.04
329.37	-29.35
329.583	97.62
329.796	36.18
330.009	-8.87
330.222	11.61
330.435	13.65
330.648	15.7
330.861	73.04
331.073	77.14
331.286	38.23
331.499	25.94
331.712	17.75
331.925	73.04
332.138	71
332.35	120.15
332.563	40.28
332.776	17.75
332.989	54.61
333.202	3.41
333.414	-60.07
333.627	23.89
333.84	81.24
334.053	7.51
334.265	-31.4
334.478	11.61
334.691	36.18
334.903	-2.73
335.116	-43.69
335.329	5.46
335.541	-72.36
335.754	97.62
335.966	1.37
336.179	50.52
336.392	-10.92
336.604	-17.07
336.817	21.85
337.029	68.95
337.242	34.13
337.454	-23.21
337.667	-8.87
337.88	101.72
338.092	23.89
338.305	38.23
338.517	-21.16
338.729	66.9
338.942	-12.97
339.154	25.94
339.367	15.7
339.579	11.61
339.792	54.61
340.004	-0.68
340.217	-60.07
340.429	60.76
340.641	42.32
340.854	71
341.066	-12.97
341.278	-10.92
341.491	83.28
341.703	34.13
341.915	-84.65
342.128	87.38
342.34	-2.73
342.552	36.18
342.764	62.8
342.977	58.71
343.189	87.38
343.401	-17.07
343.613	-2.73
343.826	11.61
344.038	21.85
344.25	58.71
344.462	30.04
344.674	48.47
344.886	-49.83
345.099	-17.07
345.311	27.99
345.523	52.56
345.735	-25.26
345.947	-2.73
346.159	11.61
346.371	9.56
346.583	71
346.795	101.72
347.007	9.56
347.219	11.61
347.431	25.94
347.643	109.91
347.855	40.28
348.067	-4.78
348.279	-10.92
348.491	103.76
348.703	64.85
348.915	60.76
349.127	17.75
349.339	5.46
349.551	25.94
349.763	75.09
349.975	-19.11
350.187	66.9
350.399	15.7
350.61	27.99
350.822	40.28
351.034	36.18
351.246	-21.16
351.458	44.37
351.669	32.08
351.881	68.95
352.093	48.47
352.305	48.47
352.517	17.75
352.728	91.48
352.94	44.37
353.152	87.38
353.363	-19.11
353.575	23.89
353.787	77.14
353.999	38.23
354.21	52.56
354.422	30.04
354.633	-6.83
354.845	-6.83
355.057	73.04
355.268	46.42
355.48	114
355.692	-10.92
355.903	38.23
356.115	17.75
356.326	-58.03
356.538	32.08
356.749	5.46
356.961	71
357.172	42.32
357.384	-25.26
357.595	87.38
357.807	-45.74
358.018	25.94
358.23	27.99
358.441	-6.83
358.653	50.52
358.864	40.28
359.075	38.23
359.287	27.99
359.498	97.62
359.709	83.28
359.921	44.37
360.132	79.19
360.344	15.7
360.555	5.46
360.766	19.8
360.977	62.8
361.189	89.43
361.4	-37.55
361.611	17.75
361.823	32.08
362.034	64.85
362.245	-21.16
362.456	-21.16
362.667	7.51
362.879	11.61
363.09	81.24
363.301	-10.92
363.512	7.51
363.723	-80.55
363.935	87.38
364.146	44.37
364.357	27.99
364.568	79.19
364.779	-12.97
364.99	32.08
365.201	-21.16
365.412	68.95
365.623	-55.98
365.834	-10.92
366.045	11.61
366.256	32.08
366.467	44.37
366.678	13.65
366.889	97.62
367.1	120.15
367.311	46.42
367.522	99.67
367.733	58.71
367.944	85.33
368.155	46.42
368.366	-4.78
368.577	48.47
368.788	36.18
368.999	-31.4
369.209	23.89
369.42	85.33
369.631	99.67
369.842	83.28
370.053	-23.21
370.264	89.43
370.474	21.85
370.685	7.51
370.896	83.28
371.107	56.66
371.317	89.43
371.528	-23.21
371.739	21.85
371.95	56.66
372.16	105.81
372.371	44.37
372.582	40.28
372.792	13.65
373.003	-0.68
373.214	101.72
373.424	68.95
373.635	-12.97
373.846	38.23
374.056	60.76
374.267	27.99
374.477	7.51
374.688	34.13
374.898	40.28
375.109	114
375.319	-17.07
375.53	-8.87
375.74	19.8
375.951	13.65
376.161	44.37
376.372	42.32
376.582	-43.69
376.793	27.99
377.003	64.85
377.214	-27.31
377.424	19.8
377.635	38.23
377.845	-10.92
378.055	11.61
378.266	54.61
378.476	36.18
378.686	9.56
378.897	36.18
379.107	-19.11
379.317	46.42
379.528	19.8
379.738	85.33
379.948	73.04
380.158	54.61
380.369	-2.73
380.579	71
380.789	134.48
380.999	140.63
381.21	71
381.42	200.02
381.63	17.75
381.84	62.8
382.05	-0.68
382.261	44.37
382.471	97.62
382.681	-19.11
382.891	54.61
383.101	99.67
383.311	44.37
383.521	-41.64
383.731	42.32
383.941	52.56
384.151	58.71
384.361	77.14
384.571	15.7
384.781	71
384.991	126.29
385.201	73.04
385.411	71
385.621	68.95
385.831	56.66
386.041	7.51
386.251	11.61
386.461	97.62
386.671	11.61
386.881	-12.97
387.091	44.37
387.301	44.37
387.511	-39.59
387.72	89.43
387.93	30.04
388.14	-51.88
388.35	50.52
388.56	50.52
388.769	54.61
388.979	-4.78
389.189	15.7
389.399	83.28
389.609	60.76
389.818	52.56
390.028	-31.4
390.238	89.43
390.447	64.85
390.657	21.85
390.867	13.65
391.076	13.65
391.286	58.71
391.496	-10.92
391.705	11.61
391.915	107.86
392.125	73.04
392.334	15.7
392.544	23.89
392.753	93.52
392.963	40.28
393.172	15.7
393.382	-43.69
393.591	132.44
393.801	75.09
394.01	130.39
394.22	9.56
394.429	68.95
394.639	38.23
394.848	15.7
395.058	32.08
395.267	40.28
395.477	44.37
395.686	85.33
395.895	105.81
396.105	120.15
396.314	107.86
396.524	42.32
396.733	9.56
396.942	140.63
397.152	122.2
397.361	85.33
397.57	75.09
397.78	97.62
397.989	79.19
398.198	128.34
398.407	21.85
398.617	62.8
398.826	68.95
399.035	83.28
399.244	75.09
399.453	85.33
399.663	95.57
399.872	99.67
400.081	46.42
400.29	62.8
400.499	-0.68
400.708	103.76
400.917	60.76
401.127	42.32
401.336	71
401.545	152.91
401.754	79.19
401.963	75.09
402.172	111.96
402.381	15.7
402.59	85.33
402.799	54.61
403.008	73.04
403.217	95.57
403.426	152.91
403.635	79.19
403.844	89.43
404.053	95.57
404.262	148.82
404.471	161.11
404.68	118.1
404.888	95.57
405.097	124.24
405.306	32.08
405.515	130.39
405.724	75.09
405.933	79.19
406.142	191.83
406.35	128.34
406.559	97.62
406.768	71
406.977	161.11
407.185	150.87
407.394	195.92
407.603	128.34
407.812	126.29
408.02	179.54
408.229	111.96
408.438	185.68
408.646	142.68
408.855	183.63
409.064	146.77
409.272	179.54
409.481	202.07
409.69	173.39
409.898	202.07
410.107	191.83
410.315	228.69
410.524	210.26
410.733	212.31
410.941	216.4
411.15	267.6
411.358	261.46
411.567	302.42
411.775	175.44
411.984	333.14
412.192	333.14
412.401	247.12
412.609	394.58
412.818	367.95
413.026	351.57
413.234	216.4
413.443	322.9
413.651	365.9
413.86	361.81
414.068	458.06
414.276	464.21
414.485	294.22
414.693	517.45
414.901	476.49
415.11	376.14
415.318	423.25
415.526	464.21
415.734	505.17
415.943	523.6
416.151	482.64
416.359	517.45
416.567	542.03
416.776	595.28
416.984	697.67
417.192	636.24
417.4	628.04
417.608	701.77
417.817	712.01
418.025	732.49
418.233	881.99
418.441	804.17
418.649	750.92
418.857	867.66
419.065	898.38
419.273	818.5
419.481	822.6
419.689	875.85
419.897	984.39
420.105	968.01
420.313	1019.21
420.521	1099.08
420.729	1074.5
420.937	1111.36
421.145	1127.75
421.353	1215.81
421.561	1385.79
421.769	1271.11
421.977	1369.41
422.185	1344.83
422.393	1398.08
422.601	1613.12
422.809	1500.48
423.017	1557.82
423.224	1535.29
423.432	1588.54
423.64	1758.52
423.848	1776.95
424.056	1754.43
424.263	1942.84
424.471	1891.64
424.679	1936.7
424.887	2041.14
425.094	1975.61
425.302	1953.08
425.51	2129.2
425.718	2243.89
425.925	2288.95
426.133	2237.75
426.341	2647.34
426.548	2446.64
426.756	2530.61
426.964	2575.66
427.171	2737.45
427.379	2923.82
427.586	2790.7
427.794	2862.38
428.001	3061.03
428.209	3212.58
428.417	3091.75
428.624	3513.63
428.832	3312.93
429.039	3503.39
429.247	3400.99
429.454	3620.13
429.662	3992.86
429.869	3700
430.076	3839.26
430.284	3976.47
430.491	4087.06
430.699	4424.98
430.906	4189.46
431.114	4259.09
431.321	4490.51
431.528	4517.14
431.736	4871.43
431.943	5035.27
432.15	5043.46
432.358	5123.34
432.565	5211.4
432.772	5078.28
432.979	5500.16
433.187	5690.62
433.394	5694.72
433.601	6147.32
433.808	6030.59
434.016	5991.67
434.223	6059.26
434.43	6704.37
434.637	6618.35
434.844	6909.16
435.052	7234.79
435.259	7107.82
435.466	7132.39
435.673	7081.19
435.88	7570.66
436.087	7787.74
436.294	7896.28
436.501	7625.95
436.708	7918.81
436.915	8062.17
437.122	8631.51
437.329	8486.1
437.537	8815.82
437.743	8967.37
437.95	8998.09
438.157	9344.2
438.364	9344.2
438.571	9565.38
438.778	9682.11
438.985	10384.57
439.192	10106.04
439.399	10468.53
439.606	10142.91
439.813	10757.3
440.02	11717.79
440.227	11340.97
440.433	11250.86
440.64	11570.34
440.847	11447.46
441.054	11859.1
441.261	12483.73
441.467	12438.68
441.674	12690.58
441.881	13112.46
442.088	12803.22
442.294	12934.29
442.501	13337.74
442.708	13692.04
442.914	14269.56
443.121	14515.32
443.328	14345.34
443.534	15230.06
443.741	14838.9
443.948	14662.77
444.154	15619.17
444.361	15797.35
444.568	15893.6
444.774	15985.76
444.981	15981.67
445.187	16381.02
445.394	17005.65
445.6	16995.41
445.807	18375.74
446.013	17704.01
446.22	17970.24
446.426	18848.82
446.633	18852.92
446.839	19725.35
447.046	18834.49
447.252	20003.88
447.459	19782.7
447.665	19760.17
447.871	20841.5
448.078	21509.13
448.284	20573.21
448.491	20931.61
448.697	21924.87
448.903	22549.5
449.11	22397.95
449.316	22123.52
449.522	22477.82
449.728	23081.97
449.935	23249.91
450.141	23182.32
450.347	24048.61
450.553	22871.03
450.76	23739.37
450.966	24357.86
451.172	23749.61
451.378	24511.46
451.584	24017.89
451.791	24607.71
451.997	24556.51
452.203	24968.15
452.409	24892.38
452.615	24964.06
452.821	23981.03
453.027	23657.45
453.233	24617.95
453.44	23778.28
453.646	23899.11
453.852	24353.76
454.058	24552.41
454.264	24028.13
454.47	24185.83
454.676	23661.55
454.882	24542.17
455.088	22776.83
455.294	22643.71
455.5	22998.01
455.705	23403.5
455.911	22510.59
456.117	22019.08
456.323	21885.96
456.529	20306.98
456.735	21410.83
456.941	20857.88
457.147	20708.38
457.352	19919.91
457.558	19713.06
457.764	19809.32
457.97	19534.89
458.176	18723.9
458.381	18857.01
458.587	17984.58
458.793	18146.37
458.999	16966.74
459.204	18445.37
459.41	17921.09
459.616	16471.13
459.821	16712.79
460.027	16204.89
460.233	16217.18
460.438	15117.42
460.644	15512.68
460.85	15010.93
461.055	14427.26
461.261	14496.89
461.466	13579.4
461.672	13055.12
461.878	13841.54
462.083	13091.98
462.289	12844.18
462.494	12672.15
462.7	12180.64
462.905	11816.1
463.111	12250.27
463.316	12235.93
463.522	12057.76
463.727	11904.16
463.932	12014.75
464.138	11750.56
464.343	11988.13
464.549	11283.63
464.754	11984.03
464.959	11746.47
465.165	11789.47
465.37	11267.24
465.575	10794.16
465.781	11472.04
465.986	11484.33
466.191	11138.22
466.397	10745.01
466.602	10212.54
466.807	10736.82
467.012	10591.41
467.218	10470.58
467.423	10486.97
467.628	10761.39
467.833	11023.53
468.038	10669.23
468.244	10521.78
468.449	10671.28
468.654	10523.83
468.859	10245.3
469.064	10202.3
469.269	9706.69
469.474	9874.62
469.679	10020.03
469.885	9755.84
470.09	9895.1
470.295	9690.31
470.5	9542.85
470.705	9688.26
470.91	9469.12
471.115	9227.46
471.32	9639.11
471.525	9536.71
471.73	9338.05
471.935	9209.03
472.139	8883.41
472.344	8989.9
472.549	8944.84
472.754	8840.4
472.959	8740.05
473.164	8504.53
473.369	8479.96
473.574	8545.49
473.778	8596.69
473.983	8441.04
474.188	8504.53
474.393	8238.3
474.598	8183
474.802	8172.76
475.007	7765.21
475.212	8201.43
475.417	7754.97
475.621	7683.3
475.826	7705.82
476.031	7460.07
476.235	7361.77
476.44	7533.79
476.645	7394.53
476.849	7322.85
477.054	7273.7
477.259	7404.77
477.463	7322.85
477.668	6931.69
477.872	7226.6
478.077	7208.17
478.282	6823.15
478.486	6800.62
478.691	6771.95
478.895	6700.27
479.1	6540.53
479.304	6690.03
479.509	6380.79
479.713	6671.6
479.918	6401.27
480.122	6411.51
480.326	6507.76
480.531	6495.47
480.735	6431.99
480.94	6241.53
481.144	6558.96
481.348	6276.34
481.553	6372.6
481.757	6180.09
481.961	6405.36
482.166	6348.02
482.37	6329.59
482.574	6061.3
482.778	6141.18
482.983	6315.25
483.187	6153.46
483.391	6100.22
483.595	6264.05
483.8	6192.37
484.004	6141.18
484.208	6132.98
484.412	6100.22
484.616	6255.86
484.821	6145.27
485.025	6257.91
485.229	6126.84
485.433	6212.85
485.637	6221.05
485.841	6171.9
486.045	6094.07
486.249	6141.18
486.453	6141.18
486.657	6300.92
486.861	6098.17
487.065	6108.41
487.269	6212.85
487.473	6161.66
487.677	6251.77
487.881	6425.84
488.085	6262.01
488.289	6427.89
488.493	6008.06
488.697	6159.61
488.901	6323.44
489.105	6210.81
489.309	6378.74
489.512	6378.74
489.716	6159.61
489.92	6296.82
490.124	6255.86
490.328	6497.52
490.531	6327.54
490.735	6522.1
490.939	6378.74
491.143	6321.4
491.346	6262.01
491.55	6348.02
491.754	6548.72
491.958	6522.1
492.161	6524.15
492.365	6485.23
492.569	6431.99
492.772	6479.09
492.976	6474.99
493.18	6522.1
493.383	6817.01
493.587	6692.08
493.79	6829.29
493.994	6751.47
494.197	6708.46
494.401	6890.73
494.605	6722.8
494.808	7036.14
495.012	7150.82
495.215	7204.07
495.419	7136.49
495.622	7146.73
495.825	7290.09
496.029	7251.17
496.232	7468.26
496.436	7410.92
496.639	7687.39
496.843	7445.73
497.046	7757.02
497.249	7695.58
497.453	7769.31
497.656	7840.99
497.859	7910.62
498.063	8008.92
498.266	8234.2
498.469	7972.06
498.673	8084.7
498.876	8185.05
499.079	8357.08
499.282	8375.51
499.485	8676.56
499.689	8703.18
499.892	8770.77
500.095	8854.73
500.298	8760.53
500.501	8803.53
500.705	9114.83
500.908	9317.58
501.111	9528.52
501.314	9399.49
501.517	9600.19
501.72	9602.24
501.923	9626.82
502.126	9794.75
502.329	10132.67
502.532	10054.84
502.735	10122.43
502.938	10415.29
503.141	10626.23
503.344	10509.49
503.547	10591.41
503.75	10753.2
503.953	10833.07
504.156	11193.51
504.359	11041.96
504.562	11213.99
504.765	11594.92
504.968	11429.03
505.17	11672.74
505.373	11678.88
505.576	12080.28
505.779	12072.09
505.982	12348.57
506.185	12342.42
506.387	12547.22
506.59	12584.09
506.793	12823.7
506.996	12815.51
507.198	13184.14
507.401	13153.42
507.604	13362.31
507.807	13542.53
508.009	13761.67
508.212	13755.52
508.415	13962.37
508.617	13968.51
508.82	14115.97
509.022	14183.55
509.225	14838.9
509.428	14566.52
509.63	14892.15
509.833	14845.04
510.035	15365.23
510.238	15193.2
510.44	15471.72
510.643	15776.87
510.845	15684.71
511.048	15629.41
511.25	15983.71
511.453	16153.69
511.655	16786.52
511.858	16745.56
512.06	16841.81
512.262	16864.34
512.465	17015.89
512.667	17304.65
512.87	17665.1
513.072	17769.54
513.274	18039.87
513.477	17935.43
513.679	18367.55
513.881	18449.47
514.084	18689.08
514.286	18578.49
514.488	18861.11
514.69	19332.14
514.893	19698.73
515.095	19618.86
515.297	19846.18
515.499	20055.08
515.701	20528.16
515.904	20491.29
516.106	20790.3
516.308	21144.59
516.51	21128.21
516.712	20960.28
516.914	21412.88
517.116	21984.26
517.318	21955.59
517.52	22057.99
517.722	22232.07
517.925	22455.29
518.127	22895.61
518.329	23043.06
518.531	23051.25
518.733	23546.86
518.935	23573.49
519.136	23852.01
519.338	24054.76
519.54	24527.84
519.742	24783.84
519.944	24673.24
520.146	25279.44
520.348	25500.62
520.55	25506.77
520.752	25629.65
520.954	26104.78
521.155	26123.21
521.357	26551.23
521.559	26747.84
521.761	27337.65
521.963	26934.2
522.164	27161.53
522.366	27507.63
522.568	27679.66
522.77	28210.09
522.971	28636.06
523.173	28294.05
523.375	28531.62
523.576	28578.72
523.778	28627.87
523.98	29240.22
524.181	29612.95
524.383	29569.94
524.584	30094.22
524.786	30028.68
524.988	30155.66
525.189	30389.13
525.391	30557.06
525.592	30612.35
525.794	31054.72
525.995	31232.89
526.197	30792.58
526.398	31183.74
526.6	31701.87
526.801	31415.16
527.003	31650.67
527.204	31751.02
527.406	32121.71
527.607	32076.65
527.808	32389.99
528.01	31892.33
528.211	32279.4
528.412	32875.36
528.614	32807.78
528.815	32897.89
529.016	33260.38
529.218	33010.53
529.419	33305.43
529.62	33319.77
529.822	33131.36
530.023	33295.19
530.224	33395.54
530.425	33659.73
530.626	33596.24
530.828	33467.22
531.029	33856.34
531.23	33719.12
531.431	33626.96
531.632	33749.84
531.833	34124.62
532.035	34098
532.236	33983.31
532.437	34278.22
532.638	34368.33
532.839	34749.25
533.04	34706.24
533.241	34274.12
533.442	34888.51
533.643	34687.81
533.844	34327.37
534.045	34915.14
534.246	34630.47
534.447	34923.33
534.648	34425.67
534.849	34798.4
535.05	34331.47
535.251	34870.08
535.451	34820.93
535.652	34685.76
535.853	34880.32
536.054	34925.38
536.255	35181.37
536.456	34745.16
536.657	35226.43
536.857	34941.76
537.058	35183.42
537.259	35423.03
537.46	35242.81
537.66	34714.44
537.861	34925.38
538.062	35302.2
538.263	35212.09
538.463	35023.68
538.664	35052.35
538.865	34943.81
539.065	35314.49
539.266	34843.46
539.466	35117.89
539.667	34952
539.868	35535.67
540.068	35259.2
540.269	35330.87
540.469	35085.12
540.67	35177.28
540.87	34933.57
541.071	35162.94
541.271	35349.31
541.472	35050.3
541.672	34958.14
541.873	34896.7
542.073	34585.41
542.274	34945.86
542.474	34831.17
542.675	34880.32
542.875	35525.43
543.075	35113.79
543.276	34409.29
543.476	35396.41
543.676	34317.13
543.877	34800.45
544.077	34865.99
544.277	34710.34
544.478	34593.61
544.678	35214.14
544.878	34855.75
545.078	34886.46
545.279	34556.74
545.479	34659.14
545.679	34863.94
545.879	34786.11
546.079	34870.08
546.28	34749.25
546.48	34397
546.68	34974.53
546.88	34964.29
547.08	34995.01
547.28	34814.79
547.48	34460.49
547.68	34747.2
547.88	34730.82
548.081	34818.88
548.281	34739.01
548.481	34673.48
548.681	35064.64
548.881	35115.84
549.081	35083.07
549.28	34474.82
549.48	35056.45
549.68	34655.04
549.88	35058.49
550.08	34747.2
550.28	34925.38
550.48	34679.62
550.68	34984.77
550.88	34474.82
551.08	34509.64
551.279	34798.4
551.479	34702.15
551.679	34534.21
551.879	34599.75
552.079	34765.63
552.278	34653
552.478	34630.47
552.678	34325.32
552.878	34646.85
553.077	34618.18
553.277	34388.81
553.477	34679.62
553.676	34284.36
553.876	34450.25
554.076	34478.92
554.275	34208.59
554.475	33778.51
554.674	34282.31
554.874	34294.6
555.074	34011.98
555.273	34204.49
555.473	34435.91
555.672	34079.57
555.872	34177.87
556.071	34392.9
556.271	34222.92
556.47	33934.16
556.67	33413.98
556.869	33977.17
557.068	34323.27
557.268	33514.33
557.467	33782.61
557.667	33635.16
557.866	34161.48
558.065	33411.93
558.265	33368.92
558.464	33004.38
558.663	33631.06
558.863	33018.72
559.062	33573.72
559.261	33295.19
559.461	33524.57
559.66	33155.93
559.859	33192.79
560.058	32498.53
560.258	32734.05
560.457	32830.3
560.656	33223.51
560.855	32428.9
561.054	32889.7
561.253	32617.32
561.453	32609.12
561.652	32719.71
561.851	32639.84
562.05	32174.95
562.249	32408.42
562.448	32705.38
562.647	32238.44
562.846	32021.36
563.045	32224.11
563.244	31710.07
563.443	32226.15
563.642	31642.48
563.841	31861.62
564.04	31411.06
564.239	31703.92
564.438	31355.77
564.637	31603.57
564.836	31335.29
565.035	31118.2
565.234	31183.74
565.432	31130.49
565.631	30886.78
565.83	31032.19
566.029	30923.65
566.228	30851.97
566.427	30933.89
566.625	30565.25
566.824	30415.75
567.023	30722.94
567.222	30094.22
567.42	30583.68
567.619	30514.05
567.818	29840.27
568.016	29936.52
568.215	30102.41
568.414	29854.61
568.612	30182.28
568.811	29393.81
569.01	29746.06
569.208	29023.13
569.407	29528.98
569.605	28844.96
569.804	29500.31
570.002	28988.31
570.201	28736.41
570.4	28898.2
570.598	28521.38
570.797	28355.49
570.995	28306.34
571.193	28097.45
571.392	28771.23
571.59	28408.74
571.789	28380.07
571.987	27857.84
572.186	28083.11
572.384	27720.62
572.582	27972.52
572.781	27780.01
572.979	27524.02
573.177	27732.91
573.376	27257.78
573.574	27429.81
573.772	27388.85
573.971	27179.96
574.169	27104.18
574.367	26973.11
574.565	27167.67
574.763	26848.19
574.962	26790.84
575.16	26321.86
575.358	26565.57
575.556	25883.59
575.754	26794.94
575.952	25938.89
576.151	25973.7
576.349	25910.22
576.547	25998.28
576.745	26074.06
576.943	25867.21
577.141	25664.46
577.339	26149.83
577.537	25629.65
577.735	25656.27
577.933	25361.36
578.131	25349.07
578.329	25285.59
578.527	25181.14
578.725	25142.23
578.923	24947.67
579.121	24966.1
579.319	24943.58
579.516	24959.96
579.714	24724.44
579.912	24634.33
580.11	24439.78
580.308	24501.22
580.506	24701.92
580.704	23999.46
580.901	24564.7
581.099	24595.42
581.297	23843.82
581.495	24089.57
581.692	24159.2
581.89	23663.6
582.088	24105.96
582.285	23553.01
582.483	23735.28
582.681	23606.25
582.878	23565.29
583.076	23313.39
583.274	23493.61
583.471	23014.39
583.669	23362.54
583.866	23155.7
584.064	23124.98
584.262	22778.87
584.459	23014.39
584.657	22797.31
584.854	23100.4
585.052	22711.29
585.249	22686.72
585.447	22443.01
585.644	22348.8
585.841	22711.29
586.039	22555.65
586.236	22539.26
586.434	22209.54
586.631	21775.37
586.828	22023.17
587.026	22070.28
587.223	21914.63
587.42	22082.56
587.618	21812.23
587.815	21670.92
588.012	21353.49
588.21	21345.3
588.407	21535.76
588.604	21476.37
588.801	21259.28
588.999	21566.48
589.196	21085.2
589.393	21388.3
589.59	20763.67
589.787	20947.99
589.984	20859.93
590.182	20712.47
590.379	21107.73
590.576	20747.29
590.773	20790.3
590.97	20575.26
591.167	20775.96
591.364	20522.01
591.561	20411.42
591.758	20442.14
591.955	20382.75
592.152	20370.46
592.349	20476.96
592.546	20395.04
592.743	20311.07
592.94	19672.11
593.137	20259.87
593.334	19924.01
593.531	19715.11
593.727	19713.06
593.924	19907.62
594.121	19737.64
594.318	19803.18
594.515	19278.9
594.712	19708.97
594.908	19272.75
595.105	19340.33
595.302	19051.57
595.499	19358.77
595.696	19280.94
595.892	19090.48
596.089	19352.62
596.286	18934.84
596.482	18775.09
596.679	18711.61
596.876	18811.96
597.072	18627.64
597.269	18910.26
597.466	18881.59
597.662	18615.35
597.859	18650.17
598.055	18676.79
598.252	18498.62
598.448	18365.5
598.645	18390.08
598.841	18140.22
599.038	18287.68
599.234	17892.42
599.431	18205.76
599.627	17718.34
599.824	18009.15
600.02	17771.59
600.217	18103.36
600.413	17738.82
600.609	17626.18
600.806	17478.73
601.002	17980.48
601.198	17376.33
601.395	17636.42
601.591	17441.87
601.787	17349.71
601.984	17400.91
602.18	17140.82
602.376	17362
602.572	16893.01
602.769	17226.83
602.965	16860.24
603.161	17226.83
603.357	17054.8
603.553	16958.55
603.75	17153.1
603.946	16780.37
604.142	17009.75
604.338	16561.24
604.534	16782.42
604.73	16507.99
604.926	16776.28
605.122	16612.44
605.318	16266.33
605.514	16133.22
605.71	16202.85
605.906	16258.14
606.102	16184.41
606.298	16295
606.494	16217.18
606.69	16276.57
606.886	16043.1
607.082	15887.46
607.278	15801.44
607.474	15713.38
607.67	15758.44
607.866	15631.46
608.062	16039.01
608.257	15762.53
608.453	15619.17
608.649	15735.91
608.845	15647.85
609.041	15514.73
609.236	15557.74
609.432	15529.06
609.628	15447.15
609.824	15496.3
610.019	15131.76
610.215	15187.05
610.411	15473.77
610.606	15176.81
610.802	15131.76
610.998	15219.82
611.193	15137.9
611.389	14929.01
611.584	15072.37
611.78	14900.34
611.976	15037.55
612.171	14818.42
612.367	14906.48
612.562	14871.67
612.758	14746.74
612.953	14541.94
613.149	14869.62
613.344	14711.92
613.539	14664.82
613.735	14683.25
613.93	14720.12
614.126	14574.71
614.321	14574.71
614.517	14675.06
614.712	14560.38
614.907	14365.82
615.103	14468.22
615.298	14304.38
615.493	14408.83
615.688	13976.7
615.884	14414.97
616.079	14079.1
616.274	14130.3
616.47	14150.78
616.665	14064.77
616.86	14226.56
617.055	14036.1
617.25	13821.06
617.445	14056.57
617.641	13724.8
617.836	13743.24
618.031	13831.3
618.226	13999.23
618.421	13954.18
618.616	13982.85
618.811	13550.73
619.006	13780.1
619.201	13651.08
619.396	13618.31
619.591	13245.58
619.786	13364.36
619.981	13194.38
620.176	13288.59
620.371	13112.46
620.566	13153.42
620.761	13296.78
620.956	13018.25
621.151	12780.69
621.346	13012.11
621.541	12680.34
621.735	12823.7
621.93	12545.17
622.125	12666
622.32	12586.13
622.515	12641.43
622.709	12428.44
622.904	12684.44
623.099	12467.35
623.294	12360.86
623.488	12106.91
623.683	12311.71
623.878	12053.66
624.072	12203.16
624.267	12164.25
624.462	11992.22
624.656	11783.33
624.851	11836.58
625.046	11639.97
625.24	11740.32
625.435	11578.53
625.629	11541.67
625.824	11482.28
626.018	11287.72
626.213	11228.33
626.407	11310.25
626.602	11168.94
626.796	11261.1
626.991	10994.86
627.185	11338.92
627.38	10798.26
627.574	10980.53
627.768	10968.24
627.963	10841.26
628.157	10749.11
628.352	10925.23
628.546	10603.7
628.74	10882.22
628.935	10300.6
629.129	10683.57
629.323	10398.9
629.517	10255.54
629.712	10437.81
629.906	10355.9
630.1	9995.45
630.294	10134.71
630.489	10020.03
630.683	10122.43
630.877	9710.79
631.071	9802.94
631.265	9866.43
631.459	9733.31
631.653	9651.39
631.848	9931.97
632.042	9665.73
632.236	9817.28
632.43	9505.99
632.624	9632.96
632.818	9309.38
633.012	9213.13
633.206	9432.26
633.4	9331.91
633.594	9331.91
633.788	9157.83
633.982	9211.08
634.176	9354.44
634.369	9221.32
634.563	9024.72
634.757	8844.49
634.951	8877.26
635.145	8991.95
635.339	8916.17
635.533	8678.61
635.726	8649.94
635.92	8588.5
636.114	8735.95
636.308	8600.79
636.501	8582.35
636.695	8707.28
636.889	8535.25
637.083	8283.35
637.276	8398.04
637.47	8164.57
637.664	8049.88
637.857	8107.23
638.051	8099.03
638.244	8082.65
638.438	8187.1
638.632	8115.42
638.825	7986.4
639.019	8082.65
639.212	7675.1
639.406	7843.04
639.599	7795.93
639.793	7957.72
639.986	7552.23
640.18	7568.61
640.373	7511.27
640.567	7634.14
640.76	7660.77
640.954	7509.22
641.147	7372
641.34	7410.92
641.534	7384.29
641.727	7269.61
641.92	7386.34
642.114	7222.5
642.307	7177.45
642.5	7179.5
642.694	7015.66
642.887	7062.76
643.08	7156.97
643.273	6970.6
643.467	6993.13
643.66	6880.49
643.853	6880.49
644.046	6890.73
644.239	6833.39
644.432	6819.05
644.626	6716.65
644.819	6765.81
645.012	6642.93
645.205	6798.57
645.398	6710.51
645.591	6677.74
645.784	6464.75
645.977	6397.17
646.17	6554.87
646.363	6606.06
646.556	6370.55
646.749	6288.63
646.942	6278.39
647.135	6518
647.328	6366.45
647.521	6130.94
647.714	6165.75
647.907	6073.59
648.099	6153.46
648.292	6010.11
648.485	5893.37
648.678	6061.3
648.871	5909.76
649.064	5881.08
649.256	5917.95
649.449	5827.84
649.642	5838.08
649.835	5776.64
650.027	5715.2
650.22	5653.76
650.413	5537.02
650.605	5616.9
650.798	5674.24
650.991	5584.13
651.183	5598.46
651.376	5567.74
651.568	5494.02
651.761	5559.55
651.954	5596.42
652.146	5582.08
652.339	5418.24
652.531	5448.96
652.724	5328.13
652.916	5397.76
653.109	5162.25
653.301	5356.8
653.494	5416.19
653.686	5317.89
653.879	5313.8
654.071	5203.21
654.263	5104.9
654.456	5192.97
654.648	5092.62
654.84	4977.93
655.033	4951.31
655.225	5207.3
655.417	4844.81
655.61	4971.79
655.802	4924.68
655.994	5027.08
656.186	4924.68
656.379	4850.96
656.571	4928.78
656.763	4816.14
656.955	4797.71
657.148	4857.1
657.34	4766.99
657.532	4545.81
657.724	4691.21
657.916	4746.51
658.108	4537.62
658.3	4771.08
658.492	4678.93
658.684	4730.13
658.876	4570.38
659.068	4537.62
659.26	4500.75
659.452	4394.26
659.644	4455.7
659.836	4527.38
660.028	4533.52
660.22	4353.3
660.412	4384.02
660.604	4392.21
660.796	4416.79
660.988	4279.57
661.18	4390.16
661.372	4384.02
661.563	4244.76
661.755	4320.53
661.947	4162.84
662.139	4230.42
662.331	4306.2
662.522	4185.37
662.714	4220.18
662.906	4093.21
663.097	4107.54
663.289	4097.3
663.481	4148.5
663.673	4076.82
663.864	4103.45
664.056	3900.7
664.247	3941.66
664.439	4037.91
664.631	4021.53
664.822	3953.94
665.014	3906.84
665.205	3796.25
665.397	3892.51
665.588	3929.37
665.78	3872.03
665.971	3749.15
666.163	3831.07
666.354	3921.18
666.546	3917.08
666.737	3786.01
666.929	3794.2
667.12	3824.92
667.311	3802.4
667.503	3702.04
667.694	3724.57
667.885	3714.33
668.077	3640.61
668.268	3722.52
668.459	3749.15
668.651	3720.48
668.842	3818.78
669.033	3712.28
669.224	3493.15
669.416	3743
669.607	3888.41
669.798	3685.66
669.989	3632.41
670.18	3667.23
670.371	3693.85
670.563	3704.09
670.754	3601.69
670.945	3673.37
671.136	3683.61
671.327	3575.07
671.518	3517.73
671.709	3601.69
671.9	3622.17
672.091	3517.73
672.282	3573.02
672.473	3546.4
672.664	3503.39
672.855	3521.82
673.046	3515.68
673.237	3730.72
673.428	3613.98
673.619	3700
673.809	3446.05
674	3652.89
674.191	3493.15
674.382	3484.96
674.573	3458.34
674.764	3407.14
674.954	3396.9
675.145	3439.9
675.336	3472.67
675.527	3476.77
675.717	3439.9
675.908	3573.02
676.099	3452.19
676.289	3505.44
676.48	3446.05
676.671	3538.21
676.861	3534.11
677.052	3480.86
677.243	3523.87
677.433	3302.69
677.624	3523.87
677.814	3599.65
678.005	3462.43
678.195	3587.36
678.386	3392.8
678.576	3482.91
678.767	3546.4
678.957	3407.14
679.148	3573.02
679.338	3411.23
679.529	3542.3
679.719	3411.23
679.909	3482.91
680.1	3573.02
680.29	3599.65
680.481	3339.55
680.671	3587.36
680.861	3501.34
681.052	3581.21
681.242	3575.07
681.432	3546.4
681.622	3499.3
681.813	3589.41
682.003	3568.93
682.193	3523.87
682.383	3540.26
682.573	3501.34
682.764	3476.77
682.954	3622.17
683.144	3671.33
683.334	3509.54
683.524	3568.93
683.714	3558.69
683.904	3517.73
684.094	3415.33
684.284	3583.26
684.474	3470.62
684.664	3624.22
684.854	3587.36
685.044	3448.1
685.234	3466.53
685.424	3521.82
685.614	3415.33
685.804	3519.78
685.994	3527.97
686.184	3513.63
686.374	3441.95
686.564	3370.27
686.753	3429.66
686.943	3394.85
687.133	3599.65
687.323	3392.8
687.513	3400.99
687.702	3511.58
687.892	3435.81
688.082	3366.18
688.272	3454.24
688.461	3427.62
688.651	3415.33
688.841	3308.83
689.03	3364.13
689.22	3241.25
689.41	3390.75
689.599	3251.49
689.789	3085.61
689.979	3179.81
690.168	3218.72
690.358	3122.47
690.547	3255.59
690.737	3218.72
690.926	3106.09
691.116	3185.96
691.305	3120.42
691.495	3108.13
691.684	3126.57
691.874	3110.18
692.063	3101.99
692.252	3095.85
692.442	3056.93
692.631	3124.52
692.82	2929.96
693.01	2952.49
693.199	2917.67
693.388	3022.12
693.578	2929.96
693.767	2911.53
693.956	2909.48
694.146	2829.61
694.335	2858.28
694.524	2944.3
694.713	2954.54
694.902	2944.3
695.092	2929.96
695.281	2852.14
695.47	2929.96
695.659	2772.27
695.848	2819.37
696.037	2737.45
696.226	2825.51
696.415	2882.86
696.604	2872.62
696.793	2817.32
696.982	2616.62
697.171	2866.47
697.36	2819.37
697.549	2647.34
697.738	2745.64
697.927	2606.38
698.116	2876.71
698.305	2710.83
698.494	2790.7
698.683	2688.3
698.872	2772.27
699.061	2749.74
699.25	2721.07
699.438	2782.51
699.627	2678.06
699.816	2696.49
700.005	2649.39
700.193	2716.97
700.382	2776.36
700.571	2811.18
700.76	2788.65
700.948	2661.68
701.137	2891.05
701.326	2708.78
701.514	2788.65
701.703	2798.89
701.892	2796.84
702.08	2856.23
702.269	2743.6
702.457	2684.2
702.646	2784.55
702.834	2600.24
703.023	2753.84
703.212	2782.51
703.4	2886.95
703.589	2651.44
703.777	2762.03
703.965	2759.98
704.154	2841.9
704.342	2854.19
704.531	2780.46
704.719	2778.41
704.907	2874.67
705.096	2780.46
705.284	2721.07
705.472	2845.99
705.661	2854.19
705.849	2831.66
706.037	2919.72
706.226	2719.02
706.414	2811.18
706.602	2737.45
706.79	2858.28
706.979	2702.64
707.167	2802.99
707.355	2811.18
707.543	2807.08
707.731	2938.15
707.919	2805.03
708.107	2774.31
708.296	2854.19
708.484	2905.39
708.672	2835.75
708.86	2692.4
709.048	2944.3
709.236	2825.51
709.424	2948.39
709.612	2860.33
709.8	2794.79
709.988	2845.99
710.176	2886.95
710.364	2987.3
710.551	2909.48
710.739	2837.8
710.927	2932.01
711.115	2850.09
711.303	2882.86
711.491	2993.45
711.679	2893.1
711.866	2958.63
712.054	3093.8
712.242	2796.84
712.43	3011.88
712.617	3063.08
712.805	3040.55
712.993	2866.47
713.181	2979.11
713.368	3058.98
713.556	2905.39
713.744	2868.52
713.931	3026.22
714.119	3018.02
714.306	3009.83
714.494	3048.74
714.682	2960.68
714.869	2884.91
715.057	3134.76
715.244	2956.58
715.432	3015.98
715.619	3011.88
715.807	3114.28
715.994	3042.6
716.182	3013.93
716.369	3007.78
716.556	3071.27
716.744	3126.57
716.931	3185.96
717.119	3239.2
717.306	3196.2
717.493	2940.2
717.681	3200.29
717.868	3198.24
718.055	3110.18
718.242	3015.98
718.43	3140.9
718.617	3181.86
718.804	3147.05
718.991	3175.72
719.179	3185.96
719.366	3095.85
719.553	3218.72
719.74	3204.39
719.927	3241.25
720.114	3245.35
720.301	3069.22
720.488	3075.37
720.676	3132.71
720.863	3298.6
721.05	3241.25
721.237	3216.68
721.424	3224.87
721.611	3280.16
721.798	3159.33
721.985	3216.68
722.172	3366.18
722.358	3233.06
722.545	3335.46
722.732	3200.29
722.919	3333.41
723.106	3165.48
723.293	3282.21
723.48	3282.21
723.667	3192.1
723.853	3265.83
724.04	3448.1
724.227	3355.94
724.414	3462.43
724.6	3280.16
724.787	3355.94
724.974	3431.71
725.161	3292.45
725.347	3202.34
725.534	3286.31
725.72	3489.06
725.907	3409.19
726.094	3349.79
726.28	3349.79
726.467	3312.93
726.653	3491.1
726.84	3517.73
727.027	3530.02
727.213	3368.23
727.4	3441.95
727.586	3267.88
727.773	3491.1
727.959	3308.83
728.145	3413.28
728.332	3386.66
728.518	3460.38
728.705	3489.06
728.891	3550.5
729.077	3376.42
729.264	3409.19
729.45	3495.2
729.636	3566.88
729.823	3562.78
730.009	3591.45
730.195	3525.92
730.382	3468.58
730.568	3476.77
730.754	3468.58
730.94	3542.3
731.126	3595.55
731.313	3646.75
731.499	3413.28
731.685	3495.2
731.871	3650.85
732.057	3675.42
732.243	3601.69
732.429	3464.48
732.615	3579.17
732.801	3595.55
732.987	3462.43
733.173	3603.74
733.359	3630.37
733.545	3484.96
733.731	3446.05
733.917	3646.75
734.103	3691.81
734.289	3656.99
734.475	3597.6
734.661	3620.13
734.847	3624.22
735.033	3613.98
735.219	3753.24
735.404	3521.82
735.59	3644.7
735.776	3732.76
735.962	3540.26
736.148	3869.98
736.333	3702.04
736.519	3650.85
736.705	3570.97
736.89	3542.3
737.076	3575.07
737.262	3538.21
737.447	3638.56
737.633	3427.62
737.819	3675.42
738.004	3536.16
738.19	3552.54
738.375	3532.06
738.561	3613.98
738.747	3585.31
738.932	3495.2
739.118	3679.52
739.303	3644.7
739.489	3706.14
739.674	3491.1
739.859	3661.09
740.045	3527.97
740.23	3525.92
740.416	3585.31
740.601	3575.07
740.786	3542.3
740.972	3435.81
741.157	3441.95
741.342	3472.67
741.528	3405.09
741.713	3530.02
741.898	3378.47
742.084	3519.78
742.269	3444
742.454	3540.26
742.639	3640.61
742.824	3409.19
743.01	3480.86
743.195	3484.96
743.38	3417.38
743.565	3501.34
743.75	3444
743.935	3351.84
744.12	3366.18
744.305	3419.43
744.49	3487.01
744.675	3345.7
744.86	3448.1
745.045	3329.31
745.23	3288.36
745.415	3357.99
745.6	3419.43
745.785	3237.16
745.97	3237.16
746.155	3327.27
746.34	3261.73
746.525	3282.21
746.71	3241.25
746.895	3179.81
747.079	3288.36
747.264	3269.92
747.449	3290.4
747.634	3026.22
747.819	3167.52
748.003	3050.79
748.188	3050.79
748.373	3054.89
748.557	3126.57
748.742	2993.45
748.927	3042.6
749.111	2946.34
749.296	2964.78
749.481	2952.49
749.665	3026.22
749.85	2858.28
750.034	2964.78
750.219	2981.16
750.404	2917.67
750.588	2876.71
750.773	2870.57
750.957	2948.39
751.141	2772.27
751.326	2792.75
751.51	2768.17
751.695	2766.12
751.879	2792.75
752.064	2796.84
752.248	2749.74
752.432	2786.6
752.617	2653.48
752.801	2667.82
752.985	2616.62
753.17	2661.68
753.354	2585.9
753.538	2622.77
753.722	2460.98
753.907	2587.95
754.091	2581.81
754.275	2590
754.459	2420.02
754.643	2467.12
754.828	2546.99
755.012	2510.13
755.196	2403.63
755.38	2379.06
755.564	2458.93
755.748	2362.67
755.932	2434.35
756.116	2415.92
756.3	2348.34
756.484	2377.01
756.668	2407.73
756.852	2231.6
757.036	2207.03
757.22	2336.05
757.404	2272.56
757.588	2245.94
757.772	2155.83
757.956	2139.44
758.14	2243.89
758.323	2092.34
758.507	2225.46
758.691	1969.46
758.875	2207.03
759.059	2102.58
759.242	2247.99
759.426	1991.99
759.61	2131.25
759.794	1979.7
759.977	2084.15
760.161	1985.85
760.345	2110.77
760.528	2153.78
760.712	2059.57
760.895	2012.47
761.079	1922.36
761.263	1977.66
761.446	1963.32
761.63	1936.7
761.813	1873.21
761.997	1920.31
762.18	1813.82
762.364	1961.27
762.547	1844.54
762.731	1918.26
762.914	1928.5
763.098	1742.14
763.281	1842.49
763.464	1785.15
763.648	1832.25
763.831	1748.28
764.015	1701.18
764.198	1822.01
764.381	1789.24
764.564	1764.67
764.748	1735.99
764.931	1779
765.114	1711.42
765.297	1828.15
765.481	1746.23
765.664	1733.95
765.847	1836.35
766.03	1658.17
766.213	1695.04
766.397	1649.98
766.58	1721.66
766.763	1711.42
766.946	1613.12
767.129	1561.92
767.312	1631.55
767.495	1746.23
767.678	1541.44
767.861	1713.47
768.044	1631.55
768.227	1686.84
768.41	1549.63
768.593	1711.42
768.776	1586.49
768.959	1570.11
769.142	1566.01
769.324	1674.56
769.507	1551.68
769.69	1525.05
769.873	1471.81
770.056	1686.84
770.239	1547.58
770.421	1533.25
770.604	1436.99
770.787	1471.81
770.97	1520.96
771.152	1357.12
771.335	1527.1
771.518	1480
771.7	1604.92
771.883	1484.09
772.066	1428.8
772.248	1475.9
772.431	1432.9
772.613	1400.13
772.796	1473.85
772.978	1455.42
773.161	1465.66
773.343	1350.98
773.526	1310.02
773.708	1398.08
773.891	1228.1
774.073	1312.07
774.256	1219.91
774.438	1312.07
774.621	1305.92
774.803	1363.26
774.985	1344.83
775.168	1262.91
775.35	1217.86
775.532	1357.12
775.715	1244.48
775.897	1195.33
776.079	1197.38
776.261	1246.53
776.444	1232.19
776.626	1164.61
776.808	1197.38
776.99	1176.9
777.173	1238.34
777.355	1191.24
777.537	1260.87
777.719	1084.74
777.901	1148.23
778.083	1070.4
778.265	947.53
778.447	1054.02
778.629	1078.6
778.811	1037.64
778.993	1205.57
779.175	1025.35
779.357	1129.8
779.539	1054.02
779.721	1060.17
779.903	963.91
780.085	978.25
780.267	1006.92
780.449	996.68
780.631	947.53
780.812	1011.01
780.994	1035.59
781.176	914.76
781.358	1013.06
781.54	935.24
781.721	980.29
781.903	1002.82
782.085	853.32
782.267	945.48
782.448	826.7
782.63	892.23
782.812	855.37
782.993	906.57
783.175	791.88
783.357	906.57
783.538	1002.82
783.72	847.18
783.901	849.22
784.083	744.78
784.264	877.9
784.446	800.07
784.627	798.03
784.809	814.41
784.99	838.98
785.172	841.03
785.353	777.55
785.535	761.16
785.716	771.4
785.897	767.31
786.079	732.49
786.26	787.79
786.441	783.69
786.623	640.33
786.804	687.43
786.985	673.1
787.167	742.73
787.348	658.76
787.529	785.74
787.71	775.5
787.891	683.34
788.073	597.32
788.254	623.95
788.435	671.05
788.616	615.76
788.797	697.67
788.978	714.06
789.159	609.61
789.34	617.8
789.522	605.52
789.703	613.71
789.884	677.19
790.065	662.86
790.246	615.76
790.427	619.85
790.607	677.19
790.788	632.14
790.969	542.03
791.15	580.94
791.331	548.17
791.512	580.94
791.693	550.22
791.874	554.32
792.054	607.56
792.235	634.19
792.416	558.41
792.597	521.55
792.778	570.7
792.958	556.36
793.139	535.89
793.32	595.28
793.5	517.45
793.681	578.89
793.862	533.84
794.042	466.25
794.223	537.93
794.404	513.36
794.584	484.69
794.765	492.88
794.945	460.11
795.126	499.02
795.306	476.49
795.487	503.12
795.667	492.88
795.848	509.26
796.028	570.7
796.209	482.64
796.389	468.3
796.57	413.01
796.75	439.63
796.93	492.88
797.111	460.11
797.291	462.16
797.471	525.65
797.652	429.39
797.832	425.29
798.012	431.44
798.192	392.53
798.373	343.38
798.553	482.64
798.733	433.49
798.913	413.01
799.093	400.72
799.274	482.64
799.454	458.06
799.634	499.02
799.814	439.63
799.994	390.48
800.174	398.67
800.354	415.05
800.534	363.86
800.714	382.29
800.894	384.34
801.074	404.82
801.254	376.14
801.434	370
801.614	408.91
801.794	435.53
801.974	1074.5
802.154	474.45
802.334	386.38
802.514	318.8
802.693	370
802.873	370
803.053	386.38
803.233	398.67
803.413	425.29
803.592	349.52
803.772	410.96
803.952	421.2
804.131	304.46
804.311	415.05
804.491	343.38
804.67	341.33
804.85	314.7
805.03	300.37
805.209	351.57
805.389	345.42
805.568	359.76
805.748	271.7
805.928	349.52
806.107	456.01
806.287	277.84
806.466	357.71
806.646	357.71
806.825	361.81
807.004	263.51
807.184	265.55
807.363	359.76
807.543	326.99
807.722	232.79
807.901	326.99
808.081	396.62
808.26	173.39
808.439	335.18
808.619	322.9
808.798	335.18
808.977	308.56
809.156	382.29
809.336	329.04
809.515	367.95
809.694	228.69
809.873	257.36
810.052	345.42
810.231	351.57
810.411	341.33
810.59	267.6
810.769	312.66
810.948	335.18
811.127	214.35
811.306	216.4
811.485	267.6
811.664	324.94
811.843	245.07
812.022	253.27
812.201	249.17
812.38	322.9
812.559	288.08
812.737	267.6
812.916	243.03
813.095	277.84
813.274	320.85
813.453	224.59
813.632	333.14
813.811	265.55
813.989	238.93
814.168	175.44
814.347	277.84
814.526	273.75
814.704	253.27
814.883	273.75
815.062	185.68
815.24	281.94
815.419	140.63
815.598	183.63
815.776	157.01
815.955	191.83
816.133	183.63
816.312	253.27
816.49	238.93
816.669	167.25
816.847	261.46
817.026	161.11
817.204	124.24
817.383	273.75
817.561	200.02
817.74	259.41
817.918	255.31
818.097	142.68
818.275	271.7
818.453	292.18
818.632	220.5
818.81	116.05
818.988	210.26
819.167	232.79
819.345	249.17
819.523	222.55
819.701	255.31
819.879	206.16
820.058	161.11
820.236	175.44
820.414	210.26
820.592	224.59
820.77	206.16
820.948	189.78
821.127	171.35
821.305	240.98
821.483	107.86
821.661	214.35
821.839	226.64
822.017	128.34
822.195	216.4
822.373	177.49
822.551	173.39
822.729	210.26
822.907	197.97
823.085	163.15
823.262	214.35
823.44	140.63
823.618	124.24
823.796	56.66
823.974	140.63
824.152	152.91
824.329	191.83
824.507	179.54
824.685	142.68
824.863	154.96
825.04	185.68
825.218	134.48
825.396	206.16
825.574	185.68
825.751	171.35
825.929	159.06
826.107	146.77
826.284	140.63
826.462	120.15
826.639	107.86
826.817	87.38
826.994	154.96
827.172	124.24
827.349	187.73
827.527	189.78
827.704	240.98
827.882	179.54
828.059	111.96
828.237	120.15
828.414	128.34
828.591	95.57
828.769	146.77
828.946	142.68
829.124	191.83
829.301	130.39
829.478	140.63
829.655	200.02
829.833	177.49
830.01	56.66
830.187	181.59
830.364	146.77
830.542	93.52
830.719	189.78
830.896	89.43
831.073	140.63
831.25	169.3
831.427	144.72
831.604	159.06
831.782	204.11
831.959	134.48
832.136	154.96
832.313	157.01
832.49	81.24
832.667	157.01
832.844	181.59
833.021	114
833.198	105.81
833.374	140.63
833.551	181.59
833.728	163.15
833.905	62.8
834.082	52.56
834.259	109.91
834.436	163.15
834.612	56.66
834.789	120.15
834.966	66.9
835.143	146.77
835.319	75.09
835.496	148.82
835.673	132.44
835.85	157.01
836.026	161.11
836.203	161.11
836.38	134.48
836.556	111.96
836.733	56.66
836.909	114
837.086	73.04
837.262	-21.16
837.439	152.91
837.616	23.89
837.792	111.96
837.968	103.76
838.145	66.9
838.321	68.95
838.498	124.24
838.674	111.96
838.851	111.96
839.027	27.99
839.203	109.91
839.38	103.76
839.556	114
839.732	136.53
839.909	107.86
840.085	175.44
840.261	95.57
840.437	122.2
840.614	95.57
840.79	152.91
840.966	75.09
841.142	138.58
841.318	66.9
841.494	93.52
841.671	95.57
841.847	36.18
842.023	56.66
842.199	101.72
842.375	97.62
842.551	83.28
842.727	7.51
842.903	187.73
843.079	-0.68
843.255	140.63
843.431	66.9
843.607	46.42
843.783	-0.68
843.959	179.54
844.134	83.28
844.31	64.85
844.486	111.96
844.662	5.46
844.838	27.99
845.013	150.87
845.189	91.48
845.365	68.95
845.541	56.66
845.716	48.47
845.892	99.67
846.068	44.37
846.244	-12.97
846.419	54.61
846.595	64.85
846.77	30.04
846.946	54.61
847.122	54.61
847.297	120.15
847.473	132.44
847.648	73.04
847.824	21.85
847.999	36.18
848.175	3.41
848.35	89.43
848.526	124.24
848.701	93.52
848.876	81.24
849.052	107.86
849.227	50.52
849.403	13.65
849.578	167.25
849.753	109.91
849.929	-8.87
850.104	23.89
850.279	87.38
850.454	73.04
850.63	75.09
850.805	9.56
850.98	-2.73
851.155	40.28
851.33	87.38
851.505	66.9
851.681	64.85
851.856	-0.68
852.031	60.76
852.206	111.96
852.381	-8.87
852.556	30.04
852.731	36.18
852.906	34.13
853.081	-2.73
853.256	73.04
853.431	44.37
853.606	81.24
853.781	91.48
853.956	25.94
854.131	48.47
854.305	75.09
854.48	21.85
854.655	-53.93
854.83	-43.69
855.005	66.9
855.18	81.24
855.354	32.08
855.529	93.52
855.704	-10.92
855.879	79.19
856.053	66.9
856.228	25.94
856.403	-68.27
856.577	79.19
856.752	5.46
856.926	-6.83
857.101	103.76
857.276	-10.92
857.45	95.57
857.625	42.32
857.799	46.42
857.974	81.24
858.148	-12.97
858.323	85.33
858.497	48.47
858.672	56.66
858.846	-15.02
859.02	48.47
859.195	75.09
859.369	25.94
859.543	-0.68
859.718	-2.73
859.892	-4.78
860.066	34.13
860.241	-12.97
860.415	75.09
860.589	-31.4
860.763	-25.26
860.938	-19.11
861.112	13.65
861.286	21.85
861.46	30.04
861.634	60.76
861.808	-23.21
861.982	42.32
862.157	34.13
862.331	-17.07
862.505	-29.35
862.679	34.13
862.853	-41.64
863.027	-74.41
863.201	124.24
863.375	5.46
863.549	97.62
863.722	-4.78
863.896	116.05
864.07	-23.21
864.244	91.48
864.418	60.76
864.592	-2.73
864.766	-8.87
864.939	52.56
865.113	17.75
865.287	64.85
865.461	-12.97
865.634	40.28
865.808	23.89
865.982	54.61
866.156	-25.26
866.329	13.65
866.503	9.56
866.676	23.89
866.85	-17.07
867.024	56.66
867.197	30.04
867.371	11.61
867.544	85.33
867.718	13.65
867.891	32.08
868.065	7.51
868.238	-12.97
868.412	15.7
868.585	5.46
868.759	71
868.932	1.37
869.105	32.08
869.279	44.37
869.452	-27.31
869.625	-8.87
869.799	11.61
869.972	-6.83
870.145	73.04
870.319	30.04
870.492	34.13
870.665	-17.07
870.838	19.8
871.011	-15.02
871.185	13.65
871.358	13.65
871.531	13.65
871.704	-39.59
871.877	32.08
872.05	-8.87
872.223	27.99
872.396	-0.68
872.569	9.56
872.742	-84.65
872.915	38.23
873.088	-4.78
873.261	9.56
873.434	93.52
873.607	-29.35
873.78	-39.59
873.953	-0.68
874.126	46.42
874.299	21.85
874.471	-4.78
874.644	60.76
874.817	27.99
874.99	38.23
875.163	-10.92
875.335	-12.97
875.508	-23.21
875.681	11.61
875.853	-43.69
876.026	46.42
876.199	23.89
876.371	32.08
876.544	38.23
876.717	11.61
876.889	-15.02
877.062	56.66
877.234	-68.27
877.407	-80.55
877.579	11.61
877.752	-8.87
877.924	56.66
878.097	42.32
878.269	-29.35
878.442	56.66
878.614	-33.45
878.786	3.41
878.959	-43.69
879.131	77.14
879.303	-45.74
879.476	-68.27
879.648	56.66
879.82	-12.97
879.993	38.23
880.165	3.41
880.337	-78.51
880.509	52.56
880.681	-4.78
880.854	-2.73
881.026	27.99
881.198	7.51
881.37	-55.98
881.542	-8.87
881.714	34.13
881.886	58.71
882.058	44.37
882.23	58.71
882.402	-10.92
882.574	-25.26
882.746	-10.92
882.918	-15.02
883.09	27.99
883.262	27.99
883.434	-27.31
883.606	-66.22
883.778	38.23
883.95	79.19
884.122	87.38
884.293	46.42
884.465	23.89
884.637	91.48
884.809	56.66
884.98	-51.88
885.152	15.7
885.324	30.04
885.496	-47.79
885.667	-45.74
885.839	-58.03
886.011	-12.97
886.182	-37.55
886.354	-41.64
886.525	-0.68
886.697	85.33
886.869	-39.59
887.04	32.08
887.212	83.28
887.383	83.28
887.555	23.89
887.726	-8.87
887.897	-60.07
888.069	3.41
888.24	21.85
888.412	-31.4
888.583	50.52
888.754	11.61
888.926	-45.74
889.097	-29.35
889.268	-101.03
889.44	-2.73
889.611	-43.69
889.782	-47.79
889.953	48.47
890.125	3.41
890.296	-49.83
890.467	11.61
890.638	-51.88
890.809	42.32
890.98	-17.07
891.151	19.8
891.323	40.28
891.494	-21.16
891.665	-17.07
891.836	-10.92
892.007	-39.59
892.178	36.18
892.349	21.85
892.52	-29.35
892.691	-6.83
892.862	-17.07
893.032	17.75
893.203	-33.45
893.374	-35.5
893.545	66.9
893.716	-35.5
893.887	89.43
894.057	71
894.228	-29.35
894.399	-53.93
894.57	-58.03
894.74	23.89
894.911	21.85
895.082	-29.35
895.253	-15.02
895.423	-37.55
895.594	-15.02
895.764	13.65
895.935	-39.59
896.106	-19.11
896.276	109.91
896.447	-2.73
896.617	-53.93
896.788	-82.6
896.958	38.23
897.129	-45.74
897.299	-27.31
897.47	11.61
897.64	-58.03
897.81	7.51
897.981	38.23
898.151	-21.16
898.322	13.65
898.492	54.61
898.662	32.08
898.832	-76.46
899.003	27.99
899.173	-10.92
899.343	-17.07
899.513	-45.74
