Data from USB4F104151__14__12-23-24-093.txt Node

Date: Fri Mar 14 12:23:24 EDT 2025
User: louis
Spectrometer: USB4F10415
Trigger mode: 4
Integration Time (sec): 3.500000E-2
Scans to average: 1
Electric dark correction enabled: true
Nonlinearity correction enabled: false
Boxcar width: 0
XAxis mode: Wavelengths
Number of Pixels in Spectrum: 3648
>>>>>Begin Spectral Data<<<<<
178.204	-142.68
178.424	-142.68
178.644	-142.68
178.864	-93.52
179.084	-111.96
179.304	-7.51
179.524	21.16
179.744	51.88
179.964	-17.75
180.184	4.78
180.404	8.87
180.624	4.78
180.844	23.21
181.064	-42.32
181.283	53.93
181.503	-27.99
181.723	-73.04
181.943	-5.46
182.163	10.92
182.383	53.93
182.602	131.75
182.822	101.03
183.042	66.22
183.262	-25.94
183.482	-38.23
183.701	31.4
183.921	10.92
184.141	-103.76
184.361	103.08
184.58	-56.66
184.8	31.4
185.02	15.02
185.239	115.37
185.459	2.73
185.679	39.59
185.898	-50.52
186.118	76.46
186.338	29.35
186.557	53.93
186.777	-54.61
186.997	21.16
187.216	-25.94
187.436	86.7
187.655	2.73
187.875	144.04
188.095	10.92
188.314	101.03
188.534	119.46
188.753	23.21
188.973	15.02
189.192	51.88
189.412	10.92
189.631	45.74
189.851	49.83
190.07	72.36
190.29	41.64
190.509	6.83
190.729	27.31
190.948	47.79
191.168	209.58
191.387	41.64
191.607	35.5
191.826	8.87
192.045	64.17
192.265	68.27
192.484	103.08
192.704	78.51
192.923	-11.61
193.142	141.99
193.362	41.64
193.581	137.9
193.8	35.5
194.02	35.5
194.239	70.31
194.458	88.75
194.678	4.78
194.897	41.64
195.116	0.68
195.335	-1.37
195.555	76.46
195.774	25.26
195.993	76.46
196.212	47.79
196.432	47.79
196.651	68.27
196.87	41.64
197.089	41.64
197.308	53.93
197.528	74.41
197.747	23.21
197.966	2.73
198.185	84.65
198.404	29.35
198.623	96.94
198.842	162.47
199.062	96.94
199.281	125.61
199.5	92.84
199.719	12.97
199.938	88.75
200.157	78.51
200.376	113.32
200.595	60.07
200.814	-9.56
201.033	-32.08
201.252	70.31
201.471	103.08
201.69	29.35
201.909	76.46
202.128	53.93
202.347	117.42
202.566	-1.37
202.785	-87.38
203.004	35.5
203.223	158.38
203.442	86.7
203.661	41.64
203.879	60.07
204.098	43.69
204.317	45.74
204.536	31.4
204.755	64.17
204.974	115.37
205.193	88.75
205.411	64.17
205.63	84.65
205.849	55.98
206.068	78.51
206.287	31.4
206.505	45.74
206.724	53.93
206.943	49.83
207.162	-11.61
207.381	37.55
207.599	29.35
207.818	43.69
208.037	-48.47
208.255	17.07
208.474	25.26
208.693	10.92
208.911	51.88
209.13	51.88
209.349	90.79
209.567	133.8
209.786	105.13
210.005	70.31
210.223	33.45
210.442	64.17
210.661	86.7
210.879	15.02
211.098	31.4
211.316	29.35
211.535	68.27
211.753	27.31
211.972	80.55
212.191	10.92
212.409	-1.37
212.628	125.61
212.846	58.03
213.065	117.42
213.283	178.86
213.502	51.88
213.72	66.22
213.938	-54.61
214.157	41.64
214.375	103.08
214.594	-23.89
214.812	27.31
215.031	64.17
215.249	19.11
215.467	119.46
215.686	82.6
215.904	15.02
216.122	90.79
216.341	37.55
216.559	29.35
216.778	68.27
216.996	-9.56
217.214	66.22
217.432	66.22
217.651	41.64
217.869	12.97
218.087	0.68
218.306	62.12
218.524	25.26
218.742	19.11
218.96	86.7
219.179	51.88
219.397	70.31
219.615	86.7
219.833	115.37
220.051	43.69
220.27	37.55
220.488	74.41
220.706	62.12
220.924	55.98
221.142	62.12
221.36	127.66
221.578	25.26
221.796	-13.65
222.015	47.79
222.233	31.4
222.451	76.46
222.669	-42.32
222.887	74.41
223.105	53.93
223.323	53.93
223.541	64.17
223.759	-13.65
223.977	-3.41
224.195	55.98
224.413	60.07
224.631	94.89
224.849	74.41
225.067	51.88
225.285	-13.65
225.503	39.59
225.721	-38.23
225.939	43.69
226.157	72.36
226.375	131.75
226.592	47.79
226.81	-13.65
227.028	55.98
227.246	43.69
227.464	51.88
227.682	90.79
227.9	29.35
228.117	72.36
228.335	25.26
228.553	111.27
228.771	90.79
228.989	80.55
229.206	51.88
229.424	47.79
229.642	37.55
229.86	17.07
230.077	39.59
230.295	70.31
230.513	88.75
230.731	117.42
230.948	0.68
231.166	92.84
231.384	-17.75
231.601	29.35
231.819	39.59
232.037	33.45
232.254	49.83
232.472	90.79
232.689	76.46
232.907	15.02
233.125	10.92
233.342	37.55
233.56	-9.56
233.777	35.5
233.995	135.85
234.213	68.27
234.43	82.6
234.648	-50.52
234.865	88.75
235.083	37.55
235.3	68.27
235.518	86.7
235.735	121.51
235.953	103.08
236.17	55.98
236.388	2.73
236.605	51.88
236.822	62.12
237.04	37.55
237.257	96.94
237.475	-13.65
237.692	88.75
237.909	23.21
238.127	37.55
238.344	37.55
238.562	33.45
238.779	35.5
238.996	41.64
239.214	62.12
239.431	115.37
239.648	-11.61
239.865	133.8
240.083	62.12
240.3	37.55
240.517	-21.85
240.735	78.51
240.952	66.22
241.169	72.36
241.386	80.55
241.603	8.87
241.821	-13.65
242.038	37.55
242.255	35.5
242.472	27.31
242.689	55.98
242.907	53.93
243.124	53.93
243.341	29.35
243.558	-52.56
243.775	51.88
243.992	15.02
244.209	92.84
244.426	146.09
244.643	25.26
244.86	19.11
245.078	74.41
245.295	152.23
245.512	60.07
245.729	84.65
245.946	-3.41
246.163	49.83
246.38	29.35
246.597	6.83
246.814	90.79
247.031	19.11
247.248	62.12
247.464	35.5
247.681	2.73
247.898	90.79
248.115	139.94
248.332	35.5
248.549	135.85
248.766	92.84
248.983	123.56
249.2	115.37
249.417	31.4
249.633	107.18
249.85	2.73
250.067	64.17
250.284	8.87
250.501	90.79
250.717	86.7
250.934	10.92
251.151	60.07
251.368	25.26
251.585	43.69
251.801	74.41
252.018	35.5
252.235	35.5
252.451	29.35
252.668	47.79
252.885	80.55
253.102	90.79
253.318	68.27
253.535	86.7
253.752	29.35
253.968	23.21
254.185	35.5
254.401	41.64
254.618	29.35
254.835	10.92
255.051	139.94
255.268	-34.13
255.484	92.84
255.701	51.88
255.917	92.84
256.134	-25.94
256.351	41.64
256.567	2.73
256.784	64.17
257	-34.13
257.217	31.4
257.433	125.61
257.65	25.26
257.866	86.7
258.082	43.69
258.299	53.93
258.515	98.99
258.732	23.21
258.948	27.31
259.165	123.56
259.381	4.78
259.597	68.27
259.814	19.11
260.03	33.45
260.246	-54.61
260.463	33.45
260.679	31.4
260.895	29.35
261.112	-3.41
261.328	47.79
261.544	33.45
261.761	72.36
261.977	39.59
262.193	53.93
262.409	17.07
262.626	68.27
262.842	35.5
263.058	25.26
263.274	90.79
263.49	-56.66
263.707	113.32
263.923	60.07
264.139	43.69
264.355	60.07
264.571	80.55
264.787	25.26
265.004	146.09
265.22	-19.8
265.436	66.22
265.652	-19.8
265.868	86.7
266.084	78.51
266.3	-19.8
266.516	-1.37
266.732	58.03
266.948	-7.51
267.164	47.79
267.38	55.98
267.596	96.94
267.812	92.84
268.028	47.79
268.244	66.22
268.46	37.55
268.676	-42.32
268.892	70.31
269.108	-34.13
269.324	-17.75
269.54	4.78
269.756	82.6
269.972	-95.57
270.188	35.5
270.403	-38.23
270.619	76.46
270.835	-1.37
271.051	47.79
271.267	8.87
271.483	4.78
271.698	80.55
271.914	-7.51
272.13	58.03
272.346	101.03
272.562	66.22
272.777	107.18
272.993	31.4
273.209	39.59
273.425	90.79
273.64	76.46
273.856	51.88
274.072	49.83
274.287	43.69
274.503	78.51
274.719	25.26
274.934	90.79
275.15	90.79
275.366	53.93
275.581	21.16
275.797	27.31
276.012	78.51
276.228	84.65
276.444	12.97
276.659	64.17
276.875	-25.94
277.09	23.21
277.306	37.55
277.521	88.75
277.737	53.93
277.952	-5.46
278.168	60.07
278.383	78.51
278.599	21.16
278.814	15.02
279.03	98.99
279.245	80.55
279.461	49.83
279.676	144.04
279.892	58.03
280.107	53.93
280.322	-5.46
280.538	62.12
280.753	25.26
280.969	58.03
281.184	37.55
281.399	90.79
281.615	125.61
281.83	27.31
282.045	-1.37
282.26	90.79
282.476	33.45
282.691	94.89
282.906	53.93
283.122	82.6
283.337	68.27
283.552	96.94
283.767	23.21
283.983	41.64
284.198	111.27
284.413	86.7
284.628	23.21
284.843	45.74
285.058	111.27
285.274	101.03
285.489	19.11
285.704	117.42
285.919	39.59
286.134	23.21
286.349	70.31
286.564	68.27
286.779	103.08
286.995	76.46
287.21	-1.37
287.425	0.68
287.64	62.12
287.855	129.7
288.07	68.27
288.285	66.22
288.5	86.7
288.715	98.99
288.93	109.22
289.145	64.17
289.36	39.59
289.575	101.03
289.79	96.94
290.004	-36.18
290.219	70.31
290.434	15.02
290.649	39.59
290.864	86.7
291.079	62.12
291.294	35.5
291.509	76.46
291.724	33.45
291.938	31.4
292.153	88.75
292.368	29.35
292.583	23.21
292.798	51.88
293.012	-25.94
293.227	53.93
293.442	96.94
293.657	90.79
293.871	72.36
294.086	15.02
294.301	35.5
294.516	121.51
294.73	107.18
294.945	51.88
295.16	17.07
295.374	58.03
295.589	49.83
295.804	47.79
296.018	94.89
296.233	86.7
296.447	53.93
296.662	109.22
296.877	55.98
297.091	37.55
297.306	78.51
297.52	21.16
297.735	96.94
297.949	96.94
298.164	25.26
298.378	-5.46
298.593	82.6
298.807	47.79
299.022	39.59
299.236	74.41
299.451	58.03
299.665	8.87
299.88	70.31
300.094	60.07
300.309	76.46
300.523	12.97
300.737	78.51
300.952	-3.41
301.166	70.31
301.381	-46.42
301.595	92.84
301.809	72.36
302.024	55.98
302.238	74.41
302.452	119.46
302.667	27.31
302.881	39.59
303.095	47.79
303.309	43.69
303.524	-5.46
303.738	117.42
303.952	78.51
304.166	84.65
304.381	2.73
304.595	70.31
304.809	64.17
305.023	15.02
305.237	23.21
305.452	-36.18
305.666	39.59
305.88	66.22
306.094	88.75
306.308	21.16
306.522	92.84
306.736	35.5
306.95	68.27
307.164	-13.65
307.379	66.22
307.593	88.75
307.807	70.31
308.021	53.93
308.235	27.31
308.449	45.74
308.663	64.17
308.877	84.65
309.091	39.59
309.305	23.21
309.519	6.83
309.733	101.03
309.947	-46.42
310.161	2.73
310.374	43.69
310.588	137.9
310.802	8.87
311.016	23.21
311.23	15.02
311.444	76.46
311.658	39.59
311.872	137.9
312.085	25.26
312.299	131.75
312.513	105.13
312.727	58.03
312.941	-5.46
313.154	27.31
313.368	31.4
313.582	19.11
313.796	49.83
314.009	-7.51
314.223	-19.8
314.437	31.4
314.651	111.27
314.864	47.79
315.078	2.73
315.292	-27.99
315.505	0.68
315.719	74.41
315.933	111.27
316.146	41.64
316.36	-5.46
316.573	90.79
316.787	62.12
317.001	78.51
317.214	43.69
317.428	51.88
317.641	49.83
317.855	8.87
318.068	131.75
318.282	39.59
318.495	72.36
318.709	72.36
318.922	92.84
319.136	62.12
319.349	84.65
319.563	23.21
319.776	8.87
319.99	-1.37
320.203	101.03
320.417	49.83
320.63	31.4
320.843	35.5
321.057	12.97
321.27	68.27
321.483	35.5
321.697	90.79
321.91	53.93
322.124	90.79
322.337	68.27
322.55	-1.37
322.763	62.12
322.977	66.22
323.19	39.59
323.403	64.17
323.617	10.92
323.83	162.47
324.043	29.35
324.256	86.7
324.469	4.78
324.683	107.18
324.896	82.6
325.109	94.89
325.322	53.93
325.535	58.03
325.748	90.79
325.962	121.51
326.175	146.09
326.388	43.69
326.601	43.69
326.814	66.22
327.027	64.17
327.24	121.51
327.453	8.87
327.666	8.87
327.879	19.11
328.092	68.27
328.305	62.12
328.518	94.89
328.731	72.36
328.944	58.03
329.157	66.22
329.37	-32.08
329.583	109.22
329.796	119.46
330.009	-30.04
330.222	29.35
330.435	-17.75
330.648	90.79
330.861	58.03
331.073	39.59
331.286	131.75
331.499	51.88
331.712	37.55
331.925	88.75
332.138	55.98
332.35	21.16
332.563	-46.42
332.776	101.03
332.989	64.17
333.202	27.31
333.414	41.64
333.627	41.64
333.84	84.65
334.053	74.41
334.265	0.68
334.478	15.02
334.691	43.69
334.903	82.6
335.116	33.45
335.329	58.03
335.541	92.84
335.754	109.22
335.966	23.21
336.179	2.73
336.392	55.98
336.604	47.79
336.817	80.55
337.029	62.12
337.242	17.07
337.454	84.65
337.667	19.11
337.88	72.36
338.092	68.27
338.305	8.87
338.517	6.83
338.729	72.36
338.942	60.07
339.154	74.41
339.367	31.4
339.579	115.37
339.792	55.98
340.004	64.17
340.217	43.69
340.429	47.79
340.641	53.93
340.854	23.21
341.066	66.22
341.278	101.03
341.491	66.22
341.703	37.55
341.915	37.55
342.128	72.36
342.34	39.59
342.552	90.79
342.764	88.75
342.977	45.74
343.189	119.46
343.401	55.98
343.613	8.87
343.826	94.89
344.038	-3.41
344.25	76.46
344.462	23.21
344.674	0.68
344.886	68.27
345.099	12.97
345.311	37.55
345.523	23.21
345.735	-19.8
345.947	80.55
346.159	25.26
346.371	64.17
346.583	45.74
346.795	74.41
347.007	82.6
347.219	58.03
347.431	78.51
347.643	92.84
347.855	74.41
348.067	17.07
348.279	-30.04
348.491	115.37
348.703	152.23
348.915	27.31
349.127	10.92
349.339	43.69
349.551	6.83
349.763	64.17
349.975	49.83
350.187	101.03
350.399	137.9
350.61	172.71
350.822	64.17
351.034	43.69
351.246	62.12
351.458	109.22
351.669	55.98
351.881	129.7
352.093	185
352.305	6.83
352.517	74.41
352.728	66.22
352.94	115.37
353.152	62.12
353.363	17.07
353.575	82.6
353.787	103.08
353.999	70.31
354.21	41.64
354.422	58.03
354.633	62.12
354.845	47.79
355.057	98.99
355.268	92.84
355.48	148.14
355.692	68.27
355.903	53.93
356.115	64.17
356.326	-38.23
356.538	90.79
356.749	49.83
356.961	98.99
357.172	19.11
357.384	-5.46
357.595	170.66
357.807	17.07
358.018	70.31
358.23	15.02
358.441	119.46
358.653	47.79
358.864	84.65
359.075	58.03
359.287	53.93
359.498	96.94
359.709	111.27
359.921	49.83
360.132	15.02
360.344	72.36
360.555	29.35
360.766	47.79
360.977	101.03
361.189	78.51
361.4	80.55
361.611	88.75
361.823	129.7
362.034	70.31
362.245	19.11
362.456	41.64
362.667	111.27
362.879	72.36
363.09	51.88
363.301	90.79
363.512	70.31
363.723	72.36
363.935	-3.41
364.146	58.03
364.357	33.45
364.568	94.89
364.779	-25.94
364.99	82.6
365.201	90.79
365.412	98.99
365.623	74.41
365.834	62.12
366.045	51.88
366.256	113.32
366.467	115.37
366.678	76.46
366.889	129.7
367.1	33.45
367.311	78.51
367.522	49.83
367.733	109.22
367.944	72.36
368.155	-36.18
368.366	47.79
368.577	43.69
368.788	6.83
368.999	39.59
369.209	84.65
369.42	111.27
369.631	70.31
369.842	80.55
370.053	25.26
370.264	127.66
370.474	41.64
370.685	70.31
370.896	29.35
371.107	68.27
371.317	137.9
371.528	51.88
371.739	107.18
371.95	154.28
372.16	117.42
372.371	6.83
372.582	66.22
372.792	47.79
373.003	72.36
373.214	29.35
373.424	58.03
373.635	35.5
373.846	90.79
374.056	4.78
374.267	29.35
374.477	72.36
374.688	43.69
374.898	49.83
375.109	58.03
375.319	70.31
375.53	174.76
375.74	68.27
375.951	64.17
376.161	-38.23
376.372	41.64
376.582	8.87
376.793	82.6
377.003	49.83
377.214	51.88
377.424	84.65
377.635	17.07
377.845	127.66
378.055	92.84
378.266	-9.56
378.476	74.41
378.686	80.55
378.897	107.18
379.107	53.93
379.317	45.74
379.528	0.68
379.738	70.31
379.948	29.35
380.158	160.42
380.369	53.93
380.579	72.36
380.789	37.55
380.999	137.9
381.21	103.08
381.42	72.36
381.63	62.12
381.84	80.55
382.05	88.75
382.261	78.51
382.471	154.28
382.681	35.5
382.891	96.94
383.101	43.69
383.311	41.64
383.521	53.93
383.731	148.14
383.941	66.22
384.151	41.64
384.361	129.7
384.571	92.84
384.781	119.46
384.991	127.66
385.201	107.18
385.411	92.84
385.621	74.41
385.831	101.03
386.041	88.75
386.251	49.83
386.461	176.81
386.671	47.79
386.881	92.84
387.091	25.26
387.301	60.07
387.511	58.03
387.72	88.75
387.93	68.27
388.14	80.55
388.35	55.98
388.56	23.21
388.769	170.66
388.979	88.75
389.189	150.18
389.399	62.12
389.609	47.79
389.818	94.89
390.028	8.87
390.238	47.79
390.447	53.93
390.657	15.02
390.867	76.46
391.076	8.87
391.286	115.37
391.496	168.62
391.705	53.93
391.915	76.46
392.125	119.46
392.334	113.32
392.544	82.6
392.753	160.42
392.963	6.83
393.172	141.99
393.382	160.42
393.591	92.84
393.801	172.71
394.01	111.27
394.22	23.21
394.429	41.64
394.639	109.22
394.848	201.38
395.058	129.7
395.267	76.46
395.477	21.16
395.686	144.04
395.895	144.04
396.105	119.46
396.314	58.03
396.524	72.36
396.733	74.41
396.942	111.27
397.152	53.93
397.361	121.51
397.57	53.93
397.78	115.37
397.989	115.37
398.198	137.9
398.407	121.51
398.617	123.56
398.826	146.09
399.035	133.8
399.244	180.9
399.453	64.17
399.663	64.17
399.872	78.51
400.081	156.33
400.29	90.79
400.499	66.22
400.708	185
400.917	98.99
401.127	146.09
401.336	101.03
401.545	197.29
401.754	176.81
401.963	133.8
402.172	113.32
402.381	113.32
402.59	84.65
402.799	82.6
403.008	141.99
403.217	121.51
403.426	162.47
403.635	115.37
403.844	141.99
404.053	107.18
404.262	182.95
404.471	154.28
404.68	162.47
404.888	125.61
405.097	94.89
405.306	88.75
405.515	178.86
405.724	119.46
405.933	150.18
406.142	191.14
406.35	148.14
406.559	168.62
406.768	182.95
406.977	168.62
407.185	176.81
407.394	160.42
407.603	154.28
407.812	221.86
408.02	232.1
408.229	254.63
408.438	221.86
408.646	248.49
408.855	193.19
409.064	189.1
409.272	277.16
409.481	271.01
409.69	260.77
409.898	178.86
410.107	295.59
410.315	328.36
410.524	279.21
410.733	213.67
410.941	295.59
411.15	387.75
411.358	297.64
411.567	266.92
411.775	277.16
411.984	408.23
412.192	441
412.401	361.13
412.609	391.84
412.818	363.17
413.026	469.67
413.234	348.84
413.443	453.28
413.651	393.89
413.86	498.34
414.068	510.63
414.276	512.67
414.485	502.43
414.693	565.92
414.901	576.16
415.11	494.24
415.318	537.25
415.526	565.92
415.734	660.13
415.943	617.12
416.151	707.23
416.359	690.85
416.567	735.9
416.776	680.61
416.984	748.19
417.192	799.39
417.4	758.43
417.608	789.15
417.817	787.1
418.025	748.19
418.233	989.85
418.441	950.94
418.649	971.42
418.857	977.56
419.065	1100.44
419.273	1012.38
419.481	1118.87
419.689	1206.94
419.897	1217.18
420.105	1174.17
420.313	1329.81
420.521	1385.11
420.729	1358.49
420.937	1399.45
421.145	1362.58
421.353	1479.32
421.561	1555.09
421.769	1460.88
421.977	1559.19
422.185	1594
422.393	1569.43
422.601	1821.33
422.809	1817.23
423.017	1923.73
423.224	1837.71
423.432	1893.01
423.64	2138.76
423.848	2153.1
424.056	1987.21
424.263	2275.98
424.471	2253.45
424.679	2253.45
424.887	2501.25
425.094	2552.45
425.302	2613.89
425.51	2691.71
425.718	2802.3
425.925	2710.15
426.133	2779.78
426.341	2994.81
426.548	3086.97
426.756	3093.12
426.964	3166.84
427.171	3263.1
427.379	3435.13
427.586	3420.79
427.794	3629.68
428.001	3797.62
428.209	3814
428.417	3826.29
428.624	4307.56
428.832	4043.37
429.039	4067.95
429.247	4055.66
429.454	4432.49
429.662	4850.27
429.869	4422.25
430.076	4921.95
430.284	4764.26
430.491	4792.93
430.699	5204.57
430.906	5132.89
431.114	5214.81
431.321	5470.81
431.528	5489.24
431.736	5778
431.943	6044.24
432.15	6031.95
432.358	6105.68
432.565	6318.67
432.772	6459.98
432.979	6836.8
433.187	6853.19
433.394	6883.91
433.601	7320.12
433.808	7377.47
434.016	7498.3
434.223	7541.3
434.43	8045.1
434.637	8049.2
434.844	8389.16
435.052	8587.82
435.259	8606.25
435.466	8446.51
435.673	8624.68
435.88	9177.63
436.087	9574.94
436.294	9380.38
436.501	9353.76
436.708	9359.9
436.915	9898.52
437.122	10390.03
437.329	10179.09
437.537	10504.71
437.743	10863.11
437.95	10773
438.157	11225.6
438.364	11616.76
438.571	11708.92
438.778	11915.76
438.985	12624.36
439.192	12481
439.399	12603.88
439.606	12259.82
439.813	13124.07
440.02	13842.9
440.227	13648.35
440.433	13691.35
440.64	13849.05
440.847	14080.47
441.054	14377.42
441.261	15206.85
441.467	14930.37
441.674	15198.66
441.881	15780.28
442.088	15894.97
442.294	15733.18
442.501	16296.37
442.708	16460.21
442.914	17314.21
443.121	17949.08
443.328	17369.51
443.534	18755.98
443.741	18094.49
443.948	17754.52
444.154	19284.36
444.361	19149.19
444.568	19380.61
444.774	19569.02
444.981	19321.22
445.187	19827.07
445.394	20865.39
445.6	20765.04
445.807	22454.61
446.013	21463.4
446.22	22266.2
446.426	23075.15
446.633	23005.52
446.839	23728.45
447.046	22860.11
447.252	24164.67
447.459	24142.14
447.665	24179
447.871	25178.41
448.078	26390.81
448.284	25098.54
448.491	25844
448.697	26700.05
448.903	26923.28
449.11	27369.74
449.316	26824.98
449.522	27347.21
449.728	28080.38
449.935	28201.21
450.141	28254.46
450.347	28551.42
450.553	27980.03
450.76	28563.7
450.966	29456.62
451.172	28885.23
451.378	29706.47
451.584	29251.82
451.791	29903.07
451.997	29354.22
452.203	30097.63
452.409	30206.17
452.615	30275.8
452.821	28920.05
453.027	28606.71
453.233	30353.63
453.44	28940.53
453.646	29382.89
453.852	29456.62
454.058	30001.38
454.264	28856.56
454.47	29534.44
454.676	28551.42
454.882	29522.15
455.088	26997.01
455.294	27441.42
455.5	27621.64
455.705	28205.31
455.911	27134.22
456.117	26474.77
456.323	26315.03
456.529	25188.65
456.735	26022.17
456.941	25329.96
457.147	24680.75
457.352	24072.51
457.558	23681.35
457.764	23873.85
457.97	23300.42
458.176	22559.06
458.381	22899.02
458.587	21694.82
458.793	21899.61
458.999	20472.18
459.204	21856.61
459.41	21635.42
459.616	20332.92
459.821	19913.08
460.027	19841.4
460.233	19501.44
460.438	18563.47
460.644	18665.87
460.85	17744.28
461.055	17602.97
461.261	17428.9
461.466	16218.55
461.672	15897.02
461.878	16761.26
462.083	15931.83
462.289	15335.87
462.494	15167.94
462.7	14580.17
462.905	14205.39
463.111	15059.4
463.316	14903.75
463.522	14504.4
463.727	14588.36
463.932	14502.35
464.138	14338.51
464.343	14287.31
464.549	13918.68
464.754	14324.18
464.959	14193.11
465.165	14330.32
465.37	13623.77
465.575	13322.72
465.781	13769.18
465.986	13795.8
466.191	13251.04
466.397	13056.48
466.602	12487.15
466.807	12956.13
467.012	12943.85
467.218	12884.45
467.423	12640.75
467.628	12642.79
467.833	13357.53
468.038	12931.56
468.244	12470.76
468.449	13158.88
468.654	12438
468.859	12405.23
469.064	12505.58
469.269	12032.5
469.474	11938.29
469.679	12302.83
469.885	11911.67
470.09	11954.68
470.295	11774.45
470.5	11704.82
470.705	11774.45
470.91	11342.33
471.115	11284.99
471.32	11442.68
471.525	11710.97
471.73	11045.38
471.935	11033.09
472.139	10795.53
472.344	11018.75
472.549	10797.57
472.754	10768.9
472.959	10545.67
473.164	10158.61
473.369	10207.76
473.574	10449.42
473.778	10174.99
473.983	10174.99
474.188	10277.39
474.393	9787.93
474.598	9839.12
474.802	9783.83
475.007	9832.98
475.212	9697.81
475.417	9167.39
475.621	9282.08
475.826	9441.82
476.031	9220.64
476.235	8964.64
476.44	9210.4
476.645	8856.1
476.849	9040.42
477.054	8698.41
477.259	8532.52
477.463	8700.45
477.668	8575.53
477.872	8612.39
478.077	8387.11
478.282	8202.8
478.486	8364.59
478.691	8045.1
478.895	8104.49
479.1	8059.44
479.304	8184.37
479.509	7846.45
479.713	7979.57
479.918	7895.6
480.122	7823.92
480.326	7746.1
480.531	7848.5
480.735	7774.77
480.94	7854.64
481.144	7897.65
481.348	7551.54
481.553	7672.37
481.757	7356.99
481.961	7639.61
482.166	7496.25
482.37	7500.34
482.574	7606.84
482.778	7596.6
482.983	7711.28
483.187	7692.85
483.391	7746.1
483.595	7594.55
483.8	7266.88
484.004	7600.69
484.208	7428.67
484.412	7410.23
484.616	7490.1
484.821	7496.25
485.025	7334.46
485.229	7764.53
485.433	7569.98
485.637	7686.71
485.841	7451.19
486.045	7520.82
486.249	7535.16
486.453	7488.06
486.657	7508.54
486.861	7547.45
487.065	7424.57
487.269	7549.5
487.473	7273.02
487.677	7459.38
487.881	7866.93
488.085	7418.43
488.289	7328.31
488.493	7490.1
488.697	7699
488.901	7565.88
489.105	7543.35
489.309	7483.96
489.512	7737.91
489.716	7658.04
489.92	7496.25
490.124	7641.65
490.328	7727.67
490.531	7750.2
490.735	7840.31
490.939	7805.49
491.143	7739.96
491.346	7670.33
491.55	7868.98
491.754	7707.19
491.958	7860.79
492.161	7895.6
492.365	7856.69
492.569	7954.99
492.772	7928.37
492.976	8243.76
493.18	8030.77
493.383	8202.8
493.587	8149.55
493.79	8268.33
493.994	8028.72
494.197	8262.19
494.401	8309.29
494.605	8268.33
494.808	8485.42
495.012	8567.34
495.215	8663.59
495.419	8624.68
495.622	8712.74
495.825	8768.04
496.029	8731.17
496.232	8964.64
496.436	9015.84
496.639	9110.05
496.843	8950.31
497.046	9374.24
497.249	9214.49
497.453	9472.54
497.656	9601.56
497.859	9554.46
498.063	9734.68
498.266	9783.83
498.469	9769.49
498.673	10007.06
498.876	10258.96
499.079	10215.95
499.282	10093.07
499.485	10523.15
499.689	10576.39
499.892	10781.19
500.095	10629.64
500.298	10990.08
500.501	11024.9
500.705	11053.57
500.908	11293.18
501.111	11332.09
501.314	11467.26
501.517	11571.71
501.72	11741.69
501.923	11885.05
502.126	12087.79
502.329	12091.89
502.532	12302.83
502.735	12454.38
502.938	12585.45
503.141	12765.67
503.344	12870.12
503.547	12900.84
503.75	12929.51
503.953	13478.36
504.156	13449.69
504.359	13529.56
504.562	13412.83
504.765	13992.41
504.968	14232.02
505.17	14148.05
505.373	14266.83
505.576	14635.47
505.779	14649.8
505.982	14809.54
506.185	15178.18
506.387	15153.6
506.59	15266.24
506.793	15694.27
506.996	15739.32
507.198	15876.54
507.401	15911.35
507.604	16314.8
507.807	16441.78
508.009	16529.84
508.212	16609.71
508.415	16964.01
508.617	17127.85
508.82	17387.94
509.022	17144.23
509.225	17633.69
509.428	17715.61
509.63	18016.66
509.833	18018.71
510.035	18608.53
510.238	18438.55
510.44	18821.52
510.643	19014.02
510.845	19466.63
511.048	19198.34
511.25	19296.64
511.453	19542.4
511.655	20451.7
511.858	20265.33
512.06	20443.51
512.262	20738.41
512.465	20617.58
512.667	20750.7
512.87	21227.88
513.072	21467.49
513.274	21940.57
513.477	21969.24
513.679	22231.38
513.881	22483.28
514.084	22927.69
514.286	22833.49
514.488	23066.95
514.69	23697.73
514.893	23894.33
515.095	23759.17
515.297	23843.13
515.499	23869.76
515.701	24430.9
515.904	24783.15
516.106	24838.45
516.308	25024.81
516.51	25684.26
516.712	25563.43
516.914	26149.15
517.116	26415.38
517.318	26624.28
517.52	26573.08
517.722	26921.23
517.925	27285.77
518.127	27535.62
518.329	27617.54
518.531	27670.79
518.733	28242.17
518.935	28575.99
519.136	28451.06
519.338	29028.59
519.54	29047.02
519.742	29522.15
519.944	29726.95
520.146	30386.4
520.348	30200.03
520.55	30839
520.752	30775.51
520.954	31307.98
521.155	30961.87
521.357	31895.75
521.559	32137.41
521.761	32651.45
521.963	32487.61
522.164	32852.15
522.366	32473.28
522.568	32981.17
522.77	33650.86
522.971	33769.64
523.173	33697.96
523.375	33829.03
523.576	34087.07
523.778	34295.97
523.98	34883.73
524.181	35231.89
524.383	34709.66
524.584	35465.36
524.786	35688.59
524.988	35596.43
525.189	36100.23
525.391	36407.42
525.592	36479.1
525.794	36440.19
525.995	36749.43
526.197	36917.37
526.398	37077.11
526.6	37392.5
526.801	37558.38
527.003	37677.16
527.204	37468.27
527.406	38058.09
527.607	38090.85
527.808	38361.19
528.01	37996.65
528.211	38303.84
528.412	38764.64
528.614	39145.56
528.815	38670.43
529.016	39465.04
529.218	39139.41
529.419	39538.77
529.62	39432.27
529.822	39360.59
530.023	39555.15
530.224	39419.99
530.425	39635.02
530.626	39731.28
530.828	39503.95
531.029	40343.62
531.23	39948.36
531.431	40104.01
531.632	40204.36
531.833	40585.28
532.035	40439.87
532.236	40583.23
532.437	40640.57
532.638	40669.25
532.839	40673.34
533.04	41201.72
533.241	40179.78
533.442	40919.1
533.643	40871.99
533.844	41076.79
534.045	41058.36
534.246	40620.09
534.447	41377.84
534.648	40638.53
534.849	41009.21
535.05	40679.49
535.251	40845.37
535.451	41054.26
535.652	41099.32
535.853	41152.57
536.054	41105.46
536.255	41388.08
536.456	40794.17
536.657	41525.3
536.857	41134.13
537.058	41216.05
537.259	41449.52
537.46	41666.61
537.66	41261.11
537.861	41351.22
538.062	41162.81
538.263	41543.73
538.463	41238.58
538.664	41185.33
538.865	41080.89
539.065	41603.12
539.266	40917.05
539.466	41551.92
539.667	40841.28
539.868	41465.91
540.068	41394.23
540.269	41070.65
540.469	41807.92
540.67	40841.28
540.87	41340.98
541.071	41252.92
541.271	41140.28
541.472	41187.38
541.672	41377.84
541.873	41127.99
542.073	40556.61
542.274	41711.66
542.474	41207.86
542.675	40853.56
542.875	41162.81
543.075	41029.69
543.276	40730.69
543.476	41242.68
543.676	41154.61
543.877	41439.28
544.077	41107.51
544.277	40847.42
544.478	41052.22
544.678	41439.28
544.878	41271.35
545.078	41226.29
545.279	40861.76
545.479	40923.19
545.679	41144.37
545.879	41295.92
546.079	41082.94
546.28	41064.5
546.48	40679.49
546.68	40849.47
546.88	40902.71
547.08	41003.06
547.28	40749.12
547.48	40626.24
547.68	41091.13
547.88	40542.27
548.081	41279.54
548.281	40818.75
548.481	40853.56
548.681	41017.4
548.881	40937.53
549.081	40876.09
549.28	40228.93
549.48	41211.96
549.68	40884.28
549.88	41582.64
550.08	40646.72
550.28	41119.8
550.48	41072.7
550.68	41001.02
550.88	40826.94
551.08	40722.49
551.279	40869.95
551.479	40603.71
551.679	40853.56
551.879	40599.62
552.079	41150.52
552.278	40562.75
552.478	40669.25
552.678	40675.39
552.878	40720.45
553.077	40341.57
553.277	40411.2
553.477	40865.85
553.676	40368.19
553.876	40622.14
554.076	40173.64
554.275	40415.3
554.475	40054.86
554.674	40470.59
554.874	40216.64
555.074	40249.41
555.273	40091.72
555.473	40243.27
555.672	40282.18
555.872	39805
556.071	40355.91
556.271	39870.54
556.47	39538.77
556.67	39772.24
556.869	39690.32
557.068	40181.83
557.268	39663.69
557.467	39649.36
557.667	39854.15
557.866	39643.21
558.065	39129.17
558.265	39141.46
558.464	39272.53
558.663	39725.13
558.863	39315.54
559.062	39387.22
559.261	38797.4
559.461	39477.33
559.66	38793.31
559.859	38981.72
560.058	38662.24
560.258	39114.84
560.457	38629.47
560.656	39297.11
560.855	38586.46
561.054	38631.52
561.253	38244.45
561.453	38613.09
561.652	38686.81
561.851	38393.95
562.05	38381.66
562.249	38541.41
562.448	38514.78
562.647	38027.37
562.846	38062.18
563.045	38037.61
563.244	37343.34
563.443	38015.08
563.642	37492.85
563.841	37535.85
564.04	37523.57
564.239	37797.99
564.438	37023.86
564.637	37498.99
564.836	36999.29
565.035	36948.09
565.234	37025.91
565.432	36784.25
565.631	36612.22
565.83	36724.86
566.029	36065.41
566.228	36219.01
566.427	36442.24
566.625	36419.71
566.824	36141.19
567.023	36376.7
567.222	35752.07
567.42	36216.96
567.619	35993.73
567.818	35442.83
568.016	35764.36
568.215	35561.61
568.414	35164.31
568.612	35797.13
568.811	35233.94
569.01	35149.97
569.208	34627.74
569.407	34781.34
569.605	34936.98
569.804	34721.94
570.002	34674.84
570.201	34611.35
570.4	34326.69
570.598	34283.68
570.797	34330.78
570.995	34146.47
571.193	33781.93
571.392	34191.52
571.59	33724.58
571.789	33616.04
571.987	33478.83
572.186	33214.64
572.384	33413.29
572.582	33173.68
572.781	33261.74
572.979	32901.3
573.177	32882.87
573.376	33130.67
573.574	32612.54
573.772	32841.91
573.971	32430.27
574.169	32454.84
574.367	32307.39
574.565	32233.66
574.763	32118.98
574.962	31783.11
575.16	31549.64
575.358	31844.55
575.556	31238.35
575.754	31668.42
575.952	31310.03
576.151	31635.66
576.349	31142.1
576.547	30998.74
576.745	31125.71
576.943	31267.02
577.141	30865.62
577.339	31041.74
577.537	30585.05
577.735	30894.29
577.933	30222.56
578.131	30585.05
578.329	30296.28
578.527	30005.47
578.725	30128.35
578.923	30353.63
579.121	29888.74
579.319	29724.9
579.516	29651.17
579.714	29984.99
579.912	29454.57
580.11	29538.54
580.308	29483.24
580.506	29438.19
580.704	28844.27
580.901	29253.87
581.099	29276.4
581.297	28852.47
581.495	28956.91
581.692	28991.73
581.89	28494.07
582.088	28879.09
582.285	28633.33
582.483	28733.68
582.681	28623.09
582.878	28610.81
583.076	28068.09
583.274	28168.44
583.471	27883.78
583.669	27959.55
583.866	27744.52
584.064	27830.53
584.262	27365.64
584.459	27721.99
584.657	27568.39
584.854	27830.53
585.052	26902.8
585.249	27595.01
585.447	27642.12
585.644	26816.79
585.841	27103.5
586.039	27162.89
586.236	26603.8
586.434	26827.03
586.631	26566.93
586.828	26609.94
587.026	26712.34
587.223	26521.88
587.42	26446.1
587.618	26542.36
587.815	26216.73
588.012	26143
588.21	26167.58
588.407	26450.2
588.604	26173.72
588.801	26042.65
588.999	25659.68
589.196	25813.28
589.393	25698.59
589.59	25800.99
589.787	25473.32
589.984	25585.96
590.182	25108.78
590.379	25184.55
590.576	25194.79
590.773	25323.82
590.97	25237.8
591.167	24990
591.364	24836.4
591.561	24713.52
591.758	24908.08
591.955	24391.99
592.152	24584.5
592.349	24330.55
592.546	24580.4
592.743	24328.5
592.94	24092.99
593.137	24242.49
593.334	24318.26
593.531	23830.85
593.727	24054.08
593.924	23761.22
594.121	23826.75
594.318	23986.49
594.515	23474.5
594.712	24078.65
594.908	23847.23
595.105	23488.84
595.302	23298.38
595.499	23179.59
595.696	23423.3
595.892	23144.78
596.089	23370.05
596.286	23087.43
596.482	22946.12
596.679	23105.87
596.876	22733.14
597.072	22726.99
597.269	22569.3
597.466	22899.02
597.662	22655.31
597.859	22575.44
598.055	22741.33
598.252	22262.1
598.448	22524.24
598.645	21872.99
598.841	21911.9
599.038	22090.07
599.234	21991.77
599.431	21827.93
599.627	21707.1
599.824	21729.63
600.02	21686.62
600.217	22032.73
600.413	21399.91
600.609	21614.94
600.806	21487.97
601.002	21336.42
601.198	21262.69
601.395	21399.91
601.591	21262.69
601.787	21469.54
601.984	21205.35
602.18	21432.68
602.376	20713.84
602.572	20699.5
602.769	21272.93
602.965	20844.91
603.161	20746.61
603.357	20373.88
603.553	20566.38
603.75	20461.94
603.946	20345.2
604.142	20552.05
604.338	20179.32
604.534	20408.69
604.73	20162.94
604.926	20279.67
605.122	20001.15
605.318	19614.08
605.514	19720.57
605.71	19569.02
605.906	19714.43
606.102	19714.43
606.298	19827.07
606.494	19718.53
606.69	19509.63
606.886	19593.6
607.082	19310.98
607.278	19622.27
607.474	19052.94
607.67	19472.77
607.866	19196.29
608.062	19364.23
608.257	19097.99
608.453	19194.25
608.649	19186.05
608.845	18821.52
609.041	18807.18
609.236	19075.46
609.432	19247.49
609.628	18764.17
609.824	18856.33
610.019	18583.95
610.215	18813.32
610.411	18512.27
610.606	18729.36
610.802	18442.64
610.998	18426.26
611.193	18370.96
611.389	18420.11
611.584	18213.27
611.78	18399.63
611.976	18397.59
612.171	18207.12
612.367	18344.34
612.562	18133.4
612.758	17744.28
612.953	17969.56
613.149	18117.01
613.344	17772.96
613.539	18022.81
613.735	18168.21
613.93	17822.11
614.126	17885.59
614.321	17996.18
614.517	17758.62
614.712	17514.91
614.907	17793.44
615.103	17856.92
615.298	17330.59
615.493	17719.71
615.688	17346.98
615.884	17529.25
616.079	17263.01
616.274	17371.55
616.47	17125.8
616.665	17220
616.86	17244.58
617.055	17377.7
617.25	17090.98
617.445	17519.01
617.641	16714.16
617.836	17015.21
618.031	16964.01
618.226	16976.3
618.421	16759.21
618.616	16937.38
618.811	16673.2
619.006	16996.78
619.201	16404.91
619.396	16642.48
619.591	16122.29
619.786	16650.67
619.981	16452.02
620.176	16521.65
620.371	16329.14
620.566	16075.19
620.761	16044.47
620.956	16273.84
621.151	15905.21
621.346	15851.96
621.541	15544.77
621.735	15727.03
621.93	15413.7
622.125	15632.83
622.32	15172.04
622.515	15421.89
622.709	15004.1
622.904	14971.33
623.099	14997.96
623.294	15149.51
623.488	15038.92
623.683	14932.42
623.878	14848.46
624.072	14721.48
624.267	14674.38
624.462	14537.16
624.656	14442.96
624.851	14657.99
625.046	14479.82
625.24	14254.55
625.435	14270.93
625.629	14006.74
625.824	14029.27
626.018	13892.05
626.213	13847
626.407	13994.45
626.602	13771.22
626.796	13820.38
626.991	13799.9
627.185	13500.89
627.38	13670.87
627.574	13586.91
627.768	13335.01
627.963	13210.08
628.157	13124.07
628.352	13013.48
628.546	12845.54
628.74	13097.44
628.935	12734.95
629.129	13042.15
629.323	12634.6
629.517	12863.97
629.712	12677.61
629.906	12829.16
630.1	12548.59
630.294	12501.48
630.489	12397.04
630.683	12282.35
630.877	12202.48
631.071	11979.25
631.265	12177.9
631.459	12130.8
631.653	11928.05
631.848	12081.65
632.042	11753.98
632.236	12024.31
632.43	11829.75
632.624	11641.34
632.818	11551.23
633.012	11473.4
633.206	11651.58
633.4	11616.76
633.594	11237.89
633.788	11317.76
633.982	11332.09
634.176	11227.65
634.369	10924.55
634.563	11313.66
634.757	11012.61
634.951	10936.84
635.145	10949.12
635.339	10908.16
635.533	10715.66
635.726	10906.12
635.92	10578.44
636.114	10828.29
636.308	10598.92
636.501	10441.23
636.695	10553.87
636.889	10336.78
637.083	10480.14
637.276	10308.11
637.47	10299.92
637.664	10177.04
637.857	10263.05
638.051	10127.89
638.244	10031.63
638.438	9843.22
638.632	9988.63
638.825	9765.4
639.019	9796.12
639.212	9800.21
639.406	9742.87
639.599	9767.45
639.793	9378.33
639.986	9441.82
640.18	9544.22
640.373	9552.41
640.567	9206.3
640.76	9478.68
640.954	9249.31
641.147	9132.58
641.34	9269.79
641.534	9138.72
641.727	9038.37
641.92	8989.22
642.114	8993.31
642.307	8880.68
642.5	8929.83
642.694	8659.49
642.887	8747.56
643.08	8823.33
643.273	8555.05
643.467	8563.24
643.66	8663.59
643.853	8442.41
644.046	8272.43
644.239	8335.92
644.432	8309.29
644.626	8340.01
644.819	8170.03
645.012	8129.07
645.205	8243.76
645.398	8450.6
645.591	7965.23
645.784	8026.67
645.977	7914.03
646.17	7975.47
646.363	7969.33
646.556	7852.59
646.749	7752.24
646.942	7879.22
647.135	7688.76
647.328	7637.56
647.521	7416.38
647.714	7612.98
647.907	7715.38
648.099	7399.99
648.292	7404.09
648.485	7432.76
648.678	7338.55
648.871	7373.37
649.064	7215.68
649.256	7434.81
649.449	7193.15
649.642	7227.96
649.835	7205.44
650.027	7180.86
650.22	7369.27
650.413	7060.03
650.605	7260.73
650.798	6908.48
650.991	6984.26
651.183	7123.52
651.376	6855.23
651.568	6928.96
651.761	6853.19
651.954	6664.77
652.146	6779.46
652.339	6660.68
652.531	6595.14
652.724	6656.58
652.916	6484.55
653.109	6691.4
653.301	6615.62
653.494	6584.9
653.686	6287.95
653.879	6527.56
654.071	6398.54
654.263	6425.16
654.456	6376.01
654.648	6367.82
654.84	6171.21
655.033	6218.32
655.225	6175.31
655.417	6244.94
655.61	6224.46
655.802	6064.72
655.994	6003.28
656.186	6029.9
656.379	5880.4
656.571	6021.71
656.763	5818.96
656.955	5896.78
657.148	5999.18
657.34	5874.26
657.532	5829.2
657.724	5966.42
657.916	5722.71
658.108	5870.16
658.3	5675.6
658.492	5659.22
658.684	5724.76
658.876	5669.46
659.068	5476.95
659.26	5618.26
659.452	5630.55
659.644	5540.44
659.836	5642.84
660.028	5495.38
660.22	5300.83
660.412	5415.51
660.604	5349.98
660.796	5302.87
660.988	5364.31
661.18	5157.47
661.372	5149.28
661.563	5266.01
661.755	5370.46
661.947	5204.57
662.139	5212.76
662.331	5313.11
662.522	5048.93
662.714	5071.45
662.906	5081.69
663.097	5018.21
663.289	5122.65
663.481	5104.22
663.673	5083.74
663.864	4862.56
664.056	5073.5
664.247	5001.82
664.439	4962.91
664.631	4924
664.822	4899.42
665.014	4874.85
665.205	4815.46
665.397	4815.46
665.588	4915.81
665.78	4811.36
665.971	4762.21
666.163	4829.79
666.354	4633.19
666.546	4584.04
666.737	4643.43
666.929	4735.59
667.12	4739.68
667.311	4690.53
667.503	4571.75
667.694	4665.96
667.885	4751.97
668.077	4592.23
668.268	4610.66
668.459	4432.49
668.651	4588.13
668.842	4477.54
669.033	4428.39
669.224	4448.87
669.416	4524.65
669.607	4330.09
669.798	4420.2
669.989	4491.88
670.18	4465.25
670.371	4274.79
670.563	4311.66
670.754	4586.08
670.945	4287.08
671.136	4424.3
671.327	4311.66
671.518	4407.91
671.709	4391.53
671.9	4340.33
672.091	4420.2
672.282	4338.28
672.473	4338.28
672.664	4207.21
672.855	4203.11
673.046	4280.94
673.237	4307.56
673.428	4174.44
673.619	4229.74
673.809	4127.34
674	4274.79
674.191	4282.99
674.382	4205.16
674.573	4072.04
674.764	4225.64
674.954	4203.11
675.145	4266.6
675.336	4182.63
675.527	4160.11
675.717	4047.47
675.908	4184.68
676.099	4201.07
676.289	4260.46
676.48	4231.79
676.671	4102.76
676.861	4254.31
677.052	4125.29
677.243	4092.52
677.433	4211.31
677.624	4156.01
677.814	4174.44
678.005	4137.58
678.195	4229.74
678.386	4186.73
678.576	4033.13
678.767	4074.09
678.957	4057.71
679.148	4297.32
679.338	4151.92
679.529	4180.59
679.719	4067.95
679.909	4137.58
680.1	4147.82
680.29	4174.44
680.481	4190.83
680.671	4100.72
680.861	4057.71
681.052	4026.99
681.242	4158.06
681.432	4223.59
681.622	4221.55
681.813	4078.19
682.003	4110.96
682.193	4080.24
682.383	4207.21
682.573	4139.63
682.764	4059.76
682.954	4242.03
683.144	4264.55
683.334	4125.29
683.524	4102.76
683.714	4164.2
683.904	4088.43
684.094	4076.14
684.284	4248.17
684.474	4072.04
684.664	4121.2
684.854	4043.37
685.044	4084.33
685.234	4141.68
685.424	3965.55
685.614	4203.11
685.804	4141.68
685.994	4133.48
686.184	4045.42
686.374	4125.29
686.564	4014.7
686.753	3969.65
686.943	3838.58
687.133	3992.17
687.323	3953.26
687.513	3893.87
687.702	3846.77
687.892	4065.9
688.082	3906.16
688.272	3922.54
688.461	3904.11
688.651	3975.79
688.841	3764.85
689.03	3777.14
689.22	3738.23
689.41	3779.18
689.599	3822.19
689.789	3863.15
689.979	3795.57
690.168	3668.59
690.358	3713.65
690.547	3652.21
690.737	3603.06
690.926	3717.75
691.116	3684.98
691.305	3746.42
691.495	3566.2
691.684	3596.92
691.874	3574.39
692.063	3531.38
692.252	3601.01
692.442	3607.16
692.631	3433.08
692.82	3535.48
693.01	3555.96
693.199	3558
693.388	3428.98
693.578	3414.65
693.767	3465.85
693.956	3439.22
694.146	3404.41
694.335	3308.15
694.524	3408.5
694.713	3494.52
694.902	3203.71
695.092	3525.24
695.281	3293.82
695.47	3414.65
695.659	3308.15
695.848	3369.59
696.037	3271.29
696.226	3324.54
696.415	3164.79
696.604	3230.33
696.793	3336.82
696.982	3297.91
697.171	3381.88
697.36	3308.15
697.549	3228.28
697.738	3289.72
697.927	3222.14
698.116	3213.95
698.305	3330.68
698.494	3201.66
698.683	3152.51
698.872	3222.14
699.061	3291.77
699.25	3248.76
699.438	3179.13
699.627	3297.91
699.816	3291.77
700.005	3189.37
700.193	3119.74
700.382	3177.08
700.571	3207.8
700.76	3256.95
700.948	3267.19
701.137	3138.17
701.326	3322.49
701.514	3201.66
701.703	3215.99
701.892	3242.62
702.08	3326.58
702.269	3218.04
702.457	3275.38
702.646	3259
702.834	3172.99
703.023	3222.14
703.212	3318.39
703.4	3162.75
703.589	3129.98
703.777	3287.67
703.965	3172.99
704.154	3279.48
704.342	3205.75
704.531	3215.99
704.719	3285.62
704.907	3302.01
705.096	3123.83
705.284	3181.18
705.472	3295.86
705.661	3246.71
705.849	3277.43
706.037	3291.77
706.226	3271.29
706.414	3281.53
706.602	3320.44
706.79	3285.62
706.979	3240.57
707.167	3318.39
707.355	3285.62
707.543	3369.59
707.731	3275.38
707.919	3293.82
708.107	3140.22
708.296	3252.86
708.484	3322.49
708.672	3252.86
708.86	3271.29
709.048	3265.14
709.236	3291.77
709.424	3404.41
709.612	3349.11
709.8	3308.15
709.988	3234.43
710.176	3224.19
710.364	3375.74
710.551	3439.22
710.739	3273.34
710.927	3314.3
711.115	3486.33
711.303	3308.15
711.491	3400.31
711.679	3396.21
711.866	3390.07
712.054	3517.04
712.242	3349.11
712.43	3439.22
712.617	3267.19
712.805	3369.59
712.993	3361.4
713.181	3439.22
713.368	3334.78
713.556	3474.04
713.744	3308.15
713.931	3416.69
714.119	3390.07
714.306	3418.74
714.494	3433.08
714.682	3533.43
714.869	3494.52
715.057	3394.17
715.244	3463.8
715.432	3431.03
715.619	3506.81
715.807	3603.06
715.994	3469.94
716.182	3545.72
716.369	3428.98
716.556	3623.54
716.744	3586.68
716.931	3459.7
717.119	3478.13
717.306	3572.34
717.493	3441.27
717.681	3490.42
717.868	3439.22
718.055	3572.34
718.242	3535.48
718.43	3420.79
718.617	3601.01
718.804	3484.28
718.991	3451.51
719.179	3666.55
719.366	3494.52
719.553	3574.39
719.74	3668.59
719.927	3635.83
720.114	3621.49
720.301	3555.96
720.488	3533.43
720.676	3580.53
720.863	3844.72
721.05	3627.64
721.237	3635.83
721.424	3746.42
721.611	3629.68
721.798	3631.73
721.985	3725.94
722.172	3687.03
722.358	3744.37
722.545	3582.58
722.732	3607.16
722.919	3742.32
723.106	3666.55
723.293	3576.44
723.48	3766.9
723.667	3625.59
723.853	3857.01
724.04	3795.57
724.227	3736.18
724.414	3678.83
724.6	3693.17
724.787	3727.99
724.974	3895.92
725.161	3766.9
725.347	3822.19
725.534	3734.13
725.72	3766.9
725.907	3820.14
726.094	3842.67
726.28	3744.37
726.467	3897.97
726.653	3797.62
726.84	3832.43
727.027	3830.38
727.213	3807.86
727.4	3863.15
727.586	3822.19
727.773	3781.23
727.959	3836.53
728.145	3799.66
728.332	3953.26
728.518	3986.03
728.705	3936.88
728.891	3836.53
729.077	3977.84
729.264	3887.73
729.45	3891.82
729.636	3924.59
729.823	3881.58
730.009	3908.21
730.195	3951.21
730.382	3943.02
730.568	4002.41
730.754	4020.85
730.94	3764.85
731.126	3932.78
731.313	3943.02
731.499	3826.29
731.685	4039.28
731.871	3859.06
732.057	3940.97
732.243	4059.76
732.429	3981.93
732.615	3852.91
732.801	3945.07
732.987	3859.06
733.173	3955.31
733.359	4022.89
733.545	3996.27
733.731	3947.12
733.917	3988.08
734.103	4012.65
734.289	4051.56
734.475	3934.83
734.661	3973.74
734.847	3992.17
735.033	4029.04
735.219	3947.12
735.404	3990.13
735.59	3926.64
735.776	4049.52
735.962	3875.44
736.148	4137.58
736.333	4039.28
736.519	4125.29
736.705	4104.81
736.89	4002.41
737.076	4113
737.262	3908.21
737.447	3807.86
737.633	3926.64
737.819	3965.55
738.004	3912.3
738.19	4061.8
738.375	3897.97
738.561	3957.36
738.747	3949.17
738.932	3930.73
739.118	4059.76
739.303	4008.56
739.489	3914.35
739.674	3938.93
739.859	3873.39
740.045	4039.28
740.23	3881.58
740.416	3861.1
740.601	3957.36
740.786	4037.23
740.972	3992.17
741.157	3920.49
741.342	3863.15
741.528	3832.43
741.713	4047.47
741.898	3957.36
742.084	3795.57
742.269	3775.09
742.454	3842.67
742.639	3906.16
742.824	3830.38
743.01	3875.44
743.195	3818.1
743.38	3768.95
743.565	3832.43
743.75	3699.31
743.935	3633.78
744.12	3756.66
744.305	3723.89
744.49	3650.16
744.675	3619.44
744.86	3721.84
745.045	3541.62
745.23	3725.94
745.415	3664.5
745.6	3750.51
745.785	3586.68
745.97	3691.12
746.155	3525.24
746.34	3535.48
746.525	3512.95
746.71	3582.58
746.895	3449.46
747.079	3457.65
747.264	3383.93
747.449	3531.38
747.634	3531.38
747.819	3504.76
748.003	3453.56
748.188	3367.54
748.373	3365.5
748.557	3267.19
748.742	3396.21
748.927	3275.38
749.111	3201.66
749.296	3226.23
749.481	3367.54
749.665	3244.67
749.85	3183.23
750.034	3332.73
750.219	3091.07
750.404	3125.88
750.588	3039.87
750.773	3136.12
750.957	3168.89
751.141	3027.58
751.326	3056.25
751.51	3000.96
751.695	2947.71
751.879	2976.38
752.064	2986.62
752.248	2847.36
752.432	2900.61
752.617	2900.61
752.801	2943.61
752.985	2892.41
753.17	2925.18
753.354	2964.09
753.538	2849.41
753.722	2937.47
753.907	2757.25
754.091	2820.74
754.275	2765.44
754.459	2714.24
754.643	2714.24
754.828	2687.62
755.012	2701.95
755.196	2634.37
755.38	2609.79
755.564	2822.78
755.748	2646.66
755.932	2597.51
756.116	2675.33
756.3	2609.79
756.484	2587.27
756.668	2529.92
756.852	2415.24
757.036	2546.31
757.22	2499.2
757.404	2359.94
757.588	2421.38
757.772	2396.81
757.956	2357.89
758.14	2374.28
758.323	2474.63
758.507	2273.93
758.691	2384.52
758.875	2388.61
759.059	2321.03
759.242	2341.51
759.426	2294.41
759.61	2208.39
759.794	2226.82
759.977	2194.06
760.161	2323.08
760.345	2230.92
760.528	2265.74
760.712	2265.74
760.895	2171.53
761.079	2202.25
761.263	2243.21
761.446	2087.56
761.63	2257.54
761.813	2110.09
761.997	2114.19
762.18	2130.57
762.364	2206.35
762.547	1979.02
762.731	2038.41
762.914	2019.98
763.098	1946.25
763.281	2052.75
763.464	2044.56
763.648	1981.07
763.831	2065.04
764.015	1931.92
764.198	1970.83
764.381	2005.64
764.564	2013.84
764.748	1974.92
764.931	1841.81
765.114	1970.83
765.297	1897.1
765.481	1806.99
765.664	1915.53
765.847	1852.05
766.03	1890.96
766.213	1868.43
766.397	1913.49
766.58	1852.05
766.763	1899.15
766.946	1852.05
767.129	1796.75
767.312	1741.46
767.495	1833.61
767.678	1735.31
767.861	1845.9
768.044	1729.17
768.227	1817.23
768.41	1772.18
768.593	1856.14
768.776	1852.05
768.959	1770.13
769.142	1772.18
769.324	1796.75
769.507	1708.69
769.69	1657.49
769.873	1686.16
770.056	1727.12
770.239	1628.82
770.421	1702.54
770.604	1694.35
770.787	1581.71
770.97	1733.26
771.152	1575.57
771.335	1710.74
771.518	1690.26
771.7	1620.63
771.883	1591.95
772.066	1575.57
772.248	1614.48
772.431	1503.89
772.613	1696.4
772.796	1602.19
772.978	1579.67
773.161	1673.87
773.343	1553.04
773.526	1507.99
773.708	1471.12
773.891	1479.32
774.073	1397.4
774.256	1467.03
774.438	1516.18
774.621	1514.13
774.803	1469.08
774.985	1452.69
775.168	1372.82
775.35	1419.92
775.532	1399.45
775.715	1286.81
775.897	1354.39
776.079	1327.77
776.261	1352.34
776.444	1434.26
776.626	1372.82
776.808	1247.9
776.99	1272.47
777.173	1360.53
777.355	1331.86
777.537	1225.37
777.719	1268.38
777.901	1221.27
778.083	1327.77
778.265	1282.71
778.447	1260.18
778.629	1204.89
778.811	1163.93
778.993	1204.89
779.175	1313.43
779.357	1149.59
779.539	1139.35
779.721	1241.75
779.903	1127.07
780.085	1139.35
780.267	1217.18
780.449	1202.84
780.631	1125.02
780.812	1229.46
780.994	1104.54
781.176	1006.24
781.358	1004.19
781.54	1090.2
781.721	1114.78
781.903	1073.82
782.085	1018.52
782.267	1024.67
782.448	940.7
782.63	1018.52
782.812	909.98
782.993	862.88
783.175	993.95
783.357	889.5
783.538	971.42
783.72	963.23
783.901	940.7
784.083	1014.43
784.264	907.93
784.446	901.79
784.627	916.12
784.809	797.34
784.99	844.45
785.172	885.41
785.353	961.18
785.535	862.88
785.716	832.16
785.897	852.64
786.079	840.35
786.26	926.36
786.441	834.21
786.623	707.23
786.804	866.97
786.985	807.58
787.167	801.44
787.348	832.16
787.529	891.55
787.71	811.68
787.891	731.81
788.073	709.28
788.254	809.63
788.435	774.81
788.616	811.68
788.797	715.42
788.978	664.22
789.159	719.52
789.34	807.58
789.522	768.67
789.703	649.89
789.884	742.05
790.065	670.37
790.246	742.05
790.427	656.03
790.607	803.49
790.788	625.31
790.969	649.89
791.15	701.09
791.331	617.12
791.512	615.07
791.693	643.74
791.874	666.27
792.054	729.76
792.235	660.13
792.416	674.46
792.597	615.07
792.778	651.94
792.958	578.21
793.139	621.22
793.32	662.18
793.5	527.01
793.681	633.5
793.862	592.55
794.042	567.97
794.223	559.78
794.404	520.87
794.584	615.07
794.765	553.63
794.945	498.34
795.126	623.27
795.306	537.25
795.487	563.87
795.667	600.74
795.848	613.03
796.028	453.28
796.209	586.4
796.389	522.91
796.57	555.68
796.75	479.91
796.93	527.01
797.111	522.91
797.291	508.58
797.471	598.69
797.652	457.38
797.832	508.58
798.012	584.35
798.192	496.29
798.373	438.95
798.553	527.01
798.733	441
798.913	481.96
799.093	434.85
799.274	549.54
799.454	561.83
799.634	496.29
799.814	518.82
799.994	451.24
800.174	488.1
800.354	508.58
800.534	357.03
800.714	481.96
800.894	420.52
801.074	375.46
801.254	451.24
801.434	494.24
801.614	504.48
801.794	430.76
801.974	1065.63
802.154	436.9
802.334	406.18
802.514	430.76
802.693	383.65
802.873	406.18
803.053	438.95
803.233	451.24
803.413	455.33
803.592	395.94
803.772	453.28
803.952	463.52
804.131	332.45
804.311	385.7
804.491	412.32
804.67	416.42
804.85	379.56
805.03	438.95
805.209	484
805.389	434.85
805.568	365.22
805.748	365.22
805.928	336.55
806.107	377.51
806.287	404.13
806.466	377.51
806.646	330.41
806.825	285.35
807.004	361.13
807.184	379.56
807.363	428.71
807.543	371.37
807.722	289.45
807.901	414.37
808.081	498.34
808.26	316.07
808.439	422.56
808.619	324.26
808.798	297.64
808.977	293.54
809.156	303.78
809.336	314.02
809.515	332.45
809.694	338.6
809.873	301.73
810.052	406.18
810.231	350.89
810.411	305.83
810.59	326.31
810.769	248.49
810.948	311.97
811.127	248.49
811.306	326.31
811.485	275.11
811.664	367.27
811.843	354.98
812.022	299.69
812.201	268.97
812.38	238.25
812.559	232.1
812.737	332.45
812.916	258.73
813.095	305.83
813.274	275.11
813.453	311.97
813.632	309.93
813.811	322.21
813.989	252.58
814.168	264.87
814.347	232.1
814.526	291.49
814.704	322.21
814.883	277.16
815.062	234.15
815.24	318.12
815.419	174.76
815.598	230.06
815.776	185
815.955	246.44
816.133	295.59
816.312	309.93
816.49	252.58
816.669	213.67
816.847	268.97
817.026	182.95
817.204	215.72
817.383	268.97
817.561	219.82
817.74	314.02
817.918	244.39
818.097	211.62
818.275	228.01
818.453	223.91
818.632	250.53
818.81	277.16
818.988	283.3
819.167	244.39
819.345	164.52
819.523	152.23
819.701	246.44
819.879	297.64
820.058	185
820.236	273.06
820.414	205.48
820.592	217.77
820.77	232.1
820.948	236.2
821.127	281.25
821.305	238.25
821.483	254.63
821.661	219.82
821.839	217.77
822.017	299.69
822.195	252.58
822.373	219.82
822.551	219.82
822.729	185
822.907	281.25
823.085	248.49
823.262	223.91
823.44	152.23
823.618	256.68
823.796	158.38
823.974	250.53
824.152	180.9
824.329	185
824.507	232.1
824.685	219.82
824.863	236.2
825.04	244.39
825.218	189.1
825.396	199.34
825.574	201.38
825.751	238.25
825.929	275.11
826.107	164.52
826.284	187.05
826.462	182.95
826.639	211.62
826.817	123.56
826.994	199.34
827.172	154.28
827.349	234.15
827.527	154.28
827.704	193.19
827.882	199.34
828.059	160.42
828.237	189.1
828.414	176.81
828.591	191.14
828.769	256.68
828.946	166.57
829.124	174.76
829.301	213.67
829.478	199.34
829.655	185
829.833	158.38
830.01	135.85
830.187	252.58
830.364	150.18
830.542	232.1
830.719	207.53
830.896	219.82
831.073	185
831.25	273.06
831.427	209.58
831.604	191.14
831.782	162.47
831.959	119.46
832.136	230.06
832.313	201.38
832.49	152.23
832.667	187.05
832.844	164.52
833.021	189.1
833.198	156.33
833.374	185
833.551	141.99
833.728	146.09
833.905	213.67
834.082	158.38
834.259	193.19
834.436	219.82
834.612	135.85
834.789	133.8
834.966	150.18
835.143	166.57
835.319	213.67
835.496	141.99
835.673	199.34
835.85	139.94
836.026	205.48
836.203	172.71
836.38	131.75
836.556	64.17
836.733	127.66
836.909	119.46
837.086	39.59
837.262	107.18
837.439	127.66
837.616	129.7
837.792	178.86
837.968	139.94
838.145	51.88
838.321	160.42
838.498	156.33
838.674	70.31
838.851	127.66
839.027	82.6
839.203	121.51
839.38	119.46
839.556	-3.41
839.732	129.7
839.909	86.7
840.085	117.42
840.261	168.62
840.437	96.94
840.614	66.22
840.79	166.57
840.966	146.09
841.142	101.03
841.318	121.51
841.494	131.75
841.671	201.38
841.847	125.61
842.023	109.22
842.199	150.18
842.375	154.28
842.551	111.27
842.727	105.13
842.903	154.28
843.079	121.51
843.255	141.99
843.431	101.03
843.607	158.38
843.783	53.93
843.959	185
844.134	154.28
844.31	162.47
844.486	68.27
844.662	72.36
844.838	35.5
845.013	74.41
845.189	195.24
845.365	96.94
845.541	109.22
845.716	111.27
845.892	123.56
846.068	58.03
846.244	80.55
846.419	90.79
846.595	82.6
846.77	107.18
846.946	133.8
847.122	68.27
847.297	88.75
847.473	103.08
847.648	111.27
847.824	86.7
847.999	66.22
848.175	98.99
848.35	90.79
848.526	103.08
848.701	109.22
848.876	129.7
849.052	170.66
849.227	98.99
849.403	29.35
849.578	21.16
849.753	176.81
849.929	187.05
850.104	17.07
850.279	-5.46
850.454	55.98
850.63	12.97
850.805	107.18
850.98	41.64
851.155	86.7
851.33	47.79
851.505	107.18
851.681	37.55
851.856	113.32
852.031	129.7
852.206	84.65
852.381	129.7
852.556	133.8
852.731	78.51
852.906	39.59
853.081	78.51
853.256	164.52
853.431	74.41
853.606	27.31
853.781	43.69
853.956	-17.75
854.131	17.07
854.305	17.07
854.48	68.27
854.655	25.26
854.83	98.99
855.005	74.41
855.18	31.4
855.354	12.97
855.529	78.51
855.704	2.73
855.879	70.31
856.053	66.22
856.228	47.79
856.403	-7.51
856.577	199.34
856.752	-5.46
856.926	133.8
857.101	33.45
857.276	86.7
857.45	76.46
857.625	2.73
857.799	111.27
857.974	86.7
858.148	62.12
858.323	60.07
858.497	55.98
858.672	-1.37
858.846	-1.37
859.02	154.28
859.195	-7.51
859.369	55.98
859.543	27.31
859.718	88.75
859.892	23.21
860.066	29.35
860.241	113.32
860.415	41.64
860.589	51.88
860.763	113.32
860.938	41.64
861.112	4.78
861.286	47.79
861.46	51.88
861.634	-7.51
861.808	33.45
861.982	-32.08
862.157	-1.37
862.331	45.74
862.505	-7.51
862.679	66.22
862.853	-21.85
863.027	53.93
863.201	197.29
863.375	17.07
863.549	115.37
863.722	62.12
863.896	90.79
864.07	90.79
864.244	86.7
864.418	156.33
864.592	45.74
864.766	74.41
864.939	35.5
865.113	2.73
865.287	101.03
865.461	31.4
865.634	51.88
865.808	53.93
865.982	68.27
866.156	43.69
866.329	29.35
866.503	27.31
866.676	51.88
866.85	29.35
867.024	53.93
867.197	66.22
867.371	98.99
867.544	96.94
867.718	37.55
867.891	82.6
868.065	53.93
868.238	2.73
868.412	33.45
868.585	60.07
868.759	-17.75
868.932	31.4
869.105	-15.7
869.279	55.98
869.452	45.74
869.625	68.27
869.799	74.41
869.972	19.11
870.145	76.46
870.319	113.32
870.492	39.59
870.665	84.65
870.838	2.73
871.011	-23.89
871.185	43.69
871.358	37.55
871.531	78.51
871.704	23.21
871.877	17.07
872.05	82.6
872.223	17.07
872.396	109.22
872.569	25.26
872.742	-60.76
872.915	66.22
873.088	47.79
873.261	21.16
873.434	72.36
873.607	111.27
873.78	68.27
873.953	-25.94
874.126	41.64
874.299	80.55
874.471	-54.61
874.644	53.93
874.817	55.98
874.99	168.62
875.163	29.35
875.335	-3.41
875.508	60.07
875.681	53.93
875.853	-48.47
876.026	39.59
876.199	55.98
876.371	49.83
876.544	37.55
876.717	55.98
876.889	19.11
877.062	12.97
877.234	-7.51
877.407	15.02
877.579	35.5
877.752	98.99
877.924	31.4
878.097	-42.32
878.269	41.64
878.442	70.31
878.614	27.31
878.786	43.69
878.959	8.87
879.131	-38.23
879.303	-32.08
879.476	53.93
879.648	94.89
879.82	-21.85
879.993	37.55
880.165	-15.7
880.337	41.64
880.509	62.12
880.681	-9.56
880.854	121.51
881.026	-25.94
881.198	82.6
881.37	31.4
881.542	27.31
881.714	-77.14
881.886	98.99
882.058	70.31
882.23	25.26
882.402	80.55
882.574	51.88
882.746	101.03
882.918	131.75
883.09	60.07
883.262	74.41
883.434	-5.46
883.606	12.97
883.778	37.55
883.95	49.83
884.122	74.41
884.293	23.21
884.465	80.55
884.637	25.26
884.809	-7.51
884.98	-32.08
885.152	43.69
885.324	105.13
885.496	37.55
885.667	-30.04
885.839	43.69
886.011	146.09
886.182	64.17
886.354	64.17
886.525	45.74
886.697	66.22
886.869	25.26
887.04	25.26
887.212	121.51
887.383	6.83
887.555	23.21
887.726	0.68
887.897	-77.14
888.069	37.55
888.24	78.51
888.412	19.11
888.583	-54.61
888.754	19.11
888.926	21.16
889.097	2.73
889.268	-73.04
889.44	41.64
889.611	-21.85
889.782	0.68
889.953	-27.99
890.125	51.88
890.296	-25.94
890.467	51.88
890.638	-11.61
890.809	64.17
890.98	-1.37
891.151	62.12
891.323	27.31
891.494	-19.8
891.665	33.45
891.836	60.07
892.007	29.35
892.178	60.07
892.349	-9.56
892.52	39.59
892.691	21.16
892.862	62.12
893.032	-25.94
893.203	66.22
893.374	41.64
893.545	31.4
893.716	-38.23
893.887	19.11
894.057	-34.13
894.228	111.27
894.399	-46.42
894.57	2.73
894.74	64.17
894.911	86.7
895.082	4.78
895.253	6.83
895.423	92.84
895.594	37.55
895.764	-5.46
895.935	64.17
896.106	-5.46
896.276	4.78
896.447	-60.76
896.617	0.68
896.788	-66.9
896.958	-9.56
897.129	37.55
897.299	33.45
897.47	68.27
897.64	8.87
897.81	25.26
897.981	70.31
898.151	-77.14
898.322	25.26
898.492	39.59
898.662	31.4
898.832	27.31
899.003	27.31
899.173	12.97
899.343	35.5
899.513	4.78
