Data from USB4F104151__1__12-23-15-904.txt Node

Date: Fri Mar 14 12:23:15 EDT 2025
User: louis
Spectrometer: USB4F10415
Trigger mode: 4
Integration Time (sec): 3.500000E-2
Scans to average: 1
Electric dark correction enabled: true
Nonlinearity correction enabled: false
Boxcar width: 0
XAxis mode: Wavelengths
Number of Pixels in Spectrum: 3648
>>>>>Begin Spectral Data<<<<<
178.204	-195.07
178.424	-195.07
178.644	-195.07
178.864	-176.64
179.084	-164.35
179.304	42.5
179.524	48.64
179.744	-35.33
179.964	-6.66
180.184	48.64
180.404	-23.04
180.624	15.87
180.844	-20.99
181.064	-4.61
181.283	-0.51
181.503	-33.28
181.723	-31.23
181.943	-10.75
182.163	126.46
182.383	-37.38
182.602	83.45
182.822	69.12
183.042	58.88
183.262	36.35
183.482	75.26
183.701	9.73
183.921	17.92
184.141	13.82
184.361	15.87
184.58	38.4
184.8	77.31
185.02	34.3
185.239	69.12
185.459	116.22
185.679	105.98
185.898	-80.38
186.118	85.5
186.338	13.82
186.557	36.35
186.777	32.26
186.997	28.16
187.216	-55.81
187.436	79.36
187.655	60.93
187.875	69.12
188.095	26.11
188.314	36.35
188.534	79.36
188.753	75.26
188.973	22.02
189.192	13.82
189.412	-14.85
189.631	30.21
189.851	-39.42
190.07	83.45
190.29	52.74
190.509	-37.38
190.729	-14.85
190.948	1.54
191.168	249.34
191.387	32.26
191.607	19.97
191.826	48.64
192.045	112.13
192.265	46.59
192.484	56.83
192.704	85.5
192.923	36.35
193.142	101.89
193.362	118.27
193.581	13.82
193.8	105.98
194.02	130.56
194.239	34.3
194.458	108.03
194.678	-0.51
194.897	26.11
195.116	60.93
195.335	42.5
195.555	-14.85
195.774	34.3
195.993	103.93
196.212	-66.05
196.432	15.87
196.651	42.5
196.87	58.88
197.089	120.32
197.308	99.84
197.528	-0.51
197.747	26.11
197.966	38.4
198.185	13.82
198.404	13.82
198.623	73.21
198.842	67.07
199.062	26.11
199.281	60.93
199.5	54.78
199.719	79.36
199.938	103.93
200.157	9.73
200.376	32.26
200.595	54.78
200.814	-55.81
201.033	-59.9
201.252	85.5
201.471	62.98
201.69	67.07
201.909	89.6
202.128	40.45
202.347	34.3
202.566	69.12
202.785	11.78
203.004	67.07
203.223	169.47
203.442	26.11
203.661	24.06
203.879	77.31
204.098	79.36
204.317	75.26
204.536	60.93
204.755	9.73
204.974	42.5
205.193	36.35
205.411	163.33
205.63	103.93
205.849	-31.23
206.068	9.73
206.287	5.63
206.505	75.26
206.724	3.58
206.943	38.4
207.162	-0.51
207.381	69.12
207.599	13.82
207.818	11.78
208.037	-29.18
208.255	-23.04
208.474	19.97
208.693	40.45
208.911	19.97
209.13	-16.9
209.349	44.54
209.567	-16.9
209.786	50.69
210.005	81.41
210.223	46.59
210.442	-33.28
210.661	87.55
210.879	-23.04
211.098	52.74
211.316	50.69
211.535	75.26
211.753	62.98
211.972	-6.66
212.191	28.16
212.409	71.17
212.628	60.93
212.846	60.93
213.065	87.55
213.283	110.08
213.502	75.26
213.72	-49.66
213.938	38.4
214.157	-12.8
214.375	19.97
214.594	7.68
214.812	58.88
215.031	26.11
215.249	-12.8
215.467	-10.75
215.686	30.21
215.904	97.79
216.122	13.82
216.341	34.3
216.559	75.26
216.778	101.89
216.996	105.98
217.214	48.64
217.432	22.02
217.651	-43.52
217.869	24.06
218.087	-2.56
218.306	36.35
218.524	36.35
218.742	85.5
218.96	91.65
219.179	62.98
219.397	89.6
219.615	58.88
219.833	124.41
220.051	-59.9
220.27	24.06
220.488	58.88
220.706	60.93
220.924	-14.85
221.142	54.78
221.36	-6.66
221.578	83.45
221.796	24.06
222.015	5.63
222.233	52.74
222.451	87.55
222.669	-0.51
222.887	3.58
223.105	71.17
223.323	34.3
223.541	-27.14
223.759	130.56
223.977	67.07
224.195	97.79
224.413	108.03
224.631	-4.61
224.849	62.98
225.067	62.98
225.285	60.93
225.503	60.93
225.721	15.87
225.939	-8.7
226.157	1.54
226.375	58.88
226.592	42.5
226.81	30.21
227.028	103.93
227.246	124.41
227.464	38.4
227.682	73.21
227.9	-0.51
228.117	112.13
228.335	13.82
228.553	58.88
228.771	-4.61
228.989	-12.8
229.206	91.65
229.424	30.21
229.642	13.82
229.86	-0.51
230.077	42.5
230.295	13.82
230.513	50.69
230.731	71.17
230.948	48.64
231.166	73.21
231.384	11.78
231.601	26.11
231.819	77.31
232.037	15.87
232.254	-74.24
232.472	34.3
232.689	13.82
232.907	108.03
233.125	65.02
233.342	28.16
233.56	13.82
233.777	36.35
233.995	30.21
234.213	89.6
234.43	101.89
234.648	32.26
234.865	-49.66
235.083	112.13
235.3	130.56
235.518	56.83
235.735	67.07
235.953	50.69
236.17	-27.14
236.388	-10.75
236.605	79.36
236.822	62.98
237.04	99.84
237.257	9.73
237.475	-6.66
237.692	-12.8
237.909	91.65
238.127	77.31
238.344	148.99
238.562	40.45
238.779	11.78
238.996	9.73
239.214	44.54
239.431	-14.85
239.648	56.83
239.865	73.21
240.083	40.45
240.3	46.59
240.517	22.02
240.735	91.65
240.952	34.3
241.169	67.07
241.386	-12.8
241.603	28.16
241.821	73.21
242.038	3.58
242.255	97.79
242.472	-39.42
242.689	81.41
242.907	48.64
243.124	28.16
243.341	-18.94
243.558	-8.7
243.775	-41.47
243.992	36.35
244.209	60.93
244.426	71.17
244.643	40.45
244.86	3.58
245.078	38.4
245.295	44.54
245.512	-8.7
245.729	32.26
245.946	56.83
246.163	30.21
246.38	26.11
246.597	-6.66
246.814	17.92
247.031	56.83
247.248	56.83
247.464	30.21
247.681	34.3
247.898	99.84
248.115	79.36
248.332	-47.62
248.549	38.4
248.766	79.36
248.983	26.11
249.2	-16.9
249.417	36.35
249.633	38.4
249.85	3.58
250.067	73.21
250.284	28.16
250.501	73.21
250.717	22.02
250.934	30.21
251.151	93.69
251.368	42.5
251.585	13.82
251.801	-23.04
252.018	46.59
252.235	101.89
252.451	17.92
252.668	11.78
252.885	62.98
253.102	-16.9
253.318	44.54
253.535	15.87
253.752	38.4
253.968	24.06
254.185	-14.85
254.401	13.82
254.618	69.12
254.835	13.82
255.051	128.51
255.268	69.12
255.484	11.78
255.701	28.16
255.917	67.07
256.134	34.3
256.351	67.07
256.567	50.69
256.784	95.74
257	77.31
257.217	65.02
257.433	44.54
257.65	60.93
257.866	30.21
258.082	-23.04
258.299	44.54
258.515	73.21
258.732	9.73
258.948	79.36
259.165	-23.04
259.381	-14.85
259.597	42.5
259.814	50.69
260.03	67.07
260.246	60.93
260.463	60.93
260.679	99.84
260.895	54.78
261.112	97.79
261.328	-59.9
261.544	22.02
261.761	48.64
261.977	-27.14
262.193	-25.09
262.409	79.36
262.626	36.35
262.842	34.3
263.058	19.97
263.274	24.06
263.49	-33.28
263.707	75.26
263.923	15.87
264.139	-23.04
264.355	69.12
264.571	1.54
264.787	52.74
265.004	157.18
265.22	36.35
265.436	40.45
265.652	24.06
265.868	103.93
266.084	-4.61
266.3	40.45
266.516	28.16
266.732	17.92
266.948	22.02
267.164	91.65
267.38	42.5
267.596	110.08
267.812	93.69
268.028	24.06
268.244	-2.56
268.46	40.45
268.676	65.02
268.892	26.11
269.108	-25.09
269.324	42.5
269.54	58.88
269.756	28.16
269.972	19.97
270.188	17.92
270.403	26.11
270.619	77.31
270.835	26.11
271.051	28.16
271.267	-25.09
271.483	-27.14
271.698	-2.56
271.914	60.93
272.13	83.45
272.346	-41.47
272.562	87.55
272.777	114.17
272.993	38.4
273.209	56.83
273.425	132.61
273.64	24.06
273.856	99.84
274.072	-18.94
274.287	52.74
274.503	89.6
274.719	118.27
274.934	73.21
275.15	77.31
275.366	38.4
275.581	38.4
275.797	75.26
276.012	22.02
276.228	-18.94
276.444	22.02
276.659	105.98
276.875	-8.7
277.09	34.3
277.306	30.21
277.521	93.69
277.737	40.45
277.952	24.06
278.168	50.69
278.383	93.69
278.599	24.06
278.814	58.88
279.03	28.16
279.245	99.84
279.461	58.88
279.676	75.26
279.892	54.78
280.107	56.83
280.322	-25.09
280.538	19.97
280.753	-27.14
280.969	36.35
281.184	38.4
281.399	89.6
281.615	28.16
281.83	83.45
282.045	-31.23
282.26	38.4
282.476	67.07
282.691	73.21
282.906	34.3
283.122	24.06
283.337	7.68
283.552	28.16
283.767	-23.04
283.983	136.7
284.198	-31.23
284.413	99.84
284.628	1.54
284.843	69.12
285.058	69.12
285.274	54.78
285.489	-6.66
285.704	93.69
285.919	11.78
286.134	15.87
286.349	-68.09
286.564	26.11
286.779	60.93
286.995	42.5
287.21	-16.9
287.425	-2.56
287.64	32.26
287.855	97.79
288.07	-55.81
288.285	89.6
288.5	-23.04
288.715	52.74
288.93	17.92
289.145	28.16
289.36	60.93
289.575	110.08
289.79	75.26
290.004	52.74
290.219	3.58
290.434	60.93
290.649	40.45
290.864	48.64
291.079	52.74
291.294	38.4
291.509	132.61
291.724	13.82
291.938	-2.56
292.153	69.12
292.368	-10.75
292.583	75.26
292.798	3.58
293.012	30.21
293.227	11.78
293.442	26.11
293.657	122.37
293.871	75.26
294.086	-2.56
294.301	54.78
294.516	54.78
294.73	91.65
294.945	3.58
295.16	-64
295.374	85.5
295.589	62.98
295.804	46.59
296.018	-27.14
296.233	93.69
296.447	87.55
296.662	89.6
296.877	24.06
297.091	58.88
297.306	56.83
297.52	26.11
297.735	-0.51
297.949	34.3
298.164	114.17
298.378	34.3
298.593	52.74
298.807	54.78
299.022	91.65
299.236	15.87
299.451	77.31
299.665	-27.14
299.88	75.26
300.094	32.26
300.309	-14.85
300.523	32.26
300.737	56.83
300.952	77.31
301.166	56.83
301.381	-10.75
301.595	15.87
301.809	36.35
302.024	34.3
302.238	19.97
302.452	134.65
302.667	11.78
302.881	105.98
303.095	89.6
303.309	65.02
303.524	36.35
303.738	-39.42
303.952	40.45
304.166	7.68
304.381	-16.9
304.595	69.12
304.809	28.16
305.023	-39.42
305.237	36.35
305.452	30.21
305.666	11.78
305.88	-12.8
306.094	73.21
306.308	28.16
306.522	87.55
306.736	40.45
306.95	54.78
307.164	19.97
307.379	89.6
307.593	67.07
307.807	108.03
308.021	97.79
308.235	71.17
308.449	-76.29
308.663	32.26
308.877	112.13
309.091	58.88
309.305	3.58
309.519	-55.81
309.733	44.54
309.947	11.78
310.161	26.11
310.374	67.07
310.588	81.41
310.802	-4.61
311.016	-10.75
311.23	67.07
311.444	-59.9
311.658	67.07
311.872	110.08
312.085	114.17
312.299	34.3
312.513	58.88
312.727	38.4
312.941	-23.04
313.154	15.87
313.368	5.63
313.582	48.64
313.796	3.58
314.009	83.45
314.223	32.26
314.437	48.64
314.651	36.35
314.864	-29.18
315.078	9.73
315.292	-0.51
315.505	-0.51
315.719	58.88
315.933	-12.8
316.146	-20.99
316.36	19.97
316.573	62.98
316.787	71.17
317.001	1.54
317.214	26.11
317.428	32.26
317.641	48.64
317.855	101.89
318.068	60.93
318.282	40.45
318.495	79.36
318.709	60.93
318.922	42.5
319.136	114.17
319.349	108.03
319.563	3.58
319.776	77.31
319.99	1.54
320.203	40.45
320.417	38.4
320.63	-23.04
320.843	140.8
321.057	44.54
321.27	32.26
321.483	71.17
321.697	91.65
321.91	32.26
322.124	13.82
322.337	75.26
322.55	-37.38
322.763	50.69
322.977	9.73
323.19	46.59
323.403	128.51
323.617	38.4
323.83	97.79
324.043	-4.61
324.256	1.54
324.469	-18.94
324.683	56.83
324.896	5.63
325.109	11.78
325.322	-35.33
325.535	11.78
325.748	46.59
325.962	11.78
326.175	128.51
326.388	42.5
326.601	65.02
326.814	1.54
327.027	11.78
327.24	95.74
327.453	24.06
327.666	48.64
327.879	136.7
328.092	46.59
328.305	79.36
328.518	50.69
328.731	34.3
328.944	58.88
329.157	91.65
329.37	11.78
329.583	87.55
329.796	19.97
330.009	-2.56
330.222	144.89
330.435	77.31
330.648	54.78
330.861	40.45
331.073	5.63
331.286	1.54
331.499	-2.56
331.712	-16.9
331.925	36.35
332.138	91.65
332.35	122.37
332.563	9.73
332.776	81.41
332.989	5.63
333.202	13.82
333.414	46.59
333.627	-37.38
333.84	-27.14
334.053	28.16
334.265	44.54
334.478	81.41
334.691	75.26
334.903	69.12
335.116	1.54
335.329	42.5
335.541	83.45
335.754	97.79
335.966	32.26
336.179	22.02
336.392	32.26
336.604	58.88
336.817	28.16
337.029	-33.28
337.242	99.84
337.454	118.27
337.667	-20.99
337.88	5.63
338.092	44.54
338.305	-0.51
338.517	15.87
338.729	38.4
338.942	62.98
339.154	-55.81
339.367	-8.7
339.579	56.83
339.792	54.78
340.004	71.17
340.217	46.59
340.429	85.5
340.641	-8.7
340.854	30.21
341.066	-23.04
341.278	-0.51
341.491	108.03
341.703	58.88
341.915	89.6
342.128	58.88
342.34	101.89
342.552	-16.9
342.764	93.69
342.977	-29.18
343.189	9.73
343.401	34.3
343.613	-35.33
343.826	-14.85
344.038	85.5
344.25	44.54
344.462	89.6
344.674	44.54
344.886	71.17
345.099	81.41
345.311	24.06
345.523	97.79
345.735	44.54
345.947	-16.9
346.159	-25.09
346.371	87.55
346.583	77.31
346.795	151.04
347.007	-6.66
347.219	28.16
347.431	93.69
347.643	79.36
347.855	65.02
348.067	91.65
348.279	50.69
348.491	-6.66
348.703	54.78
348.915	87.55
349.127	58.88
349.339	73.21
349.551	52.74
349.763	99.84
349.975	69.12
350.187	36.35
350.399	42.5
350.61	146.94
350.822	19.97
351.034	-31.23
351.246	3.58
351.458	42.5
351.669	-18.94
351.881	89.6
352.093	67.07
352.305	54.78
352.517	81.41
352.728	136.7
352.94	60.93
353.152	24.06
353.363	1.54
353.575	62.98
353.787	58.88
353.999	50.69
354.21	103.93
354.422	13.82
354.633	73.21
354.845	99.84
355.057	9.73
355.268	46.59
355.48	19.97
355.692	9.73
355.903	60.93
356.115	-12.8
356.326	-8.7
356.538	110.08
356.749	48.64
356.961	58.88
357.172	28.16
357.384	-16.9
357.595	108.03
357.807	22.02
358.018	-2.56
358.23	34.3
358.441	126.46
358.653	38.4
358.864	9.73
359.075	26.11
359.287	50.69
359.498	44.54
359.709	99.84
359.921	85.5
360.132	56.83
360.344	38.4
360.555	3.58
360.766	73.21
360.977	58.88
361.189	99.84
361.4	9.73
361.611	36.35
361.823	77.31
362.034	5.63
362.245	-35.33
362.456	114.17
362.667	79.36
362.879	22.02
363.09	17.92
363.301	71.17
363.512	85.5
363.723	38.4
363.935	26.11
364.146	34.3
364.357	44.54
364.568	118.27
364.779	5.63
364.99	97.79
365.201	65.02
365.412	-0.51
365.623	15.87
365.834	85.5
366.045	5.63
366.256	157.18
366.467	130.56
366.678	58.88
366.889	73.21
367.1	62.98
367.311	36.35
367.522	-10.75
367.733	50.69
367.944	118.27
368.155	-0.51
368.366	110.08
368.577	101.89
368.788	22.02
368.999	-10.75
369.209	73.21
369.42	48.64
369.631	103.93
369.842	11.78
370.053	83.45
370.264	114.17
370.474	46.59
370.685	56.83
370.896	40.45
371.107	50.69
371.317	52.74
371.528	32.26
371.739	122.37
371.95	110.08
372.16	62.98
372.371	28.16
372.582	19.97
372.792	93.69
373.003	50.69
373.214	-6.66
373.424	132.61
373.635	-12.8
373.846	69.12
374.056	114.17
374.267	75.26
374.477	24.06
374.688	36.35
374.898	9.73
375.109	62.98
375.319	-4.61
375.53	73.21
375.74	105.98
375.951	67.07
376.161	99.84
376.372	9.73
376.582	40.45
376.793	60.93
377.003	-12.8
377.214	73.21
377.424	69.12
377.635	28.16
377.845	5.63
378.055	89.6
378.266	50.69
378.476	95.74
378.686	124.41
378.897	85.5
379.107	105.98
379.317	17.92
379.528	-20.99
379.738	116.22
379.948	-55.81
380.158	40.45
380.369	13.82
380.579	85.5
380.789	22.02
380.999	83.45
381.21	40.45
381.42	142.85
381.63	32.26
381.84	105.98
382.05	67.07
382.261	105.98
382.471	97.79
382.681	28.16
382.891	122.37
383.101	89.6
383.311	3.58
383.521	9.73
383.731	89.6
383.941	93.69
384.151	73.21
384.361	50.69
384.571	36.35
384.781	52.74
384.991	65.02
385.201	95.74
385.411	-39.42
385.621	93.69
385.831	-10.75
386.041	118.27
386.251	22.02
386.461	62.98
386.671	112.13
386.881	-16.9
387.091	32.26
387.301	67.07
387.511	101.89
387.72	60.93
387.93	153.09
388.14	-68.09
388.35	95.74
388.56	81.41
388.769	108.03
388.979	91.65
389.189	42.5
389.399	71.17
389.609	56.83
389.818	48.64
390.028	153.09
390.238	69.12
390.447	60.93
390.657	58.88
390.867	-0.51
391.076	-43.52
391.286	46.59
391.496	-23.04
391.705	60.93
391.915	87.55
392.125	112.13
392.334	69.12
392.544	50.69
392.753	42.5
392.963	67.07
393.172	30.21
393.382	28.16
393.591	161.28
393.801	60.93
394.01	136.7
394.22	67.07
394.429	56.83
394.639	93.69
394.848	120.32
395.058	52.74
395.267	120.32
395.477	28.16
395.686	85.5
395.895	50.69
396.105	136.7
396.314	75.26
396.524	130.56
396.733	75.26
396.942	108.03
397.152	103.93
397.361	81.41
397.57	58.88
397.78	36.35
397.989	85.5
398.198	128.51
398.407	97.79
398.617	52.74
398.826	97.79
399.035	116.22
399.244	140.8
399.453	81.41
399.663	122.37
399.872	97.79
400.081	34.3
400.29	177.66
400.499	42.5
400.708	173.57
400.917	79.36
401.127	69.12
401.336	11.78
401.545	140.8
401.754	93.69
401.963	118.27
402.172	120.32
402.381	91.65
402.59	7.68
402.799	71.17
403.008	130.56
403.217	126.46
403.426	177.66
403.635	-4.61
403.844	89.6
404.053	140.8
404.262	34.3
404.471	153.09
404.68	120.32
404.888	95.74
405.097	128.51
405.306	169.47
405.515	112.13
405.724	85.5
405.933	77.31
406.142	146.94
406.35	151.04
406.559	46.59
406.768	116.22
406.977	153.09
407.185	93.69
407.394	230.91
407.603	124.41
407.812	204.28
408.02	185.85
408.229	206.33
408.438	153.09
408.646	128.51
408.855	185.85
409.064	151.04
409.272	169.47
409.481	263.68
409.69	173.57
409.898	194.05
410.107	239.1
410.315	288.25
410.524	226.81
410.733	263.68
410.941	237.05
411.15	247.29
411.358	292.35
411.567	230.91
411.775	294.4
411.984	271.87
412.192	323.07
412.401	280.06
412.609	380.41
412.818	392.7
413.026	366.07
413.234	337.4
413.443	308.73
413.651	300.54
413.86	290.3
414.068	349.69
414.276	357.88
414.485	437.75
414.693	355.83
414.901	499.19
415.11	488.95
415.318	470.52
415.526	460.28
415.734	562.68
415.943	359.93
416.151	560.63
416.359	595.45
416.567	595.45
416.776	568.82
416.984	552.44
417.192	593.4
417.4	677.37
417.608	648.69
417.817	701.94
418.025	724.47
418.233	728.56
418.441	685.56
418.649	771.57
418.857	822.77
419.065	912.88
419.273	798.2
419.481	908.79
419.689	794.1
419.897	798.2
420.105	1052.14
420.313	1041.9
420.521	1050.1
420.729	1019.38
420.937	1005.04
421.145	1185.26
421.353	1213.93
421.561	1177.07
421.769	1230.32
421.977	1273.32
422.185	1318.38
422.393	1367.53
422.601	1445.35
422.809	1455.59
423.017	1467.88
423.224	1465.83
423.432	1582.57
423.64	1545.7
423.848	1693.16
424.056	1652.2
424.263	1844.71
424.471	1820.13
424.679	1844.71
424.887	1859.04
425.094	1959.39
425.302	2125.28
425.51	2055.65
425.718	2041.31
425.925	2172.38
426.133	2242.01
426.341	2407.9
426.548	2409.95
426.756	2391.52
426.964	2489.82
427.171	2620.89
427.379	2629.08
427.586	2696.66
427.794	2803.16
428.001	2876.88
428.209	2950.61
428.417	3032.53
428.624	3192.27
428.832	3073.49
429.039	3270.09
429.247	3136.98
429.454	3513.8
429.662	3816.9
429.869	3474.89
430.076	3859.91
430.284	3657.16
430.491	3917.25
430.699	3958.21
430.906	3816.9
431.114	4120
431.321	4208.06
431.528	4212.16
431.736	4683.19
431.943	4744.63
432.15	4672.95
432.358	4687.29
432.565	4998.58
432.772	4783.54
432.979	5154.23
433.187	5412.27
433.394	5354.93
433.601	5774.76
433.808	5639.59
434.016	5727.66
434.223	5719.46
434.43	6073.76
434.637	6313.38
434.844	6581.66
435.052	6585.76
435.259	6624.67
435.466	6682.01
435.673	6626.71
435.88	7081.36
436.087	7370.13
436.294	7441.81
436.501	7269.78
436.708	7286.16
436.915	7613.84
437.122	7978.37
437.329	7912.84
437.537	8230.27
437.743	8623.48
437.95	8185.22
438.157	8891.77
438.364	9014.65
438.571	9104.76
438.778	9047.41
438.985	9887.08
439.192	9651.56
439.399	9932.14
439.606	9477.49
439.813	10263.91
440.02	10624.35
440.227	10657.12
440.433	10515.81
440.64	10904.92
440.847	10863.96
441.054	10995.03
441.261	11658.57
441.467	11560.27
441.674	11631.95
441.881	12328.26
442.088	12313.92
442.294	12344.64
442.501	12410.18
442.708	12520.77
442.914	13133.11
443.121	13905.2
443.328	13268.28
443.534	14224.68
443.741	13923.63
443.948	13651.25
444.154	14910.75
444.361	14877.98
444.568	14640.42
444.774	15027.48
444.981	15050.01
445.187	15648.02
445.394	16102.67
445.6	15848.72
445.807	17532.15
446.013	16821.5
446.22	16893.18
446.426	17747.19
446.633	17937.65
446.839	18486.5
447.046	17597.68
447.252	18488.55
447.459	18650.34
447.665	18658.53
447.871	19696.85
448.078	20356.3
448.284	19545.3
448.491	19825.87
448.697	20597.96
448.903	21152.96
449.11	21019.84
449.316	20583.62
449.522	21324.99
449.728	21640.37
449.935	22076.59
450.141	21683.38
450.347	22430.89
450.553	21851.31
450.76	21990.58
450.966	22531.24
451.172	22340.78
451.378	22844.58
451.584	22514.86
451.791	23166.11
451.997	23008.42
452.203	23217.31
452.409	23372.96
452.615	23168.16
452.821	22867.11
453.027	22283.44
453.233	23305.37
453.44	22686.89
453.646	22942.88
453.852	23080.1
454.058	22922.4
454.264	22570.15
454.47	23239.84
454.676	22275.24
454.882	23164.06
455.088	20880.58
455.294	21593.27
455.5	21843.12
455.705	22056.11
455.911	21177.53
456.117	20741.32
456.323	20438.22
456.529	19365.08
456.735	20176.08
456.941	19655.89
457.147	19664.08
457.352	18834.66
457.558	18423.01
457.764	18683.11
457.97	18019.57
458.176	17835.25
458.381	17820.91
458.587	16956.67
458.793	16772.35
458.999	15940.88
459.204	17116.41
459.41	16755.97
459.616	15508.76
459.821	15619.35
460.027	15406.36
460.233	15179.03
460.438	14390.56
460.644	14566.69
460.85	14030.12
461.055	13593.9
461.261	13505.84
461.466	12748.09
461.672	12254.53
461.878	13110.58
462.083	12526.91
462.289	12139.85
462.494	11922.76
462.7	11490.64
462.905	11007.32
463.111	11398.48
463.316	11504.98
463.522	11275.6
463.727	11210.07
463.932	11416.91
464.138	11064.66
464.343	11169.11
464.549	10870.11
464.754	11115.86
464.959	11099.48
465.165	11066.71
465.37	10478.94
465.575	10145.13
465.781	10829.15
465.986	10784.09
466.191	10169.7
466.397	10278.24
466.602	9741.68
466.807	9969
467.012	10134.89
467.218	10046.82
467.423	9872.75
467.628	10145.13
467.833	10136.93
468.038	10036.58
468.244	9586.03
468.449	9958.76
468.654	9745.77
468.859	9704.81
469.064	9602.41
469.269	9147.76
469.474	9233.78
469.679	9629.04
469.885	9223.54
470.09	9428.34
470.295	9233.78
470.5	8965.5
470.705	9166.2
470.91	8885.62
471.115	8766.84
471.32	8957.3
471.525	8908.15
471.73	8811.9
471.935	8443.26
472.139	8373.63
472.344	8482.17
472.549	8359.3
472.754	8353.15
472.959	8140.16
473.164	7914.89
473.369	7945.61
473.574	8148.36
473.778	8154.5
473.983	7998.85
474.188	7980.42
474.393	7540.11
474.598	7613.84
474.802	7396.75
475.007	7667.08
475.212	7660.94
475.417	7073.17
475.621	7220.63
475.826	7314.83
476.031	7280.02
476.235	7081.36
476.44	7198.1
476.645	7026.07
476.849	7085.46
477.054	6847.9
477.259	6651.29
477.463	6765.98
477.668	6483.36
477.872	6806.94
478.077	6583.71
478.282	6407.58
478.486	6397.34
478.691	6548.89
478.895	6260.13
479.1	6395.29
479.304	6305.18
479.509	6106.53
479.713	6274.46
479.918	6178.21
480.122	6067.62
480.326	6049.19
480.531	5987.75
480.735	5866.92
480.94	5875.11
481.144	6251.94
481.348	5836.2
481.553	6000.04
481.757	5877.16
481.961	5930.41
482.166	5903.78
482.37	5924.26
482.574	6030.76
482.778	5848.49
482.983	5883.3
483.187	6012.32
483.391	5864.87
483.595	5891.49
483.8	5717.42
484.004	5868.97
484.208	5782.95
484.412	5715.37
484.616	5871.01
484.821	5858.73
485.025	5604.78
485.229	5811.62
485.433	5741.99
485.637	5991.84
485.841	5578.15
486.045	5772.71
486.249	5815.72
486.453	5705.13
486.657	5803.43
486.861	5871.01
487.065	5678.51
487.269	5776.81
487.473	5838.25
487.677	5930.41
487.881	5811.62
488.085	5785
488.289	5926.31
488.493	5850.53
488.697	5926.31
488.901	6102.43
489.105	5881.25
489.309	5997.99
489.512	5922.21
489.716	6012.32
489.92	5952.93
490.124	5879.21
490.328	5938.6
490.531	6069.67
490.735	5895.59
490.939	5973.41
491.143	5860.77
491.346	6114.72
491.55	6129.06
491.754	5975.46
491.958	6081.96
492.161	6067.62
492.365	6342.05
492.569	6163.87
492.772	6159.78
492.976	6139.3
493.18	6301.09
493.383	6161.83
493.587	6434.21
493.79	6481.31
493.994	6294.94
494.197	6307.23
494.401	6577.56
494.605	6518.17
494.808	6522.27
495.012	6722.97
495.215	6765.98
495.419	6643.1
495.622	6639
495.825	6817.18
496.029	6849.94
496.232	7183.76
496.436	7036.31
496.639	7075.22
496.843	7116.18
497.046	7198.1
497.249	7353.74
497.453	7267.73
497.656	7464.33
497.859	7388.56
498.063	7646.6
498.266	7605.64
498.469	7646.6
498.673	7601.55
498.876	7875.98
499.079	7984.52
499.282	7734.67
499.485	8199.55
499.689	8330.62
499.892	8183.17
500.095	8144.26
500.298	8461.69
500.501	8482.17
500.705	8717.69
500.908	8600.96
501.111	8942.97
501.314	8965.5
501.517	8990.07
501.72	9174.39
501.923	9127.28
502.126	9424.24
502.329	9508.21
502.532	9616.75
502.735	9674.09
502.938	9778.54
503.141	9698.67
503.344	10030.44
503.547	10108.26
503.75	10048.87
503.953	10483.04
504.156	10509.66
504.359	10325.35
504.562	10675.55
504.765	11248.98
504.968	11162.97
505.17	11085.14
505.373	11171.16
505.576	11332.95
505.779	11453.78
505.982	11588.94
506.185	12059.98
506.387	11883.85
506.59	11947.34
506.793	12023.11
506.996	12369.22
507.198	12518.72
507.401	12651.84
507.604	12555.58
507.807	13032.76
508.009	13102.39
508.212	13100.34
508.415	13266.23
508.617	13397.3
508.82	13378.87
509.022	13532.47
509.225	13890.86
509.428	14026.03
509.63	14091.56
509.833	14341.41
510.035	14712.1
510.238	14394.66
510.44	14755.1
510.643	14865.69
510.845	14998.81
511.048	15332.63
511.25	15594.77
511.453	15623.44
511.655	16246.02
511.858	15969.55
512.06	16301.32
512.262	16241.93
512.465	16475.4
512.667	16534.79
512.87	16817.41
513.072	16735.49
513.274	17403.13
513.477	17708.27
513.679	17620.21
513.881	17974.51
514.084	18183.4
514.286	17720.56
514.488	18291.94
514.69	18908.38
514.893	18742.5
515.095	18873.57
515.297	18955.49
515.499	19594.45
515.701	19348.7
515.904	19606.74
516.106	19981.52
516.308	20190.41
516.51	20272.33
516.712	20561.09
516.914	20856
517.116	20919.49
517.318	21144.77
517.52	21435.58
517.722	21494.97
517.925	22015.15
518.127	22103.21
518.329	22365.35
518.531	22234.28
518.733	22725.8
518.935	22865.06
519.136	23090.34
519.338	23567.51
519.54	23301.28
519.742	23792.79
519.944	23809.17
520.146	24491.15
520.348	24675.46
520.55	24779.91
520.752	24900.74
520.954	25353.34
521.155	25541.75
521.357	25767.03
521.559	25707.64
521.761	26121.33
521.963	26123.38
522.164	26459.24
522.366	26477.68
522.568	27540.57
522.77	27227.23
522.971	27255.9
523.173	27556.96
523.375	27444.32
523.576	27847.77
523.778	27763.8
523.98	28527.69
524.181	28523.6
524.383	28384.33
524.584	28859.46
524.786	29262.91
524.988	28877.9
525.189	29514.81
525.391	29566.01
525.592	30059.57
525.794	29916.22
525.995	30018.61
526.197	30317.62
526.398	30147.64
526.6	30532.65
526.801	30657.58
527.003	30882.86
527.204	31038.5
527.406	31419.42
527.607	31188
527.808	31697.95
528.01	31058.98
528.211	31761.44
528.412	31929.37
528.614	32218.13
528.815	32259.09
529.016	32269.33
529.218	32107.54
529.419	32146.45
529.62	32269.33
529.822	32680.97
530.023	32877.58
530.224	32461.84
530.425	32539.66
530.626	32379.92
530.828	32898.06
531.029	33319.94
531.23	33049.61
531.431	32773.13
531.632	33596.42
531.833	33156.1
532.035	33197.06
532.236	33586.18
532.437	33387.52
532.638	33514.5
532.839	33655.81
533.04	33756.16
533.241	33137.67
533.442	34026.49
533.643	33549.31
533.844	33825.79
534.045	33721.34
534.246	33475.59
534.447	33975.29
534.648	33919.99
534.849	33979.39
535.05	33467.39
535.251	34313.2
535.451	33870.84
535.652	34233.33
535.853	33778.68
536.054	34245.62
536.255	34278.39
536.456	33735.68
536.657	34466.8
536.857	34079.74
537.058	34057.21
537.259	34558.96
537.46	34194.42
537.66	33942.52
537.861	34388.98
538.062	34313.2
538.263	34200.57
538.463	34106.36
538.664	34219
538.865	34509.81
539.065	34305.01
539.266	34061.3
539.466	34407.41
539.667	33715.2
539.868	34470.9
540.068	34110.46
540.269	34319.35
540.469	34317.3
540.67	33762.3
540.87	34073.59
541.071	34247.67
541.271	34188.28
541.472	34053.11
541.672	34135.03
541.873	34288.63
542.073	34075.64
542.274	34542.58
542.474	33803.26
542.675	34219
542.875	34401.27
543.075	34141.18
543.276	33612.8
543.476	34380.79
543.676	33983.48
543.877	34094.07
544.077	34175.99
544.277	34282.48
544.478	33895.42
544.678	34212.85
544.878	34122.74
545.078	34087.93
545.279	33977.34
545.479	33616.9
545.679	34038.78
545.879	34100.22
546.079	34434.03
546.28	33987.58
546.48	33897.47
546.68	34272.25
546.88	34180.09
547.08	33821.69
547.28	33930.23
547.48	33686.53
547.68	34118.65
547.88	33577.98
548.081	34262.01
548.281	34010.11
548.481	33625.09
548.681	34092.02
548.881	34237.43
549.081	33571.84
549.28	33874.94
549.48	34257.91
549.68	33795.07
549.88	33905.66
550.08	33811.45
550.28	33905.66
550.48	33860.6
550.68	34159.61
550.88	33807.36
551.08	33768.44
551.279	33987.58
551.479	33702.91
551.679	34022.39
551.879	33647.61
552.079	33831.93
552.278	33602.56
552.478	33692.67
552.678	33727.49
552.878	34018.3
553.077	33729.53
553.277	33528.83
553.477	34221.05
553.676	33868.8
553.876	33942.52
554.076	33276.93
554.275	33846.27
554.475	33281.03
554.674	33741.82
554.874	33496.06
555.074	33475.59
555.273	33852.41
555.473	33844.22
555.672	33195.01
555.872	33498.11
556.071	33528.83
556.271	33496.06
556.47	33287.17
556.67	33135.62
556.869	32785.42
557.068	33049.61
557.268	32947.21
557.467	32908.3
557.667	33088.52
557.866	32994.31
558.065	32744.46
558.265	32830.48
558.464	32588.81
558.663	32885.77
558.863	32054.29
559.062	33102.85
559.261	32379.92
559.461	32764.94
559.66	32285.72
559.859	32199.7
560.058	31865.88
560.258	32400.4
560.457	31738.91
560.656	32259.09
560.855	32103.45
561.054	32437.27
561.253	31732.76
561.453	31966.23
561.652	31755.29
561.851	31923.22
562.05	31687.71
562.249	31732.76
562.448	31898.65
562.647	31521.82
562.846	31824.92
563.045	31194.15
563.244	31218.72
563.443	31575.07
563.642	30874.66
563.841	30950.44
564.04	30964.78
564.239	30964.78
564.438	30813.23
564.637	30667.82
564.836	30567.47
565.035	30413.87
565.234	30430.26
565.432	30342.19
565.631	30018.61
565.83	30088.24
566.029	30198.84
566.228	30071.86
566.427	30032.95
566.625	29641.79
566.824	29090.88
567.023	29875.26
567.222	29285.44
567.42	29699.13
567.619	29666.36
567.818	29097.03
568.016	29568.06
568.215	29371.46
568.414	29023.3
568.612	29287.49
568.811	28709.96
569.01	28775.5
569.208	28634.19
569.407	28744.78
569.605	28152.91
569.804	28765.26
570.002	28064.85
570.201	28312.66
570.4	28019.8
570.598	28038.23
570.797	28068.95
570.995	27974.74
571.193	27755.61
571.392	28015.7
571.59	27419.74
571.789	27692.12
571.987	27350.11
572.186	27065.44
572.384	26915.94
572.582	26952.8
572.781	27255.9
572.979	26768.49
573.177	26801.26
573.376	26940.52
573.574	26362.99
573.772	26661.99
573.971	26330.22
574.169	26119.28
574.367	26119.28
574.565	26414.19
574.763	25973.88
574.962	26219.63
575.16	25838.71
575.358	25926.77
575.556	25420.92
575.754	25973.88
575.952	25654.39
576.151	25781.37
576.349	25117.82
576.547	25398.4
576.745	25363.58
576.943	25244.8
577.141	25042.05
577.339	25242.75
577.537	25091.2
577.735	25107.58
577.933	24720.52
578.131	24792.2
578.329	24679.56
578.527	24638.6
578.725	24183.95
578.923	24380.56
579.121	24384.65
579.319	24321.16
579.516	24495.24
579.714	24198.29
579.912	24042.64
580.11	24229.01
580.308	23762.07
580.506	23508.12
580.704	23424.15
580.901	23563.42
581.099	23878.8
581.297	23354.52
581.495	23366.81
581.692	23553.18
581.89	23274.65
582.088	23594.14
582.285	23180.45
582.483	23157.92
582.681	22805.67
582.878	22848.68
583.076	22695.08
583.274	22959.27
583.471	22410.41
583.669	22908.07
583.866	22453.42
584.064	22705.32
584.262	22320.3
584.459	22291.63
584.657	22189.23
584.854	22391.98
585.052	21894.32
585.249	22234.28
585.447	22215.85
585.644	22004.91
585.841	22086.83
586.039	22316.2
586.236	21554.36
586.434	21679.29
586.631	21503.16
586.828	21576.89
587.026	21546.17
587.223	21355.71
587.42	21089.47
587.618	21261.5
587.815	20944.06
588.012	20890.82
588.21	21085.37
588.407	21044.41
588.604	20516.04
588.801	20878.53
588.999	20798.66
589.196	20663.49
589.393	20536.52
589.59	20649.16
589.787	20815.04
589.984	20735.17
590.182	20120.78
590.379	20425.93
590.576	20145.36
590.773	20286.67
590.97	20053.2
591.167	20331.72
591.364	19881.17
591.561	20249.8
591.758	19891.41
591.955	19856.59
592.152	19721.43
592.349	19629.27
592.546	19573.97
592.743	19649.75
592.94	19432.66
593.137	19571.93
593.334	19754.19
593.531	19168.48
593.727	19455.19
593.924	19365.08
594.121	19225.82
594.318	19080.41
594.515	18959.58
594.712	19248.35
594.908	18920.67
595.105	19104.99
595.302	18785.51
595.499	18998.49
595.696	19043.55
595.892	18615.52
596.089	18646.24
596.286	18549.99
596.482	18433.25
596.679	18621.67
596.876	18455.78
597.072	17990.89
597.269	18339.05
597.466	17894.64
597.662	17908.97
597.859	17859.82
598.055	18113.77
598.252	17972.46
598.448	17763.57
598.645	17837.3
598.841	17716.47
599.038	17972.46
599.234	18115.82
599.431	17515.76
599.627	17483
599.824	17474.81
600.02	17329.4
600.217	17585.4
600.413	17454.33
600.609	17085.69
600.806	17270.01
601.002	17325.3
601.198	17079.55
601.395	17032.44
601.591	17061.12
601.787	17126.65
601.984	16817.41
602.18	16925.95
602.376	17063.16
602.572	16706.82
602.769	16919.81
602.965	16637.19
603.161	16753.92
603.357	16653.57
603.553	16571.65
603.75	16729.34
603.946	16246.02
604.142	16510.21
604.338	16282.89
604.534	16299.27
604.73	15920.4
604.926	16319.75
605.122	16262.41
605.318	16237.83
605.514	15932.68
605.71	15842.57
605.906	15920.4
606.102	16047.37
606.298	15863.05
606.494	15926.54
606.69	15703.31
606.886	15740.18
607.082	15394.07
607.278	15762.7
607.474	15387.93
607.67	15691.02
607.866	15252.76
608.062	15428.88
608.257	15439.12
608.453	15369.49
608.649	15125.79
608.845	15058.2
609.041	15140.12
609.236	15072.54
609.432	14820.64
609.628	15283.48
609.824	15037.72
610.019	15131.93
610.215	14992.67
610.411	14923.04
610.606	14961.95
610.802	15080.73
610.998	14980.38
611.193	14794.01
611.389	14677.28
611.584	14757.15
611.78	14632.22
611.976	14642.46
612.171	14667.04
612.367	14609.7
612.562	14263.59
612.758	14509.35
612.953	14167.34
613.149	14452
613.344	14071.08
613.539	14441.76
613.735	14439.72
613.93	14261.54
614.126	14208.3
614.321	14394.66
614.517	14384.42
614.712	14163.24
614.907	14032.17
615.103	14087.47
615.298	14003.5
615.493	14279.97
615.688	13962.54
615.884	13964.59
616.079	13720.88
616.274	13999.4
616.47	14056.75
616.665	13829.42
616.86	13790.51
617.055	13466.93
617.25	13514.03
617.445	13827.37
617.641	13604.14
617.836	13634.86
618.031	13415.73
618.226	13573.42
618.421	13614.38
618.616	13493.55
618.811	13212.98
619.006	13511.99
619.201	13106.49
619.396	13217.08
619.591	13184.31
619.786	13212.98
619.981	12928.31
620.176	13122.87
620.371	12942.65
620.566	12698.94
620.761	12973.37
620.956	12946.75
621.151	12502.34
621.346	12969.27
621.541	12496.19
621.735	12633.41
621.93	12268.87
622.125	12371.27
622.32	12225.86
622.515	12453.19
622.709	12352.84
622.904	12162.37
623.099	12043.59
623.294	12111.18
623.488	12031.3
623.683	11865.42
623.878	12000.58
624.072	11928.91
624.267	11572.56
624.462	11756.88
624.656	11384.15
624.851	11715.92
625.046	11470.16
625.24	11449.68
625.435	11291.99
625.629	11275.6
625.824	11416.91
626.018	11208.02
626.213	11029.85
626.407	11175.25
626.602	10902.87
626.796	11101.53
626.991	11042.14
627.185	10849.63
627.38	10732.89
627.574	10612.06
627.768	10720.6
627.963	10646.88
628.157	10542.43
628.352	10513.76
628.546	10222.95
628.74	10349.92
628.935	10098.02
629.129	10366.31
629.323	10345.83
629.517	9981.29
629.712	10151.27
629.906	10124.65
630.1	9923.94
630.294	9885.03
630.489	9911.66
630.683	10026.34
630.877	9794.92
631.071	9577.84
631.265	9567.6
631.459	9588.08
631.653	9524.59
631.848	9536.88
632.042	9330.03
632.236	9520.49
632.43	9241.97
632.624	9418.1
632.818	9307.51
633.012	9340.27
633.206	9174.39
633.4	9295.22
633.594	8953.21
633.788	9022.84
633.982	9010.55
634.176	8932.73
634.369	8910.2
634.563	8867.19
634.757	8859
634.951	8887.67
635.145	8908.15
635.339	8684.92
635.533	8641.92
635.726	8584.57
635.92	8338.82
636.114	8496.51
636.308	8414.59
636.501	8385.92
636.695	8549.76
636.889	8220.03
637.083	8306.05
637.276	8158.6
637.47	8107.4
637.664	8220.03
637.857	8060.29
638.051	7961.99
638.244	7972.23
638.438	7816.58
638.632	8002.95
638.825	7869.83
639.019	7783.82
639.212	7705.99
639.406	7800.2
639.599	7607.69
639.793	7718.28
639.986	7540.11
640.18	7480.72
640.373	7427.47
640.567	7363.98
640.76	7435.66
640.954	7472.53
641.147	7073.17
641.34	7130.52
641.534	7292.3
641.727	7329.17
641.92	7206.29
642.114	7105.94
642.307	6966.68
642.5	7060.88
642.694	6866.33
642.887	6778.26
643.08	6929.81
643.273	6985.11
643.467	6991.25
643.66	6712.73
643.853	6802.84
644.046	6639
644.239	6628.76
644.432	6616.48
644.626	6575.52
644.819	6712.73
645.012	6550.94
645.205	6540.7
645.398	6491.55
645.591	6444.45
645.784	6342.05
645.977	6415.77
646.17	6305.18
646.363	6178.21
646.556	6278.56
646.749	6061.48
646.942	6366.62
647.135	6258.08
647.328	6100.39
647.521	6047.14
647.714	5940.65
647.907	5950.89
648.099	5987.75
648.292	5985.7
648.485	5879.21
648.678	5889.45
648.871	5832.1
649.064	5793.19
649.256	5817.77
649.449	5707.18
649.642	5690.79
649.835	5741.99
650.027	5576.11
650.22	5545.39
650.413	5522.86
650.605	5637.55
650.798	5576.11
650.991	5621.16
651.183	5582.25
651.376	5402.03
651.568	5633.45
651.761	5326.25
651.954	5281.2
652.146	5440.94
652.339	5301.68
652.531	5307.82
652.724	5230
652.916	5072.31
653.109	5119.41
653.301	5125.55
653.494	5006.77
653.686	5090.74
653.879	5197.23
654.071	5141.94
654.263	4926.9
654.456	4933.04
654.648	5049.78
654.84	5023.16
655.033	4978.1
655.225	4892.09
655.417	4756.92
655.61	4998.58
655.802	4945.33
655.994	4881.85
656.186	4799.93
656.379	4816.31
656.571	4801.97
656.763	4736.44
656.955	4519.36
657.148	4638.14
657.34	4810.17
657.532	4742.58
657.724	4545.98
657.916	4679.1
658.108	4752.82
658.3	4568.51
658.492	4502.97
658.684	4437.44
658.876	4545.98
659.068	4402.62
659.26	4363.71
659.452	4498.88
659.644	4642.23
659.836	4406.72
660.028	4337.09
660.22	4304.32
660.412	4369.85
660.604	4238.78
660.796	4156.86
660.988	4351.42
661.18	4234.69
661.372	4292.03
661.563	4320.7
661.755	4246.98
661.947	4115.91
662.139	4257.22
662.331	4357.57
662.522	4056.51
662.714	4085.19
662.906	4062.66
663.097	4025.79
663.289	4109.76
663.481	4009.41
663.673	3892.68
663.864	3921.35
664.056	3892.68
664.247	3771.85
664.439	3874.24
664.631	3962.31
664.822	3880.39
665.014	3974.6
665.205	3827.14
665.397	3798.47
665.588	3794.37
665.78	3802.57
665.971	3796.42
666.163	3739.08
666.354	3724.74
666.546	3806.66
666.737	3821
666.929	3587.53
667.12	3702.22
667.311	3804.61
667.503	3757.51
667.694	3677.64
667.885	3634.63
668.077	3802.57
668.268	3505.61
668.459	3655.11
668.651	3601.87
668.842	3745.22
669.033	3620.3
669.224	3636.68
669.416	3640.78
669.607	3532.23
669.798	3548.62
669.989	3620.3
670.18	3515.85
670.371	3552.71
670.563	3433.93
670.754	3620.3
670.945	3444.17
671.136	3577.29
671.327	3448.27
671.518	3444.17
671.709	3433.93
671.9	3376.59
672.091	3573.19
672.282	3292.62
672.473	3476.94
672.664	3478.99
672.855	3354.06
673.046	3384.78
673.237	3438.03
673.428	3343.82
673.619	3364.3
673.809	3515.85
674	3399.12
674.191	3376.59
674.382	3337.68
674.573	3237.33
674.764	3341.77
674.954	3493.32
675.145	3241.42
675.336	3313.1
675.527	3356.11
675.717	3274.19
675.908	3302.86
676.099	3431.88
676.289	3468.75
676.48	3335.63
676.671	3382.73
676.861	3464.65
677.052	3155.41
677.243	3143.12
677.433	3255.76
677.624	3435.98
677.814	3403.21
678.005	3304.91
678.195	3356.11
678.386	3151.31
678.576	3329.49
678.767	3190.22
678.957	3345.87
679.148	3327.44
679.338	3296.72
679.529	3376.59
679.719	3298.77
679.909	3438.03
680.1	3253.71
680.29	3257.81
680.481	3335.63
680.671	3345.87
680.861	3376.59
681.052	3327.44
681.242	3333.58
681.432	3429.84
681.622	3247.57
681.813	3218.89
682.003	3255.76
682.193	3335.63
682.383	3249.61
682.573	3323.34
682.764	3333.58
682.954	3319.25
683.144	3335.63
683.334	3448.27
683.524	3245.52
683.714	3317.2
683.904	3368.4
684.094	3294.67
684.284	3161.55
684.474	3204.56
684.664	3333.58
684.854	3331.53
685.044	3153.36
685.234	3167.7
685.424	3167.7
685.614	3370.44
685.804	3171.79
685.994	3288.53
686.184	3237.33
686.374	3358.16
686.564	3212.75
686.753	3317.2
686.943	3163.6
687.133	3225.04
687.323	3206.61
687.513	3298.77
687.702	3136.98
687.892	3136.98
688.082	3179.98
688.272	3151.31
688.461	3063.25
688.651	3122.64
688.841	3001.81
689.03	3053.01
689.22	3096.02
689.41	3083.73
689.599	2954.71
689.789	3046.87
689.979	3106.26
690.168	2997.71
690.358	3061.2
690.547	2985.43
690.737	2962.9
690.926	3018.19
691.116	2960.85
691.305	3003.86
691.495	3061.2
691.684	2971.09
691.874	2962.9
692.063	2913.75
692.252	2788.82
692.442	2827.73
692.631	2860.5
692.82	2868.69
693.01	2917.84
693.199	2801.11
693.388	2815.45
693.578	2844.12
693.767	2858.45
693.956	2827.73
694.146	2792.92
694.335	2758.1
694.524	2813.4
694.713	2864.6
694.902	2848.21
695.092	2717.14
695.281	2764.25
695.47	2805.21
695.659	2811.35
695.848	2694.61
696.037	2780.63
696.226	2840.02
696.415	2735.57
696.604	2737.62
696.793	2809.3
696.982	2731.48
697.171	2688.47
697.36	2749.91
697.549	2645.46
697.738	2647.51
697.927	2747.86
698.116	2682.33
698.305	2817.49
698.494	2751.96
698.683	2702.81
698.872	2725.33
699.061	2719.19
699.25	2711
699.438	2606.55
699.627	2770.39
699.816	2786.77
700.005	2680.28
700.193	2637.27
700.382	2803.16
700.571	2717.14
700.76	2715.09
700.948	2809.3
701.137	2799.06
701.326	2772.44
701.514	2696.66
701.703	2704.85
701.892	2717.14
702.08	2880.98
702.269	2745.81
702.457	2758.1
702.646	2655.7
702.834	2831.83
703.023	2788.82
703.212	2764.25
703.4	2776.53
703.589	2792.92
703.777	2735.57
703.965	2563.54
704.154	2768.34
704.342	2782.68
704.531	2809.3
704.719	2733.53
704.907	2725.33
705.096	2794.97
705.284	2723.29
705.472	2754.01
705.661	2794.97
705.849	2758.1
706.037	2788.82
706.226	2897.36
706.414	2756.05
706.602	2737.62
706.79	2778.58
706.979	2883.03
707.167	2909.65
707.355	2819.54
707.543	2809.3
707.731	2923.99
707.919	2870.74
708.107	2995.67
708.296	2797.01
708.484	2766.29
708.672	3048.91
708.86	2825.68
709.048	2895.32
709.236	2907.6
709.424	2885.08
709.612	2940.37
709.8	2940.37
709.988	2844.12
710.176	2966.99
710.364	2817.49
710.551	2801.11
710.739	2858.45
710.927	2936.28
711.115	2819.54
711.303	2799.06
711.491	2932.18
711.679	2917.84
711.866	2969.04
712.054	2915.8
712.242	2966.99
712.43	2969.04
712.617	3098.06
712.805	2966.99
712.993	3005.91
713.181	2977.23
713.368	2952.66
713.556	2969.04
713.744	2907.6
713.931	3196.37
714.119	3057.11
714.306	2921.94
714.494	3001.81
714.682	3028.43
714.869	2971.09
715.057	3130.83
715.244	2909.65
715.432	3022.29
715.619	3028.43
715.807	2969.04
715.994	3069.39
716.182	3048.91
716.369	3065.3
716.556	3110.35
716.744	3159.5
716.931	3016.15
717.119	3079.63
717.306	3065.3
717.493	2977.23
717.681	3042.77
717.868	3128.78
718.055	3124.69
718.242	3149.26
718.43	3112.4
718.617	3202.51
718.804	3102.16
718.991	3173.84
719.179	3151.31
719.366	3169.74
719.553	3192.27
719.74	3139.02
719.927	3200.46
720.114	3065.3
720.301	3231.18
720.488	3122.64
720.676	3161.55
720.863	3257.81
721.05	3198.42
721.237	3235.28
721.424	3182.03
721.611	3233.23
721.798	3229.13
721.985	3155.41
722.172	2993.62
722.358	3186.13
722.545	3155.41
722.732	3188.18
722.919	3255.76
723.106	3216.85
723.293	3268.05
723.48	3288.53
723.667	3319.25
723.853	3298.77
724.04	3261.9
724.227	3204.56
724.414	3507.66
724.6	3339.73
724.787	3216.85
724.974	3290.57
725.161	3214.8
725.347	3257.81
725.534	3452.36
725.72	3335.63
725.907	3266
726.094	3292.62
726.28	3485.13
726.467	3261.9
726.653	3323.34
726.84	3325.39
727.027	3370.44
727.213	3304.91
727.4	3386.83
727.586	3319.25
727.773	3442.12
727.959	3343.82
728.145	3405.26
728.332	3358.16
728.518	3263.95
728.705	3403.21
728.891	3403.21
729.077	3372.49
729.264	3368.4
729.45	3509.71
729.636	3392.97
729.823	3372.49
730.009	3454.41
730.195	3352.01
730.382	3339.73
730.568	3478.99
730.754	3444.17
730.94	3472.84
731.126	3464.65
731.313	3472.84
731.499	3360.2
731.685	3554.76
731.871	3368.4
732.057	3368.4
732.243	3534.28
732.429	3548.62
732.615	3464.65
732.801	3554.76
732.987	3450.32
733.173	3450.32
733.359	3476.94
733.545	3460.56
733.731	3515.85
733.917	3593.67
734.103	3548.62
734.289	3521.99
734.475	3466.7
734.661	3534.28
734.847	3532.23
735.033	3507.66
735.219	3591.63
735.404	3542.47
735.59	3530.19
735.776	3485.13
735.962	3468.75
736.148	3534.28
736.333	3554.76
736.519	3458.51
736.705	3474.89
736.89	3624.39
737.076	3503.56
737.262	3524.04
737.447	3577.29
737.633	3472.84
737.819	3542.47
738.004	3423.69
738.19	3481.03
738.375	3511.75
738.561	3460.56
738.747	3317.2
738.932	3294.67
739.118	3462.6
739.303	3407.31
739.489	3427.79
739.674	3302.86
739.859	3495.37
740.045	3495.37
740.23	3415.5
740.416	3509.71
740.601	3585.48
740.786	3421.64
740.972	3417.55
741.157	3468.75
741.342	3270.09
741.528	3413.45
741.713	3405.26
741.898	3390.92
742.084	3335.63
742.269	3415.5
742.454	3368.4
742.639	3417.55
742.824	3206.61
743.01	3325.39
743.195	3227.09
743.38	3253.71
743.565	3288.53
743.75	3270.09
743.935	3204.56
744.12	3339.73
744.305	3341.77
744.49	3206.61
744.675	3139.02
744.86	3241.42
745.045	3266
745.23	3055.06
745.415	3317.2
745.6	3120.59
745.785	3093.97
745.97	3161.55
746.155	3167.7
746.34	3112.4
746.525	3057.11
746.71	3091.92
746.895	3044.82
747.079	2930.13
747.264	2952.66
747.449	2971.09
747.634	3022.29
747.819	2989.52
748.003	2964.95
748.188	2762.2
748.373	3022.29
748.557	2938.32
748.742	2921.94
748.927	2788.82
749.111	2784.73
749.296	2850.26
749.481	2901.46
749.665	2708.95
749.85	2698.71
750.034	2770.39
750.219	2743.77
750.404	2745.81
750.588	2514.39
750.773	2684.38
750.957	2629.08
751.141	2651.61
751.326	2667.99
751.51	2667.99
751.695	2565.59
751.879	2661.85
752.064	2614.74
752.248	2610.65
752.432	2629.08
752.617	2600.41
752.801	2461.15
752.985	2512.35
753.17	2489.82
753.354	2559.45
753.538	2518.49
753.722	2354.65
753.907	2520.54
754.091	2340.32
754.275	2407.9
754.459	2285.02
754.643	2358.75
754.828	2332.12
755.012	2297.31
755.196	2368.99
755.38	2319.84
755.564	2264.54
755.748	2299.36
755.932	2319.84
756.116	2336.22
756.3	2323.93
756.484	2342.36
756.668	2256.35
756.852	2125.28
757.036	2194.91
757.22	2133.47
757.404	2160.1
757.588	2061.79
757.772	2268.64
757.956	2074.08
758.14	2262.49
758.323	2059.74
758.507	2041.31
758.691	2088.42
758.875	2166.24
759.059	2051.55
759.242	2063.84
759.426	2043.36
759.61	1934.82
759.794	1932.77
759.977	1988.07
760.161	1938.91
760.345	1969.63
760.528	1951.2
760.712	1979.87
760.895	1836.52
761.079	1916.39
761.263	1953.25
761.446	1906.15
761.63	1877.48
761.813	1801.7
761.997	1770.98
762.18	1824.23
762.364	1885.67
762.547	1680.87
762.731	1752.55
762.914	1857
763.098	1709.54
763.281	1693.16
763.464	1830.37
763.648	1740.26
763.831	1684.97
764.015	1752.55
764.198	1811.94
764.381	1723.88
764.564	1664.49
764.748	1650.15
764.931	1707.49
765.114	1682.92
765.297	1785.32
765.481	1637.86
765.664	1697.25
765.847	1682.92
766.03	1635.82
766.213	1576.42
766.397	1625.58
766.58	1584.62
766.763	1639.91
766.946	1607.14
767.129	1631.72
767.312	1617.38
767.495	1510.89
767.678	1615.34
767.861	1592.81
768.044	1601
768.227	1576.42
768.41	1510.89
768.593	1625.58
768.776	1512.94
768.959	1512.94
769.142	1467.88
769.324	1512.94
769.507	1560.04
769.69	1502.7
769.873	1414.63
770.056	1508.84
770.239	1484.27
770.421	1437.16
770.604	1500.65
770.787	1355.24
770.97	1517.03
771.152	1441.26
771.335	1381.87
771.518	1388.01
771.7	1523.18
771.883	1408.49
772.066	1347.05
772.248	1336.81
772.431	1383.91
772.613	1328.62
772.796	1304.04
772.978	1394.15
773.161	1308.14
773.343	1269.23
773.526	1314.28
773.708	1289.71
773.891	1291.76
774.073	1353.2
774.256	1306.09
774.438	1342.96
774.621	1271.28
774.803	1230.32
774.985	1289.71
775.168	1193.45
775.35	1256.94
775.532	1295.85
775.715	1211.89
775.897	1211.89
776.079	1199.6
776.261	1140.21
776.444	1084.91
776.626	1144.3
776.808	1115.63
776.99	1148.4
777.173	1086.96
777.355	1025.52
777.537	1150.45
777.719	1105.39
777.901	1072.62
778.083	1164.78
778.265	1013.23
778.447	1134.06
778.629	1080.82
778.811	1068.53
778.993	1076.72
779.175	1082.86
779.357	1017.33
779.539	998.9
779.721	984.56
779.903	906.74
780.085	908.79
780.267	1005.04
780.449	966.13
780.631	914.93
780.812	1002.99
780.994	982.51
781.176	916.98
781.358	796.15
781.54	884.21
781.721	945.65
781.903	947.7
782.085	919.03
782.267	869.87
782.448	873.97
782.63	863.73
782.812	878.07
782.993	906.74
783.175	929.27
783.357	818.68
783.538	882.16
783.72	859.63
783.901	769.52
784.083	812.53
784.264	818.68
784.446	706.04
784.627	714.23
784.809	790
784.99	800.24
785.172	824.82
785.353	859.63
785.535	804.34
785.716	742.9
785.897	716.28
786.079	785.91
786.26	742.9
786.441	720.37
786.623	714.23
786.804	769.52
786.985	720.37
787.167	726.52
787.348	744.95
787.529	673.27
787.71	785.91
787.891	726.52
788.073	675.32
788.254	644.6
788.435	646.65
788.616	665.08
788.797	615.93
788.978	628.21
789.159	654.84
789.34	630.26
789.522	613.88
789.703	622.07
789.884	626.17
790.065	617.97
790.246	640.5
790.427	517.62
790.607	685.56
790.788	656.89
790.969	501.24
791.15	638.45
791.331	591.35
791.512	517.62
791.693	593.4
791.874	632.31
792.054	624.12
792.235	613.88
792.416	554.49
792.597	556.54
792.778	544.25
792.958	620.02
793.139	552.44
793.32	507.38
793.5	574.97
793.681	714.23
793.862	521.72
794.042	493.05
794.223	509.43
794.404	491
794.584	462.33
794.765	450.04
794.945	480.76
795.126	478.71
795.306	527.86
795.487	460.28
795.667	513.53
795.848	521.72
796.028	495.1
796.209	427.51
796.389	495.1
796.57	536.06
796.75	425.47
796.93	435.71
797.111	464.38
797.291	484.86
797.471	501.24
797.652	517.62
797.832	421.37
798.012	390.65
798.192	419.32
798.373	378.36
798.553	462.33
798.733	439.8
798.913	417.27
799.093	439.8
799.274	417.27
799.454	394.75
799.634	445.95
799.814	462.33
799.994	394.75
800.174	384.51
800.354	468.47
800.534	398.84
800.714	419.32
800.894	423.42
801.074	368.12
801.254	376.31
801.434	402.94
801.614	378.36
801.794	370.17
801.974	1148.4
802.154	427.51
802.334	384.51
802.514	321.02
802.693	378.36
802.873	318.97
803.053	480.76
803.233	378.36
803.413	355.83
803.592	361.98
803.772	323.07
803.952	376.31
804.131	300.54
804.311	321.02
804.491	370.17
804.67	345.59
804.85	450.04
805.03	423.42
805.209	433.66
805.389	364.03
805.568	261.63
805.748	335.35
805.928	431.61
806.107	433.66
806.287	316.92
806.466	423.42
806.646	333.31
806.825	355.83
807.004	286.2
807.184	335.35
807.363	302.59
807.543	347.64
807.722	351.74
807.901	339.45
808.081	271.87
808.26	218.62
808.439	259.58
808.619	386.55
808.798	347.64
808.977	286.2
809.156	386.55
809.336	318.97
809.515	372.22
809.694	278.01
809.873	220.67
810.052	278.01
810.231	368.12
810.411	224.76
810.59	398.84
810.769	292.35
810.948	298.49
811.127	202.24
811.306	296.44
811.485	292.35
811.664	288.25
811.843	292.35
812.022	251.39
812.201	235
812.38	312.83
812.559	167.42
812.737	247.29
812.916	239.1
813.095	200.19
813.274	235
813.453	222.72
813.632	278.01
813.811	228.86
813.989	175.61
814.168	204.28
814.347	226.81
814.526	261.63
814.704	337.4
814.883	333.31
815.062	251.39
815.24	292.35
815.419	173.57
815.598	185.85
815.776	239.1
815.955	249.34
816.133	112.13
816.312	235
816.49	249.34
816.669	267.77
816.847	230.91
817.026	224.76
817.204	206.33
817.383	222.72
817.561	210.43
817.74	267.77
817.918	300.54
818.097	157.18
818.275	120.32
818.453	185.85
818.632	288.25
818.81	243.2
818.988	226.81
819.167	253.44
819.345	241.15
819.523	146.94
819.701	228.86
819.879	243.2
820.058	237.05
820.236	214.52
820.414	257.53
820.592	179.71
820.77	237.05
820.948	241.15
821.127	126.46
821.305	228.86
821.483	230.91
821.661	327.16
821.839	235
822.017	157.18
822.195	198.14
822.373	345.59
822.551	179.71
822.729	185.85
822.907	181.76
823.085	151.04
823.262	220.67
823.44	189.95
823.618	146.94
823.796	83.45
823.974	171.52
824.152	167.42
824.329	148.99
824.507	189.95
824.685	130.56
824.863	136.7
825.04	218.62
825.218	224.76
825.396	116.22
825.574	222.72
825.751	165.37
825.929	108.03
826.107	165.37
826.284	255.48
826.462	161.28
826.639	171.52
826.817	124.41
826.994	206.33
827.172	120.32
827.349	159.23
827.527	208.38
827.704	134.65
827.882	130.56
828.059	237.05
828.237	173.57
828.414	232.96
828.591	81.41
828.769	91.65
828.946	163.33
829.124	114.17
829.301	185.85
829.478	87.55
829.655	163.33
829.833	159.23
830.01	103.93
830.187	124.41
830.364	77.31
830.542	181.76
830.719	167.42
830.896	122.37
831.073	142.85
831.25	212.48
831.427	185.85
831.604	105.98
831.782	85.5
831.959	99.84
832.136	83.45
832.313	99.84
832.49	138.75
832.667	116.22
832.844	151.04
833.021	169.47
833.198	202.24
833.374	167.42
833.551	151.04
833.728	142.85
833.905	192
834.082	81.41
834.259	97.79
834.436	173.57
834.612	110.08
834.789	108.03
834.966	132.61
835.143	179.71
835.319	75.26
835.496	114.17
835.673	122.37
835.85	157.18
836.026	163.33
836.203	161.28
836.38	118.27
836.556	101.89
836.733	116.22
836.909	144.89
837.086	103.93
837.262	101.89
837.439	60.93
837.616	97.79
837.792	112.13
837.968	192
838.145	40.45
838.321	81.41
838.498	89.6
838.674	146.94
838.851	130.56
839.027	142.85
839.203	44.54
839.38	148.99
839.556	73.21
839.732	200.19
839.909	134.65
840.085	67.07
840.261	114.17
840.437	97.79
840.614	46.59
840.79	157.18
840.966	122.37
841.142	48.64
841.318	105.98
841.494	132.61
841.671	101.89
841.847	138.75
842.023	89.6
842.199	105.98
842.375	118.27
842.551	42.5
842.727	151.04
842.903	134.65
843.079	-6.66
843.255	128.51
843.431	112.13
843.607	157.18
843.783	75.26
843.959	46.59
844.134	116.22
844.31	128.51
844.486	73.21
844.662	67.07
844.838	73.21
845.013	153.09
845.189	130.56
845.365	89.6
845.541	114.17
845.716	103.93
845.892	97.79
846.068	56.83
846.244	101.89
846.419	97.79
846.595	30.21
846.77	97.79
846.946	91.65
847.122	58.88
847.297	62.98
847.473	136.7
847.648	24.06
847.824	134.65
847.999	17.92
848.175	75.26
848.35	120.32
848.526	103.93
848.701	173.57
848.876	97.79
849.052	112.13
849.227	42.5
849.403	65.02
849.578	7.68
849.753	50.69
849.929	118.27
850.104	-2.56
850.279	138.75
850.454	38.4
850.63	83.45
850.805	60.93
850.98	71.17
851.155	108.03
851.33	48.64
851.505	81.41
851.681	132.61
851.856	22.02
852.031	50.69
852.206	54.78
852.381	79.36
852.556	22.02
852.731	122.37
852.906	54.78
853.081	42.5
853.256	200.19
853.431	-35.33
853.606	77.31
853.781	9.73
853.956	79.36
854.131	38.4
854.305	17.92
854.48	67.07
854.655	32.26
854.83	-31.23
855.005	71.17
855.18	95.74
855.354	32.26
855.529	93.69
855.704	28.16
855.879	138.75
856.053	67.07
856.228	95.74
856.403	42.5
856.577	151.04
856.752	-35.33
856.926	128.51
857.101	36.35
857.276	28.16
857.45	116.22
857.625	7.68
857.799	58.88
857.974	-16.9
858.148	-0.51
858.323	87.55
858.497	58.88
858.672	24.06
858.846	24.06
859.02	11.78
859.195	75.26
859.369	-23.04
859.543	85.5
859.718	81.41
859.892	-31.23
860.066	65.02
860.241	116.22
860.415	32.26
860.589	-33.28
860.763	81.41
860.938	-6.66
861.112	65.02
861.286	7.68
861.46	58.88
861.634	13.82
861.808	122.37
861.982	-29.18
862.157	11.78
862.331	87.55
862.505	-43.52
862.679	30.21
862.853	-8.7
863.027	38.4
863.201	73.21
863.375	1.54
863.549	101.89
863.722	179.71
863.896	83.45
864.07	36.35
864.244	-10.75
864.418	-23.04
864.592	42.5
864.766	44.54
864.939	77.31
865.113	44.54
865.287	108.03
865.461	58.88
865.634	60.93
865.808	-33.28
865.982	-2.56
866.156	24.06
866.329	58.88
866.503	-23.04
866.676	151.04
866.85	-25.09
867.024	19.97
867.197	36.35
867.371	71.17
867.544	24.06
867.718	-6.66
867.891	28.16
868.065	-2.56
868.238	3.58
868.412	73.21
868.585	-4.61
868.759	-4.61
868.932	38.4
869.105	-12.8
869.279	48.64
869.452	11.78
869.625	1.54
869.799	-4.61
869.972	26.11
870.145	-37.38
870.319	3.58
870.492	-6.66
870.665	-8.7
870.838	19.97
871.011	-18.94
871.185	28.16
871.358	44.54
871.531	79.36
871.704	3.58
871.877	60.93
872.05	7.68
872.223	-16.9
872.396	73.21
872.569	28.16
872.742	97.79
872.915	38.4
873.088	-55.81
873.261	112.13
873.434	73.21
873.607	56.83
873.78	71.17
873.953	-66.05
874.126	-27.14
874.299	54.78
874.471	3.58
874.644	-6.66
874.817	22.02
874.99	69.12
875.163	103.93
875.335	15.87
875.508	30.21
875.681	108.03
875.853	-59.9
876.026	28.16
876.199	52.74
876.371	-20.99
876.544	36.35
876.717	46.59
876.889	15.87
877.062	11.78
877.234	46.59
877.407	44.54
877.579	77.31
877.752	97.79
877.924	32.26
878.097	52.74
878.269	-10.75
878.442	114.17
878.614	19.97
878.786	60.93
878.959	-57.86
879.131	17.92
879.303	-14.85
879.476	48.64
879.648	38.4
879.82	54.78
879.993	28.16
880.165	36.35
880.337	-35.33
880.509	22.02
880.681	34.3
880.854	-20.99
881.026	32.26
881.198	85.5
881.37	71.17
881.542	65.02
881.714	-10.75
881.886	11.78
882.058	44.54
882.23	-10.75
882.402	9.73
882.574	26.11
882.746	73.21
882.918	91.65
883.09	1.54
883.262	56.83
883.434	-20.99
883.606	5.63
883.778	36.35
883.95	67.07
884.122	-47.62
884.293	91.65
884.465	85.5
884.637	7.68
884.809	81.41
884.98	-4.61
885.152	75.26
885.324	62.98
885.496	69.12
885.667	36.35
885.839	95.74
886.011	46.59
886.182	-10.75
886.354	15.87
886.525	1.54
886.697	91.65
886.869	-64
887.04	40.45
887.212	118.27
887.383	58.88
887.555	-4.61
887.726	-31.23
887.897	42.5
888.069	40.45
888.24	144.89
888.412	17.92
888.583	60.93
888.754	-6.66
888.926	-57.86
889.097	-51.71
889.268	3.58
889.44	7.68
889.611	-18.94
889.782	-45.57
889.953	34.3
890.125	114.17
890.296	-16.9
890.467	-18.94
890.638	44.54
890.809	5.63
890.98	-29.18
891.151	7.68
891.323	62.98
891.494	-16.9
891.665	-45.57
891.836	73.21
892.007	44.54
892.178	95.74
892.349	69.12
892.52	3.58
892.691	17.92
892.862	15.87
893.032	-14.85
893.203	-4.61
893.374	38.4
893.545	24.06
893.716	17.92
893.887	34.3
894.057	42.5
894.228	62.98
894.399	32.26
894.57	62.98
894.74	9.73
894.911	36.35
895.082	-4.61
895.253	-27.14
895.423	56.83
895.594	83.45
895.764	-23.04
895.935	40.45
896.106	71.17
896.276	-27.14
896.447	-8.7
896.617	1.54
896.788	-66.05
896.958	-16.9
897.129	3.58
897.299	28.16
897.47	75.26
897.64	-25.09
897.81	71.17
897.981	9.73
898.151	-55.81
898.322	48.64
898.492	-31.23
898.662	3.58
898.832	-35.33
899.003	48.64
899.173	-27.14
899.343	36.35
899.513	3.58
