Data from USB4F104151__24__12-23-33-367.txt Node

Date: Fri Mar 14 12:23:33 EDT 2025
User: louis
Spectrometer: USB4F10415
Trigger mode: 4
Integration Time (sec): 3.500000E-2
Scans to average: 1
Electric dark correction enabled: true
Nonlinearity correction enabled: false
Boxcar width: 0
XAxis mode: Wavelengths
Number of Pixels in Spectrum: 3648
>>>>>Begin Spectral Data<<<<<
178.204	-205.82
178.424	-205.82
178.644	-205.82
178.864	-168.96
179.084	-74.75
179.304	-15.36
179.524	44.03
179.744	-13.31
179.964	3.07
180.184	37.89
180.404	19.46
180.624	-1.02
180.844	19.46
181.064	-21.5
181.283	31.74
181.503	-66.56
181.723	-37.89
181.943	-19.46
182.163	78.85
182.383	76.8
182.602	68.61
182.822	37.89
183.042	87.04
183.262	33.79
183.482	50.18
183.701	-64.51
183.921	7.17
184.141	-3.07
184.361	64.51
184.58	46.08
184.8	68.61
185.02	-15.36
185.239	66.56
185.459	-9.22
185.679	48.13
185.898	-27.65
186.118	93.18
186.338	-19.46
186.557	-7.17
186.777	-21.5
186.997	72.7
187.216	-9.22
187.436	54.27
187.655	17.41
187.875	89.09
188.095	58.37
188.314	19.46
188.534	87.04
188.753	41.98
188.973	9.22
189.192	99.33
189.412	66.56
189.631	-7.17
189.851	1.02
190.07	31.74
190.29	-17.41
190.509	23.55
190.729	-15.36
190.948	101.37
191.168	160.77
191.387	25.6
191.607	-13.31
191.826	-33.79
192.045	78.85
192.265	-37.89
192.484	29.7
192.704	-41.98
192.923	-37.89
193.142	80.89
193.362	39.94
193.581	41.98
193.8	25.6
194.02	3.07
194.239	-23.55
194.458	-11.26
194.678	5.12
194.897	56.32
195.116	25.6
195.335	64.51
195.555	35.84
195.774	56.32
195.993	58.37
196.212	-5.12
196.432	-23.55
196.651	29.7
196.87	19.46
197.089	25.6
197.308	52.22
197.528	68.61
197.747	-5.12
197.966	7.17
198.185	31.74
198.404	48.13
198.623	78.85
198.842	103.42
199.062	9.22
199.281	48.13
199.5	9.22
199.719	46.08
199.938	19.46
200.157	-21.5
200.376	39.94
200.595	62.46
200.814	-15.36
201.033	78.85
201.252	121.85
201.471	54.27
201.69	58.37
201.909	52.22
202.128	-13.31
202.347	-25.6
202.566	-13.31
202.785	-33.79
203.004	-17.41
203.223	103.42
203.442	-1.02
203.661	31.74
203.879	41.98
204.098	72.7
204.317	5.12
204.536	105.47
204.755	29.7
204.974	25.6
205.193	29.7
205.411	58.37
205.63	-13.31
205.849	15.36
206.068	52.22
206.287	72.7
206.505	60.42
206.724	-64.51
206.943	23.55
207.162	62.46
207.381	-3.07
207.599	48.13
207.818	31.74
208.037	-50.18
208.255	-7.17
208.474	-46.08
208.693	5.12
208.911	19.46
209.13	44.03
209.349	48.13
209.567	89.09
209.786	44.03
210.005	-15.36
210.223	-11.26
210.442	-3.07
210.661	29.7
210.879	1.02
211.098	29.7
211.316	78.85
211.535	56.32
211.753	58.37
211.972	17.41
212.191	-25.6
212.409	-11.26
212.628	-7.17
212.846	-1.02
213.065	41.98
213.283	-41.98
213.502	-41.98
213.72	-3.07
213.938	60.42
214.157	23.55
214.375	-25.6
214.594	-11.26
214.812	-1.02
215.031	-9.22
215.249	9.22
215.467	-5.12
215.686	7.17
215.904	48.13
216.122	52.22
216.341	78.85
216.559	15.36
216.778	17.41
216.996	39.94
217.214	31.74
217.432	-13.31
217.651	17.41
217.869	78.85
218.087	-3.07
218.306	-11.26
218.524	87.04
218.742	-99.33
218.96	70.65
219.179	74.75
219.397	17.41
219.615	74.75
219.833	41.98
220.051	-25.6
220.27	111.61
220.488	46.08
220.706	72.7
220.924	3.07
221.142	48.13
221.36	-19.46
221.578	29.7
221.796	33.79
222.015	11.26
222.233	-37.89
222.451	62.46
222.669	23.55
222.887	74.75
223.105	37.89
223.323	23.55
223.541	29.7
223.759	78.85
223.977	23.55
224.195	99.33
224.413	35.84
224.631	39.94
224.849	74.75
225.067	93.18
225.285	5.12
225.503	27.65
225.721	-78.85
225.939	-7.17
226.157	66.56
226.375	1.02
226.592	31.74
226.81	7.17
227.028	15.36
227.246	113.66
227.464	1.02
227.682	41.98
227.9	64.51
228.117	99.33
228.335	25.6
228.553	-1.02
228.771	56.32
228.989	115.71
229.206	-1.02
229.424	-21.5
229.642	-50.18
229.86	-56.32
230.077	50.18
230.295	1.02
230.513	15.36
230.731	35.84
230.948	58.37
231.166	76.8
231.384	15.36
231.601	-15.36
231.819	50.18
232.037	-21.5
232.254	-44.03
232.472	-9.22
232.689	-35.84
232.907	72.7
233.125	35.84
233.342	39.94
233.56	39.94
233.777	-13.31
233.995	58.37
234.213	68.61
234.43	-1.02
234.648	15.36
234.865	76.8
235.083	-9.22
235.3	3.07
235.518	72.7
235.735	60.42
235.953	44.03
236.17	17.41
236.388	-1.02
236.605	44.03
236.822	7.17
237.04	87.04
237.257	44.03
237.475	64.51
237.692	52.22
237.909	35.84
238.127	1.02
238.344	-11.26
238.562	-41.98
238.779	-11.26
238.996	5.12
239.214	29.7
239.431	89.09
239.648	76.8
239.865	-31.74
240.083	29.7
240.3	-27.65
240.517	48.13
240.735	-64.51
240.952	95.23
241.169	48.13
241.386	64.51
241.603	-44.03
241.821	-35.84
242.038	103.42
242.255	78.85
242.472	-5.12
242.689	84.99
242.907	70.65
243.124	-27.65
243.341	1.02
243.558	-27.65
243.775	-9.22
243.992	-17.41
244.209	56.32
244.426	72.7
244.643	-27.65
244.86	58.37
245.078	13.31
245.295	-23.55
245.512	37.89
245.729	-9.22
245.946	62.46
246.163	48.13
246.38	9.22
246.597	11.26
246.814	50.18
247.031	-58.37
247.248	58.37
247.464	44.03
247.681	29.7
247.898	-56.32
248.115	84.99
248.332	-5.12
248.549	46.08
248.766	25.6
248.983	54.27
249.2	72.7
249.417	91.13
249.633	41.98
249.85	82.94
250.067	-7.17
250.284	-7.17
250.501	68.61
250.717	46.08
250.934	52.22
251.151	-70.65
251.368	56.32
251.585	54.27
251.801	15.36
252.018	13.31
252.235	37.89
252.451	23.55
252.668	-33.79
252.885	46.08
253.102	17.41
253.318	33.79
253.535	-56.32
253.752	33.79
253.968	70.65
254.185	-105.47
254.401	87.04
254.618	50.18
254.835	21.5
255.051	56.32
255.268	23.55
255.484	15.36
255.701	46.08
255.917	95.23
256.134	-19.46
256.351	60.42
256.567	-99.33
256.784	21.5
257	-25.6
257.217	-11.26
257.433	7.17
257.65	-19.46
257.866	44.03
258.082	66.56
258.299	-9.22
258.515	1.02
258.732	13.31
258.948	76.8
259.165	-13.31
259.381	15.36
259.597	52.22
259.814	37.89
260.03	17.41
260.246	-37.89
260.463	70.65
260.679	11.26
260.895	31.74
261.112	27.65
261.328	23.55
261.544	21.5
261.761	84.99
261.977	-44.03
262.193	23.55
262.409	1.02
262.626	-7.17
262.842	-23.55
263.058	-1.02
263.274	5.12
263.49	70.65
263.707	25.6
263.923	11.26
264.139	17.41
264.355	7.17
264.571	33.79
264.787	5.12
265.004	68.61
265.22	13.31
265.436	-15.36
265.652	9.22
265.868	66.56
266.084	-11.26
266.3	25.6
266.516	31.74
266.732	58.37
266.948	-11.26
267.164	23.55
267.38	-17.41
267.596	29.7
267.812	93.18
268.028	23.55
268.244	13.31
268.46	-19.46
268.676	15.36
268.892	27.65
269.108	1.02
269.324	3.07
269.54	11.26
269.756	-25.6
269.972	46.08
270.188	15.36
270.403	13.31
270.619	54.27
270.835	-3.07
271.051	93.18
271.267	-25.6
271.483	17.41
271.698	27.65
271.914	99.33
272.13	44.03
272.346	13.31
272.562	41.98
272.777	44.03
272.993	-15.36
273.209	62.46
273.425	-29.7
273.64	-23.55
273.856	89.09
274.072	23.55
274.287	15.36
274.503	31.74
274.719	-11.26
274.934	-7.17
275.15	84.99
275.366	64.51
275.581	1.02
275.797	-27.65
276.012	35.84
276.228	11.26
276.444	-9.22
276.659	35.84
276.875	-1.02
277.09	-29.7
277.306	-11.26
277.521	15.36
277.737	3.07
277.952	44.03
278.168	-5.12
278.383	5.12
278.599	29.7
278.814	54.27
279.03	68.61
279.245	80.89
279.461	15.36
279.676	27.65
279.892	-60.42
280.107	17.41
280.322	3.07
280.538	37.89
280.753	15.36
280.969	50.18
281.184	-66.56
281.399	19.46
281.615	62.46
281.83	70.65
282.045	-76.8
282.26	54.27
282.476	56.32
282.691	35.84
282.906	11.26
283.122	52.22
283.337	-70.65
283.552	74.75
283.767	27.65
283.983	66.56
284.198	35.84
284.413	76.8
284.628	-33.79
284.843	35.84
285.058	37.89
285.274	11.26
285.489	33.79
285.704	50.18
285.919	-35.84
286.134	-52.22
286.349	-17.41
286.564	80.89
286.779	117.76
286.995	48.13
287.21	3.07
287.425	70.65
287.64	17.41
287.855	84.99
288.07	-50.18
288.285	25.6
288.5	-7.17
288.715	25.6
288.93	39.94
289.145	58.37
289.36	117.76
289.575	-17.41
289.79	93.18
290.004	50.18
290.219	58.37
290.434	15.36
290.649	15.36
290.864	-41.98
291.079	31.74
291.294	31.74
291.509	-7.17
291.724	1.02
291.938	87.04
292.153	58.37
292.368	64.51
292.583	41.98
292.798	150.53
293.012	62.46
293.227	31.74
293.442	7.17
293.657	15.36
293.871	54.27
294.086	5.12
294.301	103.42
294.516	105.47
294.73	50.18
294.945	-33.79
295.16	70.65
295.374	70.65
295.589	44.03
295.804	-15.36
296.018	105.47
296.233	5.12
296.447	50.18
296.662	-87.04
296.877	23.55
297.091	17.41
297.306	27.65
297.52	37.89
297.735	138.24
297.949	35.84
298.164	101.37
298.378	-21.5
298.593	9.22
298.807	-23.55
299.022	74.75
299.236	60.42
299.451	60.42
299.665	7.17
299.88	3.07
300.094	-15.36
300.309	66.56
300.523	89.09
300.737	44.03
300.952	78.85
301.166	3.07
301.381	-29.7
301.595	-50.18
301.809	-1.02
302.024	-33.79
302.238	13.31
302.452	27.65
302.667	25.6
302.881	72.7
303.095	62.46
303.309	54.27
303.524	7.17
303.738	48.13
303.952	-27.65
304.166	17.41
304.381	-39.94
304.595	148.48
304.809	54.27
305.023	33.79
305.237	17.41
305.452	72.7
305.666	48.13
305.88	29.7
306.094	99.33
306.308	64.51
306.522	105.47
306.736	46.08
306.95	74.75
307.164	-3.07
307.379	-60.42
307.593	13.31
307.807	7.17
308.021	-48.13
308.235	37.89
308.449	27.65
308.663	56.32
308.877	5.12
309.091	56.32
309.305	91.13
309.519	-35.84
309.733	99.33
309.947	-11.26
310.161	21.5
310.374	97.28
310.588	17.41
310.802	-7.17
311.016	27.65
311.23	35.84
311.444	11.26
311.658	74.75
311.872	99.33
312.085	58.37
312.299	52.22
312.513	46.08
312.727	35.84
312.941	-11.26
313.154	21.5
313.368	99.33
313.582	72.7
313.796	-29.7
314.009	29.7
314.223	54.27
314.437	-15.36
314.651	31.74
314.864	23.55
315.078	60.42
315.292	3.07
315.505	11.26
315.719	7.17
315.933	-31.74
316.146	-44.03
316.36	-11.26
316.573	15.36
316.787	31.74
317.001	78.85
317.214	33.79
317.428	1.02
317.641	-52.22
317.855	-3.07
318.068	-13.31
318.282	33.79
318.495	144.38
318.709	52.22
318.922	-15.36
319.136	35.84
319.349	37.89
319.563	13.31
319.776	-48.13
319.99	33.79
320.203	66.56
320.417	109.57
320.63	52.22
320.843	-13.31
321.057	1.02
321.27	29.7
321.483	60.42
321.697	35.84
321.91	25.6
322.124	-41.98
322.337	35.84
322.55	33.79
322.763	87.04
322.977	-41.98
323.19	-21.5
323.403	27.65
323.617	19.46
323.83	70.65
324.043	19.46
324.256	17.41
324.469	3.07
324.683	87.04
324.896	5.12
325.109	-37.89
325.322	-50.18
325.535	19.46
325.748	23.55
325.962	1.02
326.175	66.56
326.388	74.75
326.601	80.89
326.814	-41.98
327.027	-33.79
327.24	140.29
327.453	-21.5
327.666	-17.41
327.879	82.94
328.092	35.84
328.305	-5.12
328.518	11.26
328.731	-31.74
328.944	-3.07
329.157	39.94
329.37	7.17
329.583	101.37
329.796	58.37
330.009	-9.22
330.222	89.09
330.435	76.8
330.648	-17.41
330.861	56.32
331.073	-58.37
331.286	54.27
331.499	29.7
331.712	-3.07
331.925	-15.36
332.138	-25.6
332.35	25.6
332.563	-41.98
332.776	-21.5
332.989	-13.31
333.202	27.65
333.414	-21.5
333.627	33.79
333.84	15.36
334.053	72.7
334.265	-46.08
334.478	37.89
334.691	46.08
334.903	19.46
335.116	-37.89
335.329	56.32
335.541	-11.26
335.754	31.74
335.966	-29.7
336.179	-9.22
336.392	-50.18
336.604	54.27
336.817	-9.22
337.029	-21.5
337.242	97.28
337.454	64.51
337.667	-3.07
337.88	95.23
338.092	66.56
338.305	91.13
338.517	-52.22
338.729	58.37
338.942	54.27
339.154	37.89
339.367	-35.84
339.579	58.37
339.792	-15.36
340.004	60.42
340.217	87.04
340.429	97.28
340.641	-37.89
340.854	44.03
341.066	11.26
341.278	33.79
341.491	66.56
341.703	39.94
341.915	23.55
342.128	72.7
342.34	33.79
342.552	37.89
342.764	31.74
342.977	74.75
343.189	91.13
343.401	7.17
343.613	-41.98
343.826	13.31
344.038	15.36
344.25	72.7
344.462	-15.36
344.674	23.55
344.886	23.55
345.099	48.13
345.311	60.42
345.523	21.5
345.735	-44.03
345.947	68.61
346.159	52.22
346.371	-9.22
346.583	17.41
346.795	121.85
347.007	44.03
347.219	3.07
347.431	-41.98
347.643	72.7
347.855	19.46
348.067	97.28
348.279	23.55
348.491	44.03
348.703	5.12
348.915	1.02
349.127	33.79
349.339	33.79
349.551	-9.22
349.763	87.04
349.975	87.04
350.187	35.84
350.399	11.26
350.61	54.27
350.822	5.12
351.034	7.17
351.246	84.99
351.458	-9.22
351.669	44.03
351.881	91.13
352.093	109.57
352.305	25.6
352.517	3.07
352.728	58.37
352.94	31.74
353.152	31.74
353.363	50.18
353.575	46.08
353.787	58.37
353.999	3.07
354.21	66.56
354.422	1.02
354.633	-41.98
354.845	99.33
355.057	13.31
355.268	33.79
355.48	13.31
355.692	46.08
355.903	-9.22
356.115	50.18
356.326	-13.31
356.538	138.24
356.749	50.18
356.961	97.28
357.172	-19.46
357.384	-23.55
357.595	31.74
357.807	7.17
358.018	17.41
358.23	48.13
358.441	70.65
358.653	54.27
358.864	56.32
359.075	21.5
359.287	23.55
359.498	128
359.709	-41.98
359.921	70.65
360.132	-31.74
360.344	19.46
360.555	13.31
360.766	19.46
360.977	1.02
361.189	80.89
361.4	-11.26
361.611	117.76
361.823	113.66
362.034	37.89
362.245	-48.13
362.456	9.22
362.667	89.09
362.879	23.55
363.09	56.32
363.301	7.17
363.512	56.32
363.723	54.27
363.935	-29.7
364.146	144.38
364.357	52.22
364.568	52.22
364.779	1.02
364.99	72.7
365.201	-74.75
365.412	87.04
365.623	-62.46
365.834	68.61
366.045	11.26
366.256	15.36
366.467	11.26
366.678	50.18
366.889	52.22
367.1	76.8
367.311	13.31
367.522	54.27
367.733	64.51
367.944	64.51
368.155	-9.22
368.366	23.55
368.577	78.85
368.788	33.79
368.999	-60.42
369.209	-9.22
369.42	128
369.631	25.6
369.842	29.7
370.053	128
370.264	97.28
370.474	15.36
370.685	33.79
370.896	37.89
371.107	-15.36
371.317	111.61
371.528	82.94
371.739	72.7
371.95	52.22
372.16	107.52
372.371	25.6
372.582	-9.22
372.792	-72.7
373.003	17.41
373.214	23.55
373.424	-37.89
373.635	29.7
373.846	50.18
374.056	58.37
374.267	91.13
374.477	119.81
374.688	52.22
374.898	17.41
375.109	80.89
375.319	60.42
375.53	62.46
375.74	60.42
375.951	48.13
376.161	29.7
376.372	44.03
376.582	11.26
376.793	15.36
377.003	48.13
377.214	3.07
377.424	17.41
377.635	25.6
377.845	54.27
378.055	70.65
378.266	76.8
378.476	23.55
378.686	80.89
378.897	35.84
379.107	44.03
379.317	11.26
379.528	29.7
379.738	52.22
379.948	-7.17
380.158	58.37
380.369	-5.12
380.579	9.22
380.789	-9.22
380.999	87.04
381.21	91.13
381.42	160.77
381.63	-46.08
381.84	87.04
382.05	46.08
382.261	76.8
382.471	103.42
382.681	-19.46
382.891	111.61
383.101	78.85
383.311	-1.02
383.521	19.46
383.731	107.52
383.941	107.52
384.151	7.17
384.361	-1.02
384.571	144.38
384.781	25.6
384.991	97.28
385.201	93.18
385.411	-41.98
385.621	39.94
385.831	13.31
386.041	48.13
386.251	68.61
386.461	7.17
386.671	74.75
386.881	64.51
387.091	11.26
387.301	25.6
387.511	-15.36
387.72	3.07
387.93	68.61
388.14	-33.79
388.35	89.09
388.56	138.24
388.769	132.09
388.979	17.41
389.189	7.17
389.399	60.42
389.609	95.23
389.818	78.85
390.028	35.84
390.238	68.61
390.447	39.94
390.657	3.07
390.867	9.22
391.076	-97.28
391.286	111.61
391.496	39.94
391.705	37.89
391.915	113.66
392.125	9.22
392.334	29.7
392.544	33.79
392.753	56.32
392.963	-1.02
393.172	60.42
393.382	-9.22
393.591	109.57
393.801	68.61
394.01	121.85
394.22	70.65
394.429	9.22
394.639	31.74
394.848	39.94
395.058	52.22
395.267	80.89
395.477	109.57
395.686	80.89
395.895	91.13
396.105	121.85
396.314	23.55
396.524	95.23
396.733	-9.22
396.942	125.95
397.152	119.81
397.361	146.43
397.57	150.53
397.78	72.7
397.989	29.7
398.198	171.01
398.407	68.61
398.617	1.02
398.826	93.18
399.035	113.66
399.244	80.89
399.453	62.46
399.663	5.12
399.872	52.22
400.081	76.8
400.29	93.18
400.499	19.46
400.708	44.03
400.917	46.08
401.127	62.46
401.336	95.23
401.545	119.81
401.754	97.28
401.963	74.75
402.172	39.94
402.381	93.18
402.59	123.9
402.799	117.76
403.008	17.41
403.217	95.23
403.426	44.03
403.635	101.37
403.844	107.52
404.053	39.94
404.262	82.94
404.471	123.9
404.68	121.85
404.888	146.43
405.097	60.42
405.306	132.09
405.515	195.58
405.724	148.48
405.933	152.57
406.142	91.13
406.35	119.81
406.559	109.57
406.768	132.09
406.977	117.76
407.185	125.95
407.394	144.38
407.603	31.74
407.812	115.71
408.02	197.63
408.229	80.89
408.438	171.01
408.646	195.58
408.855	171.01
409.064	193.53
409.272	234.49
409.481	179.2
409.69	201.72
409.898	254.97
410.107	261.12
410.315	224.25
410.524	226.3
410.733	242.68
410.941	197.63
411.15	287.74
411.358	271.36
411.567	383.99
411.775	332.79
411.984	244.73
412.192	334.84
412.401	279.55
412.609	336.89
412.818	365.56
413.026	367.61
413.234	355.32
413.443	359.42
413.651	371.71
413.86	363.51
414.068	447.48
414.276	429.05
414.485	502.78
414.693	498.68
414.901	613.37
415.11	537.59
415.318	525.3
415.526	463.86
415.734	547.83
415.943	558.07
416.151	689.14
416.359	576.5
416.567	609.27
416.776	666.61
416.984	783.35
417.192	642.04
417.4	736.24
417.608	635.89
417.817	728.05
418.025	766.96
418.233	928.75
418.441	895.99
418.649	846.84
418.857	877.55
419.065	1006.58
419.273	982
419.481	1010.67
419.689	1037.3
419.897	1016.82
420.105	1199.09
420.313	1184.75
420.521	1233.9
420.729	1285.1
420.937	1164.27
421.145	1332.2
421.353	1428.46
421.561	1438.7
421.769	1477.61
421.977	1471.47
422.185	1453.03
422.393	1678.31
422.601	1688.55
422.809	1733.61
423.017	1778.66
423.224	1721.32
423.432	1897.44
423.64	1905.63
423.848	2145.25
424.056	1997.79
424.263	2169.82
424.471	2188.25
424.679	2182.11
424.887	2384.86
425.094	2378.72
425.302	2376.67
425.51	2575.32
425.718	2601.94
425.925	2692.05
426.133	2794.45
426.341	2939.86
426.548	2825.17
426.756	2966.48
426.964	3075.03
427.171	3214.29
427.379	3179.47
427.586	3417.04
427.794	3326.93
428.001	3584.97
428.209	3763.14
428.417	3744.71
428.624	3986.37
428.832	3888.07
429.039	3941.32
429.247	4012.99
429.454	4369.34
429.662	4539.32
429.869	4256.7
430.076	4447.16
430.284	4402.11
430.491	4797.37
430.699	4899.77
430.906	4899.77
431.114	4996.02
431.321	5139.38
431.528	5309.36
431.736	5686.19
431.943	5864.36
432.15	5645.23
432.358	5862.31
432.565	6110.11
432.772	6224.8
432.979	6386.59
433.187	6448.03
433.394	6513.56
433.601	6910.87
433.808	7011.22
434.016	6935.45
434.223	7170.96
434.43	7660.43
434.637	7590.8
434.844	8039.3
435.052	8276.87
435.259	8131.46
435.466	8004.49
435.673	7992.2
435.88	8620.92
436.087	9274.23
436.294	9048.95
436.501	8829.82
436.708	9227.12
436.915	9433.97
437.122	9784.17
437.329	9812.84
437.537	10087.27
437.743	10201.96
437.95	10140.52
438.157	10658.65
438.364	11076.44
438.571	11076.44
438.778	11058.01
438.985	12219.21
439.192	11920.2
439.399	11975.5
439.606	11717.45
439.813	12403.52
440.02	13224.76
440.227	12991.29
440.433	12745.53
440.64	13368.12
440.847	13280.05
441.054	13538.1
441.261	14576.42
441.467	14373.67
441.674	14486.31
441.881	15012.63
442.088	15076.12
442.294	15002.4
442.501	15368.98
442.708	15756.05
442.914	16401.16
443.121	16909.05
443.328	16565
443.534	17801.97
443.741	17144.57
443.948	16956.16
444.154	18318.06
444.361	18189.03
444.568	18133.74
444.774	18350.82
444.981	18479.85
445.187	19018.46
445.394	19991.25
445.6	19649.24
445.807	21400.25
446.013	20230.86
446.22	20826.82
446.426	21648.05
446.633	21994.16
446.839	22645.41
447.046	21902
447.252	23231.13
447.459	23343.77
447.665	23014.05
447.871	24027.79
448.078	25369.21
448.284	23884.44
448.491	24308.37
448.697	25416.32
448.903	25858.68
449.11	25674.36
449.316	25410.17
449.522	25823.86
449.728	26487.4
449.935	26892.9
450.141	26759.78
450.347	27634.27
450.553	26804.84
450.76	26952.29
450.966	28105.3
451.172	27650.65
451.378	28090.96
451.584	27757.14
451.791	28389.97
451.997	27892.31
452.203	28826.18
452.409	28742.22
452.615	28688.97
452.821	27363.93
453.027	27107.94
453.233	28799.56
453.44	27435.61
453.646	27882.07
453.852	27859.54
454.058	28332.62
454.264	27419.23
454.47	28224.08
454.676	27464.28
454.882	28273.23
455.088	26008.18
455.294	26247.79
455.5	26563.18
455.705	26802.79
455.911	25997.94
456.117	25227.9
456.323	25244.29
456.529	23782.04
456.735	24593.03
456.941	23868.05
457.147	23679.64
457.352	22999.71
457.558	22604.46
457.764	22874.79
457.97	22424.23
458.176	21719.73
458.381	21510.84
458.587	20658.88
458.793	20447.94
458.999	19677.91
459.204	20683.46
459.41	20464.33
459.616	19104.48
459.821	19016.41
460.027	19018.46
460.233	18494.18
460.438	17531.64
460.644	17548.02
460.85	16982.78
461.055	16663.3
461.261	16741.12
461.466	15698.7
461.672	14867.23
461.878	16126.73
462.083	14910.24
462.289	14783.26
462.494	14369.57
462.7	13783.85
462.905	13466.42
463.111	13845.29
463.316	14072.62
463.522	13830.96
463.727	13759.28
463.932	13886.25
464.138	13773.61
464.343	13568.82
464.549	13257.53
464.754	13718.32
464.959	13800.24
465.165	13523.76
465.37	12852.03
465.575	12606.27
465.781	13341.49
465.986	13157.18
466.191	12620.61
466.397	12438.34
466.602	11887.43
466.807	12206.92
467.012	12284.74
467.218	12266.31
467.423	11924.3
467.628	12303.17
467.833	12794.68
468.038	12217.16
468.244	11991.88
468.449	12340.04
468.654	11936.59
468.859	11549.52
469.064	11658.06
469.269	11268.95
469.474	11154.26
469.679	11580.24
469.885	11334.48
470.09	11518.8
470.295	11502.42
470.5	11129.69
470.705	10978.14
470.91	10851.16
471.115	10738.52
471.32	11031.38
471.525	10799.96
471.73	10666.85
471.935	10607.45
472.139	10201.96
472.344	10183.52
472.549	10281.83
472.754	10077.03
472.959	9778.03
473.164	9640.81
473.369	9864.04
473.574	10117.99
473.778	9896.81
473.983	9851.75
474.188	9569.13
474.393	9165.68
474.598	9284.47
474.802	9313.14
475.007	9249.65
475.212	9266.03
475.417	8995.7
475.621	8899.45
475.826	8928.12
476.031	8641.4
476.235	8563.58
476.44	8682.36
476.645	8485.76
476.849	8455.04
477.054	8498.05
477.259	8207.23
477.463	8469.37
477.668	7984.01
477.872	8067.97
478.077	7902.09
478.282	7857.03
478.486	7836.55
478.691	7685
478.895	7773.07
479.1	7758.73
479.304	7807.88
479.509	7447.44
479.713	7705.48
479.918	7359.38
480.122	7410.57
480.326	7474.06
480.531	7461.77
480.735	7371.66
480.94	7238.55
481.144	7498.64
481.348	7232.4
481.553	7244.69
481.757	7299.98
481.961	7121.81
482.166	7345.04
482.37	6986.65
482.574	7144.34
482.778	7150.48
482.983	7265.17
483.187	7322.51
483.391	7177.11
483.595	6976.41
483.8	6992.79
484.004	7277.46
484.208	7160.72
484.412	7105.43
484.616	7183.25
484.821	7082.9
485.025	6953.88
485.229	7089.04
485.433	7103.38
485.637	7216.02
485.841	7134.1
486.045	7091.09
486.249	6962.07
486.453	7123.86
486.657	7021.46
486.861	7029.65
487.065	6962.07
487.269	6914.97
487.473	7015.32
487.677	7101.33
487.881	7160.72
488.085	7175.06
488.289	7402.38
488.493	7197.59
488.697	7242.64
488.901	7228.31
489.105	6976.41
489.309	7285.65
489.512	7248.79
489.716	7115.67
489.92	7322.51
490.124	7367.57
490.328	7228.31
490.531	7299.98
490.735	7422.86
490.939	7467.92
491.143	7097.24
491.346	7107.48
491.55	7453.58
491.754	7402.38
491.958	7383.95
492.161	7353.23
492.365	7586.7
492.569	7545.74
492.772	7517.07
492.976	7570.32
493.18	7682.95
493.383	7652.24
493.587	7783.31
493.79	7814.02
493.994	7652.24
494.197	8000.39
494.401	8102.79
494.605	7947.14
494.808	7848.84
495.012	8045.45
495.215	8172.42
495.419	8229.76
495.622	8147.84
495.825	8295.3
496.029	8240
496.232	8563.58
496.436	8403.84
496.639	8661.88
496.843	8584.06
497.046	8602.49
497.249	8936.31
497.453	8870.78
497.656	8895.35
497.859	8971.13
498.063	9188.21
498.266	9239.41
498.469	9083.77
498.673	9300.85
498.876	9630.57
499.079	9775.98
499.282	9778.03
499.485	9775.98
499.689	10036.07
499.892	10234.72
500.095	10113.89
500.298	10300.26
500.501	10353.51
500.705	10648.41
500.908	10666.85
501.111	10771.29
501.314	11105.11
501.517	10978.14
501.72	11045.72
501.923	11092.82
502.126	11389.78
502.329	11660.11
502.532	11711.31
502.735	11694.93
502.938	11897.67
503.141	11973.45
503.344	12081.99
503.547	12270.4
503.75	12358.47
503.953	12821.31
504.156	12614.46
504.359	12929.85
504.562	13001.53
504.765	13232.95
504.968	13054.78
505.17	13523.76
505.373	13480.75
505.576	13669.17
505.779	14084.91
505.982	13966.12
506.185	14291.75
506.387	14486.31
506.59	14629.66
506.793	14557.99
506.996	14732.06
507.198	15264.54
507.401	15041.31
507.604	15463.19
507.807	15440.66
508.009	15481.62
508.212	15751.95
508.415	15966.99
508.617	16007.95
508.82	16319.24
509.022	16446.21
509.225	16855.81
509.428	16675.59
509.63	17050.36
509.833	17124.09
510.035	17543.92
510.238	17326.84
510.44	17621.75
510.643	18064.11
510.845	18242.28
511.048	17820.4
511.25	18434.79
511.453	18385.64
511.655	19399.38
511.858	19040.99
512.06	19127
512.262	19438.3
512.465	19446.49
512.667	19696.34
512.87	20064.97
513.072	20331.21
513.274	20554.44
513.477	20685.51
513.679	21088.96
513.881	21111.49
514.084	21385.91
514.286	21420.73
514.488	21603
514.69	21912.24
514.893	22184.62
515.095	22059.7
515.297	22620.84
515.499	22653.61
515.701	23108.26
515.904	23233.18
516.106	23421.59
516.308	23585.43
516.51	24132.24
516.712	24261.26
516.914	24523.4
517.116	24953.48
517.318	25121.41
517.52	25221.76
517.722	25477.76
517.925	25895.54
518.127	26038.9
518.329	26524.27
518.531	26231.41
518.733	27003.49
518.935	27189.86
519.136	27013.73
519.338	27374.17
519.54	27697.75
519.742	27791.96
519.944	28009.04
520.146	28701.26
520.348	28770.89
520.55	28619.34
520.752	28676.68
520.954	29610.56
521.155	29172.29
521.357	29719.1
521.559	30034.49
521.761	30659.12
521.963	30700.08
522.164	30376.5
522.366	30712.36
522.568	31326.75
522.77	31029.8
522.971	32215.57
523.173	31687.2
523.375	32174.61
523.576	32203.28
523.778	31912.47
523.98	32862.73
524.181	33182.21
524.383	33255.94
524.584	33362.43
524.786	33886.71
524.988	33597.95
525.189	33989.11
525.391	34009.59
525.592	34634.22
525.794	34443.76
525.995	34767.34
526.197	34765.29
526.398	35308.01
526.6	35164.65
526.801	35318.25
527.003	35789.28
527.204	35523.04
527.406	35764.7
527.607	35934.68
527.808	36334.04
528.01	35955.16
528.211	36309.46
528.412	37259.72
528.614	37181.9
528.815	37128.65
529.016	37056.97
529.218	36717.01
529.419	36938.19
529.62	37134.79
529.822	37085.64
530.023	37544.39
530.224	37593.54
530.425	37695.94
530.626	37360.07
530.828	37384.65
531.029	38302.14
531.23	37839.29
531.431	37956.03
531.632	38242.74
531.833	37974.46
532.035	38439.35
532.236	38062.52
532.437	38177.21
532.638	38351.29
532.839	38320.57
533.04	38867.37
533.241	37943.74
533.442	39117.23
533.643	38810.03
533.844	38711.73
534.045	38920.62
534.246	38357.43
534.447	38769.07
534.648	38523.32
534.849	39002.54
535.05	38523.32
535.251	38990.25
535.451	39250.35
535.652	39319.98
535.853	38871.47
536.054	39106.99
536.255	38855.09
536.456	38906.29
536.657	39457.19
536.857	39287.21
537.058	39068.08
537.259	39399.85
537.46	39174.57
537.66	39164.33
537.861	39213.48
538.062	39104.94
538.263	39096.75
538.463	39137.71
538.664	39068.08
538.865	39082.41
539.065	39360.94
539.266	39203.24
539.466	39129.51
539.667	38738.35
539.868	39436.71
540.068	39252.39
540.269	39094.7
540.469	39260.58
540.67	38955.44
540.87	39311.78
541.071	39295.4
541.271	39340.46
541.472	39223.72
541.672	39256.49
541.873	38891.95
542.073	38539.7
542.274	39692.71
542.474	39033.26
542.675	38873.52
542.875	39104.94
543.075	38932.91
543.276	38609.33
543.476	39555.49
543.676	38715.83
543.877	39266.73
544.077	39145.9
544.277	39156.14
544.478	38988.21
544.678	39297.45
544.878	38973.87
545.078	39461.29
545.279	38887.85
545.479	38965.68
545.679	39025.07
545.879	39137.71
546.079	38900.14
546.28	38980.01
546.48	38316.47
546.68	38998.44
546.88	39020.97
547.08	38955.44
547.28	38984.11
547.48	38681.01
547.68	39229.87
547.88	38539.7
548.081	38986.16
548.281	38627.76
548.481	38795.7
548.681	39508.39
548.881	39008.68
549.081	38744.5
549.28	38662.58
549.48	38904.24
549.68	38715.83
549.88	39225.77
550.08	38697.39
550.28	38914.48
550.48	38150.59
550.68	38648.24
550.88	38236.6
551.08	38439.35
551.279	38531.51
551.479	38498.74
551.679	38599.09
551.879	38404.53
552.079	38631.86
552.278	38482.36
552.478	38521.27
552.678	39092.65
552.878	38961.58
553.077	38259.13
553.277	38046.14
553.477	39033.26
553.676	38103.48
553.876	38156.73
554.076	38101.43
554.275	38560.18
554.475	38029.76
554.674	38730.16
554.874	37937.6
555.074	37988.8
555.273	38289.85
555.473	38441.4
555.672	37994.94
555.872	38042.04
556.071	38060.48
556.271	38408.63
556.47	37956.03
556.67	37628.35
556.869	37755.33
557.068	37855.68
557.268	37734.85
557.467	37556.67
557.667	38027.71
557.866	37497.28
558.065	37323.21
558.265	37190.09
558.464	37245.38
558.663	37904.83
558.863	37042.63
559.062	37495.24
559.261	37118.41
559.461	37614.02
559.66	36690.38
559.859	37130.7
560.058	36827.6
560.258	36895.18
560.457	36454.87
560.656	37329.35
560.855	36721.1
561.054	36975.05
561.253	36418
561.453	36612.56
561.652	36821.45
561.851	36745.68
562.05	36170.2
562.249	35959.26
562.448	36469.2
562.647	36168.15
562.846	36057.56
563.045	36184.54
563.244	35801.57
563.443	35965.4
563.642	35166.7
563.841	35940.83
564.04	35203.56
564.239	35885.53
564.438	35172.84
564.637	35580.39
564.836	35662.3
565.035	34820.59
565.234	35152.36
565.432	35041.77
565.631	34851.31
565.83	34707.95
566.029	34849.26
566.228	34355.7
566.427	34423.28
566.625	34255.35
566.824	34048.5
567.023	34142.71
567.222	33462.79
567.42	34208.25
567.619	33925.63
567.818	34124.28
568.016	33663.49
568.215	33743.36
568.414	33227.27
568.612	33487.36
568.811	33591.81
569.01	33229.32
569.208	32850.44
569.407	33382.91
569.605	32571.92
569.804	33296.9
570.002	32662.03
570.201	32885.26
570.4	32363.03
570.598	32188.95
570.797	32291.35
570.995	32723.47
571.193	31631.9
571.392	32375.31
571.59	31935
571.789	31844.89
571.987	31588.89
572.186	31443.49
572.384	31496.74
572.582	31795.74
572.781	31539.74
572.979	30749.23
573.177	31144.48
573.376	31177.25
573.574	30804.52
573.772	31183.4
573.971	30372.4
574.169	30620.2
574.367	30480.94
574.565	30544.43
574.763	30476.85
574.962	30218.8
575.16	30050.87
575.358	30052.92
575.556	29428.29
575.754	29891.13
575.952	29676.09
576.151	29868.6
576.349	29422.14
576.547	29499.97
576.745	29317.7
576.943	29471.29
577.141	29356.61
577.339	29401.66
577.537	29108.8
577.735	28918.34
577.933	28955.21
578.131	29084.23
578.329	28760.65
578.527	28387.92
578.725	28754.51
578.923	28570.19
579.121	28207.7
579.319	28588.62
579.516	28265.04
579.714	28363.34
579.912	28107.35
580.11	27761.24
580.308	27851.35
580.506	27707.99
580.704	27034.21
580.901	27779.67
581.099	27519.58
581.297	27574.88
581.495	27208.29
581.692	27462.24
581.89	26935.91
582.088	27339.36
582.285	27185.76
582.483	27198.05
582.681	26673.77
582.878	26782.31
583.076	26507.88
583.274	26874.47
583.471	26546.79
583.669	26419.82
583.866	26276.46
584.064	26370.67
584.262	26198.64
584.459	26055.28
584.657	25963.12
584.854	26290.8
585.052	25580.15
585.249	26051.19
585.447	25926.26
585.644	25315.97
585.841	25920.12
586.039	26042.99
586.236	25660.02
586.434	25272.96
586.631	25080.45
586.828	25029.25
587.026	25119.36
587.223	25049.73
587.42	25059.97
587.618	24986.24
587.815	24570.51
588.012	24900.23
588.21	24287.89
588.407	24779.4
588.604	24756.87
588.801	24500.87
588.999	24441.48
589.196	24314.51
589.393	24433.29
589.59	24113.81
589.787	23921.3
589.984	23790.23
590.182	23870.1
590.379	23954.07
590.576	23788.18
590.773	23855.76
590.97	23452.31
591.167	23739.03
591.364	23401.11
591.561	23181.98
591.758	23491.23
591.955	23063.2
592.152	23564.95
592.349	22786.72
592.546	23141.02
592.743	23257.76
592.94	23001.76
593.137	22985.38
593.334	23108.26
593.531	22483.62
593.727	22774.44
593.924	22588.07
594.121	22409.9
594.318	22485.67
594.515	22497.96
594.712	22538.92
594.908	22293.16
595.105	22166.19
595.302	22037.17
595.499	22262.44
595.696	21703.35
595.892	22018.74
596.089	22022.83
596.286	21838.51
596.482	21953.2
596.679	21449.4
596.876	21791.41
597.072	21574.33
597.269	21394.11
597.466	21521.08
597.662	21340.86
597.859	21310.14
598.055	21195.45
598.252	21142.21
598.448	20859.59
598.645	21013.18
598.841	20806.34
599.038	20753.09
599.234	20740.8
599.431	20607.69
599.627	20507.34
599.824	20562.63
600.02	20619.97
600.217	20665.03
600.413	20214.48
600.609	20245.2
600.806	20425.42
601.002	20200.14
601.198	20087.5
601.395	19989.2
601.591	20001.49
601.787	19964.62
601.984	20103.89
602.18	20212.43
602.376	19696.34
602.572	19634.9
602.769	19694.29
602.965	19239.64
603.161	19854.03
603.357	19657.43
603.553	19477.21
603.75	19409.62
603.946	19426.01
604.142	19430.1
604.338	19141.34
604.534	19100.38
604.73	18758.37
604.926	18897.63
605.122	18985.69
605.318	18852.58
605.514	18932.45
605.71	18760.42
605.906	18723.55
606.102	18723.55
606.298	18844.38
606.494	18582.24
606.69	18526.95
606.886	18698.98
607.082	18074.35
607.278	18502.37
607.474	18041.58
607.67	18254.57
607.866	18098.92
608.062	18428.65
608.257	17830.64
608.453	18135.79
608.649	18148.08
608.845	17799.92
609.041	17984.24
609.236	17875.7
609.432	17652.47
609.628	17828.59
609.824	17672.95
610.019	17709.81
610.215	17775.34
610.411	17603.32
610.606	17517.3
610.802	17494.77
610.998	17773.3
611.193	17285.88
611.389	17179.39
611.584	17357.56
611.78	17013.5
611.976	17085.18
612.171	17201.91
612.367	17253.11
612.562	17058.56
612.758	16802.56
612.953	16675.59
613.149	17074.94
613.344	16939.77
613.539	17191.67
613.735	17097.47
613.93	16808.7
614.126	16896.77
614.321	17220.35
614.517	16741.12
614.712	16466.69
614.907	16636.67
615.103	16597.76
615.298	16425.73
615.493	16861.95
615.688	16292.62
615.884	16788.22
616.079	16407.3
616.274	16442.12
616.47	16356.1
616.665	16409.35
616.86	16386.82
617.055	16184.07
617.25	16169.74
617.445	16259.85
617.641	15514.39
617.836	16360.2
618.031	15829.77
618.226	16044.81
618.421	15848.21
618.616	15885.07
618.811	15665.94
619.006	15893.26
619.201	15522.58
619.396	15702.8
619.591	15244.06
619.786	15586.07
619.981	14949.15
620.176	15489.81
620.371	15233.82
620.566	15239.96
620.761	15135.51
620.956	15221.53
621.151	15266.58
621.346	15037.21
621.541	14897.95
621.735	15053.59
621.93	14547.75
622.125	14832.41
622.32	14791.45
622.515	14379.81
622.709	14531.36
622.904	14412.58
623.099	14222.12
623.294	14215.98
623.488	14111.53
623.683	14076.71
623.878	13833
624.072	14027.56
624.267	13900.59
624.462	13865.77
624.656	13873.96
624.851	13579.06
625.046	13790
625.24	13581.1
625.435	13349.68
625.629	13333.3
625.824	13245.24
626.018	13357.88
626.213	12976.95
626.407	13189.94
626.602	12999.48
626.796	13058.87
626.991	12880.7
627.185	12825.4
627.38	12516.16
627.574	12753.73
627.768	12743.49
627.963	12387.14
628.157	12331.84
628.352	12335.94
628.546	11952.97
628.74	12475.2
628.935	12251.97
629.129	12043.08
629.323	11950.92
629.517	11995.98
629.712	11901.77
629.906	11680.59
630.1	11713.36
630.294	11664.21
630.489	11752.27
630.683	11535.18
630.877	11336.53
631.071	11295.57
631.265	11533.14
631.459	11350.87
631.653	11381.59
631.848	11219.8
632.042	11221.84
632.236	11258.71
632.43	11098.97
632.624	10826.59
632.818	10910.55
633.012	10976.09
633.206	10599.26
633.4	10857.31
633.594	10593.12
633.788	10765.15
633.982	10763.1
634.176	10802.01
634.369	10617.69
634.563	10480.48
634.757	10259.3
634.951	10408.8
635.145	10400.61
635.339	10283.88
635.533	10382.18
635.726	10230.63
635.92	9833.32
636.114	9907.05
636.308	10005.35
636.501	10056.55
636.695	9915.24
636.889	9689.96
637.083	9679.72
637.276	9796.46
637.47	9560.94
637.664	9517.93
637.857	9456.5
638.051	9542.51
638.244	9417.58
638.438	9431.92
638.632	9335.67
638.825	9315.19
639.019	9491.31
639.212	9194.36
639.406	9274.23
639.599	9149.3
639.793	9069.43
639.986	8909.69
640.18	8921.98
640.373	8903.54
640.567	8801.15
640.76	8776.57
640.954	8672.12
641.147	8645.5
641.34	8616.83
641.534	8588.16
641.727	8549.25
641.92	8485.76
642.114	8379.26
642.307	8381.31
642.5	8510.33
642.694	8209.28
642.887	8272.77
643.08	8145.8
643.273	8225.67
643.467	8135.56
643.66	8029.06
643.853	7986.05
644.046	7912.33
644.239	8104.84
644.432	7865.22
644.626	7687.05
644.819	7658.38
645.012	7754.63
645.205	7631.76
645.398	7719.82
645.591	7607.18
645.784	7621.52
645.977	7510.93
646.17	7424.91
646.363	7455.63
646.556	7375.76
646.749	7285.65
646.942	7410.57
647.135	7267.22
647.328	7314.32
647.521	7351.18
647.714	7142.29
647.907	7314.32
648.099	7127.96
648.292	7140.24
648.485	7050.13
648.678	6904.73
648.871	6988.69
649.064	6855.58
649.256	7003.03
649.449	6837.14
649.642	6833.05
649.835	6726.55
650.027	6878.1
650.22	6730.65
650.413	6622.11
650.605	6583.2
650.798	6607.77
650.991	6355.87
651.183	6599.58
651.376	6589.34
651.568	6493.08
651.761	6560.67
651.954	6394.78
652.146	6456.22
652.339	6478.75
652.531	6323.1
652.724	6228.9
652.916	6179.75
653.109	6071.2
653.301	6230.94
653.494	6122.4
653.686	6024.1
653.879	6118.31
654.071	6075.3
654.263	6149.03
654.456	5962.66
654.648	5948.33
654.84	5909.41
655.033	5899.17
655.225	5792.68
655.417	5708.71
655.61	5749.67
655.802	5866.41
655.994	5761.96
656.186	5819.3
656.379	5786.54
656.571	5575.59
656.763	5651.37
656.955	5583.79
657.148	5596.07
657.34	5612.46
657.532	5282.74
657.724	5354.41
657.916	5557.16
658.108	5503.92
658.3	5378.99
658.492	5448.62
658.684	5161.91
658.876	5424.05
659.068	5319.6
659.26	5213.1
659.452	5307.31
659.644	5229.49
659.836	5192.62
660.028	5374.89
660.22	5096.37
660.412	5233.58
660.604	5086.13
660.796	5112.75
660.988	5184.43
661.18	4901.81
661.372	4981.68
661.563	5000.12
661.755	4944.82
661.947	4858.81
662.139	4965.3
662.331	4813.75
662.522	4725.69
662.714	4760.5
662.906	4840.37
663.097	4795.32
663.289	4662.2
663.481	4740.02
663.673	4694.97
663.864	4688.82
664.056	4682.68
664.247	4582.33
664.439	4623.29
664.631	4742.07
664.822	4572.09
665.014	4588.47
665.205	4617.15
665.397	4565.95
665.588	4522.94
665.78	4514.75
665.971	4596.67
666.163	4512.7
666.354	4434.88
666.546	4486.08
666.737	4461.5
666.929	4447.16
667.12	4457.4
667.311	4387.77
667.503	4295.61
667.694	4301.76
667.885	4342.72
668.077	4322.24
668.268	4144.06
668.459	4352.96
668.651	4187.07
668.842	4238.27
669.033	4312
669.224	4250.56
669.416	4332.48
669.607	4201.41
669.798	4234.18
669.989	4346.81
670.18	4137.92
670.371	4205.5
670.563	4082.63
670.754	4121.54
670.945	4070.34
671.136	4139.97
671.327	3986.37
671.518	4146.11
671.709	4142.02
671.9	3996.61
672.091	3992.52
672.282	4010.95
672.473	3890.12
672.664	3916.74
672.855	3976.13
673.046	4090.82
673.237	3988.42
673.428	4158.4
673.619	3998.66
673.809	3998.66
674	3976.13
674.191	4062.15
674.382	4000.71
674.573	3836.87
674.764	4008.9
674.954	4010.95
675.145	3769.29
675.336	3996.61
675.527	3920.84
675.717	4133.82
675.908	3959.75
676.099	3851.21
676.289	3877.83
676.48	3838.92
676.671	3918.79
676.861	3863.49
677.052	3818.44
677.243	3982.28
677.433	3941.32
677.624	3898.31
677.814	4000.71
678.005	3873.73
678.195	3929.03
678.386	3845.06
678.576	3832.77
678.767	3775.43
678.957	3947.46
679.148	4002.75
679.338	3969.99
679.529	3879.88
679.719	3941.32
679.909	3994.56
680.1	4000.71
680.29	4056
680.481	3740.61
680.671	3955.65
680.861	3947.46
681.052	4012.99
681.242	4008.9
681.432	3900.36
681.622	3824.58
681.813	3886.02
682.003	3984.32
682.193	3957.7
682.383	3898.31
682.573	3912.64
682.764	4023.23
682.954	3808.2
683.144	3871.68
683.334	4010.95
683.524	3937.22
683.714	3861.45
683.904	3902.4
684.094	3877.83
684.284	3945.41
684.474	3818.44
684.664	3787.72
684.854	3922.88
685.044	3863.49
685.234	3834.82
685.424	3824.58
685.614	3857.35
685.804	3888.07
685.994	3828.68
686.184	3967.94
686.374	3797.96
686.564	3750.85
686.753	3863.49
686.943	3687.37
687.133	3783.62
687.323	3695.56
687.513	3863.49
687.702	3779.53
687.892	3701.7
688.082	3640.26
688.272	3787.72
688.461	3701.7
688.651	3634.12
688.841	3689.42
689.03	3554.25
689.22	3611.59
689.41	3572.68
689.599	3546.06
689.789	3406.8
689.979	3531.72
690.168	3392.46
690.358	3648.46
690.547	3322.83
690.737	3445.71
690.926	3468.24
691.116	3390.41
691.305	3529.67
691.495	3322.83
691.684	3378.12
691.874	3527.63
692.063	3441.61
692.252	3439.56
692.442	3414.99
692.631	3314.64
692.82	3302.35
693.01	3408.84
693.199	3285.97
693.388	3232.72
693.578	3324.88
693.767	3179.47
693.956	3251.15
694.146	3064.79
694.335	3197.9
694.524	3226.57
694.713	3163.09
694.902	3152.85
695.092	3242.96
695.281	3134.42
695.47	3134.42
695.659	3161.04
695.848	3175.38
696.037	3070.93
696.226	3197.9
696.415	3070.93
696.604	3216.33
696.793	3150.8
696.982	3048.4
697.171	3234.77
697.36	3136.46
697.549	3126.22
697.738	3173.33
697.927	3011.54
698.116	3101.65
698.305	3101.65
698.494	3070.93
698.683	3003.35
698.872	2991.06
699.061	3156.94
699.25	3091.41
699.438	3032.02
699.627	3150.8
699.816	3066.83
700.005	3021.78
700.193	2972.63
700.382	3154.9
700.571	3029.97
700.76	3103.7
700.948	3111.89
701.137	3044.31
701.326	3134.42
701.514	3109.84
701.703	3118.03
701.892	3044.31
702.08	3152.85
702.269	3089.36
702.457	2919.38
702.646	3085.26
702.834	3095.5
703.023	3066.83
703.212	3183.57
703.4	3247.05
703.589	2966.48
703.777	3158.99
703.965	3038.16
704.154	3085.26
704.342	3148.75
704.531	3072.98
704.719	3140.56
704.907	3234.77
705.096	3054.55
705.284	3132.37
705.472	3087.31
705.661	3152.85
705.849	3195.86
706.037	3044.31
706.226	3175.38
706.414	3130.32
706.602	3101.65
706.79	3138.51
706.979	3152.85
707.167	3089.36
707.355	3210.19
707.543	3087.31
707.731	3183.57
707.919	3109.84
708.107	3134.42
708.296	3216.33
708.484	3111.89
708.672	3165.14
708.86	3191.76
709.048	3111.89
709.236	3193.81
709.424	3249.1
709.612	3101.65
709.8	3179.47
709.988	3138.51
710.176	3214.29
710.364	3122.13
710.551	3277.77
710.739	3240.91
710.927	3144.66
711.115	3212.24
711.303	3316.69
711.491	3310.54
711.679	3312.59
711.866	3183.57
712.054	3255.25
712.242	3093.46
712.43	3371.98
712.617	3328.97
712.805	3171.28
712.993	3118.03
713.181	3228.62
713.368	3279.82
713.556	3277.77
713.744	3306.45
713.931	3273.68
714.119	3339.21
714.306	3355.6
714.494	3187.66
714.682	3408.84
714.869	3392.46
715.057	3261.39
715.244	3331.02
715.432	3333.07
715.619	3363.79
715.807	3337.17
715.994	3326.93
716.182	3392.46
716.369	3392.46
716.556	3404.75
716.744	3353.55
716.931	3427.28
717.119	3478.47
717.306	3468.24
717.493	3423.18
717.681	3312.59
717.868	3453.9
718.055	3498.95
718.242	3470.28
718.43	3511.24
718.617	3408.84
718.804	3443.66
718.991	3335.12
719.179	3394.51
719.366	3441.61
719.553	3480.52
719.74	3554.25
719.927	3546.06
720.114	3357.64
720.301	3462.09
720.488	3490.76
720.676	3408.84
720.863	3599.31
721.05	3509.19
721.237	3511.24
721.424	3517.39
721.611	3527.63
721.798	3521.48
721.985	3550.15
722.172	3474.38
722.358	3488.71
722.545	3509.19
722.732	3453.9
722.919	3650.5
723.106	3455.95
723.293	3644.36
723.48	3609.54
723.667	3523.53
723.853	3611.59
724.04	3568.59
724.227	3531.72
724.414	3580.87
724.6	3570.63
724.787	3625.93
724.974	3617.74
725.161	3673.03
725.347	3611.59
725.534	3552.2
725.72	3677.13
725.907	3754.95
726.094	3689.42
726.28	3664.84
726.467	3638.22
726.653	3709.9
726.84	3728.33
727.027	3627.98
727.213	3509.19
727.4	3752.9
727.586	3750.85
727.773	3601.35
727.959	3732.42
728.145	3783.62
728.332	3640.26
728.518	3728.33
728.705	3765.19
728.891	3611.59
729.077	3617.74
729.264	3720.14
729.45	3685.32
729.636	3886.02
729.823	3777.48
730.009	3728.33
730.195	3750.85
730.382	3861.45
730.568	3752.9
730.754	3820.49
730.94	3791.81
731.126	3757
731.313	3720.14
731.499	3580.87
731.685	3830.73
731.871	3791.81
732.057	3894.21
732.243	3953.6
732.429	3816.39
732.615	3931.08
732.801	3826.63
732.987	3883.97
733.173	3773.38
733.359	3757
733.545	3730.38
733.731	3732.42
733.917	3775.43
734.103	3834.82
734.289	3904.45
734.475	3808.2
734.661	3787.72
734.847	3881.92
735.033	3824.58
735.219	3867.59
735.404	3781.57
735.59	3869.64
735.776	3802.05
735.962	3851.21
736.148	3877.83
736.333	3939.27
736.519	3838.92
736.705	3972.04
736.89	3924.93
737.076	3685.32
737.262	3765.19
737.447	3931.08
737.633	3861.45
737.819	3853.25
738.004	3763.14
738.19	3873.73
738.375	3697.61
738.561	3855.3
738.747	3769.29
738.932	3744.71
739.118	3828.68
739.303	3826.63
739.489	3834.82
739.674	3804.1
739.859	3754.95
740.045	3791.81
740.23	3853.25
740.416	3705.8
740.601	3716.04
740.786	3814.34
740.972	3765.19
741.157	3761.09
741.342	3619.78
741.528	3658.7
741.713	3687.37
741.898	3734.47
742.084	3644.36
742.269	3775.43
742.454	3607.5
742.639	3695.56
742.824	3703.75
743.01	3677.13
743.195	3689.42
743.38	3634.12
743.565	3752.9
743.75	3531.72
743.935	3611.59
744.12	3412.94
744.305	3519.43
744.49	3537.87
744.675	3638.22
744.86	3470.28
745.045	3466.19
745.23	3546.06
745.415	3365.84
745.6	3603.4
745.785	3400.65
745.97	3652.55
746.155	3466.19
746.34	3492.81
746.525	3478.47
746.71	3343.31
746.895	3304.4
747.079	3240.91
747.264	3376.08
747.449	3226.57
747.634	3378.12
747.819	3290.06
748.003	3167.18
748.188	3257.29
748.373	3230.67
748.557	3232.72
748.742	3036.11
748.927	3253.2
749.111	3027.92
749.296	3156.94
749.481	3118.03
749.665	3181.52
749.85	3103.7
750.034	3056.59
750.219	3066.83
750.404	3066.83
750.588	3113.94
750.773	2989.01
750.957	2903
751.141	2923.48
751.326	2960.34
751.51	2968.53
751.695	2943.96
751.879	2849.75
752.064	2950.1
752.248	2610.14
752.432	3060.69
752.617	2853.84
752.801	2771.93
752.985	2706.39
753.17	2786.26
753.354	2784.21
753.538	2800.6
753.722	2659.29
753.907	2724.82
754.091	2507.74
754.275	2837.46
754.459	2712.53
754.643	2622.42
754.828	2696.15
755.012	2481.11
755.196	2507.74
755.38	2546.65
755.564	2593.75
755.748	2348
755.932	2540.51
756.116	2452.44
756.3	2393.05
756.484	2487.26
756.668	2391
756.852	2407.39
757.036	2403.29
757.22	2348
757.404	2323.42
757.588	2370.52
757.772	2384.86
757.956	2294.75
758.14	2337.76
758.323	2079.71
758.507	2231.26
758.691	2151.39
758.875	2225.12
759.059	2184.16
759.242	2227.17
759.426	2108.38
759.61	2264.03
759.794	2132.96
759.977	2200.54
760.161	2221.02
760.345	2112.48
760.528	2143.2
760.712	2102.24
760.895	1979.36
761.079	2036.7
761.263	1962.98
761.446	1903.59
761.63	1999.84
761.813	2016.23
761.997	1928.16
762.18	2100.19
762.364	2010.08
762.547	1977.31
762.731	1899.49
762.914	1905.63
763.098	1987.55
763.281	1891.3
763.464	1827.81
763.648	1840.1
763.831	1919.97
764.015	1860.58
764.198	1844.2
764.381	1922.02
764.564	1829.86
764.748	1897.44
764.931	1901.54
765.114	1852.39
765.297	1803.24
765.481	1799.14
765.664	1850.34
765.847	1782.76
766.03	1819.62
766.213	1762.28
766.397	1780.71
766.58	1733.61
766.763	1635.3
766.946	1670.12
767.129	1801.19
767.312	1770.47
767.495	1754.09
767.678	1739.75
767.861	1725.41
768.044	1711.08
768.227	1756.13
768.41	1684.45
768.593	1770.47
768.776	1612.78
768.959	1688.55
769.142	1733.61
769.324	1580.01
769.507	1674.21
769.69	1580.01
769.873	1590.25
770.056	1639.4
770.239	1647.59
770.421	1647.59
770.604	1633.26
770.787	1616.87
770.97	1555.43
771.152	1534.95
771.335	1487.85
771.518	1496.04
771.7	1487.85
771.883	1602.54
772.066	1469.42
772.248	1539.05
772.431	1510.38
772.613	1481.71
772.796	1438.7
772.978	1444.84
773.161	1498.09
773.343	1436.65
773.526	1385.45
773.708	1332.2
773.891	1434.6
774.073	1432.55
774.256	1315.82
774.438	1481.71
774.621	1383.4
774.803	1397.74
774.985	1342.44
775.168	1332.2
775.35	1291.24
775.532	1379.31
775.715	1303.53
775.897	1223.66
776.079	1281
776.261	1422.31
776.444	1389.55
776.626	1252.33
776.808	1225.71
776.99	1174.51
777.173	1250.28
777.355	1291.24
777.537	1215.47
777.719	1244.14
777.901	1190.89
778.083	1154.03
778.265	1143.79
778.447	1129.45
778.629	1094.64
778.811	1166.32
778.993	1166.32
779.175	1205.23
779.357	1080.3
779.539	1059.82
779.721	1057.78
779.903	1053.68
780.085	938.99
780.267	1039.34
780.449	1051.63
780.631	1039.34
780.812	1012.72
780.994	1029.1
781.176	992.24
781.358	994.29
781.54	1031.15
781.721	1061.87
781.903	1043.44
782.085	959.47
782.267	943.09
782.448	932.85
782.63	977.91
782.812	957.43
782.993	910.32
783.175	918.51
783.357	957.43
783.538	859.12
783.72	830.45
783.901	941.04
784.083	820.21
784.264	842.74
784.446	918.51
784.627	812.02
784.809	820.21
784.99	848.88
785.172	809.97
785.353	795.64
785.535	771.06
785.716	814.07
785.897	726
786.079	742.39
786.26	769.01
786.441	791.54
786.623	732.15
786.804	826.36
786.985	697.33
787.167	824.31
787.348	697.33
787.529	812.02
787.71	809.97
787.891	766.96
788.073	670.71
788.254	654.33
788.435	678.9
788.616	693.24
788.797	564.22
788.978	777.2
789.159	676.85
789.34	644.09
789.522	652.28
789.703	623.61
789.884	752.63
790.065	627.7
790.246	746.48
790.427	533.5
790.607	664.57
790.788	668.66
790.969	658.42
791.15	699.38
791.331	580.6
791.512	635.89
791.693	549.88
791.874	646.13
792.054	680.95
792.235	603.13
792.416	533.5
792.597	572.41
792.778	586.74
792.958	658.42
793.139	556.02
793.32	566.26
793.5	613.37
793.681	615.41
793.862	543.74
794.042	513.02
794.223	517.11
794.404	484.34
794.584	465.91
794.765	504.82
794.945	570.36
795.126	601.08
795.306	535.54
795.487	576.5
795.667	488.44
795.848	508.92
796.028	556.02
796.209	551.93
796.389	574.46
796.57	470.01
796.75	515.06
796.93	478.2
797.111	410.62
797.291	443.39
797.471	500.73
797.652	445.43
797.832	388.09
798.012	510.97
798.192	416.76
798.373	375.8
798.553	449.53
798.733	531.45
798.913	414.71
799.093	435.19
799.274	429.05
799.454	484.34
799.634	472.06
799.814	377.85
799.994	340.99
800.174	498.68
800.354	386.04
800.534	310.27
800.714	447.48
800.894	443.39
801.074	373.75
801.254	447.48
801.434	459.77
801.614	424.95
801.794	373.75
801.974	1137.65
802.154	375.8
802.334	408.57
802.514	369.66
802.693	324.6
802.873	379.9
803.053	463.86
803.233	369.66
803.413	392.19
803.592	312.32
803.772	390.14
803.952	355.32
804.131	357.37
804.311	293.88
804.491	345.08
804.67	336.89
804.85	365.56
805.03	388.09
805.209	336.89
805.389	308.22
805.568	330.75
805.748	367.61
805.928	306.17
806.107	381.95
806.287	349.18
806.466	310.27
806.646	365.56
806.825	363.51
807.004	347.13
807.184	363.51
807.363	302.08
807.543	318.46
807.722	308.22
807.901	351.23
808.081	420.86
808.26	269.31
808.439	308.22
808.619	279.55
808.798	300.03
808.977	304.12
809.156	334.84
809.336	340.99
809.515	330.75
809.694	224.25
809.873	340.99
810.052	279.55
810.231	355.32
810.411	277.5
810.59	345.08
810.769	328.7
810.948	279.55
811.127	207.87
811.306	302.08
811.485	224.25
811.664	371.71
811.843	320.51
812.022	207.87
812.201	332.79
812.38	289.79
812.559	230.4
812.737	271.36
812.916	185.34
813.095	218.11
813.274	222.2
813.453	285.69
813.632	259.07
813.811	242.68
813.989	214.01
814.168	347.13
814.347	242.68
814.526	240.64
814.704	320.51
814.883	269.31
815.062	228.35
815.24	312.32
815.419	254.97
815.598	295.93
815.776	209.92
815.955	277.5
816.133	181.25
816.312	252.92
816.49	250.88
816.669	197.63
816.847	183.29
817.026	310.27
817.204	226.3
817.383	275.45
817.561	185.34
817.74	205.82
817.918	267.26
818.097	214.01
818.275	248.83
818.453	209.92
818.632	214.01
818.81	216.06
818.988	214.01
819.167	236.54
819.345	295.93
819.523	179.2
819.701	168.96
819.879	269.31
820.058	199.68
820.236	207.87
820.414	164.86
820.592	226.3
820.77	257.02
820.948	107.52
821.127	201.72
821.305	211.96
821.483	181.25
821.661	150.53
821.839	218.11
822.017	162.81
822.195	189.44
822.373	226.3
822.551	142.33
822.729	328.7
822.907	218.11
823.085	168.96
823.262	214.01
823.44	207.87
823.618	160.77
823.796	140.29
823.974	173.05
824.152	177.15
824.329	154.62
824.507	179.2
824.685	201.72
824.863	185.34
825.04	179.2
825.218	193.53
825.396	140.29
825.574	191.49
825.751	144.38
825.929	254.97
826.107	168.96
826.284	254.97
826.462	195.58
826.639	148.48
826.817	101.37
826.994	232.44
827.172	109.57
827.349	209.92
827.527	193.53
827.704	119.81
827.882	142.33
828.059	148.48
828.237	197.63
828.414	187.39
828.591	84.99
828.769	168.96
828.946	119.81
829.124	164.86
829.301	162.81
829.478	105.47
829.655	115.71
829.833	140.29
830.01	93.18
830.187	195.58
830.364	82.94
830.542	125.95
830.719	154.62
830.896	197.63
831.073	68.61
831.25	107.52
831.427	121.85
831.604	89.09
831.782	111.61
831.959	177.15
832.136	142.33
832.313	160.77
832.49	64.51
832.667	146.43
832.844	107.52
833.021	205.82
833.198	136.19
833.374	146.43
833.551	179.2
833.728	136.19
833.905	195.58
834.082	84.99
834.259	97.28
834.436	187.39
834.612	181.25
834.789	156.67
834.966	128
835.143	117.76
835.319	130.05
835.496	99.33
835.673	134.14
835.85	160.77
836.026	130.05
836.203	74.75
836.38	144.38
836.556	103.42
836.733	97.28
836.909	101.37
837.086	15.36
837.262	72.7
837.439	164.86
837.616	44.03
837.792	82.94
837.968	80.89
838.145	103.42
838.321	121.85
838.498	146.43
838.674	152.57
838.851	123.9
839.027	70.65
839.203	50.18
839.38	181.25
839.556	56.32
839.732	93.18
839.909	150.53
840.085	58.37
840.261	99.33
840.437	103.42
840.614	132.09
840.79	128
840.966	56.32
841.142	121.85
841.318	-15.36
841.494	138.24
841.671	78.85
841.847	97.28
842.023	56.32
842.199	136.19
842.375	130.05
842.551	72.7
842.727	144.38
842.903	95.23
843.079	7.17
843.255	148.48
843.431	72.7
843.607	121.85
843.783	-15.36
843.959	107.52
844.134	76.8
844.31	46.08
844.486	44.03
844.662	33.79
844.838	70.65
845.013	119.81
845.189	111.61
845.365	101.37
845.541	52.22
845.716	91.13
845.892	70.65
846.068	-23.55
846.244	7.17
846.419	78.85
846.595	27.65
846.77	72.7
846.946	68.61
847.122	64.51
847.297	60.42
847.473	121.85
847.648	70.65
847.824	121.85
847.999	-50.18
848.175	-3.07
848.35	9.22
848.526	95.23
848.701	21.5
848.876	62.46
849.052	33.79
849.227	31.74
849.403	25.6
849.578	41.98
849.753	99.33
849.929	29.7
850.104	35.84
850.279	-3.07
850.454	56.32
850.63	154.62
850.805	115.71
850.98	41.98
851.155	-17.41
851.33	80.89
851.505	25.6
851.681	64.51
851.856	11.26
852.031	19.46
852.206	72.7
852.381	50.18
852.556	21.5
852.731	82.94
852.906	-1.02
853.081	99.33
853.256	105.47
853.431	-3.07
853.606	64.51
853.781	19.46
853.956	9.22
854.131	27.65
854.305	-21.5
854.48	56.32
854.655	27.65
854.83	-50.18
855.005	46.08
855.18	91.13
855.354	50.18
855.529	76.8
855.704	37.89
855.879	80.89
856.053	39.94
856.228	44.03
856.403	78.85
856.577	107.52
856.752	15.36
856.926	23.55
857.101	17.41
857.276	39.94
857.45	21.5
857.625	115.71
857.799	37.89
857.974	68.61
858.148	21.5
858.323	107.52
858.497	31.74
858.672	11.26
858.846	-39.94
859.02	3.07
859.195	44.03
859.369	46.08
859.543	125.95
859.718	46.08
859.892	1.02
860.066	23.55
860.241	44.03
860.415	33.79
860.589	80.89
860.763	-9.22
860.938	58.37
861.112	89.09
861.286	13.31
861.46	-33.79
861.634	-1.02
861.808	11.26
861.982	52.22
862.157	-13.31
862.331	76.8
862.505	-23.55
862.679	-5.12
862.853	109.57
863.027	50.18
863.201	50.18
863.375	17.41
863.549	44.03
863.722	56.32
863.896	7.17
864.07	17.41
864.244	62.46
864.418	66.56
864.592	74.75
864.766	19.46
864.939	-1.02
865.113	23.55
865.287	134.14
865.461	-19.46
865.634	15.36
865.808	58.37
865.982	21.5
866.156	11.26
866.329	3.07
866.503	46.08
866.676	41.98
866.85	54.27
867.024	-103.42
867.197	41.98
867.371	-5.12
867.544	-11.26
867.718	3.07
867.891	44.03
868.065	-27.65
868.238	54.27
868.412	48.13
868.585	7.17
868.759	54.27
868.932	23.55
869.105	35.84
869.279	99.33
869.452	35.84
869.625	15.36
869.799	-17.41
869.972	-27.65
870.145	15.36
870.319	29.7
870.492	1.02
870.665	5.12
870.838	-11.26
871.011	-1.02
871.185	44.03
871.358	19.46
871.531	54.27
871.704	5.12
871.877	33.79
872.05	-7.17
872.223	11.26
872.396	82.94
872.569	62.46
872.742	-123.9
872.915	7.17
873.088	-17.41
873.261	-52.22
873.434	80.89
873.607	-3.07
873.78	-56.32
873.953	-68.61
874.126	-35.84
874.299	25.6
874.471	-7.17
874.644	11.26
874.817	17.41
874.99	27.65
875.163	58.37
875.335	7.17
875.508	17.41
875.681	78.85
875.853	9.22
876.026	-27.65
876.199	-9.22
876.371	46.08
876.544	-17.41
876.717	48.13
876.889	33.79
877.062	70.65
877.234	35.84
877.407	50.18
877.579	-15.36
877.752	29.7
877.924	111.61
878.097	39.94
878.269	-19.46
878.442	37.89
878.614	74.75
878.786	54.27
878.959	17.41
879.131	-15.36
879.303	-44.03
879.476	62.46
879.648	13.31
879.82	15.36
879.993	23.55
880.165	72.7
880.337	31.74
880.509	74.75
880.681	-9.22
880.854	39.94
881.026	89.09
881.198	48.13
881.37	11.26
881.542	-11.26
881.714	-15.36
881.886	41.98
882.058	-13.31
882.23	-11.26
882.402	-15.36
882.574	-15.36
882.746	52.22
882.918	78.85
883.09	95.23
883.262	13.31
883.434	-39.94
883.606	-17.41
883.778	-15.36
883.95	48.13
884.122	44.03
884.293	97.28
884.465	-11.26
884.637	-11.26
884.809	-11.26
884.98	-1.02
885.152	50.18
885.324	23.55
885.496	-9.22
885.667	39.94
885.839	-33.79
886.011	17.41
886.182	25.6
886.354	91.13
886.525	54.27
886.697	-11.26
886.869	1.02
887.04	23.55
887.212	93.18
887.383	97.28
887.555	-15.36
887.726	-29.7
887.897	-5.12
888.069	-1.02
888.24	-25.6
888.412	23.55
888.583	23.55
888.754	52.22
888.926	-11.26
889.097	7.17
889.268	-60.42
889.44	3.07
889.611	21.5
889.782	-17.41
889.953	-50.18
890.125	13.31
890.296	-84.99
890.467	-25.6
890.638	-64.51
890.809	95.23
890.98	25.6
891.151	37.89
891.323	15.36
891.494	13.31
891.665	-25.6
891.836	19.46
892.007	25.6
892.178	62.46
892.349	5.12
892.52	-44.03
892.691	-1.02
892.862	-39.94
893.032	-48.13
893.203	11.26
893.374	5.12
893.545	27.65
893.716	-62.46
893.887	1.02
894.057	-56.32
894.228	-25.6
894.399	13.31
894.57	-50.18
894.74	-35.84
894.911	-29.7
895.082	35.84
895.253	87.04
895.423	-68.61
895.594	15.36
895.764	46.08
895.935	17.41
896.106	27.65
896.276	17.41
896.447	13.31
896.617	-48.13
896.788	-17.41
896.958	-31.74
897.129	-62.46
897.299	-41.98
897.47	48.13
897.64	80.89
897.81	11.26
897.981	-1.02
898.151	-66.56
898.322	-21.5
898.492	-11.26
898.662	-21.5
898.832	-9.22
899.003	62.46
899.173	-3.07
899.343	-60.42
899.513	17.41
