Data from USB4F104151__58__12-24-06-543.txt Node

Date: Fri Mar 14 12:24:06 EDT 2025
User: louis
Spectrometer: USB4F10415
Trigger mode: 4
Integration Time (sec): 3.500000E-2
Scans to average: 1
Electric dark correction enabled: true
Nonlinearity correction enabled: false
Boxcar width: 0
XAxis mode: Wavelengths
Number of Pixels in Spectrum: 3648
>>>>>Begin Spectral Data<<<<<
178.204	-97.45
178.424	-97.45
178.644	-97.45
178.864	-144.55
179.084	-140.46
179.304	0.85
179.524	-33.96
179.744	7
179.964	-9.39
180.184	27.48
180.404	-1.19
180.624	-40.11
180.844	-9.39
181.064	13.14
181.283	-1.19
181.503	-23.72
181.723	70.48
181.943	9.05
182.163	52.05
182.383	-40.11
182.602	50
182.822	13.14
183.042	15.19
183.262	-56.49
183.482	-23.72
183.701	-3.24
183.921	-13.48
184.141	-44.2
184.361	15.19
184.58	-46.25
184.8	39.76
185.02	-19.63
185.239	21.33
185.459	2.9
185.679	105.3
185.898	29.52
186.118	78.68
186.338	29.52
186.557	13.14
186.777	-79.02
186.997	52.05
187.216	19.29
187.436	74.58
187.655	47.96
187.875	13.14
188.095	-52.39
188.314	109.4
188.534	127.83
188.753	-3.24
188.973	113.49
189.192	123.73
189.412	21.33
189.631	-1.19
189.851	41.81
190.07	74.58
190.29	-1.19
190.509	33.62
190.729	-13.48
190.948	66.39
191.168	101.2
191.387	15.19
191.607	13.14
191.826	35.67
192.045	-31.91
192.265	-58.54
192.484	7
192.704	-33.96
192.923	7
193.142	54.1
193.362	37.72
193.581	39.76
193.8	17.24
194.02	54.1
194.239	-19.63
194.458	47.96
194.678	-50.35
194.897	58.2
195.116	-9.39
195.335	15.19
195.555	39.76
195.774	19.29
195.993	37.72
196.212	-19.63
196.432	-40.11
196.651	37.72
196.87	68.44
197.089	107.35
197.308	88.92
197.528	56.15
197.747	-1.19
197.966	23.38
198.185	86.87
198.404	-46.25
198.623	35.67
198.842	47.96
199.062	35.67
199.281	52.05
199.5	15.19
199.719	68.44
199.938	7
200.157	74.58
200.376	56.15
200.595	66.39
200.814	33.62
201.033	-7.34
201.252	-5.29
201.471	-42.15
201.69	90.96
201.909	-25.77
202.128	-27.82
202.347	72.53
202.566	70.48
202.785	-17.58
203.004	-68.78
203.223	25.43
203.442	11.09
203.661	-33.96
203.879	-56.49
204.098	58.2
204.317	23.38
204.536	17.24
204.755	-11.43
204.974	41.81
205.193	-11.43
205.411	66.39
205.63	68.44
205.849	-29.87
206.068	41.81
206.287	-31.91
206.505	39.76
206.724	-5.29
206.943	25.43
207.162	0.85
207.381	35.67
207.599	37.72
207.818	58.2
208.037	54.1
208.255	13.14
208.474	64.34
208.693	9.05
208.911	21.33
209.13	7
209.349	105.3
209.567	17.24
209.786	117.59
210.005	78.68
210.223	37.72
210.442	-48.3
210.661	27.48
210.879	13.14
211.098	11.09
211.316	0.85
211.535	52.05
211.753	11.09
211.972	62.29
212.191	27.48
212.409	23.38
212.628	43.86
212.846	-50.35
213.065	31.57
213.283	-17.58
213.502	0.85
213.72	23.38
213.938	-11.43
214.157	39.76
214.375	15.19
214.594	58.2
214.812	21.33
215.031	-13.48
215.249	-17.58
215.467	50
215.686	33.62
215.904	11.09
216.122	62.29
216.341	107.35
216.559	23.38
216.778	131.92
216.996	62.29
217.214	0.85
217.432	4.95
217.651	2.9
217.869	0.85
218.087	23.38
218.306	31.57
218.524	2.9
218.742	-64.68
218.96	74.58
219.179	-25.77
219.397	82.77
219.615	56.15
219.833	27.48
220.051	52.05
220.27	45.91
220.488	107.35
220.706	80.72
220.924	35.67
221.142	19.29
221.36	9.05
221.578	107.35
221.796	4.95
222.015	45.91
222.233	-7.34
222.451	121.68
222.669	-62.63
222.887	-50.35
223.105	-44.2
223.323	35.67
223.541	-29.87
223.759	76.63
223.977	-62.63
224.195	4.95
224.413	41.81
224.631	7
224.849	-7.34
225.067	125.78
225.285	-27.82
225.503	29.52
225.721	-87.21
225.939	54.1
226.157	25.43
226.375	150.36
226.592	-19.63
226.81	-5.29
227.028	45.91
227.246	183.12
227.464	9.05
227.682	41.81
227.9	-9.39
228.117	35.67
228.335	-46.25
228.553	15.19
228.771	74.58
228.989	74.58
229.206	21.33
229.424	13.14
229.642	-7.34
229.86	60.24
230.077	21.33
230.295	33.62
230.513	23.38
230.731	76.63
230.948	103.25
231.166	54.1
231.384	-60.59
231.601	-42.15
231.819	58.2
232.037	21.33
232.254	-48.3
232.472	105.3
232.689	7
232.907	19.29
233.125	7
233.342	17.24
233.56	-40.11
233.777	29.52
233.995	-33.96
234.213	66.39
234.43	29.52
234.648	-5.29
234.865	-5.29
235.083	2.9
235.3	-5.29
235.518	27.48
235.735	97.11
235.953	-11.43
236.17	-5.29
236.388	90.96
236.605	-3.24
236.822	82.77
237.04	109.4
237.257	84.82
237.475	-21.67
237.692	15.19
237.909	41.81
238.127	15.19
238.344	-3.24
238.562	23.38
238.779	-38.06
238.996	-11.43
239.214	78.68
239.431	68.44
239.648	-11.43
239.865	74.58
240.083	58.2
240.3	66.39
240.517	43.86
240.735	25.43
240.952	33.62
241.169	17.24
241.386	68.44
241.603	15.19
241.821	-19.63
242.038	82.77
242.255	9.05
242.472	-21.67
242.689	23.38
242.907	54.1
243.124	-15.53
243.341	27.48
243.558	-29.87
243.775	-7.34
243.992	43.86
244.209	-50.35
244.426	88.92
244.643	29.52
244.86	-42.15
245.078	21.33
245.295	52.05
245.512	19.29
245.729	-17.58
245.946	72.53
246.163	41.81
246.38	-44.2
246.597	25.43
246.814	64.34
247.031	13.14
247.248	39.76
247.464	35.67
247.681	56.15
247.898	-13.48
248.115	-42.15
248.332	-89.26
248.549	93.01
248.766	31.57
248.983	35.67
249.2	35.67
249.417	84.82
249.633	4.95
249.85	7
250.067	-17.58
250.284	68.44
250.501	-31.91
250.717	52.05
250.934	-29.87
251.151	2.9
251.368	17.24
251.585	54.1
251.801	2.9
252.018	-42.15
252.235	86.87
252.451	29.52
252.668	23.38
252.885	66.39
253.102	72.53
253.318	-19.63
253.535	4.95
253.752	4.95
253.968	-1.19
254.185	-54.44
254.401	64.34
254.618	68.44
254.835	-13.48
255.051	25.43
255.268	54.1
255.484	54.1
255.701	17.24
255.917	2.9
256.134	-31.91
256.351	66.39
256.567	-46.25
256.784	56.15
257	9.05
257.217	52.05
257.433	29.52
257.65	-9.39
257.866	29.52
258.082	-46.25
258.299	-31.91
258.515	19.29
258.732	64.34
258.948	-9.39
259.165	45.91
259.381	29.52
259.597	56.15
259.814	13.14
260.03	-21.67
260.246	21.33
260.463	103.25
260.679	27.48
260.895	-40.11
261.112	13.14
261.328	-36.01
261.544	35.67
261.761	62.29
261.977	-5.29
262.193	-81.07
262.409	66.39
262.626	80.72
262.842	-36.01
263.058	19.29
263.274	11.09
263.49	-13.48
263.707	41.81
263.923	66.39
264.139	-101.55
264.355	-36.01
264.571	97.11
264.787	-5.29
265.004	78.68
265.22	-17.58
265.436	29.52
265.652	-38.06
265.868	60.24
266.084	17.24
266.3	72.53
266.516	-5.29
266.732	56.15
266.948	-56.49
267.164	17.24
267.38	-11.43
267.596	107.35
267.812	31.57
268.028	70.48
268.244	-40.11
268.46	0.85
268.676	52.05
268.892	4.95
269.108	-27.82
269.324	-7.34
269.54	-23.72
269.756	70.48
269.972	0.85
270.188	50
270.403	-15.53
270.619	-15.53
270.835	-19.63
271.051	39.76
271.267	-38.06
271.483	66.39
271.698	105.3
271.914	-74.92
272.13	60.24
272.346	41.81
272.562	23.38
272.777	78.68
272.993	-19.63
273.209	-85.16
273.425	-11.43
273.64	21.33
273.856	58.2
274.072	-1.19
274.287	2.9
274.503	58.2
274.719	27.48
274.934	41.81
275.15	-62.63
275.366	13.14
275.581	35.67
275.797	19.29
276.012	11.09
276.228	-1.19
276.444	2.9
276.659	-1.19
276.875	-25.77
277.09	-3.24
277.306	-66.73
277.521	39.76
277.737	37.72
277.952	39.76
278.168	41.81
278.383	-23.72
278.599	37.72
278.814	19.29
279.03	-62.63
279.245	86.87
279.461	-29.87
279.676	58.2
279.892	-50.35
280.107	9.05
280.322	41.81
280.538	39.76
280.753	-23.72
280.969	-21.67
281.184	39.76
281.399	39.76
281.615	27.48
281.83	35.67
282.045	-15.53
282.26	9.05
282.476	-50.35
282.691	15.19
282.906	37.72
283.122	74.58
283.337	35.67
283.552	58.2
283.767	-31.91
283.983	52.05
284.198	-36.01
284.413	17.24
284.628	4.95
284.843	27.48
285.058	23.38
285.274	43.86
285.489	-19.63
285.704	103.25
285.919	-13.48
286.134	54.1
286.349	-5.29
286.564	7
286.779	76.63
286.995	-3.24
287.21	-33.96
287.425	54.1
287.64	-29.87
287.855	-50.35
288.07	-17.58
288.285	-13.48
288.5	19.29
288.715	62.29
288.93	47.96
289.145	-40.11
289.36	72.53
289.575	-21.67
289.79	80.72
290.004	-42.15
290.219	2.9
290.434	9.05
290.649	7
290.864	-50.35
291.079	76.63
291.294	0.85
291.509	0.85
291.724	17.24
291.938	-7.34
292.153	41.81
292.368	-19.63
292.583	2.9
292.798	23.38
293.012	-21.67
293.227	66.39
293.442	39.76
293.657	35.67
293.871	23.38
294.086	-15.53
294.301	47.96
294.516	37.72
294.73	72.53
294.945	-21.67
295.16	11.09
295.374	54.1
295.589	-1.19
295.804	-31.91
296.018	35.67
296.233	0.85
296.447	41.81
296.662	-33.96
296.877	11.09
297.091	39.76
297.306	-25.77
297.52	41.81
297.735	50
297.949	-40.11
298.164	58.2
298.378	-1.19
298.593	-23.72
298.807	21.33
299.022	2.9
299.236	-38.06
299.451	-21.67
299.665	-3.24
299.88	-48.3
300.094	60.24
300.309	23.38
300.523	17.24
300.737	-46.25
300.952	-68.78
301.166	-21.67
301.381	-25.77
301.595	-7.34
301.809	25.43
302.024	47.96
302.238	-31.91
302.452	58.2
302.667	25.43
302.881	88.92
303.095	82.77
303.309	37.72
303.524	-7.34
303.738	33.62
303.952	-17.58
304.166	-9.39
304.381	-1.19
304.595	76.63
304.809	-50.35
305.023	-13.48
305.237	-19.63
305.452	21.33
305.666	54.1
305.88	105.3
306.094	41.81
306.308	25.43
306.522	64.34
306.736	68.44
306.95	39.76
307.164	39.76
307.379	11.09
307.593	72.53
307.807	11.09
308.021	45.91
308.235	-11.43
308.449	17.24
308.663	23.38
308.877	95.06
309.091	56.15
309.305	66.39
309.519	-89.26
309.733	-13.48
309.947	-46.25
310.161	19.29
310.374	68.44
310.588	19.29
310.802	19.29
311.016	27.48
311.23	29.52
311.444	-31.91
311.658	-23.72
311.872	103.25
312.085	29.52
312.299	21.33
312.513	90.96
312.727	31.57
312.941	27.48
313.154	76.63
313.368	-29.87
313.582	33.62
313.796	-23.72
314.009	-40.11
314.223	107.35
314.437	31.57
314.651	35.67
314.864	-27.82
315.078	-17.58
315.292	-29.87
315.505	25.43
315.719	41.81
315.933	62.29
316.146	-19.63
316.36	-19.63
316.573	84.82
316.787	-1.19
317.001	-3.24
317.214	-36.01
317.428	9.05
317.641	27.48
317.855	-17.58
318.068	0.85
318.282	41.81
318.495	27.48
318.709	52.05
318.922	47.96
319.136	72.53
319.349	50
319.563	13.14
319.776	13.14
319.99	15.19
320.203	13.14
320.417	68.44
320.63	74.58
320.843	66.39
321.057	58.2
321.27	17.24
321.483	25.43
321.697	35.67
321.91	50
322.124	68.44
322.337	11.09
322.55	68.44
322.763	9.05
322.977	11.09
323.19	19.29
323.403	7
323.617	74.58
323.83	99.16
324.043	15.19
324.256	-17.58
324.469	-17.58
324.683	27.48
324.896	-42.15
325.109	39.76
325.322	-21.67
325.535	70.48
325.748	74.58
325.962	-33.96
326.175	68.44
326.388	21.33
326.601	-15.53
326.814	50
327.027	39.76
327.24	47.96
327.453	-64.68
327.666	84.82
327.879	62.29
328.092	35.67
328.305	13.14
328.518	37.72
328.731	-46.25
328.944	56.15
329.157	76.63
329.37	15.19
329.583	66.39
329.796	123.73
330.009	-29.87
330.222	74.58
330.435	-27.82
330.648	-58.54
330.861	13.14
331.073	58.2
331.286	-29.87
331.499	-7.34
331.712	-21.67
331.925	2.9
332.138	47.96
332.35	17.24
332.563	13.14
332.776	70.48
332.989	15.19
333.202	-36.01
333.414	25.43
333.627	0.85
333.84	-48.3
334.053	-13.48
334.265	-13.48
334.478	-7.34
334.691	29.52
334.903	45.91
335.116	-17.58
335.329	-36.01
335.541	13.14
335.754	31.57
335.966	-27.82
336.179	-38.06
336.392	17.24
336.604	25.43
336.817	72.53
337.029	21.33
337.242	78.68
337.454	11.09
337.667	54.1
337.88	109.4
338.092	11.09
338.305	-40.11
338.517	52.05
338.729	97.11
338.942	7
339.154	-46.25
339.367	11.09
339.579	37.72
339.792	33.62
340.004	64.34
340.217	-38.06
340.429	2.9
340.641	9.05
340.854	11.09
341.066	41.81
341.278	-36.01
341.491	101.2
341.703	9.05
341.915	70.48
342.128	39.76
342.34	99.16
342.552	50
342.764	-9.39
342.977	50
343.189	17.24
343.401	62.29
343.613	21.33
343.826	27.48
344.038	-11.43
344.25	31.57
344.462	19.29
344.674	29.52
344.886	-1.19
345.099	56.15
345.311	0.85
345.523	-15.53
345.735	33.62
345.947	62.29
346.159	23.38
346.371	7
346.583	-40.11
346.795	72.53
347.007	-58.54
347.219	-56.49
347.431	35.67
347.643	86.87
347.855	23.38
348.067	50
348.279	-44.2
348.491	-3.24
348.703	99.16
348.915	74.58
349.127	-31.91
349.339	47.96
349.551	-9.39
349.763	-17.58
349.975	31.57
350.187	31.57
350.399	29.52
350.61	107.35
350.822	41.81
351.034	86.87
351.246	76.63
351.458	113.49
351.669	35.67
351.881	13.14
352.093	101.2
352.305	15.19
352.517	39.76
352.728	45.91
352.94	29.52
353.152	27.48
353.363	9.05
353.575	-36.01
353.787	47.96
353.999	25.43
354.21	107.35
354.422	37.72
354.633	-23.72
354.845	-1.19
355.057	90.96
355.268	27.48
355.48	-33.96
355.692	-3.24
355.903	70.48
356.115	52.05
356.326	-19.63
356.538	62.29
356.749	15.19
356.961	21.33
357.172	58.2
357.384	-36.01
357.595	35.67
357.807	7
358.018	-89.26
358.23	31.57
358.441	21.33
358.653	72.53
358.864	45.91
359.075	41.81
359.287	86.87
359.498	35.67
359.709	41.81
359.921	-1.19
360.132	17.24
360.344	13.14
360.555	74.58
360.766	-11.43
360.977	7
361.189	33.62
361.4	-23.72
361.611	93.01
361.823	41.81
362.034	74.58
362.245	-29.87
362.456	-42.15
362.667	31.57
362.879	-44.2
363.09	33.62
363.301	9.05
363.512	-36.01
363.723	-27.82
363.935	-13.48
364.146	82.77
364.357	52.05
364.568	47.96
364.779	-36.01
364.99	37.72
365.201	-38.06
365.412	64.34
365.623	43.86
365.834	107.35
366.045	45.91
366.256	66.39
366.467	-11.43
366.678	23.38
366.889	-25.77
367.1	-23.72
367.311	78.68
367.522	-5.29
367.733	-21.67
367.944	27.48
368.155	11.09
368.366	-29.87
368.577	60.24
368.788	31.57
368.999	9.05
369.209	45.91
369.42	56.15
369.631	129.88
369.842	19.29
370.053	-1.19
370.264	107.35
370.474	-36.01
370.685	13.14
370.896	13.14
371.107	35.67
371.317	88.92
371.528	45.91
371.739	76.63
371.95	113.49
372.16	43.86
372.371	4.95
372.582	-17.58
372.792	54.1
373.003	-9.39
373.214	2.9
373.424	80.72
373.635	66.39
373.846	-23.72
374.056	19.29
374.267	29.52
374.477	2.9
374.688	37.72
374.898	50
375.109	-91.31
375.319	27.48
375.53	74.58
375.74	68.44
375.951	15.19
376.161	-1.19
376.372	52.05
376.582	-17.58
376.793	-7.34
377.003	-38.06
377.214	54.1
377.424	23.38
377.635	19.29
377.845	-56.49
378.055	45.91
378.266	-15.53
378.476	31.57
378.686	105.3
378.897	64.34
379.107	162.64
379.317	74.58
379.528	54.1
379.738	-38.06
379.948	-23.72
380.158	35.67
380.369	-15.53
380.579	70.48
380.789	23.38
380.999	29.52
381.21	27.48
381.42	29.52
381.63	-15.53
381.84	54.1
382.05	-17.58
382.261	50
382.471	-9.39
382.681	76.63
382.891	21.33
383.101	19.29
383.311	-38.06
383.521	-1.19
383.731	11.09
383.941	58.2
384.151	74.58
384.361	43.86
384.571	-25.77
384.781	103.25
384.991	66.39
385.201	84.82
385.411	90.96
385.621	64.34
385.831	19.29
386.041	43.86
386.251	56.15
386.461	115.54
386.671	45.91
386.881	52.05
387.091	97.11
387.301	47.96
387.511	21.33
387.72	47.96
387.93	33.62
388.14	56.15
388.35	-44.2
388.56	103.25
388.769	80.72
388.979	101.2
389.189	41.81
389.399	64.34
389.609	27.48
389.818	68.44
390.028	0.85
390.238	103.25
390.447	50
390.657	70.48
390.867	13.14
391.076	-31.91
391.286	-1.19
391.496	58.2
391.705	19.29
391.915	47.96
392.125	72.53
392.334	-52.39
392.544	76.63
392.753	103.25
392.963	50
393.172	25.43
393.382	-1.19
393.591	84.82
393.801	86.87
394.01	2.9
394.22	31.57
394.429	76.63
394.639	35.67
394.848	9.05
395.058	47.96
395.267	43.86
395.477	58.2
395.686	47.96
395.895	78.68
396.105	111.44
396.314	41.81
396.524	58.2
396.733	-29.87
396.942	62.29
397.152	82.77
397.361	74.58
397.57	52.05
397.78	-42.15
397.989	121.68
398.198	80.72
398.407	-25.77
398.617	41.81
398.826	131.92
399.035	105.3
399.244	78.68
399.453	127.83
399.663	45.91
399.872	52.05
400.081	-23.72
400.29	176.98
400.499	23.38
400.708	52.05
400.917	119.64
401.127	52.05
401.336	27.48
401.545	152.4
401.754	72.53
401.963	70.48
402.172	105.3
402.381	56.15
402.59	17.24
402.799	113.49
403.008	31.57
403.217	66.39
403.426	76.63
403.635	54.1
403.844	107.35
404.053	70.48
404.262	60.24
404.471	144.21
404.68	68.44
404.888	60.24
405.097	131.92
405.306	41.81
405.515	99.16
405.724	123.73
405.933	148.31
406.142	80.72
406.35	84.82
406.559	125.78
406.768	70.48
406.977	41.81
407.185	88.92
407.394	111.44
407.603	82.77
407.812	121.68
408.02	164.69
408.229	154.45
408.438	140.12
408.646	136.02
408.855	156.5
409.064	158.55
409.272	97.11
409.481	174.93
409.69	119.64
409.898	82.77
410.107	240.47
410.315	224.08
410.524	86.87
410.733	174.93
410.941	199.51
411.15	265.04
411.358	246.61
411.567	226.13
411.775	203.6
411.984	275.28
412.192	293.71
412.401	273.23
412.609	295.76
412.818	252.75
413.026	269.14
413.234	279.38
413.443	224.08
413.651	285.52
413.86	205.65
414.068	408.4
414.276	377.68
414.485	381.78
414.693	357.2
414.901	432.97
415.11	353.1
415.318	392.02
415.526	365.39
415.734	512.85
415.943	506.7
416.151	463.69
416.359	443.21
416.567	545.61
416.776	443.21
416.984	508.75
417.192	527.18
417.4	533.33
417.608	504.65
417.817	662.35
418.025	633.68
418.233	699.21
418.441	598.86
418.649	648.01
418.857	770.89
419.065	772.94
419.273	666.44
419.481	752.46
419.689	834.38
419.897	795.47
420.105	832.33
420.313	867.14
420.521	957.25
420.729	885.58
420.937	861
421.145	942.92
421.353	1039.17
421.561	1024.84
421.769	1125.19
421.977	1082.18
422.185	1106.76
422.393	1168.2
422.601	1211.2
422.809	1190.72
423.017	1252.16
423.224	1323.84
423.432	1360.7
423.64	1377.09
423.848	1477.44
424.056	1559.36
424.263	1588.03
424.471	1751.87
424.679	1739.58
424.887	1641.28
425.094	1901.37
425.302	1721.15
425.51	1815.35
425.718	1905.46
425.925	1899.32
426.133	1979.19
426.341	2167.6
426.548	2165.56
426.756	2192.18
426.964	2210.61
427.171	2276.15
427.379	2270
427.586	2489.14
427.794	2609.97
428.001	2695.98
428.209	2700.08
428.417	2671.4
428.624	2890.54
428.832	2951.98
429.039	2835.24
429.247	2966.31
429.454	3033.9
429.662	3250.98
429.869	3134.25
430.076	3377.95
430.284	3232.55
430.491	3324.71
430.699	3652.38
430.906	3592.99
431.114	3726.11
431.321	3775.26
431.528	3900.19
431.736	4016.92
431.943	4248.34
432.15	4215.57
432.358	4209.43
432.565	4528.91
432.772	4274.96
432.979	4647.69
433.187	4748.04
433.394	4619.02
433.601	5051.14
433.808	5112.58
434.016	5069.58
434.223	5341.96
434.43	5552.9
434.637	5520.13
434.844	5866.24
435.052	6079.22
435.259	5968.63
435.466	5876.48
435.673	5913.34
435.88	6234.87
436.087	6646.51
436.294	6677.23
436.501	6636.27
436.708	6347.51
436.915	6818.54
437.122	7101.16
437.329	7047.91
437.537	7359.21
437.743	7342.82
437.95	7344.87
438.157	7848.67
438.364	8071.9
438.571	8159.96
438.778	7869.15
438.985	8823.5
439.192	8571.6
439.399	8805.07
439.606	8704.72
439.813	9036.49
440.02	9638.59
440.227	9595.59
440.433	9446.09
440.64	9896.64
440.847	9652.93
441.054	9804.48
441.261	10654.39
441.467	10549.94
441.674	10633.91
441.881	11002.54
442.088	10932.91
442.294	10887.86
442.501	11260.59
442.708	11401.9
442.914	11899.55
443.121	12636.82
443.328	11895.46
443.534	12896.91
443.741	12505.75
443.948	12386.97
444.154	13243.02
444.361	13169.29
444.568	13384.33
444.774	13464.2
444.981	13283.98
445.187	14109.31
445.394	14383.74
445.6	14019.2
445.807	15706.73
446.013	14996.08
446.22	15223.41
446.426	15854.18
446.633	16032.35
446.839	16781.91
447.046	16042.59
447.252	16632.41
447.459	16663.13
447.665	16591.45
447.871	17359.44
448.078	18270.78
448.284	17338.96
448.491	18084.42
448.697	18625.08
448.903	18702.9
449.11	18876.98
449.316	18567.74
449.522	19001.91
449.728	19403.31
449.935	19589.67
450.141	19628.59
450.347	20019.75
450.553	19362.35
450.76	19800.62
450.966	20484.64
451.172	20187.68
451.378	21010.96
451.584	20222.5
451.791	20636.19
451.997	20744.73
452.203	20965.91
452.409	20793.88
452.615	21039.64
452.821	19896.87
453.027	19851.81
453.233	20988.44
453.44	20161.06
453.646	20570.65
453.852	20517.4
454.058	20931.09
454.264	20218.4
454.47	20728.35
454.676	20179.49
454.882	21017.11
455.088	19001.91
455.294	19470.89
455.5	19657.26
455.705	19849.77
455.911	19110.45
456.117	18461.24
456.323	18528.83
456.529	17175.12
456.735	17973.83
456.941	17740.36
457.147	17369.68
457.352	16790.1
457.558	16677.46
457.764	16718.42
457.97	16484.95
458.176	16018.02
458.381	15923.81
458.587	15194.73
458.793	15374.95
458.999	14400.12
459.204	15446.63
459.41	14996.08
459.616	14187.13
459.821	14078.59
460.027	13968
460.233	13701.76
460.438	13107.85
460.644	13372.04
460.85	12710.55
461.055	12329.63
461.261	12366.49
461.466	11270.83
461.672	11051.69
461.878	11934.37
462.083	11262.63
462.289	10871.47
462.494	10609.33
462.7	10179.26
462.905	10056.38
463.111	10326.71
463.316	10539.7
463.522	10287.8
463.727	10193.59
463.932	10078.91
464.138	10085.05
464.343	10314.42
464.549	10009.28
464.754	10267.32
464.959	10169.02
465.165	9900.73
465.37	9599.68
465.575	9265.86
465.781	9712.32
465.986	9738.94
466.191	9308.87
466.397	9220.81
466.602	8731.34
466.807	9050.83
467.012	9128.65
467.218	8960.72
467.423	9018.06
467.628	8930
467.833	9319.11
468.038	8930
468.244	8741.58
468.449	9046.73
468.654	8829.65
468.859	8669.91
469.064	8682.19
469.269	8418
469.474	8573.65
469.679	8506.07
469.885	8399.57
470.09	8473.3
470.295	8463.06
470.5	8162.01
470.705	8293.08
470.91	7967.45
471.115	7922.4
471.32	8207.06
471.525	8039.13
471.73	7985.88
471.935	7770.85
472.139	7512.8
472.344	7426.79
472.549	7613.15
472.754	7557.86
472.959	7496.42
473.164	7144.17
473.369	7267.05
473.574	7305.96
473.778	7178.98
473.983	7234.28
474.188	7064.3
474.393	6773.49
474.598	6789.87
474.802	6765.29
475.007	6750.96
475.212	6695.66
475.417	6611.7
475.621	6615.79
475.826	6497.01
476.031	6454
476.235	6228.73
476.44	6298.36
476.645	6275.83
476.849	6183.67
477.054	6220.53
477.259	5995.26
477.463	6146.81
477.668	6079.22
477.872	5976.83
478.077	5987.07
478.282	5745.41
478.486	5851.9
478.691	5741.31
478.895	5690.11
479.1	5714.69
479.304	5618.43
479.509	5659.39
479.713	5622.53
479.918	5468.93
480.122	5460.74
480.326	5438.21
480.531	5432.07
480.735	5608.19
480.94	5446.4
481.144	5608.19
481.348	5403.39
481.553	5270.28
481.757	5247.75
481.961	5378.82
482.166	5384.96
482.37	5354.24
482.574	5133.06
482.778	5307.14
482.983	5284.61
483.187	5378.82
483.391	5374.72
483.595	5208.84
483.8	5208.84
484.004	5284.61
484.208	5317.38
484.412	5276.42
484.616	5233.41
484.821	5368.58
485.025	5157.64
485.229	5352.2
485.433	5251.85
485.637	5327.62
485.841	5225.22
486.045	5169.93
486.249	5210.89
486.453	5180.17
486.657	5225.22
486.861	5122.82
487.065	5061.38
487.269	5219.08
487.473	5051.14
487.677	5262.09
487.881	5427.97
488.085	5270.28
488.289	5286.66
488.493	5331.72
488.697	5237.51
488.901	5251.85
489.105	5180.17
489.309	5423.87
489.512	5409.54
489.716	5362.44
489.92	5214.98
490.124	5284.61
490.328	5317.38
490.531	5284.61
490.735	5583.62
490.939	5335.81
491.143	5335.81
491.346	5417.73
491.55	5479.17
491.754	5612.29
491.958	5513.99
492.161	5477.12
492.365	5610.24
492.569	5493.51
492.772	5589.76
492.976	5618.43
493.18	5606.14
493.383	5659.39
493.587	5825.28
493.79	5847.8
493.994	5653.25
494.197	5700.35
494.401	5913.34
494.605	5737.21
494.808	5860.09
495.012	6077.18
495.215	6116.09
495.419	6068.98
495.622	6044.41
495.825	6183.67
496.029	6191.86
496.232	6048.51
496.436	6091.51
496.639	6562.55
496.843	6365.94
497.046	6570.74
497.249	6578.93
497.453	6583.02
497.656	6791.92
497.859	6814.45
498.063	6744.81
498.266	6882.03
498.469	6806.25
498.673	6929.13
498.876	6994.67
499.079	7092.97
499.282	7064.3
499.485	7365.35
499.689	7207.66
499.892	7484.13
500.095	7412.45
500.298	7650.02
500.501	7432.93
500.705	7695.07
500.908	8114.91
501.111	7963.36
501.314	8157.91
501.517	8123.1
501.72	8084.19
501.923	8250.07
502.126	8428.24
502.329	8536.79
502.532	8540.88
502.735	8553.17
502.938	8757.97
503.141	8981.2
503.344	9114.31
503.547	9024.2
503.75	9116.36
503.953	9413.32
504.156	9511.62
504.359	9562.82
504.562	9689.79
504.765	9730.75
504.968	9876.16
505.17	10029.76
505.373	10005.18
505.576	10115.77
505.779	10304.18
505.982	10275.51
506.185	10470.07
506.387	10564.28
506.59	10756.79
506.793	10875.57
506.996	11018.93
507.198	11012.78
507.401	11231.91
507.604	11336.36
507.807	11571.88
508.009	11391.66
508.212	11684.52
508.415	11758.24
508.617	12001.95
508.82	12092.06
509.022	11936.42
509.225	12466.84
509.428	12612.24
509.63	12698.26
509.833	12565.14
510.035	12948.11
510.238	13030.03
510.44	12974.74
510.643	13361.8
510.845	13691.52
511.048	13574.79
511.25	13712
511.453	13947.52
511.655	14316.15
511.858	13906.56
512.06	14250.62
512.262	14592.63
512.465	14586.49
512.667	14664.31
512.87	14994.03
513.072	15112.81
513.274	15401.58
513.477	15628.9
513.679	15526.5
513.881	15870.56
514.084	16134.75
514.286	15854.18
514.488	16253.53
514.69	16585.3
514.893	16597.59
515.095	16622.17
515.297	16808.53
515.499	17298
515.701	17257.04
515.904	17676.87
516.106	17898.05
516.308	18016.83
516.51	17904.2
516.712	18258.49
516.914	18408
517.116	18741.82
517.318	18702.9
517.52	19055.15
517.722	18848.31
517.925	19464.75
518.127	19604.01
518.329	19802.66
518.531	19483.18
518.733	20191.78
518.935	20316.7
519.136	20423.2
519.338	21056.02
519.54	20812.31
519.742	20920.85
519.944	21064.21
520.146	21568.01
520.348	21455.37
520.55	21654.03
520.752	22096.39
520.954	22383.1
521.155	22462.97
521.357	22729.21
521.559	22635
521.761	23259.63
521.963	23046.65
522.164	23271.92
522.366	23609.84
522.568	24105.45
522.77	23917.03
522.971	24633.82
523.173	24400.35
523.375	24584.67
523.576	24553.95
523.778	24807.9
523.98	25006.55
524.181	25235.92
524.383	25074.13
524.584	25551.31
524.786	25766.35
524.988	25467.34
525.189	25946.57
525.391	26298.82
525.592	26343.88
525.794	26661.31
525.995	26501.57
526.197	26786.24
526.398	26862.01
526.6	27132.34
526.801	27316.66
527.003	27443.63
527.204	27396.53
527.406	27482.55
527.607	27666.86
527.808	27865.52
528.01	27527.6
528.211	27943.34
528.412	28324.26
528.614	28410.28
528.815	28346.79
529.016	28619.17
529.218	28197.29
529.419	28520.87
529.62	28785.05
529.822	28756.38
530.023	28889.5
530.224	29116.83
530.425	28932.51
530.626	28852.64
530.828	28651.94
531.029	29497.75
531.23	28854.69
531.431	29266.33
531.632	29159.83
531.833	29303.19
532.035	29196.7
532.236	29413.78
532.437	29579.67
532.638	29444.5
532.839	29991.31
533.04	29839.76
533.241	29653.39
533.442	30040.46
533.643	29774.22
533.844	29755.79
534.045	29915.53
534.246	29616.53
534.447	30142.86
534.648	30138.76
534.849	30032.27
535.05	29825.42
535.251	30249.35
535.451	29993.36
535.652	29931.92
535.853	30040.46
536.054	30108.04
536.255	30103.95
536.456	29893.01
536.657	30546.31
536.857	29917.58
537.058	29936.01
537.259	30372.23
537.46	30552.45
537.66	30165.39
537.861	30327.17
538.062	29948.3
538.263	30228.87
538.463	30185.86
538.664	30208.39
538.865	30132.62
539.065	30714.24
539.266	29870.48
539.466	30800.26
539.667	29888.91
539.868	30222.73
540.068	30132.62
540.269	30347.65
540.469	30396.81
540.67	30153.1
540.87	30224.78
541.071	30062.99
541.271	30503.3
541.472	30386.57
541.672	30071.18
541.873	30091.66
542.073	29778.32
542.274	30419.33
542.474	30466.44
542.675	30372.23
542.875	30409.09
543.075	29968.78
543.276	29815.18
543.476	30151.05
543.676	29993.36
543.877	30151.05
544.077	30034.32
544.277	30144.91
544.478	30103.95
544.678	30439.81
544.878	29948.3
545.078	30288.26
545.279	30402.95
545.479	29979.02
545.679	30259.59
545.879	30134.67
546.079	29997.45
546.28	29804.94
546.48	29659.54
546.68	30124.43
546.88	30423.43
547.08	30206.34
547.28	29981.07
547.48	29997.45
547.68	30534.02
547.88	30054.79
548.081	29958.54
548.281	30116.23
548.481	29950.35
548.681	30101.9
548.881	30241.16
549.081	29524.37
549.28	29907.34
549.48	30032.27
549.68	29997.45
549.88	30550.4
550.08	29858.19
550.28	29944.2
550.48	29821.33
550.68	30353.8
550.88	29761.94
551.08	29821.33
551.279	29813.13
551.479	29800.85
551.679	29940.11
551.879	30009.74
552.079	30028.17
552.278	30134.67
552.478	29979.02
552.678	29954.44
552.878	30247.3
553.077	29923.72
553.277	29729.17
553.477	29968.78
553.676	29649.3
553.876	29919.63
554.076	29608.34
554.275	29540.75
554.475	29620.63
554.674	29790.61
554.874	29825.42
555.074	29444.5
555.273	29790.61
555.473	29583.76
555.672	29424.02
555.872	29440.4
556.071	29135.26
556.271	29602.19
556.47	29305.24
556.67	29092.25
556.869	29297.05
557.068	29260.18
557.268	29448.6
557.467	29151.64
557.667	29133.21
557.866	29127.06
558.065	28899.74
558.265	28785.05
558.464	28959.13
558.663	29010.33
558.863	28529.06
559.062	29014.43
559.261	28565.92
559.461	28959.13
559.66	28690.85
559.859	28506.53
560.058	28385.7
560.258	28686.75
560.457	28531.11
560.656	28418.47
560.855	28090.79
561.054	28336.55
561.253	28379.56
561.453	28264.87
561.652	28254.63
561.851	28176.81
562.05	28094.89
562.249	27503.03
562.448	27959.72
562.647	27908.52
562.846	27705.77
563.045	27380.15
563.244	27580.85
563.443	27804.08
563.642	27417.01
563.841	27523.51
564.04	27206.07
564.239	27437.49
564.438	27189.69
564.637	27142.58
564.836	27050.42
565.035	26864.06
565.234	26819
565.432	26646.97
565.631	26540.48
565.83	26876.35
566.029	26327.49
566.228	26679.74
566.427	26472.9
566.625	26116.55
566.824	26079.69
567.023	26476.99
567.222	25721.29
567.42	26221
567.619	26161.61
567.818	25905.61
568.016	25987.53
568.215	26177.99
568.414	25508.3
568.612	25596.37
568.811	25446.87
569.01	25756.11
569.208	24951.26
569.407	25676.24
569.605	25158.1
569.804	25250.26
570.002	24840.67
570.201	25166.29
570.4	24582.62
570.598	24496.61
570.797	24467.94
570.995	24783.32
571.193	24410.59
571.392	24521.18
571.59	24242.66
571.789	24189.41
571.987	24267.24
572.186	24001
572.384	23910.89
572.582	24300
572.781	24287.71
572.979	23474.67
573.177	24003.05
573.376	23826.92
573.574	23370.22
573.772	23579.12
573.971	23056.89
574.169	23343.6
574.367	22985.21
574.565	23237.11
574.763	23140.85
574.962	22860.28
575.16	22567.42
575.358	22721.02
575.556	22303.23
575.754	22981.11
575.952	22348.29
576.151	22731.26
576.349	22518.27
576.547	22583.8
576.745	22268.42
576.943	22329.86
577.141	22096.39
577.339	21807.62
577.537	21948.93
577.735	21897.74
577.933	21412.37
578.131	21662.22
578.329	21762.57
578.527	21490.19
578.725	21484.05
578.923	21606.92
579.121	21750.28
579.319	21441.04
579.516	21314.06
579.714	21217.81
579.912	21303.82
580.11	21207.57
580.308	20754.97
580.506	20908.57
580.704	20978.2
580.901	20957.72
581.099	20890.13
581.297	20431.39
581.495	20654.62
581.692	20740.63
581.89	20408.86
582.088	20638.23
582.285	20226.59
582.483	20455.97
582.681	20183.59
582.878	20281.89
583.076	19862.05
583.274	19843.62
583.471	19814.95
583.669	19923.49
583.866	19751.46
584.064	20130.34
584.262	19513.9
584.459	19956.26
584.657	19601.96
584.854	19763.75
585.052	19413.55
585.249	19450.41
585.447	19524.14
585.644	19341.87
585.841	19216.94
586.039	19407.41
586.236	18936.37
586.434	19141.17
586.631	18858.55
586.828	19141.17
587.026	19030.58
587.223	18643.51
587.42	18733.62
587.618	18919.99
587.815	18469.44
588.012	18494.01
588.21	18522.68
588.407	18592.31
588.604	18299.45
588.801	18317.89
588.999	18412.09
589.196	18504.25
589.393	18219.58
589.59	18168.38
589.787	18145.86
589.984	18096.71
590.182	18162.24
590.379	17840.71
590.576	17828.42
590.773	17719.88
590.97	17853
591.167	17746.5
591.364	17412.68
591.561	17750.6
591.758	17564.23
591.955	17341
592.152	17635.91
592.349	17115.73
592.546	17439.31
592.743	17234.51
592.94	17062.48
593.137	17085.01
593.334	17146.45
593.531	16859.73
593.727	16953.94
593.924	16994.9
594.121	16527.96
594.318	17109.58
594.515	16693.85
594.712	16988.75
594.908	16493.15
595.105	16493.15
595.302	16505.43
595.499	16724.57
595.696	16482.91
595.892	16124.51
596.089	16390.75
596.286	16314.97
596.482	16056.93
596.679	16253.53
596.876	16167.52
597.072	16104.03
597.269	16091.74
597.466	16075.36
597.662	15970.91
597.859	15944.29
598.055	15966.82
598.252	15864.42
598.448	15895.14
598.645	15872.61
598.841	15489.64
599.038	15606.38
599.234	15581.8
599.431	15346.28
599.627	15334
599.824	15598.18
600.02	15477.35
600.217	15319.66
600.413	15121.01
600.609	14975.6
600.806	15135.34
601.002	15213.17
601.198	14969.46
601.395	15096.43
601.591	15026.8
601.787	14910.07
601.984	14912.11
602.18	15172.21
602.376	14719.6
602.572	14604.92
602.769	14643.83
602.965	14576.25
603.161	14797.43
603.357	14543.48
603.553	14430.84
603.75	14580.34
603.946	14447.22
604.142	14479.99
604.338	14207.61
604.534	14359.16
604.73	14189.18
604.926	14185.08
605.122	14072.45
605.318	14180.99
605.514	14004.86
605.71	14011.01
605.906	14017.15
606.102	14017.15
606.298	14006.91
606.494	13740.68
606.69	13912.71
606.886	13953.66
607.082	13652.61
607.278	13714.05
607.474	13458.06
607.67	13564.55
607.866	13388.43
608.062	13572.74
608.257	13419.14
608.453	13359.75
608.649	13265.55
608.845	13456.01
609.041	13146.76
609.236	13173.39
609.432	13146.76
609.628	13310.6
609.824	13118.09
610.019	13038.22
610.215	13050.51
610.411	13247.12
610.606	12784.27
610.802	13116.05
610.998	13044.37
611.193	13050.51
611.389	12901.01
611.584	12974.74
611.78	12991.12
611.976	12665.49
612.171	12726.93
612.367	13109.9
612.562	12726.93
612.758	12501.65
612.953	12618.39
613.149	12792.47
613.344	12497.56
613.539	12583.57
613.735	12640.92
613.93	12370.58
614.126	12368.54
614.321	12704.4
614.517	12477.08
614.712	12456.6
614.907	12206.75
615.103	12645.01
615.298	12184.22
615.493	12409.5
615.688	12102.3
615.884	12440.22
616.079	12307.1
616.274	12073.63
616.47	12077.73
616.665	12243.61
616.86	12106.4
617.055	12090.01
617.25	11920.03
617.445	12071.58
617.641	11827.87
617.836	11991.71
618.031	11778.72
618.226	11981.47
618.421	11655.84
618.616	11776.67
618.811	11481.77
619.006	11815.59
619.201	11606.69
619.396	11776.67
619.591	11375.27
619.786	11547.3
619.981	11520.68
620.176	11469.48
620.371	11209.39
620.566	11305.64
620.761	11238.06
620.956	11317.93
621.151	11063.98
621.346	11131.56
621.541	11147.95
621.735	11096.75
621.93	10953.39
622.125	10906.29
622.32	10783.41
622.515	10740.4
622.709	10846.9
622.904	10633.91
623.099	10678.96
623.294	10662.58
623.488	10328.76
623.683	10601.14
623.878	10371.77
624.072	10289.85
624.267	10298.04
624.462	10394.29
624.656	10050.24
624.851	10187.45
625.046	10033.85
625.24	9947.84
625.435	10035.9
625.629	9831.1
625.824	9968.32
626.018	9738.94
626.213	9910.97
626.407	9646.79
626.602	9704.13
626.796	9661.12
626.991	9462.47
627.185	9421.51
627.38	9505.48
627.574	9398.98
627.768	9257.67
627.963	9382.6
628.157	9265.86
628.352	9319.11
628.546	9145.03
628.74	9048.78
628.935	8884.94
629.129	8848.08
629.323	8862.41
629.517	8657.62
629.712	8704.72
629.906	8653.52
630.1	8608.47
630.294	8704.72
630.489	8710.86
630.683	8684.24
630.877	8524.5
631.071	8538.84
631.265	8524.5
631.459	8399.57
631.653	8448.72
631.848	8508.12
632.042	8233.69
632.236	8395.48
632.43	8299.22
632.624	8133.34
632.818	8133.34
633.012	8037.08
633.206	8075.99
633.4	8168.15
633.594	7869.15
633.788	7854.81
633.982	7922.4
634.176	7791.33
634.369	7822.05
634.563	7860.96
634.757	7537.38
634.951	7733.98
635.145	7623.39
635.339	7631.58
635.533	7715.55
635.726	7412.45
635.92	7461.6
636.114	7566.05
636.308	7527.14
636.501	7363.3
636.695	7279.33
636.889	7351.01
637.083	7103.21
637.276	7107.3
637.47	7181.03
637.664	7219.94
637.857	7162.6
638.051	7082.73
638.244	7031.53
638.438	6789.87
638.632	6994.67
638.825	6865.64
639.019	6902.51
639.212	6724.33
639.406	6882.03
639.599	6740.72
639.793	6568.69
639.986	6666.99
640.18	6654.7
640.373	6556.4
640.567	6535.92
640.76	6411
640.954	6296.31
641.147	6443.76
641.34	6363.89
641.534	6345.46
641.727	6415.09
641.92	6327.03
642.114	6083.32
642.307	6220.53
642.5	6261.49
642.694	6150.9
642.887	6079.22
643.08	6267.64
643.273	6058.74
643.467	5972.73
643.66	5960.44
643.853	5915.39
644.046	5856
644.239	5853.95
644.432	5899
644.626	5796.6
644.819	5714.69
645.012	5831.42
645.205	5702.4
645.398	5673.73
645.591	5706.49
645.784	5632.77
645.977	5597.95
646.17	5518.08
646.363	5534.46
646.556	5454.59
646.749	5587.71
646.942	5401.35
647.135	5241.61
647.328	5376.77
647.521	5530.37
647.714	5180.17
647.907	5397.25
648.099	5282.56
648.292	5497.6
648.485	5247.75
648.678	5462.79
648.871	5278.47
649.064	5110.54
649.256	5159.69
649.449	5225.22
649.642	5110.54
649.835	5045
650.027	4983.56
650.22	4850.44
650.413	5059.34
650.605	4901.64
650.798	4844.3
650.991	4938.51
651.183	4940.55
651.376	4817.68
651.568	4928.27
651.761	4866.83
651.954	4756.24
652.146	4616.97
652.339	4756.24
652.531	4561.68
652.724	4561.68
652.916	4442.9
653.109	4633.36
653.301	4668.17
653.494	4619.02
653.686	4551.44
653.879	4545.3
654.071	4551.44
654.263	4576.02
654.456	4295.44
654.648	4547.34
654.84	4506.38
655.033	4303.64
655.225	4299.54
655.417	4363.03
655.61	4324.12
655.802	4299.54
655.994	4266.77
656.186	4449.04
656.379	4201.24
656.571	4244.24
656.763	4186.9
656.955	4096.79
657.148	4121.37
657.34	4045.59
657.532	4047.64
657.724	4070.17
657.916	4014.87
658.108	4027.16
658.3	4053.78
658.492	3975.96
658.684	4021.02
658.876	3939.1
659.068	3887.9
659.26	3803.93
659.452	3869.47
659.644	3982.1
659.836	3908.38
660.028	3988.25
660.22	3769.12
660.412	3812.12
660.604	3779.36
660.796	3771.16
660.988	3818.27
661.18	3754.78
661.372	3638.05
661.563	3668.77
661.755	3693.34
661.947	3578.65
662.139	3640.09
662.331	3662.62
662.522	3609.37
662.714	3576.61
662.906	3498.78
663.097	3615.52
663.289	3433.25
663.481	3549.98
663.673	3425.06
663.864	3371.81
664.056	3543.84
664.247	3474.21
664.439	3556.13
664.631	3488.54
664.822	3570.46
665.014	3517.22
665.205	3336.99
665.397	3488.54
665.588	3613.47
665.78	3289.89
665.971	3332.9
666.163	3400.48
666.354	3439.39
666.546	3400.48
666.737	3324.71
666.929	3273.51
667.12	3312.42
667.311	3269.41
667.503	3205.92
667.694	3285.8
667.885	3261.22
668.077	3261.22
668.268	3230.5
668.459	3250.98
668.651	3289.89
668.842	3207.97
669.033	3271.46
669.224	3263.27
669.416	3162.92
669.607	3234.6
669.798	3160.87
669.989	3259.17
670.18	3173.16
670.371	2941.74
670.563	3244.84
670.754	3291.94
670.945	3261.22
671.136	3130.15
671.327	2976.55
671.518	3171.11
671.709	3152.68
671.9	3220.26
672.091	3158.82
672.282	3040.04
672.473	3171.11
672.664	3068.71
672.855	2958.12
673.046	2960.17
673.237	3222.31
673.428	3177.25
673.619	3128.1
673.809	3087.14
674	3154.73
674.191	3099.43
674.382	3214.12
674.573	3089.19
674.764	2999.08
674.954	3128.1
675.145	2988.84
675.336	3064.61
675.527	3095.33
675.717	3046.18
675.908	2958.12
676.099	2986.79
676.289	3162.92
676.48	3097.38
676.671	3117.86
676.861	3046.18
677.052	3115.81
677.243	2984.74
677.433	3027.75
677.624	3060.52
677.814	3050.28
678.005	3107.62
678.195	3021.61
678.386	3076.9
678.576	3017.51
678.767	3093.29
678.957	3173.16
679.148	3001.13
679.338	3128.1
679.529	3029.8
679.719	3089.19
679.909	3056.42
680.1	3089.19
680.29	3156.77
680.481	3119.91
680.671	3154.73
680.861	3070.76
681.052	3244.84
681.242	3212.07
681.432	3152.68
681.622	3144.49
681.813	3183.4
682.003	3083.05
682.193	3117.86
682.383	3283.75
682.573	3203.88
682.764	3134.25
682.954	3248.93
683.144	3158.82
683.334	3115.81
683.524	3167.01
683.714	3334.95
683.904	3214.12
684.094	3244.84
684.284	3203.88
684.474	3212.07
684.664	3195.68
684.854	3177.25
685.044	3160.87
685.234	3101.48
685.424	3066.66
685.614	3050.28
685.804	3107.62
685.994	3089.19
686.184	3101.48
686.374	3134.25
686.564	3027.75
686.753	2958.12
686.943	3025.7
687.133	3044.13
687.323	3095.33
687.513	3048.23
687.702	3033.9
687.892	2958.12
688.082	2898.73
688.272	3097.38
688.461	3031.85
688.651	3035.94
688.841	2904.87
689.03	2958.12
689.22	2861.87
689.41	2949.93
689.599	2949.93
689.789	2868.01
689.979	2833.19
690.168	2974.5
690.358	2896.68
690.547	2722.6
690.737	2820.91
690.926	2874.15
691.116	2853.67
691.305	2771.76
691.495	2808.62
691.684	2626.35
691.874	2786.09
692.063	2745.13
692.252	2736.94
692.442	2741.04
692.631	2618.16
692.82	2695.98
693.01	2755.37
693.199	2609.97
693.388	2652.97
693.578	2626.35
693.767	2612.01
693.956	2718.51
694.146	2591.53
694.335	2528.05
694.524	2554.67
694.713	2679.6
694.902	2433.84
695.092	2526
695.281	2530.09
695.47	2652.97
695.659	2480.94
695.848	2433.84
696.037	2530.09
696.226	2491.18
696.415	2618.16
696.604	2548.53
696.793	2431.79
696.982	2495.28
697.171	2573.1
697.36	2509.62
697.549	2507.57
697.738	2519.85
697.927	2421.55
698.116	2487.09
698.305	2403.12
698.494	2378.55
698.683	2353.97
698.872	2482.99
699.061	2431.79
699.25	2257.71
699.438	2495.28
699.627	2458.42
699.816	2458.42
700.005	2487.09
700.193	2394.93
700.382	2409.26
700.571	2540.33
700.76	2446.13
700.948	2497.33
701.137	2556.72
701.326	2442.03
701.514	2421.55
701.703	2435.89
701.892	2532.14
702.08	2554.67
702.269	2489.14
702.457	2446.13
702.646	2476.85
702.834	2493.23
703.023	2358.07
703.212	2435.89
703.4	2450.22
703.589	2372.4
703.777	2534.19
703.965	2405.17
704.154	2503.47
704.342	2450.22
704.531	2552.62
704.719	2515.76
704.907	2554.67
705.096	2485.04
705.284	2532.14
705.472	2480.94
705.661	2505.52
705.849	2601.77
706.037	2589.49
706.226	2564.91
706.414	2515.76
706.602	2482.99
706.79	2593.58
706.979	2480.94
707.167	2515.76
707.355	2519.85
707.543	2548.53
707.731	2595.63
707.919	2517.81
708.107	2442.03
708.296	2497.33
708.484	2591.53
708.672	2628.4
708.86	2530.09
709.048	2593.58
709.236	2599.73
709.424	2667.31
709.612	2640.69
709.8	2505.52
709.988	2573.1
710.176	2577.2
710.364	2675.5
710.551	2603.82
710.739	2708.27
710.927	2571.05
711.115	2595.63
711.303	2601.77
711.491	2661.16
711.679	2622.25
711.866	2687.79
712.054	2663.21
712.242	2528.05
712.43	2669.36
712.617	2646.83
712.805	2587.44
712.993	2624.3
713.181	2587.44
713.368	2706.22
713.556	2732.84
713.744	2749.23
713.931	2743.08
714.119	2695.98
714.306	2710.32
714.494	2706.22
714.682	2560.81
714.869	2683.69
715.057	2659.12
715.244	2765.61
715.432	2808.62
715.619	2632.49
715.807	2859.82
715.994	2642.73
716.182	2741.04
716.369	2669.36
716.556	2781.99
716.744	2835.24
716.931	2673.45
717.119	2855.72
717.306	2771.76
717.493	2868.01
717.681	2833.19
717.868	2816.81
718.055	2870.06
718.242	2751.28
718.43	2863.91
718.617	2835.24
718.804	2902.83
718.991	2784.04
719.179	2839.34
719.366	2956.07
719.553	2863.91
719.74	2886.44
719.927	2933.54
720.114	2896.68
720.301	2943.78
720.488	2868.01
720.676	2859.82
720.863	2919.21
721.05	2984.74
721.237	3017.51
721.424	3019.56
721.611	3011.37
721.798	3007.27
721.985	2956.07
722.172	2937.64
722.358	2925.35
722.545	2949.93
722.732	2923.3
722.919	3003.18
723.106	2956.07
723.293	2988.84
723.48	3042.09
723.667	2988.84
723.853	3068.71
724.04	3093.29
724.227	3005.22
724.414	2882.35
724.6	3066.66
724.787	3171.11
724.974	3037.99
725.161	3113.77
725.347	3066.66
725.534	3093.29
725.72	3193.64
725.907	3228.45
726.094	3279.65
726.28	3085.09
726.467	3037.99
726.653	3144.49
726.84	3203.88
727.027	3298.08
727.213	3066.66
727.4	3214.12
727.586	3099.43
727.773	3224.36
727.959	3128.1
728.145	3121.96
728.332	3175.2
728.518	3164.97
728.705	3148.58
728.891	3107.62
729.077	3253.03
729.264	3234.6
729.45	3148.58
729.636	3255.08
729.823	3138.34
730.009	3298.08
730.195	3218.21
730.382	3480.35
730.568	3230.5
730.754	3324.71
730.94	3246.88
731.126	3361.57
731.313	3326.75
731.499	3138.34
731.685	3468.06
731.871	3347.23
732.057	3386.15
732.243	3277.6
732.429	3261.22
732.615	3320.61
732.801	3318.56
732.987	3240.74
733.173	3326.75
733.359	3314.47
733.545	3443.49
733.731	3287.84
733.917	3412.77
734.103	3433.25
734.289	3384.1
734.475	3375.91
734.661	3453.73
734.847	3365.67
735.033	3433.25
735.219	3429.15
735.404	3386.15
735.59	3392.29
735.776	3320.61
735.962	3298.08
736.148	3492.64
736.333	3316.51
736.519	3416.87
736.705	3363.62
736.89	3287.84
737.076	3349.28
737.262	3466.02
737.447	3486.5
737.633	3351.33
737.819	3406.63
738.004	3400.48
738.19	3365.67
738.375	3314.47
738.561	3453.73
738.747	3304.23
738.932	3205.92
739.118	3443.49
739.303	3283.75
739.489	3330.85
739.674	3283.75
739.859	3343.14
740.045	3492.64
740.23	3316.51
740.416	3328.8
740.601	3429.15
740.786	3275.56
740.972	3271.46
741.157	3336.99
741.342	3205.92
741.528	3320.61
741.713	3437.34
741.898	3365.67
742.084	3263.27
742.269	3285.8
742.454	3273.51
742.639	3283.75
742.824	3171.11
743.01	3279.65
743.195	3322.66
743.38	3246.88
743.565	3279.65
743.75	3130.15
743.935	3236.64
744.12	3207.97
744.305	3164.97
744.49	3134.25
744.675	3205.92
744.86	3113.77
745.045	3156.77
745.23	3068.71
745.415	3062.57
745.6	3152.68
745.785	3027.75
745.97	2966.31
746.155	3062.57
746.34	3109.67
746.525	3146.53
746.71	3152.68
746.895	2941.74
747.079	3093.29
747.264	2888.49
747.449	2892.59
747.634	2966.31
747.819	2978.6
748.003	2941.74
748.188	2970.41
748.373	2972.46
748.557	2872.11
748.742	2724.65
748.927	2872.11
749.111	2911.02
749.296	2804.52
749.481	2751.28
749.665	2798.38
749.85	2663.21
750.034	2630.45
750.219	2724.65
750.404	2642.73
750.588	2652.97
750.773	2501.42
750.957	2652.97
751.141	2642.73
751.326	2589.49
751.51	2521.9
751.695	2695.98
751.879	2569.01
752.064	2603.82
752.248	2554.67
752.432	2624.3
752.617	2569.01
752.801	2528.05
752.985	2411.31
753.17	2499.38
753.354	2411.31
753.538	2444.08
753.722	2437.94
753.907	2382.64
754.091	2292.53
754.275	2380.59
754.459	2376.5
754.643	2456.37
754.828	2384.69
755.012	2353.97
755.196	2319.15
755.38	2216.76
755.564	2204.47
755.748	2259.76
755.932	2163.51
756.116	2218.8
756.3	2280.24
756.484	2112.31
756.668	2155.32
756.852	2202.42
757.036	2032.44
757.22	2108.21
757.404	2206.52
757.588	2050.87
757.772	2171.7
757.956	2091.83
758.14	1915.7
758.323	2009.91
758.507	1911.61
758.691	2124.6
758.875	2087.73
759.059	1952.57
759.242	1899.32
759.426	1999.67
759.61	1862.46
759.794	2018.1
759.977	1987.38
760.161	1958.71
760.345	1921.85
760.528	1942.33
760.712	1823.55
760.895	1868.6
761.079	1854.27
761.263	1747.77
761.446	1831.74
761.63	1688.38
761.813	1839.93
761.997	1778.49
762.18	1823.55
762.364	1739.58
762.547	1633.08
762.731	1661.76
762.914	1782.59
763.098	1729.34
763.281	1692.48
763.464	1643.32
763.648	1844.03
763.831	1661.76
764.015	1715
764.198	1688.38
764.381	1669.95
764.564	1712.96
764.748	1747.77
764.931	1743.67
765.114	1628.99
765.297	1579.84
765.481	1663.8
765.664	1698.62
765.847	1618.75
766.03	1663.8
766.213	1571.65
766.397	1526.59
766.58	1487.68
766.763	1577.79
766.946	1645.37
767.129	1577.79
767.312	1508.16
767.495	1510.21
767.678	1530.69
767.861	1628.99
768.044	1481.53
768.227	1495.87
768.41	1463.1
768.593	1567.55
768.776	1495.87
768.959	1508.16
769.142	1538.88
769.324	1440.58
769.507	1508.16
769.69	1493.82
769.873	1405.76
770.056	1520.45
770.239	1481.53
770.421	1450.82
770.604	1407.81
770.787	1465.15
770.97	1438.53
771.152	1426.24
771.335	1411.9
771.518	1280.83
771.7	1407.81
771.883	1469.25
772.066	1295.17
772.248	1327.94
772.431	1348.42
772.613	1293.12
772.796	1258.31
772.978	1268.55
773.161	1323.84
773.343	1405.76
773.526	1307.46
773.708	1192.77
773.891	1254.21
774.073	1274.69
774.256	1282.88
774.438	1276.74
774.621	1258.31
774.803	1221.44
774.985	1155.91
775.168	1289.03
775.35	1096.52
775.532	1082.18
775.715	1147.72
775.897	1184.58
776.079	1061.7
776.261	1065.8
776.444	1086.28
776.626	1055.56
776.808	1131.33
776.99	1039.17
777.173	1047.37
777.355	1024.84
777.537	1082.18
777.719	1053.51
777.901	1033.03
778.083	1059.65
778.265	1057.61
778.447	1084.23
778.629	1022.79
778.811	1043.27
778.993	1063.75
779.175	1078.08
779.357	1006.41
779.539	951.11
779.721	961.35
779.903	998.21
780.085	1033.03
780.267	930.63
780.449	985.93
780.631	1010.5
780.812	1004.36
780.994	908.1
781.176	953.16
781.358	963.4
781.54	869.19
781.721	904.01
781.903	887.62
782.085	881.48
782.267	897.86
782.448	836.42
782.63	799.56
782.812	799.56
782.993	873.29
783.175	852.81
783.357	877.38
783.538	848.71
783.72	807.75
783.901	770.89
784.083	719.69
784.264	811.85
784.446	861
784.627	709.45
784.809	805.71
784.99	703.31
785.172	717.64
785.353	738.12
785.535	727.88
785.716	719.69
785.897	631.63
786.079	709.45
786.26	736.07
786.441	777.03
786.623	611.15
786.804	605
786.985	676.68
787.167	713.55
787.348	633.68
787.529	588.62
787.71	707.4
787.891	660.3
788.073	650.06
788.254	621.39
788.435	680.78
788.616	668.49
788.797	570.19
788.978	592.72
789.159	543.57
789.34	670.54
789.522	555.85
789.703	539.47
789.884	531.28
790.065	615.24
790.246	684.87
790.427	586.57
790.607	555.85
790.788	578.38
790.969	547.66
791.15	525.13
791.331	525.13
791.512	617.29
791.693	484.17
791.874	523.09
792.054	570.19
792.235	496.46
792.416	516.94
792.597	549.71
792.778	545.61
792.958	435.02
793.139	498.51
793.32	568.14
793.5	500.56
793.681	494.41
793.862	455.5
794.042	504.65
794.223	543.57
794.404	523.09
794.584	396.11
794.765	443.21
794.945	510.8
795.126	531.28
795.306	504.65
795.487	455.5
795.667	414.54
795.848	475.98
796.028	432.97
796.209	420.69
796.389	428.88
796.57	435.02
796.75	412.5
796.93	398.16
797.111	486.22
797.291	410.45
797.471	492.37
797.652	437.07
797.832	367.44
798.012	488.27
798.192	445.26
798.373	400.21
798.553	426.83
798.733	426.83
798.913	449.36
799.093	365.39
799.274	351.06
799.454	332.62
799.634	389.97
799.814	422.73
799.994	457.55
800.174	344.91
800.354	361.3
800.534	291.66
800.714	322.38
800.894	363.34
801.074	455.5
801.254	342.86
801.434	398.16
801.614	301.9
801.794	338.77
801.974	1080.13
802.154	316.24
802.334	455.5
802.514	353.1
802.693	332.62
802.873	310.1
803.053	426.83
803.233	383.82
803.413	324.43
803.592	256.85
803.772	291.66
803.952	291.66
804.131	291.66
804.311	392.02
804.491	328.53
804.67	211.79
804.85	297.81
805.03	357.2
805.209	381.78
805.389	361.3
805.568	344.91
805.748	355.15
805.928	346.96
806.107	265.04
806.287	361.3
806.466	371.54
806.646	215.89
806.825	308.05
807.004	314.19
807.184	361.3
807.363	316.24
807.543	342.86
807.722	265.04
807.901	285.52
808.081	285.52
808.26	289.62
808.439	351.06
808.619	252.75
808.798	244.56
808.977	295.76
809.156	324.43
809.336	240.47
809.515	287.57
809.694	193.36
809.873	240.47
810.052	289.62
810.231	326.48
810.411	252.75
810.59	336.72
810.769	336.72
810.948	277.33
811.127	219.99
811.306	258.9
811.485	283.47
811.664	248.66
811.843	228.18
812.022	262.99
812.201	277.33
812.38	236.37
812.559	219.99
812.737	226.13
812.916	246.61
813.095	250.71
813.274	250.71
813.453	213.84
813.632	406.35
813.811	246.61
813.989	213.84
814.168	183.12
814.347	195.41
814.526	211.79
814.704	215.89
814.883	185.17
815.062	222.03
815.24	189.27
815.419	115.54
815.598	265.04
815.776	222.03
815.955	226.13
816.133	70.48
816.312	195.41
816.49	164.69
816.669	230.23
816.847	168.79
817.026	211.79
817.204	162.64
817.383	168.79
817.561	244.56
817.74	240.47
817.918	240.47
818.097	244.56
818.275	166.74
818.453	213.84
818.632	195.41
818.81	209.75
818.988	166.74
819.167	115.54
819.345	185.17
819.523	226.13
819.701	219.99
819.879	183.12
820.058	156.5
820.236	199.51
820.414	240.47
820.592	168.79
820.77	195.41
820.948	219.99
821.127	179.03
821.305	222.03
821.483	119.64
821.661	154.45
821.839	168.79
822.017	68.44
822.195	185.17
822.373	219.99
822.551	166.74
822.729	189.27
822.907	160.59
823.085	174.93
823.262	160.59
823.44	162.64
823.618	121.68
823.796	107.35
823.974	129.88
824.152	164.69
824.329	121.68
824.507	170.83
824.685	170.83
824.863	189.27
825.04	201.55
825.218	125.78
825.396	158.55
825.574	164.69
825.751	90.96
825.929	183.12
826.107	121.68
826.284	144.21
826.462	203.6
826.639	156.5
826.817	84.82
826.994	156.5
827.172	170.83
827.349	174.93
827.527	76.63
827.704	99.16
827.882	123.73
828.059	131.92
828.237	54.1
828.414	68.44
828.591	54.1
828.769	113.49
828.946	68.44
829.124	160.59
829.301	160.59
829.478	176.98
829.655	179.03
829.833	174.93
830.01	19.29
830.187	172.88
830.364	119.64
830.542	140.12
830.719	115.54
830.896	146.26
831.073	33.62
831.25	99.16
831.427	179.03
831.604	160.59
831.782	142.16
831.959	74.58
832.136	103.25
832.313	72.53
832.49	95.06
832.667	78.68
832.844	72.53
833.021	66.39
833.198	86.87
833.374	115.54
833.551	84.82
833.728	86.87
833.905	148.31
834.082	66.39
834.259	80.72
834.436	156.5
834.612	35.67
834.789	127.83
834.966	109.4
835.143	66.39
835.319	93.01
835.496	82.77
835.673	113.49
835.85	156.5
836.026	138.07
836.203	160.59
836.38	84.82
836.556	74.58
836.733	105.3
836.909	72.53
837.086	176.98
837.262	43.86
837.439	37.72
837.616	119.64
837.792	45.91
837.968	121.68
838.145	90.96
838.321	33.62
838.498	129.88
838.674	99.16
838.851	127.83
839.027	88.92
839.203	84.82
839.38	72.53
839.556	76.63
839.732	103.25
839.909	93.01
840.085	156.5
840.261	60.24
840.437	33.62
840.614	66.39
840.79	72.53
840.966	109.4
841.142	179.03
841.318	-7.34
841.494	84.82
841.671	80.72
841.847	58.2
842.023	9.05
842.199	64.34
842.375	133.97
842.551	60.24
842.727	35.67
842.903	170.83
843.079	43.86
843.255	160.59
843.431	105.3
843.607	109.4
843.783	37.72
843.959	86.87
844.134	54.1
844.31	88.92
844.486	-15.53
844.662	90.96
844.838	90.96
845.013	80.72
845.189	78.68
845.365	97.11
845.541	74.58
845.716	29.52
845.892	50
846.068	37.72
846.244	25.43
846.419	66.39
846.595	-17.58
846.77	101.2
846.946	129.88
847.122	95.06
847.297	-3.24
847.473	50
847.648	54.1
847.824	101.2
847.999	52.05
848.175	86.87
848.35	101.2
848.526	107.35
848.701	45.91
848.876	17.24
849.052	70.48
849.227	90.96
849.403	95.06
849.578	62.29
849.753	39.76
849.929	80.72
850.104	29.52
850.279	62.29
850.454	56.15
850.63	19.29
850.805	93.01
850.98	66.39
851.155	-9.39
851.33	45.91
851.505	9.05
851.681	90.96
851.856	25.43
852.031	111.44
852.206	-5.29
852.381	11.09
852.556	56.15
852.731	111.44
852.906	56.15
853.081	84.82
853.256	113.49
853.431	76.63
853.606	-11.43
853.781	17.24
853.956	-33.96
854.131	-56.49
854.305	68.44
854.48	15.19
854.655	-21.67
854.83	41.81
855.005	13.14
855.18	74.58
855.354	41.81
855.529	17.24
855.704	-50.35
855.879	60.24
856.053	-1.19
856.228	88.92
856.403	-50.35
856.577	31.57
856.752	7
856.926	31.57
857.101	17.24
857.276	68.44
857.45	88.92
857.625	103.25
857.799	27.48
857.974	19.29
858.148	29.52
858.323	41.81
858.497	37.72
858.672	4.95
858.846	39.76
859.02	52.05
859.195	-3.24
859.369	33.62
859.543	-7.34
859.718	17.24
859.892	35.67
860.066	54.1
860.241	43.86
860.415	54.1
860.589	15.19
860.763	88.92
860.938	-29.87
861.112	-19.63
861.286	-11.43
861.46	37.72
861.634	-62.63
861.808	54.1
861.982	37.72
862.157	-19.63
862.331	-23.72
862.505	-17.58
862.679	-3.24
862.853	-25.77
863.027	25.43
863.201	119.64
863.375	-7.34
863.549	-3.24
863.722	50
863.896	90.96
864.07	-5.29
864.244	-3.24
864.418	47.96
864.592	29.52
864.766	2.9
864.939	37.72
865.113	-60.59
865.287	66.39
865.461	-17.58
865.634	29.52
865.808	86.87
865.982	31.57
866.156	54.1
866.329	56.15
866.503	35.67
866.676	-23.72
866.85	35.67
867.024	37.72
867.197	64.34
867.371	35.67
867.544	-13.48
867.718	25.43
867.891	0.85
868.065	-38.06
868.238	2.9
868.412	52.05
868.585	-17.58
868.759	27.48
868.932	2.9
869.105	-36.01
869.279	-36.01
869.452	17.24
869.625	58.2
869.799	9.05
869.972	-9.39
870.145	-17.58
870.319	78.68
870.492	-7.34
870.665	-31.91
870.838	50
871.011	4.95
871.185	-27.82
871.358	29.52
871.531	27.48
871.704	56.15
871.877	-31.91
872.05	25.43
872.223	-11.43
872.396	45.91
872.569	0.85
872.742	25.43
872.915	127.83
873.088	-40.11
873.261	-38.06
873.434	66.39
873.607	-1.19
873.78	56.15
873.953	-15.53
874.126	37.72
874.299	99.16
874.471	-79.02
874.644	-25.77
874.817	62.29
874.99	50
875.163	35.67
875.335	-31.91
875.508	-7.34
875.681	4.95
875.853	-21.67
876.026	41.81
876.199	19.29
876.371	23.38
876.544	-7.34
876.717	39.76
876.889	-5.29
877.062	23.38
877.234	95.06
877.407	21.33
877.579	-21.67
877.752	-72.87
877.924	-5.29
878.097	-13.48
878.269	86.87
878.442	86.87
878.614	15.19
878.786	-40.11
878.959	31.57
879.131	-5.29
879.303	-83.11
879.476	4.95
879.648	-40.11
879.82	4.95
879.993	-62.63
880.165	-15.53
880.337	-40.11
880.509	27.48
880.681	-17.58
880.854	2.9
881.026	39.76
881.198	62.29
881.37	66.39
881.542	2.9
881.714	-50.35
881.886	9.05
882.058	37.72
882.23	-44.2
882.402	29.52
882.574	-62.63
882.746	25.43
882.918	9.05
883.09	-15.53
883.262	-7.34
883.434	29.52
883.606	43.86
883.778	7
883.95	84.82
884.122	-27.82
884.293	25.43
884.465	9.05
884.637	-1.19
884.809	-23.72
884.98	29.52
885.152	43.86
885.324	-15.53
885.496	7
885.667	66.39
885.839	66.39
886.011	109.4
886.182	0.85
886.354	-56.49
886.525	-33.96
886.697	45.91
886.869	-23.72
887.04	-29.87
887.212	43.86
887.383	27.48
887.555	37.72
887.726	-21.67
887.897	31.57
888.069	45.91
888.24	-21.67
888.412	-33.96
888.583	-29.87
888.754	11.09
888.926	-5.29
889.097	-25.77
889.268	-38.06
889.44	101.2
889.611	-38.06
889.782	52.05
889.953	-48.3
890.125	95.06
890.296	-13.48
890.467	29.52
890.638	0.85
890.809	-33.96
890.98	9.05
891.151	58.2
891.323	47.96
891.494	50
891.665	21.33
891.836	0.85
892.007	-9.39
892.178	56.15
892.349	-13.48
892.52	41.81
892.691	-17.58
892.862	-5.29
893.032	-64.68
893.203	43.86
893.374	-21.67
893.545	37.72
893.716	-13.48
893.887	70.48
894.057	-9.39
894.228	58.2
894.399	47.96
894.57	21.33
894.74	-40.11
894.911	-54.44
895.082	-19.63
895.253	13.14
895.423	21.33
895.594	0.85
895.764	17.24
895.935	-7.34
896.106	-25.77
896.276	0.85
896.447	-50.35
896.617	-56.49
896.788	-1.19
896.958	35.67
897.129	-29.87
897.299	13.14
897.47	33.62
897.64	60.24
897.81	-21.67
897.981	-33.96
898.151	9.05
898.322	4.95
898.492	105.3
898.662	-46.25
898.832	-44.2
899.003	33.62
899.173	-15.53
899.343	-76.97
899.513	-64.68
