Data from USB4F104151__83__12-24-27-295.txt Node

Date: Fri Mar 14 12:24:27 EDT 2025
User: louis
Spectrometer: USB4F10415
Trigger mode: 4
Integration Time (sec): 3.500000E-2
Scans to average: 1
Electric dark correction enabled: true
Nonlinearity correction enabled: false
Boxcar width: 0
XAxis mode: Wavelengths
Number of Pixels in Spectrum: 3648
>>>>>Begin Spectral Data<<<<<
178.204	-127.83
178.424	-127.83
178.644	-127.83
178.864	-181.07
179.084	-148.31
179.304	-0.85
179.524	-39.76
179.744	-45.91
179.964	56.49
180.184	17.58
180.404	21.67
180.624	-33.62
180.844	-0.85
181.064	-29.52
181.283	40.11
181.503	17.58
181.723	-2.9
181.943	-80.72
182.163	46.25
182.383	-41.81
182.602	79.02
182.822	66.73
183.042	7.34
183.262	38.06
183.482	-15.19
183.701	1.19
183.921	52.39
184.141	-21.33
184.361	54.44
184.58	29.87
184.8	44.2
185.02	46.25
185.239	87.21
185.459	11.43
185.679	40.11
185.898	-25.43
186.118	66.73
186.338	44.2
186.557	31.91
186.777	-9.05
186.997	101.55
187.216	68.78
187.436	-15.19
187.655	68.78
187.875	99.5
188.095	9.39
188.314	103.59
188.534	31.91
188.753	-33.62
188.973	99.5
189.192	109.74
189.412	33.96
189.631	-4.95
189.851	19.63
190.07	5.29
190.29	-43.86
190.509	-13.14
190.729	-29.52
190.948	33.96
191.168	220.33
191.387	54.44
191.607	9.39
191.826	70.83
192.045	-9.05
192.265	-11.09
192.484	52.39
192.704	13.48
192.923	-23.38
193.142	99.5
193.362	56.49
193.581	60.59
193.8	27.82
194.02	40.11
194.239	83.11
194.458	109.74
194.678	17.58
194.897	105.64
195.116	-13.14
195.335	-13.14
195.555	3.24
195.774	5.29
195.993	54.44
196.212	-60.24
196.432	40.11
196.651	13.48
196.87	-9.05
197.089	64.68
197.308	89.26
197.528	93.35
197.747	3.24
197.966	3.24
198.185	70.83
198.404	70.83
198.623	91.31
198.842	13.48
199.062	70.83
199.281	79.02
199.5	-62.29
199.719	81.07
199.938	56.49
200.157	68.78
200.376	42.15
200.595	11.43
200.814	21.67
201.033	-15.19
201.252	70.83
201.471	19.63
201.69	42.15
201.909	-7
202.128	68.78
202.347	83.11
202.566	60.59
202.785	76.97
203.004	52.39
203.223	128.17
203.442	-19.29
203.661	15.53
203.879	52.39
204.098	138.41
204.317	-0.85
204.536	117.93
204.755	-2.9
204.974	17.58
205.193	15.53
205.411	107.69
205.63	50.35
205.849	76.97
206.068	-11.09
206.287	46.25
206.505	66.73
206.724	103.59
206.943	70.83
207.162	21.67
207.381	-35.67
207.599	83.11
207.818	15.53
208.037	-43.86
208.255	33.96
208.474	62.63
208.693	-35.67
208.911	40.11
209.13	13.48
209.349	38.06
209.567	-7
209.786	64.68
210.005	11.43
210.223	-7
210.442	3.24
210.661	15.53
210.879	36.01
211.098	9.39
211.316	70.83
211.535	89.26
211.753	62.63
211.972	38.06
212.191	54.44
212.409	128.17
212.628	93.35
212.846	19.63
213.065	7.34
213.283	122.02
213.502	-13.14
213.72	-11.09
213.938	87.21
214.157	62.63
214.375	33.96
214.594	3.24
214.812	21.67
215.031	-11.09
215.249	-43.86
215.467	11.43
215.686	72.87
215.904	56.49
216.122	76.97
216.341	103.59
216.559	40.11
216.778	85.16
216.996	56.49
217.214	-9.05
217.432	74.92
217.651	50.35
217.869	93.35
218.087	27.82
218.306	-37.72
218.524	111.78
218.742	7.34
218.96	74.92
219.179	-50
219.397	83.11
219.615	83.11
219.833	48.3
220.051	-11.09
220.27	91.31
220.488	62.63
220.706	68.78
220.924	-17.24
221.142	23.72
221.36	48.3
221.578	9.39
221.796	11.43
222.015	38.06
222.233	85.16
222.451	48.3
222.669	29.87
222.887	38.06
223.105	46.25
223.323	70.83
223.541	42.15
223.759	1.19
223.977	54.44
224.195	13.48
224.413	81.07
224.631	25.77
224.849	48.3
225.067	85.16
225.285	-78.68
225.503	5.29
225.721	-25.43
225.939	44.2
226.157	25.77
226.375	156.84
226.592	56.49
226.81	29.87
227.028	42.15
227.246	105.64
227.464	60.59
227.682	44.2
227.9	29.87
228.117	44.2
228.335	83.11
228.553	21.67
228.771	31.91
228.989	64.68
229.206	72.87
229.424	-31.57
229.642	27.82
229.86	-19.29
230.077	9.39
230.295	72.87
230.513	56.49
230.731	9.39
230.948	21.67
231.166	46.25
231.384	9.39
231.601	21.67
231.819	58.54
232.037	27.82
232.254	5.29
232.472	46.25
232.689	-4.95
232.907	62.63
233.125	38.06
233.342	50.35
233.56	21.67
233.777	-4.95
233.995	46.25
234.213	87.21
234.43	-41.81
234.648	58.54
234.865	99.5
235.083	48.3
235.3	17.58
235.518	89.26
235.735	95.4
235.953	81.07
236.17	11.43
236.388	-37.72
236.605	93.35
236.822	154.79
237.04	58.54
237.257	50.35
237.475	-4.95
237.692	93.35
237.909	5.29
238.127	25.77
238.344	40.11
238.562	44.2
238.779	-50
238.996	-17.24
239.214	11.43
239.431	27.82
239.648	7.34
239.865	97.45
240.083	19.63
240.3	-2.9
240.517	-39.76
240.735	29.87
240.952	79.02
241.169	66.73
241.386	-19.29
241.603	19.63
241.821	-17.24
242.038	21.67
242.255	33.96
242.472	-9.05
242.689	60.59
242.907	62.63
243.124	13.48
243.341	-27.48
243.558	5.29
243.775	19.63
243.992	-19.29
244.209	44.2
244.426	136.36
244.643	52.39
244.86	15.53
245.078	76.97
245.295	48.3
245.512	7.34
245.729	74.92
245.946	42.15
246.163	3.24
246.38	95.4
246.597	58.54
246.814	-0.85
247.031	-78.68
247.248	52.39
247.464	40.11
247.681	13.48
247.898	31.91
248.115	76.97
248.332	-25.43
248.549	48.3
248.766	162.98
248.983	48.3
249.2	46.25
249.417	44.2
249.633	-39.76
249.85	40.11
250.067	5.29
250.284	66.73
250.501	93.35
250.717	103.59
250.934	42.15
251.151	-9.05
251.368	13.48
251.585	107.69
251.801	52.39
252.018	40.11
252.235	48.3
252.451	-2.9
252.668	3.24
252.885	81.07
253.102	91.31
253.318	11.43
253.535	-11.09
253.752	-11.09
253.968	-23.38
254.185	38.06
254.401	40.11
254.618	9.39
254.835	48.3
255.051	23.72
255.268	23.72
255.484	21.67
255.701	-11.09
255.917	62.63
256.134	27.82
256.351	36.01
256.567	3.24
256.784	29.87
257	76.97
257.217	17.58
257.433	29.87
257.65	99.5
257.866	54.44
258.082	-80.72
258.299	44.2
258.515	44.2
258.732	15.53
258.948	27.82
259.165	95.4
259.381	-31.57
259.597	1.19
259.814	9.39
260.03	54.44
260.246	58.54
260.463	72.87
260.679	99.5
260.895	60.59
261.112	13.48
261.328	13.48
261.544	21.67
261.761	91.31
261.977	-31.57
262.193	11.43
262.409	33.96
262.626	21.67
262.842	70.83
263.058	48.3
263.274	-15.19
263.49	-17.24
263.707	66.73
263.923	5.29
264.139	40.11
264.355	17.58
264.571	76.97
264.787	11.43
265.004	68.78
265.22	89.26
265.436	-80.72
265.652	19.63
265.868	29.87
266.084	38.06
266.3	79.02
266.516	-2.9
266.732	9.39
266.948	54.44
267.164	85.16
267.38	-4.95
267.596	-0.85
267.812	126.12
268.028	3.24
268.244	46.25
268.46	85.16
268.676	52.39
268.892	91.31
269.108	-37.72
269.324	-23.38
269.54	-64.34
269.756	85.16
269.972	-35.67
270.188	17.58
270.403	-37.72
270.619	124.07
270.835	58.54
271.051	5.29
271.267	23.72
271.483	1.19
271.698	5.29
271.914	36.01
272.13	70.83
272.346	17.58
272.562	11.43
272.777	72.87
272.993	21.67
273.209	-33.62
273.425	-7
273.64	7.34
273.856	48.3
274.072	38.06
274.287	7.34
274.503	-11.09
274.719	44.2
274.934	60.59
275.15	-11.09
275.366	68.78
275.581	-19.29
275.797	62.63
276.012	25.77
276.228	-23.38
276.444	13.48
276.659	52.39
276.875	9.39
277.09	38.06
277.306	99.5
277.521	122.02
277.737	-19.29
277.952	15.53
278.168	111.78
278.383	126.12
278.599	40.11
278.814	60.59
279.03	101.55
279.245	25.77
279.461	42.15
279.676	-9.05
279.892	-7
280.107	17.58
280.322	50.35
280.538	64.68
280.753	11.43
280.969	93.35
281.184	44.2
281.399	31.91
281.615	-0.85
281.83	36.01
282.045	60.59
282.26	25.77
282.476	-13.14
282.691	50.35
282.906	83.11
283.122	42.15
283.337	25.77
283.552	62.63
283.767	-23.38
283.983	46.25
284.198	31.91
284.413	50.35
284.628	9.39
284.843	52.39
285.058	27.82
285.274	31.91
285.489	101.55
285.704	68.78
285.919	-47.96
286.134	-37.72
286.349	25.77
286.564	25.77
286.779	142.5
286.995	87.21
287.21	50.35
287.425	85.16
287.64	50.35
287.855	81.07
288.07	38.06
288.285	115.88
288.5	74.92
288.715	9.39
288.93	11.43
289.145	60.59
289.36	76.97
289.575	17.58
289.79	25.77
290.004	27.82
290.219	50.35
290.434	-31.57
290.649	-27.48
290.864	150.7
291.079	23.72
291.294	52.39
291.509	15.53
291.724	5.29
291.938	52.39
292.153	60.59
292.368	13.48
292.583	70.83
292.798	105.64
293.012	91.31
293.227	87.21
293.442	15.53
293.657	79.02
293.871	11.43
294.086	40.11
294.301	68.78
294.516	74.92
294.73	19.63
294.945	19.63
295.16	-31.57
295.374	56.49
295.589	21.67
295.804	-80.72
296.018	5.29
296.233	95.4
296.447	38.06
296.662	25.77
296.877	107.69
297.091	56.49
297.306	9.39
297.52	31.91
297.735	25.77
297.949	29.87
298.164	40.11
298.378	25.77
298.593	-39.76
298.807	13.48
299.022	44.2
299.236	93.35
299.451	91.31
299.665	70.83
299.88	9.39
300.094	48.3
300.309	79.02
300.523	-60.24
300.737	19.63
300.952	70.83
301.166	76.97
301.381	9.39
301.595	27.82
301.809	5.29
302.024	38.06
302.238	85.16
302.452	111.78
302.667	38.06
302.881	62.63
303.095	91.31
303.309	83.11
303.524	64.68
303.738	109.74
303.952	-72.53
304.166	27.82
304.381	-25.43
304.595	-4.95
304.809	-11.09
305.023	134.31
305.237	21.67
305.452	23.72
305.666	95.4
305.88	29.87
306.094	48.3
306.308	38.06
306.522	40.11
306.736	23.72
306.95	124.07
307.164	76.97
307.379	46.25
307.593	70.83
307.807	44.2
308.021	113.83
308.235	42.15
308.449	-50
308.663	38.06
308.877	56.49
309.091	15.53
309.305	81.07
309.519	-7
309.733	89.26
309.947	-43.86
310.161	79.02
310.374	93.35
310.588	44.2
310.802	60.59
311.016	27.82
311.23	66.73
311.444	70.83
311.658	29.87
311.872	85.16
312.085	64.68
312.299	76.97
312.513	64.68
312.727	9.39
312.941	79.02
313.154	17.58
313.368	156.84
313.582	23.72
313.796	36.01
314.009	42.15
314.223	76.97
314.437	50.35
314.651	64.68
314.864	11.43
315.078	36.01
315.292	17.58
315.505	81.07
315.719	11.43
315.933	31.91
316.146	48.3
316.36	72.87
316.573	23.72
316.787	70.83
317.001	11.43
317.214	33.96
317.428	76.97
317.641	-4.95
317.855	-21.33
318.068	56.49
318.282	68.78
318.495	29.87
318.709	48.3
318.922	56.49
319.136	117.93
319.349	74.92
319.563	19.63
319.776	-4.95
319.99	70.83
320.203	21.67
320.417	68.78
320.63	13.48
320.843	76.97
321.057	72.87
321.27	21.67
321.483	-35.67
321.697	62.63
321.91	31.91
322.124	11.43
322.337	140.46
322.55	93.35
322.763	42.15
322.977	66.73
323.19	15.53
323.403	89.26
323.617	122.02
323.83	48.3
324.043	31.91
324.256	62.63
324.469	64.68
324.683	38.06
324.896	-41.81
325.109	13.48
325.322	-2.9
325.535	40.11
325.748	27.82
325.962	-21.33
326.175	29.87
326.388	91.31
326.601	70.83
326.814	9.39
327.027	50.35
327.24	83.11
327.453	25.77
327.666	17.58
327.879	87.21
328.092	33.96
328.305	40.11
328.518	29.87
328.731	-21.33
328.944	62.63
329.157	95.4
329.37	58.54
329.583	111.78
329.796	109.74
330.009	-37.72
330.222	99.5
330.435	-7
330.648	21.67
330.861	33.96
331.073	68.78
331.286	23.72
331.499	115.88
331.712	-23.38
331.925	33.96
332.138	29.87
332.35	76.97
332.563	-29.52
332.776	113.83
332.989	13.48
333.202	7.34
333.414	38.06
333.627	17.58
333.84	50.35
334.053	91.31
334.265	-4.95
334.478	21.67
334.691	7.34
334.903	64.68
335.116	31.91
335.329	115.88
335.541	76.97
335.754	-17.24
335.966	-25.43
336.179	40.11
336.392	-21.33
336.604	58.54
336.817	68.78
337.029	83.11
337.242	5.29
337.454	107.69
337.667	60.59
337.88	109.74
338.092	-45.91
338.305	31.91
338.517	3.24
338.729	38.06
338.942	93.35
339.154	13.48
339.367	54.44
339.579	46.25
339.792	-35.67
340.004	29.87
340.217	40.11
340.429	52.39
340.641	87.21
340.854	83.11
341.066	36.01
341.278	50.35
341.491	87.21
341.703	56.49
341.915	-17.24
342.128	9.39
342.34	91.31
342.552	-11.09
342.764	46.25
342.977	3.24
343.189	124.07
343.401	56.49
343.613	40.11
343.826	15.53
344.038	7.34
344.25	36.01
344.462	-2.9
344.674	62.63
344.886	-21.33
345.099	44.2
345.311	70.83
345.523	1.19
345.735	9.39
345.947	42.15
346.159	38.06
346.371	74.92
346.583	38.06
346.795	-7
347.007	27.82
347.219	29.87
347.431	64.68
347.643	111.78
347.855	31.91
348.067	68.78
348.279	-13.14
348.491	15.53
348.703	-27.48
348.915	-54.1
349.127	9.39
349.339	113.83
349.551	31.91
349.763	95.4
349.975	-11.09
350.187	105.64
350.399	128.17
350.61	52.39
350.822	23.72
351.034	48.3
351.246	23.72
351.458	187.56
351.669	31.91
351.881	132.26
352.093	-0.85
352.305	97.45
352.517	56.49
352.728	93.35
352.94	-13.14
353.152	89.26
353.363	17.58
353.575	105.64
353.787	122.02
353.999	50.35
354.21	60.59
354.422	44.2
354.633	62.63
354.845	38.06
355.057	85.16
355.268	-25.43
355.48	83.11
355.692	38.06
355.903	42.15
356.115	97.45
356.326	-60.24
356.538	89.26
356.749	66.73
356.961	146.6
357.172	54.44
357.384	31.91
357.595	187.56
357.807	25.77
358.018	38.06
358.23	52.39
358.441	150.7
358.653	62.63
358.864	11.43
359.075	42.15
359.287	95.4
359.498	68.78
359.709	95.4
359.921	36.01
360.132	128.17
360.344	111.78
360.555	68.78
360.766	36.01
360.977	99.5
361.189	83.11
361.4	-29.52
361.611	74.92
361.823	101.55
362.034	-2.9
362.245	-19.29
362.456	21.67
362.667	38.06
362.879	105.64
363.09	29.87
363.301	107.69
363.512	38.06
363.723	27.82
363.935	64.68
364.146	95.4
364.357	46.25
364.568	-13.14
364.779	5.29
364.99	156.84
365.201	-23.38
365.412	97.45
365.623	3.24
365.834	91.31
366.045	-15.19
366.256	60.59
366.467	83.11
366.678	60.59
366.889	81.07
367.1	-33.62
367.311	40.11
367.522	7.34
367.733	70.83
367.944	72.87
368.155	66.73
368.366	89.26
368.577	111.78
368.788	42.15
368.999	-47.96
369.209	89.26
369.42	150.7
369.631	117.93
369.842	1.19
370.053	48.3
370.264	62.63
370.474	-37.72
370.685	3.24
370.896	-15.19
371.107	109.74
371.317	76.97
371.528	-4.95
371.739	56.49
371.95	60.59
372.16	74.92
372.371	-19.29
372.582	7.34
372.792	87.21
373.003	48.3
373.214	54.44
373.424	87.21
373.635	62.63
373.846	70.83
374.056	52.39
374.267	54.44
374.477	27.82
374.688	-39.76
374.898	-9.05
375.109	33.96
375.319	5.29
375.53	64.68
375.74	81.07
375.951	58.54
376.161	27.82
376.372	29.87
376.582	33.96
376.793	-9.05
377.003	-4.95
377.214	130.22
377.424	7.34
377.635	19.63
377.845	83.11
378.055	115.88
378.266	21.67
378.476	40.11
378.686	105.64
378.897	126.12
379.107	89.26
379.317	91.31
379.528	119.98
379.738	101.55
379.948	7.34
380.158	79.02
380.369	72.87
380.579	81.07
380.789	68.78
380.999	31.91
381.21	136.36
381.42	107.69
381.63	-35.67
381.84	-2.9
382.05	97.45
382.261	109.74
382.471	136.36
382.681	64.68
382.891	234.66
383.101	52.39
383.311	19.63
383.521	113.83
383.731	70.83
383.941	83.11
384.151	40.11
384.361	107.69
384.571	103.59
384.781	3.24
384.991	150.7
385.201	144.55
385.411	64.68
385.621	64.68
385.831	91.31
386.041	42.15
386.251	1.19
386.461	68.78
386.671	46.25
386.881	79.02
387.091	64.68
387.301	79.02
387.511	48.3
387.72	19.63
387.93	52.39
388.14	31.91
388.35	81.07
388.56	140.46
388.769	148.65
388.979	54.44
389.189	97.45
389.399	56.49
389.609	56.49
389.818	11.43
390.028	87.21
390.238	44.2
390.447	54.44
390.657	46.25
390.867	25.77
391.076	11.43
391.286	76.97
391.496	25.77
391.705	9.39
391.915	165.03
392.125	128.17
392.334	76.97
392.544	167.08
392.753	60.59
392.963	23.72
393.172	29.87
393.382	50.35
393.591	169.13
393.801	54.44
394.01	113.83
394.22	111.78
394.429	117.93
394.639	189.61
394.848	101.55
395.058	99.5
395.267	64.68
395.477	83.11
395.686	36.01
395.895	154.79
396.105	126.12
396.314	62.63
396.524	46.25
396.733	95.4
396.942	122.02
397.152	148.65
397.361	70.83
397.57	62.63
397.78	76.97
397.989	46.25
398.198	97.45
398.407	85.16
398.617	132.26
398.826	101.55
399.035	142.5
399.244	74.92
399.453	154.79
399.663	158.89
399.872	31.91
400.081	72.87
400.29	89.26
400.499	81.07
400.708	162.98
400.917	83.11
401.127	97.45
401.336	140.46
401.545	169.13
401.754	76.97
401.963	109.74
402.172	44.2
402.381	91.31
402.59	113.83
402.799	89.26
403.008	126.12
403.217	74.92
403.426	83.11
403.635	50.35
403.844	83.11
404.053	62.63
404.262	111.78
404.471	162.98
404.68	126.12
404.888	179.37
405.097	111.78
405.306	109.74
405.515	150.7
405.724	152.74
405.933	76.97
406.142	140.46
406.35	208.04
406.559	158.89
406.768	142.5
406.977	224.42
407.185	87.21
407.394	152.74
407.603	140.46
407.812	203.94
408.02	216.23
408.229	210.09
408.438	167.08
408.646	210.09
408.855	185.51
409.064	249
409.272	236.71
409.481	240.81
409.69	289.96
409.898	257.19
410.107	277.67
410.315	320.68
410.524	232.62
410.733	257.19
410.941	230.57
411.15	308.39
411.358	289.96
411.567	382.12
411.775	326.82
411.984	296.1
412.192	337.06
412.401	365.73
412.609	375.97
412.818	396.45
413.026	396.45
413.234	412.84
413.443	461.99
413.651	476.32
413.86	435.36
414.068	484.52
414.276	531.62
414.485	525.47
414.693	582.82
414.901	615.59
415.11	548
415.318	545.95
415.526	609.44
415.734	677.02
415.943	674.98
416.151	638.11
416.359	666.78
416.567	738.46
416.776	822.43
416.984	908.44
417.192	834.72
417.4	855.2
417.608	851.1
417.817	851.1
418.025	963.74
418.233	900.25
418.441	973.98
418.649	1072.28
418.857	937.12
419.065	1127.58
419.273	1115.29
419.481	1195.16
419.689	1174.68
419.897	1240.22
420.105	1307.8
420.313	1297.56
420.521	1397.91
420.729	1410.2
420.937	1348.76
421.145	1514.64
421.353	1522.84
421.561	1612.95
421.769	1703.06
421.977	1617.04
422.185	1588.37
422.393	1744.02
422.601	1856.65
422.809	1832.08
423.017	1840.27
423.224	1840.27
423.432	2094.22
423.64	2069.64
423.848	2202.76
424.056	2133.13
424.263	2442.37
424.471	2331.78
424.679	2448.52
424.887	2499.72
425.094	2647.17
425.302	2653.31
425.51	2688.13
425.718	2806.91
425.925	2821.25
426.133	2882.69
426.341	3054.72
426.548	3359.86
426.756	3265.66
426.964	3222.65
427.171	3390.58
427.379	3519.6
427.586	3622
427.794	3642.48
428.001	3912.81
428.209	3941.49
428.417	3953.77
428.624	4287.59
428.832	4416.62
429.039	4277.35
429.247	4301.93
429.454	4607.08
429.662	4856.93
429.869	4844.64
430.076	5020.77
430.284	4838.5
430.491	5112.92
430.699	5448.79
430.906	5364.82
431.114	5422.17
431.321	5608.53
431.528	5882.96
431.736	6155.34
431.943	6409.29
432.15	6243.4
432.358	6202.44
432.565	6638.66
432.772	6663.24
432.979	6982.72
433.187	6978.62
433.394	7195.71
433.601	7416.89
433.808	7539.77
434.016	7486.52
434.223	7996.46
434.43	8266.8
434.637	8277.04
434.844	8422.44
435.052	8961.06
435.259	8827.94
435.466	8842.28
435.673	8707.11
435.88	9501.72
436.087	9985.04
436.294	9978.9
436.501	9890.84
436.708	9968.66
436.915	10220.56
437.122	10773.51
437.329	10697.74
437.537	10994.69
437.743	11324.41
437.95	11174.91
438.157	11664.38
438.364	12166.13
438.571	11938.8
438.778	11963.38
438.985	13179.87
439.192	12772.33
439.399	13177.83
439.606	12827.62
439.813	13724.63
440.02	14224.34
440.227	14117.84
440.433	14025.68
440.64	14635.98
440.847	14355.41
441.054	14793.67
441.261	15862.71
441.467	15514.56
441.674	15879.1
441.881	16438.19
442.088	16417.71
442.294	16206.77
442.501	16595.89
442.708	17181.6
442.914	17744.8
443.121	18432.91
443.328	18195.35
443.534	19370.88
443.741	18711.44
443.948	18371.47
444.154	19735.42
444.361	19544.96
444.568	19827.58
444.774	20192.12
444.981	20034.42
445.187	20761.45
445.394	21900.12
445.6	21289.83
445.807	23399.24
446.013	22315.86
446.22	22700.88
446.426	23700.29
446.633	23718.72
446.839	24625.97
447.046	23491.4
447.252	24900.4
447.459	24847.15
447.665	24691.51
447.871	25926.43
448.078	27116.3
448.284	25862.94
448.491	26368.79
448.697	27687.68
448.903	28089.09
449.11	28297.98
449.316	27726.6
449.522	28349.18
449.728	29135.6
449.935	29004.53
450.141	29010.67
450.347	30112.48
450.553	29018.86
450.76	29174.51
450.966	30229.21
451.172	30010.08
451.378	30378.72
451.584	30079.71
451.791	30862.04
451.997	30929.62
452.203	31226.57
452.409	31328.97
452.615	30864.08
452.821	29924.07
453.027	29436.65
453.233	31402.7
453.44	30020.32
453.646	30362.33
453.852	30169.82
454.058	30776.02
454.264	29706.98
454.47	30360.28
454.676	30073.57
454.882	30798.55
455.088	27958.02
455.294	28879.6
455.5	28908.27
455.705	29426.41
455.911	28310.27
456.117	27446.02
456.323	27280.14
456.529	25672.48
456.735	26616.6
456.941	26180.38
457.147	25895.71
457.352	25295.66
457.558	24757.04
457.764	25019.18
457.97	24460.09
458.176	23900.99
458.381	23524.16
458.587	22709.07
458.793	22877.01
458.999	21519.2
459.204	22911.82
459.41	22059.87
459.616	20751.21
459.821	21031.79
460.027	20554.61
460.233	20673.39
460.438	19401.6
460.644	19542.91
460.85	18832.27
461.055	18332.56
461.261	18377.62
461.466	17136.55
461.672	16468.91
461.878	17472.42
462.083	16518.06
462.289	15993.78
462.494	15774.65
462.7	15262.66
462.905	14701.51
463.111	15414.21
463.316	15406.02
463.522	15256.51
463.727	15160.26
463.932	14918.6
464.138	14912.46
464.343	15039.43
464.549	14414.8
464.754	15268.8
464.959	14744.52
465.165	14760.91
465.37	14121.94
465.575	13923.29
465.781	14093.27
465.986	14355.41
466.191	13849.56
466.397	13550.56
466.602	12911.59
466.807	13601.76
467.012	13493.21
467.218	13616.09
467.423	13155.3
467.628	13470.69
467.833	13913.05
468.038	13380.57
468.244	13016.04
468.449	13525.98
468.654	13081.57
468.859	12895.21
469.064	13011.94
469.269	12350.45
469.474	12428.27
469.679	12745.7
469.885	12289.01
470.09	12483.56
470.295	12510.19
470.5	12190.7
470.705	12350.45
470.91	11848.69
471.115	11791.35
471.32	12135.41
471.525	12149.75
471.73	11779.06
471.935	11731.96
472.139	11150.34
472.344	11320.32
472.549	11258.88
472.754	11287.55
472.959	10918.92
473.164	10757.13
473.369	10626.06
473.574	10925.06
473.778	10814.47
473.983	10822.66
474.188	10791.94
474.393	10404.88
474.598	10243.09
474.802	10021.91
475.007	9995.28
475.212	10040.34
475.417	9573.4
475.621	9835.54
475.826	9909.27
476.031	9575.45
476.235	9532.44
476.44	9436.19
476.645	9376.8
476.849	9247.77
477.054	9251.87
477.259	8977.44
477.463	9128.99
477.668	9083.94
477.872	9077.79
478.077	8842.28
478.282	8670.25
478.486	8381.48
478.691	8555.56
478.895	8408.11
479.1	8414.25
479.304	8315.95
479.509	8088.62
479.713	8287.28
479.918	8086.58
480.122	8133.68
480.326	8170.54
480.531	8391.72
480.735	8207.41
480.94	8141.87
481.144	8332.33
481.348	7914.55
481.553	8037.42
481.757	7722.04
481.961	7914.55
482.166	8029.23
482.37	7996.46
482.574	7797.81
482.778	7734.32
482.983	7992.37
483.187	7830.58
483.391	7793.72
483.595	7851.06
483.8	7775.28
484.004	7719.99
484.208	8014.9
484.412	7971.89
484.616	7969.84
484.821	7855.15
485.025	7832.63
485.229	7920.69
485.433	7664.69
485.637	7689.27
485.841	7879.73
486.045	7750.71
486.249	7783.48
486.453	7693.37
486.657	7849.01
486.861	7842.87
487.065	7531.58
487.269	7967.79
487.473	7617.59
487.677	7795.76
487.881	7883.83
488.085	7826.48
488.289	7719.99
488.493	7863.35
488.697	7853.11
488.901	7988.27
489.105	7791.67
489.309	8023.09
489.512	7840.82
489.716	7889.97
489.92	7863.35
490.124	7887.92
490.328	8162.35
490.531	7986.22
490.735	7957.55
490.939	8127.53
491.143	7795.76
491.346	8004.66
491.55	8154.16
491.754	8174.64
491.958	8211.5
492.161	8256.56
492.365	8088.62
492.569	8250.41
492.772	8287.28
492.976	8461.35
493.18	8430.63
493.383	8750.12
493.587	8418.35
493.79	8721.45
493.994	8356.91
494.197	8635.43
494.401	8666.15
494.605	8682.53
494.808	8881.19
495.012	8807.46
495.215	9008.16
495.419	9016.35
495.622	9004.07
495.825	8991.78
496.029	8887.33
496.232	9362.46
496.436	9137.18
496.639	9464.86
496.843	9382.94
497.046	9661.46
497.249	9833.49
497.453	9917.46
497.656	9946.13
497.859	9847.83
498.063	9999.38
498.266	10288.14
498.469	9982.99
498.673	10439.69
498.876	10583.05
499.079	10501.13
499.282	10484.75
499.485	10789.89
499.689	11021.31
499.892	11185.15
500.095	10961.92
500.298	11441.15
500.501	11445.24
500.705	11379.71
500.908	11463.68
501.111	11684.86
501.314	11887.61
501.517	11951.09
501.72	12168.18
501.923	12133.36
502.126	12477.42
502.329	12721.13
502.532	12567.53
502.735	12919.78
502.938	13044.71
503.141	12923.88
503.344	13368.29
503.547	13487.07
503.75	13611.99
503.953	13806.55
504.156	13765.59
504.359	14121.94
504.562	13958.1
504.765	14310.35
504.968	14486.48
505.17	14812.1
505.373	14674.89
505.576	15190.98
505.779	15236.03
505.982	15260.61
506.185	15510.46
506.387	15643.58
506.59	15633.34
506.793	16167.86
506.996	15979.45
507.198	16645.04
507.401	16378.8
507.604	16561.07
507.807	16872.36
508.009	17009.58
508.212	17034.15
508.415	17181.6
508.617	17517.47
508.82	17787.8
509.022	17689.5
509.225	18254.74
509.428	18121.62
509.63	18418.58
509.833	18439.06
510.035	19086.22
510.238	18928.52
510.44	19315.59
510.643	19362.69
510.845	19628.93
511.048	19651.45
511.25	20040.57
511.453	20456.31
511.655	20683.63
511.858	20974.44
512.06	20704.11
512.262	21384.04
512.465	21123.94
512.667	21461.86
512.87	21738.33
513.072	21648.22
513.274	22084.44
513.477	22469.46
513.679	22866.77
513.881	22903.63
514.084	23333.7
514.286	23098.19
514.488	23178.06
514.69	24101.69
514.893	24079.16
515.095	24111.93
515.297	24425.27
515.499	24488.76
515.701	24836.91
515.904	25064.24
516.106	25293.61
516.308	25492.26
516.51	25916.19
516.712	25897.76
516.914	26188.57
517.116	26827.54
517.318	26874.64
517.52	27054.86
517.722	27378.44
517.925	27720.45
518.127	27917.06
518.329	27960.06
518.531	27953.92
518.733	29043.44
518.935	28984.05
519.136	28984.05
519.338	29766.37
519.54	29450.99
519.742	30190.3
519.944	30257.88
520.146	30421.72
520.348	30702.29
520.55	30825.17
520.752	31183.57
520.954	31769.29
521.155	31646.41
521.357	31988.42
521.559	32205.5
521.761	32670.39
521.963	32811.7
522.164	33272.49
522.366	33110.71
522.568	33108.66
522.77	33426.09
522.971	34001.57
523.173	33811.11
523.375	34454.17
523.576	34265.76
523.778	34486.94
523.98	34734.74
524.181	35164.82
524.383	35189.39
524.584	35555.98
524.786	35668.62
524.988	35525.26
525.189	36166.27
525.391	36205.19
525.592	36047.49
525.794	36811.38
525.995	36727.42
526.197	36952.69
526.398	37196.4
526.6	37296.75
526.801	37431.92
527.003	37878.38
527.204	37730.92
527.406	38195.81
527.607	38480.48
527.808	38621.79
528.01	37829.23
528.211	38367.84
528.412	39322.19
528.614	39012.95
528.815	39060.05
529.016	39266.9
529.218	39117.4
529.419	39193.17
529.62	39381.59
529.822	39438.93
530.023	39651.92
530.224	39828.04
530.425	39840.33
530.626	39416.4
530.828	39494.22
531.029	40161.86
531.23	39684.69
531.431	39979.59
531.632	40129.09
531.833	40489.54
532.035	40649.28
532.236	40532.54
532.437	40413.76
532.638	40065.61
532.839	40649.28
533.04	40532.54
533.241	40301.12
533.442	40944.19
533.643	40825.4
533.844	40577.6
534.045	40327.75
534.246	40622.65
534.447	40974.91
534.648	40610.37
534.849	41015.86
535.05	40809.02
535.251	40878.65
535.451	40315.46
535.652	41185.85
535.853	40954.43
536.054	40890.94
536.255	41417.27
536.456	40467.01
536.657	41243.19
536.857	40698.43
537.058	40987.19
537.259	41214.52
537.46	40927.8
537.66	40884.79
537.861	40743.48
538.062	41095.74
538.263	41173.56
538.463	40868.41
538.664	41048.63
538.865	40997.43
539.065	41110.07
539.266	40571.46
539.466	41224.76
539.667	40833.6
539.868	41251.38
540.068	40993.34
540.269	40786.49
540.469	40884.79
540.67	41003.58
540.87	40858.17
541.071	40800.83
541.271	41114.17
541.472	41056.82
541.672	40913.47
541.873	40964.67
542.073	40112.71
542.274	41058.87
542.474	41060.92
542.675	40897.08
542.875	41304.63
543.075	40696.38
543.276	40350.27
543.476	41216.57
543.676	40755.77
543.877	40983.1
544.077	40745.53
544.277	40806.97
544.478	40424
544.678	41030.2
544.878	40409.67
545.078	40682.05
545.279	40229.44
545.479	40815.16
545.679	40892.99
545.879	40636.99
546.079	40712.77
546.28	40450.63
546.48	40411.71
546.68	40968.76
546.88	40659.52
547.08	40550.98
547.28	40636.99
547.48	40198.73
547.68	40958.52
547.88	40694.33
548.081	40712.77
548.281	40663.61
548.481	40327.75
548.681	40823.36
548.881	40641.09
549.081	40094.28
549.28	40624.7
549.48	40917.56
549.68	40602.18
549.88	40526.4
550.08	40479.3
550.28	40516.16
550.48	40591.94
550.68	40913.47
550.88	40090.18
551.08	40131.14
551.279	40561.22
551.479	40188.49
551.679	40669.76
551.879	40131.14
552.079	40671.81
552.278	40282.69
552.478	40071.75
552.678	40424
552.878	40712.77
553.077	40393.28
553.277	40120.9
553.477	40430.15
553.676	40286.79
553.876	40587.84
554.076	40041.03
554.275	39946.83
554.475	39815.76
554.674	40192.58
554.874	39899.72
555.074	39709.26
555.273	40292.93
555.473	40159.81
555.672	39694.92
555.872	39606.86
556.071	40088.13
556.271	40237.64
556.47	39746.12
556.67	39256.66
556.869	39662.16
557.068	39473.74
557.268	39348.82
557.467	39576.14
557.667	39561.81
557.866	39326.29
558.065	39170.64
558.265	38765.15
558.464	39191.12
558.663	39430.74
558.863	38881.88
559.062	39613.01
559.261	38548.06
559.461	39432.78
559.66	38478.43
559.859	38863.45
560.058	38089.32
560.258	39088.73
560.457	38529.63
560.656	38697.56
560.855	38359.65
561.054	38468.19
561.253	38177.38
561.453	38404.7
561.652	38271.59
561.851	38617.69
562.05	37943.91
562.249	38064.74
562.448	37878.38
562.647	37784.17
562.846	37646.96
563.045	38238.82
563.244	37472.88
563.443	37837.42
563.642	37145.2
563.841	37562.99
564.04	37309.04
564.239	37683.82
564.438	37225.07
564.637	36854.39
564.836	37083.76
565.035	36612.73
565.234	37091.96
565.432	36835.96
565.631	36754.04
565.83	36649.6
566.029	36524.67
566.228	36489.85
566.427	36469.37
566.625	36326.02
566.824	35906.18
567.023	36266.63
567.222	35271.31
567.42	35889.8
567.619	35789.45
567.818	36065.92
568.016	35480.21
568.215	35756.68
568.414	35443.34
568.612	35455.63
568.811	35594.89
569.01	35379.85
569.208	34888.34
569.407	35173.01
569.605	34910.87
569.804	35113.62
570.002	34646.68
570.201	34744.98
570.4	34349.73
570.598	34415.26
570.797	33968.8
570.995	34204.32
571.193	33938.08
571.392	34222.75
571.59	33534.63
571.789	33852.07
571.987	33344.17
572.186	33518.25
572.384	33450.67
572.582	33383.09
572.781	33387.18
572.979	33067.7
573.177	32895.67
573.376	33166
573.574	33092.27
573.772	32760.5
573.971	32680.63
574.169	32221.89
574.367	32533.18
574.565	32717.5
574.763	32463.55
574.962	32047.81
575.16	32012.99
575.358	32123.58
575.556	31541.96
575.754	32158.4
575.952	31662.79
576.151	31996.61
576.349	31191.76
576.547	31294.16
576.745	31292.11
576.943	31177.42
577.141	31353.55
577.339	31421.13
577.537	31115.98
577.735	30999.25
577.933	30755.54
578.131	30837.46
578.329	30499.55
578.527	30087.9
578.725	30245.6
578.923	30460.63
579.121	30288.6
579.319	30505.69
579.516	30274.27
579.714	29997.79
579.912	30010.08
580.11	29950.69
580.308	29950.69
580.506	29924.07
580.704	29172.46
580.901	29735.65
581.099	29932.26
581.297	29424.36
581.495	29074.16
581.692	29266.67
581.89	29201.13
582.088	29459.18
582.285	28879.6
582.483	28648.18
582.681	28697.33
582.878	28951.28
583.076	28449.53
583.274	28728.05
583.471	28218.11
583.669	28287.74
583.866	28449.53
584.064	28310.27
584.262	27919.1
584.459	28054.27
584.657	28025.6
584.854	28343.03
585.052	27816.71
585.249	27884.29
585.447	27652.87
585.644	27849.47
585.841	27742.98
586.039	27712.26
586.236	27108.11
586.434	27015.95
586.631	26981.13
586.828	27419.4
587.026	27286.28
587.223	26979.09
587.42	26661.65
587.618	26991.37
587.815	26731.28
588.012	26553.11
588.21	26381.08
588.407	26438.42
588.604	26372.89
588.801	26100.51
588.999	26282.78
589.196	26180.38
589.393	26141.47
589.59	25981.73
589.787	26008.35
589.984	25717.54
590.182	25551.65
590.379	26096.41
590.576	25643.81
590.773	25504.55
590.97	25279.27
591.167	25467.69
591.364	24937.26
591.561	25533.22
591.758	25088.81
591.955	25088.81
592.152	25152.3
592.349	24570.68
592.546	24892.21
592.743	24718.13
592.94	24447.8
593.137	24828.72
593.334	24722.23
593.531	23921.47
593.727	24673.07
593.924	24511.28
594.121	24263.48
594.318	24296.25
594.515	23710.53
594.712	24382.26
594.908	24199.99
595.105	24038.2
595.302	23716.67
595.499	23862.08
595.696	23898.94
595.892	23614.27
596.089	23884.61
596.286	23489.35
596.482	23356.23
596.679	23472.96
596.876	23747.39
597.072	23118.67
597.269	23237.45
597.466	23034.7
597.662	23012.17
597.859	23018.32
598.055	22924.11
598.252	22725.46
598.448	22469.46
598.645	22477.65
598.841	22485.84
599.038	22692.69
599.234	22657.87
599.431	22551.38
599.627	22504.28
599.824	22297.43
600.02	22010.71
600.217	22035.29
600.413	22154.07
600.609	21836.64
600.806	21726.05
601.002	21900.12
601.198	21820.25
601.395	21746.53
601.591	21805.92
601.787	21529.44
601.984	21511.01
602.18	21435.24
602.376	21396.32
602.572	21367.65
602.769	21371.75
602.965	21181.29
603.161	20986.73
603.357	21015.4
603.553	20968.3
603.75	20900.72
603.946	20788.08
604.142	21175.14
604.338	20745.07
604.534	20726.64
604.73	20501.36
604.926	20474.74
605.122	20681.58
605.318	20329.33
605.514	19946.36
605.71	20120.44
605.906	20226.93
606.102	20243.32
606.298	19927.93
606.494	19985.27
606.69	19854.2
606.886	20185.97
607.082	19753.85
607.278	20204.41
607.474	19862.4
607.67	19823.48
607.866	19952.51
608.062	19688.32
608.257	19407.75
608.453	19854.2
608.649	19551.1
608.845	19495.81
609.041	19350.4
609.236	19405.7
609.432	19401.6
609.628	19465.09
609.824	19278.72
610.019	19256.2
610.215	19114.89
610.411	19164.04
610.606	19059.59
610.802	19057.54
610.998	19350.4
611.193	18959.24
611.389	18639.76
611.584	18787.21
611.78	18744.2
611.976	18846.6
612.171	18719.63
612.367	18596.75
612.562	18727.82
612.758	18434.96
612.953	18066.33
613.149	18574.22
613.344	18379.67
613.539	18584.46
613.735	18371.47
613.93	18369.43
614.126	18092.95
614.321	18586.51
614.517	18174.87
614.712	18170.77
614.907	17982.36
615.103	18512.78
615.298	18019.22
615.493	18129.81
615.688	17855.39
615.884	18236.31
616.079	17757.08
616.274	18062.23
616.47	17742.75
616.665	18000.79
616.86	17593.25
617.055	17769.37
617.25	17367.97
617.445	17724.32
617.641	17591.2
617.836	17484.7
618.031	17185.7
618.226	17589.15
618.421	17251.24
618.616	17511.33
618.811	17349.54
619.006	17132.45
619.201	16802.73
619.396	16968.62
619.591	16817.07
619.786	16878.51
619.981	16761.77
620.176	16747.44
620.371	16602.03
620.566	16759.72
620.761	16524.21
620.956	16833.45
621.151	15924.15
621.346	16296.88
621.541	16090.04
621.735	16182.2
621.93	16059.32
622.125	15717.31
622.32	15795.13
622.515	15883.19
622.709	15700.92
622.904	15596.48
623.099	15424.45
623.294	15674.3
623.488	15197.12
623.683	15498.17
623.878	15406.02
624.072	15401.92
624.267	15131.59
624.462	15135.68
624.656	15125.44
624.851	14955.46
625.046	14949.32
625.24	14898.12
625.435	14758.86
625.629	14799.82
625.824	14750.67
626.018	14525.39
626.213	14113.75
626.407	14250.96
626.602	14089.17
626.796	14160.85
626.991	14306.26
627.185	14048.21
627.38	13972.44
627.574	13861.85
627.768	13671.39
627.963	13683.67
628.157	13644.76
628.352	13700.06
628.546	13360.09
628.74	13581.28
628.935	13220.83
629.129	13265.89
629.323	13093.86
629.517	12995.56
629.712	13171.68
629.906	12999.65
630.1	12573.67
630.294	12796.9
630.489	12751.85
630.683	12710.89
630.877	12497.9
631.071	12512.24
631.265	12475.37
631.459	12491.76
631.653	12438.51
631.848	12413.93
632.042	12239.86
632.236	12235.76
632.43	11990
632.624	12053.49
632.818	11838.45
633.012	11848.69
633.206	11856.89
633.4	11883.51
633.594	11586.55
633.788	11576.31
633.982	11496.44
634.176	11658.23
634.369	11588.6
634.563	11602.94
634.757	11205.63
634.951	11568.12
635.145	11359.23
635.339	11271.17
635.533	10982.4
635.726	11265.02
635.92	11039.75
636.114	10916.87
636.308	10966.02
636.501	10861.57
636.695	10931.2
636.889	10636.3
637.083	10503.18
637.276	10890.24
637.47	10431.5
637.664	10550.28
637.857	10349.58
638.051	10406.92
638.244	10474.51
638.438	10257.42
638.632	10318.86
638.825	10222.61
639.019	10032.15
639.212	10034.19
639.406	10130.45
639.599	9991.19
639.793	9849.88
639.986	9950.23
640.18	9806.87
640.373	9665.56
640.567	9552.92
640.76	9505.82
640.954	9804.82
641.147	9272.35
641.34	9399.32
641.534	9454.62
641.727	9251.87
641.92	9544.73
642.114	9323.55
642.307	9110.56
642.5	9067.55
642.694	8946.72
642.887	8924.19
643.08	9163.81
643.273	8997.92
643.467	8907.81
643.66	8975.39
643.853	8756.26
644.046	8819.75
644.239	8754.21
644.432	8703.01
644.626	8533.03
644.819	8533.03
645.012	8526.89
645.205	8510.5
645.398	8391.72
645.591	8528.94
645.784	8303.66
645.977	8268.84
646.17	8285.23
646.363	8164.4
646.556	8213.55
646.749	8184.88
646.942	8213.55
647.135	8201.26
647.328	7871.54
647.521	7920.69
647.714	7713.84
647.907	7756.85
648.099	7883.83
648.292	7685.17
648.485	7713.84
648.678	7742.52
648.871	7734.32
649.064	7504.95
649.256	7791.67
649.449	7500.86
649.642	7504.95
649.835	7279.68
650.027	7449.66
650.22	7562.3
650.413	7273.53
650.605	7420.99
650.798	7248.96
650.991	7240.76
651.183	7025.73
651.376	7124.03
651.568	7277.63
651.761	7013.44
651.954	7138.37
652.146	6925.38
652.339	6812.74
652.531	6976.58
652.724	7005.25
652.916	6749.25
653.109	6751.3
653.301	6753.35
653.494	6904.9
653.686	6659.14
653.879	6763.59
654.071	6507.59
654.263	6618.18
654.456	6491.21
654.648	6655.05
654.84	6460.49
655.033	6411.34
655.225	6476.87
655.417	6509.64
655.61	6388.81
655.802	6284.36
655.994	6227.02
656.186	6382.67
656.379	6407.24
656.571	6329.42
656.763	6147.15
656.955	6100.05
657.148	6143.05
657.34	6093.9
657.532	6067.28
657.724	6048.85
657.916	6009.93
658.108	6036.56
658.3	5975.12
658.492	5950.54
658.684	5753.94
658.876	5815.38
659.068	5923.92
659.26	5741.65
659.452	5792.85
659.644	5782.61
659.836	5661.78
660.028	5624.92
660.22	5565.53
660.412	5557.33
660.604	5497.94
660.796	5733.46
660.988	5672.02
661.18	5416.02
661.372	5510.23
661.563	5567.57
661.755	5377.11
661.947	5553.24
662.139	5346.39
662.331	5387.35
662.522	5379.16
662.714	5291.1
662.906	5172.32
663.097	5375.06
663.289	5176.41
663.481	5063.77
663.673	5213.28
663.864	5207.13
664.056	4934.75
664.247	4988
664.439	5071.97
664.631	5166.17
664.822	5049.44
665.014	4889.7
665.205	5035.1
665.397	4910.18
665.588	4951.14
665.78	4822.11
665.971	4961.37
666.163	4820.07
666.354	4779.11
666.546	4951.14
666.737	4813.92
666.929	4858.98
667.12	4703.33
667.311	4756.58
667.503	4746.34
667.694	4826.21
667.885	4648.04
668.077	4533.35
668.268	4572.26
668.459	4633.7
668.651	4613.22
668.842	4678.76
669.033	4508.77
669.224	4549.73
669.416	4564.07
669.607	4662.37
669.798	4504.68
669.989	4537.45
670.18	4568.16
670.371	4598.88
670.563	4410.47
670.754	4555.88
670.945	4383.85
671.136	4392.04
671.327	4430.95
671.518	4394.09
671.709	4500.58
671.9	4426.86
672.091	4402.28
672.282	4238.44
672.473	4381.8
672.664	4281.45
672.855	4273.26
673.046	4283.5
673.237	4516.97
673.428	4283.5
673.619	4459.62
673.809	4248.68
674	4420.71
674.191	4256.87
674.382	4252.78
674.573	4242.54
674.764	4250.73
674.954	4281.45
675.145	4146.28
675.336	4105.32
675.527	4146.28
675.717	4283.5
675.908	4082.8
676.099	4146.28
676.289	4148.33
676.48	4228.2
676.671	4222.06
676.861	4170.86
677.052	4025.45
677.243	4109.42
677.433	4131.95
677.624	4066.41
677.814	4113.52
678.005	4127.85
678.195	4115.56
678.386	4144.24
678.576	4060.27
678.767	3843.18
678.957	4154.48
679.148	4138.09
679.338	4277.35
679.529	4090.99
679.719	4211.82
679.909	4062.32
680.1	4187.24
680.29	4015.21
680.481	4050.03
680.671	4115.56
680.861	4011.12
681.052	4119.66
681.242	3937.39
681.432	4127.85
681.622	4062.32
681.813	4072.56
682.003	4134
682.193	3875.95
682.383	4041.84
682.573	4039.79
682.764	4007.02
682.954	4142.19
683.144	3968.11
683.334	4070.51
683.524	4052.08
683.714	3939.44
683.904	3921.01
684.094	3980.4
684.284	3984.49
684.474	4119.66
684.664	3976.3
684.854	3974.25
685.044	4013.17
685.234	3974.25
685.424	3921.01
685.614	3828.85
685.804	3937.39
685.994	3949.68
686.184	3931.25
686.374	3916.91
686.564	3910.77
686.753	3816.56
686.943	3910.77
687.133	3773.55
687.323	3802.22
687.513	3890.29
687.702	3802.22
687.892	3808.37
688.082	3652.72
688.272	3683.44
688.461	3683.44
688.651	3798.13
688.841	3570.8
689.03	3556.47
689.22	3597.43
689.41	3669.11
689.599	3523.7
689.789	3619.96
689.979	3677.3
690.168	3560.56
690.358	3576.95
690.547	3488.89
690.737	3546.23
690.926	3497.08
691.116	3507.32
691.305	3558.52
691.495	3628.15
691.684	3449.97
691.874	3427.45
692.063	3388.53
692.252	3452.02
692.442	3458.17
692.631	3327.1
692.82	3351.67
693.01	3179.64
693.199	3220.6
693.388	3382.39
693.578	3277.94
693.767	3179.64
693.956	3193.98
694.146	3210.36
694.335	3208.31
694.524	3220.6
694.713	3279.99
694.902	3198.07
695.092	3171.45
695.281	3128.44
695.47	3142.78
695.659	3218.55
695.848	3124.35
696.037	3056.76
696.226	3220.6
696.415	3042.43
696.604	3126.39
696.793	2989.18
696.982	3005.56
697.171	3183.74
697.36	3181.69
697.549	3202.17
697.738	3114.11
697.927	3175.55
698.116	3069.05
698.305	3001.47
698.494	2964.61
698.683	2989.18
698.872	3075.2
699.061	3132.54
699.25	2968.7
699.438	2993.28
699.627	2999.42
699.816	3089.53
700.005	3034.24
700.193	3048.57
700.382	3026.04
700.571	2968.7
700.76	3036.28
700.948	3046.52
701.137	3083.39
701.326	3083.39
701.514	3044.48
701.703	3067
701.892	3064.96
702.08	3257.46
702.269	3040.38
702.457	2976.89
702.646	2950.27
702.834	2974.85
703.023	3058.81
703.212	2997.37
703.4	2956.41
703.589	3011.71
703.777	3017.85
703.965	3024
704.154	3030.14
704.342	2958.46
704.531	3140.73
704.719	3001.47
704.907	3015.8
705.096	2925.69
705.284	3001.47
705.472	3034.24
705.661	2985.09
705.849	3011.71
706.037	3075.2
706.226	3019.9
706.414	3077.24
706.602	2970.75
706.79	3052.67
706.979	2935.93
707.167	3095.68
707.355	3017.85
707.543	2937.98
707.731	2956.41
707.919	2960.51
708.107	2946.17
708.296	3122.3
708.484	3118.2
708.672	3073.15
708.86	3064.96
709.048	3085.44
709.236	3003.52
709.424	3177.59
709.612	3048.57
709.8	3040.38
709.988	3083.39
710.176	3034.24
710.364	3116.16
710.551	3009.66
710.739	3028.09
710.927	2964.61
711.115	2999.42
711.303	3021.95
711.491	2931.84
711.679	3099.77
711.866	3193.98
712.054	3058.81
712.242	3142.78
712.43	3112.06
712.617	3030.14
712.805	3189.88
712.993	3083.39
713.181	3075.2
713.368	3120.25
713.556	3112.06
713.744	3175.55
713.931	3107.96
714.119	3110.01
714.306	3105.92
714.494	3134.59
714.682	3357.82
714.869	2952.32
715.057	3103.87
715.244	3099.77
715.432	3153.02
715.619	3075.2
715.807	3058.81
715.994	3120.25
716.182	3153.02
716.369	3234.94
716.556	3249.27
716.744	3083.39
716.931	3132.54
717.119	3239.03
717.306	3120.25
717.493	3159.16
717.681	3243.13
717.868	3212.41
718.055	3214.46
718.242	3161.21
718.43	3249.27
718.617	3107.96
718.804	3202.17
718.991	3173.5
719.179	3191.93
719.366	3226.75
719.553	3198.07
719.74	3105.92
719.927	3255.42
720.114	3206.27
720.301	3161.21
720.488	3140.73
720.676	3095.68
720.863	3359.86
721.05	3234.94
721.237	3204.22
721.424	3230.84
721.611	3247.23
721.798	3263.61
721.985	3128.44
722.172	3198.07
722.358	3251.32
722.545	3226.75
722.732	3236.99
722.919	3273.85
723.106	3368.06
723.293	3431.54
723.48	3239.03
723.667	3159.16
723.853	3263.61
724.04	3308.66
724.227	3249.27
724.414	3290.23
724.6	3204.22
724.787	3388.53
724.974	3359.86
725.161	3259.51
725.347	3202.17
725.534	3345.53
725.72	3425.4
725.907	3378.3
726.094	3353.72
726.28	3279.99
726.467	3374.2
726.653	3441.78
726.84	3335.29
727.027	3265.66
727.213	3347.58
727.4	3470.45
727.586	3341.43
727.773	3406.97
727.959	3366.01
728.145	3413.11
728.332	3443.83
728.518	3488.89
728.705	3488.89
728.891	3468.41
729.077	3464.31
729.264	3472.5
729.45	3341.43
729.636	3441.78
729.823	3394.68
730.009	3433.59
730.195	3376.25
730.382	3449.97
730.568	3558.52
730.754	3400.82
730.94	3411.06
731.126	3470.45
731.313	3626.1
731.499	3521.65
731.685	3415.16
731.871	3482.74
732.057	3419.25
732.243	3497.08
732.429	3353.72
732.615	3617.91
732.801	3435.64
732.987	3427.45
733.173	3505.27
733.359	3466.36
733.545	3390.58
733.731	3445.88
733.917	3609.72
734.103	3564.66
734.289	3552.37
734.475	3490.93
734.661	3593.33
734.847	3544.18
735.033	3521.65
735.219	3490.93
735.404	3533.94
735.59	3454.07
735.776	3366.01
735.962	3581.04
736.148	3476.6
736.333	3374.2
736.519	3572.85
736.705	3515.51
736.89	3538.04
737.076	3622
737.262	3384.44
737.447	3402.87
737.633	3497.08
737.819	3492.98
738.004	3472.5
738.19	3531.89
738.375	3472.5
738.561	3544.18
738.747	3427.45
738.932	3476.6
739.118	3472.5
739.303	3396.73
739.489	3521.65
739.674	3347.58
739.859	3460.21
740.045	3474.55
740.23	3398.77
740.416	3363.96
740.601	3402.87
740.786	3429.49
740.972	3400.82
741.157	3263.61
741.342	3357.82
741.528	3239.03
741.713	3370.1
741.898	3433.59
742.084	3300.47
742.269	3359.86
742.454	3351.67
742.639	3339.38
742.824	3085.44
743.01	3279.99
743.195	3327.1
743.38	3304.57
743.565	3306.62
743.75	3331.19
743.935	3298.42
744.12	3327.1
744.305	3161.21
744.49	3187.83
744.675	3218.55
744.86	3150.97
745.045	3173.5
745.23	3320.95
745.415	3110.01
745.6	3241.08
745.785	3089.53
745.97	3081.34
746.155	3030.14
746.34	3019.9
746.525	3144.83
746.71	3118.2
746.895	2899.07
747.079	3085.44
747.264	2911.36
747.449	2952.32
747.634	3060.86
747.819	2976.89
748.003	2911.36
748.188	3034.24
748.373	2872.45
748.557	2841.73
748.742	2790.53
748.927	2770.05
749.111	2817.15
749.296	2802.82
749.481	2831.49
749.665	2796.67
749.85	2765.95
750.034	2757.76
750.219	2804.86
750.404	2671.75
750.588	2757.76
750.773	2712.71
750.957	2727.04
751.141	2712.71
751.326	2612.35
751.51	2602.11
751.695	2608.26
751.879	2651.27
752.064	2624.64
752.248	2542.72
752.432	2712.71
752.617	2575.49
752.801	2460.81
752.985	2493.57
753.17	2430.09
753.354	2501.76
753.538	2550.92
753.722	2374.79
753.907	2389.13
754.091	2372.74
754.275	2481.28
754.459	2245.77
754.643	2329.74
754.828	2434.18
755.012	2249.86
755.196	2180.23
755.38	2274.44
755.564	2358.41
755.748	2282.63
755.932	2262.15
756.116	2272.39
756.3	2126.99
756.484	2321.54
756.668	2270.34
756.852	2229.38
757.036	2198.67
757.22	2227.34
757.404	2071.69
757.588	2071.69
757.772	2131.08
757.956	2118.79
758.14	2133.13
758.323	2026.64
758.507	2016.4
758.691	2012.3
758.875	2083.98
759.059	2069.64
759.242	1963.15
759.426	1981.58
759.61	1983.63
759.794	1932.43
759.977	2032.78
760.161	1973.39
760.345	1973.39
760.528	1873.04
760.712	1963.15
760.895	1838.22
761.079	1916.05
761.263	1887.37
761.446	1797.26
761.63	1830.03
761.813	1959.05
761.997	1807.5
762.18	1752.21
762.364	1844.37
762.547	1741.97
762.731	1801.36
762.914	1760.4
763.098	1754.26
763.281	1883.28
763.464	1635.47
763.648	1721.49
763.831	1655.95
764.015	1690.77
764.198	1731.73
764.381	1629.33
764.564	1744.02
764.748	1623.19
764.931	1612.95
765.114	1639.57
765.297	1629.33
765.481	1631.38
765.664	1604.75
765.847	1584.27
766.03	1619.09
766.213	1604.75
766.397	1756.3
766.58	1612.95
766.763	1797.26
766.946	1526.93
767.129	1551.51
767.312	1561.75
767.495	1463.44
767.678	1457.3
767.861	1557.65
768.044	1594.51
768.227	1492.12
768.41	1565.84
768.593	1481.88
768.776	1549.46
768.959	1451.16
769.142	1512.6
769.324	1438.87
769.507	1547.41
769.69	1502.36
769.873	1514.64
770.056	1453.2
770.239	1402.01
770.421	1453.2
770.604	1508.5
770.787	1508.5
770.97	1467.54
771.152	1510.55
771.335	1442.96
771.518	1412.25
771.7	1412.25
771.883	1600.66
772.066	1346.71
772.248	1279.13
772.431	1348.76
772.613	1379.48
772.796	1410.2
772.978	1416.34
773.161	1348.76
773.343	1287.32
773.526	1297.56
773.708	1229.98
773.891	1146.01
774.073	1244.31
774.256	1369.24
774.438	1402.01
774.621	1260.7
774.803	1346.71
774.985	1227.93
775.168	1209.5
775.35	1121.43
775.532	1168.54
775.715	1254.55
775.897	1248.41
776.079	1107.1
776.261	1295.51
776.444	1195.16
776.626	1148.06
776.808	1168.54
776.99	1057.95
777.173	1078.43
777.355	1141.91
777.537	1100.95
777.719	1006.75
777.901	1064.09
778.083	1041.56
778.265	1051.8
778.447	1057.95
778.629	1041.56
778.811	1059.99
778.993	1088.67
779.175	1016.99
779.357	1055.9
779.539	920.73
779.721	1045.66
779.903	1014.94
780.085	1037.47
780.267	1066.14
780.449	996.51
780.631	890.01
780.812	973.98
780.994	953.5
781.176	865.44
781.358	879.77
781.54	930.97
781.721	859.29
781.903	939.16
782.085	840.86
782.267	890.01
782.448	857.25
782.63	816.29
782.812	871.58
782.993	859.29
783.175	887.97
783.357	842.91
783.538	922.78
783.72	812.19
783.901	816.29
784.083	820.38
784.264	857.25
784.446	795.81
784.627	806.05
784.809	855.2
784.99	730.27
785.172	767.13
785.353	660.64
785.535	849.05
785.716	715.94
785.897	689.31
786.079	744.61
786.26	699.55
786.441	732.32
786.623	697.5
786.804	644.26
786.985	670.88
787.167	765.09
787.348	627.87
787.529	631.97
787.71	752.8
787.891	760.99
788.073	631.97
788.254	638.11
788.435	707.74
788.616	748.7
788.797	654.5
788.978	619.68
789.159	617.63
789.34	660.64
789.522	629.92
789.703	568.48
789.884	638.11
790.065	625.83
790.246	687.26
790.427	576.67
790.607	646.3
790.788	654.5
790.969	509.09
791.15	627.87
791.331	533.67
791.512	521.38
791.693	564.39
791.874	566.43
792.054	564.39
792.235	525.47
792.416	558.24
792.597	539.81
792.778	548
792.958	599.2
793.139	543.91
793.32	701.6
793.5	470.18
793.681	580.77
793.862	439.46
794.042	529.57
794.223	435.36
794.404	449.7
794.584	461.99
794.765	466.08
794.945	484.52
795.126	511.14
795.306	498.85
795.487	468.13
795.667	461.99
795.848	574.63
796.028	459.94
796.209	461.99
796.389	480.42
796.57	408.74
796.75	408.74
796.93	425.12
797.111	525.47
797.291	478.37
797.471	515.23
797.652	478.37
797.832	441.51
798.012	480.42
798.192	431.27
798.373	384.16
798.553	414.88
798.733	425.12
798.913	355.49
799.093	474.28
799.274	384.16
799.454	515.23
799.634	394.4
799.814	478.37
799.994	421.03
800.174	408.74
800.354	367.78
800.534	298.15
800.714	447.65
800.894	378.02
801.074	396.45
801.254	394.4
801.434	472.23
801.614	378.02
801.794	445.6
801.974	1053.85
802.154	449.7
802.334	416.93
802.514	277.67
802.693	400.55
802.873	392.36
803.053	343.21
803.233	400.55
803.413	371.88
803.592	357.54
803.772	326.82
803.952	369.83
804.131	429.22
804.311	382.12
804.491	380.07
804.67	337.06
804.85	320.68
805.03	349.35
805.209	431.27
805.389	392.36
805.568	304.29
805.748	316.58
805.928	449.7
806.107	328.87
806.287	339.11
806.466	365.73
806.646	265.38
806.825	316.58
807.004	277.67
807.184	339.11
807.363	285.86
807.543	289.96
807.722	328.87
807.901	369.83
808.081	367.78
808.26	314.53
808.439	314.53
808.619	341.16
808.798	300.2
808.977	279.72
809.156	302.25
809.336	279.72
809.515	369.83
809.694	277.67
809.873	216.23
810.052	296.1
810.231	294.05
810.411	275.62
810.59	246.95
810.769	269.48
810.948	304.29
811.127	160.94
811.306	273.57
811.485	269.48
811.664	324.77
811.843	275.62
812.022	218.28
812.201	238.76
812.38	185.51
812.559	191.66
812.737	355.49
812.916	183.46
813.095	294.05
813.274	218.28
813.453	314.53
813.632	289.96
813.811	322.73
813.989	189.61
814.168	240.81
814.347	257.19
814.526	267.43
814.704	273.57
814.883	324.77
815.062	216.23
815.24	251.05
815.419	167.08
815.598	249
815.776	181.42
815.955	205.99
816.133	181.42
816.312	302.25
816.49	249
816.669	210.09
816.847	277.67
817.026	244.9
817.204	201.9
817.383	265.38
817.561	226.47
817.74	273.57
817.918	197.8
818.097	203.94
818.275	222.38
818.453	289.96
818.632	203.94
818.81	199.85
818.988	183.46
819.167	205.99
819.345	234.66
819.523	140.46
819.701	249
819.879	257.19
820.058	177.32
820.236	251.05
820.414	189.61
820.592	228.52
820.77	179.37
820.948	203.94
821.127	156.84
821.305	193.7
821.483	132.26
821.661	208.04
821.839	216.23
822.017	197.8
822.195	130.22
822.373	257.19
822.551	236.71
822.729	154.79
822.907	132.26
823.085	126.12
823.262	210.09
823.44	265.38
823.618	173.22
823.796	148.65
823.974	142.5
824.152	171.18
824.329	119.98
824.507	146.6
824.685	232.62
824.863	257.19
825.04	146.6
825.218	201.9
825.396	126.12
825.574	95.4
825.751	119.98
825.929	167.08
826.107	169.13
826.284	199.85
826.462	185.51
826.639	156.84
826.817	124.07
826.994	181.42
827.172	89.26
827.349	189.61
827.527	144.55
827.704	154.79
827.882	183.46
828.059	162.98
828.237	136.36
828.414	181.42
828.591	142.5
828.769	150.7
828.946	187.56
829.124	181.42
829.301	115.88
829.478	122.02
829.655	171.18
829.833	146.6
830.01	119.98
830.187	162.98
830.364	199.85
830.542	124.07
830.719	146.6
830.896	95.4
831.073	201.9
831.25	185.51
831.427	195.75
831.604	189.61
831.782	68.78
831.959	160.94
832.136	58.54
832.313	109.74
832.49	144.55
832.667	85.16
832.844	128.17
833.021	222.38
833.198	119.98
833.374	38.06
833.551	72.87
833.728	89.26
833.905	189.61
834.082	52.39
834.259	142.5
834.436	203.94
834.612	72.87
834.789	181.42
834.966	87.21
835.143	109.74
835.319	54.44
835.496	140.46
835.673	74.92
835.85	146.6
836.026	107.69
836.203	195.75
836.38	126.12
836.556	158.89
836.733	173.22
836.909	130.22
837.086	95.4
837.262	66.73
837.439	146.6
837.616	89.26
837.792	152.74
837.968	191.66
838.145	83.11
838.321	107.69
838.498	113.83
838.674	134.31
838.851	154.79
839.027	76.97
839.203	46.25
839.38	72.87
839.556	33.96
839.732	165.03
839.909	140.46
840.085	87.21
840.261	38.06
840.437	117.93
840.614	13.48
840.79	130.22
840.966	93.35
841.142	226.47
841.318	70.83
841.494	81.07
841.671	54.44
841.847	134.31
842.023	109.74
842.199	140.46
842.375	83.11
842.551	56.49
842.727	56.49
842.903	181.42
843.079	38.06
843.255	117.93
843.431	58.54
843.607	128.17
843.783	68.78
843.959	97.45
844.134	17.58
844.31	132.26
844.486	113.83
844.662	56.49
844.838	113.83
845.013	109.74
845.189	130.22
845.365	44.2
845.541	23.72
845.716	154.79
845.892	91.31
846.068	50.35
846.244	91.31
846.419	66.73
846.595	68.78
846.77	136.36
846.946	150.7
847.122	25.77
847.297	107.69
847.473	81.07
847.648	17.58
847.824	95.4
847.999	44.2
848.175	54.44
848.35	38.06
848.526	72.87
848.701	101.55
848.876	87.21
849.052	31.91
849.227	191.66
849.403	124.07
849.578	-7
849.753	105.64
849.929	93.35
850.104	52.39
850.279	66.73
850.454	81.07
850.63	76.97
850.805	83.11
850.98	42.15
851.155	109.74
851.33	7.34
851.505	-52.05
851.681	87.21
851.856	27.82
852.031	130.22
852.206	33.96
852.381	89.26
852.556	85.16
852.731	46.25
852.906	66.73
853.081	152.74
853.256	27.82
853.431	115.88
853.606	42.15
853.781	9.39
853.956	25.77
854.131	76.97
854.305	3.24
854.48	-9.05
854.655	36.01
854.83	46.25
855.005	58.54
855.18	48.3
855.354	132.26
855.529	79.02
855.704	40.11
855.879	56.49
856.053	48.3
856.228	-11.09
856.403	44.2
856.577	42.15
856.752	33.96
856.926	40.11
857.101	97.45
857.276	44.2
857.45	62.63
857.625	46.25
857.799	5.29
857.974	60.59
858.148	48.3
858.323	29.87
858.497	54.44
858.672	74.92
858.846	62.63
859.02	54.44
859.195	-11.09
859.369	11.43
859.543	23.72
859.718	99.5
859.892	13.48
860.066	40.11
860.241	66.73
860.415	46.25
860.589	31.91
860.763	46.25
860.938	-13.14
861.112	70.83
861.286	38.06
861.46	33.96
861.634	74.92
861.808	122.02
861.982	-35.67
862.157	52.39
862.331	60.59
862.505	5.29
862.679	1.19
862.853	48.3
863.027	21.67
863.201	33.96
863.375	-7
863.549	3.24
863.722	-13.14
863.896	42.15
864.07	46.25
864.244	-17.24
864.418	46.25
864.592	83.11
864.766	13.48
864.939	-4.95
865.113	58.54
865.287	66.73
865.461	33.96
865.634	-17.24
865.808	5.29
865.982	93.35
866.156	-64.34
866.329	17.58
866.503	83.11
866.676	109.74
866.85	17.58
867.024	83.11
867.197	33.96
867.371	40.11
867.544	79.02
867.718	15.53
867.891	48.3
868.065	7.34
868.238	60.59
868.412	87.21
868.585	46.25
868.759	25.77
868.932	33.96
869.105	-33.62
869.279	29.87
869.452	-19.29
869.625	70.83
869.799	85.16
869.972	-33.62
870.145	124.07
870.319	-0.85
870.492	-17.24
870.665	15.53
870.838	33.96
871.011	19.63
871.185	40.11
871.358	-29.52
871.531	56.49
871.704	11.43
871.877	-0.85
872.05	7.34
872.223	-4.95
872.396	74.92
872.569	79.02
872.742	-15.19
872.915	76.97
873.088	-9.05
873.261	9.39
873.434	91.31
873.607	23.72
873.78	58.54
873.953	3.24
874.126	9.39
874.299	13.48
874.471	54.44
874.644	134.31
874.817	46.25
874.99	58.54
875.163	64.68
875.335	31.91
875.508	-19.29
875.681	54.44
875.853	-19.29
876.026	-7
876.199	48.3
876.371	97.45
876.544	44.2
876.717	-47.96
876.889	-15.19
877.062	3.24
877.234	-35.67
877.407	68.78
877.579	-0.85
877.752	38.06
877.924	124.07
878.097	87.21
878.269	81.07
878.442	85.16
878.614	56.49
878.786	48.3
878.959	97.45
879.131	3.24
879.303	23.72
879.476	38.06
879.648	93.35
879.82	109.74
879.993	9.39
880.165	1.19
880.337	15.53
880.509	-41.81
880.681	50.35
880.854	48.3
881.026	15.53
881.198	33.96
881.37	29.87
881.542	-23.38
881.714	17.58
881.886	-33.62
882.058	42.15
882.23	11.43
882.402	-47.96
882.574	46.25
882.746	46.25
882.918	40.11
883.09	54.44
883.262	50.35
883.434	42.15
883.606	3.24
883.778	-41.81
883.95	70.83
884.122	-29.52
884.293	81.07
884.465	68.78
884.637	64.68
884.809	31.91
884.98	62.63
885.152	-0.85
885.324	19.63
885.496	-21.33
885.667	-9.05
885.839	29.87
886.011	132.26
886.182	-0.85
886.354	38.06
886.525	64.68
886.697	-11.09
886.869	-74.58
887.04	93.35
887.212	76.97
887.383	42.15
887.555	-23.38
887.726	46.25
887.897	-4.95
888.069	44.2
888.24	33.96
888.412	17.58
888.583	29.87
888.754	-52.05
888.926	21.67
889.097	-23.38
889.268	-31.57
889.44	9.39
889.611	-15.19
889.782	52.39
889.953	-9.05
890.125	21.67
890.296	-58.2
890.467	-7
890.638	70.83
890.809	-33.62
890.98	29.87
891.151	-7
891.323	68.78
891.494	40.11
891.665	1.19
891.836	-33.62
892.007	42.15
892.178	79.02
892.349	-43.86
892.52	52.39
892.691	25.77
892.862	-33.62
893.032	-23.38
893.203	9.39
893.374	44.2
893.545	91.31
893.716	7.34
893.887	91.31
894.057	19.63
894.228	33.96
894.399	62.63
894.57	-9.05
894.74	-7
894.911	-23.38
895.082	36.01
895.253	-9.05
895.423	64.68
895.594	62.63
895.764	42.15
895.935	46.25
896.106	70.83
896.276	-33.62
896.447	48.3
896.617	21.67
896.788	-13.14
896.958	1.19
897.129	58.54
897.299	-43.86
897.47	48.3
897.64	64.68
897.81	-29.52
897.981	9.39
898.151	-39.76
898.322	-33.62
898.492	-33.62
898.662	29.87
898.832	25.77
899.003	13.48
899.173	-2.9
899.343	21.67
899.513	13.48
