Data from USB4F104151__31__12-23-44-110.txt Node

Date: Fri Mar 14 12:23:44 EDT 2025
User: louis
Spectrometer: USB4F10415
Trigger mode: 4
Integration Time (sec): 3.500000E-2
Scans to average: 1
Electric dark correction enabled: true
Nonlinearity correction enabled: false
Boxcar width: 0
XAxis mode: Wavelengths
Number of Pixels in Spectrum: 3648
>>>>>Begin Spectral Data<<<<<
178.204	-139.6
178.424	-139.6
178.644	-139.6
178.864	-176.47
179.084	-106.84
179.304	-29.01
179.524	-26.96
179.744	26.28
179.964	-12.63
180.184	-8.53
180.404	-4.44
180.624	-29.01
180.844	52.91
181.064	-22.87
181.283	5.8
181.503	48.81
181.723	-0.34
181.943	-33.11
182.163	128.68
182.383	-35.16
182.602	32.43
182.822	65.19
183.042	44.71
183.262	-6.49
183.482	32.43
183.701	-18.77
183.921	38.57
184.141	36.52
184.361	95.91
184.58	24.23
184.8	30.38
185.02	11.95
185.239	71.34
185.459	44.71
185.679	32.43
185.898	-47.44
186.118	3.75
186.338	-86.36
186.557	36.52
186.777	-18.77
186.997	36.52
187.216	-49.49
187.436	48.81
187.655	18.09
187.875	40.62
188.095	-41.3
188.314	61.1
188.534	100.01
188.753	-72.02
188.973	-10.58
189.192	26.28
189.412	-4.44
189.631	65.19
189.851	-37.2
190.07	100.01
190.29	-88.4
190.509	61.1
190.729	67.24
190.948	42.67
191.168	190.12
191.387	38.57
191.607	38.57
191.826	40.62
192.045	-24.92
192.265	71.34
192.484	24.23
192.704	-8.53
192.923	-65.88
193.142	46.76
193.362	3.75
193.581	-45.4
193.8	3.75
194.02	61.1
194.239	7.85
194.458	20.14
194.678	57
194.897	-31.06
195.116	59.05
195.335	36.52
195.555	-35.16
195.774	-37.2
195.993	44.71
196.212	-26.96
196.432	-29.01
196.651	-12.63
196.87	-18.77
197.089	42.67
197.308	-29.01
197.528	46.76
197.747	-45.4
197.966	-41.3
198.185	38.57
198.404	-29.01
198.623	9.9
198.842	-14.68
199.062	38.57
199.281	42.67
199.5	-4.44
199.719	54.95
199.938	-22.87
200.157	52.91
200.376	3.75
200.595	-2.39
200.814	-16.73
201.033	71.34
201.252	26.28
201.471	28.33
201.69	75.43
201.909	32.43
202.128	-39.25
202.347	28.33
202.566	-12.63
202.785	36.52
203.004	-4.44
203.223	65.19
203.442	57
203.661	36.52
203.879	59.05
204.098	20.14
204.317	-51.54
204.536	85.67
204.755	32.43
204.974	20.14
205.193	-57.68
205.411	85.67
205.63	-8.53
205.849	1.71
206.068	61.1
206.287	38.57
206.505	48.81
206.724	-24.92
206.943	-2.39
207.162	-57.68
207.381	3.75
207.599	-10.58
207.818	46.76
208.037	9.9
208.255	-51.54
208.474	-37.2
208.693	42.67
208.911	32.43
209.13	9.9
209.349	-26.96
209.567	3.75
209.786	9.9
210.005	38.57
210.223	71.34
210.442	-39.25
210.661	69.29
210.879	42.67
211.098	40.62
211.316	81.58
211.535	32.43
211.753	16.04
211.972	22.19
212.191	44.71
212.409	-10.58
212.628	3.75
212.846	11.95
213.065	61.1
213.283	18.09
213.502	-67.92
213.72	-0.34
213.938	38.57
214.157	59.05
214.375	-2.39
214.594	-4.44
214.812	-26.96
215.031	-26.96
215.249	11.95
215.467	20.14
215.686	44.71
215.904	85.67
216.122	-33.11
216.341	9.9
216.559	3.75
216.778	11.95
216.996	67.24
217.214	30.38
217.432	-45.4
217.651	-29.01
217.869	-18.77
218.087	-47.44
218.306	16.04
218.524	67.24
218.742	34.47
218.96	-24.92
219.179	28.33
219.397	18.09
219.615	-2.39
219.833	40.62
220.051	52.91
220.27	85.67
220.488	-92.5
220.706	16.04
220.924	22.19
221.142	-16.73
221.36	32.43
221.578	1.71
221.796	75.43
222.015	61.1
222.233	48.81
222.451	69.29
222.669	36.52
222.887	20.14
223.105	16.04
223.323	44.71
223.541	-51.54
223.759	54.95
223.977	-10.58
224.195	59.05
224.413	24.23
224.631	63.15
224.849	104.11
225.067	67.24
225.285	5.8
225.503	54.95
225.721	-18.77
225.939	87.72
226.157	50.86
226.375	134.82
226.592	-6.49
226.81	16.04
227.028	34.47
227.246	40.62
227.464	30.38
227.682	16.04
227.9	7.85
228.117	85.67
228.335	50.86
228.553	-2.39
228.771	1.71
228.989	20.14
229.206	67.24
229.424	-31.06
229.642	-39.25
229.86	-45.4
230.077	24.23
230.295	54.95
230.513	79.53
230.731	44.71
230.948	28.33
231.166	65.19
231.384	9.9
231.601	32.43
231.819	165.54
232.037	-2.39
232.254	-12.63
232.472	52.91
232.689	-49.49
232.907	83.63
233.125	-22.87
233.342	-67.92
233.56	-0.34
233.777	16.04
233.995	83.63
234.213	44.71
234.43	13.99
234.648	26.28
234.865	-2.39
235.083	50.86
235.3	-41.3
235.518	102.06
235.735	40.62
235.953	32.43
236.17	83.63
236.388	-8.53
236.605	-20.82
236.822	57
237.04	44.71
237.257	20.14
237.475	3.75
237.692	38.57
237.909	11.95
238.127	20.14
238.344	-12.63
238.562	83.63
238.779	-20.82
238.996	-74.07
239.214	13.99
239.431	28.33
239.648	20.14
239.865	40.62
240.083	36.52
240.3	50.86
240.517	1.71
240.735	5.8
240.952	-16.73
241.169	18.09
241.386	153.26
241.603	20.14
241.821	-35.16
242.038	50.86
242.255	42.67
242.472	-24.92
242.689	57
242.907	-14.68
243.124	44.71
243.341	-6.49
243.558	-26.96
243.775	13.99
243.992	-61.78
244.209	81.58
244.426	71.34
244.643	69.29
244.86	-0.34
245.078	38.57
245.295	16.04
245.512	28.33
245.729	-31.06
245.946	42.67
246.163	18.09
246.38	-2.39
246.597	-8.53
246.814	87.72
247.031	1.71
247.248	1.71
247.464	-4.44
247.681	30.38
247.898	18.09
248.115	93.87
248.332	-18.77
248.549	40.62
248.766	28.33
248.983	85.67
249.2	-16.73
249.417	16.04
249.633	-6.49
249.85	-67.92
250.067	18.09
250.284	11.95
250.501	50.86
250.717	24.23
250.934	-14.68
251.151	67.24
251.368	24.23
251.585	-0.34
251.801	48.81
252.018	1.71
252.235	-20.82
252.451	-72.02
252.668	-0.34
252.885	61.1
253.102	-29.01
253.318	16.04
253.535	-8.53
253.752	16.04
253.968	30.38
254.185	-59.73
254.401	22.19
254.618	-2.39
254.835	34.47
255.051	54.95
255.268	67.24
255.484	-6.49
255.701	-0.34
255.917	-6.49
256.134	-26.96
256.351	85.67
256.567	13.99
256.784	-8.53
257	-22.87
257.217	22.19
257.433	75.43
257.65	-37.2
257.866	16.04
258.082	-4.44
258.299	-80.21
258.515	42.67
258.732	-14.68
258.948	-16.73
259.165	50.86
259.381	-18.77
259.597	18.09
259.814	3.75
260.03	11.95
260.246	-33.11
260.463	63.15
260.679	46.76
260.895	11.95
261.112	75.43
261.328	-82.26
261.544	-22.87
261.761	3.75
261.977	-2.39
262.193	-63.83
262.409	-47.44
262.626	34.47
262.842	-39.25
263.058	-61.78
263.274	52.91
263.49	-31.06
263.707	52.91
263.923	24.23
264.139	-8.53
264.355	79.53
264.571	79.53
264.787	3.75
265.004	9.9
265.22	-16.73
265.436	42.67
265.652	20.14
265.868	44.71
266.084	71.34
266.3	93.87
266.516	16.04
266.732	-8.53
266.948	20.14
267.164	16.04
267.38	18.09
267.596	36.52
267.812	61.1
268.028	16.04
268.244	-18.77
268.46	36.52
268.676	59.05
268.892	7.85
269.108	3.75
269.324	-26.96
269.54	-57.68
269.756	-12.63
269.972	11.95
270.188	11.95
270.403	-12.63
270.619	-22.87
270.835	1.71
271.051	-16.73
271.267	-8.53
271.483	28.33
271.698	26.28
271.914	18.09
272.13	28.33
272.346	-43.35
272.562	9.9
272.777	83.63
272.993	59.05
273.209	-4.44
273.425	89.77
273.64	-35.16
273.856	63.15
274.072	-53.59
274.287	5.8
274.503	75.43
274.719	57
274.934	24.23
275.15	-2.39
275.366	-16.73
275.581	26.28
275.797	-0.34
276.012	50.86
276.228	38.57
276.444	13.99
276.659	48.81
276.875	-18.77
277.09	11.95
277.306	-8.53
277.521	87.72
277.737	38.57
277.952	48.81
278.168	36.52
278.383	5.8
278.599	-29.01
278.814	130.73
279.03	5.8
279.245	38.57
279.461	61.1
279.676	93.87
279.892	-69.97
280.107	-63.83
280.322	5.8
280.538	-86.36
280.753	-14.68
280.969	-12.63
281.184	13.99
281.399	63.15
281.615	-47.44
281.83	1.71
282.045	26.28
282.26	-2.39
282.476	-10.58
282.691	-26.96
282.906	22.19
283.122	36.52
283.337	34.47
283.552	-14.68
283.767	-16.73
283.983	44.71
284.198	-31.06
284.413	73.39
284.628	-29.01
284.843	48.81
285.058	63.15
285.274	40.62
285.489	-16.73
285.704	42.67
285.919	22.19
286.134	16.04
286.349	-6.49
286.564	-22.87
286.779	59.05
286.995	46.76
287.21	-88.4
287.425	1.71
287.64	-8.53
287.855	-8.53
288.07	38.57
288.285	-0.34
288.5	11.95
288.715	44.71
288.93	-10.58
289.145	-65.88
289.36	22.19
289.575	28.33
289.79	-2.39
290.004	1.71
290.219	44.71
290.434	16.04
290.649	54.95
290.864	-6.49
291.079	9.9
291.294	61.1
291.509	22.19
291.724	7.85
291.938	-16.73
292.153	81.58
292.368	-26.96
292.583	85.67
292.798	71.34
293.012	71.34
293.227	32.43
293.442	75.43
293.657	-14.68
293.871	63.15
294.086	36.52
294.301	59.05
294.516	126.63
294.73	-4.44
294.945	30.38
295.16	50.86
295.374	81.58
295.589	7.85
295.804	-67.92
296.018	-43.35
296.233	112.3
296.447	16.04
296.662	16.04
296.877	73.39
297.091	-39.25
297.306	42.67
297.52	44.71
297.735	40.62
297.949	83.63
298.164	54.95
298.378	22.19
298.593	36.52
298.807	13.99
299.022	83.63
299.236	18.09
299.451	36.52
299.665	-72.02
299.88	75.43
300.094	-37.2
300.309	-29.01
300.523	73.39
300.737	-20.82
300.952	18.09
301.166	9.9
301.381	9.9
301.595	83.63
301.809	34.47
302.024	11.95
302.238	-35.16
302.452	57
302.667	46.76
302.881	89.77
303.095	3.75
303.309	-22.87
303.524	7.85
303.738	-31.06
303.952	46.76
304.166	93.87
304.381	-31.06
304.595	20.14
304.809	-14.68
305.023	-14.68
305.237	11.95
305.452	69.29
305.666	48.81
305.88	3.75
306.094	-53.59
306.308	5.8
306.522	20.14
306.736	54.95
306.95	34.47
307.164	-8.53
307.379	20.14
307.593	44.71
307.807	65.19
308.021	1.71
308.235	20.14
308.449	-74.07
308.663	81.58
308.877	85.67
309.091	18.09
309.305	34.47
309.519	38.57
309.733	22.19
309.947	-20.82
310.161	73.39
310.374	-35.16
310.588	81.58
310.802	-0.34
311.016	67.24
311.23	40.62
311.444	40.62
311.658	97.96
311.872	-33.11
312.085	24.23
312.299	73.39
312.513	42.67
312.727	44.71
312.941	-18.77
313.154	52.91
313.368	11.95
313.582	5.8
313.796	38.57
314.009	-69.97
314.223	34.47
314.437	67.24
314.651	40.62
314.864	-4.44
315.078	38.57
315.292	-20.82
315.505	67.24
315.719	-20.82
315.933	100.01
316.146	83.63
316.36	-35.16
316.573	106.15
316.787	71.34
317.001	-2.39
317.214	38.57
317.428	-33.11
317.641	-12.63
317.855	-35.16
318.068	-39.25
318.282	-33.11
318.495	46.76
318.709	48.81
318.922	-12.63
319.136	5.8
319.349	-6.49
319.563	67.24
319.776	69.29
319.99	-69.97
320.203	46.76
320.417	38.57
320.63	26.28
320.843	97.96
321.057	32.43
321.27	75.43
321.483	30.38
321.697	100.01
321.91	65.19
322.124	3.75
322.337	24.23
322.55	50.86
322.763	67.24
322.977	11.95
323.19	1.71
323.403	-8.53
323.617	126.63
323.83	30.38
324.043	59.05
324.256	52.91
324.469	-0.34
324.683	71.34
324.896	-53.59
325.109	-29.01
325.322	-18.77
325.535	93.87
325.748	-29.01
325.962	-22.87
326.175	95.91
326.388	30.38
326.601	9.9
326.814	34.47
327.027	63.15
327.24	34.47
327.453	-41.3
327.666	-18.77
327.879	102.06
328.092	-6.49
328.305	50.86
328.518	-82.26
328.731	40.62
328.944	81.58
329.157	34.47
329.37	-37.2
329.583	97.96
329.796	52.91
330.009	-51.54
330.222	77.48
330.435	63.15
330.648	18.09
330.861	-14.68
331.073	38.57
331.286	48.81
331.499	20.14
331.712	-16.73
331.925	-12.63
332.138	65.19
332.35	-16.73
332.563	-31.06
332.776	67.24
332.989	-4.44
333.202	34.47
333.414	-16.73
333.627	22.19
333.84	-8.53
334.053	13.99
334.265	-18.77
334.478	24.23
334.691	44.71
334.903	22.19
335.116	-12.63
335.329	-39.25
335.541	26.28
335.754	38.57
335.966	7.85
336.179	-20.82
336.392	83.63
336.604	46.76
336.817	110.25
337.029	-33.11
337.242	7.85
337.454	22.19
337.667	24.23
337.88	52.91
338.092	-20.82
338.305	20.14
338.517	7.85
338.729	-20.82
338.942	63.15
339.154	52.91
339.367	9.9
339.579	112.3
339.792	-6.49
340.004	73.39
340.217	-41.3
340.429	20.14
340.641	16.04
340.854	28.33
341.066	24.23
341.278	22.19
341.491	100.01
341.703	20.14
341.915	11.95
342.128	24.23
342.34	26.28
342.552	9.9
342.764	-41.3
342.977	-18.77
343.189	40.62
343.401	-10.58
343.613	-2.39
343.826	20.14
344.038	-37.2
344.25	9.9
344.462	9.9
344.674	18.09
344.886	44.71
345.099	-4.44
345.311	26.28
345.523	11.95
345.735	-37.2
345.947	85.67
346.159	-53.59
346.371	-41.3
346.583	87.72
346.795	114.34
347.007	32.43
347.219	26.28
347.431	-51.54
347.643	77.48
347.855	28.33
348.067	5.8
348.279	11.95
348.491	54.95
348.703	1.71
348.915	-10.58
349.127	-41.3
349.339	50.86
349.551	-33.11
349.763	63.15
349.975	30.38
350.187	32.43
350.399	69.29
350.61	-14.68
350.822	38.57
351.034	48.81
351.246	75.43
351.458	22.19
351.669	67.24
351.881	54.95
352.093	42.67
352.305	38.57
352.517	52.91
352.728	-51.54
352.94	22.19
353.152	44.71
353.363	22.19
353.575	3.75
353.787	57
353.999	-6.49
354.21	97.96
354.422	-8.53
354.633	36.52
354.845	34.47
355.057	42.67
355.268	30.38
355.48	32.43
355.692	-45.4
355.903	16.04
356.115	-39.25
356.326	-26.96
356.538	24.23
356.749	-18.77
356.961	97.96
357.172	18.09
357.384	18.09
357.595	108.2
357.807	61.1
358.018	40.62
358.23	-2.39
358.441	46.76
358.653	-8.53
358.864	26.28
359.075	-29.01
359.287	-37.2
359.498	65.19
359.709	-2.39
359.921	108.2
360.132	61.1
360.344	20.14
360.555	1.71
360.766	24.23
360.977	83.63
361.189	-8.53
361.4	-10.58
361.611	59.05
361.823	26.28
362.034	20.14
362.245	-16.73
362.456	-2.39
362.667	52.91
362.879	104.11
363.09	9.9
363.301	73.39
363.512	52.91
363.723	69.29
363.935	13.99
364.146	20.14
364.357	32.43
364.568	69.29
364.779	-31.06
364.99	50.86
365.201	9.9
365.412	40.62
365.623	-43.35
365.834	36.52
366.045	7.85
366.256	57
366.467	46.76
366.678	32.43
366.889	79.53
367.1	83.63
367.311	73.39
367.522	-43.35
367.733	67.24
367.944	79.53
368.155	-10.58
368.366	63.15
368.577	50.86
368.788	73.39
368.999	-67.92
369.209	67.24
369.42	67.24
369.631	95.91
369.842	44.71
370.053	-37.2
370.264	5.8
370.474	-29.01
370.685	1.71
370.896	57
371.107	38.57
371.317	63.15
371.528	-20.82
371.739	18.09
371.95	57
372.16	95.91
372.371	20.14
372.582	52.91
372.792	59.05
373.003	32.43
373.214	9.9
373.424	91.82
373.635	-20.82
373.846	44.71
374.056	-0.34
374.267	11.95
374.477	-24.92
374.688	-8.53
374.898	30.38
375.109	-6.49
375.319	65.19
375.53	114.34
375.74	63.15
375.951	-6.49
376.161	26.28
376.372	54.95
376.582	11.95
376.793	77.48
377.003	95.91
377.214	18.09
377.424	22.19
377.635	67.24
377.845	5.8
378.055	77.48
378.266	1.71
378.476	-45.4
378.686	151.21
378.897	13.99
379.107	11.95
379.317	67.24
379.528	50.86
379.738	-10.58
379.948	-2.39
380.158	5.8
380.369	13.99
380.579	77.48
380.789	-16.73
380.999	-26.96
381.21	3.75
381.42	40.62
381.63	5.8
381.84	116.39
382.05	75.43
382.261	112.3
382.471	44.71
382.681	-0.34
382.891	77.48
383.101	73.39
383.311	3.75
383.521	-39.25
383.731	108.2
383.941	-14.68
384.151	132.78
384.361	83.63
384.571	30.38
384.781	52.91
384.991	145.06
385.201	57
385.411	61.1
385.621	65.19
385.831	79.53
386.041	44.71
386.251	-76.12
386.461	-8.53
386.671	-12.63
386.881	110.25
387.091	52.91
387.301	36.52
387.511	52.91
387.72	122.54
387.93	34.47
388.14	-16.73
388.35	-18.77
388.56	69.29
388.769	71.34
388.979	-6.49
389.189	114.34
389.399	22.19
389.609	50.86
389.818	13.99
390.028	34.47
390.238	-8.53
390.447	24.23
390.657	61.1
390.867	9.9
391.076	38.57
391.286	40.62
391.496	79.53
391.705	28.33
391.915	108.2
392.125	48.81
392.334	110.25
392.544	77.48
392.753	93.87
392.963	11.95
393.172	18.09
393.382	-29.01
393.591	155.3
393.801	67.24
394.01	134.82
394.22	69.29
394.429	40.62
394.639	-12.63
394.848	61.1
395.058	100.01
395.267	81.58
395.477	9.9
395.686	18.09
395.895	108.2
396.105	134.82
396.314	151.21
396.524	57
396.733	36.52
396.942	57
397.152	100.01
397.361	165.54
397.57	3.75
397.78	32.43
397.989	89.77
398.198	54.95
398.407	-16.73
398.617	50.86
398.826	38.57
399.035	63.15
399.244	83.63
399.453	61.1
399.663	126.63
399.872	38.57
400.081	130.73
400.29	52.91
400.499	28.33
400.708	128.68
400.917	50.86
401.127	145.06
401.336	1.71
401.545	97.96
401.754	116.39
401.963	85.67
402.172	16.04
402.381	91.82
402.59	130.73
402.799	67.24
403.008	130.73
403.217	30.38
403.426	75.43
403.635	50.86
403.844	34.47
404.053	85.67
404.262	81.58
404.471	97.96
404.68	67.24
404.888	108.2
405.097	77.48
405.306	104.11
405.515	73.39
405.724	89.77
405.933	136.87
406.142	114.34
406.35	161.45
406.559	128.68
406.768	122.54
406.977	136.87
407.185	140.97
407.394	175.78
407.603	-10.58
407.812	116.39
408.02	132.78
408.229	114.34
408.438	126.63
408.646	143.02
408.855	206.5
409.064	177.83
409.272	183.98
409.481	222.89
409.69	206.5
409.898	169.64
410.107	235.18
410.315	208.55
410.524	249.51
410.733	282.28
410.941	243.37
411.15	378.53
411.358	190.12
411.567	261.8
411.775	229.03
411.984	345.77
412.192	310.95
412.401	282.28
412.609	366.25
412.818	372.39
413.026	296.61
413.234	325.29
413.443	306.85
413.651	362.15
413.86	345.77
414.068	421.54
414.276	474.79
414.485	495.27
414.693	435.88
414.901	552.61
415.11	476.84
415.318	413.35
415.526	452.26
415.734	554.66
415.943	597.67
416.151	616.1
416.359	595.62
416.567	489.12
416.776	528.03
416.984	712.35
417.192	788.13
417.4	657.06
417.608	704.16
417.817	749.22
418.025	851.61
418.233	822.94
418.441	788.13
418.649	900.76
418.857	929.44
419.065	947.87
419.273	894.62
419.481	954.01
419.689	1099.42
419.897	1058.46
420.105	1080.99
420.313	1158.81
420.521	1183.38
420.729	1171.1
420.937	1244.82
421.145	1279.64
421.353	1447.57
421.561	1400.47
421.769	1386.13
421.977	1572.5
422.185	1429.14
422.393	1586.83
422.601	1678.99
422.809	1640.08
423.017	1703.57
423.224	1832.59
423.432	1773.2
423.64	1902.22
423.848	1990.28
424.056	1793.68
424.263	2176.65
424.471	2158.22
424.679	2139.79
424.887	2309.77
425.094	2395.78
425.302	2313.86
425.51	2354.82
425.718	2444.93
425.925	2498.18
426.133	2471.56
426.341	2932.35
426.548	2832
426.756	2797.18
426.964	3032.7
427.171	3231.35
427.379	3104.38
427.586	3266.17
427.794	3241.59
428.001	3470.97
428.209	3595.89
428.417	3546.74
428.624	3778.16
428.832	3767.92
429.039	3624.56
429.247	3792.5
429.454	4118.12
429.662	4355.69
429.869	4257.39
430.076	4408.94
430.284	4329.06
430.491	4468.33
430.699	4673.12
430.906	4701.79
431.114	4912.74
431.321	5054.05
431.528	5043.81
431.736	5299.8
431.943	5641.81
432.15	5652.05
432.358	5494.36
432.565	5949.01
432.772	5826.13
432.979	6149.71
433.187	6266.44
433.394	6301.26
433.601	6606.41
433.808	6708.8
434.016	6770.24
434.223	6991.42
434.43	7376.44
434.637	7329.34
434.844	7704.12
435.052	7853.62
435.259	7765.56
435.466	7816.76
435.673	8058.42
435.88	8222.25
436.087	8887.84
436.294	8826.4
436.501	8676.9
436.708	8828.45
436.915	9236
437.122	9436.7
437.329	9301.53
437.537	9784.85
437.743	9817.62
437.95	10075.66
438.157	10296.85
438.364	10751.49
438.571	10665.48
438.778	10753.54
438.985	11593.21
439.192	11228.67
439.399	11650.55
439.606	11357.69
439.813	12021.24
440.02	12668.39
440.227	12629.48
440.433	12594.67
440.64	12776.94
440.847	12647.91
441.054	13200.87
441.261	13936.09
441.467	13649.37
441.674	14142.93
441.881	14622.16
442.088	14220.75
442.294	14249.43
442.501	14751.18
442.708	15324.61
442.914	15668.67
443.121	16154.04
443.328	16160.18
443.534	17145.25
443.741	16405.94
443.948	16244.15
444.154	17806.75
444.361	17292.71
444.568	17569.18
444.774	17700.25
444.981	17882.52
445.187	18396.56
445.394	18718.09
445.6	19107.21
445.807	20403.57
446.013	19905.91
446.22	19875.2
446.426	20774.25
446.633	20895.08
446.839	21706.08
447.046	21142.89
447.252	21894.49
447.459	22132.06
447.665	21917.02
447.871	23106.89
448.078	24309.05
448.284	22744.4
448.491	23661.89
448.697	24671.54
448.903	24991.02
449.11	25122.09
449.316	24427.83
449.522	24972.59
449.728	25951.52
449.935	26133.79
450.141	25969.95
450.347	26809.62
450.553	25765.15
450.76	25709.86
450.966	26744.08
451.172	26621.2
451.378	27041.04
451.584	26492.18
451.791	27354.38
451.997	27071.76
452.203	27749.64
452.409	27505.93
452.615	27593.99
452.821	26371.35
453.027	25894.18
453.233	27428.1
453.44	26426.65
453.646	26869.01
453.852	26613.01
454.058	27041.04
454.264	25871.65
454.47	27024.65
454.676	26230.04
454.882	27215.12
455.088	24788.27
455.294	24982.83
455.5	25842.98
455.705	25892.13
455.911	24864.05
456.117	24569.14
456.323	23811.39
456.529	22758.74
456.735	23764.29
456.941	22945.1
457.147	22705.49
457.352	21943.64
457.558	21618.02
457.764	21474.66
457.97	21357.92
458.176	21017.96
458.381	20907.37
458.587	20049.27
458.793	19664.25
458.999	18603.41
459.204	20145.53
459.41	19717.5
459.616	18171.29
459.821	18353.55
460.027	18142.61
460.233	17921.43
460.438	16960.94
460.644	17034.66
460.85	16352.69
461.055	16149.94
461.261	15791.55
461.466	14804.42
461.672	14427.6
461.878	15539.65
462.083	14509.52
462.289	14067.16
462.494	14071.25
462.7	13317.6
462.905	13088.23
463.111	13483.48
463.316	13686.23
463.522	13096.42
463.727	13131.23
463.932	13055.46
464.138	12983.78
464.343	13018.6
464.549	12631.53
464.754	13084.13
464.959	12926.44
465.165	12969.44
465.37	12219.89
465.575	12103.15
465.781	12641.77
465.986	12688.87
466.191	12117.49
466.397	11879.93
466.602	11224.58
466.807	11748.86
467.012	11771.38
467.218	12041.71
467.423	11609.59
467.628	11642.36
467.833	12412.4
468.038	11714.04
468.244	11353.6
468.449	11716.09
468.654	11492.86
468.859	11361.79
469.064	11480.57
469.269	10790.41
469.474	10903.04
469.679	11083.27
469.885	10581.51
470.09	10673.67
470.295	10929.67
470.5	10626.57
470.705	10724.87
470.91	10346
471.115	10214.93
471.32	10419.72
471.525	10264.08
471.73	10216.97
471.935	10194.45
472.139	9881.11
472.344	9928.21
472.549	9803.29
472.754	9707.03
472.959	9500.19
473.164	9152.03
473.369	9289.24
473.574	9670.17
473.778	9471.51
473.983	9395.74
474.188	9154.08
474.393	8916.51
474.598	9041.44
474.802	8891.94
475.007	8871.46
475.212	8654.37
475.417	8408.62
475.621	8472.11
475.826	8449.58
476.031	8439.34
476.235	8085.04
476.44	8267.31
476.645	8140.33
476.849	8031.79
477.054	8060.46
477.259	8025.65
477.463	7886.39
477.668	7622.2
477.872	7851.57
478.077	7738.93
478.282	7425.59
478.486	7425.59
478.691	7292.48
478.895	7296.57
479.1	7425.59
479.304	7368.25
479.509	7024.19
479.713	7308.86
479.918	6997.57
480.122	7093.82
480.326	7159.36
480.531	7212.6
480.735	6966.85
480.94	6893.12
481.144	7104.06
481.348	6786.63
481.553	6997.57
481.757	6958.66
481.961	6803.01
482.166	6901.31
482.37	6889.03
482.574	6694.47
482.778	6788.68
482.983	6882.88
483.187	6862.4
483.391	6706.76
483.595	6774.34
483.8	6553.16
484.004	6932.03
484.208	6915.65
484.412	6735.43
484.616	6774.34
484.821	6831.68
485.025	6745.67
485.229	6800.96
485.433	6800.96
485.637	6714.95
485.841	6776.39
486.045	6747.72
486.249	6860.35
486.453	6651.46
486.657	6895.17
486.861	6717
487.065	6760
487.269	6749.76
487.473	6784.58
487.677	6891.07
487.881	6927.94
488.085	6837.83
488.289	6788.68
488.493	6823.49
488.697	6843.97
488.901	7003.71
489.105	6731.33
489.309	6993.47
489.512	6764.1
489.716	6899.27
489.92	6923.84
490.124	6719.04
490.328	6981.18
490.531	6813.25
490.735	7104.06
490.939	6901.31
491.143	7134.78
491.346	6999.62
491.55	7145.02
491.754	6932.03
491.958	7020.1
492.161	7142.97
492.365	7095.87
492.569	7132.73
492.772	7114.3
492.976	7296.57
493.18	7081.53
493.383	7341.63
493.587	7288.38
493.79	7642.68
493.994	7292.48
494.197	7263.8
494.401	7368.25
494.605	7659.06
494.808	7667.25
495.012	7736.88
495.215	8042.03
495.419	7683.64
495.622	7894.58
495.825	7835.19
496.029	7898.67
496.232	8099.38
496.436	8087.09
496.639	8330.8
496.843	8029.74
497.046	8449.58
497.249	8361.52
497.453	8492.59
497.656	8545.83
497.859	8734.25
498.063	8560.17
498.266	9068.06
498.469	8748.58
498.673	8914.47
498.876	9053.73
499.079	9129.5
499.282	9158.17
499.485	9711.13
499.689	9426.46
499.892	9903.64
500.095	9651.74
500.298	9827.86
500.501	9717.27
500.705	9997.84
500.908	10208.78
501.111	10038.8
501.314	10446.35
501.517	10280.46
501.72	10589.71
501.923	10583.56
502.126	10817.03
502.329	10925.57
502.532	10851.85
502.735	10862.08
502.938	11464.19
503.141	11482.62
503.344	11527.67
503.547	11734.52
503.75	11738.62
503.953	12037.62
504.156	11922.93
504.359	12076.53
504.562	12285.42
504.765	12490.22
504.968	12717.54
505.17	12709.35
505.373	12813.8
505.576	13153.76
505.779	13352.41
505.982	13475.29
506.185	13772.25
506.387	13538.78
506.59	13708.76
506.793	14042.58
506.996	13835.74
507.198	14194.13
507.401	14409.17
507.604	14253.52
507.807	14804.42
508.009	15013.32
508.212	15099.33
508.415	15140.29
508.617	15039.94
508.82	15207.87
509.022	15461.82
509.225	15803.83
509.428	16082.36
509.63	16225.72
509.833	16260.53
510.035	16571.82
510.238	16623.02
510.44	16522.67
510.643	16895.4
510.845	17292.71
511.048	16950.7
511.25	17685.92
511.453	17675.68
511.655	18134.42
511.858	18023.83
512.06	18263.44
512.262	18544.02
512.465	18453.91
512.667	18926.99
512.87	18892.17
513.072	19076.49
513.274	19553.66
513.477	19512.7
513.679	19879.29
513.881	19840.38
514.084	20295.03
514.286	20309.36
514.488	20575.6
514.69	21398.88
514.893	20940.14
515.095	20940.14
515.297	21462.37
515.499	21640.54
515.701	21736.8
515.904	22246.74
516.106	22226.26
516.308	22498.64
516.51	22875.47
516.712	22918.48
516.914	23545.16
517.116	23471.43
517.318	23592.26
517.52	23899.45
517.722	24163.64
517.925	24657.2
518.127	24825.14
518.329	24767.79
518.531	24524.08
518.733	25152.81
518.935	25570.6
519.136	25460.01
519.338	25777.44
519.54	25894.18
519.742	26699.03
519.944	26617.11
520.146	26776.85
520.348	27247.88
520.55	27329.8
520.752	27434.25
520.954	27936
521.155	27753.73
521.357	28415.23
521.559	28609.78
521.761	28955.89
521.963	28884.21
522.164	29091.05
522.366	29119.73
522.568	29752.55
522.77	29687.01
522.971	30414.04
523.173	29998.3
523.375	30440.67
523.576	30299.36
523.778	30885.08
523.98	31153.36
524.181	31124.69
524.383	31196.37
524.584	31933.64
524.786	31712.45
524.988	31909.06
525.189	32093.38
525.391	32216.26
525.592	32531.64
525.794	32957.62
525.995	32758.97
526.197	33193.14
526.398	32933.04
526.6	33332.4
526.801	33768.62
527.003	33588.39
527.204	33619.11
527.406	34151.59
527.607	34004.13
527.808	34616.47
528.01	33801.38
528.211	34235.55
528.412	34694.3
528.614	34720.92
528.815	34778.26
529.016	35167.38
529.218	34991.25
529.419	34901.14
529.62	35140.75
529.822	35347.6
530.023	35318.93
530.224	35746.95
530.425	35361.94
530.626	35280.02
530.828	35376.27
531.029	36088.96
531.23	35781.77
531.431	35810.44
531.632	36107.4
531.833	36103.3
532.035	36099.2
532.236	36191.36
532.437	36418.69
532.638	36351.1
532.839	36347.01
533.04	36244.61
533.241	36191.36
533.442	36910.2
533.643	36467.84
533.844	36410.5
534.045	36656.25
534.246	36009.09
534.447	36869.24
534.648	36662.4
534.849	36689.02
535.05	36355.2
535.251	36629.63
535.451	36367.49
535.652	37071.99
535.853	36590.72
536.054	36707.45
536.255	36922.49
536.456	36793.47
536.657	37299.31
536.857	36715.64
537.058	36666.49
537.259	37076.08
537.46	36813.94
537.66	36873.34
537.861	37129.33
538.062	36486.27
538.263	37121.14
538.463	36764.79
538.664	36959.35
538.865	37217.39
539.065	37610.6
539.266	36410.5
539.466	37033.08
539.667	36605.05
539.868	37379.18
540.068	36768.89
540.269	37076.08
540.469	37168.24
540.67	36797.56
540.87	36807.8
541.071	36775.03
541.271	37045.37
541.472	36705.4
541.672	36844.66
541.873	36811.9
542.073	36467.84
542.274	36883.58
542.474	36877.43
542.675	36439.17
542.875	37002.36
543.075	37014.65
543.276	36332.67
543.476	37115
543.676	36807.8
543.877	36748.41
544.077	37045.37
544.277	36631.68
544.478	36553.85
544.678	36881.53
544.878	36973.69
545.078	36893.82
545.279	36793.47
545.479	36697.21
545.679	36897.91
545.879	36832.38
546.079	36465.79
546.28	36430.97
546.48	36318.34
546.68	36797.56
546.88	36885.62
547.08	36570.24
547.28	36830.33
547.48	36150.4
547.68	36672.64
547.88	36383.87
548.081	36672.64
548.281	36320.38
548.481	36328.58
548.681	36998.26
548.881	36473.98
549.081	36426.88
549.28	36512.89
549.48	36861.05
549.68	36603
549.88	36727.93
550.08	36447.36
550.28	36701.31
550.48	36512.89
550.68	36852.86
550.88	36412.54
551.08	36293.76
551.279	36455.55
551.479	36041.86
551.679	36582.52
551.879	36099.2
552.079	36525.18
552.278	36189.31
552.478	36584.57
552.678	36394.11
552.878	36578.43
553.077	36140.16
553.277	36105.35
553.477	36904.06
553.676	35949.7
553.876	36174.98
554.076	35957.89
554.275	36088.96
554.475	35775.62
554.674	36265.09
554.874	36177.03
555.074	35808.39
555.273	36037.76
555.473	36324.48
555.672	35703.95
555.872	36207.75
556.071	35656.84
556.271	35755.15
556.47	35632.27
556.67	35202.19
556.869	35421.33
557.068	35826.82
557.268	35241.1
557.467	35495.05
557.667	35257.49
557.866	35398.8
558.065	35077.27
558.265	34981.01
558.464	35062.93
558.663	35415.18
558.863	34905.24
559.062	35576.97
559.261	35110.03
559.461	35302.54
559.66	34448.54
559.859	34743.45
560.058	34534.56
560.258	34858.13
560.457	34215.07
560.656	34931.86
560.855	34440.35
561.054	34770.07
561.253	34038.95
561.453	34452.64
561.652	34499.74
561.851	34542.75
562.05	34098.34
562.249	33907.88
562.448	34466.97
562.647	33901.73
562.846	33948.84
563.045	33741.99
563.244	33442.99
563.443	33940.64
563.642	33262.77
563.841	33119.41
564.04	33336.49
564.239	33457.32
564.438	33115.31
564.637	33641.64
564.836	33320.11
565.035	32902.32
565.234	33041.59
565.432	32466.11
565.631	32494.78
565.83	32699.58
566.029	32715.96
566.228	32924.85
566.427	32634.04
566.625	31884.48
566.824	31927.49
567.023	32482.49
567.222	31614.15
567.42	32150.72
567.619	32056.51
567.818	32079.04
568.016	31425.74
568.215	31947.97
568.414	31306.96
568.612	31505.61
568.811	31132.88
569.01	31163.6
569.208	30764.25
569.407	31055.06
569.605	30571.74
569.804	30917.84
570.002	30461.15
570.201	30622.94
570.4	30561.5
570.598	30354.65
570.797	30035.17
570.995	30082.27
571.193	29656.29
571.392	30262.49
571.59	29902.05
571.789	29578.47
571.987	30067.94
572.186	29465.83
572.384	29525.22
572.582	29394.15
572.781	29770.98
572.979	28787.96
573.177	29369.58
573.376	29211.88
573.574	28859.63
573.772	29121.77
573.971	28607.73
574.169	28753.14
574.367	28339.45
574.565	28681.46
574.763	28042.49
574.962	28394.75
575.16	28032.25
575.358	27942.14
575.556	27962.62
575.754	27972.86
575.952	27669.76
576.151	28079.36
576.349	27723.01
576.547	27534.6
576.745	27219.21
576.943	27526.41
577.141	27303.18
577.339	27038.99
577.537	27010.32
577.735	26991.89
577.933	26850.58
578.131	27251.98
578.329	26864.91
578.527	26891.54
578.725	26486.04
578.923	26862.86
579.121	26606.87
579.319	26125.6
579.516	26496.28
579.714	26469.65
579.912	26297.63
580.11	26068.25
580.308	26172.7
580.506	25759.01
580.704	25644.32
580.901	26189.08
581.099	26127.64
581.297	25541.92
581.495	25707.81
581.692	25394.47
581.89	25470.25
582.088	25652.52
582.285	25271.59
582.483	25584.93
582.681	25142.57
582.878	24966.45
583.076	24913.2
583.274	25240.87
583.471	24851.76
583.669	24905.01
583.866	24382.77
584.064	24788.27
584.262	24499.51
584.459	24737.07
584.657	24593.72
584.854	24692.02
585.052	24167.74
585.249	24212.79
585.447	24200.51
585.644	23663.94
585.841	24061.24
586.039	24309.05
586.236	23600.45
586.434	23964.99
586.631	23483.72
586.828	23582.02
587.026	23278.92
587.223	23508.29
587.42	23422.28
587.618	23227.72
587.815	23164.23
588.012	22799.69
588.21	22922.57
588.407	23113.03
588.604	22990.16
588.801	22941
588.999	22619.47
589.196	22871.37
589.393	22691.15
589.59	22611.28
589.787	22195.54
589.984	22158.68
590.182	22041.95
590.379	22504.79
590.576	22281.56
590.773	22316.37
590.97	22033.75
591.167	22140.25
591.364	21921.12
591.561	22170.97
591.758	21415.27
591.955	21751.13
592.152	21759.33
592.349	21679.46
592.546	21486.95
592.743	21349.73
592.94	21085.54
593.137	21501.28
593.334	21282.15
593.531	20946.28
593.727	21050.73
593.924	21017.96
594.121	20985.19
594.318	21114.22
594.515	20813.17
594.712	20890.99
594.908	20825.45
595.105	20684.14
595.302	20499.83
595.499	20917.61
595.696	20620.66
595.892	20346.23
596.089	20397.43
596.286	20483.44
596.482	20168.05
596.679	20182.39
596.876	20366.71
597.072	20041.08
597.269	20188.53
597.466	19776.89
597.662	19879.29
597.859	19907.96
598.055	19776.89
598.252	19621.25
598.448	19707.26
598.645	19737.98
598.841	19377.54
599.038	19457.41
599.234	19395.97
599.431	19209.61
599.627	19236.23
599.824	19465.6
600.02	19113.35
600.217	19252.61
600.413	19144.07
600.609	18840.97
600.806	18791.82
601.002	19119.49
601.198	18847.12
601.395	18802.06
601.591	18750.86
601.787	18711.95
601.984	18484.62
602.18	18736.52
602.376	18261.4
602.572	18412.95
602.769	18331.03
602.965	18228.63
603.161	18345.36
603.357	18120.09
603.553	17905.05
603.75	18122.13
603.946	17991.06
604.142	18095.51
604.338	17728.92
604.534	17878.43
604.73	17573.28
604.926	17479.07
605.122	17972.63
605.318	17765.79
605.514	17837.47
605.71	17012.14
605.906	17563.04
606.102	17444.26
606.298	17483.17
606.494	17243.56
606.69	17092.01
606.886	17178.02
607.082	16852.39
607.278	17139.11
607.474	16803.24
607.67	16825.77
607.866	16895.4
608.062	17227.17
608.257	16666.03
608.453	16616.88
608.649	16962.98
608.845	16772.52
609.041	16674.22
609.236	16653.74
609.432	16530.86
609.628	16469.42
609.824	16367.02
610.019	16444.85
610.215	16256.43
610.411	16364.98
610.606	16119.22
610.802	16268.72
610.998	16090.55
611.193	16287.15
611.389	16246.19
611.584	16072.12
611.78	15904.18
611.976	15967.67
612.171	16061.88
612.367	15760.83
612.562	15904.18
612.758	15754.68
612.953	15783.35
613.149	15910.33
613.344	15766.97
613.539	15902.14
613.735	15648.19
613.93	15830.46
614.126	15898.04
614.321	15775.16
614.517	15709.63
614.712	15447.49
614.907	15728.06
615.103	15670.72
615.298	15236.55
615.493	15429.06
615.688	15324.61
615.884	15601.08
616.079	15345.09
616.274	15310.27
616.47	15226.31
616.665	15371.71
616.86	15009.22
617.055	15013.32
617.25	15037.89
617.445	15277.51
617.641	14808.52
617.836	15001.03
618.031	14814.66
618.226	14874.06
618.421	14845.38
618.616	14906.82
618.811	14575.05
619.006	14747.08
619.201	14224.85
619.396	14642.64
619.591	14280.14
619.786	14474.7
619.981	14230.99
620.176	14519.76
620.371	14138.83
620.566	14288.34
620.761	14067.16
620.956	14253.52
621.151	13731.29
621.346	14007.76
621.541	13546.97
621.735	14071.25
621.93	13489.63
622.125	13493.72
622.32	13661.66
622.515	13499.87
622.709	13506.01
622.904	13696.47
623.099	13370.85
623.294	13430.24
623.488	13125.09
623.683	13194.72
623.878	13002.21
624.072	13170.15
624.267	13002.21
624.462	12768.74
624.656	12654.06
624.851	12809.7
625.046	12723.69
625.24	12289.52
625.435	12666.35
625.629	12424.69
625.824	12246.51
626.018	12379.63
626.213	12011
626.407	12051.95
626.602	11851.25
626.796	12037.62
626.991	12029.43
627.185	11974.13
627.38	11644.41
627.574	11861.49
627.768	11697.66
627.963	11755
628.157	11474.43
628.352	11535.87
628.546	11415.04
628.74	11376.13
628.935	11398.65
629.129	11431.42
629.323	11265.53
629.517	11189.76
629.712	11044.35
629.906	11075.07
630.1	10829.32
630.294	10956.29
630.489	10667.53
630.683	10921.48
630.877	10618.38
631.071	10563.08
631.265	10690.06
631.459	10577.42
631.653	10728.97
631.848	10620.42
632.042	10104.34
632.236	10450.44
632.43	10229.26
632.624	10186.26
632.818	10208.78
633.012	10159.63
633.206	10317.33
633.4	9924.12
633.594	9868.82
633.788	10038.8
633.982	9805.33
634.176	10180.11
634.369	9743.89
634.563	9831.96
634.757	9502.23
634.951	9596.44
635.145	9696.79
635.339	9627.16
635.533	9448.99
635.726	9614.87
635.92	9385.5
636.114	9455.13
636.308	9201.18
636.501	9055.78
636.695	9176.61
636.889	9006.63
637.083	9102.88
637.276	8936.99
637.47	8936.99
637.664	9010.72
637.857	8996.39
638.051	8707.62
638.244	8822.31
638.438	8603.18
638.632	8740.39
638.825	8500.78
639.019	8629.8
639.212	8541.74
639.406	8367.66
639.599	8447.53
639.793	8406.57
639.986	8142.38
640.18	8175.15
640.373	8300.08
640.567	8166.96
640.76	8207.92
640.954	8142.38
641.147	7855.67
641.34	7790.13
641.534	8019.5
641.727	7962.16
641.92	7992.88
642.114	7915.06
642.307	7738.93
642.5	7566.9
642.694	7716.4
642.887	7646.77
643.08	7659.06
643.273	7732.79
643.467	7624.25
643.66	7480.89
643.853	7403.07
644.046	7401.02
644.239	7386.68
644.432	7282.24
644.626	7235.13
644.819	7364.15
645.012	7183.93
645.205	7235.13
645.398	7290.43
645.591	7159.36
645.784	7118.4
645.977	7104.06
646.17	7063.1
646.363	7085.63
646.556	6784.58
646.749	6927.94
646.942	6948.42
647.135	6774.34
647.328	6659.65
647.521	6497.86
647.714	6469.19
647.907	6620.74
648.099	6538.82
648.292	6547.01
648.485	6526.54
648.678	6493.77
648.871	6518.34
649.064	6461
649.256	6463.05
649.449	6432.33
649.642	6245.96
649.835	6180.43
650.027	6061.65
650.22	6090.32
650.413	6176.33
650.605	6170.19
650.798	6137.42
650.991	6135.37
651.183	6198.86
651.376	5854.8
651.568	6028.88
651.761	5957.2
651.954	5932.62
652.146	5881.42
652.339	5869.14
652.531	5838.42
652.724	5781.07
652.916	5752.4
653.109	5672.53
653.301	5758.55
653.494	5607
653.686	5592.66
653.879	5502.55
654.071	5776.98
654.263	5641.81
654.456	5719.64
654.648	5617.24
654.84	5496.41
655.033	5529.17
655.225	5387.86
655.417	5267.03
655.61	5281.37
655.802	5531.22
655.994	5316.19
656.186	5496.41
656.379	5332.57
656.571	5271.13
656.763	5254.75
656.955	5250.65
657.148	5148.25
657.34	5162.59
657.532	5217.88
657.724	5086.81
657.916	5080.67
658.108	4935.26
658.3	5101.15
658.492	5123.68
658.684	4869.73
658.876	4822.63
659.068	4855.39
659.26	4863.58
659.452	4929.12
659.644	5070.43
659.836	4814.43
660.028	4918.88
660.22	4724.32
660.412	4777.57
660.604	4767.33
660.796	4814.43
660.988	4771.43
661.18	4673.12
661.372	4761.19
661.563	4804.19
661.755	4558.44
661.947	4640.36
662.139	4599.4
662.331	4484.71
662.522	4447.85
662.714	4437.61
662.906	4556.39
663.097	4392.55
663.289	4427.37
663.481	4263.53
663.673	4503.14
663.864	4406.89
664.056	4312.68
664.247	4284.01
664.439	4281.96
664.631	4361.83
664.822	4363.88
665.014	4259.43
665.205	4271.72
665.397	4159.08
665.588	4343.4
665.78	4220.52
665.971	4175.47
666.163	4210.28
666.354	4159.08
666.546	4034.16
666.737	4177.51
666.929	4134.51
667.12	4099.69
667.311	4228.71
667.503	3962.48
667.694	4034.16
667.885	3968.62
668.077	3937.9
668.268	3923.57
668.459	3886.7
668.651	3913.33
668.842	4085.36
669.033	3974.77
669.224	3970.67
669.416	3905.14
669.607	3841.65
669.798	3876.46
669.989	3997.29
670.18	3921.52
670.371	4058.73
670.563	3892.85
670.754	3985.01
670.945	3884.66
671.136	3954.29
671.327	3862.13
671.518	3896.94
671.709	3970.67
671.9	3976.81
672.091	3884.66
672.282	3802.74
672.473	3876.46
672.664	3722.87
672.855	3802.74
673.046	3718.77
673.237	3755.63
673.428	3718.77
673.619	3849.84
673.809	3819.12
674	3815.02
674.191	3853.94
674.382	3749.49
674.573	3749.49
674.764	3745.39
674.954	3755.63
675.145	3638.9
675.336	3679.86
675.527	3819.12
675.717	3802.74
675.908	3724.91
676.099	3808.88
676.289	3753.59
676.48	3636.85
676.671	3796.59
676.861	3714.67
677.052	3675.76
677.243	3712.63
677.433	3749.49
677.624	3767.92
677.814	3786.35
678.005	3749.49
678.195	3790.45
678.386	3704.43
678.576	3827.31
678.767	3671.67
678.957	3712.63
679.148	3610.23
679.338	3665.52
679.529	3798.64
679.719	3657.33
679.909	3786.35
680.1	3694.19
680.29	3808.88
680.481	3839.6
680.671	3712.63
680.861	3688.05
681.052	3681.91
681.242	3761.78
681.432	3868.27
681.622	3810.93
681.813	3729.01
682.003	3815.02
682.193	3702.39
682.383	3794.54
682.573	3778.16
682.764	3796.59
682.954	3858.03
683.144	3786.35
683.334	3786.35
683.524	3655.28
683.714	3808.88
683.904	3649.14
684.094	3722.87
684.284	3759.73
684.474	3792.5
684.664	3661.43
684.854	3702.39
685.044	3597.94
685.234	3675.76
685.424	3567.22
685.614	3690.1
685.804	3733.11
685.994	3792.5
686.184	3722.87
686.374	3665.52
686.564	3640.95
686.753	3833.46
686.943	3692.15
687.133	3626.61
687.323	3518.07
687.513	3513.97
687.702	3673.71
687.892	3561.08
688.082	3604.08
688.272	3542.64
688.461	3546.74
688.651	3468.92
688.841	3374.71
689.03	3401.33
689.22	3376.76
689.41	3348.09
689.599	3427.96
689.789	3436.15
689.979	3329.66
690.168	3362.42
690.358	3343.99
690.547	3382.9
690.737	3294.84
690.926	3294.84
691.116	3305.08
691.305	3260.02
691.495	3217.02
691.684	3272.31
691.874	3233.4
692.063	3206.78
692.252	3106.43
692.442	3116.67
692.631	3061.37
692.82	3231.35
693.01	3120.76
693.199	3178.11
693.388	3049.08
693.578	3055.23
693.767	3174.01
693.956	3096.19
694.146	2983.55
694.335	2961.02
694.524	2958.97
694.713	3174.01
694.902	2944.64
695.092	3036.8
695.281	2928.25
695.47	3077.76
695.659	2905.73
695.848	2981.5
696.037	3008.12
696.226	2928.25
696.415	3063.42
696.604	2924.16
696.793	3006.08
696.982	2889.34
697.171	3001.98
697.36	2883.2
697.549	2842.24
697.738	2944.64
697.927	2846.34
698.116	2936.45
698.305	2879.1
698.494	2903.68
698.683	2854.53
698.872	2905.73
699.061	2905.73
699.25	2866.81
699.438	2938.49
699.627	2872.96
699.816	2842.24
700.005	2870.91
700.193	2875.01
700.382	2918.01
700.571	2922.11
700.76	2879.1
700.948	2799.23
701.137	2858.62
701.326	2803.33
701.514	2932.35
701.703	2920.06
701.892	2862.72
702.08	2889.34
702.269	2895.49
702.457	2748.03
702.646	2975.36
702.834	2836.1
703.023	2870.91
703.212	2981.5
703.4	2987.65
703.589	2932.35
703.777	2967.17
703.965	2840.19
704.154	2938.49
704.342	2795.14
704.531	2836.1
704.719	2829.95
704.907	2877.05
705.096	2963.07
705.284	2877.05
705.472	2891.39
705.661	2954.88
705.849	2915.97
706.037	2926.21
706.226	2985.6
706.414	2926.21
706.602	2924.16
706.79	2875.01
706.979	2926.21
707.167	2956.93
707.355	2942.59
707.543	2877.05
707.731	2950.78
707.919	2907.77
708.107	2958.97
708.296	2961.02
708.484	2936.45
708.672	2907.77
708.86	3004.03
709.048	2877.05
709.236	3116.67
709.424	3102.33
709.612	2954.88
709.8	2877.05
709.988	3159.67
710.176	3012.22
710.364	2991.74
710.551	3085.95
710.739	3006.08
710.927	3020.41
711.115	3020.41
711.303	3032.7
711.491	3157.63
711.679	2999.93
711.866	3178.11
712.054	3131
712.242	3104.38
712.43	3245.69
712.617	3151.48
712.805	2985.6
712.993	3047.04
713.181	3112.57
713.368	3112.57
713.556	3116.67
713.744	3049.08
713.931	3223.16
714.119	3077.76
714.306	3122.81
714.494	3057.28
714.682	3147.39
714.869	3096.19
715.057	3167.87
715.244	3106.43
715.432	3274.36
715.619	3020.41
715.807	3210.87
715.994	3282.55
716.182	3133.05
716.369	3249.79
716.556	3192.44
716.744	3268.22
716.931	3075.71
717.119	3196.54
717.306	3188.35
717.493	3231.35
717.681	3262.07
717.868	3260.02
718.055	3212.92
718.242	3110.52
718.43	3278.46
718.617	3264.12
718.804	3214.97
718.991	3343.99
719.179	3243.64
719.366	3274.36
719.553	3298.94
719.74	3305.08
719.927	3350.14
720.114	3221.11
720.301	3309.18
720.488	3239.55
720.676	3294.84
720.863	3288.7
721.05	3485.3
721.237	3243.64
721.424	3456.63
721.611	3409.53
721.798	3241.59
721.985	3360.38
722.172	3380.86
722.358	3370.62
722.545	3323.51
722.732	3389.05
722.919	3374.71
723.106	3376.76
723.293	3444.34
723.48	3425.91
723.667	3337.85
723.853	3460.73
724.04	3518.07
724.227	3554.93
724.414	3477.11
724.6	3481.21
724.787	3413.62
724.974	3526.26
725.161	3542.64
725.347	3520.12
725.534	3532.4
725.72	3608.18
725.907	3485.3
726.094	3663.47
726.28	3589.75
726.467	3583.6
726.653	3473.01
726.84	3477.11
727.027	3767.92
727.213	3583.6
727.4	3733.11
727.586	3524.21
727.773	3593.84
727.959	3544.69
728.145	3665.52
728.332	3438.2
728.518	3618.42
728.705	3604.08
728.891	3507.83
729.077	3546.74
729.264	3604.08
729.45	3503.73
729.636	3661.43
729.823	3698.29
730.009	3692.15
730.195	3579.51
730.382	3616.37
730.568	3565.17
730.754	3638.9
730.94	3696.24
731.126	3743.35
731.313	3726.96
731.499	3729.01
731.685	3722.87
731.871	3741.3
732.057	3741.3
732.243	3827.31
732.429	3772.02
732.615	3733.11
732.801	3700.34
732.987	3872.37
733.173	3782.26
733.359	3716.72
733.545	3737.2
733.731	3575.41
733.917	3765.87
734.103	3843.7
734.289	3845.74
734.475	3763.83
734.661	3886.7
734.847	3759.73
735.033	3708.53
735.219	3833.46
735.404	3755.63
735.59	3829.36
735.776	3812.98
735.962	3839.6
736.148	3812.98
736.333	3882.61
736.519	3683.95
736.705	3704.43
736.89	3806.83
737.076	3798.64
737.262	3735.15
737.447	3686
737.633	3845.74
737.819	3876.46
738.004	3704.43
738.19	3798.64
738.375	3747.44
738.561	4034.16
738.747	3761.78
738.932	3812.98
739.118	3733.11
739.303	3780.21
739.489	3841.65
739.674	3649.14
739.859	3739.25
740.045	3612.28
740.23	3780.21
740.416	3638.9
740.601	3892.85
740.786	3731.06
740.972	3569.27
741.157	3704.43
741.342	3786.35
741.528	3673.71
741.713	3661.43
741.898	3739.25
742.084	3688.05
742.269	3671.67
742.454	3716.72
742.639	3720.82
742.824	3632.76
743.01	3712.63
743.195	3681.91
743.38	3542.64
743.565	3546.74
743.75	3616.37
743.935	3618.42
744.12	3575.41
744.305	3628.66
744.49	3524.21
744.675	3597.94
744.86	3546.74
745.045	3528.31
745.23	3491.45
745.415	3364.47
745.6	3450.49
745.785	3487.35
745.97	3419.77
746.155	3466.87
746.34	3370.62
746.525	3352.18
746.71	3319.42
746.895	3352.18
747.079	3315.32
747.264	3378.81
747.449	3348.09
747.634	3350.14
747.819	3200.63
748.003	3282.55
748.188	3255.93
748.373	3131
748.557	3241.59
748.742	3182.2
748.927	3149.43
749.111	3094.14
749.296	3135.1
749.481	3274.36
749.665	3126.91
749.85	3063.42
750.034	3227.26
750.219	3096.19
750.404	3042.94
750.588	3001.98
750.773	2967.17
750.957	3071.61
751.141	3018.36
751.326	2997.88
751.51	2999.93
751.695	2903.68
751.879	2918.01
752.064	3012.22
752.248	2883.2
752.432	2911.87
752.617	2930.3
752.801	2809.47
752.985	2745.98
753.17	2725.51
753.354	2760.32
753.538	2784.9
753.722	2825.86
753.907	2754.18
754.091	2657.92
754.275	2659.97
754.459	2576
754.643	2547.33
754.828	2549.38
755.012	2504.32
755.196	2506.37
755.38	2590.34
755.564	2545.28
755.748	2436.74
755.932	2494.08
756.116	2463.37
756.3	2463.37
756.484	2399.88
756.668	2356.87
756.852	2322.06
757.036	2381.45
757.22	2442.89
757.404	2352.77
757.588	2305.67
757.772	2465.41
757.956	2326.15
758.14	2354.82
758.323	2231.94
758.507	2277
758.691	2236.04
758.875	2293.38
759.059	2297.48
759.242	2180.75
759.426	2156.17
759.61	2199.18
759.794	2111.11
759.977	2057.87
760.161	2186.89
760.345	2090.63
760.528	2102.92
760.712	2211.46
760.895	2066.06
761.079	2023.05
761.263	2088.59
761.446	1943.18
761.63	2125.45
761.813	2147.98
761.997	2014.86
762.18	1951.37
762.364	2031.24
762.547	1967.76
762.731	1961.61
762.914	1971.85
763.098	1867.41
763.281	1943.18
763.464	1836.69
763.648	1906.32
763.831	1902.22
764.015	1881.74
764.198	1949.32
764.381	2035.34
764.564	1910.41
764.748	1832.59
764.931	1894.03
765.114	1810.06
765.297	1871.5
765.481	1867.41
765.664	1752.72
765.847	1803.92
766.03	1816.21
766.213	1797.78
766.397	1869.45
766.58	1744.53
766.763	1887.89
766.946	1756.82
767.129	1709.71
767.312	1744.53
767.495	1734.29
767.678	1597.07
767.861	1689.23
768.044	1777.3
768.227	1808.02
768.41	1724.05
768.593	1713.81
768.776	1648.27
768.959	1713.81
769.142	1678.99
769.324	1670.8
769.507	1556.11
769.69	1656.47
769.873	1578.64
770.056	1521.3
770.239	1586.83
770.421	1570.45
770.604	1631.89
770.787	1511.06
770.97	1547.92
771.152	1556.11
771.335	1488.53
771.518	1482.39
771.7	1498.77
771.883	1490.58
772.066	1584.79
772.248	1564.31
772.431	1590.93
772.613	1513.11
772.796	1392.28
772.978	1420.95
773.161	1523.35
773.343	1369.75
773.526	1379.99
773.708	1420.95
773.891	1390.23
774.073	1449.62
774.256	1351.32
774.438	1418.9
774.621	1298.07
774.803	1425.04
774.985	1330.84
775.168	1373.85
775.35	1400.47
775.532	1334.93
775.715	1334.93
775.897	1222.3
776.079	1353.37
776.261	1353.37
776.444	1377.94
776.626	1257.11
776.808	1242.78
776.99	1234.58
777.173	1293.97
777.355	1203.86
777.537	1167
777.719	1187.48
777.901	1128.09
778.083	1099.42
778.265	1230.49
778.447	1154.71
778.629	1187.48
778.811	1136.28
778.993	1167
779.175	1056.41
779.357	1121.95
779.539	1095.32
779.721	1054.36
779.903	1062.55
780.085	1058.46
780.267	1054.36
780.449	1064.6
780.631	1068.7
780.812	1080.99
780.994	1033.88
781.176	970.4
781.358	1066.65
781.54	960.16
781.721	1033.88
781.903	1023.64
782.085	970.4
782.267	1095.32
782.448	929.44
782.63	927.39
782.812	935.58
782.993	857.76
783.175	1074.84
783.357	872.09
783.538	956.06
783.72	829.09
783.901	894.62
784.083	843.42
784.264	913.05
784.446	814.75
784.627	837.28
784.809	810.65
784.99	859.81
785.172	747.17
785.353	743.07
785.535	779.93
785.716	722.59
785.897	794.27
786.079	706.21
786.26	792.22
786.441	820.89
786.623	734.88
786.804	824.99
786.985	773.79
787.167	753.31
787.348	743.07
787.529	720.54
787.71	743.07
787.891	743.07
788.073	804.51
788.254	691.87
788.435	732.83
788.616	677.54
788.797	679.58
788.978	691.87
789.159	687.78
789.34	648.86
789.522	663.2
789.703	616.1
789.884	646.82
790.065	695.97
790.246	679.58
790.427	550.56
790.607	630.43
790.788	663.2
790.969	560.8
791.15	585.38
791.331	595.62
791.512	591.52
791.693	609.95
791.874	573.09
792.054	673.44
792.235	644.77
792.416	540.32
792.597	583.33
792.778	591.52
792.958	564.9
793.139	530.08
793.32	525.99
793.5	577.19
793.681	556.71
793.862	560.8
794.042	542.37
794.223	505.51
794.404	509.6
794.584	446.12
794.765	482.98
794.945	466.6
795.126	546.47
795.306	554.66
795.487	411.3
795.667	517.79
795.848	554.66
796.028	575.14
796.209	536.23
796.389	491.17
796.57	435.88
796.75	489.12
796.93	528.03
797.111	417.44
797.291	472.74
797.471	515.75
797.652	452.26
797.832	435.88
798.012	448.16
798.192	433.83
798.373	419.49
798.553	362.15
798.733	482.98
798.913	480.93
799.093	466.6
799.274	468.64
799.454	413.35
799.634	446.12
799.814	495.27
799.994	411.3
800.174	423.59
800.354	513.7
800.534	388.77
800.714	480.93
800.894	427.68
801.074	351.91
801.254	370.34
801.434	454.31
801.614	331.43
801.794	364.2
801.974	1107.61
802.154	454.31
802.334	341.67
802.514	337.57
802.693	417.44
802.873	368.29
803.053	386.72
803.233	409.25
803.413	419.49
803.592	370.34
803.772	390.82
803.952	384.68
804.131	366.25
804.311	429.73
804.491	362.15
804.67	353.96
804.85	380.58
805.03	433.83
805.209	368.29
805.389	329.38
805.568	243.37
805.748	341.67
805.928	341.67
806.107	370.34
806.287	353.96
806.466	374.44
806.646	415.4
806.825	313
807.004	429.73
807.184	372.39
807.363	280.23
807.543	319.14
807.722	300.71
807.901	380.58
808.081	335.53
808.26	290.47
808.439	278.18
808.619	229.03
808.798	313
808.977	296.61
809.156	380.58
809.336	298.66
809.515	294.57
809.694	235.18
809.873	310.95
810.052	308.9
810.231	304.81
810.411	257.7
810.59	331.43
810.769	298.66
810.948	321.19
811.127	149.16
811.306	241.32
811.485	255.65
811.664	296.61
811.843	298.66
812.022	247.46
812.201	249.51
812.38	265.89
812.559	290.47
812.737	274.09
812.916	237.22
813.095	214.7
813.274	204.46
813.453	257.7
813.632	306.85
813.811	265.89
813.989	155.3
814.168	214.7
814.347	177.83
814.526	237.22
814.704	327.33
814.883	220.84
815.062	208.55
815.24	304.81
815.419	315.05
815.598	278.18
815.776	194.22
815.955	220.84
816.133	194.22
816.312	192.17
816.49	241.32
816.669	294.57
816.847	237.22
817.026	167.59
817.204	212.65
817.383	216.74
817.561	183.98
817.74	245.41
817.918	241.32
818.097	212.65
818.275	200.36
818.453	247.46
818.632	300.71
818.81	249.51
818.988	202.41
819.167	229.03
819.345	186.02
819.523	288.42
819.701	255.65
819.879	206.5
820.058	220.84
820.236	235.18
820.414	222.89
820.592	274.09
820.77	208.55
820.948	161.45
821.127	175.78
821.305	204.46
821.483	124.58
821.661	177.83
821.839	167.59
822.017	198.31
822.195	173.74
822.373	241.32
822.551	169.64
822.729	108.2
822.907	145.06
823.085	214.7
823.262	183.98
823.44	194.22
823.618	110.25
823.796	167.59
823.974	161.45
824.152	214.7
824.329	143.02
824.507	222.89
824.685	175.78
824.863	202.41
825.04	73.39
825.218	143.02
825.396	177.83
825.574	157.35
825.751	177.83
825.929	239.27
826.107	196.26
826.284	153.26
826.462	138.92
826.639	196.26
826.817	192.17
826.994	153.26
827.172	128.68
827.349	200.36
827.527	212.65
827.704	116.39
827.882	216.74
828.059	128.68
828.237	153.26
828.414	124.58
828.591	126.63
828.769	132.78
828.946	134.82
829.124	126.63
829.301	210.6
829.478	85.67
829.655	208.55
829.833	163.5
830.01	136.87
830.187	134.82
830.364	59.05
830.542	165.54
830.719	151.21
830.896	136.87
831.073	120.49
831.25	138.92
831.427	138.92
831.604	157.35
831.782	89.77
831.959	183.98
832.136	124.58
832.313	194.22
832.49	97.96
832.667	81.58
832.844	32.43
833.021	104.11
833.198	147.11
833.374	161.45
833.551	102.06
833.728	87.72
833.905	67.24
834.082	136.87
834.259	132.78
834.436	120.49
834.612	54.95
834.789	118.44
834.966	190.12
835.143	77.48
835.319	118.44
835.496	89.77
835.673	104.11
835.85	163.5
836.026	81.58
836.203	159.4
836.38	79.53
836.556	181.93
836.733	124.58
836.909	140.97
837.086	52.91
837.262	114.34
837.439	85.67
837.616	87.72
837.792	73.39
837.968	147.11
838.145	87.72
838.321	73.39
838.498	52.91
838.674	81.58
838.851	165.54
839.027	126.63
839.203	118.44
839.38	173.74
839.556	-22.87
839.732	181.93
839.909	100.01
840.085	108.2
840.261	54.95
840.437	85.67
840.614	122.54
840.79	26.28
840.966	69.29
841.142	143.02
841.318	75.43
841.494	151.21
841.671	134.82
841.847	57
842.023	9.9
842.199	48.81
842.375	108.2
842.551	32.43
842.727	85.67
842.903	112.3
843.079	-35.16
843.255	65.19
843.431	40.62
843.607	114.34
843.783	30.38
843.959	120.49
844.134	54.95
844.31	128.68
844.486	59.05
844.662	67.24
844.838	57
845.013	104.11
845.189	161.45
845.365	32.43
845.541	112.3
845.716	155.3
845.892	61.1
846.068	69.29
846.244	5.8
846.419	67.24
846.595	50.86
846.77	59.05
846.946	83.63
847.122	57
847.297	83.63
847.473	97.96
847.648	32.43
847.824	11.95
847.999	-20.82
848.175	100.01
848.35	147.11
848.526	167.59
848.701	46.76
848.876	126.63
849.052	30.38
849.227	116.39
849.403	52.91
849.578	18.09
849.753	46.76
849.929	93.87
850.104	44.71
850.279	48.81
850.454	18.09
850.63	75.43
850.805	112.3
850.98	13.99
851.155	5.8
851.33	77.48
851.505	87.72
851.681	69.29
851.856	26.28
852.031	138.92
852.206	54.95
852.381	-22.87
852.556	30.38
852.731	104.11
852.906	79.53
853.081	22.19
853.256	81.58
853.431	54.95
853.606	-35.16
853.781	38.57
853.956	-24.92
854.131	69.29
854.305	83.63
854.48	9.9
854.655	79.53
854.83	9.9
855.005	26.28
855.18	1.71
855.354	89.77
855.529	26.28
855.704	40.62
855.879	52.91
856.053	46.76
856.228	9.9
856.403	-4.44
856.577	83.63
856.752	38.57
856.926	48.81
857.101	20.14
857.276	11.95
857.45	69.29
857.625	61.1
857.799	61.1
857.974	-6.49
858.148	-0.34
858.323	13.99
858.497	85.67
858.672	59.05
858.846	22.19
859.02	110.25
859.195	36.52
859.369	36.52
859.543	61.1
859.718	59.05
859.892	42.67
860.066	95.91
860.241	57
860.415	-49.49
860.589	85.67
860.763	38.57
860.938	-2.39
861.112	104.11
861.286	30.38
861.46	48.81
861.634	3.75
861.808	102.06
861.982	67.24
862.157	7.85
862.331	7.85
862.505	9.9
862.679	-45.4
862.853	-57.68
863.027	3.75
863.201	116.39
863.375	-12.63
863.549	102.06
863.722	-39.25
863.896	81.58
864.07	1.71
864.244	-2.39
864.418	42.67
864.592	-4.44
864.766	22.19
864.939	42.67
865.113	-4.44
865.287	5.8
865.461	-10.58
865.634	91.82
865.808	28.33
865.982	3.75
866.156	1.71
866.329	42.67
866.503	-6.49
866.676	38.57
866.85	22.19
867.024	-37.2
867.197	112.3
867.371	36.52
867.544	3.75
867.718	-74.07
867.891	77.48
868.065	-4.44
868.238	-37.2
868.412	28.33
868.585	48.81
868.759	13.99
868.932	22.19
869.105	-8.53
869.279	44.71
869.452	-47.44
869.625	3.75
869.799	50.86
869.972	30.38
870.145	-0.34
870.319	57
870.492	30.38
870.665	11.95
870.838	13.99
871.011	-33.11
871.185	1.71
871.358	-43.35
871.531	153.26
871.704	1.71
871.877	-35.16
872.05	63.15
872.223	-47.44
872.396	97.96
872.569	77.48
872.742	-2.39
872.915	75.43
873.088	-18.77
873.261	-53.59
873.434	-0.34
873.607	-10.58
873.78	85.67
873.953	63.15
874.126	3.75
874.299	59.05
874.471	28.33
874.644	46.76
874.817	73.39
874.99	36.52
875.163	5.8
875.335	-12.63
875.508	-18.77
875.681	118.44
875.853	-59.73
876.026	52.91
876.199	-14.68
876.371	-26.96
876.544	-18.77
876.717	28.33
876.889	-6.49
877.062	26.28
877.234	-67.92
877.407	7.85
877.579	-57.68
877.752	57
877.924	3.75
878.097	69.29
878.269	1.71
878.442	67.24
878.614	1.71
878.786	34.47
878.959	-24.92
879.131	-0.34
879.303	-31.06
879.476	-45.4
879.648	3.75
879.82	-4.44
879.993	67.24
880.165	-10.58
880.337	-82.26
880.509	1.71
880.681	-117.08
880.854	-14.68
881.026	26.28
881.198	26.28
881.37	11.95
881.542	52.91
881.714	-18.77
881.886	-33.11
882.058	-14.68
882.23	34.47
882.402	-0.34
882.574	-14.68
882.746	20.14
882.918	91.82
883.09	63.15
883.262	-49.49
883.434	13.99
883.606	73.39
883.778	48.81
883.95	46.76
884.122	-26.96
884.293	-2.39
884.465	46.76
884.637	77.48
884.809	-35.16
884.98	-51.54
885.152	89.77
885.324	63.15
885.496	-20.82
885.667	-6.49
885.839	-20.82
886.011	65.19
886.182	46.76
886.354	22.19
886.525	65.19
886.697	120.49
886.869	-53.59
887.04	-31.06
887.212	16.04
887.383	44.71
887.555	-24.92
887.726	32.43
887.897	-4.44
888.069	13.99
888.24	1.71
888.412	-29.01
888.583	-24.92
888.754	54.95
888.926	-72.02
889.097	-41.3
889.268	-69.97
889.44	40.62
889.611	-12.63
889.782	16.04
889.953	-12.63
890.125	-24.92
890.296	-45.4
890.467	9.9
890.638	-41.3
890.809	-10.58
890.98	73.39
891.151	59.05
891.323	13.99
891.494	61.1
891.665	24.23
891.836	11.95
892.007	30.38
892.178	44.71
892.349	-57.68
892.52	-14.68
892.691	-18.77
892.862	34.47
893.032	-24.92
893.203	-59.73
893.374	40.62
893.545	20.14
893.716	7.85
893.887	7.85
894.057	-63.83
894.228	30.38
894.399	-18.77
894.57	-20.82
894.74	65.19
894.911	36.52
895.082	-63.83
895.253	3.75
895.423	32.43
895.594	-20.82
895.764	-24.92
895.935	-4.44
896.106	-8.53
896.276	-82.26
896.447	24.23
896.617	-31.06
896.788	38.57
896.958	9.9
897.129	-37.2
897.299	22.19
897.47	-2.39
897.64	87.72
897.81	18.09
897.981	22.19
898.151	-51.54
898.322	7.85
898.492	36.52
898.662	-53.59
898.832	-47.44
899.003	-24.92
899.173	7.85
899.343	-24.92
899.513	-59.73
