Data from USB4F104151__62__12-24-09-972.txt Node

Date: Fri Mar 14 12:24:09 EDT 2025
User: louis
Spectrometer: USB4F10415
Trigger mode: 4
Integration Time (sec): 3.500000E-2
Scans to average: 1
Electric dark correction enabled: true
Nonlinearity correction enabled: false
Boxcar width: 0
XAxis mode: Wavelengths
Number of Pixels in Spectrum: 3648
>>>>>Begin Spectral Data<<<<<
178.204	-144.38
178.424	-144.38
178.644	-144.38
178.864	-168.96
179.084	-136.19
179.304	-56.32
179.524	-29.7
179.744	-78.85
179.964	29.7
180.184	60.42
180.404	41.98
180.624	-19.46
180.844	29.7
181.064	23.55
181.283	9.22
181.503	-1.02
181.723	-9.22
181.943	-74.75
182.163	33.79
182.383	11.26
182.602	37.89
182.822	7.17
183.042	74.75
183.262	-74.75
183.482	-23.55
183.701	-13.31
183.921	-19.46
184.141	-70.65
184.361	158.72
184.58	-27.65
184.8	11.26
185.02	-23.55
185.239	-15.36
185.459	64.51
185.679	76.8
185.898	13.31
186.118	19.46
186.338	31.74
186.557	64.51
186.777	39.94
186.997	-50.18
187.216	5.12
187.436	158.72
187.655	41.98
187.875	27.65
188.095	25.6
188.314	17.41
188.534	56.32
188.753	-1.02
188.973	-9.22
189.192	82.94
189.412	9.22
189.631	60.42
189.851	50.18
190.07	35.84
190.29	-1.02
190.509	-31.74
190.729	-3.07
190.948	48.13
191.168	148.48
191.387	64.51
191.607	93.18
191.826	19.46
192.045	25.6
192.265	60.42
192.484	21.5
192.704	58.37
192.923	-5.12
193.142	52.22
193.362	29.7
193.581	74.75
193.8	-9.22
194.02	115.71
194.239	31.74
194.458	46.08
194.678	13.31
194.897	-17.41
195.116	117.76
195.335	13.31
195.555	39.94
195.774	-46.08
195.993	52.22
196.212	-33.79
196.432	-3.07
196.651	76.8
196.87	17.41
197.089	76.8
197.308	41.98
197.528	56.32
197.747	-21.5
197.966	-3.07
198.185	74.75
198.404	66.56
198.623	46.08
198.842	29.7
199.062	5.12
199.281	66.56
199.5	39.94
199.719	-1.02
199.938	41.98
200.157	35.84
200.376	35.84
200.595	35.84
200.814	41.98
201.033	27.65
201.252	39.94
201.471	48.13
201.69	68.61
201.909	15.36
202.128	15.36
202.347	64.51
202.566	-1.02
202.785	41.98
203.004	7.17
203.223	82.94
203.442	25.6
203.661	-27.65
203.879	-15.36
204.098	64.51
204.317	-17.41
204.536	31.74
204.755	5.12
204.974	29.7
205.193	56.32
205.411	76.8
205.63	93.18
205.849	17.41
206.068	1.02
206.287	-17.41
206.505	130.05
206.724	15.36
206.943	25.6
207.162	-5.12
207.381	13.31
207.599	25.6
207.818	76.8
208.037	64.51
208.255	1.02
208.474	13.31
208.693	93.18
208.911	27.65
209.13	-13.31
209.349	121.85
209.567	52.22
209.786	60.42
210.005	70.65
210.223	17.41
210.442	-9.22
210.661	82.94
210.879	-33.79
211.098	72.7
211.316	70.65
211.535	37.89
211.753	95.23
211.972	66.56
212.191	31.74
212.409	64.51
212.628	89.09
212.846	23.55
213.065	5.12
213.283	39.94
213.502	17.41
213.72	37.89
213.938	27.65
214.157	46.08
214.375	78.85
214.594	58.37
214.812	35.84
215.031	35.84
215.249	87.04
215.467	35.84
215.686	23.55
215.904	41.98
216.122	35.84
216.341	-25.6
216.559	52.22
216.778	76.8
216.996	99.33
217.214	48.13
217.432	35.84
217.651	-5.12
217.869	-9.22
218.087	11.26
218.306	3.07
218.524	1.02
218.742	-1.02
218.96	48.13
219.179	66.56
219.397	41.98
219.615	154.62
219.833	76.8
220.051	-62.46
220.27	17.41
220.488	-46.08
220.706	46.08
220.924	-19.46
221.142	44.03
221.36	7.17
221.578	21.5
221.796	-35.84
222.015	13.31
222.233	27.65
222.451	46.08
222.669	-35.84
222.887	11.26
223.105	-21.5
223.323	62.46
223.541	-54.27
223.759	5.12
223.977	19.46
224.195	60.42
224.413	27.65
224.631	39.94
224.849	3.07
225.067	113.66
225.285	27.65
225.503	66.56
225.721	-29.7
225.939	68.61
226.157	11.26
226.375	95.23
226.592	13.31
226.81	-5.12
227.028	56.32
227.246	121.85
227.464	-21.5
227.682	15.36
227.9	97.28
228.117	84.99
228.335	-48.13
228.553	48.13
228.771	60.42
228.989	99.33
229.206	35.84
229.424	-46.08
229.642	-11.26
229.86	-21.5
230.077	66.56
230.295	44.03
230.513	-1.02
230.731	87.04
230.948	105.47
231.166	111.61
231.384	50.18
231.601	-7.17
231.819	62.46
232.037	56.32
232.254	-27.65
232.472	23.55
232.689	-7.17
232.907	-62.46
233.125	19.46
233.342	-29.7
233.56	35.84
233.777	52.22
233.995	-41.98
234.213	54.27
234.43	60.42
234.648	19.46
234.865	-66.56
235.083	27.65
235.3	29.7
235.518	13.31
235.735	-21.5
235.953	-13.31
236.17	66.56
236.388	-5.12
236.605	27.65
236.822	-5.12
237.04	74.75
237.257	21.5
237.475	-35.84
237.692	46.08
237.909	17.41
238.127	3.07
238.344	15.36
238.562	60.42
238.779	-60.42
238.996	-41.98
239.214	-9.22
239.431	19.46
239.648	1.02
239.865	87.04
240.083	109.57
240.3	13.31
240.517	-33.79
240.735	-60.42
240.952	99.33
241.169	64.51
241.386	-15.36
241.603	46.08
241.821	17.41
242.038	54.27
242.255	78.85
242.472	9.22
242.689	52.22
242.907	46.08
243.124	89.09
243.341	50.18
243.558	29.7
243.775	5.12
243.992	-46.08
244.209	74.75
244.426	148.48
244.643	68.61
244.86	-56.32
245.078	46.08
245.295	1.02
245.512	58.37
245.729	-44.03
245.946	25.6
246.163	15.36
246.38	72.7
246.597	25.6
246.814	39.94
247.031	46.08
247.248	70.65
247.464	37.89
247.681	15.36
247.898	29.7
248.115	27.65
248.332	3.07
248.549	62.46
248.766	52.22
248.983	56.32
249.2	9.22
249.417	44.03
249.633	7.17
249.85	39.94
250.067	11.26
250.284	35.84
250.501	7.17
250.717	50.18
250.934	11.26
251.151	7.17
251.368	60.42
251.585	76.8
251.801	27.65
252.018	13.31
252.235	87.04
252.451	19.46
252.668	-31.74
252.885	-7.17
253.102	23.55
253.318	-1.02
253.535	54.27
253.752	33.79
253.968	25.6
254.185	-9.22
254.401	-17.41
254.618	21.5
254.835	-44.03
255.051	37.89
255.268	78.85
255.484	-5.12
255.701	44.03
255.917	17.41
256.134	35.84
256.351	13.31
256.567	-29.7
256.784	111.61
257	29.7
257.217	-11.26
257.433	58.37
257.65	9.22
257.866	70.65
258.082	-17.41
258.299	7.17
258.515	70.65
258.732	17.41
258.948	13.31
259.165	-74.75
259.381	15.36
259.597	25.6
259.814	35.84
260.03	-15.36
260.246	60.42
260.463	80.89
260.679	121.85
260.895	-15.36
261.112	48.13
261.328	-54.27
261.544	64.51
261.761	25.6
261.977	-25.6
262.193	31.74
262.409	29.7
262.626	-29.7
262.842	37.89
263.058	7.17
263.274	78.85
263.49	29.7
263.707	95.23
263.923	21.5
264.139	41.98
264.355	54.27
264.571	33.79
264.787	48.13
265.004	76.8
265.22	-9.22
265.436	13.31
265.652	-21.5
265.868	31.74
266.084	15.36
266.3	9.22
266.516	-3.07
266.732	3.07
266.948	-1.02
267.164	31.74
267.38	9.22
267.596	39.94
267.812	130.05
268.028	41.98
268.244	82.94
268.46	-11.26
268.676	56.32
268.892	-39.94
269.108	15.36
269.324	48.13
269.54	-48.13
269.756	-21.5
269.972	5.12
270.188	62.46
270.403	-37.89
270.619	-7.17
270.835	3.07
271.051	31.74
271.267	23.55
271.483	46.08
271.698	23.55
271.914	97.28
272.13	54.27
272.346	31.74
272.562	19.46
272.777	35.84
272.993	35.84
273.209	-29.7
273.425	29.7
273.64	-87.04
273.856	58.37
274.072	9.22
274.287	3.07
274.503	72.7
274.719	70.65
274.934	-27.65
275.15	52.22
275.366	31.74
275.581	48.13
275.797	-9.22
276.012	41.98
276.228	-19.46
276.444	17.41
276.659	44.03
276.875	25.6
277.09	13.31
277.306	-31.74
277.521	9.22
277.737	17.41
277.952	-3.07
278.168	-9.22
278.383	44.03
278.599	-46.08
278.814	84.99
279.03	-52.22
279.245	70.65
279.461	11.26
279.676	3.07
279.892	-35.84
280.107	-1.02
280.322	21.5
280.538	-7.17
280.753	58.37
280.969	58.37
281.184	31.74
281.399	7.17
281.615	7.17
281.83	15.36
282.045	-3.07
282.26	27.65
282.476	60.42
282.691	-56.32
282.906	17.41
283.122	15.36
283.337	23.55
283.552	76.8
283.767	1.02
283.983	13.31
284.198	17.41
284.413	29.7
284.628	1.02
284.843	23.55
285.058	44.03
285.274	25.6
285.489	17.41
285.704	35.84
285.919	9.22
286.134	13.31
286.349	44.03
286.564	-1.02
286.779	66.56
286.995	15.36
287.21	1.02
287.425	58.37
287.64	27.65
287.855	56.32
288.07	3.07
288.285	-21.5
288.5	111.61
288.715	62.46
288.93	-21.5
289.145	99.33
289.36	82.94
289.575	9.22
289.79	91.13
290.004	46.08
290.219	76.8
290.434	-31.74
290.649	80.89
290.864	7.17
291.079	25.6
291.294	41.98
291.509	29.7
291.724	39.94
291.938	37.89
292.153	19.46
292.368	-25.6
292.583	13.31
292.798	41.98
293.012	-9.22
293.227	46.08
293.442	35.84
293.657	87.04
293.871	103.42
294.086	-33.79
294.301	15.36
294.516	103.42
294.73	-5.12
294.945	-35.84
295.16	48.13
295.374	64.51
295.589	87.04
295.804	7.17
296.018	33.79
296.233	13.31
296.447	74.75
296.662	-39.94
296.877	70.65
297.091	39.94
297.306	-13.31
297.52	-39.94
297.735	25.6
297.949	33.79
298.164	52.22
298.378	48.13
298.593	15.36
298.807	1.02
299.022	111.61
299.236	105.47
299.451	46.08
299.665	76.8
299.88	74.75
300.094	23.55
300.309	78.85
300.523	9.22
300.737	-19.46
300.952	21.5
301.166	15.36
301.381	-5.12
301.595	17.41
301.809	-5.12
302.024	-33.79
302.238	13.31
302.452	89.09
302.667	64.51
302.881	52.22
303.095	50.18
303.309	33.79
303.524	3.07
303.738	25.6
303.952	-19.46
304.166	23.55
304.381	-39.94
304.595	31.74
304.809	93.18
305.023	103.42
305.237	54.27
305.452	39.94
305.666	62.46
305.88	78.85
306.094	54.27
306.308	7.17
306.522	9.22
306.736	39.94
306.95	35.84
307.164	-3.07
307.379	31.74
307.593	87.04
307.807	103.42
308.021	62.46
308.235	9.22
308.449	-64.51
308.663	33.79
308.877	101.37
309.091	35.84
309.305	-31.74
309.519	-7.17
309.733	27.65
309.947	78.85
310.161	33.79
310.374	87.04
310.588	99.33
310.802	80.89
311.016	74.75
311.23	17.41
311.444	5.12
311.658	46.08
311.872	39.94
312.085	-7.17
312.299	29.7
312.513	44.03
312.727	5.12
312.941	-29.7
313.154	-3.07
313.368	7.17
313.582	58.37
313.796	52.22
314.009	-7.17
314.223	74.75
314.437	1.02
314.651	68.61
314.864	-35.84
315.078	68.61
315.292	68.61
315.505	19.46
315.719	23.55
315.933	33.79
316.146	25.6
316.36	-1.02
316.573	31.74
316.787	21.5
317.001	60.42
317.214	1.02
317.428	33.79
317.641	31.74
317.855	-9.22
318.068	-5.12
318.282	19.46
318.495	5.12
318.709	68.61
318.922	-17.41
319.136	97.28
319.349	37.89
319.563	5.12
319.776	58.37
319.99	62.46
320.203	123.9
320.417	99.33
320.63	21.5
320.843	125.95
321.057	74.75
321.27	105.47
321.483	109.57
321.697	115.71
321.91	109.57
322.124	121.85
322.337	39.94
322.55	48.13
322.763	-13.31
322.977	54.27
323.19	11.26
323.403	109.57
323.617	-39.94
323.83	74.75
324.043	15.36
324.256	29.7
324.469	7.17
324.683	146.43
324.896	-21.5
325.109	76.8
325.322	-11.26
325.535	113.66
325.748	1.02
325.962	33.79
326.175	37.89
326.388	-37.89
326.601	31.74
326.814	37.89
327.027	58.37
327.24	97.28
327.453	-60.42
327.666	35.84
327.879	-15.36
328.092	82.94
328.305	-3.07
328.518	-82.94
328.731	-15.36
328.944	76.8
329.157	56.32
329.37	13.31
329.583	95.23
329.796	52.22
330.009	-46.08
330.222	84.99
330.435	80.89
330.648	1.02
330.861	64.51
331.073	50.18
331.286	60.42
331.499	-56.32
331.712	-33.79
331.925	56.32
332.138	41.98
332.35	109.57
332.563	-68.61
332.776	103.42
332.989	5.12
333.202	91.13
333.414	-15.36
333.627	121.85
333.84	-1.02
334.053	37.89
334.265	41.98
334.478	29.7
334.691	39.94
334.903	33.79
335.116	29.7
335.329	44.03
335.541	105.47
335.754	95.23
335.966	54.27
336.179	-1.02
336.392	17.41
336.604	1.02
336.817	128
337.029	80.89
337.242	58.37
337.454	58.37
337.667	11.26
337.88	87.04
338.092	62.46
338.305	25.6
338.517	-11.26
338.729	52.22
338.942	60.42
339.154	23.55
339.367	44.03
339.579	50.18
339.792	-31.74
340.004	89.09
340.217	31.74
340.429	-3.07
340.641	1.02
340.854	33.79
341.066	54.27
341.278	87.04
341.491	-46.08
341.703	58.37
341.915	-39.94
342.128	33.79
342.34	-11.26
342.552	27.65
342.764	-7.17
342.977	17.41
343.189	17.41
343.401	95.23
343.613	-5.12
343.826	54.27
344.038	-31.74
344.25	37.89
344.462	39.94
344.674	37.89
344.886	58.37
345.099	13.31
345.311	68.61
345.523	39.94
345.735	-44.03
345.947	15.36
346.159	-3.07
346.371	15.36
346.583	15.36
346.795	93.18
347.007	-3.07
347.219	-11.26
347.431	21.5
347.643	48.13
347.855	70.65
348.067	70.65
348.279	27.65
348.491	13.31
348.703	54.27
348.915	-50.18
349.127	-1.02
349.339	21.5
349.551	-37.89
349.763	93.18
349.975	15.36
350.187	74.75
350.399	19.46
350.61	33.79
350.822	33.79
351.034	99.33
351.246	19.46
351.458	11.26
351.669	134.14
351.881	89.09
352.093	31.74
352.305	107.52
352.517	13.31
352.728	80.89
352.94	7.17
353.152	33.79
353.363	46.08
353.575	39.94
353.787	123.9
353.999	33.79
354.21	97.28
354.422	-9.22
354.633	3.07
354.845	74.75
355.057	60.42
355.268	54.27
355.48	130.05
355.692	25.6
355.903	76.8
356.115	13.31
356.326	-74.75
356.538	-17.41
356.749	21.5
356.961	132.09
357.172	60.42
357.384	19.46
357.595	109.57
357.807	78.85
358.018	29.7
358.23	84.99
358.441	177.15
358.653	80.89
358.864	80.89
359.075	13.31
359.287	99.33
359.498	80.89
359.709	52.22
359.921	44.03
360.132	58.37
360.344	13.31
360.555	21.5
360.766	21.5
360.977	50.18
361.189	11.26
361.4	39.94
361.611	56.32
361.823	76.8
362.034	17.41
362.245	7.17
362.456	39.94
362.667	46.08
362.879	5.12
363.09	9.22
363.301	-25.6
363.512	35.84
363.723	23.55
363.935	-25.6
364.146	41.98
364.357	15.36
364.568	72.7
364.779	-46.08
364.99	134.14
365.201	93.18
365.412	50.18
365.623	50.18
365.834	103.42
366.045	52.22
366.256	76.8
366.467	-19.46
366.678	9.22
366.889	41.98
367.1	41.98
367.311	37.89
367.522	23.55
367.733	62.46
367.944	66.56
368.155	52.22
368.366	80.89
368.577	70.65
368.788	78.85
368.999	-58.37
369.209	48.13
369.42	50.18
369.631	121.85
369.842	15.36
370.053	31.74
370.264	3.07
370.474	-1.02
370.685	125.95
370.896	15.36
371.107	54.27
371.317	103.42
371.528	27.65
371.739	134.14
371.95	68.61
372.16	11.26
372.371	46.08
372.582	7.17
372.792	97.28
373.003	-15.36
373.214	17.41
373.424	103.42
373.635	54.27
373.846	101.37
374.056	58.37
374.267	54.27
374.477	52.22
374.688	48.13
374.898	29.7
375.109	29.7
375.319	11.26
375.53	82.94
375.74	74.75
375.951	-62.46
376.161	33.79
376.372	70.65
376.582	33.79
376.793	70.65
377.003	7.17
377.214	9.22
377.424	15.36
377.635	-13.31
377.845	41.98
378.055	93.18
378.266	-13.31
378.476	41.98
378.686	48.13
378.897	97.28
379.107	23.55
379.317	62.46
379.528	-3.07
379.738	80.89
379.948	-121.85
380.158	31.74
380.369	-23.55
380.579	58.37
380.789	58.37
380.999	78.85
381.21	7.17
381.42	132.09
381.63	91.13
381.84	60.42
382.05	93.18
382.261	95.23
382.471	111.61
382.681	-1.02
382.891	80.89
383.101	33.79
383.311	41.98
383.521	-21.5
383.731	89.09
383.941	-9.22
384.151	-1.02
384.361	-5.12
384.571	74.75
384.781	27.65
384.991	148.48
385.201	70.65
385.411	146.43
385.621	87.04
385.831	11.26
386.041	99.33
386.251	46.08
386.461	125.95
386.671	82.94
386.881	91.13
387.091	48.13
387.301	72.7
387.511	5.12
387.72	78.85
387.93	80.89
388.14	9.22
388.35	62.46
388.56	35.84
388.769	13.31
388.979	74.75
389.189	37.89
389.399	48.13
389.609	80.89
389.818	54.27
390.028	99.33
390.238	144.38
390.447	31.74
390.657	78.85
390.867	29.7
391.076	-37.89
391.286	105.47
391.496	70.65
391.705	93.18
391.915	87.04
392.125	66.56
392.334	44.03
392.544	117.76
392.753	21.5
392.963	25.6
393.172	-5.12
393.382	54.27
393.591	142.33
393.801	54.27
394.01	111.61
394.22	101.37
394.429	60.42
394.639	72.7
394.848	62.46
395.058	1.02
395.267	37.89
395.477	121.85
395.686	29.7
395.895	132.09
396.105	78.85
396.314	107.52
396.524	50.18
396.733	109.57
396.942	107.52
397.152	103.42
397.361	52.22
397.57	50.18
397.78	107.52
397.989	60.42
398.198	78.85
398.407	152.57
398.617	44.03
398.826	70.65
399.035	35.84
399.244	109.57
399.453	44.03
399.663	60.42
399.872	105.47
400.081	25.6
400.29	99.33
400.499	58.37
400.708	103.42
400.917	107.52
401.127	72.7
401.336	130.05
401.545	97.28
401.754	62.46
401.963	50.18
402.172	132.09
402.381	44.03
402.59	93.18
402.799	113.66
403.008	146.43
403.217	191.49
403.426	25.6
403.635	13.31
403.844	158.72
404.053	-9.22
404.262	152.57
404.471	91.13
404.68	105.47
404.888	105.47
405.097	27.65
405.306	66.56
405.515	111.61
405.724	199.68
405.933	109.57
406.142	91.13
406.35	195.58
406.559	78.85
406.768	93.18
406.977	160.77
407.185	187.39
407.394	119.81
407.603	117.76
407.812	218.11
408.02	179.2
408.229	142.33
408.438	199.68
408.646	123.9
408.855	201.72
409.064	150.53
409.272	265.21
409.481	238.59
409.69	226.3
409.898	148.48
410.107	222.2
410.315	218.11
410.524	160.77
410.733	162.81
410.941	259.07
411.15	246.78
411.358	265.21
411.567	279.55
411.775	254.97
411.984	250.88
412.192	267.26
412.401	287.74
412.609	338.94
412.818	340.99
413.026	349.18
413.234	310.27
413.443	340.99
413.651	300.03
413.86	400.38
414.068	459.77
414.276	502.78
414.485	402.43
414.693	433.15
414.901	517.11
415.11	517.11
415.318	392.19
415.526	510.97
415.734	564.22
415.943	453.63
416.151	646.13
416.359	553.98
416.567	513.02
416.776	627.7
416.984	639.99
417.192	721.91
417.4	683
417.608	588.79
417.817	586.74
418.025	683
418.233	764.92
418.441	775.16
418.649	732.15
418.857	891.89
419.065	873.46
419.273	756.72
419.481	912.37
419.689	996.34
419.897	932.85
420.105	961.52
420.313	1014.77
420.521	1121.26
420.729	1102.83
420.937	1174.51
421.145	1209.33
421.353	1180.65
421.561	1303.53
421.769	1305.58
421.977	1334.25
422.185	1332.2
422.393	1397.74
422.601	1420.27
422.809	1504.23
423.017	1457.13
423.224	1561.58
423.432	1676.26
423.64	1629.16
423.848	1815.52
424.056	1741.8
424.263	1842.15
424.471	1881.06
424.679	1934.31
424.887	1903.59
425.094	1948.64
425.302	2229.21
425.51	2051.04
425.718	2194.4
425.925	2366.43
426.133	2247.65
426.341	2513.88
426.548	2599.9
426.756	2550.75
426.964	2630.62
427.171	2788.31
427.379	2853.84
427.586	2784.21
427.794	2968.53
428.001	3079.12
428.209	3269.58
428.417	3052.5
428.624	3298.25
428.832	3402.7
429.039	3466.19
429.247	3408.84
429.454	3810.25
429.662	4074.43
429.869	3802.05
430.076	3969.99
430.284	3795.91
430.491	4058.05
430.699	4406.2
430.906	4268.99
431.114	4348.86
431.321	4613.05
431.528	4635.58
431.736	4932.53
431.943	5274.54
432.15	4826.04
432.358	5215.15
432.565	5278.64
432.772	5252.02
432.979	5536.68
433.187	5637.03
433.394	5837.73
433.601	6028.2
433.808	6073.25
434.016	6028.2
434.223	6312.86
434.43	6744.99
434.637	6740.89
434.844	7017.36
435.052	7158.67
435.259	6853.53
435.466	7107.48
435.673	7046.04
435.88	7498.64
436.087	7889.8
436.294	7895.94
436.501	7789.45
436.708	7799.69
436.915	8129.41
437.122	8608.64
437.329	8526.72
437.537	8577.92
437.743	8930.17
437.95	8698.75
438.157	9130.87
438.364	9673.58
438.571	9597.81
438.778	9610.09
438.985	10687.32
439.192	10138.47
439.399	10507.1
439.606	10210.15
439.813	10855.26
440.02	11430.74
440.227	11227.99
440.433	11213.65
440.64	11576.14
440.847	11375.44
441.054	11688.78
441.261	12446.53
441.467	12587.84
441.674	12487.49
441.881	13069.11
442.088	13044.54
442.294	12804.92
442.501	13124.41
442.708	13730.61
442.914	13984.55
443.121	14584.61
443.328	14263.08
443.534	15389.46
443.741	14664.48
443.948	14598.95
444.154	15749.9
444.361	15498
444.568	15780.62
444.774	15516.44
444.981	15887.12
445.187	16481.03
445.394	17101.56
445.6	16999.16
445.807	18488.04
446.013	17689.33
446.22	17842.93
446.426	18703.07
446.633	18918.11
446.839	19407.58
447.046	18832.1
447.252	19991.25
447.459	19907.28
447.665	19720.92
447.871	20615.88
448.078	21459.64
448.284	20624.07
448.491	21041.85
448.697	21928.63
448.903	22274.73
449.11	22549.16
449.316	22098.61
449.522	22332.08
449.728	23077.54
449.935	23126.69
450.141	23083.68
450.347	24113.81
450.553	23190.17
450.76	23419.55
450.966	24019.6
451.172	23675.54
451.378	24341.13
451.584	24052.37
451.791	24429.2
451.997	24429.2
452.203	25164.42
452.409	25240.19
452.615	24988.29
452.821	23706.26
453.027	23681.69
453.233	24701.58
453.44	24064.66
453.646	23972.5
453.852	23970.45
454.058	24570.51
454.264	23929.49
454.47	24361.61
454.676	23655.06
454.882	24857.22
455.088	22530.73
455.294	22762.15
455.5	23028.38
455.705	23325.34
455.911	22764.2
456.117	22002.35
456.323	21938.87
456.529	20527.81
456.735	21668.53
456.941	20822.72
457.147	20441.8
457.352	19995.34
457.558	19765.97
457.764	19512.02
457.97	19206.87
458.176	19051.23
458.381	18572
458.587	18379.5
458.793	18139.88
458.999	17134.33
459.204	18379.5
459.41	17767.15
459.616	16814.85
459.821	16542.47
460.027	16419.59
460.233	16212.74
460.438	15672.08
460.644	15586.07
460.85	14762.78
461.055	14449.44
461.261	14500.64
461.466	13488.95
461.672	13017.91
461.878	14189.35
462.083	13175.61
462.289	12772.16
462.494	12395.33
462.7	12217.16
462.905	11883.34
463.111	12229.45
463.316	12378.95
463.522	12133.19
463.727	11844.43
463.932	12075.85
464.138	11922.25
464.343	11916.11
464.549	11557.71
464.754	11893.58
464.959	11959.11
465.165	11717.45
465.37	11205.46
465.575	11121.49
465.781	11477.84
465.986	11522.9
466.191	11264.85
466.397	10726.24
466.602	10257.25
466.807	10664.8
467.012	10455.9
467.218	10769.24
467.423	10531.68
467.628	10713.95
467.833	10814.3
468.038	10636.13
468.244	10308.45
468.449	10842.97
468.654	10380.13
468.859	10363.75
469.064	10152.81
469.269	9775.98
469.474	9917.29
469.679	10083.17
469.885	9702.25
470.09	9859.95
470.295	9839.47
470.5	9669.48
470.705	9634.67
470.91	9397.1
471.115	9427.82
471.32	9470.83
471.525	9464.69
471.73	9247.6
471.935	9235.32
472.139	8860.54
472.344	9040.76
472.549	9079.67
472.754	8702.84
472.959	8577.92
473.164	8602.49
473.369	8334.21
473.574	8612.73
473.778	8539.01
473.983	8491.9
474.188	8485.76
474.393	8043.4
474.598	8176.52
474.802	8006.53
475.007	7967.62
475.212	8108.93
475.417	7744.39
475.621	7674.76
475.826	7777.16
476.031	7523.21
476.235	7482.25
476.44	7474.06
476.645	7453.58
476.849	7482.25
477.054	7322.51
477.259	7123.86
477.463	7234.45
477.668	7195.54
477.872	7068.56
478.077	6874.01
478.282	6693.79
478.486	6855.58
478.691	6787.99
478.895	6740.89
479.1	6732.7
479.304	6519.71
479.509	6351.78
479.713	6638.49
479.918	6448.03
480.122	6450.08
480.326	6568.86
480.531	6484.89
480.735	6353.82
480.94	6372.25
481.144	6587.29
481.348	6226.85
481.553	6294.43
481.757	6022.05
481.961	6198.18
482.166	6241.18
482.37	6382.49
482.574	6165.41
482.778	6040.48
482.983	6544.28
483.187	6294.43
483.391	6232.99
483.595	6157.22
483.8	6210.47
484.004	6181.79
484.208	6261.66
484.412	6177.7
484.616	6142.88
484.821	6405.02
485.025	6206.37
485.229	6271.9
485.433	6177.7
485.637	6280.1
485.841	6284.19
486.045	6355.87
486.249	6149.03
486.453	6093.73
486.657	6097.83
486.861	6163.36
487.065	6120.35
487.269	6351.78
487.473	6130.59
487.677	6185.89
487.881	6157.22
488.085	6081.44
488.289	6405.02
488.493	6175.65
488.697	6218.66
488.901	6321.06
489.105	6192.03
489.309	6212.51
489.512	6257.57
489.716	6343.58
489.92	6273.95
490.124	6161.31
490.328	6484.89
490.531	6353.82
490.735	6351.78
490.939	6228.9
491.143	6486.94
491.346	6392.73
491.55	6640.54
491.754	6435.74
491.958	6454.17
492.161	6509.47
492.365	6456.22
492.569	6646.68
492.772	6544.28
492.976	6507.42
493.18	6687.64
493.383	6962.07
493.587	6744.99
493.79	6824.86
493.994	6792.09
494.197	6874.01
494.401	6822.81
494.605	6968.21
494.808	7070.61
495.012	7015.32
495.215	7064.47
495.419	7230.35
495.622	7166.87
495.825	7345.04
496.029	7160.72
496.232	7332.75
496.436	7420.81
496.639	7529.36
496.843	7291.79
497.046	7711.63
497.249	7619.47
497.453	7715.72
497.656	7736.2
497.859	7955.33
498.063	8022.92
498.266	8098.69
498.469	7971.72
498.673	8156.04
498.876	8313.73
499.079	8579.97
499.282	8373.12
499.485	8745.85
499.689	8725.37
499.892	8813.43
500.095	8741.75
500.298	9067.38
500.501	8967.03
500.705	9278.32
500.908	9395.06
501.111	9063.29
501.314	9390.96
501.517	9562.99
501.72	9311.09
501.923	9661.29
502.126	9792.36
502.329	10156.9
502.532	10156.9
502.735	10029.93
502.938	10476.38
503.141	10597.21
503.344	10468.19
503.547	10595.17
503.75	10517.34
503.953	10761.05
504.156	11103.06
504.359	10959.7
504.562	11131.73
504.765	11488.08
504.968	11584.34
505.17	11651.92
505.373	11680.59
505.576	12100.42
505.779	11924.3
505.982	12129.09
506.185	12352.32
506.387	12313.41
506.59	12684.09
506.793	12809.02
506.996	12757.82
507.198	13378.36
507.401	13425.46
507.604	13237.05
507.807	13716.27
508.009	13792.05
508.212	13642.54
508.415	14093.1
508.617	13925.16
508.82	14240.55
509.022	14197.54
509.225	14398.24
509.428	14627.62
509.63	15002.4
509.833	15057.69
510.035	15371.03
510.238	15244.06
510.44	15397.65
510.643	15475.48
510.845	15956.75
511.048	15708.94
511.25	16001.8
511.453	16270.09
511.655	16907.01
511.858	16845.57
512.06	16708.35
512.262	17015.55
512.465	17111.8
512.667	17453.81
512.87	17564.4
513.072	17744.63
513.274	17945.33
513.477	18273
513.679	18426.6
513.881	18393.83
514.084	18674.4
514.286	18684.64
514.488	18887.39
514.69	19368.66
514.893	19555.03
515.095	19546.84
515.297	19749.59
515.499	20062.93
515.701	20378.31
515.904	20505.29
516.106	20662.98
516.308	20916.93
516.51	21023.42
516.712	21332.67
516.914	21598.9
517.116	22186.67
517.318	21908.15
517.52	22186.67
517.722	22250.16
517.925	22635.17
518.127	22839.97
518.329	23272.09
518.531	22864.55
518.733	23675.54
518.935	23796.37
519.136	23853.72
519.338	24058.51
519.54	24408.72
519.742	24803.97
519.944	24969.86
520.146	25057.92
520.348	25242.24
520.55	25643.64
520.752	25571.96
520.954	25989.75
521.155	25885.3
521.357	26681.96
521.559	26628.71
521.761	27267.68
521.963	27112.03
522.164	27683.42
522.366	27499.1
522.568	28086.87
522.77	28215.89
522.971	28502.61
523.173	28183.12
523.375	28365.39
523.576	28605
523.778	28928.58
523.98	29141.57
524.181	29344.32
524.383	29639.23
524.584	29968.95
524.786	30069.3
524.988	29798.97
525.189	30114.36
525.391	30556.72
525.592	30634.54
525.794	30898.73
525.995	31025.7
526.197	31025.7
526.398	31330.85
526.6	31384.1
526.801	31556.13
527.003	31961.62
527.204	31670.81
527.406	32223.76
527.607	32176.66
527.808	32719.37
528.01	32291.35
528.211	32578.06
528.412	33010.18
528.614	33219.08
528.815	32832.01
529.016	33298.95
529.218	33102.34
529.419	33092.1
529.62	32987.66
529.822	33131.01
530.023	33255.94
530.224	33657.34
530.425	33532.42
530.626	33155.59
530.828	33608.19
531.029	34302.45
531.23	33792.51
531.431	33790.46
531.632	33774.08
531.833	34189.81
532.035	34144.76
532.236	34300.4
532.437	34329.08
532.638	34038.26
532.839	34695.66
533.04	34922.99
533.241	34365.94
533.442	35119.59
533.643	34869.74
533.844	34673.13
534.045	34843.12
534.246	34238.97
534.447	34658.8
534.648	35019.24
534.849	34798.06
535.05	34724.33
535.251	34765.29
535.451	34828.78
535.652	34718.19
535.853	35009
536.054	35029.48
536.255	35142.12
536.456	34556.4
536.657	35549.67
536.857	34939.37
537.058	34875.88
537.259	35088.87
537.46	35183.08
537.66	34853.36
537.861	34892.27
538.062	35074.54
538.263	34851.31
538.463	35097.06
538.664	35240.42
538.865	34632.18
539.065	35332.58
539.266	35009
539.466	35396.07
539.667	34759.15
539.868	35447.27
540.068	35174.89
540.269	34896.36
540.469	35533.28
540.67	34798.06
540.87	35258.85
541.071	35082.73
541.271	35183.08
541.472	35191.27
541.672	35475.94
541.873	34982.38
542.073	34605.55
542.274	35195.37
542.474	35316.2
542.675	34791.92
542.875	35088.87
543.075	35240.42
543.276	34560.5
543.476	35295.72
543.676	35047.91
543.877	35107.3
544.077	34791.92
544.277	34886.12
544.478	34886.12
544.678	35088.87
544.878	35037.67
545.078	35217.89
545.279	34963.95
545.479	34591.22
545.679	34980.33
545.879	35133.93
546.079	34533.87
546.28	34947.56
546.48	34650.61
546.68	35449.32
546.88	34828.78
547.08	35107.3
547.28	34851.31
547.48	34406.9
547.68	35115.5
547.88	34570.74
548.081	34955.75
548.281	34791.92
548.481	34796.01
548.681	34861.55
548.881	34755.05
549.081	34669.04
549.28	34882.03
549.48	34820.59
549.68	34609.65
549.88	35142.12
550.08	34654.7
550.28	34681.33
550.48	34675.18
550.68	34671.09
550.88	34531.83
551.08	34443.76
551.279	34824.68
551.479	34402.8
551.679	34779.63
551.879	34857.45
552.079	34607.6
552.278	34662.9
552.478	34673.13
552.678	34949.61
552.878	34726.38
553.077	34339.32
553.277	34480.63
553.477	34775.53
553.676	34314.74
553.876	34333.17
554.076	34245.11
554.275	34482.67
554.475	33944.06
554.674	34423.28
554.874	34087.42
555.074	34103.8
555.273	34300.4
555.473	34515.44
555.672	34085.37
555.872	33937.91
556.071	34025.98
556.271	34341.36
556.47	33815.04
556.67	33522.18
556.869	33778.17
557.068	33780.22
557.268	33815.04
557.467	33907.19
557.667	33974.78
557.866	33950.2
558.065	33825.28
558.265	33274.37
558.464	33432.07
558.663	33927.67
558.863	33001.99
559.062	33899
559.261	33112.58
559.461	33362.43
559.66	32987.66
559.859	33157.64
560.058	32842.25
560.258	32971.27
560.457	32967.18
560.656	33294.85
560.855	33051.14
561.054	32885.26
561.253	32649.74
561.453	32666.13
561.652	32946.7
561.851	32772.62
562.05	32096.79
562.249	32176.66
562.448	32446.99
562.647	32100.89
562.846	32236.05
563.045	32322.07
563.244	31848.99
563.443	31943.19
563.642	31672.86
563.841	31717.92
564.04	31592.99
564.239	31664.67
564.438	30734.89
564.637	31126.05
564.836	31281.7
565.035	30933.54
565.234	31183.4
565.432	31228.45
565.631	30962.22
565.83	31066.66
566.029	30226.99
566.228	30560.81
566.427	30691.88
566.625	30474.8
566.824	29964.85
567.023	30210.61
567.222	29897.27
567.42	30306.87
567.619	30046.77
567.818	29925.94
568.016	29755.96
568.215	30356.02
568.414	29753.91
568.612	29991.48
568.811	29538.88
569.01	29616.7
569.208	29284.93
569.407	29377.09
569.605	28861
569.804	29448.77
570.002	28820.04
570.201	29295.17
570.4	28959.3
570.598	28682.83
570.797	28430.93
570.995	28629.58
571.193	28412.49
571.392	28703.31
571.59	27920.98
571.789	28199.51
571.987	28136.02
572.186	28406.35
572.384	27654.75
572.582	28035.67
572.781	27955.8
572.979	27703.9
573.177	27538.01
573.376	27693.66
573.574	27175.52
573.772	27392.61
573.971	27302.5
574.169	27101.79
574.367	26729.06
574.565	27028.07
574.763	26794.6
574.962	26577.51
575.16	26370.67
575.358	26544.75
575.556	26303.09
575.754	26417.77
575.952	26196.59
576.151	26481.26
576.349	25981.56
576.547	26106.48
576.745	25977.46
576.943	25954.93
577.141	25682.55
577.339	25940.6
577.537	25557.63
577.735	25737.85
577.933	25438.84
578.131	25488
578.329	25139.84
578.527	25059.97
578.725	25170.56
578.923	24953.48
579.121	24939.14
579.319	24865.41
579.516	24916.61
579.714	24758.92
579.912	24541.83
580.11	24427.15
580.308	24545.93
580.506	24314.51
580.704	24234.64
580.901	24300.17
581.099	24212.11
581.297	24218.25
581.495	24246.93
581.692	24296.08
581.89	23857.81
582.088	23937.68
582.285	23929.49
582.483	23847.57
582.681	23491.23
582.878	23452.31
583.076	23546.52
583.274	23753.37
583.471	23184.03
583.669	23030.43
583.866	22835.88
584.064	23048.86
584.262	22819.49
584.459	22919.84
584.657	22915.75
584.854	23106.21
585.052	22639.27
585.249	22772.39
585.447	22586.02
585.644	22485.67
585.841	22272.68
586.039	22635.17
586.236	22178.48
586.434	22301.36
586.631	22182.57
586.828	22352.55
587.026	22063.79
587.223	21983.92
587.42	21744.31
587.618	21699.25
587.815	21754.55
588.012	21828.27
588.21	21465.78
588.407	21840.56
588.604	21424.83
588.801	21260.99
588.999	21449.4
589.196	21310.14
589.393	21473.98
589.59	21039.81
589.787	21414.59
589.984	20976.32
590.182	20841.15
590.379	20890.31
590.576	20953.79
590.773	20988.61
590.97	20703.94
591.167	21015.23
591.364	20177.61
591.561	20396.74
591.758	20208.33
591.955	20144.84
592.152	20402.89
592.349	20273.87
592.546	20234.96
592.743	20120.27
592.94	19954.38
593.137	20144.84
593.334	19788.5
593.531	19698.39
593.727	19700.44
593.924	19815.12
594.121	19888.85
594.318	19794.64
594.515	19522.26
594.712	19411.67
594.908	19393.24
595.105	19352.28
595.302	19458.78
595.499	19114.72
595.696	19184.35
595.892	19071.71
596.089	19303.13
596.286	19196.64
596.482	19032.8
596.679	18815.71
596.876	18705.12
597.072	18592.48
597.269	18672.36
597.466	18369.26
597.662	18551.52
597.859	18549.48
598.055	18340.58
598.252	18420.45
598.448	18459.37
598.645	18180.84
598.841	18316.01
599.038	18047.72
599.234	18080.49
599.431	18205.42
599.627	18004.72
599.824	18180.84
600.02	17976.05
600.217	17926.89
600.413	17615.6
600.609	17500.92
600.806	17804.02
601.002	17713.91
601.198	17720.05
601.395	17519.35
601.591	17414.9
601.787	17394.42
601.984	17371.89
602.18	17507.06
602.376	17265.4
602.572	17206.01
602.769	17365.75
602.965	16995.07
603.161	16986.88
603.357	16913.15
603.553	17138.43
603.75	16859.9
603.946	16630.53
604.142	17019.64
604.338	16497.41
604.534	16569.09
604.73	16458.5
604.926	16425.73
605.122	16673.54
605.318	15995.66
605.514	16395.01
605.71	16327.43
605.906	16309
606.102	16218.89
606.298	16227.08
606.494	15880.97
606.69	16188.17
606.886	16024.33
607.082	15872.78
607.278	16122.63
607.474	15704.85
607.67	15715.09
607.866	15956.75
608.062	15934.22
608.257	15799.05
608.453	15526.68
608.649	15717.14
608.845	15403.8
609.041	15725.33
609.236	15543.06
609.432	15430.42
609.628	15530.77
609.824	15422.23
610.019	15358.74
610.215	15350.55
610.411	15239.96
610.606	15399.7
610.802	15416.08
610.998	15182.62
611.193	15158.04
611.389	14793.5
611.584	15151.9
611.78	14877.47
611.976	14936.86
612.171	14863.13
612.367	14965.53
612.562	14836.51
612.758	14388
612.953	14529.31
613.149	14697.25
613.344	14709.54
613.539	14793.5
613.735	14928.67
613.93	14644
614.126	14465.83
614.321	14656.29
614.517	14418.72
614.712	14818.08
614.907	14465.83
615.103	14521.12
615.298	14381.86
615.493	14455.59
615.688	14375.72
615.884	14414.63
616.079	14005.03
616.274	14326.57
616.47	14080.81
616.665	14015.27
616.86	14015.27
617.055	14146.34
617.25	14095.14
617.445	14082.86
617.641	13751.09
617.836	14101.29
618.031	13794.09
618.226	13691.7
618.421	13929.26
618.616	13824.81
618.811	13597.49
619.006	13697.84
619.201	13488.95
619.396	13804.33
619.591	13253.43
619.786	13568.82
619.981	13261.62
620.176	13337.4
620.371	13151.03
620.566	13333.3
620.761	13157.18
620.956	13273.91
621.151	12776.25
621.346	13175.61
621.541	12694.33
621.735	13001.53
621.93	12682.05
622.125	12895.04
622.32	12639.04
622.515	12729.15
622.709	12510.02
622.904	12311.36
623.099	12399.43
623.294	12432.19
623.488	12299.08
623.683	12251.97
623.878	12086.09
624.072	12004.17
624.267	12090.18
624.462	11977.55
624.656	12094.28
624.851	11760.46
625.046	11754.32
625.24	11719.5
625.435	11660.11
625.629	11600.72
625.824	11586.38
626.018	11457.36
626.213	11127.64
626.407	11426.64
626.602	10961.75
626.796	11135.83
626.991	11246.42
627.185	10990.42
627.38	10894.17
627.574	10754.91
627.768	10928.99
627.963	10793.82
628.157	10769.24
628.352	10629.98
628.546	10490.72
628.74	10621.79
628.935	10480.48
629.129	10496.86
629.323	10433.38
629.517	10482.53
629.712	10040.17
629.906	10341.22
630.1	10156.9
630.294	10081.13
630.489	9960.3
630.683	10156.9
630.877	9954.15
631.071	10089.32
631.265	9970.54
631.459	9909.1
631.653	9892.71
631.848	9763.69
632.042	9569.13
632.236	9812.84
632.43	9638.76
632.624	9628.53
632.818	9419.63
633.012	9268.08
633.206	9255.79
633.4	9282.42
633.594	9057.14
633.788	9257.84
633.982	9401.2
634.176	9143.16
634.369	9042.81
634.563	9053.05
634.757	8770.43
634.951	8899.45
635.145	8813.43
635.339	8903.54
635.533	8815.48
635.726	8692.6
635.92	8557.44
636.114	8639.36
636.308	8506.24
636.501	8582.01
636.695	8559.49
636.889	8469.37
637.083	8426.37
637.276	8291.2
637.47	8190.85
637.664	8280.96
637.857	8371.07
638.051	8065.92
638.244	8115.08
638.438	8043.4
638.632	8254.34
638.825	7725.96
639.019	8006.53
639.212	7816.07
639.406	7904.14
639.599	7865.22
639.793	7861.13
639.986	7723.91
640.18	7848.84
640.373	7584.65
640.567	7525.26
640.76	7676.81
640.954	7347.09
641.147	7328.66
641.34	7564.17
641.534	7318.42
641.727	7443.34
641.92	7222.16
642.114	7240.59
642.307	7328.66
642.5	7138.2
642.694	7138.2
642.887	6845.34
643.08	7191.44
643.273	7146.39
643.467	6976.41
643.66	6980.5
643.853	6955.93
644.046	6914.97
644.239	6751.13
644.432	6736.79
644.626	6720.41
644.819	6630.3
645.012	6671.26
645.205	6663.07
645.398	6538.14
645.591	6556.57
645.784	6458.27
645.977	6386.59
646.17	6433.69
646.363	6402.97
646.556	6331.3
646.749	6273.95
646.942	6204.32
647.135	6335.39
647.328	6222.75
647.521	6251.42
647.714	6177.7
647.907	6247.33
648.099	6134.69
648.292	6054.82
648.485	6054.82
648.678	6017.96
648.871	5997.48
649.064	6001.57
649.256	5915.56
649.449	5798.82
649.642	5712.81
649.835	5933.99
650.027	5632.94
650.22	5807.02
650.413	5782.44
650.605	5714.86
650.798	5796.78
650.991	5749.67
651.183	5766.06
651.376	5510.06
651.568	5542.83
651.761	5436.33
651.954	5569.45
652.146	5475.24
652.339	5354.41
652.531	5424.05
652.724	5319.6
652.916	5389.23
653.109	5317.55
653.301	5319.6
653.494	5229.49
653.686	5155.76
653.879	5362.61
654.071	5297.07
654.263	5131.19
654.456	5159.86
654.648	5202.86
654.84	5047.22
655.033	5071.79
655.225	5125.04
655.417	4877.24
655.61	5133.23
655.802	5039.03
655.994	4895.67
656.186	4903.86
656.379	4772.79
656.571	4836.28
656.763	4832.18
656.955	5057.46
657.148	4846.52
657.34	4670.39
657.532	4623.29
657.724	4740.02
657.916	4848.57
658.108	4658.1
658.3	4686.78
658.492	4764.6
658.684	4533.18
658.876	4576.19
659.068	4600.76
659.26	4522.94
659.452	4395.96
659.644	4572.09
659.836	4508.6
660.028	4469.69
660.22	4320.19
660.412	4324.29
660.604	4377.53
660.796	4305.85
660.988	4395.96
661.18	4398.01
661.372	4225.98
661.563	4219.84
661.755	4256.7
661.947	4309.95
662.139	4109.25
662.331	4207.55
662.522	4129.73
662.714	4127.68
662.906	4215.74
663.097	4045.76
663.289	3990.47
663.481	4017.09
663.673	4068.29
663.864	4072.39
664.056	4158.4
664.247	4090.82
664.439	3881.92
664.631	4035.52
664.822	3980.23
665.014	4045.76
665.205	3863.49
665.397	3957.7
665.588	3890.12
665.78	3881.92
665.971	4037.57
666.163	3896.26
666.354	3838.92
666.546	3894.21
666.737	3814.34
666.929	3675.08
667.12	3902.4
667.311	3736.52
667.503	3752.9
667.694	3810.25
667.885	3748.81
668.077	3871.68
668.268	3716.04
668.459	3777.48
668.651	3816.39
668.842	3707.85
669.033	3568.59
669.224	3636.17
669.416	3736.52
669.607	3578.83
669.798	3787.72
669.989	3644.36
670.18	3652.55
670.371	3611.59
670.563	3564.49
670.754	3627.98
670.945	3486.67
671.136	3728.33
671.327	3564.49
671.518	3533.77
671.709	3625.93
671.9	3742.66
672.091	3619.78
672.282	3599.31
672.473	3595.21
672.664	3699.66
672.855	3507.15
673.046	3572.68
673.237	3582.92
673.428	3599.31
673.619	3595.21
673.809	3474.38
674	3531.72
674.191	3468.24
674.382	3412.94
674.573	3564.49
674.764	3564.49
674.954	3363.79
675.145	3462.09
675.336	3445.71
675.527	3484.62
675.717	3675.08
675.908	3382.22
676.099	3486.67
676.289	3550.15
676.48	3597.26
676.671	3367.88
676.861	3552.2
677.052	3433.42
677.243	3394.51
677.433	3462.09
677.624	3380.17
677.814	3496.91
678.005	3568.59
678.195	3548.11
678.386	3447.76
678.576	3523.53
678.767	3564.49
678.957	3611.59
679.148	3582.92
679.338	3648.46
679.529	3374.03
679.719	3498.95
679.909	3605.45
680.1	3419.08
680.29	3539.91
680.481	3537.87
680.671	3574.73
680.861	3494.86
681.052	3548.11
681.242	3449.8
681.432	3621.83
681.622	3476.43
681.813	3539.91
682.003	3406.8
682.193	3478.47
682.383	3572.68
682.573	3584.97
682.764	3584.97
682.954	3589.07
683.144	3550.15
683.334	3578.83
683.524	3668.94
683.714	3566.54
683.904	3685.32
684.094	3515.34
684.284	3476.43
684.474	3666.89
684.664	3501
684.854	3603.4
685.044	3509.19
685.234	3584.97
685.424	3564.49
685.614	3531.72
685.804	3705.8
685.994	3470.28
686.184	3384.27
686.374	3478.47
686.564	3517.39
686.753	3466.19
686.943	3425.23
687.133	3560.39
687.323	3488.71
687.513	3527.63
687.702	3486.67
687.892	3363.79
688.082	3347.4
688.272	3431.37
688.461	3386.32
688.651	3427.28
688.841	3324.88
689.03	3320.78
689.22	3265.49
689.41	3431.37
689.599	3294.16
689.789	3253.2
689.979	3431.37
690.168	3242.96
690.358	3306.45
690.547	3265.49
690.737	3253.2
690.926	3220.43
691.116	3161.04
691.305	3204.05
691.495	3077.07
691.684	3017.68
691.874	3075.03
692.063	3189.71
692.252	3154.9
692.442	3079.12
692.631	3003.35
692.82	2978.77
693.01	3048.4
693.199	3025.87
693.388	2978.77
693.578	2966.48
693.767	3001.3
693.956	2880.47
694.146	2851.8
694.335	2974.67
694.524	2868.18
694.713	2991.06
694.902	2958.29
695.092	2765.78
695.281	2886.61
695.47	3015.63
695.659	2931.67
695.848	2882.52
696.037	2878.42
696.226	2933.72
696.415	2853.84
696.604	2866.13
696.793	2859.99
696.982	2915.28
697.171	2751.45
697.36	2837.46
697.549	2780.12
697.738	2948.05
697.927	2778.07
698.116	2915.28
698.305	2788.31
698.494	2700.25
698.683	2806.74
698.872	2884.56
699.061	2780.12
699.25	2722.77
699.438	2812.89
699.627	2755.54
699.816	2782.17
700.005	2749.4
700.193	2745.3
700.382	2798.55
700.571	2728.92
700.76	2788.31
700.948	2812.89
701.137	2819.03
701.326	2784.21
701.514	2776.02
701.703	2794.45
701.892	2784.21
702.08	2763.73
702.269	2798.55
702.457	2720.73
702.646	2673.62
702.834	2888.66
703.023	2837.46
703.212	2790.36
703.4	2888.66
703.589	2868.18
703.777	2724.82
703.965	2708.44
704.154	2843.6
704.342	2798.55
704.531	2747.35
704.719	2806.74
704.907	2784.21
705.096	2757.59
705.284	2696.15
705.472	2814.93
705.661	2767.83
705.849	2986.96
706.037	2843.6
706.226	2905.04
706.414	2778.07
706.602	2696.15
706.79	2900.95
706.979	2864.08
707.167	2968.53
707.355	2712.53
707.543	2661.34
707.731	3048.4
707.919	2896.85
708.107	2835.41
708.296	2841.56
708.484	2821.08
708.672	2788.31
708.86	2911.19
709.048	2903
709.236	2829.27
709.424	3036.11
709.612	2831.32
709.8	2872.28
709.988	2888.66
710.176	2984.91
710.364	2812.89
710.551	2900.95
710.739	2937.81
710.927	2872.28
711.115	2923.48
711.303	3036.11
711.491	2919.38
711.679	3001.3
711.866	2896.85
712.054	2970.58
712.242	3089.36
712.43	3003.35
712.617	3175.38
712.805	2890.71
712.993	2941.91
713.181	3005.39
713.368	2845.65
713.556	3120.08
713.744	3034.07
713.931	3128.27
714.119	2980.82
714.306	2970.58
714.494	3046.35
714.682	3048.4
714.869	2986.96
715.057	3066.83
715.244	2995.15
715.432	3079.12
715.619	3075.03
715.807	3062.74
715.994	2954.19
716.182	3079.12
716.369	3130.32
716.556	3171.28
716.744	3107.79
716.931	3058.64
717.119	3169.23
717.306	3070.93
717.493	2972.63
717.681	3165.14
717.868	3171.28
718.055	3029.97
718.242	3048.4
718.43	3187.66
718.617	3126.22
718.804	3144.66
718.991	3179.47
719.179	3181.52
719.366	3136.46
719.553	3218.38
719.74	3240.91
719.927	3144.66
720.114	3148.75
720.301	3156.94
720.488	3240.91
720.676	3236.81
720.863	3126.22
721.05	3308.49
721.237	3087.31
721.424	3290.06
721.611	3365.84
721.798	3171.28
721.985	3218.38
722.172	3302.35
722.358	3228.62
722.545	3351.5
722.732	3220.43
722.919	3345.36
723.106	3460.04
723.293	3357.64
723.48	3187.66
723.667	3210.19
723.853	3363.79
724.04	3390.41
724.227	3283.92
724.414	3253.2
724.6	3263.44
724.787	3466.19
724.974	3552.2
725.161	3337.17
725.347	3326.93
725.534	3496.91
725.72	3394.51
725.907	3353.55
726.094	3494.86
726.28	3398.6
726.467	3482.57
726.653	3404.75
726.84	3386.32
727.027	3515.34
727.213	3296.21
727.4	3359.69
727.586	3306.45
727.773	3410.89
727.959	3398.6
728.145	3587.02
728.332	3574.73
728.518	3337.17
728.705	3451.85
728.891	3484.62
729.077	3531.72
729.264	3447.76
729.45	3496.91
729.636	3697.61
729.823	3515.34
730.009	3605.45
730.195	3615.69
730.382	3701.7
730.568	3470.28
730.754	3472.33
730.94	3537.87
731.126	3560.39
731.313	3523.53
731.499	3728.33
731.685	3687.37
731.871	3550.15
732.057	3544.01
732.243	3695.56
732.429	3701.7
732.615	3652.55
732.801	3673.03
732.987	3558.35
733.173	3716.04
733.359	3564.49
733.545	3728.33
733.731	3599.31
733.917	3550.15
734.103	3652.55
734.289	3619.78
734.475	3638.22
734.661	3656.65
734.847	3695.56
735.033	3781.57
735.219	3744.71
735.404	3746.76
735.59	3591.11
735.776	3650.5
735.962	3707.85
736.148	3769.29
736.333	3673.03
736.519	3673.03
736.705	3656.65
736.89	3806.15
737.076	3650.5
737.262	3517.39
737.447	3621.83
737.633	3595.21
737.819	3587.02
738.004	3683.27
738.19	3584.97
738.375	3797.96
738.561	3738.57
738.747	3611.59
738.932	3466.19
739.118	3679.18
739.303	3713.99
739.489	3689.42
739.674	3636.17
739.859	3664.84
740.045	3670.98
740.23	3603.4
740.416	3558.35
740.601	3584.97
740.786	3527.63
740.972	3527.63
741.157	3582.92
741.342	3572.68
741.528	3603.4
741.713	3552.2
741.898	3486.67
742.084	3541.96
742.269	3458
742.454	3662.79
742.639	3593.16
742.824	3478.47
743.01	3515.34
743.195	3562.44
743.38	3496.91
743.565	3480.52
743.75	3468.24
743.935	3599.31
744.12	3539.91
744.305	3439.56
744.49	3365.84
744.675	3339.21
744.86	3474.38
745.045	3404.75
745.23	3496.91
745.415	3435.47
745.6	3363.79
745.785	3376.08
745.97	3476.43
746.155	3285.97
746.34	3296.21
746.525	3238.86
746.71	3230.67
746.895	3228.62
747.079	3220.43
747.264	3187.66
747.449	3169.23
747.634	3122.13
747.819	3269.58
748.003	3118.03
748.188	3122.13
748.373	3029.97
748.557	3128.27
748.742	3007.44
748.927	2939.86
749.111	3009.49
749.296	3013.59
749.481	3070.93
749.665	3032.02
749.85	2835.41
750.034	3017.68
750.219	3015.63
750.404	2946
750.588	2866.13
750.773	2931.67
750.957	2814.93
751.141	2857.94
751.326	2796.5
751.51	2892.76
751.695	2767.83
751.879	2872.28
752.064	2718.68
752.248	2755.54
752.432	2790.36
752.617	2730.97
752.801	2718.68
752.985	2708.44
753.17	2690.01
753.354	2720.73
753.538	2595.8
753.722	2552.79
753.907	2728.92
754.091	2569.18
754.275	2606.04
754.459	2575.32
754.643	2505.69
754.828	2417.63
755.012	2472.92
755.196	2468.83
755.38	2511.83
755.564	2407.39
755.748	2421.72
755.932	2429.91
756.116	2345.95
756.3	2415.58
756.484	2448.35
756.668	2302.94
756.852	2212.83
757.036	2221.02
757.22	2288.61
757.404	2171.87
757.588	2212.83
757.772	2276.32
757.956	2132.96
758.14	2167.77
758.323	2137.06
758.507	2194.4
758.691	2155.49
758.875	2132.96
759.059	2233.31
759.242	2038.75
759.426	2102.24
759.61	2028.51
759.794	2155.49
759.977	2118.62
760.161	2048.99
760.345	2132.96
760.528	2173.92
760.712	2061.28
760.895	2089.95
761.079	1956.83
761.263	1891.3
761.446	2087.9
761.63	1907.68
761.813	1926.11
761.997	1924.07
762.18	1833.96
762.364	1881.06
762.547	1786.85
762.731	1864.68
762.914	1942.5
763.098	1962.98
763.281	1895.4
763.464	1778.66
763.648	1907.68
763.831	1842.15
764.015	1793
764.198	1698.79
764.381	1772.52
764.564	1831.91
764.748	1774.56
764.931	1852.39
765.114	1596.39
765.297	1833.96
765.481	1731.56
765.664	1690.6
765.847	1682.41
766.03	1715.17
766.213	1786.85
766.397	1655.78
766.58	1606.63
766.763	1809.38
766.946	1602.54
767.129	1657.83
767.312	1627.11
767.495	1764.33
767.678	1612.78
767.861	1651.69
768.044	1702.89
768.227	1637.35
768.41	1580.01
768.593	1686.5
768.776	1612.78
768.959	1518.57
769.142	1526.76
769.324	1569.77
769.507	1637.35
769.69	1539.05
769.873	1350.64
770.056	1573.86
770.239	1487.85
770.421	1453.03
770.604	1565.67
770.787	1479.66
770.97	1487.85
771.152	1461.23
771.335	1573.86
771.518	1522.66
771.7	1438.7
771.883	1522.66
772.066	1543.14
772.248	1465.32
772.431	1493.99
772.613	1434.6
772.796	1360.88
772.978	1545.19
773.161	1461.23
773.343	1465.32
773.526	1448.94
773.708	1410.03
773.891	1379.31
774.073	1340.4
774.256	1387.5
774.438	1340.4
774.621	1285.1
774.803	1285.1
774.985	1346.54
775.168	1291.24
775.35	1246.19
775.532	1256.43
775.715	1252.33
775.897	1379.31
776.079	1270.76
776.261	1147.89
776.444	1235.95
776.626	1158.13
776.808	1199.09
776.99	1139.69
777.173	1111.02
777.355	1207.28
777.537	1197.04
777.719	1145.84
777.901	1131.5
778.083	1164.27
778.265	1229.81
778.447	1141.74
778.629	1043.44
778.811	1143.79
778.993	1211.37
779.175	992.24
779.357	1047.54
779.539	1106.93
779.721	1020.91
779.903	1111.02
780.085	977.91
780.267	1076.21
780.449	1035.25
780.631	1047.54
780.812	1133.55
780.994	971.76
781.176	1035.25
781.358	910.32
781.54	902.13
781.721	1004.53
781.903	953.33
782.085	930.8
782.267	938.99
782.448	920.56
782.63	926.71
782.812	879.6
782.993	949.23
783.175	814.07
783.357	855.03
783.538	893.94
783.72	846.84
783.901	850.93
784.083	959.47
784.264	801.78
784.446	822.26
784.627	848.88
784.809	842.74
784.99	797.68
785.172	781.3
785.353	859.12
785.535	758.77
785.716	748.53
785.897	809.97
786.079	814.07
786.26	842.74
786.441	742.39
786.623	664.57
786.804	662.52
786.985	713.72
787.167	695.29
787.348	754.68
787.529	787.44
787.71	764.92
787.891	691.19
788.073	777.2
788.254	715.77
788.435	736.24
788.616	750.58
788.797	619.51
788.978	715.77
789.159	601.08
789.34	652.28
789.522	695.29
789.703	683
789.884	658.42
790.065	642.04
790.246	707.57
790.427	615.41
790.607	658.42
790.788	693.24
790.969	527.35
791.15	639.99
791.331	625.65
791.512	519.16
791.693	488.44
791.874	562.17
792.054	703.48
792.235	564.22
792.416	517.11
792.597	572.41
792.778	519.16
792.958	549.88
793.139	605.17
793.32	611.32
793.5	498.68
793.681	584.7
793.862	513.02
794.042	560.12
794.223	529.4
794.404	486.39
794.584	439.29
794.765	537.59
794.945	508.92
795.126	576.5
795.306	496.63
795.487	525.3
795.667	494.58
795.848	496.63
796.028	404.47
796.209	510.97
796.389	539.64
796.57	482.3
796.75	424.95
796.93	463.86
797.111	488.44
797.291	451.58
797.471	482.3
797.652	404.47
797.832	470.01
798.012	470.01
798.192	371.71
798.373	494.58
798.553	465.91
798.733	521.21
798.913	414.71
799.093	482.3
799.274	441.34
799.454	390.14
799.634	443.39
799.814	414.71
799.994	429.05
800.174	353.27
800.354	429.05
800.534	367.61
800.714	449.53
800.894	396.28
801.074	398.33
801.254	373.75
801.434	420.86
801.614	398.33
801.794	416.76
801.974	1172.46
802.154	410.62
802.334	453.63
802.514	420.86
802.693	420.86
802.873	451.58
803.053	343.03
803.233	412.67
803.413	388.09
803.592	383.99
803.772	369.66
803.952	338.94
804.131	316.41
804.311	381.95
804.491	365.56
804.67	379.9
804.85	320.51
805.03	470.01
805.209	404.47
805.389	330.75
805.568	259.07
805.748	343.03
805.928	345.08
806.107	410.62
806.287	345.08
806.466	322.56
806.646	324.6
806.825	297.98
807.004	365.56
807.184	318.46
807.363	328.7
807.543	295.93
807.722	304.12
807.901	324.6
808.081	289.79
808.26	207.87
808.439	322.56
808.619	293.88
808.798	343.03
808.977	300.03
809.156	297.98
809.336	279.55
809.515	386.04
809.694	322.56
809.873	283.64
810.052	314.36
810.231	343.03
810.411	388.09
810.59	287.74
810.769	240.64
810.948	277.5
811.127	257.02
811.306	316.41
811.485	226.3
811.664	295.93
811.843	240.64
812.022	248.83
812.201	252.92
812.38	246.78
812.559	240.64
812.737	271.36
812.916	254.97
813.095	199.68
813.274	336.89
813.453	351.23
813.632	228.35
813.811	287.74
813.989	289.79
814.168	279.55
814.347	240.64
814.526	214.01
814.704	252.92
814.883	218.11
815.062	156.67
815.24	263.16
815.419	220.16
815.598	248.83
815.776	191.49
815.955	203.77
816.133	191.49
816.312	216.06
816.49	191.49
816.669	263.16
816.847	218.11
817.026	248.83
817.204	195.58
817.383	195.58
817.561	205.82
817.74	211.96
817.918	185.34
818.097	226.3
818.275	230.4
818.453	265.21
818.632	289.79
818.81	228.35
818.988	232.44
819.167	240.64
819.345	128
819.523	123.9
819.701	261.12
819.879	300.03
820.058	168.96
820.236	179.2
820.414	195.58
820.592	130.05
820.77	228.35
820.948	242.68
821.127	158.72
821.305	250.88
821.483	148.48
821.661	263.16
821.839	144.38
822.017	105.47
822.195	205.82
822.373	179.2
822.551	189.44
822.729	220.16
822.907	91.13
823.085	226.3
823.262	168.96
823.44	146.43
823.618	156.67
823.796	218.11
823.974	128
824.152	142.33
824.329	160.77
824.507	164.86
824.685	160.77
824.863	154.62
825.04	240.64
825.218	156.67
825.396	162.81
825.574	232.44
825.751	201.72
825.929	162.81
826.107	181.25
826.284	152.57
826.462	138.24
826.639	195.58
826.817	179.2
826.994	175.1
827.172	158.72
827.349	279.55
827.527	154.62
827.704	130.05
827.882	181.25
828.059	177.15
828.237	89.09
828.414	160.77
828.591	130.05
828.769	136.19
828.946	105.47
829.124	148.48
829.301	168.96
829.478	185.34
829.655	156.67
829.833	91.13
830.01	87.04
830.187	103.42
830.364	154.62
830.542	162.81
830.719	168.96
830.896	97.28
831.073	166.91
831.25	164.86
831.427	179.2
831.604	191.49
831.782	82.94
831.959	195.58
832.136	156.67
832.313	80.89
832.49	111.61
832.667	121.85
832.844	117.76
833.021	134.14
833.198	111.61
833.374	181.25
833.551	78.85
833.728	171.01
833.905	154.62
834.082	84.99
834.259	50.18
834.436	173.05
834.612	72.7
834.789	132.09
834.966	128
835.143	99.33
835.319	82.94
835.496	144.38
835.673	103.42
835.85	95.23
836.026	119.81
836.203	113.66
836.38	80.89
836.556	109.57
836.733	72.7
836.909	222.2
837.086	78.85
837.262	33.79
837.439	80.89
837.616	56.32
837.792	107.52
837.968	138.24
838.145	115.71
838.321	125.95
838.498	123.9
838.674	99.33
838.851	152.57
839.027	74.75
839.203	136.19
839.38	103.42
839.556	87.04
839.732	187.39
839.909	39.94
840.085	162.81
840.261	33.79
840.437	91.13
840.614	78.85
840.79	148.48
840.966	117.76
841.142	70.65
841.318	80.89
841.494	134.14
841.671	119.81
841.847	62.46
842.023	128
842.199	111.61
842.375	125.95
842.551	35.84
842.727	15.36
842.903	121.85
843.079	95.23
843.255	95.23
843.431	60.42
843.607	95.23
843.783	-1.02
843.959	74.75
844.134	82.94
844.31	91.13
844.486	105.47
844.662	21.5
844.838	48.13
845.013	72.7
845.189	150.53
845.365	162.81
845.541	-13.31
845.716	17.41
845.892	195.58
846.068	89.09
846.244	27.65
846.419	80.89
846.595	29.7
846.77	68.61
846.946	140.29
847.122	80.89
847.297	52.22
847.473	144.38
847.648	35.84
847.824	52.22
847.999	60.42
848.175	78.85
848.35	95.23
848.526	162.81
848.701	68.61
848.876	25.6
849.052	101.37
849.227	-9.22
849.403	74.75
849.578	64.51
849.753	95.23
849.929	125.95
850.104	-21.5
850.279	64.51
850.454	11.26
850.63	132.09
850.805	80.89
850.98	138.24
851.155	35.84
851.33	78.85
851.505	9.22
851.681	130.05
851.856	76.8
852.031	130.05
852.206	23.55
852.381	25.6
852.556	50.18
852.731	91.13
852.906	48.13
853.081	11.26
853.256	31.74
853.431	1.02
853.606	-7.17
853.781	29.7
853.956	66.56
854.131	70.65
854.305	113.66
854.48	56.32
854.655	48.13
854.83	-5.12
855.005	15.36
855.18	91.13
855.354	84.99
855.529	113.66
855.704	-7.17
855.879	87.04
856.053	97.28
856.228	64.51
856.403	44.03
856.577	121.85
856.752	-5.12
856.926	1.02
857.101	89.09
857.276	9.22
857.45	29.7
857.625	74.75
857.799	50.18
857.974	11.26
858.148	-25.6
858.323	66.56
858.497	72.7
858.672	109.57
858.846	-72.7
859.02	35.84
859.195	5.12
859.369	21.5
859.543	-44.03
859.718	80.89
859.892	-1.02
860.066	113.66
860.241	80.89
860.415	-11.26
860.589	64.51
860.763	56.32
860.938	35.84
861.112	125.95
861.286	-23.55
861.46	9.22
861.634	-21.5
861.808	107.52
861.982	29.7
862.157	-27.65
862.331	-13.31
862.505	23.55
862.679	1.02
862.853	29.7
863.027	23.55
863.201	68.61
863.375	-5.12
863.549	72.7
863.722	39.94
863.896	74.75
864.07	11.26
864.244	99.33
864.418	60.42
864.592	128
864.766	11.26
864.939	-11.26
865.113	25.6
865.287	103.42
865.461	101.37
865.634	60.42
865.808	25.6
865.982	58.37
866.156	31.74
866.329	-7.17
866.503	41.98
866.676	74.75
866.85	66.56
867.024	-1.02
867.197	15.36
867.371	56.32
867.544	13.31
867.718	29.7
867.891	80.89
868.065	87.04
868.238	19.46
868.412	68.61
868.585	35.84
868.759	-52.22
868.932	-35.84
869.105	-15.36
869.279	1.02
869.452	-5.12
869.625	-33.79
869.799	44.03
869.972	-23.55
870.145	-21.5
870.319	5.12
870.492	-25.6
870.665	33.79
870.838	60.42
871.011	19.46
871.185	29.7
871.358	25.6
871.531	121.85
871.704	-7.17
871.877	9.22
872.05	80.89
872.223	62.46
872.396	62.46
872.569	177.15
872.742	15.36
872.915	37.89
873.088	-17.41
873.261	-29.7
873.434	68.61
873.607	37.89
873.78	13.31
873.953	56.32
874.126	19.46
874.299	27.65
874.471	-87.04
874.644	54.27
874.817	-15.36
874.99	35.84
875.163	19.46
875.335	23.55
875.508	5.12
875.681	-15.36
875.853	44.03
876.026	-87.04
876.199	33.79
876.371	80.89
876.544	-15.36
876.717	33.79
876.889	-62.46
877.062	-31.74
877.234	-13.31
877.407	-13.31
877.579	7.17
877.752	31.74
877.924	-13.31
878.097	68.61
878.269	35.84
878.442	58.37
878.614	31.74
878.786	31.74
878.959	-3.07
879.131	29.7
879.303	-46.08
879.476	3.07
879.648	11.26
879.82	1.02
879.993	-54.27
880.165	58.37
880.337	13.31
880.509	3.07
880.681	-56.32
880.854	17.41
881.026	25.6
881.198	62.46
881.37	44.03
881.542	39.94
881.714	52.22
881.886	60.42
882.058	21.5
882.23	13.31
882.402	19.46
882.574	27.65
882.746	50.18
882.918	68.61
883.09	89.09
883.262	-62.46
883.434	-19.46
883.606	-39.94
883.778	91.13
883.95	70.65
884.122	31.74
884.293	50.18
884.465	5.12
884.637	50.18
884.809	23.55
884.98	-9.22
885.152	44.03
885.324	76.8
885.496	15.36
885.667	5.12
885.839	-7.17
886.011	56.32
886.182	7.17
886.354	60.42
886.525	48.13
886.697	48.13
886.869	-29.7
887.04	-37.89
887.212	-23.55
887.383	136.19
887.555	52.22
887.726	-11.26
887.897	3.07
888.069	33.79
888.24	58.37
888.412	-27.65
888.583	-78.85
888.754	87.04
888.926	-17.41
889.097	-13.31
889.268	-21.5
889.44	-23.55
889.611	-29.7
889.782	29.7
889.953	-11.26
890.125	54.27
890.296	-37.89
890.467	-3.07
890.638	23.55
890.809	-17.41
890.98	-95.23
891.151	41.98
891.323	58.37
891.494	-9.22
891.665	15.36
891.836	84.99
892.007	-68.61
892.178	56.32
892.349	-46.08
892.52	23.55
892.691	1.02
892.862	-3.07
893.032	-56.32
893.203	60.42
893.374	54.27
893.545	84.99
893.716	-13.31
893.887	23.55
894.057	-93.18
894.228	-23.55
894.399	-44.03
894.57	74.75
894.74	48.13
894.911	13.31
895.082	3.07
895.253	-31.74
895.423	27.65
895.594	31.74
895.764	17.41
895.935	-13.31
896.106	-25.6
896.276	-3.07
896.447	15.36
896.617	-52.22
896.788	-25.6
896.958	3.07
897.129	-27.65
897.299	1.02
897.47	58.37
897.64	17.41
897.81	23.55
897.981	15.36
898.151	3.07
898.322	72.7
898.492	19.46
898.662	-35.84
898.832	44.03
899.003	-64.51
899.173	-11.26
899.343	-29.7
899.513	-64.51
