Data from USB4F104151__92__12-24-54-977.txt Node

Date: Fri Mar 14 12:24:54 EDT 2025
User: louis
Spectrometer: USB4F10415
Trigger mode: 4
Integration Time (sec): 3.500000E-2
Scans to average: 1
Electric dark correction enabled: true
Nonlinearity correction enabled: false
Boxcar width: 0
XAxis mode: Wavelengths
Number of Pixels in Spectrum: 3648
>>>>>Begin Spectral Data<<<<<
178.204	-83.97
178.424	-83.97
178.644	-83.97
178.864	-188.41
179.084	-163.84
179.304	-16.38
179.524	65.54
179.744	-14.34
179.964	-40.96
180.184	49.15
180.404	20.48
180.624	0
180.844	-6.14
181.064	-79.87
181.283	-12.29
181.503	47.1
181.723	-12.29
181.943	-65.53
182.163	18.43
182.383	90.11
182.602	116.73
182.822	59.39
183.042	67.58
183.262	14.34
183.482	8.19
183.701	14.34
183.921	59.39
184.141	16.38
184.361	59.39
184.58	0
184.8	47.1
185.02	45.06
185.239	53.25
185.459	12.29
185.679	118.78
185.898	36.86
186.118	45.06
186.338	98.3
186.557	45.06
186.777	-20.48
186.997	40.96
187.216	86.01
187.436	51.2
187.655	-4.1
187.875	118.78
188.095	-16.38
188.314	116.73
188.534	30.72
188.753	47.1
188.973	38.91
189.192	178.17
189.412	102.4
189.631	79.87
189.851	49.15
190.07	86.01
190.29	-6.14
190.509	-8.19
190.729	0
190.948	104.45
191.168	169.98
191.387	96.25
191.607	32.77
191.826	43.01
192.045	-2.05
192.265	38.91
192.484	24.58
192.704	38.91
192.923	12.29
193.142	57.34
193.362	79.87
193.581	51.2
193.8	40.96
194.02	133.12
194.239	16.38
194.458	63.49
194.678	26.62
194.897	63.49
195.116	71.68
195.335	30.72
195.555	120.83
195.774	16.38
195.993	71.68
196.212	73.73
196.432	79.87
196.651	53.25
196.87	20.48
197.089	147.45
197.308	79.87
197.528	77.82
197.747	0
197.966	-6.14
198.185	77.82
198.404	14.34
198.623	110.59
198.842	65.54
199.062	61.44
199.281	86.01
199.5	49.15
199.719	-18.43
199.938	59.39
200.157	28.67
200.376	104.45
200.595	34.82
200.814	26.62
201.033	4.1
201.252	102.4
201.471	51.2
201.69	100.35
201.909	77.82
202.128	69.63
202.347	61.44
202.566	30.72
202.785	22.53
203.004	141.31
203.223	153.6
203.442	53.25
203.661	34.82
203.879	32.77
204.098	81.92
204.317	34.82
204.536	59.39
204.755	10.24
204.974	57.34
205.193	77.82
205.411	83.97
205.63	159.74
205.849	22.53
206.068	49.15
206.287	-38.91
206.505	147.45
206.724	49.15
206.943	-26.62
207.162	-38.91
207.381	114.69
207.599	94.21
207.818	65.54
208.037	14.34
208.255	-12.29
208.474	24.58
208.693	36.86
208.911	69.63
209.13	110.59
209.349	10.24
209.567	167.93
209.786	120.83
210.005	108.54
210.223	120.83
210.442	-22.53
210.661	36.86
210.879	49.15
211.098	6.14
211.316	49.15
211.535	26.62
211.753	61.44
211.972	104.45
212.191	40.96
212.409	92.16
212.628	63.49
212.846	51.2
213.065	67.58
213.283	118.78
213.502	63.49
213.72	55.3
213.938	-24.58
214.157	6.14
214.375	-6.14
214.594	16.38
214.812	49.15
215.031	26.62
215.249	28.67
215.467	57.34
215.686	59.39
215.904	22.53
216.122	71.68
216.341	61.44
216.559	110.59
216.778	63.49
216.996	24.58
217.214	59.39
217.432	71.68
217.651	22.53
217.869	86.01
218.087	77.82
218.306	69.63
218.524	65.54
218.742	45.06
218.96	114.69
219.179	-55.3
219.397	14.34
219.615	77.82
219.833	-6.14
220.051	34.82
220.27	61.44
220.488	32.77
220.706	-2.05
220.924	65.54
221.142	81.92
221.36	16.38
221.578	61.44
221.796	61.44
222.015	40.96
222.233	57.34
222.451	141.31
222.669	30.72
222.887	86.01
223.105	28.67
223.323	59.39
223.541	34.82
223.759	38.91
223.977	16.38
224.195	51.2
224.413	110.59
224.631	43.01
224.849	30.72
225.067	100.35
225.285	28.67
225.503	-2.05
225.721	-26.62
225.939	28.67
226.157	20.48
226.375	118.78
226.592	24.58
226.81	24.58
227.028	40.96
227.246	83.97
227.464	55.3
227.682	65.54
227.9	-47.1
228.117	90.11
228.335	71.68
228.553	51.2
228.771	131.07
228.989	14.34
229.206	-6.14
229.424	18.43
229.642	30.72
229.86	49.15
230.077	71.68
230.295	49.15
230.513	90.11
230.731	53.25
230.948	112.64
231.166	81.92
231.384	59.39
231.601	43.01
231.819	112.64
232.037	12.29
232.254	24.58
232.472	79.87
232.689	49.15
232.907	149.5
233.125	47.1
233.342	40.96
233.56	-6.14
233.777	12.29
233.995	116.73
234.213	112.64
234.43	71.68
234.648	16.38
234.865	16.38
235.083	24.58
235.3	38.91
235.518	112.64
235.735	65.54
235.953	71.68
236.17	16.38
236.388	47.1
236.605	22.53
236.822	67.58
237.04	69.63
237.257	-18.43
237.475	-14.34
237.692	122.88
237.909	36.86
238.127	71.68
238.344	104.45
238.562	83.97
238.779	47.1
238.996	67.58
239.214	55.3
239.431	77.82
239.648	-2.05
239.865	36.86
240.083	73.73
240.3	81.92
240.517	141.31
240.735	112.64
240.952	86.01
241.169	79.87
241.386	94.21
241.603	-22.53
241.821	6.14
242.038	30.72
242.255	8.19
242.472	6.14
242.689	18.43
242.907	63.49
243.124	53.25
243.341	40.96
243.558	14.34
243.775	61.44
243.992	12.29
244.209	131.07
244.426	200.7
244.643	147.45
244.86	-22.53
245.078	12.29
245.295	32.77
245.512	38.91
245.729	102.4
245.946	104.45
246.163	100.35
246.38	100.35
246.597	32.77
246.814	28.67
247.031	-16.38
247.248	34.82
247.464	102.4
247.681	71.68
247.898	71.68
248.115	77.82
248.332	0
248.549	126.97
248.766	108.54
248.983	94.21
249.2	114.69
249.417	59.39
249.633	-18.43
249.85	98.3
250.067	10.24
250.284	34.82
250.501	67.58
250.717	102.4
250.934	22.53
251.151	49.15
251.368	26.62
251.585	30.72
251.801	24.58
252.018	49.15
252.235	131.07
252.451	-8.19
252.668	83.97
252.885	88.06
253.102	-12.29
253.318	-30.72
253.535	26.62
253.752	61.44
253.968	57.34
254.185	10.24
254.401	88.06
254.618	71.68
254.835	43.01
255.051	141.31
255.268	53.25
255.484	83.97
255.701	61.44
255.917	65.54
256.134	57.34
256.351	32.77
256.567	-6.14
256.784	102.4
257	-28.67
257.217	116.73
257.433	49.15
257.65	81.92
257.866	47.1
258.082	18.43
258.299	-16.38
258.515	45.06
258.732	53.25
258.948	120.83
259.165	77.82
259.381	4.1
259.597	120.83
259.814	16.38
260.03	73.73
260.246	53.25
260.463	79.87
260.679	100.35
260.895	47.1
261.112	45.06
261.328	53.25
261.544	16.38
261.761	129.02
261.977	53.25
262.193	32.77
262.409	40.96
262.626	94.21
262.842	73.73
263.058	-12.29
263.274	145.41
263.49	32.77
263.707	67.58
263.923	8.19
264.139	-53.25
264.355	26.62
264.571	96.25
264.787	61.44
265.004	92.16
265.22	36.86
265.436	100.35
265.652	18.43
265.868	-53.25
266.084	-28.67
266.3	133.12
266.516	106.49
266.732	16.38
266.948	88.06
267.164	40.96
267.38	83.97
267.596	69.63
267.812	147.45
268.028	65.54
268.244	14.34
268.46	43.01
268.676	40.96
268.892	73.73
269.108	40.96
269.324	86.01
269.54	38.91
269.756	92.16
269.972	-2.05
270.188	49.15
270.403	53.25
270.619	86.01
270.835	28.67
271.051	30.72
271.267	59.39
271.483	77.82
271.698	32.77
271.914	55.3
272.13	81.92
272.346	73.73
272.562	-10.24
272.777	96.25
272.993	40.96
273.209	94.21
273.425	51.2
273.64	-47.1
273.856	75.77
274.072	38.91
274.287	-6.14
274.503	43.01
274.719	26.62
274.934	83.97
275.15	-8.19
275.366	-65.53
275.581	22.53
275.797	104.45
276.012	110.59
276.228	53.25
276.444	51.2
276.659	131.07
276.875	69.63
277.09	86.01
277.306	51.2
277.521	-22.53
277.737	47.1
277.952	92.16
278.168	65.54
278.383	133.12
278.599	0
278.814	73.73
279.03	79.87
279.245	38.91
279.461	61.44
279.676	100.35
279.892	28.67
280.107	51.2
280.322	8.19
280.538	34.82
280.753	4.1
280.969	108.54
281.184	-4.1
281.399	110.59
281.615	55.3
281.83	71.68
282.045	49.15
282.26	75.77
282.476	2.05
282.691	6.14
282.906	79.87
283.122	47.1
283.337	-18.43
283.552	51.2
283.767	55.3
283.983	110.59
284.198	14.34
284.413	124.93
284.628	20.48
284.843	104.45
285.058	104.45
285.274	-6.14
285.489	81.92
285.704	71.68
285.919	71.68
286.134	36.86
286.349	83.97
286.564	-12.29
286.779	83.97
286.995	59.39
287.21	4.1
287.425	108.54
287.64	100.35
287.855	32.77
288.07	30.72
288.285	47.1
288.5	30.72
288.715	53.25
288.93	59.39
289.145	-30.72
289.36	92.16
289.575	-20.48
289.79	75.77
290.004	67.58
290.219	47.1
290.434	45.06
290.649	75.77
290.864	2.05
291.079	4.1
291.294	53.25
291.509	77.82
291.724	-2.05
291.938	32.77
292.153	69.63
292.368	69.63
292.583	51.2
292.798	49.15
293.012	55.3
293.227	32.77
293.442	61.44
293.657	69.63
293.871	32.77
294.086	88.06
294.301	163.84
294.516	110.59
294.73	-10.24
294.945	40.96
295.16	26.62
295.374	176.13
295.589	24.58
295.804	53.25
296.018	6.14
296.233	16.38
296.447	86.01
296.662	12.29
296.877	79.87
297.091	53.25
297.306	32.77
297.52	94.21
297.735	73.73
297.949	24.58
298.164	88.06
298.378	24.58
298.593	4.1
298.807	-16.38
299.022	55.3
299.236	83.97
299.451	53.25
299.665	49.15
299.88	8.19
300.094	53.25
300.309	45.06
300.523	71.68
300.737	12.29
300.952	75.77
301.166	126.97
301.381	20.48
301.595	32.77
301.809	43.01
302.024	24.58
302.238	38.91
302.452	88.06
302.667	81.92
302.881	118.78
303.095	14.34
303.309	40.96
303.524	67.58
303.738	22.53
303.952	10.24
304.166	61.44
304.381	-55.3
304.595	114.69
304.809	32.77
305.023	110.59
305.237	-18.43
305.452	77.82
305.666	81.92
305.88	98.3
306.094	20.48
306.308	71.68
306.522	96.25
306.736	147.45
306.95	129.02
307.164	45.06
307.379	18.43
307.593	20.48
307.807	137.21
308.021	90.11
308.235	81.92
308.449	22.53
308.663	61.44
308.877	149.5
309.091	71.68
309.305	100.35
309.519	-34.82
309.733	32.77
309.947	32.77
310.161	81.92
310.374	88.06
310.588	73.73
310.802	43.01
311.016	96.25
311.23	73.73
311.444	110.59
311.658	22.53
311.872	53.25
312.085	96.25
312.299	-18.43
312.513	55.3
312.727	40.96
312.941	-12.29
313.154	98.3
313.368	22.53
313.582	20.48
313.796	104.45
314.009	73.73
314.223	12.29
314.437	47.1
314.651	18.43
314.864	4.1
315.078	18.43
315.292	88.06
315.505	83.97
315.719	63.49
315.933	26.62
316.146	36.86
316.36	34.82
316.573	143.36
316.787	59.39
317.001	102.4
317.214	2.05
317.428	30.72
317.641	-32.77
317.855	69.63
318.068	112.64
318.282	110.59
318.495	63.49
318.709	77.82
318.922	6.14
319.136	118.78
319.349	139.26
319.563	2.05
319.776	61.44
319.99	-14.34
320.203	67.58
320.417	-4.1
320.63	90.11
320.843	83.97
321.057	45.06
321.27	32.77
321.483	20.48
321.697	165.89
321.91	104.45
322.124	57.34
322.337	36.86
322.55	100.35
322.763	28.67
322.977	47.1
323.19	90.11
323.403	96.25
323.617	51.2
323.83	28.67
324.043	-2.05
324.256	126.97
324.469	6.14
324.683	63.49
324.896	63.49
325.109	-10.24
325.322	36.86
325.535	61.44
325.748	102.4
325.962	59.39
326.175	36.86
326.388	92.16
326.601	40.96
326.814	102.4
327.027	28.67
327.24	151.55
327.453	20.48
327.666	51.2
327.879	-10.24
328.092	90.11
328.305	53.25
328.518	83.97
328.731	122.88
328.944	69.63
329.157	120.83
329.37	-32.77
329.583	143.36
329.796	90.11
330.009	-65.53
330.222	71.68
330.435	90.11
330.648	-14.34
330.861	73.73
331.073	36.86
331.286	153.6
331.499	77.82
331.712	8.19
331.925	43.01
332.138	65.54
332.35	112.64
332.563	14.34
332.776	36.86
332.989	110.59
333.202	96.25
333.414	67.58
333.627	40.96
333.84	69.63
334.053	83.97
334.265	10.24
334.478	69.63
334.691	51.2
334.903	124.93
335.116	12.29
335.329	26.62
335.541	104.45
335.754	79.87
335.966	47.1
336.179	22.53
336.392	43.01
336.604	67.58
336.817	43.01
337.029	24.58
337.242	32.77
337.454	34.82
337.667	38.91
337.88	34.82
338.092	71.68
338.305	71.68
338.517	-8.19
338.729	61.44
338.942	114.69
339.154	-6.14
339.367	16.38
339.579	61.44
339.792	14.34
340.004	69.63
340.217	6.14
340.429	75.77
340.641	49.15
340.854	59.39
341.066	92.16
341.278	92.16
341.491	151.55
341.703	40.96
341.915	34.82
342.128	67.58
342.34	14.34
342.552	-26.62
342.764	40.96
342.977	49.15
343.189	98.3
343.401	36.86
343.613	40.96
343.826	43.01
344.038	32.77
344.25	65.54
344.462	59.39
344.674	-4.1
344.886	94.21
345.099	38.91
345.311	73.73
345.523	88.06
345.735	22.53
345.947	43.01
346.159	8.19
346.371	59.39
346.583	22.53
346.795	159.74
347.007	8.19
347.219	47.1
347.431	61.44
347.643	-4.1
347.855	2.05
348.067	139.26
348.279	92.16
348.491	71.68
348.703	114.69
348.915	83.97
349.127	-12.29
349.339	112.64
349.551	36.86
349.763	53.25
349.975	4.1
350.187	112.64
350.399	120.83
350.61	67.58
350.822	47.1
351.034	61.44
351.246	71.68
351.458	16.38
351.669	133.12
351.881	151.55
352.093	73.73
352.305	-18.43
352.517	104.45
352.728	40.96
352.94	43.01
353.152	65.54
353.363	10.24
353.575	61.44
353.787	96.25
353.999	14.34
354.21	106.49
354.422	55.3
354.633	-24.58
354.845	55.3
355.057	43.01
355.268	116.73
355.48	69.63
355.692	32.77
355.903	88.06
356.115	34.82
356.326	88.06
356.538	53.25
356.749	18.43
356.961	98.3
357.172	141.31
357.384	-40.96
357.595	143.36
357.807	59.39
358.018	47.1
358.23	61.44
358.441	67.58
358.653	73.73
358.864	61.44
359.075	10.24
359.287	102.4
359.498	112.64
359.709	69.63
359.921	-51.2
360.132	8.19
360.344	102.4
360.555	0
360.766	77.82
360.977	14.34
361.189	112.64
361.4	51.2
361.611	133.12
361.823	106.49
362.034	57.34
362.245	34.82
362.456	45.06
362.667	18.43
362.879	96.25
363.09	34.82
363.301	96.25
363.512	153.6
363.723	108.54
363.935	83.97
364.146	108.54
364.357	90.11
364.568	73.73
364.779	0
364.99	79.87
365.201	36.86
365.412	118.78
365.623	43.01
365.834	4.1
366.045	83.97
366.256	24.58
366.467	28.67
366.678	12.29
366.889	20.48
367.1	133.12
367.311	67.58
367.522	53.25
367.733	67.58
367.944	6.14
368.155	-26.62
368.366	124.93
368.577	120.83
368.788	118.78
368.999	2.05
369.209	98.3
369.42	45.06
369.631	77.82
369.842	96.25
370.053	30.72
370.264	190.46
370.474	24.58
370.685	26.62
370.896	45.06
371.107	55.3
371.317	57.34
371.528	36.86
371.739	69.63
371.95	12.29
372.16	18.43
372.371	-51.2
372.582	22.53
372.792	2.05
373.003	94.21
373.214	81.92
373.424	149.5
373.635	77.82
373.846	77.82
374.056	18.43
374.267	16.38
374.477	73.73
374.688	24.58
374.898	34.82
375.109	114.69
375.319	86.01
375.53	75.77
375.74	98.3
375.951	114.69
376.161	49.15
376.372	92.16
376.582	16.38
376.793	81.92
377.003	-6.14
377.214	129.02
377.424	114.69
377.635	26.62
377.845	4.1
378.055	112.64
378.266	38.91
378.476	114.69
378.686	83.97
378.897	75.77
379.107	98.3
379.317	139.26
379.528	106.49
379.738	51.2
379.948	-6.14
380.158	124.93
380.369	77.82
380.579	73.73
380.789	40.96
380.999	49.15
381.21	69.63
381.42	108.54
381.63	18.43
381.84	77.82
382.05	110.59
382.261	108.54
382.471	112.64
382.681	114.69
382.891	98.3
383.101	34.82
383.311	83.97
383.521	18.43
383.731	118.78
383.941	147.45
384.151	8.19
384.361	81.92
384.571	75.77
384.781	65.54
384.991	143.36
385.201	126.97
385.411	79.87
385.621	61.44
385.831	71.68
386.041	47.1
386.251	75.77
386.461	141.31
386.671	61.44
386.881	122.88
387.091	61.44
387.301	120.83
387.511	4.1
387.72	79.87
387.93	96.25
388.14	6.14
388.35	102.4
388.56	124.93
388.769	49.15
388.979	98.3
389.189	65.54
389.399	4.1
389.609	79.87
389.818	94.21
390.028	59.39
390.238	71.68
390.447	100.35
390.657	145.41
390.867	79.87
391.076	98.3
391.286	120.83
391.496	110.59
391.705	94.21
391.915	112.64
392.125	104.45
392.334	28.67
392.544	114.69
392.753	137.21
392.963	-16.38
393.172	49.15
393.382	32.77
393.591	106.49
393.801	6.14
394.01	141.31
394.22	110.59
394.429	63.49
394.639	59.39
394.848	98.3
395.058	6.14
395.267	28.67
395.477	124.93
395.686	63.49
395.895	231.42
396.105	210.94
396.314	75.77
396.524	40.96
396.733	49.15
396.942	165.89
397.152	131.07
397.361	102.4
397.57	114.69
397.78	137.21
397.989	86.01
398.198	77.82
398.407	81.92
398.617	53.25
398.826	63.49
399.035	114.69
399.244	163.84
399.453	149.5
399.663	61.44
399.872	40.96
400.081	73.73
400.29	86.01
400.499	96.25
400.708	92.16
400.917	153.6
401.127	100.35
401.336	69.63
401.545	174.08
401.754	149.5
401.963	120.83
402.172	43.01
402.381	69.63
402.59	86.01
402.799	90.11
403.008	161.79
403.217	81.92
403.426	137.21
403.635	61.44
403.844	196.61
404.053	139.26
404.262	167.93
404.471	172.03
404.68	243.71
404.888	118.78
405.097	155.65
405.306	131.07
405.515	217.08
405.724	178.17
405.933	178.17
406.142	161.79
406.35	210.94
406.559	169.98
406.768	137.21
406.977	245.76
407.185	190.46
407.394	153.6
407.603	126.97
407.812	221.18
408.02	235.52
408.229	176.13
408.438	198.65
408.646	202.75
408.855	311.29
409.064	229.37
409.272	200.7
409.481	260.09
409.69	178.17
409.898	249.85
410.107	280.57
410.315	272.38
410.524	237.56
410.733	280.57
410.941	282.62
411.15	305.15
411.358	194.56
411.567	374.78
411.775	362.49
411.984	364.54
412.192	268.28
412.401	299
412.609	434.17
412.818	366.59
413.026	409.59
413.234	436.22
413.443	401.4
413.651	409.59
413.86	438.27
414.068	438.27
414.276	544.76
414.485	466.94
414.693	501.75
414.901	565.24
415.11	563.19
415.318	563.19
415.526	559.1
415.734	665.59
415.943	636.92
416.151	659.45
416.359	665.59
416.567	665.59
416.776	681.97
416.984	739.32
417.192	684.02
417.4	788.47
417.608	692.21
417.817	808.95
418.025	765.94
418.233	948.21
418.441	874.48
418.649	827.38
418.857	974.83
419.065	1069.04
419.273	972.79
419.481	1019.89
419.689	1114.09
419.897	1146.86
420.105	1101.81
420.313	1275.88
420.521	1183.73
420.729	1267.69
420.937	1329.13
421.145	1236.97
421.353	1366
421.561	1497.07
421.769	1447.91
421.977	1490.92
422.185	1472.49
422.393	1535.98
422.601	1785.83
422.809	1759.21
423.017	1763.3
423.224	1736.68
423.432	1894.37
423.64	1826.79
423.848	1898.47
424.056	1923.04
424.263	2109.41
424.471	2211.81
424.679	2203.61
424.887	2328.54
425.094	2316.25
425.302	2258.91
425.51	2392.03
425.718	2488.28
425.925	2625.5
426.133	2611.16
426.341	2764.76
426.548	3049.43
426.756	2918.36
426.964	2863.06
427.171	3196.88
427.379	3117.01
427.586	3237.84
427.794	3358.67
428.001	3624.9
428.209	3729.35
428.417	3602.38
428.624	3817.41
428.832	3833.8
429.039	3811.27
429.247	3854.28
429.454	4034.5
429.662	4523.96
429.869	4169.66
430.076	4587.45
430.284	4224.96
430.491	4503.48
430.699	4804.53
430.906	4849.59
431.114	4956.08
431.321	5083.06
431.528	5015.48
431.736	5447.6
431.943	5803.94
432.15	5523.37
432.358	5593
432.565	6037.41
432.772	5947.3
432.979	6143.91
433.187	6270.88
433.394	6346.66
433.601	6752.15
433.808	6608.8
434.016	6684.57
434.223	6852.5
434.43	7516.05
434.637	7292.82
434.844	7747.47
435.052	7741.32
435.259	7925.64
435.466	7966.6
435.673	7937.93
435.88	8228.74
436.087	8703.87
436.294	8822.65
436.501	8562.56
436.708	8839.03
436.915	9279.35
437.122	9660.27
437.329	9500.53
437.537	9742.19
437.743	9879.4
437.95	9705.32
438.157	10446.69
438.364	10719.07
438.571	10626.91
438.778	10778.46
438.985	11671.37
439.192	11388.75
439.399	11704.14
439.606	11444.05
439.813	12021.58
440.02	12635.97
440.227	12549.95
440.433	12406.59
440.64	12990.27
440.847	12818.24
441.054	13176.63
441.261	13950.76
441.467	13733.68
441.674	14194.47
441.881	14440.23
442.088	14520.1
442.294	14317.35
442.501	14511.91
442.708	15087.39
442.914	15666.96
443.121	16105.23
443.328	15884.05
443.534	17084.16
443.741	16621.31
443.948	16187.15
444.154	17557.24
444.361	17463.03
444.568	17377.01
444.774	17606.39
444.981	17831.66
445.187	18157.29
445.394	19099.36
445.6	18917.09
445.807	20770.5
446.013	19969.74
446.22	19973.84
446.426	20989.63
446.633	21149.37
446.839	21929.65
447.046	20805.31
447.252	22109.87
447.459	22017.71
447.665	22132.4
447.871	23058.08
448.078	24143.5
448.284	22703.78
448.491	23692.95
448.697	24729.22
448.903	24747.65
449.11	24825.48
449.316	24764.04
449.522	24991.36
449.728	25716.34
449.935	26062.45
450.141	25837.17
450.347	26654.31
450.553	25769.59
450.76	25976.44
450.966	26840.68
451.172	26486.38
451.378	27270.75
451.584	26930.79
451.791	27221.6
451.997	27434.59
452.203	27661.91
452.409	27905.62
452.615	27397.73
452.821	26531.44
453.027	26330.73
453.233	28030.55
453.44	26791.53
453.646	27186.79
453.852	26918.5
454.058	27393.63
454.264	26527.34
454.47	27098.72
454.676	26574.44
454.882	27709.02
455.088	25132.67
455.294	25677.43
455.5	25671.29
455.705	26101.36
455.911	25138.82
456.117	24311.44
456.323	24432.27
456.529	22970.02
456.735	24219.28
456.941	23287.45
457.147	22800.04
457.352	22441.64
457.558	22173.36
457.764	22027.95
457.97	21716.66
458.176	21069.5
458.381	21223.1
458.587	19998.41
458.793	20104.91
458.999	19234.52
459.204	20434.63
459.41	19775.19
459.616	18253.55
459.821	18585.32
460.027	18476.77
460.233	18331.37
460.438	17489.65
460.644	17270.52
460.85	16854.78
461.055	16393.99
461.261	16359.17
461.466	15093.53
461.672	14708.51
461.878	15722.26
462.083	14649.12
462.289	14444.32
462.494	14368.55
462.7	13578.03
462.905	13047.61
463.111	13887.28
463.316	13852.46
463.522	13281.08
463.727	13367.09
463.932	13666.1
464.138	13319.99
464.343	13416.24
464.549	12961.59
464.754	13313.84
464.959	13602.61
465.165	13338.42
465.37	12746.56
465.575	12398.4
465.781	12654.4
465.986	12828.48
466.191	12394.31
466.397	12222.28
466.602	11669.33
466.807	12054.34
467.012	12109.64
467.218	11949.9
467.423	11888.46
467.628	12031.82
467.833	12296
468.038	11812.68
468.244	11501.39
468.449	12074.82
468.654	11712.33
468.859	11493.2
469.064	11591.5
469.269	11030.36
469.474	11143
469.679	11169.62
469.885	11005.78
470.09	11366.23
470.295	11095.89
470.5	10868.57
470.705	11030.36
470.91	10815.32
471.115	10778.46
471.32	11018.07
471.525	10620.77
471.73	10532.7
471.935	10282.85
472.139	9838.44
472.344	10268.52
472.549	10065.77
472.754	9946.98
472.959	9750.38
473.164	9779.05
473.369	9516.91
473.574	9627.5
473.778	9746.28
473.983	9848.68
474.188	9514.86
474.393	9058.17
474.598	9115.51
474.802	9084.79
475.007	8984.44
475.212	9054.07
475.417	8646.52
475.621	8693.63
475.826	8841.08
476.031	8359.81
476.235	8034.18
476.44	8437.63
476.645	8247.17
476.849	8415.1
477.054	8109.96
477.259	8155.01
477.463	8329.09
477.668	7976.84
477.872	8015.75
478.077	7989.13
478.282	7667.6
478.486	7882.63
478.691	7610.25
478.895	7724.94
479.1	7464.85
479.304	7647.12
479.509	7264.15
479.713	7413.65
479.918	7477.13
480.122	7184.27
480.326	7333.78
480.531	7219.09
480.735	7325.58
480.94	7112.6
481.144	7356.3
481.348	6999.96
481.553	7374.74
481.757	6940.57
481.961	7073.68
482.166	7083.92
482.37	7096.21
482.574	6985.62
482.778	7040.92
482.983	7149.46
483.187	6961.05
483.391	7096.21
483.595	7006.1
483.8	6893.46
484.004	7061.4
484.208	7042.96
484.412	6967.19
484.616	7004.05
484.821	7010.2
485.025	6737.82
485.229	7079.83
485.433	6846.36
485.637	6981.53
485.841	6932.37
486.045	7020.44
486.249	7026.58
486.453	7159.7
486.657	7075.73
486.861	7122.84
487.065	6776.73
487.269	7004.05
487.473	6780.82
487.677	7053.2
487.881	7180.18
488.085	7096.21
488.289	7065.49
488.493	6909.85
488.697	7229.33
488.901	7032.72
489.105	6887.32
489.309	7077.78
489.512	7167.89
489.716	7128.98
489.92	7100.31
490.124	7118.74
490.328	7323.54
490.531	7174.03
490.735	7321.49
490.939	7317.39
491.143	7204.75
491.346	7258
491.55	7313.3
491.754	7229.33
491.958	7475.09
492.161	7534.48
492.365	7487.37
492.569	7481.23
492.772	7536.53
492.976	7581.58
493.18	7565.2
493.383	7530.38
493.587	7702.41
493.79	7726.99
493.994	7624.59
494.197	7647.12
494.401	7743.37
494.605	7948.17
494.808	7876.49
495.012	7985.03
495.215	8089.48
495.419	8054.66
495.622	8042.37
495.825	8124.29
496.029	8300.42
496.232	8439.68
496.436	8243.07
496.639	8613.76
496.843	8406.91
497.046	8654.72
497.249	8898.42
497.453	8736.63
497.656	8779.64
497.859	8822.65
498.063	8963.96
498.266	9316.21
498.469	9172.85
498.673	9338.74
498.876	9330.55
499.079	9660.27
499.282	9584.49
499.485	9791.34
499.689	9838.44
499.892	9887.59
500.095	9992.04
500.298	10004.33
500.501	10131.3
500.705	10241.89
500.908	10436.45
501.111	10510.18
501.314	10907.48
501.517	10680.16
501.72	10782.56
501.923	10776.41
502.126	11177.81
502.329	11390.8
502.532	11444.05
502.735	11370.32
502.938	11847.5
503.141	11863.88
503.344	11882.31
503.547	11939.66
503.75	12076.87
503.953	12304.2
504.156	12281.67
504.359	12574.53
504.562	12687.17
504.765	12875.58
504.968	13057.85
505.17	13150.01
505.373	13248.31
505.576	13463.35
505.779	13549.36
505.982	13590.32
506.185	14094.12
506.387	13854.51
506.59	14225.19
506.793	14847.77
506.996	14421.8
507.198	14772
507.401	15048.47
507.604	14993.18
507.807	15128.35
508.009	15478.55
508.212	15382.29
508.415	15599.38
508.617	15959.82
508.82	15927.05
509.022	16019.21
509.225	16623.36
509.428	16346.89
509.63	16656.13
509.833	16803.58
510.035	17323.77
510.238	17276.66
510.44	17157.88
510.643	17428.21
510.845	17815.28
511.048	17735.41
511.25	17993.45
511.453	18030.32
511.655	18743.01
511.858	18720.48
512.06	18722.53
512.262	18884.32
512.465	19103.45
512.667	19435.22
512.87	19754.71
513.072	19871.44
513.274	20117.2
513.477	20283.08
513.679	20455.11
513.881	20539.08
514.084	21020.35
514.286	20987.58
514.488	20913.86
514.69	21821.11
514.893	21909.17
515.095	22034.1
515.297	22283.95
515.499	22275.76
515.701	22640.29
515.904	22849.19
516.106	22916.77
516.308	23281.31
516.51	23447.19
516.712	23758.49
516.914	23826.07
517.116	24342.16
517.318	24553.1
517.52	24221.33
517.722	24790.66
517.925	25161.34
518.127	25503.35
518.329	25595.51
518.531	25671.29
518.733	26275.44
518.935	26228.34
519.136	26541.67
519.338	27111.01
519.54	27029.09
519.742	27086.43
519.944	27336.29
520.146	27965.01
520.348	27827.8
520.55	27893.33
520.752	28218.96
520.954	29204.03
521.155	28806.73
521.357	29290.05
521.559	29537.85
521.761	29908.54
521.963	29957.69
522.164	30068.28
522.366	30381.62
522.568	30545.45
522.77	30678.57
522.971	31356.45
523.173	30840.36
523.375	31526.43
523.576	31471.14
523.778	31569.44
523.98	32142.87
524.181	32355.86
524.383	32376.34
524.584	32992.78
524.786	33019.4
524.988	33005.06
525.189	32908.81
525.391	33713.66
525.592	33601.02
525.794	34164.21
525.995	34076.15
526.197	33629.69
526.398	34256.37
526.6	34504.18
526.801	34635.25
527.003	34809.32
527.204	35120.62
527.406	35161.58
527.607	35151.34
527.808	35393
528.01	35247.59
528.211	35280.36
528.412	36132.31
528.614	36134.36
528.815	35849.69
529.016	36402.64
529.218	35988.95
529.419	36357.59
529.62	36601.3
529.822	36335.06
530.023	36333.01
530.224	36492.76
530.425	36470.23
530.626	36320.73
530.828	36589.01
531.029	37576.13
531.23	36982.22
531.431	36935.12
531.632	36687.31
531.833	37332.42
532.035	37139.91
532.236	37461.44
532.437	37486.02
532.638	37236.17
532.839	37455.3
533.04	37631.43
533.241	37346.76
533.442	38225.34
533.643	37918.14
533.844	37486.02
534.045	37944.76
534.246	37498.31
534.447	38090.17
534.648	37852.61
534.849	38215.1
535.05	37676.48
535.251	37998.01
535.451	37731.78
535.652	38106.55
535.853	37754.3
536.054	38000.06
536.255	38110.65
536.456	37995.96
536.657	38495.67
536.857	37793.22
537.058	37885.37
537.259	38325.69
537.46	38534.58
537.66	38380.98
537.861	38114.75
538.062	38118.84
538.263	38333.88
538.463	38165.95
538.664	38165.95
538.865	38354.36
539.065	38505.91
539.266	37735.87
539.466	38411.7
539.667	37555.65
539.868	38624.69
540.068	38008.25
540.269	38366.65
540.469	38426.04
540.67	38032.83
540.87	38026.68
541.071	37924.29
541.271	38344.12
541.472	38190.52
541.672	37928.38
541.873	38456.76
542.073	37768.64
542.274	38518.2
542.474	38329.78
542.675	37625.28
542.875	38286.78
543.075	38227.38
543.276	37594.56
543.476	38387.13
543.676	37746.11
543.877	38139.32
544.077	38090.17
544.277	37977.53
544.478	37928.38
544.678	38018.49
544.878	38012.35
545.078	38172.09
545.279	37551.55
545.479	38012.35
545.679	37873.09
545.879	37819.84
546.079	38000.06
546.28	38047.16
546.48	37545.41
546.68	38038.97
546.88	37901.76
547.08	38172.09
547.28	37748.16
547.48	37664.19
547.68	37762.5
547.88	37987.77
548.081	38233.53
548.281	37942.72
548.481	37137.87
548.681	37838.27
548.881	37586.37
549.081	37899.71
549.28	37512.64
549.48	37754.3
549.68	37645.76
549.88	37998.01
550.08	37330.37
550.28	37752.26
550.48	37782.98
550.68	37834.17
550.88	37766.59
551.08	37760.45
551.279	37760.45
551.479	37965.24
551.679	37563.84
551.879	37508.55
552.079	37903.81
552.278	37760.45
552.478	37930.43
552.678	37377.48
552.878	38118.84
553.077	37811.65
553.277	37359.05
553.477	37920.19
553.676	37639.62
553.876	37516.74
554.076	37459.4
554.275	37447.11
554.475	37158.34
554.674	37397.96
554.874	37397.96
555.074	37178.82
555.273	37459.4
555.473	37453.25
555.672	37260.74
555.872	37053.9
556.071	37291.46
556.271	37264.84
556.47	37090.76
556.67	36632.02
556.869	36953.55
557.068	37078.47
557.268	36804.05
557.467	36992.46
557.667	36656.59
557.866	36789.71
558.065	36572.63
558.265	36701.65
558.464	36679.12
558.663	36599.25
558.863	35827.17
559.062	36517.33
559.261	36029.91
559.461	36570.58
559.66	35767.77
559.859	36376.02
560.058	35739.1
560.258	35909.08
560.457	35968.48
560.656	36238.81
560.855	35775.97
561.054	36034.01
561.253	35464.67
561.453	35554.79
561.652	35667.42
561.851	35732.96
562.05	35395.04
562.249	35251.69
562.448	35587.55
562.647	35327.46
562.846	34823.66
563.045	35225.06
563.244	34805.23
563.443	34915.82
563.642	34516.47
563.841	35315.17
564.04	34586.1
564.239	34684.4
564.438	34311.67
564.637	34635.25
564.836	34479.6
565.035	34358.77
565.234	34280.95
565.432	34072.06
565.631	34252.28
565.83	33983.99
566.029	33779.2
566.228	33768.96
566.427	33844.73
566.625	33707.52
566.824	32978.44
567.023	33383.94
567.222	33089.03
567.42	33590.78
567.619	33246.72
567.818	33072.65
568.016	33250.82
568.215	33248.77
568.414	33105.41
568.612	33013.26
568.811	32714.25
569.01	32630.29
569.208	32476.69
569.407	32286.23
569.605	31786.52
569.804	32468.5
570.002	31772.19
570.201	32364.05
570.4	31876.63
570.598	31620.64
570.797	31780.38
570.995	31413.79
571.193	31319.59
571.392	31497.76
571.59	31139.36
571.789	31163.94
571.987	31053.35
572.186	30901.8
572.384	30989.86
572.582	31088.17
572.781	30950.95
572.979	30565.93
573.177	30197.3
573.376	30643.76
573.574	30488.11
573.772	30271.03
573.971	30144.05
574.169	30180.92
574.367	29697.59
574.565	30127.67
574.763	29701.69
574.962	29505.09
575.16	29648.44
575.358	29527.61
575.556	29107.78
575.754	29496.89
575.952	29328.96
576.151	29201.99
576.349	28864.07
576.547	29027.91
576.745	28995.14
576.943	28997.19
577.141	28550.73
577.339	28829.26
577.537	28460.62
577.735	28825.16
577.933	28372.56
578.131	28354.13
578.329	28405.33
578.527	28173.91
578.725	28067.41
578.923	28057.17
579.121	27735.64
579.319	27774.55
579.516	27782.74
579.714	27938.39
579.912	27559.52
580.11	27375.2
580.308	27666.01
580.506	27188.83
580.704	27397.73
580.901	27025
581.099	27317.86
581.297	27149.92
581.495	26762.86
581.692	27297.38
581.89	26850.92
582.088	27055.72
582.285	26644.07
582.483	26707.56
582.681	26644.07
582.878	26584.68
583.076	26154.61
583.274	26474.09
583.471	26029.68
583.669	26127.99
583.866	26039.92
584.064	25886.33
584.262	25697.91
584.459	25808.5
584.657	25747.06
584.854	25568.89
585.052	25362.04
585.249	25443.96
585.447	25683.58
585.644	25398.91
585.841	25192.06
586.039	25167.49
586.236	25040.51
586.434	25233.02
586.631	24858.24
586.828	24843.91
587.026	24901.25
587.223	24753.8
587.42	24782.47
587.618	24721.03
587.815	24426.12
588.012	24549
588.21	24282.77
588.407	24598.15
588.604	24456.84
588.801	24022.67
588.999	24049.3
589.196	23994
589.393	23950.99
589.59	24032.91
589.787	23817.88
589.984	23703.19
590.182	23719.57
590.379	23860.88
590.576	23367.32
590.773	23340.7
590.97	23391.9
591.167	23455.39
591.364	23033.5
591.561	23045.79
591.758	22965.92
591.955	22945.44
592.152	23348.89
592.349	22972.07
592.546	22677.16
592.743	22990.5
592.94	22408.87
593.137	22662.82
593.334	22824.61
593.531	22429.35
593.727	22353.58
593.924	22574.76
594.121	21962.42
594.318	22136.49
594.515	22030
594.712	22480.55
594.908	21882.55
595.105	22023.86
595.302	21931.7
595.499	21819.06
595.696	21636.79
595.892	21434.04
596.089	21538.49
596.286	21622.45
596.482	21534.39
596.679	21608.12
596.876	21589.69
597.072	21278.4
597.269	21362.36
597.466	20819.65
597.662	20979.39
597.859	20842.18
598.055	21186.24
598.252	20903.62
598.448	20948.67
598.645	20795.07
598.841	20664
599.038	20809.41
599.234	20803.27
599.431	20496.07
599.627	20446.92
599.824	20496.07
600.02	20248.27
600.217	20539.08
600.413	20076.24
600.609	20008.65
600.806	20111.05
601.002	20260.55
601.198	19797.71
601.395	19750.61
601.591	19793.62
601.787	19719.89
601.984	19574.49
602.18	19885.78
602.376	19762.9
602.572	19574.49
602.769	19549.91
602.965	19261.15
603.161	19320.54
603.357	19318.49
603.553	19209.95
603.75	19539.67
603.946	19144.41
604.142	18980.57
604.338	18964.19
604.534	19066.59
604.73	18804.45
604.926	18489.06
605.122	18808.54
605.318	18693.86
605.514	18603.75
605.71	18339.56
605.906	18296.55
606.102	18734.82
606.298	18566.88
606.494	18372.33
606.69	18540.26
606.886	18255.59
607.082	18116.33
607.278	18401
607.474	17864.43
607.67	18298.6
607.866	18020.08
608.062	18140.91
608.257	18376.42
608.453	18063.08
608.649	18093.8
608.845	17819.38
609.041	17430.26
609.236	17796.85
609.432	17673.97
609.628	17610.48
609.824	17565.43
610.019	17581.81
610.215	17426.17
610.411	17436.41
610.606	17305.34
610.802	17514.23
610.998	17305.34
611.193	17321.72
611.389	17186.55
611.584	17272.57
611.78	17151.74
611.976	17174.27
612.171	17010.43
612.367	16946.94
612.562	17137.4
612.758	16934.65
612.953	16754.43
613.149	17250.04
613.344	16787.2
613.539	17084.16
613.735	16791.3
613.93	16889.6
614.126	16670.47
614.321	16858.88
614.517	16881.41
614.712	16758.53
614.907	16566.02
615.103	16637.7
615.298	16668.42
615.493	16553.73
615.688	16518.92
615.884	16908.03
616.079	16523.01
616.274	16383.75
616.47	16398.09
616.665	16373.51
616.86	16164.62
617.055	16242.44
617.25	16238.34
617.445	16207.62
617.641	15943.44
617.836	16111.37
618.031	16011.02
618.226	16170.76
618.421	15761.17
618.616	15904.53
618.811	15630.1
619.006	15716.11
619.201	15617.81
619.396	15509.27
619.591	15273.75
619.786	15714.06
619.981	15245.08
620.176	15507.22
620.371	15132.44
620.566	15335.19
620.761	15218.46
620.956	15458.07
621.151	14964.51
621.346	14997.28
621.541	14898.97
621.735	15015.71
621.93	14606.11
622.125	14788.38
622.32	14503.71
622.515	14507.81
622.709	14376.74
622.904	14489.38
623.099	14032.68
623.294	14536.48
623.488	14008.11
623.683	14157.61
623.878	13864.75
624.072	13852.46
624.267	13954.86
624.462	13614.9
624.656	13651.76
624.851	13674.29
625.046	13709.1
625.24	13469.49
625.435	13342.52
625.629	13291.32
625.824	13287.22
626.018	13109.05
626.213	13063.99
626.407	13113.14
626.602	12961.59
626.796	13119.29
626.991	13135.67
627.185	12658.49
627.38	12904.25
627.574	12574.53
627.768	12676.93
627.963	12545.86
628.157	12543.81
628.352	12187.46
628.546	12275.52
628.74	12162.89
628.935	12001.1
629.129	12304.2
629.323	12019.53
629.517	11788.11
629.712	11943.75
629.906	12064.58
630.1	11767.63
630.294	11820.88
630.489	11702.09
630.683	11738.96
630.877	11456.34
631.071	11405.14
631.265	11540.3
631.459	11247.44
631.653	11368.27
631.848	11259.73
632.042	11198.29
632.236	11265.88
632.43	10975.06
632.624	11323.22
632.818	11099.99
633.012	10887
633.206	10723.16
633.4	10876.76
633.594	10682.2
633.788	10768.22
633.982	10661.73
634.176	10544.99
634.369	10461.02
634.563	10399.59
634.757	10469.22
634.951	10346.34
635.145	10278.76
635.339	10389.35
635.533	10194.79
635.726	10217.32
635.92	9967.46
636.114	10278.76
636.308	9903.98
636.501	9924.46
636.695	9817.96
636.889	9932.65
637.083	9820.01
637.276	9789.29
637.47	9627.5
637.664	9594.73
637.857	9637.74
638.051	9430.9
638.244	9500.53
638.438	9437.04
638.632	9377.65
638.825	9371.51
639.019	9166.71
639.212	9041.78
639.406	9193.33
639.599	9000.82
639.793	8963.96
639.986	8953.72
640.18	9078.65
640.373	8814.46
640.567	8845.18
640.76	8804.22
640.954	8669.05
641.147	8673.15
641.34	8687.48
641.534	8574.85
641.727	8720.25
641.92	8566.65
642.114	8515.45
642.307	8386.43
642.5	8464.25
642.694	8425.34
642.887	8251.27
643.08	8396.67
643.273	8112
643.467	8380.29
643.66	7950.21
643.853	8058.76
644.046	7989.13
644.239	8099.72
644.432	7917.45
644.626	7792.52
644.819	7776.14
645.012	7952.26
645.205	7776.14
645.398	7575.44
645.591	7663.5
645.784	7612.3
645.977	7540.62
646.17	7634.83
646.363	7391.12
646.556	7305.1
646.749	7382.93
646.942	7301.01
647.135	7288.72
647.328	7311.25
647.521	7307.15
647.714	7118.74
647.907	7317.39
648.099	6987.67
648.292	7217.04
648.485	7077.78
648.678	7094.16
648.871	6973.33
649.064	6809.5
649.256	6954.9
649.449	7135.12
649.642	6746.01
649.835	6655.9
650.027	6786.97
650.22	6786.97
650.413	6700.95
650.605	6590.36
650.798	6764.44
650.991	6424.48
651.183	6561.69
651.376	6432.67
651.568	6504.35
651.761	6371.23
651.954	6434.72
652.146	6381.47
652.339	6623.13
652.531	6346.66
652.724	6262.69
652.916	6037.41
653.109	6272.93
653.301	6098.85
653.494	6184.87
653.686	6010.79
653.879	6152.1
654.071	6102.95
654.263	5916.58
654.456	6039.46
654.648	6109.09
654.84	5793.7
655.033	5898.15
655.225	5767.08
655.417	5861.29
655.61	5844.9
655.802	5805.99
655.994	5816.23
656.186	5826.47
656.379	5857.19
656.571	5719.98
656.763	5584.81
656.955	5607.34
657.148	5519.28
657.34	5527.47
657.532	5488.56
657.724	5490.6
657.916	5476.27
658.108	5351.34
658.3	5353.39
658.492	5527.47
658.684	5371.82
658.876	5414.83
659.068	5357.49
659.26	5316.53
659.452	5337.01
659.644	5248.94
659.836	5296.05
660.028	5289.9
660.22	5097.39
660.412	5087.15
660.604	5029.81
660.796	5162.93
660.988	5033.91
661.18	5083.06
661.372	5029.81
661.563	5015.48
661.755	4949.94
661.947	4935.6
662.139	5048.24
662.331	4984.76
662.522	4884.41
662.714	4833.21
662.906	4816.82
663.097	4865.97
663.289	4708.28
663.481	4716.47
663.673	4786.1
663.864	4730.81
664.056	4704.18
664.247	4603.83
664.439	4702.14
664.631	4458.43
664.822	4581.31
665.014	4601.79
665.205	4534.2
665.397	4456.38
665.588	4493.24
665.78	4589.5
665.971	4335.55
666.163	4411.32
666.354	4505.53
666.546	4372.41
666.737	4521.91
666.929	4300.73
667.12	4394.94
667.311	4313.02
667.503	4417.47
667.694	4298.69
667.885	4405.18
668.077	4280.25
668.268	4333.5
668.459	4327.36
668.651	4440
668.842	4337.6
669.033	4255.68
669.224	4239.3
669.416	4208.58
669.607	4120.51
669.798	4253.63
669.989	4247.49
670.18	4161.47
670.371	4149.18
670.563	4038.59
670.754	4149.18
670.945	4022.21
671.136	4102.08
671.327	4007.87
671.518	4065.22
671.709	4032.45
671.9	4057.03
672.091	4083.65
672.282	4061.12
672.473	4079.55
672.664	4011.97
672.855	3915.72
673.046	3930.05
673.237	4126.66
673.428	3960.77
673.619	4018.11
673.809	3899.33
674	3934.15
674.191	3825.61
674.382	3891.14
674.573	3932.1
674.764	3923.91
674.954	3866.56
675.145	3966.92
675.336	3731.4
675.527	3762.12
675.717	3796.93
675.908	3712.97
676.099	3858.37
676.289	3721.16
676.48	3876.8
676.671	3624.9
676.861	3768.26
677.052	3807.17
677.243	3760.07
677.433	3801.03
677.624	3758.02
677.814	3821.51
678.005	3794.89
678.195	3823.56
678.386	3932.1
678.576	3751.88
678.767	3739.59
678.957	3809.22
679.148	3809.22
679.338	3841.99
679.529	3776.45
679.719	3710.92
679.909	3772.36
680.1	3772.36
680.29	3858.37
680.481	3774.41
680.671	3788.74
680.861	3768.26
681.052	3745.73
681.242	3583.95
681.432	3841.99
681.622	3665.86
681.813	3825.61
682.003	3758.02
682.193	3841.99
682.383	3829.7
682.573	3696.58
682.764	3788.74
682.954	3737.54
683.144	3780.55
683.334	3708.87
683.524	3684.3
683.714	3622.86
683.904	3749.83
684.094	3766.21
684.284	3588.04
684.474	3852.23
684.664	3721.16
684.854	3745.73
685.044	3629
685.234	3641.29
685.424	3717.06
685.614	3631.05
685.804	3694.54
685.994	3653.58
686.184	3690.44
686.374	3567.56
686.564	3577.8
686.753	3727.3
686.943	3522.51
687.133	3561.42
687.323	3495.88
687.513	3571.66
687.702	3409.87
687.892	3479.5
688.082	3555.27
688.272	3555.27
688.461	3450.83
688.651	3422.16
688.841	3364.81
689.03	3358.67
689.22	3383.24
689.41	3405.77
689.599	3426.25
689.789	3379.15
689.979	3452.88
690.168	3211.22
690.358	3313.61
690.547	3205.07
690.737	3311.57
690.926	3352.52
691.116	3209.17
691.305	3246.03
691.495	3307.47
691.684	3112.91
691.874	3233.74
692.063	3280.85
692.252	3133.39
692.442	3252.17
692.631	3198.93
692.82	3168.21
693.01	3094.48
693.199	3137.49
693.388	3012.56
693.578	3078.1
693.767	3104.72
693.956	3039.19
694.146	3135.44
694.335	2932.69
694.524	3010.51
694.713	2998.23
694.902	2994.13
695.092	2930.64
695.281	2949.07
695.47	2914.26
695.659	2961.36
695.848	2965.46
696.037	2906.07
696.226	2922.45
696.415	2856.92
696.604	2963.41
696.793	3000.27
696.982	2764.76
697.171	2940.88
697.36	2944.98
697.549	2899.92
697.738	2752.47
697.927	2922.45
698.116	2904.02
698.305	2996.18
698.494	2918.36
698.683	2873.3
698.872	2953.17
699.061	2895.83
699.25	2998.23
699.438	2824.15
699.627	2713.56
699.816	2979.79
700.005	2871.25
700.193	2818.01
700.382	2867.16
700.571	2906.07
700.76	2828.24
700.948	2932.69
701.137	2916.31
701.326	2803.67
701.514	2721.75
701.703	2746.33
701.892	2828.24
702.08	2871.25
702.269	2852.82
702.457	2789.33
702.646	2881.49
702.834	2801.62
703.023	2867.16
703.212	2891.73
703.4	2981.84
703.589	2914.26
703.777	2930.64
703.965	2904.02
704.154	2906.07
704.342	2852.82
704.531	2881.49
704.719	2815.96
704.907	2930.64
705.096	2854.87
705.284	2815.96
705.472	2967.51
705.661	2930.64
705.849	2983.89
706.037	2977.75
706.226	2822.1
706.414	2899.92
706.602	2916.31
706.79	2901.97
706.979	2942.93
707.167	3006.42
707.355	2840.53
707.543	2965.46
707.731	2940.88
707.919	2863.06
708.107	2818.01
708.296	2822.1
708.484	2953.17
708.672	2990.03
708.86	2869.2
709.048	2811.86
709.236	2891.73
709.424	2949.07
709.612	2940.88
709.8	2885.59
709.988	2983.89
710.176	3012.56
710.364	2973.65
710.551	3049.43
710.739	3055.57
710.927	2840.53
711.115	2955.22
711.303	2996.18
711.491	2992.08
711.679	2983.89
711.866	2901.97
712.054	3016.66
712.242	2990.03
712.43	2920.4
712.617	2920.4
712.805	2949.07
712.993	2932.69
713.181	2871.25
713.368	2996.18
713.556	3004.37
713.744	2992.08
713.931	3135.44
714.119	3065.81
714.306	3131.34
714.494	2955.22
714.682	3063.76
714.869	2906.07
715.057	3117.01
715.244	2949.07
715.432	3059.67
715.619	2873.3
715.807	3061.71
715.994	3098.58
716.182	2965.46
716.369	3104.72
716.556	3198.93
716.744	3092.43
716.931	3010.51
717.119	3123.15
717.306	3121.1
717.493	3141.58
717.681	3145.68
717.868	3035.09
718.055	3157.97
718.242	3106.77
718.43	3125.2
718.617	3176.4
718.804	3178.45
718.991	3151.82
719.179	3061.71
719.366	3055.57
719.553	3106.77
719.74	3139.54
719.927	3102.67
720.114	3100.62
720.301	3102.67
720.488	3151.82
720.676	3004.37
720.863	3135.44
721.05	3237.84
721.237	3194.83
721.424	3194.83
721.611	3184.59
721.798	3102.67
721.985	3147.73
722.172	3143.63
722.358	3153.87
722.545	3205.07
722.732	3162.06
722.919	3235.79
723.106	3239.89
723.293	3078.1
723.48	3248.08
723.667	3188.69
723.853	3155.92
724.04	3268.56
724.227	3190.74
724.414	3297.23
724.6	3223.5
724.787	3219.41
724.974	3385.29
725.161	3368.91
725.347	3211.22
725.534	3352.52
725.72	3258.32
725.907	3330
726.094	3280.85
726.28	3198.93
726.467	3276.75
726.653	3207.12
726.84	3313.61
727.027	3444.68
727.213	3348.43
727.4	3407.82
727.586	3350.48
727.773	3229.65
727.959	3485.64
728.145	3317.71
728.332	3237.84
728.518	3149.78
728.705	3348.43
728.891	3446.73
729.077	3399.63
729.264	3336.14
729.45	3403.72
729.636	3424.2
729.823	3354.57
730.009	3399.63
730.195	3387.34
730.382	3434.44
730.568	3366.86
730.754	3262.41
730.94	3418.06
731.126	3401.68
731.313	3477.45
731.499	3422.16
731.685	3350.48
731.871	3405.77
732.057	3336.14
732.243	3327.95
732.429	3282.89
732.615	3504.07
732.801	3526.6
732.987	3436.49
733.173	3438.54
733.359	3389.39
733.545	3401.68
733.731	3424.2
733.917	3387.34
734.103	3356.62
734.289	3286.99
734.475	3409.87
734.661	3352.52
734.847	3434.44
735.033	3497.93
735.219	3403.72
735.404	3387.34
735.59	3284.94
735.776	3508.17
735.962	3440.59
736.148	3446.73
736.333	3432.4
736.519	3430.35
736.705	3336.14
736.89	3575.75
737.076	3430.35
737.262	3387.34
737.447	3463.12
737.633	3399.63
737.819	3499.98
738.004	3409.87
738.19	3448.78
738.375	3475.4
738.561	3534.79
738.747	3325.9
738.932	3368.91
739.118	3594.19
739.303	3356.62
739.489	3256.27
739.674	3336.14
739.859	3272.65
740.045	3344.33
740.23	3280.85
740.416	3393.48
740.601	3409.87
740.786	3375.05
740.972	3176.4
741.157	3387.34
741.342	3229.65
741.528	3260.37
741.713	3409.87
741.898	3286.99
742.084	3289.04
742.269	3280.85
742.454	3370.96
742.639	3178.45
742.824	3219.41
743.01	3266.51
743.195	3418.06
743.38	3147.73
743.565	3205.07
743.75	3223.5
743.935	3203.02
744.12	3207.12
744.305	3198.93
744.49	3129.3
744.675	3135.44
744.86	3123.15
745.045	3147.73
745.23	3192.78
745.415	3045.33
745.6	3125.2
745.785	3084.24
745.97	3041.23
746.155	2996.18
746.34	3059.67
746.525	2996.18
746.71	3069.91
746.895	3002.32
747.079	3012.56
747.264	3059.67
747.449	2987.99
747.634	2963.41
747.819	2883.54
748.003	2916.31
748.188	2873.3
748.373	2785.24
748.557	2838.48
748.742	2854.87
748.927	2799.57
749.111	2893.78
749.296	2736.09
749.481	2805.72
749.665	2674.65
749.85	2760.66
750.034	2691.03
750.219	2770.9
750.404	2629.59
750.588	2592.73
750.773	2635.74
750.957	2578.39
751.141	2578.39
751.326	2529.24
751.51	2535.39
751.695	2648.02
751.879	2588.63
752.064	2682.84
752.248	2535.39
752.432	2584.54
752.617	2549.72
752.801	2480.09
752.985	2398.17
753.17	2486.23
753.354	2484.19
753.538	2508.76
753.722	2516.95
753.907	2363.36
754.091	2318.3
754.275	2455.51
754.459	2394.08
754.643	2328.54
754.828	2265.05
755.012	2338.78
755.196	2297.82
755.38	2408.41
755.564	2303.96
755.748	2258.91
755.932	2211.81
756.116	2121.7
756.3	2050.02
756.484	2156.51
756.668	2187.23
756.852	1990.63
757.036	2138.08
757.22	2062.3
757.404	2045.92
757.588	2125.79
757.772	1982.43
757.956	2088.93
758.14	2050.02
758.323	2076.64
758.507	2154.46
758.691	1945.57
758.875	2060.26
759.059	2064.35
759.242	2056.16
759.426	1982.43
759.61	1941.47
759.794	1935.33
759.977	1867.75
760.161	2105.31
760.345	1875.94
760.528	1939.43
760.712	1955.81
760.895	1943.52
761.079	1861.6
761.263	1800.16
761.446	1779.68
761.63	1839.08
761.813	1791.97
761.997	1826.79
762.18	1787.88
762.364	1763.3
762.547	1789.92
762.731	1867.75
762.914	1744.87
763.098	1779.68
763.281	1728.49
763.464	1769.45
763.648	1757.16
763.831	1783.78
764.015	1634.28
764.198	1656.81
764.381	1658.85
764.564	1796.07
764.748	1755.11
764.931	1736.68
765.114	1720.29
765.297	1695.72
765.481	1658.85
765.664	1570.79
765.847	1648.61
766.03	1652.71
766.213	1626.09
766.397	1583.08
766.58	1572.84
766.763	1572.84
766.946	1597.42
767.129	1556.46
767.312	1511.4
767.495	1564.65
767.678	1542.12
767.861	1443.82
768.044	1513.45
768.227	1531.88
768.41	1492.97
768.593	1646.57
768.776	1492.97
768.959	1533.93
769.142	1495.02
769.324	1484.78
769.507	1423.34
769.69	1384.43
769.873	1484.78
770.056	1562.6
770.239	1466.35
770.421	1484.78
770.604	1441.77
770.787	1452.01
770.97	1476.59
771.152	1435.63
771.335	1394.67
771.518	1318.89
771.7	1460.2
771.883	1441.77
772.066	1415.15
772.248	1382.38
772.431	1427.43
772.613	1277.93
772.796	1185.77
772.978	1349.61
773.161	1316.84
773.343	1363.95
773.526	1300.46
773.708	1255.4
773.891	1347.56
774.073	1284.08
774.256	1206.25
774.438	1351.66
774.621	1191.92
774.803	1214.45
774.985	1193.97
775.168	1161.2
775.35	1165.29
775.532	1269.74
775.715	1181.68
775.897	1187.82
776.079	1163.25
776.261	1202.16
776.444	1267.69
776.626	1189.87
776.808	1130.48
776.99	1257.45
777.173	1187.82
777.355	1114.09
777.537	1107.95
777.719	1052.66
777.901	1081.33
778.083	1099.76
778.265	1030.13
778.447	1177.58
778.629	1091.57
778.811	1083.38
778.993	1028.08
779.175	1056.75
779.357	1077.23
779.539	909.3
779.721	1044.46
779.903	1062.9
780.085	937.97
780.267	956.4
780.449	942.07
780.631	1023.98
780.812	989.17
780.994	1003.5
781.176	978.93
781.358	962.55
781.54	954.35
781.721	923.63
781.903	946.16
782.085	964.59
782.267	860.15
782.448	860.15
782.63	915.44
782.812	772.08
782.993	854
783.175	858.1
783.357	806.9
783.538	942.07
783.72	770.04
783.901	913.39
784.083	794.61
784.264	833.52
784.446	823.28
784.627	835.57
784.809	868.34
784.99	743.41
785.172	823.28
785.353	776.18
785.535	727.03
785.716	710.65
785.897	737.27
786.079	815.09
786.26	772.08
786.441	823.28
786.623	659.45
786.804	741.36
786.985	710.65
787.167	741.36
787.348	714.74
787.529	643.06
787.71	802.8
787.891	638.97
788.073	671.73
788.254	598.01
788.435	765.94
788.616	677.88
788.797	641.01
788.978	700.41
789.159	659.45
789.34	735.22
789.522	571.38
789.703	630.77
789.884	641.01
790.065	620.53
790.246	671.73
790.427	575.48
790.607	704.5
790.788	641.01
790.969	616.44
791.15	677.88
791.331	557.05
791.512	563.19
791.693	532.47
791.874	577.53
792.054	544.76
792.235	649.21
792.416	489.46
792.597	509.94
792.778	565.24
792.958	557.05
793.139	538.62
793.32	524.28
793.5	464.89
793.681	632.82
793.862	559.1
794.042	493.56
794.223	434.17
794.404	483.32
794.584	477.18
794.765	524.28
794.945	499.7
795.126	532.47
795.306	501.75
795.487	520.18
795.667	428.03
795.848	538.62
796.028	481.27
796.209	477.18
796.389	411.64
796.57	473.08
796.75	428.03
796.93	440.31
797.111	411.64
797.291	481.27
797.471	409.59
797.652	423.93
797.832	450.55
798.012	444.41
798.192	411.64
798.373	444.41
798.553	460.79
798.733	425.98
798.913	487.42
799.093	415.74
799.274	448.51
799.454	481.27
799.634	399.35
799.814	417.79
799.994	464.89
800.174	415.74
800.354	391.16
800.534	391.16
800.714	342.01
800.894	382.97
801.074	317.44
801.254	348.15
801.434	423.93
801.614	372.73
801.794	327.67
801.974	1187.82
802.154	389.11
802.334	360.44
802.514	342.01
802.693	319.48
802.873	342.01
803.053	425.98
803.233	370.68
803.413	337.91
803.592	342.01
803.772	333.82
803.952	405.5
804.131	329.72
804.311	395.26
804.491	372.73
804.67	487.42
804.85	274.43
805.03	350.2
805.209	329.72
805.389	323.58
805.568	323.58
805.748	358.39
805.928	380.92
806.107	212.99
806.287	284.67
806.466	348.15
806.646	391.16
806.825	208.89
807.004	331.77
807.184	391.16
807.363	395.26
807.543	368.63
807.722	253.95
807.901	352.25
808.081	362.49
808.26	317.44
808.439	276.48
808.619	245.76
808.798	282.62
808.977	301.05
809.156	323.58
809.336	290.81
809.515	272.38
809.694	294.91
809.873	231.42
810.052	262.14
810.231	290.81
810.411	315.39
810.59	382.97
810.769	245.76
810.948	225.28
811.127	208.89
811.306	276.48
811.485	288.76
811.664	352.25
811.843	315.39
812.022	327.67
812.201	278.52
812.38	264.19
812.559	237.56
812.737	221.18
812.916	231.42
813.095	239.61
813.274	290.81
813.453	241.66
813.632	258.04
813.811	282.62
813.989	215.04
814.168	288.76
814.347	301.05
814.526	253.95
814.704	327.67
814.883	262.14
815.062	290.81
815.24	264.19
815.419	258.04
815.598	321.53
815.776	122.88
815.955	266.24
816.133	184.32
816.312	251.9
816.49	227.32
816.669	251.9
816.847	172.03
817.026	260.09
817.204	233.47
817.383	200.7
817.561	270.33
817.74	276.48
817.918	198.65
818.097	210.94
818.275	176.13
818.453	258.04
818.632	241.66
818.81	163.84
818.988	196.61
819.167	206.84
819.345	258.04
819.523	122.88
819.701	270.33
819.879	235.52
820.058	229.37
820.236	133.12
820.414	174.08
820.592	176.13
820.77	217.08
820.948	122.88
821.127	215.04
821.305	270.33
821.483	208.89
821.661	284.67
821.839	204.8
822.017	112.64
822.195	120.83
822.373	253.95
822.551	167.93
822.729	157.69
822.907	200.7
823.085	208.89
823.262	184.32
823.44	182.27
823.618	126.97
823.796	198.65
823.974	176.13
824.152	149.5
824.329	208.89
824.507	206.84
824.685	135.17
824.863	188.41
825.04	217.08
825.218	165.89
825.396	215.04
825.574	153.6
825.751	221.18
825.929	241.66
826.107	133.12
826.284	165.89
826.462	118.78
826.639	178.17
826.817	118.78
826.994	204.8
827.172	90.11
827.349	229.37
827.527	219.13
827.704	253.95
827.882	225.28
828.059	102.4
828.237	135.17
828.414	237.56
828.591	108.54
828.769	206.84
828.946	133.12
829.124	176.13
829.301	151.55
829.478	198.65
829.655	149.5
829.833	172.03
830.01	110.59
830.187	186.37
830.364	147.45
830.542	268.28
830.719	165.89
830.896	174.08
831.073	143.36
831.25	59.39
831.427	180.22
831.604	108.54
831.782	145.41
831.959	145.41
832.136	141.31
832.313	133.12
832.49	157.69
832.667	98.3
832.844	104.45
833.021	116.73
833.198	96.25
833.374	141.31
833.551	96.25
833.728	217.08
833.905	155.65
834.082	139.26
834.259	217.08
834.436	198.65
834.612	63.49
834.789	81.92
834.966	149.5
835.143	241.66
835.319	141.31
835.496	186.37
835.673	178.17
835.85	210.94
836.026	135.17
836.203	200.7
836.38	69.63
836.556	155.65
836.733	71.68
836.909	143.36
837.086	188.41
837.262	118.78
837.439	114.69
837.616	141.31
837.792	133.12
837.968	147.45
838.145	65.54
838.321	155.65
838.498	155.65
838.674	202.75
838.851	120.83
839.027	118.78
839.203	79.87
839.38	157.69
839.556	104.45
839.732	180.22
839.909	159.74
840.085	90.11
840.261	57.34
840.437	169.98
840.614	69.63
840.79	153.6
840.966	124.93
841.142	43.01
841.318	90.11
841.494	155.65
841.671	120.83
841.847	108.54
842.023	81.92
842.199	102.4
842.375	161.79
842.551	57.34
842.727	114.69
842.903	165.89
843.079	38.91
843.255	137.21
843.431	63.49
843.607	141.31
843.783	67.58
843.959	135.17
844.134	6.14
844.31	86.01
844.486	122.88
844.662	102.4
844.838	100.35
845.013	110.59
845.189	131.07
845.365	112.64
845.541	169.98
845.716	126.97
845.892	147.45
846.068	47.1
846.244	43.01
846.419	40.96
846.595	92.16
846.77	59.39
846.946	43.01
847.122	55.3
847.297	118.78
847.473	83.97
847.648	0
847.824	102.4
847.999	51.2
848.175	90.11
848.35	61.44
848.526	157.69
848.701	188.41
848.876	57.34
849.052	96.25
849.227	88.06
849.403	71.68
849.578	63.49
849.753	110.59
849.929	114.69
850.104	55.3
850.279	55.3
850.454	96.25
850.63	51.2
850.805	147.45
850.98	83.97
851.155	81.92
851.33	184.32
851.505	67.58
851.681	86.01
851.856	32.77
852.031	92.16
852.206	71.68
852.381	38.91
852.556	-10.24
852.731	143.36
852.906	69.63
853.081	57.34
853.256	86.01
853.431	34.82
853.606	90.11
853.781	86.01
853.956	26.62
854.131	36.86
854.305	88.06
854.48	100.35
854.655	96.25
854.83	67.58
855.005	61.44
855.18	108.54
855.354	71.68
855.529	67.58
855.704	38.91
855.879	36.86
856.053	18.43
856.228	24.58
856.403	43.01
856.577	104.45
856.752	-30.72
856.926	34.82
857.101	73.73
857.276	18.43
857.45	26.62
857.625	116.73
857.799	145.41
857.974	55.3
858.148	73.73
858.323	16.38
858.497	126.97
858.672	26.62
858.846	18.43
859.02	145.41
859.195	43.01
859.369	8.19
859.543	77.82
859.718	73.73
859.892	215.04
860.066	116.73
860.241	38.91
860.415	38.91
860.589	63.49
860.763	94.21
860.938	22.53
861.112	-14.34
861.286	18.43
861.46	98.3
861.634	49.15
861.808	151.55
861.982	67.58
862.157	6.14
862.331	18.43
862.505	-4.1
862.679	16.38
862.853	65.54
863.027	53.25
863.201	149.5
863.375	20.48
863.549	65.54
863.722	86.01
863.896	184.32
864.07	-45.06
864.244	83.97
864.418	32.77
864.592	59.39
864.766	159.74
864.939	129.02
865.113	81.92
865.287	102.4
865.461	90.11
865.634	47.1
865.808	61.44
865.982	90.11
866.156	-38.91
866.329	26.62
866.503	124.93
866.676	92.16
866.85	-2.05
867.024	18.43
867.197	81.92
867.371	28.67
867.544	53.25
867.718	55.3
867.891	6.14
868.065	10.24
868.238	-4.1
868.412	20.48
868.585	36.86
868.759	55.3
868.932	67.58
869.105	55.3
869.279	57.34
869.452	45.06
869.625	45.06
869.799	16.38
869.972	36.86
870.145	-16.38
870.319	67.58
870.492	-8.19
870.665	14.34
870.838	6.14
871.011	16.38
871.185	92.16
871.358	36.86
871.531	73.73
871.704	22.53
871.877	51.2
872.05	26.62
872.223	98.3
872.396	8.19
872.569	83.97
872.742	-18.43
872.915	129.02
873.088	-12.29
873.261	6.14
873.434	73.73
873.607	32.77
873.78	18.43
873.953	81.92
874.126	83.97
874.299	67.58
874.471	30.72
874.644	43.01
874.817	81.92
874.99	137.21
875.163	2.05
875.335	34.82
875.508	24.58
875.681	81.92
875.853	34.82
876.026	18.43
876.199	20.48
876.371	20.48
876.544	65.54
876.717	75.77
876.889	10.24
877.062	122.88
877.234	30.72
877.407	129.02
877.579	30.72
877.752	61.44
877.924	92.16
878.097	71.68
878.269	131.07
878.442	96.25
878.614	-16.38
878.786	30.72
878.959	45.06
879.131	30.72
879.303	90.11
879.476	28.67
879.648	81.92
879.82	2.05
879.993	24.58
880.165	40.96
880.337	-55.3
880.509	26.62
880.681	-69.63
880.854	59.39
881.026	106.49
881.198	133.12
881.37	14.34
881.542	30.72
881.714	34.82
881.886	122.88
882.058	36.86
882.23	69.63
882.402	61.44
882.574	65.54
882.746	28.67
882.918	79.87
883.09	20.48
883.262	47.1
883.434	-6.14
883.606	-40.96
883.778	-45.06
883.95	47.1
884.122	59.39
884.293	57.34
884.465	-24.58
884.637	59.39
884.809	-14.34
884.98	43.01
885.152	36.86
885.324	53.25
885.496	36.86
885.667	-2.05
885.839	28.67
886.011	182.27
886.182	57.34
886.354	73.73
886.525	88.06
886.697	18.43
886.869	-2.05
887.04	75.77
887.212	53.25
887.383	-20.48
887.555	38.91
887.726	-24.58
887.897	22.53
888.069	22.53
888.24	34.82
888.412	67.58
888.583	28.67
888.754	16.38
888.926	-2.05
889.097	10.24
889.268	73.73
889.44	12.29
889.611	6.14
889.782	32.77
889.953	-14.34
890.125	88.06
890.296	53.25
890.467	55.3
890.638	-10.24
890.809	-28.67
890.98	28.67
891.151	79.87
891.323	94.21
891.494	63.49
891.665	-45.06
891.836	-26.62
892.007	20.48
892.178	75.77
892.349	8.19
892.52	-49.15
892.691	30.72
892.862	32.77
893.032	-79.87
893.203	26.62
893.374	-40.96
893.545	-22.53
893.716	98.3
893.887	36.86
894.057	30.72
894.228	20.48
894.399	12.29
894.57	43.01
894.74	47.1
894.911	92.16
895.082	38.91
895.253	2.05
895.423	12.29
895.594	30.72
895.764	63.49
895.935	51.2
896.106	-28.67
896.276	69.63
896.447	106.49
896.617	0
896.788	8.19
896.958	86.01
897.129	30.72
897.299	98.3
897.47	118.78
897.64	86.01
897.81	-26.62
897.981	94.21
898.151	-20.48
898.322	57.34
898.492	36.86
898.662	6.14
898.832	32.77
899.003	2.05
899.173	-10.24
899.343	43.01
899.513	43.01
