Data from USB4F104151__20__12-23-31-862.txt Node

Date: Fri Mar 14 12:23:31 EDT 2025
User: louis
Spectrometer: USB4F10415
Trigger mode: 4
Integration Time (sec): 3.500000E-2
Scans to average: 1
Electric dark correction enabled: true
Nonlinearity correction enabled: false
Boxcar width: 0
XAxis mode: Wavelengths
Number of Pixels in Spectrum: 3648
>>>>>Begin Spectral Data<<<<<
178.204	-200.36
178.424	-200.36
178.644	-200.36
178.864	-202.41
179.084	-175.78
179.304	33.11
179.524	-9.9
179.744	41.3
179.964	4.44
180.184	-85.67
180.404	10.58
180.624	61.78
180.844	20.82
181.064	-48.81
181.283	-24.23
181.503	-42.67
181.723	39.25
181.943	-32.43
182.163	22.87
182.383	-34.47
182.602	-26.28
182.822	55.64
183.042	-50.86
183.262	-38.57
183.482	18.77
183.701	22.87
183.921	59.73
184.141	-13.99
184.361	139.6
184.58	-13.99
184.8	29.01
185.02	-3.75
185.239	94.55
185.459	-59.05
185.679	82.26
185.898	-22.19
186.118	-20.14
186.338	22.87
186.557	61.78
186.777	-22.19
186.997	-28.33
187.216	-57
187.436	8.53
187.655	-11.95
187.875	90.45
188.095	0.34
188.314	29.01
188.534	63.83
188.753	-48.81
188.973	51.54
189.192	53.59
189.412	-11.95
189.631	47.44
189.851	18.77
190.07	-32.43
190.29	-7.85
190.509	53.59
190.729	57.68
190.948	4.44
191.168	78.16
191.387	65.88
191.607	-5.8
191.826	-9.9
192.045	16.73
192.265	-13.99
192.484	59.73
192.704	26.96
192.923	-30.38
193.142	35.16
193.362	22.87
193.581	57.68
193.8	69.97
194.02	16.73
194.239	31.06
194.458	0.34
194.678	-44.71
194.897	22.87
195.116	49.49
195.335	92.5
195.555	29.01
195.774	-22.19
195.993	61.78
196.212	-16.04
196.432	-1.71
196.651	-30.38
196.87	82.26
197.089	162.13
197.308	51.54
197.528	43.35
197.747	-30.38
197.966	35.16
198.185	51.54
198.404	-11.95
198.623	10.58
198.842	-9.9
199.062	20.82
199.281	102.74
199.5	57.68
199.719	-11.95
199.938	80.21
200.157	22.87
200.376	41.3
200.595	110.93
200.814	-9.9
201.033	6.49
201.252	84.31
201.471	90.45
201.69	96.6
201.909	35.16
202.128	-20.14
202.347	41.3
202.566	-22.19
202.785	18.77
203.004	-36.52
203.223	51.54
203.442	39.25
203.661	69.97
203.879	20.82
204.098	47.44
204.317	-50.86
204.536	53.59
204.755	0.34
204.974	29.01
205.193	37.2
205.411	106.84
205.63	-79.53
205.849	59.73
206.068	-38.57
206.287	12.63
206.505	104.79
206.724	20.82
206.943	16.73
207.162	-73.39
207.381	69.97
207.599	4.44
207.818	84.31
208.037	-1.71
208.255	-20.14
208.474	16.73
208.693	67.92
208.911	20.82
209.13	37.2
209.349	-13.99
209.567	14.68
209.786	90.45
210.005	33.11
210.223	41.3
210.442	-24.23
210.661	45.4
210.879	-16.04
211.098	53.59
211.316	108.88
211.535	6.49
211.753	8.53
211.972	80.21
212.191	-24.23
212.409	20.82
212.628	33.11
212.846	20.82
213.065	67.92
213.283	47.44
213.502	-50.86
213.72	8.53
213.938	-50.86
214.157	-46.76
214.375	22.87
214.594	0.34
214.812	-61.1
215.031	49.49
215.249	51.54
215.467	-18.09
215.686	16.73
215.904	117.08
216.122	-13.99
216.341	37.2
216.559	16.73
216.778	35.16
216.996	0.34
217.214	55.64
217.432	-7.85
217.651	-77.48
217.869	22.87
218.087	-7.85
218.306	26.96
218.524	53.59
218.742	12.63
218.96	29.01
219.179	-18.09
219.397	-65.19
219.615	74.07
219.833	18.77
220.051	-63.15
220.27	55.64
220.488	53.59
220.706	26.96
220.924	86.36
221.142	-26.28
221.36	59.73
221.578	-34.47
221.796	24.92
222.015	12.63
222.233	49.49
222.451	72.02
222.669	26.96
222.887	41.3
223.105	-5.8
223.323	94.55
223.541	-30.38
223.759	53.59
223.977	14.68
224.195	39.25
224.413	4.44
224.631	8.53
224.849	26.96
225.067	61.78
225.285	-13.99
225.503	-26.28
225.721	-16.04
225.939	-32.43
226.157	16.73
226.375	63.83
226.592	16.73
226.81	53.59
227.028	63.83
227.246	92.5
227.464	-32.43
227.682	26.96
227.9	-22.19
228.117	-34.47
228.335	29.01
228.553	-13.99
228.771	-7.85
228.989	39.25
229.206	-26.28
229.424	-11.95
229.642	18.77
229.86	14.68
230.077	18.77
230.295	-26.28
230.513	-7.85
230.731	112.98
230.948	96.6
231.166	80.21
231.384	-30.38
231.601	20.82
231.819	96.6
232.037	22.87
232.254	-7.85
232.472	61.78
232.689	-59.05
232.907	57.68
233.125	-63.15
233.342	-77.48
233.56	-85.67
233.777	6.49
233.995	-16.04
234.213	20.82
234.43	31.06
234.648	47.44
234.865	41.3
235.083	119.12
235.3	-9.9
235.518	47.44
235.735	47.44
235.953	2.39
236.17	-54.95
236.388	59.73
236.605	-57
236.822	94.55
237.04	74.07
237.257	49.49
237.475	12.63
237.692	55.64
237.909	47.44
238.127	-9.9
238.344	94.55
238.562	78.16
238.779	51.54
238.996	-46.76
239.214	12.63
239.431	8.53
239.648	-7.85
239.865	106.84
240.083	29.01
240.3	65.88
240.517	-34.47
240.735	10.58
240.952	37.2
241.169	110.93
241.386	55.64
241.603	59.73
241.821	-67.24
242.038	20.82
242.255	63.83
242.472	-36.52
242.689	69.97
242.907	37.2
243.124	6.49
243.341	29.01
243.558	-65.19
243.775	55.64
243.992	8.53
244.209	74.07
244.426	112.98
244.643	-13.99
244.86	65.88
245.078	37.2
245.295	-16.04
245.512	-32.43
245.729	8.53
245.946	18.77
246.163	53.59
246.38	51.54
246.597	41.3
246.814	0.34
247.031	-16.04
247.248	43.35
247.464	29.01
247.681	14.68
247.898	63.83
248.115	-3.75
248.332	47.44
248.549	76.12
248.766	78.16
248.983	14.68
249.2	82.26
249.417	102.74
249.633	49.49
249.85	43.35
250.067	6.49
250.284	16.73
250.501	45.4
250.717	88.4
250.934	49.49
251.151	14.68
251.368	18.77
251.585	-7.85
251.801	-13.99
252.018	8.53
252.235	31.06
252.451	-42.67
252.668	10.58
252.885	14.68
253.102	104.79
253.318	14.68
253.535	-20.14
253.752	4.44
253.968	84.31
254.185	14.68
254.401	-5.8
254.618	51.54
254.835	-50.86
255.051	51.54
255.268	47.44
255.484	6.49
255.701	2.39
255.917	96.6
256.134	-71.34
256.351	24.92
256.567	-40.62
256.784	6.49
257	-26.28
257.217	63.83
257.433	-16.04
257.65	41.3
257.866	92.5
258.082	-93.87
258.299	6.49
258.515	-63.15
258.732	33.11
258.948	-63.15
259.165	51.54
259.381	31.06
259.597	39.25
259.814	-40.62
260.03	24.92
260.246	55.64
260.463	-42.67
260.679	51.54
260.895	-36.52
261.112	43.35
261.328	-7.85
261.544	-26.28
261.761	69.97
261.977	35.16
262.193	45.4
262.409	51.54
262.626	53.59
262.842	-11.95
263.058	14.68
263.274	24.92
263.49	8.53
263.707	49.49
263.923	-13.99
264.139	31.06
264.355	59.73
264.571	72.02
264.787	31.06
265.004	2.39
265.22	53.59
265.436	33.11
265.652	35.16
265.868	37.2
266.084	16.73
266.3	61.78
266.516	-24.23
266.732	22.87
266.948	10.58
267.164	45.4
267.38	14.68
267.596	12.63
267.812	33.11
268.028	29.01
268.244	-36.52
268.46	-1.71
268.676	-40.62
268.892	22.87
269.108	39.25
269.324	82.26
269.54	-13.99
269.756	53.59
269.972	4.44
270.188	76.12
270.403	20.82
270.619	24.92
270.835	22.87
271.051	-13.99
271.267	59.73
271.483	-20.14
271.698	10.58
271.914	0.34
272.13	-30.38
272.346	43.35
272.562	-42.67
272.777	86.36
272.993	-28.33
273.209	-40.62
273.425	2.39
273.64	-61.1
273.856	45.4
274.072	49.49
274.287	12.63
274.503	49.49
274.719	-20.14
274.934	-26.28
275.15	-28.33
275.366	-36.52
275.581	20.82
275.797	4.44
276.012	-52.91
276.228	-13.99
276.444	0.34
276.659	90.45
276.875	-7.85
277.09	69.97
277.306	0.34
277.521	18.77
277.737	-22.19
277.952	61.78
278.168	-13.99
278.383	-48.81
278.599	59.73
278.814	82.26
279.03	90.45
279.245	31.06
279.461	-34.47
279.676	51.54
279.892	98.64
280.107	-36.52
280.322	8.53
280.538	22.87
280.753	39.25
280.969	-7.85
281.184	-11.95
281.399	135.51
281.615	-24.23
281.83	74.07
282.045	-79.53
282.26	-57
282.476	-5.8
282.691	147.8
282.906	6.49
283.122	84.31
283.337	-50.86
283.552	39.25
283.767	65.88
283.983	88.4
284.198	0.34
284.413	4.44
284.628	92.5
284.843	106.84
285.058	6.49
285.274	74.07
285.489	67.92
285.704	16.73
285.919	-5.8
286.134	-7.85
286.349	61.78
286.564	35.16
286.779	10.58
286.995	26.96
287.21	49.49
287.425	55.64
287.64	-22.19
287.855	47.44
288.07	-24.23
288.285	53.59
288.5	61.78
288.715	37.2
288.93	57.68
289.145	-5.8
289.36	86.36
289.575	55.64
289.79	135.51
290.004	-30.38
290.219	8.53
290.434	0.34
290.649	-20.14
290.864	20.82
291.079	-5.8
291.294	-18.09
291.509	78.16
291.724	22.87
291.938	16.73
292.153	67.92
292.368	-9.9
292.583	26.96
292.798	-11.95
293.012	14.68
293.227	8.53
293.442	14.68
293.657	37.2
293.871	59.73
294.086	-67.24
294.301	94.55
294.516	51.54
294.73	80.21
294.945	2.39
295.16	20.82
295.374	86.36
295.589	57.68
295.804	-48.81
296.018	-18.09
296.233	-16.04
296.447	102.74
296.662	-26.28
296.877	137.56
297.091	18.77
297.306	-1.71
297.52	-16.04
297.735	33.11
297.949	67.92
298.164	72.02
298.378	6.49
298.593	65.88
298.807	18.77
299.022	47.44
299.236	86.36
299.451	12.63
299.665	-26.28
299.88	24.92
300.094	-5.8
300.309	6.49
300.523	-46.76
300.737	-34.47
300.952	18.77
301.166	47.44
301.381	20.82
301.595	12.63
301.809	31.06
302.024	-22.19
302.238	-52.91
302.452	14.68
302.667	0.34
302.881	82.26
303.095	76.12
303.309	61.78
303.524	-44.71
303.738	-20.14
303.952	12.63
304.166	59.73
304.381	-81.58
304.595	61.78
304.809	-16.04
305.023	35.16
305.237	-20.14
305.452	-22.19
305.666	53.59
305.88	151.89
306.094	-3.75
306.308	-69.29
306.522	18.77
306.736	43.35
306.95	20.82
307.164	78.16
307.379	37.2
307.593	53.59
307.807	33.11
308.021	4.44
308.235	33.11
308.449	37.2
308.663	14.68
308.877	59.73
309.091	18.77
309.305	69.97
309.519	-16.04
309.733	-22.19
309.947	6.49
310.161	69.97
310.374	12.63
310.588	16.73
310.802	16.73
311.016	16.73
311.23	115.03
311.444	47.44
311.658	-16.04
311.872	18.77
312.085	39.25
312.299	26.96
312.513	80.21
312.727	59.73
312.941	4.44
313.154	43.35
313.368	67.92
313.582	10.58
313.796	49.49
314.009	53.59
314.223	115.03
314.437	69.97
314.651	90.45
314.864	-11.95
315.078	47.44
315.292	-11.95
315.505	18.77
315.719	18.77
315.933	29.01
316.146	-42.67
316.36	55.64
316.573	59.73
316.787	59.73
317.001	22.87
317.214	-5.8
317.428	47.44
317.641	-52.91
317.855	-20.14
318.068	10.58
318.282	47.44
318.495	72.02
318.709	61.78
318.922	-28.33
319.136	115.03
319.349	31.06
319.563	98.64
319.776	41.3
319.99	-24.23
320.203	-3.75
320.417	45.4
320.63	94.55
320.843	14.68
321.057	-9.9
321.27	8.53
321.483	24.92
321.697	63.83
321.91	43.35
322.124	69.97
322.337	33.11
322.55	24.92
322.763	98.64
322.977	6.49
323.19	43.35
323.403	-20.14
323.617	92.5
323.83	39.25
324.043	6.49
324.256	20.82
324.469	51.54
324.683	4.44
324.896	-13.99
325.109	41.3
325.322	-71.34
325.535	53.59
325.748	80.21
325.962	0.34
326.175	76.12
326.388	33.11
326.601	61.78
326.814	18.77
327.027	-26.28
327.24	117.08
327.453	-59.05
327.666	26.96
327.879	47.44
328.092	61.78
328.305	43.35
328.518	20.82
328.731	20.82
328.944	37.2
329.157	43.35
329.37	-50.86
329.583	10.58
329.796	49.49
330.009	-42.67
330.222	65.88
330.435	53.59
330.648	22.87
330.861	-11.95
331.073	8.53
331.286	61.78
331.499	26.96
331.712	-65.19
331.925	59.73
332.138	10.58
332.35	45.4
332.563	37.2
332.776	14.68
332.989	0.34
333.202	4.44
333.414	-7.85
333.627	69.97
333.84	57.68
334.053	55.64
334.265	18.77
334.478	24.92
334.691	2.39
334.903	39.25
335.116	-1.71
335.329	10.58
335.541	-13.99
335.754	57.68
335.966	-5.8
336.179	80.21
336.392	69.97
336.604	-5.8
336.817	31.06
337.029	96.6
337.242	-5.8
337.454	12.63
337.667	22.87
337.88	31.06
338.092	88.4
338.305	90.45
338.517	-11.95
338.729	-79.53
338.942	112.98
339.154	31.06
339.367	31.06
339.579	72.02
339.792	24.92
340.004	39.25
340.217	-16.04
340.429	37.2
340.641	-24.23
340.854	43.35
341.066	121.17
341.278	14.68
341.491	78.16
341.703	22.87
341.915	-16.04
342.128	37.2
342.34	31.06
342.552	26.96
342.764	88.4
342.977	51.54
343.189	29.01
343.401	10.58
343.613	-42.67
343.826	14.68
344.038	-22.19
344.25	43.35
344.462	0.34
344.674	20.82
344.886	-54.95
345.099	31.06
345.311	33.11
345.523	53.59
345.735	41.3
345.947	-9.9
346.159	14.68
346.371	55.64
346.583	29.01
346.795	39.25
347.007	49.49
347.219	49.49
347.431	-28.33
347.643	57.68
347.855	47.44
348.067	53.59
348.279	57.68
348.491	129.36
348.703	-18.09
348.915	78.16
349.127	47.44
349.339	63.83
349.551	-44.71
349.763	6.49
349.975	88.4
350.187	47.44
350.399	82.26
350.61	24.92
350.822	-59.05
351.034	6.49
351.246	6.49
351.458	43.35
351.669	2.39
351.881	96.6
352.093	18.77
352.305	121.17
352.517	10.58
352.728	43.35
352.94	26.96
353.152	12.63
353.363	-9.9
353.575	-42.67
353.787	76.12
353.999	51.54
354.21	35.16
354.422	-61.1
354.633	86.36
354.845	-18.09
355.057	37.2
355.268	-7.85
355.48	29.01
355.692	-57
355.903	2.39
356.115	-22.19
356.326	16.73
356.538	43.35
356.749	96.6
356.961	110.93
357.172	80.21
357.384	-77.48
357.595	166.23
357.807	20.82
358.018	12.63
358.23	80.21
358.441	112.98
358.653	41.3
358.864	-30.38
359.075	-38.57
359.287	86.36
359.498	0.34
359.709	-1.71
359.921	51.54
360.132	24.92
360.344	43.35
360.555	67.92
360.766	43.35
360.977	-18.09
361.189	-3.75
361.4	20.82
361.611	51.54
361.823	63.83
362.034	4.44
362.245	-1.71
362.456	26.96
362.667	41.3
362.879	-18.09
363.09	-5.8
363.301	115.03
363.512	18.77
363.723	-22.19
363.935	55.64
364.146	57.68
364.357	59.73
364.568	-13.99
364.779	18.77
364.99	14.68
365.201	33.11
365.412	96.6
365.623	2.39
365.834	43.35
366.045	6.49
366.256	86.36
366.467	20.82
366.678	31.06
366.889	10.58
367.1	82.26
367.311	78.16
367.522	-30.38
367.733	78.16
367.944	22.87
368.155	18.77
368.366	41.3
368.577	57.68
368.788	47.44
368.999	-20.14
369.209	61.78
369.42	117.08
369.631	121.17
369.842	72.02
370.053	26.96
370.264	-13.99
370.474	39.25
370.685	20.82
370.896	45.4
371.107	117.08
371.317	63.83
371.528	63.83
371.739	84.31
371.95	24.92
372.16	88.4
372.371	-57
372.582	-20.14
372.792	61.78
373.003	76.12
373.214	78.16
373.424	26.96
373.635	-26.28
373.846	86.36
374.056	-16.04
374.267	22.87
374.477	16.73
374.688	-16.04
374.898	26.96
375.109	98.64
375.319	51.54
375.53	84.31
375.74	102.74
375.951	31.06
376.161	47.44
376.372	160.08
376.582	63.83
376.793	45.4
377.003	24.92
377.214	8.53
377.424	86.36
377.635	-52.91
377.845	18.77
378.055	39.25
378.266	-32.43
378.476	-34.47
378.686	29.01
378.897	12.63
379.107	-24.23
379.317	22.87
379.528	-22.19
379.738	88.4
379.948	45.4
380.158	69.97
380.369	0.34
380.579	14.68
380.789	4.44
380.999	72.02
381.21	90.45
381.42	69.97
381.63	92.5
381.84	57.68
382.05	26.96
382.261	20.82
382.471	49.49
382.681	22.87
382.891	49.49
383.101	102.74
383.311	41.3
383.521	4.44
383.731	108.88
383.941	131.41
384.151	76.12
384.361	84.31
384.571	31.06
384.781	96.6
384.991	123.22
385.201	80.21
385.411	76.12
385.621	45.4
385.831	45.4
386.041	-9.9
386.251	-81.58
386.461	88.4
386.671	20.82
386.881	82.26
387.091	110.93
387.301	84.31
387.511	53.59
387.72	61.78
387.93	106.84
388.14	-1.71
388.35	-28.33
388.56	102.74
388.769	115.03
388.979	96.6
389.189	90.45
389.399	-13.99
389.609	35.16
389.818	61.78
390.028	20.82
390.238	65.88
390.447	-20.14
390.657	22.87
390.867	43.35
391.076	-42.67
391.286	47.44
391.496	-5.8
391.705	55.64
391.915	104.79
392.125	41.3
392.334	47.44
392.544	98.64
392.753	37.2
392.963	31.06
393.172	76.12
393.382	-16.04
393.591	133.46
393.801	-22.19
394.01	119.12
394.22	102.74
394.429	-26.28
394.639	88.4
394.848	127.32
395.058	61.78
395.267	69.97
395.477	78.16
395.686	110.93
395.895	106.84
396.105	160.08
396.314	72.02
396.524	37.2
396.733	55.64
396.942	78.16
397.152	129.36
397.361	63.83
397.57	98.64
397.78	94.55
397.989	131.41
398.198	104.79
398.407	8.53
398.617	65.88
398.826	96.6
399.035	106.84
399.244	49.49
399.453	35.16
399.663	41.3
399.872	80.21
400.081	121.17
400.29	155.99
400.499	51.54
400.708	141.65
400.917	88.4
401.127	82.26
401.336	78.16
401.545	121.17
401.754	117.08
401.963	143.7
402.172	80.21
402.381	26.96
402.59	59.73
402.799	65.88
403.008	90.45
403.217	102.74
403.426	141.65
403.635	29.01
403.844	84.31
404.053	168.27
404.262	117.08
404.471	170.32
404.68	104.79
404.888	98.64
405.097	137.56
405.306	162.13
405.515	65.88
405.724	63.83
405.933	174.42
406.142	86.36
406.35	88.4
406.559	121.17
406.768	137.56
406.977	149.84
407.185	90.45
407.394	178.51
407.603	139.6
407.812	125.27
408.02	256.34
408.229	215.38
408.438	153.94
408.646	164.18
408.855	182.61
409.064	227.67
409.272	192.85
409.481	196.95
409.69	170.32
409.898	174.42
410.107	252.24
410.315	262.48
410.524	196.95
410.733	250.19
410.941	301.39
411.15	287.06
411.358	328.02
411.567	334.16
411.775	366.93
411.984	366.93
412.192	346.45
412.401	289.1
412.609	379.22
412.818	379.22
413.026	387.41
413.234	371.02
413.443	356.69
413.651	399.7
413.86	381.26
414.068	514.38
414.276	500.05
414.485	561.48
414.693	448.85
414.901	538.96
415.11	565.58
415.318	446.8
415.526	514.38
415.734	600.4
415.943	553.29
416.151	696.65
416.359	602.44
416.567	661.84
416.776	637.26
416.984	690.51
417.192	739.66
417.4	751.95
417.608	749.9
417.817	774.47
418.025	854.34
418.233	911.69
418.441	823.62
418.649	907.59
418.857	913.74
419.065	1007.94
419.273	903.5
419.481	979.27
419.689	1139.01
419.897	1136.96
420.105	1044.81
420.313	1188.16
420.521	1145.16
420.729	1171.78
420.937	1268.03
421.145	1397.06
421.353	1390.91
421.561	1546.56
421.769	1501.5
421.977	1597.76
422.185	1550.65
422.393	1642.81
422.601	1777.98
422.809	1685.82
423.017	1847.61
423.224	1794.36
423.432	1939.77
423.64	1950.01
423.848	2181.43
424.056	2044.21
424.263	2255.15
424.471	2054.45
424.679	2152.76
424.887	2294.07
425.094	2380.08
425.302	2328.88
425.51	2335.03
425.718	2525.49
425.925	2494.77
426.133	2650.41
426.341	2804.01
426.548	2988.33
426.756	2933.03
426.964	2900.27
427.171	3131.69
427.379	3266.85
427.586	3301.67
427.794	3381.54
428.001	3545.38
428.209	3703.07
428.417	3756.32
428.624	3944.73
428.832	3938.59
429.039	3952.92
429.247	3830.04
429.454	4327.7
429.662	4610.32
429.869	4184.34
430.076	4696.33
430.284	4548.88
430.491	4735.25
430.699	5091.59
430.906	4968.71
431.114	4919.56
431.321	5093.64
431.528	5257.48
431.736	5685.5
431.943	5935.35
432.15	5880.06
432.358	5851.39
432.565	6004.99
432.772	5898.49
432.979	6369.52
433.187	6547.7
433.394	6582.51
433.601	6858.99
433.808	6826.22
434.016	7020.78
434.223	7215.34
434.43	7653.6
434.637	7604.45
434.844	8007.9
435.052	8171.74
435.259	8098.01
435.466	8196.31
435.673	8210.65
435.88	8616.15
436.087	9103.56
436.294	8939.72
436.501	8792.27
436.708	9029.84
436.915	9291.98
437.122	9597.12
437.329	9771.2
437.537	10201.27
437.743	10299.58
437.95	10199.23
438.157	10606.77
438.364	11006.13
438.571	11079.85
438.778	11192.49
438.985	12216.47
439.192	11739.3
439.399	11944.1
439.606	11853.98
439.813	12386.46
440.02	13260.94
440.227	12994.7
440.433	12695.7
440.64	13359.24
440.847	13078.67
441.054	13598.85
441.261	14379.13
441.467	13973.63
441.674	14747.76
441.881	14991.47
442.088	15050.86
442.294	14966.9
442.501	15325.29
442.708	15718.5
442.914	16109.66
443.121	17182.8
443.328	16568.41
443.534	17768.52
443.741	17016.91
443.948	17059.92
444.154	18094.15
444.361	18217.02
444.568	18384.96
444.774	18108.48
444.981	18649.14
445.187	18894.9
445.394	19777.58
445.6	19484.72
445.807	21231.63
446.013	20766.74
446.22	20940.82
446.426	21424.14
446.633	22022.15
446.839	22933.5
447.046	21768.2
447.252	22872.06
447.459	22968.31
447.665	23128.05
447.871	24096.74
448.078	25049.05
448.284	23795.69
448.491	24532.96
448.697	25282.52
448.903	25921.48
449.11	26204.1
449.316	25356.24
449.522	26163.14
449.728	26337.22
449.935	26744.77
450.141	26875.84
450.347	27414.45
450.553	26558.4
450.76	27228.09
450.966	27752.37
451.172	27596.72
451.378	28604.32
451.584	27682.73
451.791	28493.73
451.997	28059.56
452.203	28647.33
452.409	28438.44
452.615	28409.76
452.821	27592.62
453.027	27195.32
453.233	28661.66
453.44	27406.26
453.646	28059.56
453.852	27623.34
454.058	28628.9
454.264	27226.04
454.47	28061.61
454.676	27172.79
454.882	28174.25
455.088	25712.59
455.294	26443.71
455.5	26517.44
455.705	26935.23
455.911	25540.56
456.117	25628.62
456.323	25169.88
456.529	23547.89
456.735	24530.91
456.941	24317.92
457.147	23580.65
457.352	22765.56
457.558	22468.61
457.764	22829.05
457.97	22294.53
458.176	21803.02
458.381	21891.08
458.587	20635.67
458.793	20654.11
458.999	19613.74
459.204	20971.54
459.41	20662.3
459.616	19107.89
459.821	18978.87
460.027	18866.23
460.233	18325.57
460.438	17762.37
460.644	17846.34
460.85	17072.21
461.055	16912.47
461.261	16887.89
461.466	15403.11
461.672	14927.99
461.878	16126.05
462.083	15061.1
462.289	14647.41
462.494	14569.59
462.7	13889.67
462.905	13592.71
463.111	14213.24
463.316	14272.64
463.522	13848.71
463.727	13826.18
463.932	13873.28
464.138	13443.21
464.343	13838.47
464.549	13258.89
464.754	13738.12
464.959	13682.82
465.165	13383.82
465.37	13047.95
465.575	12636.31
465.781	13271.18
465.986	13410.44
466.191	12603.54
466.397	12443.8
466.602	11841.7
466.807	12130.46
467.012	12363.93
467.218	12234.91
467.423	12353.69
467.628	12183.71
467.833	12562.58
468.038	12011.68
468.244	11624.61
468.449	12458.14
468.654	12023.97
468.859	11663.52
469.064	11817.12
469.269	11180.2
469.474	11536.55
469.679	11651.24
469.885	11219.11
470.09	11493.54
470.295	11456.68
470.5	11137.2
470.705	11276.46
470.91	10877.1
471.115	10786.99
471.32	11102.38
471.525	10819.76
471.73	10553.52
471.935	10692.79
472.139	10287.29
472.344	10213.56
472.549	10256.57
472.754	9896.13
472.959	9902.27
473.164	9748.67
473.369	9625.79
473.574	9984.19
473.778	9853.12
473.983	9543.88
474.188	9619.65
474.393	9298.12
474.598	9289.93
474.802	9304.26
475.007	9115.85
475.212	9240.78
475.417	8810.7
475.621	8902.86
475.826	8794.32
476.031	8804.56
476.235	8599.76
476.44	8800.46
476.645	8530.13
476.849	8693.97
477.054	8483.03
477.259	8212.7
477.463	8288.47
477.668	8048.86
477.872	8263.9
478.077	8120.54
478.282	7708.9
478.486	7801.05
478.691	7762.14
478.895	7848.16
479.1	7813.34
479.304	7565.54
479.509	7454.95
479.713	7444.71
479.918	7538.91
480.122	7229.67
480.326	7551.2
480.531	7280.87
480.735	7313.64
480.94	7282.92
481.144	7633.12
481.348	6947.05
481.553	7117.03
481.757	7055.59
481.961	7121.13
482.166	7336.17
482.37	7227.62
482.574	7213.29
482.778	7217.38
482.983	7413.99
483.187	7096.55
483.391	7209.19
483.595	7104.74
483.8	7061.74
484.004	7145.7
484.208	7215.34
484.412	7059.69
484.616	7485.67
484.821	7123.18
485.025	7082.22
485.229	7127.27
485.433	7182.57
485.637	7047.4
485.841	7002.35
486.045	7078.12
486.249	7151.85
486.453	7112.94
486.657	7125.22
486.861	7123.18
487.065	7012.59
487.269	7057.64
487.473	6990.06
487.677	7121.13
487.881	7092.46
488.085	7270.63
488.289	7268.58
488.493	6947.05
488.697	7233.77
488.901	7157.99
489.105	7293.16
489.309	6975.72
489.512	7123.18
489.716	7252.2
489.92	7198.95
490.124	7088.36
490.328	7299.3
490.531	7194.86
490.735	7479.52
490.939	7383.27
491.143	7254.25
491.346	7217.38
491.55	7391.46
491.754	7450.85
491.958	7497.95
492.161	7375.08
492.365	7551.2
492.569	7430.37
492.772	7559.39
492.976	7643.36
493.18	7536.87
493.383	7641.31
493.587	7643.36
493.79	7846.11
493.994	7831.77
494.197	7786.72
494.401	8036.57
494.605	7942.36
494.808	8147.16
495.012	8151.26
495.215	8102.11
495.419	8327.38
495.622	8200.41
495.825	8548.56
496.029	8343.77
496.232	8464.6
496.436	8491.22
496.639	8743.12
496.843	8564.95
497.046	8675.54
497.249	8814.8
497.453	8982.73
497.656	9078.99
497.859	9050.32
498.063	9011.4
498.266	9371.85
498.469	9242.82
498.673	9334.98
498.876	9511.11
499.079	9683.14
499.282	9738.43
499.485	9945.28
499.689	9922.75
499.892	9912.51
500.095	10225.85
500.298	10272.95
500.501	10238.14
500.705	10514.61
500.908	10576.05
501.111	10852.53
501.314	10721.46
501.517	10973.36
501.72	11163.82
501.923	11192.49
502.126	11350.18
502.329	11833.5
502.532	11616.42
502.735	11647.14
502.938	11968.67
503.141	12079.26
503.344	12136.6
503.547	12073.12
503.75	12437.66
503.953	12685.46
504.156	12775.57
504.359	12548.25
504.562	12873.87
504.765	13123.73
504.968	13273.23
505.17	13404.3
505.373	13416.58
505.576	13799.55
505.779	14026.88
505.982	13944.96
506.185	14170.24
506.387	14366.84
506.59	14624.89
506.793	14639.22
506.996	14471.29
507.198	15263.85
507.401	15007.86
507.604	15171.69
507.807	15509.61
508.009	15718.5
508.212	15874.15
508.415	16027.74
508.617	15986.79
508.82	16203.87
509.022	16451.67
509.225	16679
509.428	16855.12
509.63	16902.23
509.833	17115.22
510.035	17444.94
510.238	17424.46
510.44	17705.03
510.643	17791.05
510.845	18366.53
511.048	17965.12
511.25	18327.61
511.453	18378.81
511.655	19290.16
511.858	19181.62
512.06	19193.9
512.262	19556.39
512.465	19286.06
512.667	19918.89
512.87	19949.6
513.072	20207.65
513.274	20545.56
513.477	20684.83
513.679	20877.33
513.881	21258.26
514.084	21526.54
514.286	21542.92
514.488	21454.86
514.69	22556.67
514.893	22333.44
515.095	22214.66
515.297	22689.79
515.499	22884.34
515.701	23169.01
515.904	23611.37
516.106	23492.59
516.308	23668.72
516.51	24381.41
516.712	24141.8
516.914	24270.82
517.116	24942.55
517.318	24793.05
517.52	25040.86
517.722	25092.05
517.925	25526.22
518.127	25857.99
518.329	26034.12
518.531	26331.08
518.733	26447.81
518.935	26740.67
519.136	27107.26
519.338	27594.67
519.54	27676.59
519.742	27701.17
519.944	28047.27
520.146	28544.93
520.348	28741.53
520.55	28901.28
520.752	28964.76
520.954	29937.55
521.155	29640.59
521.357	29892.49
521.559	30048.14
521.761	30635.91
521.963	30404.49
522.164	30771.07
522.366	31117.18
522.568	31367.03
522.77	31661.94
522.971	31962.99
523.173	31436.66
523.375	32245.61
523.576	32040.81
523.778	32436.07
523.98	32929.63
524.181	32763.75
524.383	33142.62
524.584	33840.98
524.786	33523.54
524.988	33312.6
525.189	34072.4
525.391	34150.22
525.592	34205.52
525.794	34240.33
525.995	34592.58
526.197	34748.23
526.398	35036.99
526.6	35227.45
526.801	35665.72
527.003	35573.56
527.204	35649.33
527.406	36157.23
527.607	36226.86
527.808	36370.22
528.01	36110.13
528.211	35960.62
528.412	36671.27
528.614	36894.5
528.815	36646.69
529.016	37087.01
529.218	36636.45
529.419	37234.46
529.62	37183.26
529.822	37224.22
530.023	37664.53
530.224	37293.85
530.425	37648.15
530.626	37166.88
530.828	37527.32
531.029	38354.7
531.23	38012.69
531.431	37938.96
531.632	38119.18
531.833	38305.55
532.035	38401.8
532.236	38270.73
532.437	38465.29
532.638	37693.21
532.839	38428.43
533.04	38539.02
533.241	38182.67
533.442	38651.66
533.643	38709
533.844	38565.64
534.045	38483.72
534.246	38055.7
534.447	38878.98
534.648	38670.09
534.849	38838.02
535.05	38772.49
535.251	38872.84
535.451	38723.33
535.652	39118.59
535.853	38952.71
536.054	38956.8
536.255	39333.63
536.456	38393.61
536.657	39511.8
536.857	39057.15
537.058	39354.11
537.259	39313.15
537.46	38932.23
537.66	39259.9
537.861	39155.46
538.062	38917.89
538.263	39366.4
538.463	39022.34
538.664	38815.49
538.865	39278.33
539.065	39096.06
539.266	38893.32
539.466	39683.83
539.667	38827.78
539.868	39597.82
540.068	39100.16
540.269	39247.61
540.469	39218.94
540.67	38686.47
540.87	38911.75
541.071	39114.5
541.271	39210.75
541.472	39362.3
541.672	38885.12
541.873	38792.97
542.073	38915.84
542.274	39309.05
542.474	39206.66
542.675	38842.12
542.875	39401.21
543.075	38741.77
543.276	38612.74
543.476	39034.63
543.676	38919.94
543.877	39259.9
544.077	39134.98
544.277	38973.19
544.478	38985.47
544.678	39405.31
544.878	39347.96
545.078	39038.72
545.279	38735.62
545.479	38784.77
545.679	39055.11
545.879	38934.28
546.079	38936.32
546.28	39284.48
546.48	38741.77
546.68	38637.32
546.88	38674.18
547.08	39053.06
547.28	39198.46
547.48	38754.05
547.68	38776.58
547.88	38737.67
548.081	39030.53
548.281	38981.38
548.481	38502.15
548.681	38971.14
548.881	38786.82
549.081	38688.52
549.28	38690.57
549.48	39106.3
549.68	38715.14
549.88	39397.12
550.08	38680.33
550.28	39220.99
550.48	38829.83
550.68	38905.6
550.88	38584.07
551.08	38682.38
551.279	38721.29
551.479	38125.33
551.679	38809.35
551.879	38645.51
552.079	38684.42
552.278	38858.5
552.478	38430.47
552.678	38665.99
552.878	38971.14
553.077	38313.74
553.277	38422.28
553.477	38909.7
553.676	38399.76
553.876	38428.43
554.076	38256.4
554.275	38416.14
554.475	38285.07
554.674	38059.79
554.874	38412.04
555.074	38100.75
555.273	38600.46
555.473	38235.92
555.672	38233.87
555.872	38403.85
556.071	37840.66
556.271	38432.52
556.47	37846.8
556.67	37601.05
556.869	37699.35
557.068	38373.13
557.268	37744.41
557.467	37322.52
557.667	37791.51
557.866	37850.9
558.065	37529.37
558.265	37738.26
558.464	37097.25
558.663	37326.62
558.863	37007.14
559.062	37787.41
559.261	37130.01
559.461	37599
559.66	36910.88
559.859	37009.18
560.058	36704.04
560.258	36908.83
560.457	36775.72
560.656	36882.21
560.855	36611.88
561.054	37056.29
561.253	36351.79
561.453	36501.29
561.652	36620.07
561.851	36761.38
562.05	36208.43
562.249	36298.54
562.448	36421.42
562.647	36034.35
562.846	35829.55
563.045	35999.54
563.244	35958.58
563.443	35643.19
563.642	35573.56
563.841	35505.98
564.04	35379
564.239	35934
564.438	35305.27
564.637	35733.3
564.836	35442.49
565.035	34594.63
565.234	35012.42
565.432	35047.23
565.631	34764.61
565.83	34819.91
566.029	34615.11
566.228	35065.66
566.427	34406.22
566.625	34148.17
566.824	34195.28
567.023	34602.82
567.222	33935.18
567.42	33898.32
567.619	34096.97
567.818	33722.19
568.016	33636.18
568.215	33832.79
568.414	33011.55
568.612	33552.21
568.811	33337.18
569.01	33439.58
569.208	32921.44
569.407	33431.38
569.605	32810.85
569.804	32964.45
570.002	32483.17
570.201	32939.87
570.4	32302.95
570.598	32399.21
570.797	32302.95
570.995	32079.72
571.193	31803.25
571.392	32591.72
571.59	31645.55
571.789	31995.76
571.987	31938.41
572.186	32044.91
572.384	31391.61
572.582	31643.51
572.781	31616.88
572.979	30877.57
573.177	31213.43
573.376	30871.42
573.574	31008.64
573.772	31133.56
573.971	30726.02
574.169	30441.35
574.367	30293.9
574.565	30648.19
574.763	30248.84
574.962	30279.56
575.16	30011.28
575.358	30248.84
575.556	29732.75
575.754	29996.94
575.952	29286.29
576.151	30056.33
576.349	29693.84
576.547	29542.29
576.745	29339.54
576.943	29235.1
577.141	29120.41
577.339	29306.77
577.537	29130.65
577.735	28921.76
577.933	28645.28
578.131	28700.58
578.329	28749.73
578.527	28561.31
578.725	28483.49
578.923	28614.56
579.121	28288.93
579.319	28413.86
579.516	28546.98
579.714	28164.01
579.912	28221.35
580.11	27627.44
580.308	27824.04
580.506	27731.89
580.704	27416.5
580.901	27547.57
581.099	27504.56
581.297	27217.85
581.495	27326.39
581.692	27271.09
581.89	27084.73
582.088	27273.14
582.285	26961.85
582.483	27596.72
582.681	27142.07
582.878	27119.54
583.076	26632.13
583.274	26750.91
583.471	26425.28
583.669	26537.92
583.866	26185.67
584.064	26548.16
584.262	26027.98
584.459	26341.32
584.657	26159.05
584.854	26341.32
585.052	25817.04
585.249	25935.82
585.447	25925.58
585.644	25718.73
585.841	25509.84
586.039	25876.43
586.236	25229.27
586.434	25454.54
586.631	25356.24
586.828	25276.37
587.026	25305.04
587.223	24997.85
587.42	24942.55
587.618	24668.12
587.815	24762.33
588.012	24883.16
588.21	24649.69
588.407	24889.31
588.604	24655.84
588.801	24272.87
588.999	24215.52
589.196	24049.64
589.393	24475.62
589.59	24014.82
589.787	23924.71
589.984	23775.21
590.182	23803.88
590.379	23916.52
590.576	23713.77
590.773	23904.23
590.97	23701.48
591.167	23633.9
591.364	23453.68
591.561	23529.45
591.758	23230.45
591.955	23300.08
592.152	23248.88
592.349	23062.52
592.546	23263.22
592.743	23244.79
592.94	22665.21
593.137	23052.28
593.334	23117.81
593.531	22433.79
593.727	22583.29
593.924	22648.83
594.121	22312.96
594.318	22616.06
594.515	22491.13
594.712	22536.19
594.908	22413.31
595.105	22482.94
595.302	22134.79
595.499	21932.04
595.696	22069.25
595.892	21872.65
596.089	22059.01
596.286	21854.22
596.482	22245.38
596.679	21676.04
596.876	21835.78
597.072	21567.5
597.269	21579.79
597.466	21250.07
597.662	21338.13
597.859	21217.3
598.055	21260.3
598.252	21252.11
598.448	21243.92
598.645	20887.57
598.841	20869.14
599.038	21047.32
599.234	20916.25
599.431	20842.52
599.627	20860.95
599.824	20639.77
600.02	20549.66
600.217	20582.43
600.413	20414.49
600.609	20398.11
600.806	20346.91
601.002	20066.34
601.198	19994.66
601.395	20410.4
601.591	20305.95
601.787	19908.65
601.984	19918.89
602.18	20043.81
602.376	19912.74
602.572	19675.18
602.769	19933.22
602.965	19267.63
603.161	19507.24
603.357	19589.16
603.553	19437.61
603.75	19515.44
603.946	18954.29
604.142	19521.58
604.338	19091.51
604.534	19372.08
604.73	19099.7
604.926	18769.97
605.122	19013.68
605.318	19154.99
605.514	18804.79
605.71	18663.48
605.906	19019.83
606.102	18530.36
606.298	18696.25
606.494	18438.2
606.69	18442.3
606.886	18458.68
607.082	17997.89
607.278	18516.03
607.474	18073.67
607.67	18171.97
607.866	18131.01
608.062	18432.06
608.257	17995.84
608.453	17809.48
608.649	18266.17
608.845	17803.33
609.041	17786.95
609.236	17969.22
609.432	17954.88
609.628	17569.87
609.824	17481.8
610.019	17547.34
610.215	17322.06
610.411	17643.59
610.606	17346.64
610.802	17578.06
610.998	17453.13
611.193	17666.12
611.389	17389.64
611.584	17340.49
611.78	17297.49
611.976	17115.22
612.171	17346.64
612.367	17254.48
612.562	17107.02
612.758	17098.83
612.953	17037.39
613.149	17215.57
613.344	16793.69
613.539	17234
613.735	16982.1
613.93	16934.99
614.126	16859.22
614.321	16900.18
614.517	16586.84
614.712	16947.28
614.907	16699.48
615.103	16742.49
615.298	16476.25
615.493	16814.16
615.688	16437.34
615.884	16803.92
616.079	16400.48
616.274	16599.13
616.47	16382.04
616.665	16492.63
616.86	16134.24
617.055	16316.51
617.25	15968.35
617.445	16191.58
617.641	15917.15
617.836	16293.98
618.031	16035.94
618.226	16033.89
618.421	15896.67
618.616	16130.14
618.811	15759.46
619.006	16025.7
619.201	15702.12
619.396	15935.59
619.591	15466.6
619.786	15472.75
619.981	15329.39
620.176	15407.21
620.371	15401.07
620.566	15247.47
620.761	15186.03
620.956	15329.39
621.151	15255.66
621.346	15104.11
621.541	14758
621.735	14942.32
621.93	14594.17
622.125	14608.5
622.32	14415.99
622.515	14577.78
622.709	14346.36
622.904	14518.39
623.099	14037.12
623.294	14381.18
623.488	14223.48
623.683	14078.08
623.878	13910.15
624.072	14334.07
624.267	13957.25
624.462	13901.95
624.656	13531.27
624.851	13615.24
625.046	13734.02
625.24	13650.05
625.435	13791.36
625.629	13387.91
625.824	13113.49
626.018	13191.31
626.213	13035.66
626.407	13271.18
626.602	12939.41
626.796	13068.43
626.991	12908.69
627.185	12955.79
627.38	12554.39
627.574	12753.04
627.768	12695.7
627.963	12662.93
628.157	12521.62
628.352	12398.74
628.546	12144.8
628.74	12376.22
628.935	12126.36
629.129	12273.82
629.323	12015.77
629.517	12046.49
629.712	11915.42
629.906	11958.43
630.1	11767.97
630.294	11700.39
630.489	11554.98
630.683	11522.21
630.877	11436.2
631.071	11397.29
631.265	11507.88
631.459	11526.31
631.653	11163.82
631.848	11430.05
632.042	11223.21
632.236	11403.43
632.43	11153.58
632.624	11034.8
632.818	10954.93
633.012	10879.15
633.206	10832.05
633.4	10827.95
633.594	10815.66
633.788	10537.14
633.982	10606.77
634.176	10686.64
634.369	10430.65
634.563	10406.07
634.757	10492.09
634.951	10311.86
635.145	10469.56
635.339	10227.9
635.533	10166.46
635.726	10105.02
635.92	9965.76
636.114	9791.68
636.308	9875.65
636.501	9842.88
636.695	9982.14
636.889	9734.34
637.083	9560.26
637.276	9783.49
637.47	9619.65
637.664	9623.75
637.857	9468.1
638.051	9494.72
638.244	9281.74
638.438	9281.74
638.632	9404.61
638.825	9171.15
639.019	9126.09
639.212	9111.75
639.406	9289.93
639.599	9091.27
639.793	9218.25
639.986	9046.22
640.18	8892.62
640.373	8847.57
640.567	8743.12
640.76	8917.2
640.954	8657.11
641.147	8478.93
641.34	8714.45
641.534	8720.59
641.727	8646.87
641.92	8589.52
642.114	8485.08
642.307	8247.51
642.5	8374.49
642.694	8235.22
642.887	8171.74
643.08	8429.78
643.273	8286.42
643.467	8173.78
643.66	8163.54
643.853	7936.22
644.046	7866.59
644.239	7936.22
644.432	7905.5
644.626	7823.58
644.819	7747.81
645.012	7745.76
645.205	7586.02
645.398	7596.26
645.591	7626.98
645.784	7739.62
645.977	7444.71
646.17	7397.6
646.363	7301.35
646.556	7446.76
646.749	7452.9
646.942	7399.65
647.135	7334.12
647.328	7256.29
647.521	7375.08
647.714	7139.56
647.907	7244.01
648.099	7008.49
648.292	7252.2
648.485	7114.98
648.678	6942.96
648.871	6844.65
649.064	6719.73
649.256	6924.52
649.449	6885.61
649.642	6883.56
649.835	6762.73
650.027	6916.33
650.22	6721.77
650.413	6729.97
650.605	6668.53
650.798	6637.81
650.991	6602.99
651.183	6484.21
651.376	6467.83
651.568	6471.92
651.761	6361.33
651.954	6488.31
652.146	6336.76
652.339	6295.8
652.531	6338.8
652.724	6166.78
652.916	6154.49
653.109	6209.78
653.301	6129.91
653.494	6158.58
653.686	6142.2
653.879	6240.5
654.071	5986.55
654.263	6039.8
654.456	5968.12
654.648	6013.18
654.84	5837.05
655.033	5957.88
655.225	5976.31
655.417	5800.19
655.61	6002.94
655.802	5759.23
655.994	5763.33
656.186	5751.04
656.379	5687.55
656.571	5603.58
656.763	5574.91
656.955	5589.25
657.148	5683.45
657.34	5488.9
657.532	5544.19
657.724	5646.59
657.916	5474.56
658.108	5529.86
658.3	5665.02
658.492	5437.7
658.684	5331.2
658.876	5237
659.068	5337.35
659.26	5345.54
659.452	5230.85
659.644	5189.89
659.836	5320.96
660.028	5079.3
660.22	5124.36
660.412	5073.16
660.604	5050.63
660.796	5126.41
660.988	5099.78
661.18	5021.96
661.372	4935.95
661.563	5185.8
661.755	5140.74
661.947	5107.98
662.139	4870.41
662.331	4915.47
662.522	4733.2
662.714	4804.88
662.906	4858.12
663.097	4798.73
663.289	4745.48
663.481	4770.06
663.673	4851.98
663.864	4708.62
664.056	4688.14
664.247	4479.25
664.439	4725.01
664.631	4638.99
664.822	4563.22
665.014	4632.85
665.205	4604.18
665.397	4462.87
665.588	4577.55
665.78	4571.41
665.971	4442.39
666.163	4370.71
666.354	4452.63
666.546	4382.99
666.737	4362.51
666.929	4362.51
667.12	4329.75
667.311	4479.25
667.503	4329.75
667.694	4364.56
667.885	4331.8
668.077	4393.23
668.268	4223.25
668.459	4253.97
668.651	4104.47
668.842	4210.97
669.033	4309.27
669.224	4389.14
669.416	4319.51
669.607	4118.81
669.798	3995.93
669.989	4315.41
670.18	4157.72
670.371	4176.15
670.563	4127
670.754	4073.75
670.945	3983.64
671.136	4032.79
671.327	4004.12
671.518	4260.12
671.709	4075.8
671.9	4102.42
672.091	3979.54
672.282	4061.46
672.473	4012.31
672.664	3940.63
672.855	4043.03
673.046	4053.27
673.237	4178.2
673.428	4127
673.619	4020.5
673.809	4049.18
674	3868.95
674.191	3948.83
674.382	3881.24
674.573	3959.06
674.764	3979.54
674.954	3954.97
675.145	3932.44
675.336	3975.45
675.527	3817.76
675.717	3868.95
675.908	3877.15
676.099	3909.91
676.289	4038.94
676.48	3854.62
676.671	3807.52
676.861	3914.01
677.052	3987.74
677.243	3901.72
677.433	3832.09
677.624	4026.65
677.814	3993.88
678.005	3758.36
678.195	3787.04
678.386	3754.27
678.576	3885.34
678.767	3916.06
678.957	3827.99
679.148	3879.19
679.338	3950.87
679.529	3854.62
679.719	3877.15
679.909	3932.44
680.1	3848.47
680.29	3963.16
680.481	3922.2
680.671	3905.82
680.861	3836.19
681.052	3891.48
681.242	3848.47
681.432	3928.35
681.622	3791.13
681.813	3741.98
682.003	3993.88
682.193	3737.88
682.383	3930.39
682.573	3862.81
682.764	3766.56
682.954	3789.08
683.144	3875.1
683.334	3729.69
683.524	3889.43
683.714	3881.24
683.904	3701.02
684.094	3819.8
684.284	3823.9
684.474	3895.58
684.664	3801.37
684.854	3883.29
685.044	3862.81
685.234	3811.61
685.424	3772.7
685.614	3725.6
685.804	3768.6
685.994	3635.49
686.184	3569.95
686.374	3741.98
686.564	3707.16
686.753	3721.5
686.943	3774.75
687.133	3731.74
687.323	3770.65
687.513	3739.93
687.702	3694.88
687.892	3621.15
688.082	3606.81
688.272	3592.48
688.461	3604.77
688.651	3576.09
688.841	3647.77
689.03	3653.92
689.22	3410.21
689.41	3406.11
689.599	3483.94
689.789	3563.81
689.979	3432.74
690.168	3541.28
690.358	3490.08
690.547	3479.84
690.737	3485.98
690.926	3502.37
691.116	3363.11
691.305	3365.15
691.495	3393.83
691.684	3246.37
691.874	3363.11
692.063	3240.23
692.252	3359.01
692.442	3270.95
692.631	3266.85
692.82	3246.37
693.01	3352.87
693.199	3139.88
693.388	3217.7
693.578	3135.78
693.767	3008.81
693.956	3156.26
694.146	3025.19
694.335	3096.87
694.524	3225.89
694.713	3088.68
694.902	3211.56
695.092	2973.99
695.281	3166.5
695.47	3291.43
695.659	3193.12
695.848	3086.63
696.037	3082.53
696.226	3182.88
696.415	3043.62
696.604	3162.41
696.793	3117.35
696.982	3146.02
697.171	3123.49
697.36	2996.52
697.549	3113.25
697.738	3115.3
697.927	2990.38
698.116	2928.94
698.305	3088.68
698.494	2973.99
698.683	3012.9
698.872	3123.49
699.061	2984.23
699.25	3006.76
699.438	3000.62
699.627	2998.57
699.816	3066.15
700.005	2971.94
700.193	3033.38
700.382	3053.86
700.571	3000.62
700.76	3066.15
700.948	3129.64
701.137	3103.01
701.326	3135.78
701.514	3025.19
701.703	3004.71
701.892	2961.7
702.08	3137.83
702.269	3008.81
702.457	2990.38
702.646	3113.25
702.834	2980.14
703.023	3002.66
703.212	3125.54
703.4	3055.91
703.589	2992.42
703.777	3164.45
703.965	3098.92
704.154	3041.57
704.342	3064.1
704.531	3021.1
704.719	2902.31
704.907	3164.45
705.096	3000.62
705.284	3119.4
705.472	3055.91
705.661	3068.2
705.849	3082.53
706.037	3068.2
706.226	3117.35
706.414	3035.43
706.602	3070.25
706.79	3115.3
706.979	3105.06
707.167	2982.18
707.355	3191.08
707.543	3068.2
707.731	3236.13
707.919	3176.74
708.107	3006.76
708.296	3049.77
708.484	3057.96
708.672	3078.44
708.86	3207.46
709.048	3150.12
709.236	3062.05
709.424	3227.94
709.612	3160.36
709.8	3248.42
709.988	3176.74
710.176	3129.64
710.364	3086.63
710.551	3084.58
710.739	3270.95
710.927	3184.93
711.115	3133.73
711.303	3285.28
711.491	3176.74
711.679	3092.77
711.866	3111.21
712.054	3225.89
712.242	3248.42
712.43	3166.5
712.617	3246.37
712.805	3141.93
712.993	3195.17
713.181	3148.07
713.368	3291.43
713.556	3397.92
713.744	3123.49
713.931	3287.33
714.119	3299.62
714.306	3262.76
714.494	3221.8
714.682	3227.94
714.869	3189.03
715.057	3223.84
715.244	3283.24
715.432	3328.29
715.619	3322.15
715.807	3297.57
715.994	3316
716.182	3295.52
716.369	3356.96
716.556	3262.76
716.744	3184.93
716.931	3459.36
717.119	3363.11
717.306	3313.95
717.493	3346.72
717.681	3324.19
717.868	3365.15
718.055	3467.55
718.242	3467.55
718.43	3309.86
718.617	3316
718.804	3340.58
718.991	3455.26
719.179	3494.18
719.366	3449.12
719.553	3412.26
719.74	3346.72
719.927	3451.17
720.114	3408.16
720.301	3289.38
720.488	3461.41
720.676	3559.71
720.863	3414.31
721.05	3565.85
721.237	3469.6
721.424	3440.93
721.611	3350.82
721.798	3608.86
721.985	3354.91
722.172	3479.84
722.358	3514.66
722.545	3510.56
722.732	3561.76
722.919	3635.49
723.106	3385.63
723.293	3336.48
723.48	3524.9
723.667	3453.22
723.853	3449.12
724.04	3596.57
724.227	3574.05
724.414	3442.98
724.6	3590.43
724.787	3627.29
724.974	3588.38
725.161	3572
725.347	3631.39
725.534	3625.25
725.72	3465.5
725.907	3395.87
726.094	3615.01
726.28	3572
726.467	3508.51
726.653	3559.71
726.84	3586.33
727.027	3705.12
727.213	3688.73
727.4	3789.08
727.586	3631.39
727.773	3631.39
727.959	3549.47
728.145	3787.04
728.332	3739.93
728.518	3748.12
728.705	3672.35
728.891	3746.08
729.077	3635.49
729.264	3606.81
729.45	3639.58
729.636	3750.17
729.823	3606.81
730.009	3721.5
730.195	3780.89
730.382	3735.84
730.568	3694.88
730.754	3664.16
730.94	3580.19
731.126	3674.4
731.313	3850.52
731.499	3660.06
731.685	3823.9
731.871	3715.36
732.057	3848.47
732.243	3741.98
732.429	3735.84
732.615	3909.91
732.801	3784.99
732.987	3698.97
733.173	3711.26
733.359	3766.56
733.545	3758.36
733.731	3807.52
733.917	3760.41
734.103	3868.95
734.289	3873.05
734.475	3811.61
734.661	3883.29
734.847	3848.47
735.033	3916.06
735.219	3670.3
735.404	3842.33
735.59	3842.33
735.776	3756.32
735.962	3782.94
736.148	3860.76
736.333	3871
736.519	3768.6
736.705	3748.12
736.89	3789.08
737.076	3703.07
737.262	3789.08
737.447	3715.36
737.633	3883.29
737.819	3795.23
738.004	3692.83
738.19	3803.42
738.375	3709.21
738.561	3735.84
738.747	3643.68
738.932	3815.71
739.118	3731.74
739.303	3778.84
739.489	3715.36
739.674	3784.99
739.859	3862.81
740.045	3586.33
740.23	3639.58
740.416	3680.54
740.601	3692.83
740.786	3672.35
740.972	3651.87
741.157	3778.84
741.342	3598.62
741.528	3666.21
741.713	3637.53
741.898	3780.89
742.084	3559.71
742.269	3633.44
742.454	3610.91
742.639	3535.14
742.824	3684.64
743.01	3584.29
743.195	3690.78
743.38	3516.7
743.565	3461.41
743.75	3553.57
743.935	3559.71
744.12	3584.29
744.305	3422.5
744.49	3537.18
744.675	3477.79
744.86	3465.5
745.045	3432.74
745.23	3473.7
745.415	3492.13
745.6	3330.34
745.785	3318.05
745.97	3391.78
746.155	3434.78
746.34	3369.25
746.525	3273
746.71	3463.46
746.895	3354.91
747.079	3283.24
747.264	3256.61
747.449	3412.26
747.634	3342.63
747.819	3295.52
748.003	3103.01
748.188	3211.56
748.373	3180.84
748.557	3223.84
748.742	3178.79
748.927	3119.4
749.111	3133.73
749.296	3074.34
749.481	3027.24
749.665	2984.23
749.85	2910.5
750.034	3090.73
750.219	3019.05
750.404	2965.8
750.588	3021.1
750.773	2836.78
750.957	2906.41
751.141	2828.59
751.326	2849.07
751.51	2818.35
751.695	2873.64
751.879	2677.04
752.064	2924.84
752.248	2742.57
752.432	2685.23
752.617	2611.5
752.801	2619.69
752.985	2695.47
753.17	2761
753.354	2830.63
753.538	2699.56
753.722	2625.84
753.907	2615.6
754.091	2595.12
754.275	2588.97
754.459	2646.32
754.643	2431.28
754.828	2593.07
755.012	2556.21
755.196	2615.6
755.38	2367.79
755.564	2472.24
755.748	2396.46
755.932	2511.15
756.116	2457.9
756.3	2425.14
756.484	2527.53
756.668	2380.08
756.852	2371.89
757.036	2251.06
757.22	2406.7
757.404	2187.57
757.588	2228.53
757.772	2285.87
757.956	2324.79
758.14	2246.96
758.323	2191.67
758.507	2175.28
758.691	2070.84
758.875	2199.86
759.059	2261.3
759.242	2228.53
759.426	2031.93
759.61	2171.19
759.794	2115.89
759.977	2101.56
760.161	2148.66
760.345	2099.51
760.528	2076.98
760.712	2054.45
760.895	2107.7
761.079	2093.37
761.263	1978.68
761.446	1849.66
761.63	2044.21
761.813	2007.35
761.997	1966.39
762.18	2027.83
762.364	1878.33
762.547	1894.71
762.731	1909.05
762.914	1820.99
763.098	1954.1
763.281	1921.34
763.464	1898.81
763.648	1816.89
763.831	1841.47
764.015	1814.84
764.198	1870.14
764.381	1855.8
764.564	1790.27
764.748	1859.9
764.931	1849.66
765.114	1794.36
765.297	1950.01
765.481	1855.8
765.664	1677.63
765.847	1777.98
766.03	1845.56
766.213	1771.83
766.397	1753.4
766.58	1763.64
766.763	1704.25
766.946	1728.83
767.129	1702.2
767.312	1646.91
767.495	1716.54
767.678	1757.5
767.861	1651
768.044	1517.89
768.227	1638.72
768.41	1567.04
768.593	1704.25
768.776	1538.37
768.959	1579.33
769.142	1608
769.324	1589.57
769.507	1478.97
769.69	1511.74
769.873	1587.52
770.056	1636.67
770.239	1552.7
770.421	1530.17
770.604	1608
770.787	1528.13
770.97	1505.6
771.152	1413.44
771.335	1569.09
771.518	1341.76
771.7	1544.51
771.883	1587.52
772.066	1546.56
772.248	1444.16
772.431	1513.79
772.613	1464.64
772.796	1429.82
772.978	1466.69
773.161	1495.36
773.343	1409.34
773.526	1337.66
773.708	1386.82
773.891	1372.48
774.073	1395.01
774.256	1278.27
774.438	1397.06
774.621	1220.93
774.803	1452.35
774.985	1315.14
775.168	1339.71
775.35	1325.38
775.532	1294.66
775.715	1288.51
775.897	1233.22
776.079	1233.22
776.261	1296.71
776.444	1333.57
776.626	1241.41
776.808	1282.37
776.99	1126.72
777.173	1112.39
777.355	1149.25
777.537	1263.94
777.719	1165.64
777.901	1130.82
778.083	1141.06
778.265	1106.24
778.447	1143.11
778.629	1192.26
778.811	1079.62
778.993	1036.61
779.175	1173.83
779.357	1055.05
779.539	1093.96
779.721	1139.01
779.903	1053
780.085	1069.38
780.267	1053
780.449	1069.38
780.631	1061.19
780.812	973.13
780.994	1089.86
781.176	1018.18
781.358	1007.94
781.54	1040.71
781.721	995.65
781.903	975.17
782.085	999.75
782.267	948.55
782.448	745.8
782.63	1042.76
782.812	901.45
782.993	885.06
783.175	946.5
783.357	928.07
783.538	854.34
783.72	876.87
783.901	891.21
784.083	868.68
784.264	842.06
784.446	846.15
784.627	815.43
784.809	821.58
784.99	885.06
785.172	809.29
785.353	776.52
785.535	817.48
785.716	782.67
785.897	772.43
786.079	797
786.26	766.28
786.441	823.62
786.623	694.6
786.804	792.91
786.985	854.34
787.167	837.96
787.348	682.31
787.529	725.32
787.71	784.71
787.891	684.36
788.073	631.12
788.254	758.09
788.435	692.55
788.616	749.9
788.797	594.25
788.978	604.49
789.159	790.86
789.34	721.23
789.522	622.92
789.703	610.64
789.884	616.78
790.065	680.27
790.246	694.6
790.427	612.68
790.607	649.55
790.788	594.25
790.969	502.09
791.15	622.92
791.331	672.08
791.512	608.59
791.693	624.97
791.874	600.4
792.054	641.36
792.235	645.45
792.416	686.41
792.597	608.59
792.778	545.1
792.958	577.87
793.139	549.2
793.32	518.48
793.5	522.57
793.681	567.63
793.862	524.62
794.042	493.9
794.223	452.94
794.404	510.29
794.584	530.77
794.765	538.96
794.945	538.96
795.126	622.92
795.306	555.34
795.487	475.47
795.667	461.13
795.848	471.37
796.028	438.61
796.209	457.04
796.389	538.96
796.57	524.62
796.75	477.52
796.93	500.05
797.111	452.94
797.291	493.9
797.471	491.85
797.652	426.32
797.832	428.37
798.012	489.81
798.192	436.56
798.373	381.26
798.553	448.85
798.733	399.7
798.913	366.93
799.093	411.98
799.274	403.79
799.454	416.08
799.634	461.13
799.814	528.72
799.994	446.8
800.174	379.22
800.354	379.22
800.534	344.4
800.714	385.36
800.894	407.89
801.074	328.02
801.254	377.17
801.434	448.85
801.614	422.22
801.794	356.69
801.974	1120.58
802.154	418.13
802.334	405.84
802.514	389.46
802.693	391.5
802.873	344.4
803.053	469.33
803.233	422.22
803.413	346.45
803.592	297.3
803.772	342.35
803.952	352.59
804.131	381.26
804.311	358.74
804.491	420.17
804.67	293.2
804.85	375.12
805.03	285.01
805.209	344.4
805.389	268.63
805.568	301.39
805.748	368.98
805.928	387.41
806.107	362.83
806.287	325.97
806.466	295.25
806.646	360.78
806.825	319.82
807.004	381.26
807.184	375.12
807.363	301.39
807.543	325.97
807.722	311.63
807.901	350.54
808.081	344.4
808.26	260.43
808.439	303.44
808.619	342.35
808.798	319.82
808.977	244.05
809.156	229.71
809.336	364.88
809.515	311.63
809.694	256.34
809.873	338.26
810.052	225.62
810.231	379.22
810.411	289.1
810.59	393.55
810.769	252.24
810.948	301.39
811.127	209.23
811.306	272.72
811.485	188.75
811.664	338.26
811.843	231.76
812.022	248.15
812.201	209.23
812.38	266.58
812.559	258.39
812.737	297.3
812.916	254.29
813.095	196.95
813.274	252.24
813.453	272.72
813.632	282.96
813.811	340.3
813.989	155.99
814.168	264.53
814.347	237.91
814.526	299.34
814.704	336.21
814.883	299.34
815.062	264.53
815.24	315.73
815.419	192.85
815.598	213.33
815.776	158.03
815.955	221.52
816.133	172.37
816.312	250.19
816.49	258.39
816.669	244.05
816.847	223.57
817.026	248.15
817.204	182.61
817.383	242
817.561	190.8
817.74	248.15
817.918	270.67
818.097	172.37
818.275	98.64
818.453	217.43
818.632	242
818.81	246.1
818.988	182.61
819.167	233.81
819.345	151.89
819.523	250.19
819.701	192.85
819.879	194.9
820.058	252.24
820.236	256.34
820.414	235.86
820.592	203.09
820.77	141.65
820.948	201.04
821.127	133.46
821.305	229.71
821.483	172.37
821.661	276.82
821.839	123.22
822.017	168.27
822.195	233.81
822.373	145.75
822.551	221.52
822.729	219.47
822.907	223.57
823.085	186.71
823.262	139.6
823.44	117.08
823.618	104.79
823.796	211.28
823.974	149.84
824.152	170.32
824.329	176.47
824.507	258.39
824.685	203.09
824.863	233.81
825.04	135.51
825.218	209.23
825.396	209.23
825.574	133.46
825.751	160.08
825.929	143.7
826.107	160.08
826.284	198.99
826.462	141.65
826.639	174.42
826.817	92.5
826.994	133.46
827.172	125.27
827.349	143.7
827.527	166.23
827.704	104.79
827.882	94.55
828.059	119.12
828.237	137.56
828.414	229.71
828.591	147.8
828.769	121.17
828.946	80.21
829.124	180.56
829.301	149.84
829.478	51.54
829.655	217.43
829.833	65.88
830.01	100.69
830.187	108.88
830.364	153.94
830.542	188.75
830.719	209.23
830.896	65.88
831.073	117.08
831.25	135.51
831.427	166.23
831.604	137.56
831.782	158.03
831.959	88.4
832.136	137.56
832.313	90.45
832.49	94.55
832.667	147.8
832.844	96.6
833.021	139.6
833.198	92.5
833.374	170.32
833.551	158.03
833.728	149.84
833.905	137.56
834.082	100.69
834.259	76.12
834.436	162.13
834.612	108.88
834.789	108.88
834.966	110.93
835.143	61.78
835.319	63.83
835.496	82.26
835.673	108.88
835.85	125.27
836.026	147.8
836.203	213.33
836.38	88.4
836.556	67.92
836.733	86.36
836.909	94.55
837.086	76.12
837.262	61.78
837.439	63.83
837.616	80.21
837.792	96.6
837.968	84.31
838.145	59.73
838.321	110.93
838.498	67.92
838.674	31.06
838.851	129.36
839.027	80.21
839.203	145.75
839.38	178.51
839.556	158.03
839.732	96.6
839.909	129.36
840.085	192.85
840.261	72.02
840.437	92.5
840.614	74.07
840.79	110.93
840.966	86.36
841.142	123.22
841.318	37.2
841.494	84.31
841.671	162.13
841.847	37.2
842.023	35.16
842.199	104.79
842.375	131.41
842.551	69.97
842.727	-9.9
842.903	174.42
843.079	102.74
843.255	26.96
843.431	22.87
843.607	72.02
843.783	51.54
843.959	67.92
844.134	115.03
844.31	133.46
844.486	35.16
844.662	53.59
844.838	39.25
845.013	65.88
845.189	133.46
845.365	98.64
845.541	80.21
845.716	96.6
845.892	108.88
846.068	90.45
846.244	65.88
846.419	104.79
846.595	41.3
846.77	82.26
846.946	45.4
847.122	0.34
847.297	37.2
847.473	55.64
847.648	41.3
847.824	8.53
847.999	2.39
848.175	110.93
848.35	69.97
848.526	119.12
848.701	82.26
848.876	76.12
849.052	74.07
849.227	55.64
849.403	125.27
849.578	49.49
849.753	86.36
849.929	65.88
850.104	-57
850.279	119.12
850.454	43.35
850.63	14.68
850.805	-26.28
850.98	39.25
851.155	26.96
851.33	6.49
851.505	82.26
851.681	143.7
851.856	24.92
852.031	-11.95
852.206	37.2
852.381	-1.71
852.556	106.84
852.731	76.12
852.906	57.68
853.081	90.45
853.256	26.96
853.431	84.31
853.606	10.58
853.781	20.82
853.956	8.53
854.131	47.44
854.305	47.44
854.48	-50.86
854.655	-24.23
854.83	-5.8
855.005	51.54
855.18	59.73
855.354	10.58
855.529	57.68
855.704	29.01
855.879	37.2
856.053	16.73
856.228	110.93
856.403	49.49
856.577	67.92
856.752	-36.52
856.926	12.63
857.101	59.73
857.276	-63.15
857.45	-26.28
857.625	53.59
857.799	20.82
857.974	26.96
858.148	-30.38
858.323	29.01
858.497	4.44
858.672	-59.05
858.846	86.36
859.02	61.78
859.195	33.11
859.369	49.49
859.543	-16.04
859.718	24.92
859.892	39.25
860.066	61.78
860.241	22.87
860.415	22.87
860.589	24.92
860.763	20.82
860.938	-30.38
861.112	74.07
861.286	29.01
861.46	123.22
861.634	33.11
861.808	67.92
861.982	-54.95
862.157	2.39
862.331	29.01
862.505	-30.38
862.679	-30.38
862.853	12.63
863.027	-44.71
863.201	104.79
863.375	10.58
863.549	-52.91
863.722	80.21
863.896	82.26
864.07	39.25
864.244	-22.19
864.418	-18.09
864.592	-11.95
864.766	-20.14
864.939	-16.04
865.113	-40.62
865.287	37.2
865.461	-22.19
865.634	-42.67
865.808	29.01
865.982	4.44
866.156	-3.75
866.329	0.34
866.503	41.3
866.676	125.27
866.85	47.44
867.024	67.92
867.197	0.34
867.371	35.16
867.544	-20.14
867.718	-20.14
867.891	61.78
868.065	-30.38
868.238	115.03
868.412	37.2
868.585	-30.38
868.759	-40.62
868.932	14.68
869.105	14.68
869.279	92.5
869.452	37.2
869.625	-1.71
869.799	76.12
869.972	-104.11
870.145	2.39
870.319	65.88
870.492	-22.19
870.665	-16.04
870.838	-20.14
871.011	-57
871.185	104.79
871.358	14.68
871.531	96.6
871.704	2.39
871.877	0.34
872.05	14.68
872.223	-63.15
872.396	-1.71
872.569	-32.43
872.742	-67.24
872.915	76.12
873.088	-30.38
873.261	-65.19
873.434	26.96
873.607	10.58
873.78	8.53
873.953	-5.8
874.126	82.26
874.299	-18.09
874.471	2.39
874.644	20.82
874.817	31.06
874.99	47.44
875.163	6.49
875.335	8.53
875.508	10.58
875.681	8.53
875.853	22.87
876.026	-71.34
876.199	20.82
876.371	18.77
876.544	69.97
876.717	49.49
876.889	-18.09
877.062	26.96
877.234	-83.63
877.407	0.34
877.579	8.53
877.752	-5.8
877.924	0.34
878.097	45.4
878.269	31.06
878.442	2.39
878.614	39.25
878.786	-30.38
878.959	16.73
879.131	57.68
879.303	-9.9
879.476	59.73
879.648	20.82
879.82	10.58
879.993	-26.28
880.165	-32.43
880.337	4.44
880.509	-34.47
880.681	-18.09
880.854	-20.14
881.026	55.64
881.198	180.56
881.37	-9.9
881.542	-20.14
881.714	14.68
881.886	-1.71
882.058	33.11
882.23	-11.95
882.402	61.78
882.574	29.01
882.746	39.25
882.918	67.92
883.09	72.02
883.262	-16.04
883.434	-13.99
883.606	53.59
883.778	96.6
883.95	88.4
884.122	47.44
884.293	29.01
884.465	41.3
884.637	24.92
884.809	-77.48
884.98	33.11
885.152	63.83
885.324	102.74
885.496	8.53
885.667	22.87
885.839	-3.75
886.011	14.68
886.182	-1.71
886.354	37.2
886.525	2.39
886.697	20.82
886.869	49.49
887.04	-46.76
887.212	12.63
887.383	51.54
887.555	-9.9
887.726	-7.85
887.897	43.35
888.069	47.44
888.24	78.16
888.412	6.49
888.583	31.06
888.754	4.44
888.926	63.83
889.097	12.63
889.268	10.58
889.44	67.92
889.611	37.2
889.782	-44.71
889.953	-32.43
890.125	37.2
890.296	-85.67
890.467	-13.99
890.638	37.2
890.809	20.82
890.98	-22.19
891.151	31.06
891.323	-3.75
891.494	24.92
891.665	-81.58
891.836	-61.1
892.007	-69.29
892.178	12.63
892.349	-5.8
892.52	-26.28
892.691	-46.76
892.862	-11.95
893.032	-18.09
893.203	-48.81
893.374	31.06
893.545	49.49
893.716	-18.09
893.887	29.01
894.057	37.2
894.228	10.58
894.399	26.96
894.57	-81.58
894.74	-52.91
894.911	6.49
895.082	-54.95
895.253	-36.52
895.423	29.01
895.594	26.96
895.764	-7.85
895.935	-16.04
896.106	26.96
896.276	-44.71
896.447	-16.04
896.617	-36.52
896.788	12.63
896.958	-44.71
897.129	0.34
897.299	14.68
897.47	33.11
897.64	24.92
897.81	-46.76
897.981	-13.99
898.151	10.58
898.322	-5.8
898.492	-24.23
898.662	8.53
898.832	-32.43
899.003	-28.33
899.173	-63.15
899.343	20.82
899.513	-59.05
