Data from USB4F104151__95__12-24-55-887.txt Node

Date: Fri Mar 14 12:24:55 EDT 2025
User: louis
Spectrometer: USB4F10415
Trigger mode: 4
Integration Time (sec): 3.500000E-2
Scans to average: 1
Electric dark correction enabled: true
Nonlinearity correction enabled: false
Boxcar width: 0
XAxis mode: Wavelengths
Number of Pixels in Spectrum: 3648
>>>>>Begin Spectral Data<<<<<
178.204	-161.96
178.424	-161.96
178.644	-161.96
178.864	-139.43
179.084	-155.82
179.304	5.97
179.524	85.84
179.744	-26.79
179.964	-12.46
180.184	-49.32
180.404	12.12
180.624	-12.46
180.844	-0.17
181.064	1.88
181.283	77.65
181.503	-104.62
181.723	22.36
181.943	-41.13
182.163	135
182.383	-22.7
182.602	18.26
182.822	32.6
183.042	-20.65
183.262	-16.55
183.482	42.84
183.701	-45.23
183.921	-6.31
184.141	-0.17
184.361	65.36
184.58	30.55
184.8	-16.55
185.02	-18.6
185.239	1.88
185.459	18.26
185.679	67.41
185.898	16.21
186.118	3.93
186.338	-2.22
186.557	110.42
186.777	83.8
186.997	46.93
187.216	-8.36
187.436	91.99
187.655	124.76
187.875	108.37
188.095	81.75
188.314	91.99
188.534	26.45
188.753	48.98
188.973	40.79
189.192	110.42
189.412	-16.55
189.631	40.79
189.851	24.4
190.07	8.02
190.29	-26.79
190.509	24.4
190.729	-106.67
190.948	67.41
191.168	116.56
191.387	44.88
191.607	-28.84
191.826	104.28
192.045	116.56
192.265	-45.23
192.484	100.18
192.704	-55.47
192.923	-55.47
193.142	28.5
193.362	48.98
193.581	48.98
193.8	36.69
194.02	53.08
194.239	98.13
194.458	63.32
194.678	44.88
194.897	46.93
195.116	-2.22
195.335	-22.7
195.555	63.32
195.774	24.4
195.993	69.46
196.212	94.04
196.432	-10.41
196.651	-18.6
196.87	30.55
197.089	28.5
197.308	96.08
197.528	-30.89
197.747	-69.8
197.966	8.02
198.185	38.74
198.404	40.79
198.623	59.22
198.842	-49.32
199.062	59.22
199.281	36.69
199.5	1.88
199.719	-4.27
199.938	63.32
200.157	-18.6
200.376	28.5
200.595	73.56
200.814	26.45
201.033	67.41
201.252	-6.31
201.471	34.64
201.69	36.69
201.909	57.17
202.128	18.26
202.347	10.07
202.566	-53.42
202.785	-26.79
203.004	-53.42
203.223	59.22
203.442	51.03
203.661	-12.46
203.879	51.03
204.098	42.84
204.317	-24.75
204.536	12.12
204.755	16.21
204.974	8.02
205.193	26.45
205.411	83.8
205.63	20.31
205.849	5.97
206.068	8.02
206.287	83.8
206.505	20.31
206.724	-2.22
206.943	36.69
207.162	-41.13
207.381	-0.17
207.599	5.97
207.818	18.26
208.037	-2.22
208.255	77.65
208.474	16.21
208.693	77.65
208.911	36.69
209.13	-32.94
209.349	-51.37
209.567	20.31
209.786	55.12
210.005	55.12
210.223	24.4
210.442	-41.13
210.661	-18.6
210.879	69.46
211.098	-30.89
211.316	28.5
211.535	28.5
211.753	-39.08
211.972	85.84
212.191	1.88
212.409	-32.94
212.628	36.69
212.846	-10.41
213.065	34.64
213.283	26.45
213.502	71.51
213.72	-24.75
213.938	1.88
214.157	34.64
214.375	79.7
214.594	38.74
214.812	51.03
215.031	36.69
215.249	34.64
215.467	-18.6
215.686	-18.6
215.904	71.51
216.122	42.84
216.341	38.74
216.559	67.41
216.778	48.98
216.996	46.93
217.214	30.55
217.432	38.74
217.651	-22.7
217.869	8.02
218.087	14.17
218.306	-8.36
218.524	48.98
218.742	-14.51
218.96	48.98
219.179	40.79
219.397	-8.36
219.615	106.32
219.833	-41.13
220.051	-49.32
220.27	106.32
220.488	22.36
220.706	87.89
220.924	3.93
221.142	53.08
221.36	14.17
221.578	-4.27
221.796	16.21
222.015	51.03
222.233	40.79
222.451	-6.31
222.669	-18.6
222.887	96.08
223.105	-28.84
223.323	32.6
223.541	-14.51
223.759	61.27
223.977	-10.41
224.195	65.36
224.413	10.07
224.631	24.4
224.849	96.08
225.067	110.42
225.285	-24.75
225.503	-55.47
225.721	-67.75
225.939	-32.94
226.157	-24.75
226.375	141.14
226.592	-77.99
226.81	34.64
227.028	44.88
227.246	139.09
227.464	-4.27
227.682	89.94
227.9	32.6
228.117	46.93
228.335	48.98
228.553	-18.6
228.771	71.51
228.989	-18.6
229.206	22.36
229.424	24.4
229.642	-14.51
229.86	-2.22
230.077	40.79
230.295	89.94
230.513	53.08
230.731	94.04
230.948	44.88
231.166	65.36
231.384	10.07
231.601	22.36
231.819	59.22
232.037	51.03
232.254	-41.13
232.472	16.21
232.689	-26.79
232.907	61.27
233.125	102.23
233.342	30.55
233.56	-49.32
233.777	36.69
233.995	63.32
234.213	61.27
234.43	14.17
234.648	22.36
234.865	3.93
235.083	-16.55
235.3	1.88
235.518	83.8
235.735	116.56
235.953	110.42
236.17	5.97
236.388	12.12
236.605	26.45
236.822	65.36
237.04	46.93
237.257	38.74
237.475	8.02
237.692	87.89
237.909	14.17
238.127	24.4
238.344	46.93
238.562	12.12
238.779	-34.99
238.996	-6.31
239.214	-16.55
239.431	110.42
239.648	40.79
239.865	51.03
240.083	57.17
240.3	20.31
240.517	44.88
240.735	-26.79
240.952	34.64
241.169	22.36
241.386	122.71
241.603	-43.18
241.821	57.17
242.038	10.07
242.255	51.03
242.472	-18.6
242.689	8.02
242.907	53.08
243.124	18.26
243.341	5.97
243.558	46.93
243.775	-59.56
243.992	16.21
244.209	120.66
244.426	112.47
244.643	77.65
244.86	18.26
245.078	-55.47
245.295	40.79
245.512	48.98
245.729	48.98
245.946	20.31
246.163	51.03
246.38	-14.51
246.597	106.32
246.814	69.46
247.031	-4.27
247.248	81.75
247.464	5.97
247.681	-51.37
247.898	26.45
248.115	8.02
248.332	85.84
248.549	36.69
248.766	116.56
248.983	22.36
249.2	1.88
249.417	126.8
249.633	18.26
249.85	26.45
250.067	22.36
250.284	-12.46
250.501	28.5
250.717	-18.6
250.934	-59.56
251.151	12.12
251.368	38.74
251.585	75.6
251.801	8.02
252.018	-0.17
252.235	22.36
252.451	85.84
252.668	-2.22
252.885	89.94
253.102	36.69
253.318	59.22
253.535	-0.17
253.752	36.69
253.968	44.88
254.185	12.12
254.401	28.5
254.618	100.18
254.835	61.27
255.051	96.08
255.268	1.88
255.484	20.31
255.701	44.88
255.917	79.7
256.134	-45.23
256.351	-16.55
256.567	-18.6
256.784	3.93
257	-41.13
257.217	22.36
257.433	-2.22
257.65	71.51
257.866	85.84
258.082	-8.36
258.299	-24.75
258.515	5.97
258.732	-57.51
258.948	38.74
259.165	20.31
259.381	-26.79
259.597	57.17
259.814	-0.17
260.03	-6.31
260.246	12.12
260.463	79.7
260.679	73.56
260.895	85.84
261.112	30.55
261.328	46.93
261.544	-37.03
261.761	89.94
261.977	-51.37
262.193	30.55
262.409	36.69
262.626	63.32
262.842	53.08
263.058	53.08
263.274	46.93
263.49	16.21
263.707	79.7
263.923	24.4
264.139	81.75
264.355	53.08
264.571	153.43
264.787	79.7
265.004	83.8
265.22	-55.47
265.436	30.55
265.652	-4.27
265.868	55.12
266.084	-0.17
266.3	77.65
266.516	-65.71
266.732	65.36
266.948	12.12
267.164	5.97
267.38	46.93
267.596	67.41
267.812	159.57
268.028	59.22
268.244	34.64
268.46	16.21
268.676	42.84
268.892	96.08
269.108	-39.08
269.324	79.7
269.54	3.93
269.756	106.32
269.972	10.07
270.188	-18.6
270.403	-14.51
270.619	53.08
270.835	-20.65
271.051	34.64
271.267	38.74
271.483	51.03
271.698	91.99
271.914	14.17
272.13	67.41
272.346	20.31
272.562	57.17
272.777	79.7
272.993	34.64
273.209	-8.36
273.425	55.12
273.64	-20.65
273.856	46.93
274.072	75.6
274.287	-65.71
274.503	-4.27
274.719	48.98
274.934	85.84
275.15	-18.6
275.366	24.4
275.581	30.55
275.797	3.93
276.012	10.07
276.228	12.12
276.444	-12.46
276.659	118.61
276.875	20.31
277.09	32.6
277.306	-2.22
277.521	57.17
277.737	-0.17
277.952	28.5
278.168	91.99
278.383	42.84
278.599	10.07
278.814	-4.27
279.03	-18.6
279.245	102.23
279.461	46.93
279.676	59.22
279.892	-12.46
280.107	32.6
280.322	12.12
280.538	67.41
280.753	28.5
280.969	24.4
281.184	112.47
281.399	48.98
281.615	-22.7
281.83	143.19
282.045	-32.94
282.26	51.03
282.476	-20.65
282.691	16.21
282.906	8.02
283.122	69.46
283.337	-26.79
283.552	8.02
283.767	55.12
283.983	51.03
284.198	-20.65
284.413	16.21
284.628	10.07
284.843	-12.46
285.058	-14.51
285.274	3.93
285.489	-2.22
285.704	73.56
285.919	-6.31
286.134	51.03
286.349	8.02
286.564	48.98
286.779	38.74
286.995	-4.27
287.21	10.07
287.425	-14.51
287.64	8.02
287.855	48.98
288.07	-69.8
288.285	98.13
288.5	1.88
288.715	16.21
288.93	10.07
289.145	-4.27
289.36	120.66
289.575	-6.31
289.79	108.37
290.004	-30.89
290.219	20.31
290.434	40.79
290.649	-49.32
290.864	73.56
291.079	8.02
291.294	3.93
291.509	24.4
291.724	-26.79
291.938	-8.36
292.153	51.03
292.368	16.21
292.583	14.17
292.798	79.7
293.012	63.32
293.227	14.17
293.442	22.36
293.657	36.69
293.871	73.56
294.086	1.88
294.301	65.36
294.516	124.76
294.73	-28.84
294.945	69.46
295.16	1.88
295.374	75.6
295.589	108.37
295.804	30.55
296.018	57.17
296.233	81.75
296.447	1.88
296.662	-4.27
296.877	53.08
297.091	20.31
297.306	-51.37
297.52	22.36
297.735	10.07
297.949	16.21
298.164	77.65
298.378	24.4
298.593	-32.94
298.807	87.89
299.022	81.75
299.236	32.6
299.451	108.37
299.665	-10.41
299.88	44.88
300.094	3.93
300.309	30.55
300.523	57.17
300.737	-22.7
300.952	30.55
301.166	30.55
301.381	-14.51
301.595	-59.56
301.809	-24.75
302.024	46.93
302.238	-51.37
302.452	81.75
302.667	18.26
302.881	94.04
303.095	-59.56
303.309	71.51
303.524	-6.31
303.738	89.94
303.952	-39.08
304.166	75.6
304.381	5.97
304.595	104.28
304.809	-26.79
305.023	22.36
305.237	63.32
305.452	-4.27
305.666	24.4
305.88	108.37
306.094	118.61
306.308	16.21
306.522	71.51
306.736	57.17
306.95	65.36
307.164	38.74
307.379	1.88
307.593	79.7
307.807	38.74
308.021	48.98
308.235	28.5
308.449	-32.94
308.663	73.56
308.877	59.22
309.091	28.5
309.305	32.6
309.519	-55.47
309.733	34.64
309.947	51.03
310.161	102.23
310.374	96.08
310.588	83.8
310.802	-47.27
311.016	22.36
311.23	55.12
311.444	98.13
311.658	51.03
311.872	114.52
312.085	145.24
312.299	83.8
312.513	44.88
312.727	5.97
312.941	16.21
313.154	42.84
313.368	8.02
313.582	55.12
313.796	-2.22
314.009	48.98
314.223	75.6
314.437	89.94
314.651	-18.6
314.864	-37.03
315.078	75.6
315.292	65.36
315.505	85.84
315.719	124.76
315.933	73.56
316.146	34.64
316.36	-34.99
316.573	100.18
316.787	63.32
317.001	12.12
317.214	8.02
317.428	89.94
317.641	-59.56
317.855	36.69
318.068	32.6
318.282	28.5
318.495	83.8
318.709	69.46
318.922	71.51
319.136	104.28
319.349	130.9
319.563	14.17
319.776	8.02
319.99	5.97
320.203	44.88
320.417	53.08
320.63	-0.17
320.843	48.98
321.057	40.79
321.27	81.75
321.483	-12.46
321.697	46.93
321.91	61.27
322.124	71.51
322.337	-8.36
322.55	-24.75
322.763	18.26
322.977	24.4
323.19	-2.22
323.403	73.56
323.617	81.75
323.83	85.84
324.043	65.36
324.256	-4.27
324.469	22.36
324.683	48.98
324.896	73.56
325.109	30.55
325.322	-55.47
325.535	81.75
325.748	67.41
325.962	8.02
326.175	-2.22
326.388	24.4
326.601	10.07
326.814	-37.03
327.027	10.07
327.24	77.65
327.453	40.79
327.666	20.31
327.879	147.28
328.092	40.79
328.305	32.6
328.518	61.27
328.731	-84.14
328.944	28.5
329.157	22.36
329.37	-71.85
329.583	153.43
329.796	171.86
330.009	5.97
330.222	20.31
330.435	44.88
330.648	14.17
330.861	77.65
331.073	18.26
331.286	53.08
331.499	71.51
331.712	65.36
331.925	69.46
332.138	89.94
332.35	81.75
332.563	5.97
332.776	77.65
332.989	-6.31
333.202	3.93
333.414	20.31
333.627	-16.55
333.84	-34.99
334.053	10.07
334.265	-16.55
334.478	1.88
334.691	57.17
334.903	69.46
335.116	55.12
335.329	69.46
335.541	42.84
335.754	8.02
335.966	51.03
336.179	18.26
336.392	3.93
336.604	61.27
336.817	-4.27
337.029	30.55
337.242	-12.46
337.454	-4.27
337.667	79.7
337.88	151.38
338.092	-32.94
338.305	51.03
338.517	108.37
338.729	14.17
338.942	-12.46
339.154	24.4
339.367	-16.55
339.579	44.88
339.792	-2.22
340.004	46.93
340.217	32.6
340.429	73.56
340.641	-24.75
340.854	14.17
341.066	30.55
341.278	-6.31
341.491	85.84
341.703	63.32
341.915	5.97
342.128	79.7
342.34	-24.75
342.552	69.46
342.764	59.22
342.977	1.88
343.189	-37.03
343.401	-18.6
343.613	18.26
343.826	-0.17
344.038	36.69
344.25	67.41
344.462	87.89
344.674	67.41
344.886	48.98
345.099	34.64
345.311	24.4
345.523	-8.36
345.735	5.97
345.947	75.6
346.159	73.56
346.371	12.12
346.583	44.88
346.795	94.04
347.007	34.64
347.219	67.41
347.431	20.31
347.643	75.6
347.855	20.31
348.067	32.6
348.279	46.93
348.491	22.36
348.703	46.93
348.915	69.46
349.127	100.18
349.339	44.88
349.551	18.26
349.763	44.88
349.975	12.12
350.187	141.14
350.399	73.56
350.61	-18.6
350.822	73.56
351.034	51.03
351.246	-26.79
351.458	-4.27
351.669	1.88
351.881	53.08
352.093	-14.51
352.305	69.46
352.517	30.55
352.728	85.84
352.94	61.27
353.152	14.17
353.363	28.5
353.575	130.9
353.787	128.85
353.999	48.98
354.21	81.75
354.422	-20.65
354.633	61.27
354.845	-18.6
355.057	112.47
355.268	94.04
355.48	42.84
355.692	40.79
355.903	100.18
356.115	77.65
356.326	20.31
356.538	40.79
356.749	-2.22
356.961	16.21
357.172	53.08
357.384	22.36
357.595	124.76
357.807	100.18
358.018	-6.31
358.23	22.36
358.441	108.37
358.653	85.84
358.864	-22.7
359.075	3.93
359.287	63.32
359.498	42.84
359.709	61.27
359.921	63.32
360.132	89.94
360.344	87.89
360.555	3.93
360.766	22.36
360.977	57.17
361.189	38.74
361.4	34.64
361.611	67.41
361.823	28.5
362.034	51.03
362.245	30.55
362.456	-0.17
362.667	32.6
362.879	36.69
363.09	94.04
363.301	89.94
363.512	18.26
363.723	-6.31
363.935	-37.03
364.146	69.46
364.357	44.88
364.568	14.17
364.779	-22.7
364.99	81.75
365.201	32.6
365.412	114.52
365.623	-77.99
365.834	-0.17
366.045	-10.41
366.256	89.94
366.467	67.41
366.678	-10.41
366.889	128.85
367.1	126.8
367.311	128.85
367.522	1.88
367.733	18.26
367.944	63.32
368.155	14.17
368.366	24.4
368.577	83.8
368.788	108.37
368.999	20.31
369.209	20.31
369.42	110.42
369.631	186.19
369.842	94.04
370.053	63.32
370.264	22.36
370.474	-28.84
370.685	14.17
370.896	8.02
371.107	30.55
371.317	14.17
371.528	108.37
371.739	36.69
371.95	61.27
372.16	141.14
372.371	-16.55
372.582	36.69
372.792	63.32
373.003	104.28
373.214	51.03
373.424	67.41
373.635	-20.65
373.846	149.33
374.056	8.02
374.267	22.36
374.477	30.55
374.688	14.17
374.898	69.46
375.109	46.93
375.319	5.97
375.53	-6.31
375.74	73.56
375.951	26.45
376.161	57.17
376.372	40.79
376.582	-14.51
376.793	42.84
377.003	-16.55
377.214	53.08
377.424	151.38
377.635	79.7
377.845	18.26
378.055	81.75
378.266	36.69
378.476	112.47
378.686	73.56
378.897	46.93
379.107	28.5
379.317	61.27
379.528	65.36
379.738	81.75
379.948	44.88
380.158	135
380.369	-41.13
380.579	46.93
380.789	-0.17
380.999	75.6
381.21	100.18
381.42	96.08
381.63	26.45
381.84	100.18
382.05	8.02
382.261	-6.31
382.471	71.51
382.681	-51.37
382.891	75.6
383.101	20.31
383.311	8.02
383.521	36.69
383.731	61.27
383.941	8.02
384.151	110.42
384.361	44.88
384.571	42.84
384.781	12.12
384.991	61.27
385.201	106.32
385.411	20.31
385.621	18.26
385.831	79.7
386.041	8.02
386.251	139.09
386.461	46.93
386.671	20.31
386.881	12.12
387.091	26.45
387.301	42.84
387.511	83.8
387.72	28.5
387.93	73.56
388.14	-14.51
388.35	77.65
388.56	71.51
388.769	40.79
388.979	32.6
389.189	24.4
389.399	8.02
389.609	122.71
389.818	81.75
390.028	104.28
390.238	81.75
390.447	-6.31
390.657	81.75
390.867	-39.08
391.076	-2.22
391.286	24.4
391.496	77.65
391.705	112.47
391.915	32.6
392.125	87.89
392.334	85.84
392.544	73.56
392.753	102.23
392.963	30.55
393.172	59.22
393.382	1.88
393.591	83.8
393.801	10.07
394.01	147.28
394.22	57.17
394.429	85.84
394.639	10.07
394.848	16.21
395.058	65.36
395.267	12.12
395.477	87.89
395.686	59.22
395.895	143.19
396.105	114.52
396.314	118.61
396.524	118.61
396.733	24.4
396.942	141.14
397.152	71.51
397.361	98.13
397.57	83.8
397.78	36.69
397.989	83.8
398.198	120.66
398.407	104.28
398.617	89.94
398.826	16.21
399.035	126.8
399.244	89.94
399.453	57.17
399.663	48.98
399.872	94.04
400.081	89.94
400.29	135
400.499	79.7
400.708	87.89
400.917	34.64
401.127	44.88
401.336	8.02
401.545	155.47
401.754	85.84
401.963	147.28
402.172	106.32
402.381	79.7
402.59	8.02
402.799	126.8
403.008	91.99
403.217	186.19
403.426	153.43
403.635	69.46
403.844	87.89
404.053	102.23
404.262	173.91
404.471	145.24
404.68	149.33
404.888	34.64
405.097	126.8
405.306	145.24
405.515	106.32
405.724	188.24
405.933	141.14
406.142	104.28
406.35	208.72
406.559	216.91
406.768	184.15
406.977	159.57
407.185	126.8
407.394	91.99
407.603	137.04
407.812	192.34
408.02	116.56
408.229	153.43
408.438	94.04
408.646	161.62
408.855	151.38
409.064	214.87
409.272	210.77
409.481	333.65
409.69	157.52
409.898	214.87
410.107	218.96
410.315	243.54
410.524	204.63
410.733	261.97
410.941	339.79
411.15	354.13
411.358	261.97
411.567	257.87
411.775	319.31
411.984	315.22
412.192	292.69
412.401	423.76
412.609	378.7
412.818	415.57
413.026	360.27
413.234	356.18
413.443	311.12
413.651	388.94
413.86	405.33
414.068	415.57
414.276	462.67
414.485	448.33
414.693	548.68
414.901	556.88
415.11	587.6
415.318	520.01
415.526	501.58
415.734	606.03
415.943	569.16
416.151	626.51
416.359	675.66
416.567	642.89
416.776	714.57
416.984	685.9
417.192	745.29
417.4	687.95
417.608	665.42
417.817	765.77
418.025	751.43
418.233	978.76
418.441	776.01
418.649	866.12
418.857	933.7
419.065	964.42
419.273	978.76
419.481	986.95
419.689	1062.73
419.897	1079.11
420.105	1054.53
420.313	1156.93
420.521	1199.94
420.729	1199.94
420.937	1242.95
421.145	1371.97
421.353	1310.53
421.561	1412.93
421.769	1367.87
421.977	1494.85
422.185	1523.52
422.393	1627.96
422.601	1716.03
422.809	1673.02
423.017	1646.4
423.224	1752.89
423.432	1787.71
423.64	1734.46
423.848	2092.85
424.056	1906.49
424.263	2246.45
424.471	2139.96
424.679	2107.19
424.887	2240.31
425.094	2367.28
425.302	2289.46
425.51	2463.54
425.718	2506.54
425.925	2580.27
426.133	2529.07
426.341	2717.48
426.548	2780.97
426.756	2856.75
426.964	2836.27
427.171	3065.64
427.379	3180.32
427.586	3182.37
427.794	3299.11
428.001	3577.63
428.209	3649.31
428.417	3563.29
428.624	3813.15
428.832	3798.81
429.039	3753.76
429.247	3743.52
429.454	4099.86
429.662	4599.57
429.869	4103.96
430.076	4443.92
430.284	4146.97
430.491	4546.32
430.699	4785.93
430.906	4704.01
431.114	4894.47
431.321	5023.5
431.528	5218.05
431.736	5388.04
431.943	5646.08
432.15	5603.07
432.358	5623.55
432.565	5822.2
432.772	5787.39
432.979	6225.65
433.187	6211.32
433.394	6383.35
433.601	6786.8
433.808	6868.72
434.016	6835.95
434.223	6971.11
434.43	7386.85
434.637	7341.8
434.844	7945.95
435.052	8015.58
435.259	7904.99
435.466	7972.57
435.673	7720.67
435.88	8404.69
436.087	8861.39
436.294	8830.67
436.501	8441.56
436.708	8689.36
436.915	9139.91
437.122	9449.16
437.329	9549.51
437.537	9709.25
437.743	9912
437.95	9948.86
438.157	10280.63
438.364	10782.38
438.571	10544.82
438.778	10694.32
438.985	11630.24
439.192	11419.3
439.399	11775.65
439.606	11400.87
439.813	12088.99
440.02	12822.16
440.227	12637.84
440.433	12465.82
440.64	12748.43
440.847	12949.14
441.054	12967.57
441.261	13956.74
441.467	13928.06
441.674	14184.06
441.881	14630.52
442.088	14601.85
442.294	14610.04
442.501	14915.19
442.708	15275.63
442.914	15711.85
443.121	16453.21
443.328	16100.96
443.534	17253.97
443.741	16318.04
443.948	16356.96
444.154	17595.98
444.361	17495.63
444.568	17614.41
444.774	17618.5
444.981	17745.48
445.187	18230.85
445.394	19146.29
445.6	18773.56
445.807	20919.83
446.013	19926.57
446.22	20012.58
446.426	20960.79
446.633	21014.04
446.839	21917.19
447.046	21278.22
447.252	22115.84
447.459	22611.45
447.665	22070.79
447.871	23084.53
448.078	24063.46
448.284	22822.39
448.491	23705.07
448.697	24430.05
448.903	24927.7
449.11	24985.05
449.316	24667.61
449.522	25419.22
449.728	25538
449.935	25732.56
450.141	25771.47
450.347	26439.11
450.553	25302.48
450.76	25855.43
450.966	27020.73
451.172	26377.67
451.378	27385.27
451.584	26903.99
451.791	27151.8
451.997	27522.48
452.203	27614.64
452.409	27944.36
452.615	27616.69
452.821	26596.8
453.027	26695.1
453.233	28065.19
453.44	26754.49
453.646	27219.38
453.852	27127.22
454.058	27682.22
454.264	26451.39
454.47	27280.82
454.676	26475.97
454.882	27297.2
455.088	25193.94
455.294	25734.6
455.5	25765.32
455.705	25972.17
455.911	25230.8
456.117	24579.55
456.323	24200.68
456.529	23201.27
456.735	23676.4
456.941	23293.43
457.147	23019
457.352	22253.06
457.558	22021.64
457.764	22050.31
457.97	21771.79
458.176	21298.7
458.381	21167.63
458.587	20346.4
458.793	20248.1
458.999	19244.59
459.204	20413.98
459.41	19891.75
459.616	18726.46
459.821	18710.07
460.027	18572.86
460.233	17940.04
460.438	17264.21
460.644	17628.74
460.85	16541.27
461.055	16359
461.261	16356.96
461.466	15255.15
461.672	14698.1
461.878	15629.93
462.083	14636.66
462.289	14235.26
462.494	14147.2
462.7	13747.84
462.905	13407.88
463.111	13559.43
463.316	13913.73
463.522	13588.1
463.727	13424.26
463.932	13454.98
464.138	13350.54
464.343	13332.11
464.549	12893.84
464.754	13457.03
464.959	13299.34
465.165	13264.52
465.37	12629.65
465.575	12322.46
465.781	12555.93
465.986	12998.29
466.191	12459.67
466.397	12115.61
466.602	11507.37
466.807	11839.14
467.012	12054.17
467.218	11927.2
467.423	11849.38
467.628	11906.72
467.833	12447.38
468.038	11843.23
468.244	11685.54
468.449	12232.35
468.654	11734.69
468.859	11644.58
469.064	11699.87
469.269	10921.65
469.474	11122.35
469.679	11587.24
469.885	11022
470.09	11161.26
470.295	11083.44
470.5	10837.68
470.705	10946.22
470.91	10561.2
471.115	10608.31
471.32	10901.17
471.525	10835.63
471.73	10589.88
471.935	10428.09
472.139	10036.92
472.344	10102.46
472.549	10104.51
472.754	10016.44
472.959	9684.67
473.164	9563.84
473.369	9486.02
473.574	9944.77
473.778	9629.38
473.983	9451.21
474.188	9547.46
474.393	9086.67
474.598	9283.27
474.802	9250.5
475.007	8902.35
475.212	9094.86
475.417	8795.86
475.621	8785.62
475.826	8931.02
476.031	8582.87
476.235	8367.83
476.44	8703.7
476.645	8183.51
476.849	8464.08
477.054	8290.01
477.259	8244.95
477.463	8126.17
477.668	7902.94
477.872	8066.78
478.077	7859.93
478.282	7673.57
478.486	7696.1
478.691	7780.06
478.895	7589.6
479.1	7470.82
479.304	7757.53
479.509	7292.65
479.713	7522.02
479.918	7384.8
480.122	7261.93
480.326	7327.46
480.531	7335.65
480.735	7050.99
480.94	7233.25
481.144	7399.14
481.348	7065.32
481.553	7159.53
481.757	6946.54
481.961	6985.45
482.166	7145.19
482.37	7040.75
482.574	7157.48
482.778	6938.35
482.983	7163.62
483.187	7141.1
483.391	7007.98
483.595	7036.65
483.8	6891.24
484.004	7143.14
484.208	7042.79
484.412	7059.18
484.616	6991.59
484.821	7104.23
485.025	7026.41
485.229	7020.27
485.433	7104.23
485.637	7007.98
485.841	7139.05
486.045	7196.39
486.249	7014.12
486.453	6754.03
486.657	6919.92
486.861	7057.13
487.065	6866.67
487.269	6969.07
487.473	6856.43
487.677	7048.94
487.881	6958.83
488.085	6936.3
488.289	7157.48
488.493	7116.52
488.697	7059.18
488.901	7022.31
489.105	7001.83
489.309	7089.9
489.512	7237.35
489.716	7202.54
489.92	7048.94
490.124	7223.02
490.328	7296.74
490.531	7171.82
490.735	7257.83
490.939	7223.02
491.143	7010.03
491.346	7206.63
491.55	7440.1
491.754	7282.41
491.958	7268.07
492.161	7438.05
492.365	7450.34
492.569	7384.8
492.772	7503.59
492.976	7421.67
493.18	7706.34
493.383	7720.67
493.587	7663.33
493.79	7814.88
493.994	7710.43
494.197	7722.72
494.401	7833.31
494.605	7745.25
494.808	7884.51
495.012	7808.73
495.215	8144.6
495.419	7945.95
495.622	7915.23
495.825	8234.71
496.029	8238.81
496.232	8371.93
496.436	8269.53
496.639	8670.93
496.843	8636.11
497.046	8515.28
497.249	8812.24
497.453	8849.1
497.656	8859.34
497.859	8845.01
498.063	9072.33
498.266	9246.41
498.469	9131.72
498.673	9154.25
498.876	9221.83
499.079	9443.01
499.282	9379.53
499.485	9875.13
499.689	9838.27
499.892	9952.96
500.095	9909.95
500.298	10159.8
500.501	10137.27
500.705	10393.27
500.908	10505.91
501.111	10579.64
501.314	10612.4
501.517	10634.93
501.72	10960.56
501.923	10950.32
502.126	11251.37
502.329	11318.95
502.532	11513.51
502.735	11488.93
502.938	11814.56
503.141	11589.28
503.344	11886.24
503.547	11832.99
503.75	12234.39
503.953	12164.76
504.156	12461.72
504.359	12723.86
504.562	12537.49
504.765	12813.97
504.968	13158.03
505.17	13293.19
505.373	13287.05
505.576	13512.33
505.779	13651.59
505.982	13856.39
506.185	13981.31
506.387	13923.97
506.59	14065.28
506.793	14444.15
506.996	14374.52
507.198	14841.46
507.401	14831.22
507.604	14878.32
507.807	15345.26
508.009	15421.03
508.212	15339.12
508.415	15806.05
508.617	15789.67
508.82	15984.23
509.022	16219.74
509.225	16653.91
509.428	16617.05
509.63	16344.67
509.833	16709.21
510.035	17364.56
510.238	17096.27
510.44	17256.01
510.643	17616.46
510.845	17743.43
511.048	17768.01
511.25	17997.38
511.453	18292.29
511.655	18697.78
511.858	18568.76
512.06	18826.81
512.262	19297.84
512.465	18966.07
512.667	19406.38
512.87	19703.34
513.072	20039.2
513.274	20432.41
513.477	20094.5
513.679	20581.92
513.881	20620.83
514.084	20989.46
514.286	21075.48
514.488	21290.51
514.69	21814.79
514.893	21812.74
515.095	22162.95
515.297	22337.02
515.499	22818.3
515.701	22889.98
515.904	22935.03
516.106	23096.82
516.308	23420.4
516.51	23680.49
516.712	23682.54
516.914	23959.02
517.116	24546.78
517.318	24546.78
517.52	24716.76
517.722	24835.55
517.925	25302.48
518.127	25456.08
518.329	25949.64
518.531	25613.77
518.733	25910.73
518.935	26502.59
519.136	26721.73
519.338	26908.09
519.54	27073.98
519.742	27436.47
519.944	27377.08
520.146	28097.96
520.348	28149.16
520.55	28376.48
520.752	28616.1
520.954	29056.41
521.155	28714.4
521.357	29431.19
521.559	29689.23
521.761	30279.05
521.963	29967.76
522.164	30360.97
522.366	30190.98
522.568	30911.87
522.77	30619.01
522.971	31288.7
523.173	31214.97
523.375	31729.01
523.576	31716.72
523.778	31604.08
523.98	32335.21
524.181	32456.04
524.383	32533.86
524.584	32904.54
524.786	33041.76
524.988	32892.26
525.189	33553.75
525.391	33453.4
525.592	33860.94
525.794	34147.66
525.995	34067.79
526.197	33957.2
526.398	34151.76
526.6	34663.75
526.801	34864.45
527.003	34981.18
527.204	35108.16
527.406	35104.06
527.607	35589.43
527.808	35525.94
528.01	35388.73
528.211	35460.41
528.412	36195.63
528.614	36132.14
528.815	36248.88
529.016	36400.43
529.218	36181.29
529.419	36422.95
529.62	36691.24
529.822	36660.52
530.023	36605.22
530.224	36619.56
530.425	36941.09
530.626	36468.01
530.828	36658.47
531.029	37467.42
531.23	37063.97
531.431	37256.48
531.632	37391.64
531.833	37491.99
532.035	36971.81
532.236	37522.71
532.437	37713.17
532.638	37471.51
532.839	37604.63
533.04	37897.49
533.241	37375.26
533.442	38096.14
533.643	37645.59
533.844	38069.52
534.045	37625.11
534.246	37981.46
534.447	38100.24
534.648	37768.47
534.849	37991.7
535.05	37410.07
535.251	37891.35
535.451	37803.28
535.652	38161.68
535.853	38020.37
536.054	38073.62
536.255	38479.11
536.456	38016.27
536.657	38307.08
536.857	38038.8
537.058	38259.98
537.259	38262.03
537.46	38415.63
537.66	37782.8
537.861	38352.14
538.062	37805.33
538.263	38341.9
538.463	38161.68
538.664	38292.75
538.865	38321.42
539.065	38255.89
539.266	38182.16
539.466	38372.62
539.667	37915.92
539.868	38604.04
540.068	38376.72
540.269	38194.45
540.469	38415.63
540.67	38227.21
540.87	37924.11
541.071	37885.2
541.271	38102.29
541.472	38106.38
541.672	38151.44
541.873	38073.62
542.073	37313.82
542.274	38343.95
542.474	37917.97
542.675	37952.79
542.875	38294.8
543.075	38202.64
543.276	37731.61
543.476	38112.53
543.676	37758.23
543.877	37960.98
544.077	38094.1
544.277	37905.68
544.478	38300.94
544.678	38264.08
544.878	38061.33
545.078	37827.86
545.279	38092.05
545.479	37590.3
545.679	38008.08
545.879	37944.59
546.079	37831.96
546.28	37877.01
546.48	37922.07
546.68	38065.42
546.88	38022.42
547.08	38065.42
547.28	38147.34
547.48	37649.69
547.68	38075.66
547.88	37657.88
548.081	37854.48
548.281	38137.1
548.481	37469.47
548.681	38589.7
548.881	37461.27
549.081	37956.88
549.28	37844.24
549.48	38081.81
549.68	38006.03
549.88	38472.97
550.08	37772.56
550.28	38116.62
550.48	37741.85
550.68	37889.3
550.88	37713.17
551.08	37823.76
551.279	37772.56
551.479	38001.94
551.679	37616.92
551.879	37588.25
552.079	37498.14
552.278	37373.21
552.478	37932.31
552.678	37543.19
552.878	38391.05
553.077	37913.87
553.277	37377.31
553.477	37645.59
553.676	37629.21
553.876	37467.42
554.076	37688.6
554.275	37543.19
554.475	36779.3
554.674	37440.79
554.874	37698.84
555.074	37477.66
555.273	37528.86
555.473	37791
555.672	37104.93
555.872	37604.63
556.071	36988.19
556.271	37692.69
556.47	37233.95
556.67	36908.32
556.869	37154.08
557.068	37172.51
557.268	36818.21
557.467	37037.34
557.667	36640.04
557.866	36594.98
558.065	36605.22
558.265	36281.64
558.464	36562.22
558.663	36351.27
558.863	36689.19
559.062	36994.34
559.261	35939.63
559.461	37016.86
559.66	35857.71
559.859	36156.72
560.058	35687.73
560.258	36218.16
560.457	35900.72
560.656	36164.91
560.855	35693.88
561.054	35953.97
561.253	35360.06
561.453	35687.73
561.652	35640.63
561.851	36007.22
562.05	35441.98
562.249	35169.6
562.448	35800.37
562.647	35466.55
562.846	35439.93
563.045	35034.43
563.244	34698.56
563.443	35304.76
563.642	34696.52
563.841	34772.29
564.04	34608.45
564.239	35231.04
564.438	34471.24
564.637	34708.8
564.836	34696.52
565.035	33961.3
565.234	34205
565.432	34319.69
565.631	34039.12
565.83	34065.74
566.029	33805.65
566.228	33912.14
566.427	33592.66
566.625	33803.6
566.824	33150.3
567.023	33654.1
567.222	32861.54
567.42	33545.56
567.619	33129.82
567.818	33135.96
568.016	33162.59
568.215	33453.4
568.414	32658.79
568.612	32834.91
568.811	32587.11
569.01	32578.92
569.208	32075.12
569.407	32709.99
569.605	32093.55
569.804	32843.1
570.002	31659.38
570.201	32197.99
570.4	31864.18
570.598	31599.99
570.797	31487.35
570.995	31577.46
571.193	31153.53
571.392	31550.84
571.59	31239.54
571.789	31395.19
571.987	31292.79
572.186	31245.69
572.384	30870.91
572.582	31073.66
572.781	30948.73
572.979	30752.13
573.177	30735.74
573.376	30619.01
573.574	30211.46
573.772	30399.88
573.971	30156.17
574.169	30414.21
574.367	29896.08
574.565	29842.83
574.763	29906.32
574.962	29896.08
575.16	29246.87
575.358	29595.03
575.556	29275.54
575.754	29652.37
575.952	29169.05
576.151	29375.89
576.349	28939.68
576.547	28943.77
576.745	29003.16
576.943	29035.93
577.141	28771.74
577.339	28972.44
577.537	28906.91
577.735	28507.55
577.933	28544.42
578.131	28562.85
578.329	28323.24
578.527	27975.08
578.725	28128.68
578.923	28243.37
579.121	27682.22
579.319	27362.74
579.516	27887.02
579.714	27815.34
579.912	27661.74
580.11	27436.47
580.308	27147.7
580.506	27254.2
580.704	27299.25
580.901	27411.89
581.099	27284.92
581.297	27006.39
581.495	26944.95
581.692	26740.16
581.89	26555.84
582.088	26664.38
582.285	26887.61
582.483	27006.39
582.681	26695.1
582.878	26500.54
583.076	26349
583.274	26328.52
583.471	26129.86
583.669	26236.36
583.866	26078.66
584.064	26174.92
584.262	25705.93
584.459	26066.38
584.657	25662.93
584.854	25945.55
585.052	25462.22
585.249	25611.73
585.447	25701.84
585.644	25339.35
585.841	25415.12
586.039	25603.53
586.236	25109.97
586.434	24864.22
586.631	25169.37
586.828	25013.72
587.026	25148.89
587.223	24710.62
587.42	24540.64
587.618	24612.32
587.815	24483.3
588.012	24442.34
588.21	24290.79
588.407	24612.32
588.604	24153.57
588.801	24141.28
588.999	24034.79
589.196	23809.51
589.393	23973.35
589.59	23922.15
589.787	23819.75
589.984	23905.77
590.182	23416.3
590.379	23574
590.576	23428.59
590.773	23651.82
590.97	23434.74
591.167	23545.33
591.364	22744.57
591.561	23219.7
591.758	23111.16
591.955	23029.24
592.152	22887.93
592.349	22806.01
592.546	22949.37
592.743	22681.08
592.94	22365.7
593.137	22613.5
593.334	22861.3
593.531	22611.45
593.727	22326.78
593.924	22730.23
594.121	22027.78
594.318	22613.5
594.515	21982.73
594.712	22115.84
594.908	22124.04
595.105	22015.49
595.302	21693.96
595.499	22152.71
595.696	21818.89
595.892	21487.12
596.089	21769.74
596.286	21841.42
596.482	21601.8
596.679	21497.36
596.876	21616.14
597.072	21528.08
597.269	21198.35
597.466	21282.32
597.662	21128.72
597.859	20944.41
598.055	20925.97
598.252	20913.69
598.448	21241.36
598.645	20712.99
598.841	20493.85
599.038	20864.53
599.234	20678.17
599.431	20741.66
599.627	20559.39
599.824	20639.26
600.02	20022.82
600.217	20334.11
600.413	20307.49
600.609	20471.32
600.806	19869.22
601.002	20327.97
601.198	19621.42
601.395	19961.38
601.591	19885.61
601.787	19963.43
601.984	19742.25
602.18	19953.19
602.376	19772.97
602.572	19533.36
602.769	19355.18
602.965	19289.65
603.161	19373.61
603.357	19414.57
603.553	19443.24
603.75	19398.19
603.946	19254.83
604.142	18992.69
604.338	19054.13
604.534	19164.72
604.73	18878.01
604.926	18949.68
605.122	18959.92
605.318	18748.98
605.514	18744.89
605.71	18587.19
605.906	18503.23
606.102	18503.23
606.298	18470.46
606.494	18675.26
606.69	18230.85
606.886	18579
607.082	18052.67
607.278	18257.47
607.474	18226.75
607.67	18282.05
607.866	18011.71
608.062	18103.87
608.257	18216.51
608.453	17786.44
608.649	18079.3
608.845	17538.63
609.041	17792.58
609.236	17985.09
609.432	17706.57
609.628	17827.4
609.824	17559.11
610.019	17550.92
610.215	17620.55
610.411	17561.16
610.606	17444.43
610.802	17571.4
610.998	17419.85
611.193	17534.54
611.389	17415.76
611.584	17364.56
611.78	17215.05
611.976	17200.72
612.171	17133.14
612.367	17104.46
612.562	16809.56
612.758	16719.45
612.953	16780.89
613.149	16938.58
613.344	16750.17
613.539	16946.77
613.735	16672.34
613.93	16754.26
614.126	16989.78
614.321	17090.13
614.517	16782.93
614.712	16774.74
614.907	16866.9
615.103	16524.89
615.298	16649.82
615.493	16232.03
615.688	16186.97
615.884	16690.77
616.079	16424.54
616.274	16361.05
616.47	16264.8
616.665	16313.95
616.86	16094.82
617.055	16254.56
617.25	16174.69
617.445	16322.14
617.641	15861.35
617.836	16014.94
618.031	15875.68
618.226	16109.15
618.421	15996.51
618.616	16006.75
618.811	15627.88
619.006	16023.14
619.201	15713.89
619.396	15550.06
619.591	15404.65
619.786	15640.17
619.981	15148.65
620.176	15429.23
620.371	14921.33
620.566	15351.4
620.761	15056.5
620.956	15365.74
621.151	14919.28
621.346	15093.36
621.541	14835.31
621.735	15054.45
621.93	14605.94
622.125	14665.33
622.32	14235.26
622.515	14421.63
622.709	14290.56
622.904	14675.57
623.099	14276.22
623.294	14456.44
623.488	14413.43
623.683	14065.28
623.878	13948.54
624.072	13962.88
624.267	13934.21
624.462	13526.66
624.656	13627.01
624.851	13672.07
625.046	13647.49
625.24	13459.08
625.435	13340.3
625.629	13465.22
625.824	13190.8
626.018	13336.2
626.213	12875.41
626.407	12899.98
626.602	12973.71
626.796	13108.88
626.991	12656.28
627.185	12818.07
627.38	12598.93
627.574	12531.35
627.768	12603.03
627.963	12508.82
628.157	12283.55
628.352	12232.35
628.546	12228.25
628.74	12209.82
628.935	12367.51
629.129	12387.99
629.323	12074.65
629.517	11837.09
629.712	11777.7
629.906	11759.27
630.1	11646.63
630.294	11880.1
630.489	11603.62
630.683	11740.83
630.877	11378.34
631.071	11599.52
631.265	11624.1
631.459	11429.54
631.653	11267.75
631.848	11312.81
632.042	11277.99
632.236	11271.85
632.43	10940.08
632.624	11105.96
632.818	10915.5
633.012	10884.78
633.206	10751.67
633.4	10874.54
633.594	10608.31
633.788	10903.21
633.982	10776.24
634.176	10710.71
634.369	10516.15
634.563	10819.25
634.757	10417.85
634.951	10266.3
635.145	10325.69
635.339	10245.82
635.533	10170.04
635.726	10143.42
635.92	10000.06
636.114	9965.25
636.308	9985.72
636.501	9930.43
636.695	9961.15
636.889	9633.47
637.083	9711.3
637.276	9547.46
637.47	9778.88
637.664	9545.41
637.857	9535.17
638.051	9524.93
638.244	9545.41
638.438	9522.88
638.632	9342.66
638.825	9285.32
639.019	9187.02
639.212	9094.86
639.406	9058
639.599	9076.43
639.793	9162.44
639.986	8918.73
640.18	9066.19
640.373	8888.01
640.567	8804.05
640.76	9021.13
640.954	9002.7
641.147	8642.26
641.34	8580.82
641.534	8644.31
641.727	8584.91
641.92	8558.29
642.114	8572.63
642.307	8470.23
642.5	8507.09
642.694	8105.69
642.887	8197.85
643.08	8292.05
643.273	8357.59
643.467	8363.73
643.66	8048.35
643.853	8087.26
644.046	8091.35
644.239	8044.25
644.432	7706.34
644.626	7747.3
644.819	7818.97
645.012	7960.28
645.205	7724.77
645.398	7681.76
645.591	7839.45
645.784	7821.02
645.977	7612.13
646.17	7663.33
646.363	7577.31
646.556	7591.65
646.749	7335.65
646.942	7431.91
647.135	7409.38
647.328	7366.37
647.521	7309.03
647.714	7200.49
647.907	7196.39
648.099	7104.23
648.292	7077.61
648.485	6973.16
648.678	7081.71
648.871	7112.42
649.064	7001.83
649.256	7036.65
649.449	6975.21
649.642	6770.41
649.835	6762.22
650.027	6708.97
650.22	6639.34
650.413	6665.97
650.605	6663.92
650.798	6708.97
650.991	6573.81
651.183	6584.05
651.376	6520.56
651.568	6485.75
651.761	6416.12
651.954	6471.41
652.146	6440.69
652.339	6301.43
652.531	6438.64
652.724	6297.33
652.916	6174.46
653.109	6182.65
653.301	6321.91
653.494	6088.44
653.686	6057.72
653.879	6141.69
654.071	6190.84
654.263	6076.15
654.456	6135.54
654.648	6084.34
654.84	5926.65
655.033	5908.22
655.225	5832.44
655.417	5828.35
655.61	5873.4
655.802	5820.16
655.994	5789.44
656.186	5760.77
656.379	5648.13
656.571	5723.9
656.763	5535.49
656.955	5488.39
657.148	5697.28
657.34	5488.39
657.532	5302.02
657.724	5584.64
657.916	5527.3
658.108	5517.06
658.3	5373.7
658.492	5338.88
658.684	5320.45
658.876	5453.57
659.068	5189.38
659.26	5173
659.452	5205.77
659.644	5291.78
659.836	5216.01
660.028	5142.28
660.22	5164.81
660.412	5035.78
660.604	5072.65
660.796	5148.42
660.988	5086.98
661.18	5082.89
661.372	4984.59
661.563	5134.09
661.755	4927.24
661.947	4873.99
662.139	4927.24
662.331	4906.76
662.522	4818.7
662.714	4771.6
662.906	4910.86
663.097	4603.66
663.289	4685.58
663.481	4806.41
663.673	4824.84
663.864	4857.61
664.056	4724.49
664.247	4642.57
664.439	4566.8
664.631	4667.15
664.822	4671.25
665.014	4568.85
665.205	4687.63
665.397	4501.26
665.588	4636.43
665.78	4556.56
665.971	4529.94
666.163	4255.51
666.354	4527.89
666.546	4278.04
666.737	4302.61
666.929	4427.54
667.12	4319
667.311	4366.1
667.503	4323.09
667.694	4402.96
667.885	4386.58
668.077	4462.35
668.268	4257.56
668.459	4214.55
668.651	4204.31
668.842	4165.4
669.033	4218.64
669.224	4179.73
669.416	4298.52
669.607	4269.84
669.798	4110.1
669.989	4226.84
670.18	4142.87
670.371	4187.93
670.563	4151.06
670.754	4263.7
670.945	4126.49
671.136	4224.79
671.327	4026.14
671.518	4149.01
671.709	4101.91
671.9	3956.5
672.091	4060.95
672.282	4071.19
672.473	3985.18
672.664	4087.57
672.855	3927.83
673.046	4065.05
673.237	3989.27
673.428	3862.3
673.619	4052.76
673.809	3888.92
674	3884.83
674.191	3938.07
674.382	3813.15
674.573	3933.98
674.764	3954.46
674.954	3858.2
675.145	3976.98
675.336	3880.73
675.527	3872.54
675.717	4028.18
675.908	3792.67
676.099	3792.67
676.289	3819.29
676.48	3841.82
676.671	3749.66
676.861	3854.11
677.052	3831.58
677.243	3747.61
677.433	3802.91
677.624	3720.99
677.814	3755.8
678.005	3827.48
678.195	3888.92
678.386	3800.86
678.576	3815.2
678.767	3739.42
678.957	3796.76
679.148	3807
679.338	3845.91
679.529	3874.59
679.719	3884.83
679.909	3888.92
680.1	3753.76
680.29	3780.38
680.481	3688.22
680.671	3860.25
680.861	3841.82
681.052	3745.56
681.242	3688.22
681.432	3665.69
681.622	3821.34
681.813	3823.39
682.003	3712.8
682.193	3680.03
682.383	3751.71
682.573	3827.48
682.764	3753.76
682.954	3759.9
683.144	3841.82
683.334	3714.84
683.524	3831.58
683.714	3682.08
683.904	3792.67
684.094	3649.31
684.284	3610.4
684.474	3759.9
684.664	3749.66
684.854	3825.43
685.044	3798.81
685.234	3575.58
685.424	3641.12
685.614	3743.52
685.804	3710.75
685.994	3743.52
686.184	3684.13
686.374	3606.3
686.564	3667.74
686.753	3686.17
686.943	3473.18
687.133	3464.99
687.323	3448.61
687.513	3651.36
687.702	3518.24
687.892	3385.12
688.082	3352.35
688.272	3673.89
688.461	3540.77
688.651	3575.58
688.841	3288.87
689.03	3458.85
689.22	3391.27
689.41	3383.07
689.599	3438.37
689.789	3512.1
689.979	3448.61
690.168	3331.87
690.358	3485.47
690.547	3282.72
690.737	3299.11
690.926	3309.35
691.116	3204.9
691.305	3278.63
691.495	3206.95
691.684	3211.04
691.874	3149.61
692.063	3338.02
692.252	3176.23
692.442	3182.37
692.631	2973.48
692.82	3233.57
693.01	3098.41
693.199	3231.52
693.388	3071.78
693.578	3032.87
693.767	3127.08
693.956	3153.7
694.146	3057.45
694.335	2905.9
694.524	2977.58
694.713	2996.01
694.902	2989.86
695.092	3002.15
695.281	3024.68
695.47	2893.61
695.659	3022.63
695.848	2991.91
696.037	2967.34
696.226	2987.82
696.415	2891.56
696.604	3063.59
696.793	3012.39
696.982	2828.07
697.171	2959.14
697.36	2899.75
697.549	2971.43
697.738	2846.51
697.927	2907.94
698.116	2711.34
698.305	2922.28
698.494	2871.08
698.683	2848.55
698.872	2914.09
699.061	2834.22
699.25	2924.33
699.438	2903.85
699.627	2862.89
699.816	2801.45
700.005	2856.75
700.193	2928.42
700.382	2905.9
700.571	2858.79
700.76	2817.83
700.948	2926.38
701.137	2842.41
701.326	2897.71
701.514	2918.18
701.703	2924.33
701.892	2838.31
702.08	2791.21
702.269	2897.71
702.457	2905.9
702.646	2836.27
702.834	2895.66
703.023	2989.86
703.212	2862.89
703.4	2916.14
703.589	2957.1
703.777	2819.88
703.965	2737.96
704.154	2811.69
704.342	2920.23
704.531	2817.83
704.719	2875.18
704.907	2957.1
705.096	2848.55
705.284	2866.99
705.472	2930.47
705.661	2821.93
705.849	2946.86
706.037	2826.03
706.226	2924.33
706.414	2979.62
706.602	3053.35
706.79	2973.48
706.979	2963.24
707.167	3036.97
707.355	2916.14
707.543	2981.67
707.731	2801.45
707.919	2901.8
708.107	2875.18
708.296	2903.85
708.484	2934.57
708.672	2957.1
708.86	2912.04
709.048	3053.35
709.236	2942.76
709.424	3032.87
709.612	2912.04
709.8	2852.65
709.988	2973.48
710.176	2918.18
710.364	2971.43
710.551	3014.44
710.739	2897.71
710.927	2823.98
711.115	2903.85
711.303	3022.63
711.491	3051.3
711.679	2828.07
711.866	3010.34
712.054	3053.35
712.242	2985.77
712.43	3114.79
712.617	3059.49
712.805	2977.58
712.993	2993.96
713.181	2901.8
713.368	3098.41
713.556	3039.01
713.744	2914.09
713.931	3069.73
714.119	3059.49
714.306	3073.83
714.494	2950.95
714.682	3098.41
714.869	3104.55
715.057	3032.87
715.244	3022.63
715.432	3041.06
715.619	2969.38
715.807	3129.13
715.994	2977.58
716.182	2944.81
716.369	3114.79
716.556	3116.84
716.744	3018.54
716.931	3057.45
717.119	3147.56
717.306	3026.73
717.493	3137.32
717.681	3231.52
717.868	3213.09
718.055	3219.24
718.242	3204.9
718.43	3170.08
718.617	3254.05
718.804	3067.69
718.991	3192.61
719.179	3122.98
719.366	3082.02
719.553	3133.22
719.74	3225.38
719.927	3063.59
720.114	3247.91
720.301	3172.13
720.488	3235.62
720.676	3125.03
720.863	3200.8
721.05	3297.06
721.237	3090.21
721.424	3141.41
721.611	3295.01
721.798	3178.28
721.985	3249.96
722.172	3223.33
722.358	3108.65
722.545	3174.18
722.732	3065.64
722.919	3141.41
723.106	3280.68
723.293	3174.18
723.48	3393.31
723.667	3139.37
723.853	3297.06
724.04	3329.83
724.227	3268.39
724.414	3282.72
724.6	3374.88
724.787	3272.48
724.974	3430.18
725.161	3282.72
725.347	3231.52
725.534	3272.48
725.72	3327.78
725.907	3354.4
726.094	3327.78
726.28	3282.72
726.467	3227.43
726.653	3356.45
726.84	3444.51
727.027	3368.74
727.213	3192.61
727.4	3317.54
727.586	3389.22
727.773	3297.06
727.959	3256.1
728.145	3221.28
728.332	3344.16
728.518	3372.83
728.705	3555.1
728.891	3315.49
729.077	3340.07
729.264	3530.53
729.45	3444.51
729.636	3391.27
729.823	3391.27
730.009	3284.77
730.195	3538.72
730.382	3467.04
730.568	3338.02
730.754	3340.07
730.94	3430.18
731.126	3561.25
731.313	3518.24
731.499	3487.52
731.685	3485.47
731.871	3231.52
732.057	3378.98
732.243	3487.52
732.429	3497.76
732.615	3471.14
732.801	3444.51
732.987	3481.38
733.173	3440.42
733.359	3415.84
733.545	3520.29
733.731	3438.37
733.917	3493.66
734.103	3532.58
734.289	3387.17
734.475	3354.4
734.661	3493.66
734.847	3467.04
735.033	3469.09
735.219	3452.7
735.404	3491.62
735.59	3567.39
735.776	3440.42
735.962	3512.1
736.148	3524.38
736.333	3528.48
736.519	3323.68
736.705	3479.33
736.89	3497.76
737.076	3372.83
737.262	3362.59
737.447	3559.2
737.633	3417.89
737.819	3376.93
738.004	3399.46
738.19	3432.22
738.375	3446.56
738.561	3503.9
738.747	3415.84
738.932	3417.89
739.118	3450.66
739.303	3436.32
739.489	3438.37
739.674	3391.27
739.859	3364.64
740.045	3262.24
740.23	3426.08
740.416	3458.85
740.601	3493.66
740.786	3264.29
740.972	3405.6
741.157	3282.72
741.342	3249.96
741.528	3344.16
741.713	3264.29
741.898	3131.17
742.084	3329.83
742.269	3417.89
742.454	3321.63
742.639	3266.34
742.824	3360.55
743.01	3364.64
743.195	3389.22
743.38	3223.33
743.565	3217.19
743.75	3264.29
743.935	3073.83
744.12	3252
744.305	3094.31
744.49	3155.75
744.675	3352.35
744.86	3243.81
745.045	3108.65
745.23	3243.81
745.415	3120.93
745.6	3249.96
745.785	3127.08
745.97	3190.56
746.155	3026.73
746.34	2963.24
746.525	3057.45
746.71	3069.73
746.895	3028.78
747.079	3057.45
747.264	2959.14
747.449	2961.19
747.634	2987.82
747.819	2961.19
748.003	2840.36
748.188	2918.18
748.373	2891.56
748.557	2957.1
748.742	2844.46
748.927	2914.09
749.111	2805.55
749.296	2860.84
749.481	2690.86
749.665	2848.55
749.85	2737.96
750.034	2760.49
750.219	2774.83
750.404	2850.6
750.588	2766.64
750.773	2565.93
750.957	2594.61
751.141	2557.74
751.326	2658.09
751.51	2676.52
751.695	2625.33
751.879	2643.76
752.064	2613.04
752.248	2615.09
752.432	2699.05
752.617	2563.89
752.801	2565.93
752.985	2522.93
753.17	2524.97
753.354	2479.92
753.538	2490.16
753.722	2367.28
753.907	2402.1
754.091	2416.43
754.275	2326.32
754.459	2350.9
754.643	2287.41
754.828	2375.47
755.012	2238.26
755.196	2389.81
755.38	2336.56
755.564	2271.03
755.748	2262.83
755.932	2369.33
756.116	2137.91
756.3	2180.92
756.484	2285.36
756.668	2144.05
756.852	2117.43
757.036	2207.54
757.22	2172.72
757.404	2162.48
757.588	2092.85
757.772	2195.25
757.956	2125.62
758.14	2072.37
758.323	2068.28
758.507	2074.42
758.691	2101.05
758.875	2035.51
759.059	1937.21
759.242	1957.69
759.426	1992.5
759.61	1978.17
759.794	1980.22
759.977	1945.4
760.161	2012.98
760.345	1967.93
760.528	1906.49
760.712	1908.54
760.895	1916.73
761.079	1881.91
761.263	1832.76
761.446	1875.77
761.63	1840.95
761.813	1843
761.997	1785.66
762.18	1812.28
762.364	1828.67
762.547	1756.99
762.731	1726.27
762.914	1824.57
763.098	1709.88
763.281	1804.09
763.464	1775.42
763.648	1773.37
763.831	1699.64
764.015	1691.45
764.198	1740.6
764.381	1789.75
764.564	1730.36
764.748	1709.88
764.931	1765.18
765.114	1593.15
765.297	1734.46
765.481	1636.16
765.664	1650.49
765.847	1605.44
766.03	1634.11
766.213	1648.44
766.397	1584.96
766.58	1464.13
766.763	1552.19
766.946	1580.86
767.129	1578.81
767.312	1619.77
767.495	1533.76
767.678	1576.77
767.861	1595.2
768.044	1513.28
768.227	1550.14
768.41	1474.37
768.593	1584.96
768.776	1623.87
768.959	1470.27
769.142	1525.57
769.324	1472.32
769.507	1423.17
769.69	1509.18
769.873	1500.99
770.056	1505.09
770.239	1429.31
770.421	1558.33
770.604	1417.02
770.787	1437.5
770.97	1361.73
771.152	1290.05
771.335	1470.27
771.518	1447.74
771.7	1425.22
771.883	1470.27
772.066	1320.77
772.248	1267.52
772.431	1427.26
772.613	1292.1
772.796	1347.39
772.978	1267.52
773.161	1347.39
773.343	1214.27
773.526	1376.06
773.708	1265.47
773.891	1228.61
774.073	1310.53
774.256	1236.8
774.438	1281.86
774.621	1273.67
774.803	1187.65
774.985	1259.33
775.168	1136.45
775.35	1214.27
775.532	1247.04
775.715	1175.36
775.897	1185.6
776.079	1222.47
776.261	1079.11
776.444	1103.68
776.626	1234.75
776.808	1072.96
776.99	1040.2
777.173	1087.3
777.355	1040.2
777.537	1091.4
777.719	1163.08
777.901	1126.21
778.083	1027.91
778.265	1093.44
778.447	1077.06
778.629	958.28
778.811	1093.44
778.993	1023.81
779.175	1034.05
779.357	1011.53
779.539	1072.96
779.721	993.09
779.903	1034.05
780.085	1005.38
780.267	1056.58
780.449	1007.43
780.631	1017.67
780.812	1029.96
780.994	980.81
781.176	1017.67
781.358	972.61
781.54	868.17
781.721	941.89
781.903	941.89
782.085	855.88
782.267	941.89
782.448	823.11
782.63	776.01
782.812	909.13
782.993	790.35
783.175	814.92
783.357	792.39
783.538	821.06
783.72	784.2
783.901	816.97
784.083	730.95
784.264	778.06
784.446	821.06
784.627	798.54
784.809	798.54
784.99	702.28
785.172	780.11
785.353	814.92
785.535	790.35
785.716	767.82
785.897	759.63
786.079	665.42
786.26	702.28
786.441	708.43
786.623	692.04
786.804	720.71
786.985	687.95
787.167	628.56
787.348	749.39
787.529	687.95
787.71	716.62
787.891	634.7
788.073	628.56
788.254	585.55
788.435	720.71
788.616	780.11
788.797	565.07
788.978	667.47
789.159	657.23
789.34	622.41
789.522	630.6
789.703	573.26
789.884	550.73
790.065	569.16
790.246	655.18
790.427	632.65
790.607	692.04
790.788	595.79
790.969	507.73
791.15	587.6
791.331	610.12
791.512	620.36
791.693	603.98
791.874	530.25
792.054	632.65
792.235	614.22
792.416	493.39
792.597	515.92
792.778	458.57
792.958	696.14
793.139	497.49
793.32	548.68
793.5	485.2
793.681	612.17
793.862	462.67
794.042	522.06
794.223	452.43
794.404	448.33
794.584	466.77
794.765	515.92
794.945	456.53
795.126	558.92
795.306	526.16
795.487	487.25
795.667	472.91
795.848	474.96
796.028	491.34
796.209	436.05
796.389	438.09
796.57	503.63
796.75	477.01
796.93	485.2
797.111	405.33
797.291	483.15
797.471	583.5
797.652	444.24
797.832	401.23
798.012	585.55
798.192	454.48
798.373	384.85
798.553	479.05
798.733	397.14
798.913	382.8
799.093	405.33
799.274	464.72
799.454	442.19
799.634	423.76
799.814	397.14
799.994	370.51
800.174	382.8
800.354	337.74
800.534	393.04
800.714	415.57
800.894	386.9
801.074	458.57
801.254	431.95
801.434	444.24
801.614	333.65
801.794	341.84
801.974	1087.3
802.154	370.51
802.334	417.61
802.514	302.93
802.693	374.61
802.873	409.42
803.053	393.04
803.233	378.7
803.413	337.74
803.592	354.13
803.772	284.5
803.952	321.36
804.131	317.26
804.311	374.61
804.491	368.46
804.67	307.02
804.85	315.22
805.03	374.61
805.209	419.66
805.389	309.07
805.568	309.07
805.748	294.74
805.928	278.35
806.107	370.51
806.287	290.64
806.466	388.94
806.646	255.83
806.825	358.22
807.004	294.74
807.184	229.2
807.363	317.26
807.543	417.61
807.722	259.92
807.901	335.7
808.081	362.32
808.26	270.16
808.439	315.22
808.619	331.6
808.798	309.07
808.977	319.31
809.156	388.94
809.336	233.3
809.515	292.69
809.694	216.91
809.873	335.7
810.052	272.21
810.231	309.07
810.411	247.63
810.59	350.03
810.769	264.02
810.948	288.59
811.127	292.69
811.306	272.21
811.485	212.82
811.664	292.69
811.843	364.37
812.022	337.74
812.201	282.45
812.38	292.69
812.559	268.11
812.737	329.55
812.916	300.88
813.095	237.39
813.274	241.49
813.453	309.07
813.632	274.26
813.811	198.48
813.989	259.92
814.168	239.44
814.347	237.39
814.526	331.6
814.704	317.26
814.883	284.5
815.062	147.28
815.24	245.59
815.419	239.44
815.598	270.16
815.776	208.72
815.955	182.1
816.133	147.28
816.312	221.01
816.49	257.87
816.669	288.59
816.847	231.25
817.026	276.31
817.204	180.05
817.383	214.87
817.561	110.42
817.74	223.06
817.918	184.15
818.097	235.35
818.275	196.43
818.453	182.1
818.632	284.5
818.81	204.63
818.988	167.76
819.167	178
819.345	233.3
819.523	175.95
819.701	128.85
819.879	227.15
820.058	243.54
820.236	186.19
820.414	194.39
820.592	214.87
820.77	173.91
820.948	202.58
821.127	143.19
821.305	212.82
821.483	143.19
821.661	245.59
821.839	196.43
822.017	175.95
822.195	221.01
822.373	192.34
822.551	194.39
822.729	208.72
822.907	188.24
823.085	204.63
823.262	114.52
823.44	135
823.618	180.05
823.796	225.11
823.974	153.43
824.152	114.52
824.329	212.82
824.507	184.15
824.685	167.76
824.863	167.76
825.04	247.63
825.218	208.72
825.396	139.09
825.574	235.35
825.751	100.18
825.929	210.77
826.107	139.09
826.284	204.63
826.462	229.2
826.639	122.71
826.817	157.52
826.994	178
827.172	77.65
827.349	130.9
827.527	145.24
827.704	157.52
827.882	204.63
828.059	143.19
828.237	106.32
828.414	157.52
828.591	153.43
828.769	159.57
828.946	83.8
829.124	178
829.301	194.39
829.478	139.09
829.655	55.12
829.833	212.82
830.01	143.19
830.187	102.23
830.364	102.23
830.542	147.28
830.719	192.34
830.896	155.47
831.073	100.18
831.25	216.91
831.427	178
831.604	153.43
831.782	128.85
831.959	83.8
832.136	89.94
832.313	178
832.49	149.33
832.667	175.95
832.844	67.41
833.021	175.95
833.198	169.81
833.374	137.04
833.551	83.8
833.728	141.14
833.905	161.62
834.082	120.66
834.259	87.89
834.436	186.19
834.612	102.23
834.789	223.06
834.966	135
835.143	75.6
835.319	100.18
835.496	100.18
835.673	153.43
835.85	190.29
836.026	98.13
836.203	149.33
836.38	-6.31
836.556	118.61
836.733	61.27
836.909	175.95
837.086	157.52
837.262	81.75
837.439	145.24
837.616	12.12
837.792	30.55
837.968	132.95
838.145	22.36
838.321	85.84
838.498	128.85
838.674	139.09
838.851	22.36
839.027	59.22
839.203	67.41
839.38	44.88
839.556	63.32
839.732	120.66
839.909	87.89
840.085	145.24
840.261	38.74
840.437	59.22
840.614	61.27
840.79	130.9
840.966	67.41
841.142	65.36
841.318	59.22
841.494	104.28
841.671	128.85
841.847	147.28
842.023	32.6
842.199	51.03
842.375	26.45
842.551	-47.27
842.727	16.21
842.903	106.32
843.079	67.41
843.255	38.74
843.431	149.33
843.607	143.19
843.783	34.64
843.959	83.8
844.134	87.89
844.31	122.71
844.486	26.45
844.662	14.17
844.838	114.52
845.013	112.47
845.189	122.71
845.365	63.32
845.541	38.74
845.716	94.04
845.892	69.46
846.068	73.56
846.244	112.47
846.419	98.13
846.595	120.66
846.77	22.36
846.946	48.98
847.122	104.28
847.297	-22.7
847.473	71.51
847.648	-26.79
847.824	24.4
847.999	-6.31
848.175	126.8
848.35	46.93
848.526	102.23
848.701	106.32
848.876	75.6
849.052	87.89
849.227	61.27
849.403	44.88
849.578	89.94
849.753	130.9
849.929	87.89
850.104	116.56
850.279	79.7
850.454	18.26
850.63	77.65
850.805	94.04
850.98	59.22
851.155	65.36
851.33	110.42
851.505	1.88
851.681	63.32
851.856	36.69
852.031	36.69
852.206	24.4
852.381	10.07
852.556	26.45
852.731	55.12
852.906	71.51
853.081	12.12
853.256	106.32
853.431	-16.55
853.606	44.88
853.781	81.75
853.956	-51.37
854.131	36.69
854.305	24.4
854.48	14.17
854.655	57.17
854.83	20.31
855.005	40.79
855.18	79.7
855.354	147.28
855.529	126.8
855.704	14.17
855.879	40.79
856.053	-37.03
856.228	63.32
856.403	30.55
856.577	-0.17
856.752	1.88
856.926	-16.55
857.101	135
857.276	-12.46
857.45	28.5
857.625	135
857.799	42.84
857.974	46.93
858.148	-10.41
858.323	53.08
858.497	36.69
858.672	26.45
858.846	-4.27
859.02	-12.46
859.195	44.88
859.369	22.36
859.543	20.31
859.718	-2.22
859.892	-8.36
860.066	79.7
860.241	81.75
860.415	100.18
860.589	48.98
860.763	28.5
860.938	36.69
861.112	53.08
861.286	-32.94
861.46	51.03
861.634	38.74
861.808	57.17
861.982	-24.75
862.157	-14.51
862.331	81.75
862.505	42.84
862.679	87.89
862.853	34.64
863.027	46.93
863.201	65.36
863.375	-26.79
863.549	53.08
863.722	22.36
863.896	132.95
864.07	-57.51
864.244	-6.31
864.418	10.07
864.592	22.36
864.766	40.79
864.939	-30.89
865.113	18.26
865.287	59.22
865.461	46.93
865.634	87.89
865.808	22.36
865.982	-65.71
866.156	-18.6
866.329	28.5
866.503	77.65
866.676	34.64
866.85	69.46
867.024	38.74
867.197	61.27
867.371	57.17
867.544	-10.41
867.718	-61.61
867.891	40.79
868.065	-8.36
868.238	20.31
868.412	104.28
868.585	32.6
868.759	79.7
868.932	-37.03
869.105	10.07
869.279	-16.55
869.452	5.97
869.625	63.32
869.799	3.93
869.972	12.12
870.145	-28.84
870.319	34.64
870.492	32.6
870.665	28.5
870.838	98.13
871.011	-47.27
871.185	-2.22
871.358	-28.84
871.531	26.45
871.704	-16.55
871.877	94.04
872.05	-41.13
872.223	-34.99
872.396	24.4
872.569	61.27
872.742	-0.17
872.915	55.12
873.088	-18.6
873.261	-47.27
873.434	116.56
873.607	-16.55
873.78	-18.6
873.953	-12.46
874.126	14.17
874.299	-43.18
874.471	-6.31
874.644	-16.55
874.817	-26.79
874.99	81.75
875.163	26.45
875.335	-32.94
875.508	-14.51
875.681	38.74
875.853	-32.94
876.026	14.17
876.199	22.36
876.371	8.02
876.544	53.08
876.717	36.69
876.889	67.41
877.062	-14.51
877.234	57.17
877.407	12.12
877.579	3.93
877.752	73.56
877.924	32.6
878.097	-6.31
878.269	14.17
878.442	79.7
878.614	46.93
878.786	18.26
878.959	91.99
879.131	-8.36
879.303	-67.75
879.476	5.97
879.648	20.31
879.82	8.02
879.993	5.97
880.165	30.55
880.337	59.22
880.509	26.45
880.681	-77.99
880.854	40.79
881.026	77.65
881.198	55.12
881.37	-34.99
881.542	53.08
881.714	-34.99
881.886	16.21
882.058	-6.31
882.23	12.12
882.402	5.97
882.574	38.74
882.746	-0.17
882.918	-28.84
883.09	63.32
883.262	-16.55
883.434	75.6
883.606	-26.79
883.778	48.98
883.95	94.04
884.122	-8.36
884.293	73.56
884.465	91.99
884.637	18.26
884.809	-45.23
884.98	32.6
885.152	18.26
885.324	-77.99
885.496	-39.08
885.667	-28.84
885.839	-51.37
886.011	36.69
886.182	51.03
886.354	20.31
886.525	69.46
886.697	-16.55
886.869	71.51
887.04	-39.08
887.212	71.51
887.383	63.32
887.555	-12.46
887.726	36.69
887.897	-0.17
888.069	106.32
888.24	81.75
888.412	46.93
888.583	-28.84
888.754	3.93
888.926	24.4
889.097	53.08
889.268	-28.84
889.44	46.93
889.611	14.17
889.782	40.79
889.953	20.31
890.125	94.04
890.296	1.88
890.467	-18.6
890.638	-10.41
890.809	53.08
890.98	10.07
891.151	12.12
891.323	12.12
891.494	-45.23
891.665	-51.37
891.836	-8.36
892.007	-18.6
892.178	112.47
892.349	-8.36
892.52	28.5
892.691	-0.17
892.862	61.27
893.032	-39.08
893.203	32.6
893.374	53.08
893.545	26.45
893.716	10.07
893.887	-10.41
894.057	-34.99
894.228	8.02
894.399	-2.22
894.57	-18.6
894.74	-32.94
894.911	53.08
895.082	-34.99
895.253	-10.41
895.423	26.45
895.594	-30.89
895.764	22.36
895.935	20.31
896.106	14.17
896.276	5.97
896.447	-41.13
896.617	-22.7
896.788	10.07
896.958	32.6
897.129	-22.7
897.299	-2.22
897.47	34.64
897.64	18.26
897.81	46.93
897.981	5.97
898.151	-12.46
898.322	10.07
898.492	98.13
898.662	-49.32
898.832	-22.7
899.003	-63.66
899.173	30.55
899.343	20.31
899.513	16.21
