Data from USB4F104151__87__12-24-31-320.txt Node

Date: Fri Mar 14 12:24:31 EDT 2025
User: louis
Spectrometer: USB4F10415
Trigger mode: 4
Integration Time (sec): 3.500000E-2
Scans to average: 1
Electric dark correction enabled: true
Nonlinearity correction enabled: false
Boxcar width: 0
XAxis mode: Wavelengths
Number of Pixels in Spectrum: 3648
>>>>>Begin Spectral Data<<<<<
178.204	-121.51
178.424	-121.51
178.644	-121.51
178.864	-144.04
179.084	-146.09
179.304	34.13
179.524	-53.93
179.744	52.56
179.964	38.23
180.184	7.51
180.404	15.7
180.624	-8.87
180.844	-84.65
181.064	-41.64
181.283	1.37
181.503	19.8
181.723	19.8
181.943	21.84
182.163	36.18
182.383	54.61
182.602	30.04
182.822	103.76
183.042	11.61
183.262	62.8
183.482	87.38
183.701	32.08
183.921	30.04
184.141	5.46
184.361	46.42
184.58	13.65
184.8	-21.16
185.02	64.85
185.239	-2.73
185.459	-45.74
185.679	44.37
185.898	-27.31
186.118	52.56
186.338	-27.31
186.557	46.42
186.777	56.66
186.997	34.13
187.216	87.38
187.436	85.33
187.655	83.28
187.875	77.14
188.095	13.65
188.314	32.08
188.534	52.56
188.753	54.61
188.973	9.56
189.192	105.81
189.412	-6.83
189.631	11.61
189.851	50.52
190.07	120.15
190.29	46.42
190.509	3.41
190.729	62.8
190.948	54.61
191.168	202.07
191.387	50.52
191.607	-66.22
191.826	34.13
192.045	56.66
192.265	40.28
192.484	-0.68
192.704	36.18
192.923	-8.87
193.142	169.3
193.362	15.7
193.581	66.9
193.8	44.37
194.02	60.76
194.239	71
194.458	21.84
194.678	73.04
194.897	38.23
195.116	52.56
195.335	5.46
195.555	87.38
195.774	68.95
195.993	46.42
196.212	44.37
196.432	34.13
196.651	46.42
196.87	-66.22
197.089	15.7
197.308	81.24
197.528	89.43
197.747	-47.79
197.966	97.62
198.185	101.72
198.404	3.41
198.623	91.48
198.842	56.66
199.062	73.04
199.281	64.85
199.5	-21.16
199.719	27.99
199.938	50.52
200.157	50.52
200.376	-6.83
200.595	46.42
200.814	34.13
201.033	-33.45
201.252	161.11
201.471	-15.02
201.69	46.42
201.909	48.47
202.128	-0.68
202.347	27.99
202.566	66.9
202.785	50.52
203.004	5.46
203.223	64.85
203.442	60.76
203.661	34.13
203.879	62.8
204.098	126.29
204.317	-21.16
204.536	77.14
204.755	-10.92
204.974	114
205.193	54.61
205.411	58.71
205.63	15.7
205.849	91.48
206.068	32.08
206.287	77.14
206.505	46.42
206.724	25.94
206.943	25.94
207.162	1.37
207.381	15.7
207.599	46.42
207.818	23.89
208.037	77.14
208.255	71
208.474	11.61
208.693	81.24
208.911	9.56
209.13	23.89
209.349	-4.78
209.567	27.99
209.786	87.38
210.005	5.46
210.223	79.19
210.442	-12.97
210.661	68.95
210.879	-6.83
211.098	77.14
211.316	30.04
211.535	44.37
211.753	44.37
211.972	36.18
212.191	-39.59
212.409	32.08
212.628	7.51
212.846	-49.83
213.065	52.56
213.283	44.37
213.502	89.43
213.72	13.65
213.938	30.04
214.157	64.85
214.375	109.91
214.594	23.89
214.812	64.85
215.031	64.85
215.249	44.37
215.467	-6.83
215.686	-0.68
215.904	132.44
216.122	27.99
216.341	40.28
216.559	5.46
216.778	79.19
216.996	-12.97
217.214	3.41
217.432	17.75
217.651	44.37
217.869	71
218.087	75.09
218.306	19.8
218.524	11.61
218.742	-39.59
218.96	87.38
219.179	44.37
219.397	-41.64
219.615	73.04
219.833	34.13
220.051	-31.4
220.27	56.66
220.488	75.09
220.706	-31.4
220.924	-25.26
221.142	56.66
221.36	75.09
221.578	30.04
221.796	-31.4
222.015	-19.11
222.233	60.76
222.451	71
222.669	-4.78
222.887	175.44
223.105	-39.59
223.323	66.9
223.541	21.84
223.759	66.9
223.977	38.23
224.195	36.18
224.413	27.99
224.631	64.85
224.849	19.8
225.067	15.7
225.285	-21.16
225.503	-6.83
225.721	9.56
225.939	-4.78
226.157	9.56
226.375	109.91
226.592	93.52
226.81	-76.46
227.028	48.47
227.246	34.13
227.464	44.37
227.682	54.61
227.9	-6.83
228.117	73.04
228.335	62.8
228.553	38.23
228.771	15.7
228.989	85.33
229.206	36.18
229.424	-0.68
229.642	17.75
229.86	48.47
230.077	64.85
230.295	-21.16
230.513	42.32
230.731	-12.97
230.948	17.75
231.166	34.13
231.384	87.38
231.601	-41.64
231.819	60.76
232.037	9.56
232.254	11.61
232.472	27.99
232.689	19.8
232.907	93.52
233.125	15.7
233.342	-35.5
233.56	7.51
233.777	-19.11
233.995	17.75
234.213	42.32
234.43	75.09
234.648	83.28
234.865	40.28
235.083	21.84
235.3	-0.68
235.518	21.84
235.735	52.56
235.953	79.19
236.17	9.56
236.388	-4.78
236.605	27.99
236.822	124.24
237.04	105.81
237.257	136.53
237.475	54.61
237.692	-0.68
237.909	68.95
238.127	60.76
238.344	50.52
238.562	34.13
238.779	13.65
238.996	9.56
239.214	83.28
239.431	81.24
239.648	23.89
239.865	79.19
240.083	130.39
240.3	-19.11
240.517	-8.87
240.735	21.84
240.952	52.56
241.169	75.09
241.386	30.04
241.603	58.71
241.821	5.46
242.038	77.14
242.255	116.05
242.472	-19.11
242.689	13.65
242.907	93.52
243.124	-78.51
243.341	-8.87
243.558	32.08
243.775	93.52
243.992	5.46
244.209	71
244.426	120.15
244.643	23.89
244.86	71
245.078	44.37
245.295	11.61
245.512	38.23
245.729	11.61
245.946	75.09
246.163	122.2
246.38	79.19
246.597	54.61
246.814	25.94
247.031	-25.26
247.248	50.52
247.464	91.48
247.681	15.7
247.898	3.41
248.115	54.61
248.332	32.08
248.549	99.67
248.766	87.38
248.983	77.14
249.2	103.76
249.417	114
249.633	75.09
249.85	27.99
250.067	111.96
250.284	60.76
250.501	64.85
250.717	101.72
250.934	23.89
251.151	11.61
251.368	-4.78
251.585	66.9
251.801	56.66
252.018	-12.97
252.235	48.47
252.451	46.42
252.668	46.42
252.885	101.72
253.102	62.8
253.318	99.67
253.535	54.61
253.752	9.56
253.968	116.05
254.185	9.56
254.401	46.42
254.618	42.32
254.835	32.08
255.051	128.34
255.268	81.24
255.484	34.13
255.701	15.7
255.917	85.33
256.134	23.89
256.351	-0.68
256.567	44.37
256.784	64.85
257	-10.92
257.217	111.96
257.433	44.37
257.65	30.04
257.866	130.39
258.082	1.37
258.299	-0.68
258.515	148.82
258.732	19.8
258.948	32.08
259.165	97.62
259.381	42.32
259.597	-4.78
259.814	56.66
260.03	-10.92
260.246	11.61
260.463	36.18
260.679	60.76
260.895	27.99
261.112	3.41
261.328	95.57
261.544	27.99
261.761	105.81
261.977	19.8
262.193	46.42
262.409	62.8
262.626	62.8
262.842	38.23
263.058	15.7
263.274	109.91
263.49	40.28
263.707	134.48
263.923	-19.11
264.139	-2.73
264.355	-6.83
264.571	97.62
264.787	99.67
265.004	89.43
265.22	9.56
265.436	54.61
265.652	15.7
265.868	91.48
266.084	21.84
266.3	89.43
266.516	32.08
266.732	40.28
266.948	87.38
267.164	5.46
267.38	42.32
267.596	75.09
267.812	93.52
268.028	81.24
268.244	36.18
268.46	56.66
268.676	-15.02
268.892	42.32
269.108	89.43
269.324	60.76
269.54	-29.35
269.756	62.8
269.972	5.46
270.188	62.8
270.403	13.65
270.619	50.52
270.835	44.37
271.051	60.76
271.267	21.84
271.483	32.08
271.698	-10.92
271.914	23.89
272.13	44.37
272.346	13.65
272.562	71
272.777	120.15
272.993	73.04
273.209	25.94
273.425	58.71
273.64	25.94
273.856	21.84
274.072	83.28
274.287	-51.88
274.503	17.75
274.719	42.32
274.934	136.53
275.15	1.37
275.366	68.95
275.581	50.52
275.797	105.81
276.012	5.46
276.228	83.28
276.444	79.19
276.659	46.42
276.875	7.51
277.09	-6.83
277.306	19.8
277.521	75.09
277.737	9.56
277.952	93.52
278.168	32.08
278.383	56.66
278.599	83.28
278.814	48.47
279.03	46.42
279.245	109.91
279.461	19.8
279.676	54.61
279.892	1.37
280.107	-35.5
280.322	3.41
280.538	44.37
280.753	34.13
280.969	17.75
281.184	13.65
281.399	95.57
281.615	27.99
281.83	95.57
282.045	48.47
282.26	87.38
282.476	64.85
282.691	122.2
282.906	-33.45
283.122	85.33
283.337	91.48
283.552	25.94
283.767	-12.97
283.983	99.67
284.198	120.15
284.413	54.61
284.628	3.41
284.843	38.23
285.058	85.33
285.274	60.76
285.489	19.8
285.704	85.33
285.919	-60.07
286.134	3.41
286.349	34.13
286.564	-25.26
286.779	50.52
286.995	15.7
287.21	-19.11
287.425	42.32
287.64	48.47
287.855	32.08
288.07	48.47
288.285	71
288.5	46.42
288.715	111.96
288.93	99.67
289.145	75.09
289.36	95.57
289.575	15.7
289.79	56.66
290.004	30.04
290.219	73.04
290.434	40.28
290.649	-49.83
290.864	64.85
291.079	56.66
291.294	3.41
291.509	44.37
291.724	109.91
291.938	38.23
292.153	60.76
292.368	19.8
292.583	85.33
292.798	60.76
293.012	38.23
293.227	44.37
293.442	19.8
293.657	91.48
293.871	152.91
294.086	-15.02
294.301	95.57
294.516	56.66
294.73	56.66
294.945	75.09
295.16	44.37
295.374	21.84
295.589	79.19
295.804	44.37
296.018	73.04
296.233	140.63
296.447	17.75
296.662	-31.4
296.877	46.42
297.091	-19.11
297.306	101.72
297.52	36.18
297.735	85.33
297.949	48.47
298.164	87.38
298.378	34.13
298.593	27.99
298.807	75.09
299.022	91.48
299.236	85.33
299.451	93.52
299.665	23.89
299.88	79.19
300.094	73.04
300.309	99.67
300.523	91.48
300.737	38.23
300.952	77.14
301.166	5.46
301.381	54.61
301.595	48.47
301.809	-35.5
302.024	68.95
302.238	32.08
302.452	95.57
302.667	17.75
302.881	66.9
303.095	77.14
303.309	-23.21
303.524	56.66
303.738	1.37
303.952	60.76
304.166	148.82
304.381	58.71
304.595	146.77
304.809	95.57
305.023	144.72
305.237	66.9
305.452	54.61
305.666	-12.97
305.88	23.89
306.094	21.84
306.308	-17.07
306.522	87.38
306.736	97.62
306.95	-8.87
307.164	-4.78
307.379	5.46
307.593	75.09
307.807	136.53
308.021	68.95
308.235	38.23
308.449	64.85
308.663	17.75
308.877	99.67
309.091	21.84
309.305	38.23
309.519	-64.17
309.733	23.89
309.947	19.8
310.161	134.48
310.374	62.8
310.588	40.28
310.802	97.62
311.016	52.56
311.23	89.43
311.444	5.46
311.658	87.38
311.872	42.32
312.085	105.81
312.299	101.72
312.513	46.42
312.727	120.15
312.941	87.38
313.154	73.04
313.368	81.24
313.582	95.57
313.796	-27.31
314.009	38.23
314.223	-4.78
314.437	40.28
314.651	124.24
314.864	54.61
315.078	60.76
315.292	13.65
315.505	79.19
315.719	128.34
315.933	71
316.146	36.18
316.36	64.85
316.573	95.57
316.787	34.13
317.001	19.8
317.214	-12.97
317.428	38.23
317.641	52.56
317.855	71
318.068	124.24
318.282	107.86
318.495	142.68
318.709	68.95
318.922	15.7
319.136	116.05
319.349	150.87
319.563	40.28
319.776	79.19
319.99	17.75
320.203	-23.21
320.417	42.32
320.63	109.91
320.843	68.95
321.057	40.28
321.27	1.37
321.483	83.28
321.697	85.33
321.91	-2.73
322.124	81.24
322.337	13.65
322.55	32.08
322.763	48.47
322.977	15.7
323.19	44.37
323.403	38.23
323.617	52.56
323.83	50.52
324.043	52.56
324.256	-12.97
324.469	-27.31
324.683	136.53
324.896	71
325.109	126.29
325.322	-25.26
325.535	40.28
325.748	99.67
325.962	46.42
326.175	40.28
326.388	60.76
326.601	91.48
326.814	81.24
327.027	13.65
327.24	101.72
327.453	-10.92
327.666	44.37
327.879	27.99
328.092	52.56
328.305	134.48
328.518	79.19
328.731	93.52
328.944	93.52
329.157	97.62
329.37	83.28
329.583	64.85
329.796	30.04
330.009	-55.98
330.222	-4.78
330.435	46.42
330.648	-6.83
330.861	32.08
331.073	107.86
331.286	95.57
331.499	85.33
331.712	52.56
331.925	27.99
332.138	36.18
332.35	58.71
332.563	11.61
332.776	71
332.989	-12.97
333.202	36.18
333.414	-23.21
333.627	58.71
333.84	71
334.053	134.48
334.265	11.61
334.478	130.39
334.691	128.34
334.903	64.85
335.116	68.95
335.329	9.56
335.541	3.41
335.754	157.01
335.966	46.42
336.179	-37.55
336.392	36.18
336.604	54.61
336.817	95.57
337.029	77.14
337.242	-6.83
337.454	93.52
337.667	89.43
337.88	89.43
338.092	32.08
338.305	27.99
338.517	-8.87
338.729	144.72
338.942	75.09
339.154	111.96
339.367	-37.55
339.579	99.67
339.792	5.46
340.004	103.76
340.217	32.08
340.429	128.34
340.641	3.41
340.854	52.56
341.066	71
341.278	93.52
341.491	120.15
341.703	19.8
341.915	114
342.128	103.76
342.34	79.19
342.552	27.99
342.764	-31.4
342.977	66.9
343.189	81.24
343.401	38.23
343.613	-31.4
343.826	48.47
344.038	3.41
344.25	103.76
344.462	-43.69
344.674	40.28
344.886	66.9
345.099	71
345.311	66.9
345.523	101.72
345.735	-70.31
345.947	75.09
346.159	50.52
346.371	44.37
346.583	122.2
346.795	87.38
347.007	17.75
347.219	71
347.431	66.9
347.643	105.81
347.855	-6.83
348.067	87.38
348.279	27.99
348.491	103.76
348.703	42.32
348.915	97.62
349.127	34.13
349.339	56.66
349.551	-4.78
349.763	62.8
349.975	77.14
350.187	95.57
350.399	134.48
350.61	54.61
350.822	54.61
351.034	56.66
351.246	23.89
351.458	48.47
351.669	44.37
351.881	15.7
352.093	38.23
352.305	85.33
352.517	36.18
352.728	56.66
352.94	62.8
353.152	44.37
353.363	25.94
353.575	30.04
353.787	107.86
353.999	136.53
354.21	132.44
354.422	-25.26
354.633	71
354.845	95.57
355.057	81.24
355.268	83.28
355.48	103.76
355.692	17.75
355.903	89.43
356.115	-2.73
356.326	58.71
356.538	50.52
356.749	-29.35
356.961	109.91
357.172	13.65
357.384	48.47
357.595	97.62
357.807	79.19
358.018	54.61
358.23	-12.97
358.441	111.96
358.653	44.37
358.864	85.33
359.075	-53.93
359.287	87.38
359.498	87.38
359.709	44.37
359.921	120.15
360.132	27.99
360.344	36.18
360.555	44.37
360.766	97.62
360.977	46.42
361.189	46.42
361.4	32.08
361.611	116.05
361.823	25.94
362.034	109.91
362.245	34.13
362.456	38.23
362.667	99.67
362.879	58.71
363.09	71
363.301	60.76
363.512	66.9
363.723	71
363.935	73.04
364.146	85.33
364.357	-10.92
364.568	140.63
364.779	48.47
364.99	21.84
365.201	23.89
365.412	109.91
365.623	27.99
365.834	122.2
366.045	111.96
366.256	77.14
366.467	52.56
366.678	62.8
366.889	87.38
367.1	25.94
367.311	128.34
367.522	68.95
367.733	44.37
367.944	50.52
368.155	52.56
368.366	114
368.577	152.91
368.788	56.66
368.999	52.56
369.209	23.89
369.42	130.39
369.631	56.66
369.842	42.32
370.053	34.13
370.264	109.91
370.474	48.47
370.685	68.95
370.896	81.24
371.107	111.96
371.317	81.24
371.528	40.28
371.739	146.77
371.95	77.14
372.16	42.32
372.371	17.75
372.582	58.71
372.792	75.09
373.003	38.23
373.214	-23.21
373.424	85.33
373.635	25.94
373.846	91.48
374.056	46.42
374.267	75.09
374.477	42.32
374.688	50.52
374.898	58.71
375.109	68.95
375.319	42.32
375.53	68.95
375.74	75.09
375.951	40.28
376.161	48.47
376.372	87.38
376.582	81.24
376.793	62.8
377.003	79.19
377.214	23.89
377.424	-45.74
377.635	19.8
377.845	56.66
378.055	152.91
378.266	111.96
378.476	91.48
378.686	97.62
378.897	91.48
379.107	9.56
379.317	79.19
379.528	50.52
379.738	40.28
379.948	-23.21
380.158	99.67
380.369	23.89
380.579	32.08
380.789	21.84
380.999	48.47
381.21	134.48
381.42	89.43
381.63	152.91
381.84	124.24
382.05	64.85
382.261	48.47
382.471	58.71
382.681	50.52
382.891	64.85
383.101	136.53
383.311	34.13
383.521	56.66
383.731	58.71
383.941	126.29
384.151	60.76
384.361	-6.83
384.571	148.82
384.781	75.09
384.991	77.14
385.201	85.33
385.411	50.52
385.621	56.66
385.831	54.61
386.041	120.15
386.251	44.37
386.461	60.76
386.671	56.66
386.881	27.99
387.091	5.46
387.301	167.25
387.511	21.84
387.72	46.42
387.93	60.76
388.14	89.43
388.35	40.28
388.56	167.25
388.769	81.24
388.979	103.76
389.189	-17.07
389.399	40.28
389.609	93.52
389.818	66.9
390.028	38.23
390.238	124.24
390.447	13.65
390.657	7.51
390.867	114
391.076	81.24
391.286	68.95
391.496	97.62
391.705	60.76
391.915	97.62
392.125	116.05
392.334	62.8
392.544	140.63
392.753	99.67
392.963	11.61
393.172	75.09
393.382	128.34
393.591	103.76
393.801	50.52
394.01	109.91
394.22	71
394.429	66.9
394.639	-25.26
394.848	101.72
395.058	150.87
395.267	109.91
395.477	120.15
395.686	60.76
395.895	99.67
396.105	71
396.314	71
396.524	89.43
396.733	136.53
396.942	183.63
397.152	75.09
397.361	85.33
397.57	185.68
397.78	81.24
397.989	75.09
398.198	116.05
398.407	34.13
398.617	27.99
398.826	128.34
399.035	48.47
399.244	128.34
399.453	144.72
399.663	99.67
399.872	109.91
400.081	89.43
400.29	169.3
400.499	109.91
400.708	128.34
400.917	87.38
401.127	75.09
401.336	111.96
401.545	134.48
401.754	159.06
401.963	200.02
402.172	154.96
402.381	181.59
402.59	161.11
402.799	99.67
403.008	181.59
403.217	120.15
403.426	122.2
403.635	87.38
403.844	140.63
404.053	111.96
404.262	185.68
404.471	195.92
404.68	204.11
404.888	195.92
405.097	148.82
405.306	128.34
405.515	130.39
405.724	111.96
405.933	206.16
406.142	97.62
406.35	154.96
406.559	202.07
406.768	232.79
406.977	234.83
407.185	238.93
407.394	216.4
407.603	128.34
407.812	167.25
408.02	286.03
408.229	247.12
408.438	204.11
408.646	243.03
408.855	204.11
409.064	212.31
409.272	257.36
409.481	382.29
409.69	320.85
409.898	269.65
410.107	281.94
410.315	333.14
410.524	304.46
410.733	341.33
410.941	269.65
411.15	326.99
411.358	365.9
411.567	425.29
411.775	345.42
411.984	363.86
412.192	453.97
412.401	404.82
412.609	523.6
412.818	560.46
413.026	462.16
413.234	511.31
413.443	517.45
413.651	544.08
413.86	556.36
414.068	603.47
414.276	578.89
414.485	634.19
414.693	634.19
414.901	779.59
415.11	730.44
415.318	748.87
415.526	757.07
415.734	767.31
415.943	746.83
416.151	830.79
416.359	808.26
416.567	947.53
416.776	836.94
416.984	922.95
417.192	931.14
417.4	935.24
417.608	970.05
417.817	1043.78
418.025	996.68
418.233	1144.13
418.441	1097.03
418.649	1187.14
418.857	1291.59
419.065	1260.87
419.273	1154.37
419.481	1330.5
419.689	1410.37
419.897	1398.08
420.105	1461.57
420.313	1523.01
420.521	1563.97
420.729	1658.17
420.937	1707.32
421.145	1770.81
421.353	1809.72
421.561	1910.07
421.769	1934.65
421.977	1955.13
422.185	2037.05
422.393	2108.73
422.601	2245.94
422.809	2241.84
423.017	2133.3
423.224	2334
423.432	2352.43
423.64	2354.48
423.848	2747.69
424.056	2661.68
424.263	2755.88
424.471	2755.88
424.679	2942.25
424.887	3001.64
425.094	3071.27
425.302	3153.19
425.51	3095.85
425.718	3298.59
425.925	3255.59
426.133	3439.9
426.341	3675.42
426.548	3794.2
426.756	3800.35
426.964	3900.7
427.171	4101.4
427.379	4144.41
427.586	4275.48
427.794	4453.65
428.001	4562.19
428.209	4795.66
428.417	4723.98
428.624	5186.82
428.832	4990.22
429.039	5072.14
429.247	4924.68
429.454	5534.98
429.662	5991.67
429.869	5580.03
430.076	5924.09
430.284	5680.38
430.491	5926.14
430.699	6305.01
430.906	6337.78
431.114	6497.52
431.321	6657.26
431.528	6771.95
431.736	7228.65
431.943	7576.8
432.15	7320.81
432.358	7464.16
432.565	7537.89
432.772	7761.12
432.979	7879.9
433.187	8471.76
433.394	8234.2
433.601	8858.83
433.808	9077.96
434.016	9092.3
434.223	9505.99
434.43	9907.39
434.637	9686.21
434.844	10300.6
435.052	10480.82
435.259	10335.42
435.466	10689.71
435.673	10380.47
435.88	11066.54
436.087	11707.55
436.294	11666.6
436.501	11588.77
436.708	11513
436.915	12156.06
437.122	12461.21
437.329	12678.29
437.537	13030.54
437.743	13253.77
437.95	13048.97
438.157	13804.67
438.364	14265.47
438.571	14044.29
438.778	14314.62
438.985	15543.4
439.192	14982.26
439.399	15553.64
439.606	15246.44
439.813	16061.54
440.02	16970.83
440.227	16460.89
440.433	16596.06
440.64	16921.68
440.847	16938.07
441.054	17359.95
441.261	18521.15
441.467	18580.54
441.674	18717.75
441.881	19141.68
442.088	19315.76
442.294	19342.38
442.501	19749.93
442.708	20046.88
442.914	20683.8
443.121	21650.44
443.328	21050.39
443.534	22588.41
443.741	22021.13
443.948	21795.85
444.154	23391.22
444.361	23129.08
444.568	23104.5
444.774	23184.37
444.981	23555.05
445.187	24370.15
445.394	25158.61
445.6	25068.5
445.807	27300.79
446.013	26184.65
446.22	26766.27
446.426	27880.36
446.633	28031.91
446.839	28982.17
447.046	27814.83
447.252	29531.03
447.459	29154.2
447.665	29023.13
447.871	30575.49
448.078	31847.28
448.284	30768
448.491	31312.76
448.697	32420.71
448.903	32928.61
449.11	32826.21
449.316	32414.57
449.522	33411.93
449.728	34188.11
449.935	34341.71
450.141	34399.05
450.347	34939.71
450.553	33958.74
450.76	34648.9
450.966	35777.33
451.172	35158.84
451.378	36018.99
451.584	35527.48
451.791	36037.42
451.997	36072.24
452.203	36494.12
452.409	36817.7
452.615	36416.3
452.821	35136.32
453.027	35076.93
453.233	36541.22
453.44	35361.59
453.646	35449.66
453.852	35763
454.058	36758.31
454.264	35011.39
454.47	36238.12
454.676	35164.99
454.882	36401.96
455.088	33045.34
455.294	33373.02
455.5	34245.45
455.705	34245.45
455.911	32815.97
456.117	32559.97
456.323	31923.05
456.529	30229.38
456.735	31509.36
456.941	30794.62
457.147	30169.99
457.352	29143.96
457.558	29232.02
457.764	29326.23
457.97	28425.12
458.176	27481.01
458.381	27990.95
458.587	26649.53
458.793	26428.35
458.999	25127.89
459.204	27147.19
459.41	26145.73
459.616	24439.78
459.821	24124.39
460.027	24259.56
460.233	23823.34
460.438	22440.96
460.644	23186.42
460.85	21820.42
461.055	21537.8
461.261	21349.39
461.466	19780.65
461.672	19377.2
461.878	20655.13
462.083	19225.65
462.289	18768.95
462.494	18637.88
462.7	17810.5
462.905	17294.41
463.111	17933.38
463.316	18127.94
463.522	17663.05
463.727	17617.99
463.932	17761.35
464.138	17511.5
464.343	17646.66
464.549	17026.13
464.754	17493.07
464.959	17667.14
465.165	17241.17
465.37	16585.82
465.575	16360.54
465.781	16755.8
465.986	16911.44
466.191	16315.48
466.397	15694.95
466.602	15137.9
466.807	15799.4
467.012	15793.25
467.218	15778.92
467.423	15565.93
467.628	15647.85
467.833	16462.94
468.038	15780.96
468.244	14957.68
468.449	15821.92
468.654	15088.75
468.859	15234.16
469.064	15086.7
469.269	14658.68
469.474	14679.16
469.679	14984.3
469.885	14642.29
470.09	14726.26
470.295	14834.8
470.5	14333.05
470.705	14476.41
470.91	13874.31
471.115	13966.46
471.32	14171.26
471.525	14060.67
471.73	13915.26
471.935	13585.54
472.139	13489.29
472.344	13425.8
472.549	13403.27
472.754	13204.62
472.959	12862.61
473.164	12641.43
473.369	12399.77
473.574	12915.86
473.778	12899.47
473.983	12827.79
474.188	12557.46
474.393	11998.37
474.598	12184.73
474.802	11984.03
475.007	11898.02
475.212	11994.27
475.417	11322.54
475.621	11375.78
475.826	11433.13
476.031	11234.47
476.235	10968.24
476.44	11297.96
476.645	10925.23
476.849	10931.37
477.054	10650.8
477.259	10726.58
477.463	10667.19
477.668	10448.05
477.872	10609.84
478.077	10376.38
478.282	10161.34
478.486	10116.28
478.691	9972.93
478.895	10069.18
479.1	9942.21
479.304	9837.76
479.509	9649.35
479.713	9751.74
479.918	9465.03
480.122	9422.02
480.326	9608.39
480.531	9704.64
480.735	9385.16
480.94	9348.29
481.144	9700.55
481.348	9233.61
481.553	9391.3
481.757	9213.13
481.961	9243.85
482.166	9268.42
482.37	9360.58
482.574	9192.65
482.778	9174.22
482.983	9247.94
483.187	9135.31
483.391	9256.14
483.595	9086.15
483.8	9137.35
484.004	9237.7
484.208	9374.92
484.412	9247.94
484.616	9293
484.821	9284.81
485.025	8975.56
485.229	9299.14
485.433	9204.94
485.637	9288.9
485.841	9313.48
486.045	9419.97
486.249	9108.68
486.453	9188.55
486.657	9084.11
486.861	9438.41
487.065	8903.89
487.269	9106.63
487.473	8981.71
487.677	9237.7
487.881	9501.89
488.085	9112.78
488.289	9153.74
488.493	9213.13
488.697	9368.77
488.901	9190.6
489.105	9270.47
489.309	9202.89
489.512	9426.12
489.716	9327.82
489.92	9293
490.124	9295.05
490.328	9680.07
490.531	9217.22
490.735	9505.99
490.939	9538.76
491.143	9356.49
491.346	9450.69
491.55	9815.23
491.754	9503.94
491.958	9751.74
492.161	9571.52
492.365	9573.57
492.569	9671.87
492.772	9643.2
492.976	9798.85
493.18	9891.01
493.383	9899.2
493.587	10065.08
493.79	10235.07
493.994	9868.48
494.197	10097.85
494.401	10040.51
494.605	10249.4
494.808	10388.66
495.012	10486.97
495.215	10474.68
495.419	10613.94
495.622	10382.52
495.825	10642.61
496.029	10419.38
496.232	11039.92
496.436	10745.01
496.639	11187.37
496.843	11072.68
497.046	11398.31
497.249	11560.1
497.453	11568.29
497.656	11711.65
497.859	11443.37
498.063	11826.34
498.266	11994.27
498.469	11771.04
498.673	12004.51
498.876	12170.4
499.079	12412.06
499.282	12403.86
499.485	12778.64
499.689	12784.79
499.892	13190.28
500.095	12854.42
500.298	13302.92
500.501	13270.15
500.705	13515.91
500.908	13550.73
501.111	13880.45
501.314	13810.82
501.517	14083.2
501.72	14437.5
501.923	14285.95
502.126	14523.51
502.329	14992.5
502.532	14830.71
502.735	14986.35
502.938	15117.42
503.141	15316.08
503.344	15510.63
503.547	15742.05
503.75	15889.51
503.953	16049.25
504.156	16204.89
504.359	16467.03
504.562	16456.79
504.765	16917.59
504.968	16983.12
505.17	17503.31
505.373	17220.69
505.576	17534.03
505.779	17556.55
505.982	17873.99
506.185	18111.55
506.387	18205.76
506.59	18254.91
506.793	18662.46
506.996	18973.75
507.198	19332.14
507.401	19235.89
507.604	19608.62
507.807	19844.13
508.009	19911.72
508.212	20075.55
508.415	20210.72
508.617	20524.06
508.82	20558.88
509.022	20519.96
509.225	21298.19
509.428	21253.14
509.63	21589
509.833	21787.66
510.035	22375.42
510.238	22027.27
510.44	22627.32
510.643	22664.19
510.845	23008.25
511.048	23038.97
511.25	23342.07
511.453	23411.7
511.655	24189.92
511.858	24155.11
512.06	24284.13
512.262	24650.72
512.465	24810.46
512.667	25043.93
512.87	25457.62
513.072	25416.66
513.274	26053.58
513.477	26395.59
513.679	26514.37
513.881	26735.55
514.084	26807.23
514.286	27022.26
514.488	27210.68
514.69	28060.59
514.893	28079.02
515.095	28036.01
515.297	28261.29
515.499	28640.16
515.701	29059.99
515.904	29346.71
516.106	29516.69
516.308	29653.9
516.51	30315.4
516.712	30075.79
516.914	30708.61
517.116	31067
517.318	31378.29
517.52	31611.76
517.722	31687.54
517.925	31980.4
518.127	32459.62
518.329	32807.78
518.531	32400.23
518.733	33147.74
518.935	33659.73
519.136	33512.28
519.338	34257.74
519.54	34538.31
519.742	34409.29
519.944	34880.32
520.146	35793.72
520.348	35783.48
520.55	36152.11
520.752	36008.75
520.954	36725.54
521.155	36385.58
521.357	36617
521.559	37169.95
521.761	37833.49
521.963	37403.42
522.164	38087.44
522.366	38365.96
522.568	38771.46
522.77	38447.88
522.971	39545.59
523.173	39265.02
523.375	39895.8
523.576	39566.07
523.778	39953.14
523.98	40504.04
524.181	40655.59
524.383	40444.65
524.584	41470.68
524.786	41519.84
524.988	41458.4
525.189	41751.26
525.391	41892.57
525.592	42316.5
525.794	42461.9
525.995	42511.05
526.197	42742.47
526.398	43082.44
526.6	42959.56
526.801	43580.09
527.003	43320
527.204	43748.03
527.406	44348.08
527.607	44165.81
527.808	44501.68
528.01	43975.35
528.211	44210.87
528.412	45482.66
528.614	44927.66
528.815	45058.73
529.016	45378.21
529.218	44866.22
529.419	45306.53
529.62	45255.33
529.822	45576.86
530.023	45689.5
530.224	45875.87
530.425	45570.72
530.626	46131.86
530.828	45847.19
531.029	46738.06
531.23	45957.78
531.431	46088.85
531.632	46250.64
531.833	46660.24
532.035	46688.91
532.236	46609.04
532.437	46363.28
532.638	46547.6
532.839	46738.06
533.04	47311.49
533.241	46082.71
533.442	47383.17
533.643	46572.17
533.844	46688.91
534.045	47041.16
534.246	46563.98
534.447	47334.02
534.648	46428.82
534.849	46908.04
535.05	46920.33
535.251	47299.2
535.451	47041.16
535.652	47362.69
535.853	46500.5
536.054	46953.1
536.255	47078.02
536.456	46727.82
536.657	47860.35
536.857	47049.35
537.058	46709.39
537.259	47479.42
537.46	47110.79
537.66	47149.7
537.861	47600.25
538.062	47372.93
538.263	47628.93
538.463	46908.04
538.664	47127.17
538.865	47331.97
539.065	47571.58
539.266	46506.64
539.466	47225.48
539.667	47032.97
539.868	47606.4
540.068	47133.32
540.269	46824.07
540.469	47227.52
540.67	47200.9
540.87	47151.75
541.071	47104.65
541.271	47526.53
541.472	47030.92
541.672	47420.03
541.873	46789.26
542.073	46901.9
542.274	47319.68
542.474	46938.76
542.675	47049.35
542.875	47331.97
543.075	47217.28
543.276	46469.78
543.476	47424.13
543.676	46977.67
543.877	47014.54
544.077	46750.35
544.277	47178.37
544.478	46703.24
544.678	47174.28
544.878	46527.12
545.078	47090.31
545.279	46785.16
545.479	46295.7
545.679	46932.62
545.879	46738.06
546.079	47159.94
546.28	46862.99
546.48	46680.72
546.68	46779.02
546.88	47358.59
547.08	46807.69
547.28	46629.52
547.48	46682.76
547.68	46834.31
547.88	46627.47
548.081	46936.71
548.281	46473.87
548.481	46791.31
548.681	47180.42
548.881	46875.27
549.081	46514.83
549.28	46301.84
549.48	47131.27
549.68	46494.35
549.88	47153.8
550.08	46105.24
550.28	46674.57
550.48	46250.64
550.68	46807.69
550.88	46551.69
551.08	46676.62
551.279	46856.84
551.479	46205.59
551.679	46973.58
551.879	46430.86
552.079	46703.24
552.278	46625.42
552.478	46412.43
552.678	46385.81
552.878	46838.41
553.077	46138.01
553.277	46371.47
553.477	46656.14
553.676	46230.16
553.876	46037.65
554.076	45965.98
554.275	45740.7
554.475	45312.67
554.674	46158.49
554.874	46504.59
555.074	45890.2
555.273	45959.83
555.473	45965.98
555.672	45691.55
555.872	45968.02
556.071	45535.9
556.271	45843.1
556.47	45912.73
556.67	45279.91
556.869	45560.48
557.068	45597.34
557.268	45341.35
557.467	45406.88
557.667	45435.55
557.866	45607.58
558.065	45169.32
558.265	45116.07
558.464	44948.14
558.663	45378.21
558.863	44815.02
559.062	45466.27
559.261	44876.46
559.461	45148.84
559.66	44235.44
559.859	44862.12
560.058	44257.97
560.258	44561.07
560.457	44452.53
560.656	44634.8
560.855	44368.56
561.054	44346.03
561.253	43737.79
561.453	44282.55
561.652	44001.97
561.851	44393.14
562.05	43735.74
562.249	43397.82
562.448	43621.05
562.647	43813.56
562.846	43774.65
563.045	43449.02
563.244	43393.73
563.443	44055.22
563.642	43000.52
563.841	42711.75
564.04	43324.1
564.239	43475.65
564.438	42844.87
564.637	42640.07
564.836	42662.6
565.035	42283.73
565.234	42822.34
565.432	42349.26
565.631	42441.42
565.83	42326.74
566.029	42099.41
566.228	41659.1
566.427	41806.55
566.625	42189.52
566.824	41247.46
567.023	42046.16
567.222	40960.74
567.42	41736.92
567.619	41870.04
567.818	41446.11
568.016	40901.35
568.215	41312.99
568.414	40880.87
568.612	40839.91
568.811	40569.58
569.01	40639.21
569.208	40162.03
569.407	40364.78
569.605	40786.66
569.804	40442.6
570.002	39813.88
570.201	39789.3
570.4	39592.7
570.598	39682.81
570.797	39430.91
570.995	39617.27
571.193	39131.9
571.392	39568.12
571.59	38675.21
571.789	39097.09
571.987	39598.84
572.186	38775.56
572.384	38308.62
572.582	38841.09
572.781	38730.5
572.979	37987.09
573.177	37997.33
573.376	38525.71
573.574	37806.87
573.772	38271.76
573.971	37602.07
574.169	38066.96
574.367	37071.65
574.565	37505.82
574.763	37370.65
574.962	37575.45
575.16	37079.84
575.358	37346.08
575.556	36922.15
575.754	37247.77
575.952	36420.39
576.151	37045.02
576.349	36340.52
576.547	36201.26
576.745	36334.38
576.943	36299.56
577.141	36195.12
577.339	36332.33
577.537	36291.37
577.735	36127.53
577.933	35615.54
578.131	35830.58
578.329	35408.7
578.527	35253.05
578.725	35257.15
578.923	35212.09
579.121	34982.72
579.319	35146.56
579.516	35152.7
579.714	35171.13
579.912	34779.97
580.11	34669.38
580.308	34999.1
580.506	34683.72
580.704	34061.13
580.901	34392.9
581.099	34478.92
581.297	33708.88
581.495	34071.37
581.692	34251.59
581.89	33639.25
582.088	33751.89
582.285	33672.02
582.483	34028.37
582.681	33557.33
582.878	33569.62
583.076	33207.13
583.274	33635.16
583.471	32955.23
583.669	32797.54
583.866	32623.46
584.064	33076.06
584.262	32359.27
584.459	32643.94
584.657	32389.99
584.854	32852.83
585.052	31961.97
585.249	32547.68
585.447	32185.19
585.644	31642.48
585.841	31687.54
586.039	32082.8
586.236	31564.66
586.434	31712.11
586.631	31665.01
586.828	31538.04
587.026	31456.12
587.223	31290.23
587.42	31333.24
587.618	31294.33
587.815	30464.9
588.012	31028.09
588.21	30880.64
588.407	31114.11
588.604	30831.49
588.801	30462.85
588.999	30481.28
589.196	30194.57
589.393	30485.38
589.59	30200.71
589.787	29653.9
589.984	30133.13
590.182	29576.08
590.379	30151.56
590.576	29815.69
590.773	29727.63
590.97	29369.24
591.167	29729.68
591.364	29244.31
591.561	29428.63
591.758	29156.25
591.955	28945.31
592.152	29318.04
592.349	28892.06
592.546	29125.53
592.743	28765.09
592.94	28369.83
593.137	28937.12
593.334	28951.45
593.531	28369.83
593.727	28548
593.924	28197.8
594.121	27876.27
594.318	28109.74
594.515	27906.99
594.712	28068.78
594.908	27909.04
595.105	28072.87
595.302	27667.38
595.499	27653.04
595.696	27384.76
595.892	27171.77
596.089	27315.12
596.286	27413.43
596.482	27388.85
596.679	27114.42
596.876	27409.33
597.072	26907.58
597.269	26856.38
597.466	27028.41
597.662	26880.96
597.859	26667.97
598.055	26887.1
598.252	26457.03
598.448	26487.75
598.645	26332.1
598.841	26145.73
599.038	26264.52
599.234	26325.96
599.431	25906.12
599.627	26041.29
599.824	25904.07
600.02	25727.95
600.217	25869.26
600.413	25895.88
600.609	25584.59
600.806	25451.47
601.002	25299.92
601.198	24974.3
601.395	25240.53
601.591	25101.27
601.787	25299.92
601.984	25109.46
602.18	25252.82
602.376	24574.94
602.572	24916.95
602.769	25062.36
602.965	24599.52
603.161	24701.92
603.357	24214.5
603.553	24544.22
603.75	24447.97
603.946	24638.43
604.142	24257.51
604.338	23925.74
604.534	24194.02
604.73	23823.34
604.926	23991.27
605.122	23714.8
605.318	23661.55
605.514	23460.85
605.71	23555.05
605.906	23450.61
606.102	23694.32
606.298	23497.71
606.494	23260.15
606.69	23344.11
606.886	23276.53
607.082	22969.33
607.278	23135.22
607.474	22971.38
607.67	23231.47
607.866	22948.86
608.062	23423.98
608.257	23002.1
608.453	22795.26
608.649	22971.38
608.845	22512.64
609.041	22604.8
609.236	22383.62
609.432	22436.86
609.628	22561.79
609.824	22371.33
610.019	22346.75
610.215	22141.96
610.411	22400
610.606	22154.24
610.802	21885.96
610.998	22141.96
611.193	22225.92
611.389	21769.23
611.584	21734.41
611.78	21967.88
611.976	22184.96
612.171	22076.42
612.367	21709.83
612.562	21797.9
612.758	21509.13
612.953	21349.39
613.149	21754.89
613.344	21509.13
613.539	21650.44
613.735	21541.9
613.93	21396.49
614.126	21130.26
614.321	21453.84
614.517	21339.15
614.712	20974.61
614.907	20925.46
615.103	21156.88
615.298	20771.86
615.493	21183.51
615.688	20433.95
615.884	21234.71
616.079	20907.03
616.274	20878.36
616.47	20956.18
616.665	20696.09
616.86	20499.48
617.055	20462.62
617.25	20331.55
617.445	20575.26
617.641	20327.46
617.836	20630.55
618.031	19897.38
618.226	20522.01
618.421	20173.86
618.616	20319.26
618.811	19981.35
619.006	20161.57
619.201	19852.33
619.396	19940.39
619.591	19571.75
619.786	19682.34
619.981	19493.93
620.176	19653.67
620.371	19215.41
620.566	19395.63
620.761	19209.26
620.956	19573.8
621.151	18971.7
621.346	19156.02
621.541	18592.83
621.735	18994.23
621.93	18764.85
622.125	18713.66
622.32	18445.37
622.515	18480.19
622.709	18439.23
622.904	18269.25
623.099	18216
623.294	18234.43
623.488	17857.6
623.683	17708.1
623.878	17826.89
624.072	18050.11
624.267	17548.36
624.462	17470.54
624.656	17335.37
624.851	17454.15
625.046	17093.71
625.24	17280.08
625.435	16938.07
625.629	17007.7
625.824	16831.57
626.018	16702.55
626.213	16274.52
626.407	16579.67
626.602	16331.87
626.796	16723.03
626.991	16542.81
627.185	16227.42
627.38	16319.58
627.574	16176.22
627.768	16174.17
627.963	16100.45
628.157	15508.58
628.352	15924.32
628.546	15516.78
628.74	15703.14
628.935	15316.08
629.129	15524.97
629.323	14941.3
629.517	15166.57
629.712	15197.29
629.906	14951.54
630.1	14914.67
630.294	15060.08
630.489	14957.68
630.683	14875.76
630.877	14519.42
631.071	14775.41
631.265	14808.18
631.459	14378.11
631.653	14310.52
631.848	14265.47
632.042	14103.68
632.236	14032
632.43	14107.77
632.624	14283.9
632.818	13931.65
633.012	13714.56
633.206	13689.99
633.4	13675.65
633.594	13673.6
633.788	13540.49
633.982	13591.69
634.176	13587.59
634.369	13419.66
634.563	13243.53
634.757	12889.23
634.951	13264.01
635.145	13280.39
635.339	13079.69
635.533	13202.57
635.726	13055.12
635.92	12551.32
636.114	12940.43
636.308	12668.05
636.501	12666
636.695	12655.76
636.889	12469.4
637.083	12504.21
637.276	12323.99
637.47	12274.84
637.664	12082.33
637.857	12250.27
638.051	12188.83
638.244	11904.16
638.438	11928.74
638.632	12047.52
638.825	11613.35
639.019	11818.14
639.212	11500.71
639.406	11615.4
639.599	11496.61
639.793	11680.93
639.986	11447.46
640.18	11445.41
640.373	11390.12
640.567	11019.44
640.76	11125.93
640.954	11107.5
641.147	10931.37
641.34	11035.82
641.534	11166.89
641.727	10878.13
641.92	10843.31
642.114	10595.51
642.307	10925.23
642.5	10671.28
642.694	10321.08
642.887	10439.86
643.08	10685.62
643.273	10441.91
643.467	10278.07
643.66	10237.11
643.853	10296.5
644.046	10284.22
644.239	10214.59
644.432	9895.1
644.626	10009.79
644.819	9651.39
645.012	10015.93
645.205	9979.07
645.398	9802.94
645.591	9790.66
645.784	9745.6
645.977	9731.26
646.17	9626.82
646.363	9368.77
646.556	9491.65
646.749	9456.84
646.942	9309.38
647.135	9272.52
647.328	9278.66
647.521	9374.92
647.714	9030.86
647.907	8985.8
648.099	9141.45
648.292	9131.21
648.485	9389.25
648.678	8795.34
648.871	8871.12
649.064	8961.23
649.256	8850.64
649.449	8518.87
649.642	8672.47
649.835	8731.86
650.027	8572.11
650.22	8625.36
650.413	8498.39
650.605	8596.69
650.798	8342.74
650.991	8334.55
651.183	8361.17
651.376	8412.37
651.568	8316.12
651.761	8277.21
651.954	8277.21
652.146	8226.01
652.339	8072.41
652.531	8000.73
652.724	8045.79
652.916	7902.43
653.109	7881.95
653.301	7857.37
653.494	7910.62
653.686	7660.77
653.879	7849.18
654.071	7814.37
654.263	7722.21
654.456	7675.1
654.648	7632.1
654.84	7630.05
655.033	7546.08
655.225	7597.28
655.417	7347.43
655.61	7621.86
655.802	7449.83
655.994	7310.57
656.186	7347.43
656.379	7175.4
656.571	7357.67
656.763	7222.5
656.955	7195.88
657.148	7216.36
657.34	7359.72
657.532	6982.89
657.724	6950.12
657.916	7068.91
658.108	7040.23
658.3	6823.15
658.492	6855.92
658.684	6919.4
658.876	6892.78
659.068	6849.77
659.26	6685.94
659.452	6776.05
659.644	6669.55
659.836	6499.57
660.028	6644.98
660.22	6460.66
660.412	6331.64
660.604	6395.12
660.796	6687.98
660.988	6554.87
661.18	6421.75
661.372	6395.12
661.563	6329.59
661.755	6305.01
661.947	6348.02
662.139	6343.92
662.331	6200.57
662.522	6204.66
662.714	6241.53
662.906	6038.78
663.097	6376.69
663.289	6083.83
663.481	6092.02
663.673	5971.19
663.864	6106.36
664.056	5823.74
664.247	5917.95
664.439	5922.04
664.631	6026.49
664.822	5956.86
665.014	5864.7
665.205	5870.84
665.397	5793.02
665.588	5919.99
665.78	5733.63
665.971	5670.14
666.163	5756.16
666.354	5651.71
666.546	5641.47
666.737	5457.15
666.929	5754.11
667.12	5704.96
667.311	5508.35
667.503	5397.76
667.694	5479.68
667.885	5518.59
668.077	5653.76
668.268	5430.53
668.459	5393.67
668.651	5436.67
668.842	5522.69
669.033	5389.57
669.224	5381.38
669.416	5526.78
669.607	5260.55
669.798	5246.21
669.989	5371.14
670.18	5211.4
670.371	5278.98
670.563	5092.62
670.754	5231.88
670.945	5324.04
671.136	5295.36
671.327	5115.14
671.518	5186.82
671.709	5184.77
671.9	5094.66
672.091	5168.39
672.282	5254.41
672.473	5008.65
672.664	5149.96
672.855	4900.11
673.046	5022.98
673.237	5061.9
673.428	5016.84
673.619	5104.9
673.809	4932.87
674	5012.74
674.191	4949.26
674.382	4830.48
674.573	4967.69
674.764	5035.27
674.954	5070.09
675.145	4762.89
675.336	4877.58
675.527	4984.07
675.717	4971.79
675.908	4826.38
676.099	4967.69
676.289	4916.49
676.48	4766.99
676.671	4781.32
676.861	4967.69
677.052	4713.74
677.243	4943.11
677.433	4879.63
677.624	4828.43
677.814	4812.04
678.005	4842.76
678.195	4822.28
678.386	4853
678.576	4644.11
678.767	4807.95
678.957	4877.58
679.148	4683.02
679.338	4791.56
679.529	4707.6
679.719	4611.34
679.909	4795.66
680.1	4943.11
680.29	4586.77
680.481	4750.6
680.671	4873.48
680.861	4723.98
681.052	4736.27
681.242	4662.54
681.432	4713.74
681.622	4652.3
681.813	4719.89
682.003	4666.64
682.193	4728.08
682.383	4885.77
682.573	4721.93
682.764	4881.67
682.954	4758.8
683.144	4738.32
683.334	4603.15
683.524	4732.17
683.714	4658.45
683.904	4601.1
684.094	4672.78
684.284	4683.02
684.474	4762.89
684.664	4586.77
684.854	4697.36
685.044	4654.35
685.234	4502.8
685.424	4592.91
685.614	4545.81
685.804	4642.06
685.994	4576.53
686.184	4592.91
686.374	4623.63
686.564	4510.99
686.753	4560.14
686.943	4478.22
687.133	4328.72
687.323	4443.41
687.513	4416.79
687.702	4357.39
687.892	4394.26
688.082	4218.13
688.272	4422.93
688.461	4355.35
688.651	4351.25
688.841	4263.19
689.03	4248.85
689.22	4177.17
689.41	4103.45
689.599	4259.09
689.789	4078.87
689.979	4246.8
690.168	4138.26
690.358	4107.54
690.547	4136.21
690.737	4105.49
690.926	4119.83
691.116	4058.39
691.305	4197.65
691.495	4015.38
691.684	4015.38
691.874	4005.14
692.063	4009.24
692.252	4025.62
692.442	4107.54
692.631	3704.09
692.82	4037.91
693.01	3898.65
693.199	4007.19
693.388	3939.61
693.578	3890.46
693.767	3826.97
693.956	3808.54
694.146	3786.01
694.335	3894.55
694.524	3896.6
694.713	3751.2
694.902	3829.02
695.092	3702.04
695.281	3757.34
695.47	3620.13
695.659	3743
695.848	3695.9
696.037	3708.19
696.226	3757.34
696.415	3677.47
696.604	3734.81
696.793	3654.94
696.982	3730.72
697.171	3771.68
697.36	3671.33
697.549	3583.26
697.738	3720.48
697.927	3644.7
698.116	3636.51
698.305	3499.3
698.494	3732.76
698.683	3577.12
698.872	3677.47
699.061	3495.2
699.25	3538.21
699.438	3618.08
699.627	3589.41
699.816	3607.84
700.005	3476.77
700.193	3534.11
700.382	3530.02
700.571	3513.63
700.76	3542.3
700.948	3620.13
701.137	3667.23
701.326	3484.96
701.514	3480.86
701.703	3536.16
701.892	3425.57
702.08	3616.03
702.269	3497.25
702.457	3425.57
702.646	3466.53
702.834	3478.82
703.023	3468.58
703.212	3575.07
703.4	3640.61
703.589	3368.23
703.777	3415.33
703.965	3462.43
704.154	3429.66
704.342	3560.73
704.531	3466.53
704.719	3462.43
704.907	3620.13
705.096	3380.51
705.284	3470.62
705.472	3607.84
705.661	3591.45
705.849	3480.86
706.037	3540.26
706.226	3509.54
706.414	3454.24
706.602	3534.11
706.79	3421.47
706.979	3456.29
707.167	3458.34
707.355	3437.86
707.543	3595.55
707.731	3591.45
707.919	3538.21
708.107	3511.58
708.296	3534.11
708.484	3396.9
708.672	3530.02
708.86	3542.3
709.048	3564.83
709.236	3456.29
709.424	3474.72
709.612	3601.69
709.8	3579.17
709.988	3642.65
710.176	3642.65
710.364	3540.26
710.551	3454.24
710.739	3503.39
710.927	3470.62
711.115	3656.99
711.303	3718.43
711.491	3536.16
711.679	3423.52
711.866	3665.18
712.054	3722.52
712.242	3517.73
712.43	3753.24
712.617	3564.83
712.805	3591.45
712.993	3585.31
713.181	3669.28
713.368	3544.35
713.556	3564.83
713.744	3525.92
713.931	3677.47
714.119	3626.27
714.306	3470.62
714.494	3695.9
714.682	3579.17
714.869	3702.04
715.057	3575.07
715.244	3568.93
715.432	3640.61
715.619	3605.79
715.807	3673.37
715.994	3716.38
716.182	3661.09
716.369	3736.86
716.556	3831.07
716.744	3685.66
716.931	3724.57
717.119	3650.85
717.306	3773.72
717.493	3738.91
717.681	3702.04
717.868	3700
718.055	3810.59
718.242	3659.04
718.43	3679.52
718.617	3798.3
718.804	3792.16
718.991	3747.1
719.179	3704.09
719.366	3605.79
719.553	3755.29
719.74	3763.48
719.927	3734.81
720.114	3755.29
720.301	3636.51
720.488	3730.72
720.676	3679.52
720.863	3720.48
721.05	3767.58
721.237	3767.58
721.424	3700
721.611	3740.96
721.798	3853.59
721.985	3773.72
722.172	3691.8
722.358	3878.17
722.545	3857.69
722.732	3906.84
722.919	3796.25
723.106	3771.68
723.293	3695.9
723.48	3755.29
723.667	3822.87
723.853	3853.59
724.04	3761.44
724.227	3839.26
724.414	3790.11
724.6	3804.44
724.787	3874.07
724.974	3859.74
725.161	3908.89
725.347	3693.85
725.534	3898.65
725.72	3931.42
725.907	3894.55
726.094	3896.6
726.28	3816.73
726.467	3839.26
726.653	3822.87
726.84	4033.82
727.027	3980.57
727.213	3730.72
727.4	3831.07
727.586	3888.41
727.773	3872.03
727.959	4015.38
728.145	3912.99
728.332	4105.49
728.518	3917.08
728.705	4060.44
728.891	3912.99
729.077	3962.14
729.264	3917.08
729.45	4050.2
729.636	3970.33
729.823	3867.93
730.009	3986.71
730.195	3951.9
730.382	4130.07
730.568	4107.54
730.754	4017.43
730.94	4011.29
731.126	4230.42
731.313	4191.51
731.499	3923.23
731.685	4140.31
731.871	3958.04
732.057	4060.44
732.243	3962.14
732.429	3933.47
732.615	3933.47
732.801	4087.06
732.987	3968.28
733.173	4097.3
733.359	3994.9
733.545	4042.01
733.731	4046.1
733.917	4136.21
734.103	4029.72
734.289	3947.8
734.475	4109.59
734.661	3984.66
734.847	4068.63
735.033	4101.4
735.219	4039.96
735.404	4019.48
735.59	4039.96
735.776	4001.05
735.962	4097.3
736.148	4181.27
736.333	4027.67
736.519	3999
736.705	3999
736.89	3880.22
737.076	4046.1
737.262	3978.52
737.447	3906.84
737.633	4011.29
737.819	3872.03
738.004	4029.72
738.19	4025.62
738.375	3992.86
738.561	4123.93
738.747	4021.53
738.932	4185.37
739.118	4052.25
739.303	4076.82
739.489	4070.68
739.674	4134.17
739.859	3919.13
740.045	3982.62
740.23	3919.13
740.416	4058.39
740.601	4011.29
740.786	3970.33
740.972	3835.16
741.157	3890.46
741.342	3890.46
741.528	3966.23
741.713	3833.11
741.898	4027.67
742.084	3915.03
742.269	3853.59
742.454	3810.59
742.639	3941.66
742.824	3917.08
743.01	3874.07
743.195	3912.99
743.38	3634.46
743.565	3665.18
743.75	3726.62
743.935	3726.62
744.12	3835.16
744.305	3618.08
744.49	3708.19
744.675	3591.45
744.86	3806.49
745.045	3679.52
745.23	3675.42
745.415	3757.34
745.6	3648.8
745.785	3601.69
745.97	3679.52
746.155	3493.15
746.34	3736.86
746.525	3519.78
746.71	3601.69
746.895	3454.24
747.079	3460.38
747.264	3433.76
747.449	3523.87
747.634	3317.03
747.819	3552.54
748.003	3503.39
748.188	3435.81
748.373	3390.75
748.557	3499.3
748.742	3304.74
748.927	3333.41
749.111	3390.75
749.296	3237.16
749.481	3179.81
749.665	3312.93
749.85	3243.3
750.034	3263.78
750.219	3228.96
750.404	3226.92
750.588	3106.09
750.773	3024.17
750.957	3214.63
751.141	3061.03
751.326	3204.39
751.51	2981.16
751.695	3099.94
751.879	3061.03
752.064	3011.88
752.248	2983.21
752.432	3001.64
752.617	3030.31
752.801	2944.3
752.985	2948.39
753.17	2874.67
753.354	2880.81
753.538	3005.74
753.722	2802.99
753.907	2723.12
754.091	2770.22
754.275	2829.61
754.459	2831.66
754.643	2602.29
754.828	2686.25
755.012	2762.03
755.196	2700.59
755.38	2635.05
755.564	2540.85
755.748	2579.76
755.932	2690.35
756.116	2598.19
756.3	2598.19
756.484	2690.35
756.668	2637.1
756.852	2469.17
757.036	2557.23
757.22	2440.5
757.404	2413.87
757.588	2428.21
757.772	2432.3
757.956	2391.34
758.14	2432.3
758.323	2317.62
758.507	2362.67
758.691	2381.1
758.875	2360.63
759.059	2395.44
759.242	2280.75
759.426	2393.39
759.61	2356.53
759.794	2192.69
759.977	2209.08
760.161	2338.1
760.345	2227.51
760.528	2309.43
760.712	2215.22
760.895	2188.6
761.079	2235.7
761.263	2041.14
761.446	2137.4
761.63	2135.35
761.813	2147.64
761.997	2100.53
762.18	2159.92
762.364	2055.48
762.547	2010.42
762.731	2100.53
762.914	1975.61
763.098	2035
763.281	2043.19
763.464	2092.34
763.648	2032.95
763.831	1977.66
764.015	2090.29
764.198	1948.98
764.381	1953.08
764.564	2067.77
764.748	2014.52
764.931	2067.77
765.114	1938.74
765.297	2002.23
765.481	1899.83
765.664	1920.31
765.847	1903.93
766.03	1926.46
766.213	1807.67
766.397	1914.17
766.58	1811.77
766.763	1879.35
766.946	1862.97
767.129	1860.92
767.312	1928.5
767.495	1928.5
767.678	1729.85
767.861	1768.76
768.044	1822.01
768.227	1836.35
768.41	1701.18
768.593	1791.29
768.776	1760.57
768.959	1764.67
769.142	1754.43
769.324	1768.76
769.507	1811.77
769.69	1725.75
769.873	1660.22
770.056	1760.57
770.239	1631.55
770.421	1770.81
770.604	1699.13
770.787	1623.36
770.97	1660.22
771.152	1649.98
771.335	1637.69
771.518	1559.87
771.7	1623.36
771.883	1586.49
772.066	1545.53
772.248	1539.39
772.431	1594.68
772.613	1617.21
772.796	1443.14
772.978	1551.68
773.161	1672.51
773.343	1459.52
773.526	1563.97
773.708	1463.61
773.891	1314.11
774.073	1598.78
774.256	1527.1
774.438	1506.62
774.621	1461.57
774.803	1361.22
774.985	1379.65
775.168	1434.94
775.35	1447.23
775.532	1428.8
775.715	1496.38
775.897	1344.83
776.079	1350.98
776.261	1348.93
776.444	1287.49
776.626	1353.02
776.808	1275.2
776.99	1181
777.173	1279.3
777.355	1283.39
777.537	1267.01
777.719	1350.98
777.901	1287.49
778.083	1258.82
778.265	1195.33
778.447	1244.48
778.629	1215.81
778.811	1299.78
778.993	1170.76
779.175	1281.35
779.357	1226.05
779.539	1127.75
779.721	1240.39
779.903	1156.42
780.085	1142.08
780.267	1117.51
780.449	1086.79
780.631	1197.38
780.812	1097.03
780.994	1070.4
781.176	1074.5
781.358	939.33
781.54	1006.92
781.721	1068.36
781.903	1078.6
782.085	1131.84
782.267	1047.88
782.448	939.33
782.63	1072.45
782.812	1008.97
782.993	1029.45
783.175	1033.54
783.357	886.09
783.538	957.77
783.72	908.62
783.901	965.96
784.083	974.15
784.264	933.19
784.446	881.99
784.627	857.42
784.809	834.89
784.99	884.04
785.172	857.42
785.353	900.42
785.535	841.03
785.716	761.16
785.897	851.27
786.079	763.21
786.26	879.94
786.441	808.26
786.623	722.25
786.804	881.99
786.985	816.46
787.167	841.03
787.348	818.5
787.529	851.27
787.71	824.65
787.891	830.79
788.073	732.49
788.254	830.79
788.435	689.48
788.616	826.7
788.797	681.29
788.978	779.59
789.159	740.68
789.34	806.22
789.522	693.58
789.703	726.35
789.884	703.82
790.065	732.49
790.246	824.65
790.427	718.15
790.607	722.25
790.788	761.16
790.969	689.48
791.15	644.43
791.331	677.19
791.512	607.56
791.693	595.28
791.874	611.66
792.054	752.97
792.235	718.15
792.416	550.22
792.597	679.24
792.778	664.91
792.958	660.81
793.139	673.1
793.32	628.04
793.5	611.66
793.681	675.15
793.862	619.85
794.042	503.12
794.223	501.07
794.404	578.89
794.584	486.73
794.765	496.97
794.945	544.08
795.126	593.23
795.306	609.61
795.487	546.12
795.667	605.52
795.848	476.49
796.028	468.3
796.209	533.84
796.389	574.8
796.57	562.51
796.75	503.12
796.93	585.04
797.111	533.84
797.291	507.21
797.471	513.36
797.652	552.27
797.832	462.16
798.012	499.02
798.192	468.3
798.373	505.17
798.553	509.26
798.733	521.55
798.913	410.96
799.093	517.45
799.274	578.89
799.454	462.16
799.634	486.73
799.814	417.1
799.994	482.64
800.174	431.44
800.354	453.97
800.534	464.21
800.714	427.34
800.894	398.67
801.074	425.29
801.254	353.62
801.434	484.69
801.614	402.77
801.794	490.83
801.974	1168.71
802.154	439.63
802.334	472.4
802.514	353.62
802.693	392.53
802.873	388.43
803.053	413.01
803.233	445.77
803.413	443.73
803.592	363.86
803.772	388.43
803.952	410.96
804.131	343.38
804.311	388.43
804.491	503.12
804.67	353.62
804.85	353.62
805.03	394.58
805.209	456.01
805.389	343.38
805.568	345.42
805.748	378.19
805.928	384.34
806.107	429.39
806.287	374.1
806.466	337.23
806.646	386.38
806.825	472.4
807.004	380.24
807.184	355.66
807.363	388.43
807.543	372.05
807.722	380.24
807.901	390.48
808.081	380.24
808.26	351.57
808.439	382.29
808.619	347.47
808.798	372.05
808.977	351.57
809.156	370
809.336	273.75
809.515	277.84
809.694	269.65
809.873	290.13
810.052	320.85
810.231	355.66
810.411	357.71
810.59	292.18
810.769	322.9
810.948	306.51
811.127	271.7
811.306	349.52
811.485	269.65
811.664	335.18
811.843	296.27
812.022	322.9
812.201	257.36
812.38	300.37
812.559	312.66
812.737	288.08
812.916	316.75
813.095	341.33
813.274	345.42
813.453	296.27
813.632	359.76
813.811	386.38
813.989	245.07
814.168	261.46
814.347	292.18
814.526	296.27
814.704	355.66
814.883	384.34
815.062	187.73
815.24	314.7
815.419	253.27
815.598	298.32
815.776	286.03
815.955	257.36
816.133	200.02
816.312	312.66
816.49	259.41
816.669	243.03
816.847	255.31
817.026	257.36
817.204	288.08
817.383	290.13
817.561	283.98
817.74	290.13
817.918	265.55
818.097	234.83
818.275	177.49
818.453	222.55
818.632	322.9
818.81	179.54
818.988	267.6
819.167	251.22
819.345	202.07
819.523	267.6
819.701	269.65
819.879	326.99
820.058	210.26
820.236	226.64
820.414	169.3
820.592	122.2
820.77	189.78
820.948	191.83
821.127	191.83
821.305	273.75
821.483	259.41
821.661	204.11
821.839	181.59
822.017	181.59
822.195	111.96
822.373	253.27
822.551	230.74
822.729	251.22
822.907	185.68
823.085	195.92
823.262	210.26
823.44	202.07
823.618	228.69
823.796	261.46
823.974	210.26
824.152	212.31
824.329	314.7
824.507	222.55
824.685	253.27
824.863	234.83
825.04	218.45
825.218	138.58
825.396	224.59
825.574	189.78
825.751	240.98
825.929	181.59
826.107	114
826.284	200.02
826.462	105.81
826.639	138.58
826.817	159.06
826.994	208.21
827.172	210.26
827.349	245.07
827.527	267.6
827.704	171.35
827.882	200.02
828.059	111.96
828.237	159.06
828.414	202.07
828.591	101.72
828.769	111.96
828.946	150.87
829.124	150.87
829.301	163.15
829.478	157.01
829.655	111.96
829.833	165.2
830.01	165.2
830.187	214.35
830.364	107.86
830.542	181.59
830.719	157.01
830.896	140.63
831.073	204.11
831.25	208.21
831.427	130.39
831.604	54.61
831.782	142.68
831.959	107.86
832.136	159.06
832.313	118.1
832.49	103.76
832.667	228.69
832.844	150.87
833.021	220.5
833.198	142.68
833.374	75.09
833.551	157.01
833.728	103.76
833.905	167.25
834.082	114
834.259	120.15
834.436	195.92
834.612	116.05
834.789	173.39
834.966	126.29
835.143	140.63
835.319	81.24
835.496	185.68
835.673	56.66
835.85	114
836.026	122.2
836.203	134.48
836.38	163.15
836.556	118.1
836.733	120.15
836.909	146.77
837.086	111.96
837.262	81.24
837.439	114
837.616	56.66
837.792	109.91
837.968	152.91
838.145	152.91
838.321	134.48
838.498	93.52
838.674	150.87
838.851	126.29
839.027	122.2
839.203	60.76
839.38	177.49
839.556	107.86
839.732	118.1
839.909	93.52
840.085	146.77
840.261	64.85
840.437	128.34
840.614	64.85
840.79	142.68
840.966	101.72
841.142	97.62
841.318	13.65
841.494	77.14
841.671	122.2
841.847	48.47
842.023	130.39
842.199	109.91
842.375	79.19
842.551	83.28
842.727	73.04
842.903	185.68
843.079	64.85
843.255	71
843.431	140.63
843.607	111.96
843.783	32.08
843.959	142.68
844.134	58.71
844.31	175.44
844.486	54.61
844.662	77.14
844.838	109.91
845.013	150.87
845.189	148.82
845.365	54.61
845.541	71
845.716	89.43
845.892	71
846.068	126.29
846.244	68.95
846.419	169.3
846.595	38.23
846.77	87.38
846.946	206.16
847.122	46.42
847.297	95.57
847.473	128.34
847.648	-4.78
847.824	99.67
847.999	36.18
848.175	89.43
848.35	75.09
848.526	93.52
848.701	101.72
848.876	85.33
849.052	77.14
849.227	27.99
849.403	95.57
849.578	66.9
849.753	71
849.929	68.95
850.104	25.94
850.279	109.91
850.454	64.85
850.63	124.24
850.805	93.52
850.98	87.38
851.155	75.09
851.33	105.81
851.505	27.99
851.681	107.86
851.856	62.8
852.031	136.53
852.206	32.08
852.381	95.57
852.556	27.99
852.731	32.08
852.906	54.61
853.081	93.52
853.256	114
853.431	46.42
853.606	89.43
853.781	-2.73
853.956	40.28
854.131	15.7
854.305	83.28
854.48	44.37
854.655	52.56
854.83	97.62
855.005	52.56
855.18	93.52
855.354	7.51
855.529	91.48
855.704	66.9
855.879	81.24
856.053	75.09
856.228	107.86
856.403	-10.92
856.577	85.33
856.752	27.99
856.926	105.81
857.101	93.52
857.276	79.19
857.45	97.62
857.625	52.56
857.799	23.89
857.974	38.23
858.148	-29.35
858.323	87.38
858.497	11.61
858.672	38.23
858.846	75.09
859.02	103.76
859.195	15.7
859.369	13.65
859.543	97.62
859.718	34.13
859.892	23.89
860.066	71
860.241	27.99
860.415	30.04
860.589	-58.03
860.763	46.42
860.938	-51.88
861.112	40.28
861.286	-4.78
861.46	46.42
861.634	54.61
861.808	116.05
861.982	60.76
862.157	-55.98
862.331	23.89
862.505	3.41
862.679	-23.21
862.853	62.8
863.027	56.66
863.201	144.72
863.375	46.42
863.549	21.84
863.722	5.46
863.896	138.58
864.07	50.52
864.244	25.94
864.418	97.62
864.592	68.95
864.766	42.32
864.939	17.75
865.113	77.14
865.287	58.71
865.461	-33.45
865.634	36.18
865.808	11.61
865.982	71
866.156	52.56
866.329	17.75
866.503	60.76
866.676	114
866.85	64.85
867.024	32.08
867.197	46.42
867.371	62.8
867.544	17.75
867.718	-4.78
867.891	5.46
868.065	58.71
868.238	19.8
868.412	62.8
868.585	154.96
868.759	87.38
868.932	17.75
869.105	15.7
869.279	83.28
869.452	44.37
869.625	-15.02
869.799	-17.07
869.972	-12.97
870.145	114
870.319	93.52
870.492	124.24
870.665	19.8
870.838	48.47
871.011	71
871.185	-10.92
871.358	-6.83
871.531	27.99
871.704	7.51
871.877	50.52
872.05	25.94
872.223	5.46
872.396	60.76
872.569	40.28
872.742	42.32
872.915	73.04
873.088	27.99
873.261	1.37
873.434	34.13
873.607	44.37
873.78	101.72
873.953	36.18
874.126	-12.97
874.299	73.04
874.471	-6.83
874.644	-17.07
874.817	13.65
874.99	77.14
875.163	-15.02
875.335	11.61
875.508	-35.5
875.681	73.04
875.853	-21.16
876.026	91.48
876.199	56.66
876.371	46.42
876.544	-49.83
876.717	7.51
876.889	13.65
877.062	23.89
877.234	-23.21
877.407	23.89
877.579	19.8
877.752	-2.73
877.924	120.15
878.097	103.76
878.269	-4.78
878.442	-2.73
878.614	19.8
878.786	68.95
878.959	58.71
879.131	15.7
879.303	-76.46
879.476	71
879.648	30.04
879.82	21.84
879.993	-15.02
880.165	54.61
880.337	-29.35
880.509	48.47
880.681	34.13
880.854	93.52
881.026	97.62
881.198	157.01
881.37	52.56
881.542	32.08
881.714	85.33
881.886	40.28
882.058	3.41
882.23	38.23
882.402	11.61
882.574	15.7
882.746	75.09
882.918	7.51
883.09	40.28
883.262	19.8
883.434	27.99
883.606	13.65
883.778	-25.26
883.95	118.1
884.122	11.61
884.293	1.37
884.465	23.89
884.637	58.71
884.809	-21.16
884.98	48.47
885.152	32.08
885.324	-19.11
885.496	-10.92
885.667	15.7
885.839	42.32
886.011	58.71
886.182	1.37
886.354	23.89
886.525	9.56
886.697	-6.83
886.869	-27.31
887.04	42.32
887.212	-39.59
887.383	19.8
887.555	38.23
887.726	-37.55
887.897	38.23
888.069	-10.92
888.24	95.57
888.412	-2.73
888.583	-4.78
888.754	73.04
888.926	-19.11
889.097	-39.59
889.268	-66.22
889.44	5.46
889.611	19.8
889.782	52.56
889.953	-76.46
890.125	42.32
890.296	-8.87
890.467	13.65
890.638	-33.45
890.809	25.94
890.98	-0.68
891.151	17.75
891.323	99.67
891.494	7.51
891.665	40.28
891.836	75.09
892.007	5.46
892.178	-94.89
892.349	56.66
892.52	42.32
892.691	13.65
892.862	23.89
893.032	-37.55
893.203	11.61
893.374	32.08
893.545	79.19
893.716	46.42
893.887	42.32
894.057	5.46
894.228	83.28
894.399	30.04
894.57	42.32
894.74	58.71
894.911	21.84
895.082	-15.02
895.253	62.8
895.423	-15.02
895.594	103.76
895.764	11.61
895.935	42.32
896.106	75.09
896.276	-6.83
896.447	30.04
896.617	-37.55
896.788	-25.26
896.958	56.66
897.129	3.41
897.299	54.61
897.47	54.61
897.64	62.8
897.81	34.13
897.981	40.28
898.151	23.89
898.322	50.52
898.492	62.8
898.662	-0.68
898.832	-6.83
899.003	-19.11
899.173	-37.55
899.343	11.61
899.513	3.41
