Data from USB4F104151__52__12-24-01-538.txt Node

Date: Fri Mar 14 12:24:01 EDT 2025
User: louis
Spectrometer: USB4F10415
Trigger mode: 4
Integration Time (sec): 3.500000E-2
Scans to average: 1
Electric dark correction enabled: true
Nonlinearity correction enabled: false
Boxcar width: 0
XAxis mode: Wavelengths
Number of Pixels in Spectrum: 3648
>>>>>Begin Spectral Data<<<<<
178.204	-132.61
178.424	-132.61
178.644	-132.61
178.864	-151.04
179.084	-101.89
179.304	2.56
179.524	-34.3
179.744	-40.45
179.964	35.33
180.184	6.66
180.404	33.28
180.624	-15.87
180.844	20.99
181.064	-30.21
181.283	20.99
181.503	-52.74
181.723	53.76
181.943	-36.35
182.163	64
182.383	59.9
182.602	45.57
182.822	68.09
183.042	102.91
183.262	6.66
183.482	20.99
183.701	64
183.921	72.19
184.141	37.38
184.361	25.09
184.58	78.33
184.8	14.85
185.02	8.7
185.239	51.71
185.459	49.66
185.679	68.09
185.898	6.66
186.118	96.77
186.338	78.33
186.557	41.47
186.777	0.51
186.997	94.72
187.216	88.57
187.436	96.77
187.655	43.52
187.875	61.95
188.095	-3.58
188.314	102.91
188.534	113.15
188.753	72.19
188.973	6.66
189.192	88.57
189.412	72.19
189.631	51.71
189.851	78.33
190.07	43.52
190.29	-48.64
190.509	41.47
190.729	-1.54
190.948	96.77
191.168	111.1
191.387	37.38
191.607	27.14
191.826	47.62
192.045	6.66
192.265	-44.54
192.484	23.04
192.704	66.05
192.923	-42.5
193.142	49.66
193.362	154.11
193.581	150.01
193.8	18.94
194.02	55.81
194.239	-17.92
194.458	111.1
194.678	-52.74
194.897	57.86
195.116	4.61
195.335	45.57
195.555	-1.54
195.774	4.61
195.993	66.05
196.212	-50.69
196.432	45.57
196.651	-1.54
196.87	37.38
197.089	31.23
197.308	49.66
197.528	31.23
197.747	-30.21
197.966	43.52
198.185	92.67
198.404	-13.82
198.623	127.49
198.842	82.43
199.062	49.66
199.281	33.28
199.5	12.8
199.719	66.05
199.938	57.86
200.157	57.86
200.376	92.67
200.595	43.52
200.814	68.09
201.033	51.71
201.252	45.57
201.471	31.23
201.69	10.75
201.909	10.75
202.128	6.66
202.347	47.62
202.566	37.38
202.785	8.7
203.004	-7.68
203.223	162.3
203.442	33.28
203.661	61.95
203.879	82.43
204.098	115.2
204.317	20.99
204.536	33.28
204.755	115.2
204.974	-3.58
205.193	102.91
205.411	115.2
205.63	49.66
205.849	49.66
206.068	6.66
206.287	61.95
206.505	53.76
206.724	10.75
206.943	-30.21
207.162	35.33
207.381	35.33
207.599	59.9
207.818	92.67
208.037	25.09
208.255	-34.3
208.474	70.14
208.693	-32.26
208.911	-30.21
209.13	107.01
209.349	61.95
209.567	111.1
209.786	29.18
210.005	55.81
210.223	23.04
210.442	-15.87
210.661	47.62
210.879	27.14
211.098	90.62
211.316	49.66
211.535	43.52
211.753	55.81
211.972	107.01
212.191	2.56
212.409	20.99
212.628	88.57
212.846	31.23
213.065	10.75
213.283	33.28
213.502	16.9
213.72	-7.68
213.938	98.81
214.157	37.38
214.375	37.38
214.594	14.85
214.812	66.05
215.031	-15.87
215.249	86.53
215.467	55.81
215.686	45.57
215.904	64
216.122	61.95
216.341	57.86
216.559	94.72
216.778	68.09
216.996	94.72
217.214	8.7
217.432	12.8
217.651	-7.68
217.869	16.9
218.087	53.76
218.306	59.9
218.524	72.19
218.742	33.28
218.96	61.95
219.179	39.42
219.397	10.75
219.615	160.25
219.833	115.2
220.051	10.75
220.27	68.09
220.488	78.33
220.706	18.94
220.924	29.18
221.142	20.99
221.36	86.53
221.578	113.15
221.796	-1.54
222.015	45.57
222.233	-11.78
222.451	100.86
222.669	-15.87
222.887	156.16
223.105	6.66
223.323	31.23
223.541	18.94
223.759	-1.54
223.977	45.57
224.195	68.09
224.413	70.14
224.631	115.2
224.849	84.48
225.067	80.38
225.285	-48.64
225.503	27.14
225.721	-26.11
225.939	92.67
226.157	16.9
226.375	190.97
226.592	2.56
226.81	68.09
227.028	74.24
227.246	68.09
227.464	25.09
227.682	123.39
227.9	53.76
228.117	104.96
228.335	131.58
228.553	-13.82
228.771	74.24
228.989	-65.02
229.206	12.8
229.424	43.52
229.642	117.25
229.86	-42.5
230.077	152.06
230.295	33.28
230.513	84.48
230.731	86.53
230.948	80.38
231.166	121.34
231.384	61.95
231.601	0.51
231.819	39.42
232.037	18.94
232.254	18.94
232.472	18.94
232.689	33.28
232.907	109.05
233.125	33.28
233.342	27.14
233.56	0.51
233.777	23.04
233.995	33.28
234.213	109.05
234.43	51.71
234.648	16.9
234.865	111.1
235.083	43.52
235.3	43.52
235.518	-28.16
235.735	-1.54
235.953	74.24
236.17	104.96
236.388	4.61
236.605	-11.78
236.822	74.24
237.04	45.57
237.257	31.23
237.475	35.33
237.692	49.66
237.909	57.86
238.127	100.86
238.344	121.34
238.562	88.57
238.779	-7.68
238.996	-7.68
239.214	29.18
239.431	55.81
239.648	-24.06
239.865	55.81
240.083	-42.5
240.3	4.61
240.517	-30.21
240.735	-1.54
240.952	109.05
241.169	74.24
241.386	-13.82
241.603	64
241.821	51.71
242.038	41.47
242.255	59.9
242.472	41.47
242.689	86.53
242.907	84.48
243.124	88.57
243.341	66.05
243.558	-11.78
243.775	-24.06
243.992	6.66
244.209	59.9
244.426	96.77
244.643	29.18
244.86	33.28
245.078	31.23
245.295	12.8
245.512	35.33
245.729	27.14
245.946	64
246.163	-22.02
246.38	29.18
246.597	-11.78
246.814	92.67
247.031	18.94
247.248	68.09
247.464	90.62
247.681	61.95
247.898	129.53
248.115	92.67
248.332	78.33
248.549	14.85
248.766	156.16
248.983	39.42
249.2	117.25
249.417	-13.82
249.633	8.7
249.85	78.33
250.067	80.38
250.284	27.14
250.501	84.48
250.717	90.62
250.934	-73.21
251.151	37.38
251.368	51.71
251.585	76.29
251.801	43.52
252.018	20.99
252.235	88.57
252.451	74.24
252.668	127.49
252.885	25.09
253.102	8.7
253.318	55.81
253.535	-1.54
253.752	-19.97
253.968	10.75
254.185	35.33
254.401	49.66
254.618	45.57
254.835	27.14
255.051	131.58
255.268	92.67
255.484	31.23
255.701	39.42
255.917	84.48
256.134	-36.35
256.351	61.95
256.567	18.94
256.784	111.1
257	-9.73
257.217	55.81
257.433	86.53
257.65	76.29
257.866	23.04
258.082	53.76
258.299	25.09
258.515	-7.68
258.732	33.28
258.948	39.42
259.165	61.95
259.381	-7.68
259.597	-22.02
259.814	107.01
260.03	14.85
260.246	72.19
260.463	8.7
260.679	41.47
260.895	18.94
261.112	100.86
261.328	-19.97
261.544	8.7
261.761	78.33
261.977	35.33
262.193	-11.78
262.409	100.86
262.626	55.81
262.842	68.09
263.058	-17.92
263.274	86.53
263.49	45.57
263.707	51.71
263.923	14.85
264.139	-50.69
264.355	49.66
264.571	102.91
264.787	66.05
265.004	127.49
265.22	76.29
265.436	64
265.652	8.7
265.868	133.63
266.084	-7.68
266.3	72.19
266.516	-5.63
266.732	49.66
266.948	90.62
267.164	29.18
267.38	94.72
267.596	92.67
267.812	141.82
268.028	18.94
268.244	-38.4
268.46	29.18
268.676	12.8
268.892	66.05
269.108	23.04
269.324	-3.58
269.54	-5.63
269.756	100.86
269.972	-9.73
270.188	43.52
270.403	78.33
270.619	-44.54
270.835	78.33
271.051	84.48
271.267	23.04
271.483	53.76
271.698	-3.58
271.914	111.1
272.13	31.23
272.346	31.23
272.562	-22.02
272.777	115.2
272.993	23.04
273.209	29.18
273.425	37.38
273.64	10.75
273.856	57.86
274.072	41.47
274.287	61.95
274.503	80.38
274.719	96.77
274.934	20.99
275.15	39.42
275.366	68.09
275.581	66.05
275.797	55.81
276.012	66.05
276.228	92.67
276.444	27.14
276.659	154.11
276.875	37.38
277.09	51.71
277.306	-11.78
277.521	92.67
277.737	41.47
277.952	86.53
278.168	72.19
278.383	2.56
278.599	53.76
278.814	102.91
279.03	86.53
279.245	80.38
279.461	64
279.676	25.09
279.892	23.04
280.107	0.51
280.322	43.52
280.538	64
280.753	29.18
280.969	123.39
281.184	41.47
281.399	107.01
281.615	-9.73
281.83	14.85
282.045	37.38
282.26	57.86
282.476	39.42
282.691	23.04
282.906	55.81
283.122	23.04
283.337	68.09
283.552	78.33
283.767	12.8
283.983	49.66
284.198	33.28
284.413	76.29
284.628	20.99
284.843	117.25
285.058	35.33
285.274	80.38
285.489	43.52
285.704	78.33
285.919	-13.82
286.134	-5.63
286.349	51.71
286.564	31.23
286.779	59.9
286.995	70.14
287.21	33.28
287.425	117.25
287.64	27.14
287.855	76.29
288.07	-32.26
288.285	72.19
288.5	92.67
288.715	72.19
288.93	29.18
289.145	66.05
289.36	78.33
289.575	129.53
289.79	14.85
290.004	45.57
290.219	147.97
290.434	59.9
290.649	8.7
290.864	-44.54
291.079	23.04
291.294	64
291.509	74.24
291.724	25.09
291.938	92.67
292.153	31.23
292.368	4.61
292.583	64
292.798	104.96
293.012	61.95
293.227	92.67
293.442	10.75
293.657	94.72
293.871	66.05
294.086	70.14
294.301	147.97
294.516	109.05
294.73	6.66
294.945	-7.68
295.16	53.76
295.374	82.43
295.589	51.71
295.804	86.53
296.018	78.33
296.233	107.01
296.447	25.09
296.662	-7.68
296.877	66.05
297.091	39.42
297.306	27.14
297.52	47.62
297.735	94.72
297.949	51.71
298.164	59.9
298.378	88.57
298.593	82.43
298.807	-13.82
299.022	121.34
299.236	37.38
299.451	47.62
299.665	12.8
299.88	-7.68
300.094	76.29
300.309	80.38
300.523	57.86
300.737	-11.78
300.952	-34.3
301.166	-3.58
301.381	23.04
301.595	78.33
301.809	-9.73
302.024	43.52
302.238	86.53
302.452	47.62
302.667	70.14
302.881	8.7
303.095	88.57
303.309	16.9
303.524	82.43
303.738	33.28
303.952	6.66
304.166	88.57
304.381	-34.3
304.595	102.91
304.809	84.48
305.023	45.57
305.237	-56.83
305.452	100.86
305.666	61.95
305.88	70.14
306.094	107.01
306.308	94.72
306.522	111.1
306.736	111.1
306.95	29.18
307.164	94.72
307.379	6.66
307.593	78.33
307.807	100.86
308.021	88.57
308.235	88.57
308.449	-17.92
308.663	86.53
308.877	115.2
309.091	29.18
309.305	96.77
309.519	-69.12
309.733	86.53
309.947	41.47
310.161	45.57
310.374	61.95
310.588	104.96
310.802	2.56
311.016	43.52
311.23	66.05
311.444	78.33
311.658	107.01
311.872	4.61
312.085	45.57
312.299	86.53
312.513	139.77
312.727	51.71
312.941	-30.21
313.154	59.9
313.368	53.76
313.582	53.76
313.796	47.62
314.009	88.57
314.223	55.81
314.437	72.19
314.651	39.42
314.864	-15.87
315.078	2.56
315.292	-13.82
315.505	-58.88
315.719	8.7
315.933	152.06
316.146	51.71
316.36	39.42
316.573	74.24
316.787	109.05
317.001	98.81
317.214	-24.06
317.428	25.09
317.641	2.56
317.855	86.53
318.068	49.66
318.282	49.66
318.495	59.9
318.709	94.72
318.922	66.05
319.136	162.3
319.349	47.62
319.563	82.43
319.776	39.42
319.99	23.04
320.203	66.05
320.417	70.14
320.63	53.76
320.843	82.43
321.057	59.9
321.27	121.34
321.483	16.9
321.697	111.1
321.91	94.72
322.124	88.57
322.337	98.81
322.55	35.33
322.763	0.51
322.977	-1.54
323.19	8.7
323.403	86.53
323.617	16.9
323.83	47.62
324.043	-3.58
324.256	53.76
324.469	16.9
324.683	80.38
324.896	57.86
325.109	90.62
325.322	-13.82
325.535	49.66
325.748	41.47
325.962	78.33
326.175	-11.78
326.388	45.57
326.601	111.1
326.814	76.29
327.027	82.43
327.24	119.29
327.453	-3.58
327.666	-15.87
327.879	27.14
328.092	10.75
328.305	94.72
328.518	18.94
328.731	86.53
328.944	51.71
329.157	51.71
329.37	57.86
329.583	129.53
329.796	113.15
330.009	2.56
330.222	170.49
330.435	76.29
330.648	74.24
330.861	25.09
331.073	90.62
331.286	-3.58
331.499	45.57
331.712	45.57
331.925	100.86
332.138	100.86
332.35	131.58
332.563	53.76
332.776	131.58
332.989	78.33
333.202	96.77
333.414	37.38
333.627	33.28
333.84	29.18
334.053	-5.63
334.265	18.94
334.478	-36.35
334.691	57.86
334.903	16.9
335.116	8.7
335.329	45.57
335.541	64
335.754	90.62
335.966	20.99
336.179	94.72
336.392	61.95
336.604	25.09
336.817	51.71
337.029	102.91
337.242	41.47
337.454	170.49
337.667	68.09
337.88	141.82
338.092	33.28
338.305	53.76
338.517	39.42
338.729	88.57
338.942	72.19
339.154	-40.45
339.367	49.66
339.579	33.28
339.792	23.04
340.004	61.95
340.217	-26.11
340.429	12.8
340.641	70.14
340.854	-11.78
341.066	51.71
341.278	125.44
341.491	166.4
341.703	23.04
341.915	47.62
342.128	150.01
342.34	64
342.552	18.94
342.764	80.38
342.977	121.34
343.189	98.81
343.401	72.19
343.613	4.61
343.826	29.18
344.038	-19.97
344.25	45.57
344.462	82.43
344.674	102.91
344.886	27.14
345.099	78.33
345.311	-5.63
345.523	8.7
345.735	37.38
345.947	115.2
346.159	66.05
346.371	37.38
346.583	88.57
346.795	96.77
347.007	66.05
347.219	84.48
347.431	12.8
347.643	96.77
347.855	94.72
348.067	64
348.279	2.56
348.491	121.34
348.703	76.29
348.915	10.75
349.127	8.7
349.339	47.62
349.551	74.24
349.763	70.14
349.975	115.2
350.187	4.61
350.399	25.09
350.61	31.23
350.822	53.76
351.034	68.09
351.246	98.81
351.458	70.14
351.669	49.66
351.881	104.96
352.093	96.77
352.305	129.53
352.517	47.62
352.728	100.86
352.94	72.19
353.152	-22.02
353.363	16.9
353.575	49.66
353.787	86.53
353.999	55.81
354.21	154.11
354.422	57.86
354.633	64
354.845	51.71
355.057	-17.92
355.268	64
355.48	111.1
355.692	6.66
355.903	29.18
356.115	-19.97
356.326	-11.78
356.538	59.9
356.749	84.48
356.961	107.01
357.172	25.09
357.384	53.76
357.595	180.73
357.807	6.66
358.018	4.61
358.23	86.53
358.441	100.86
358.653	82.43
358.864	23.04
359.075	25.09
359.287	66.05
359.498	109.05
359.709	72.19
359.921	53.76
360.132	127.49
360.344	64
360.555	29.18
360.766	104.96
360.977	16.9
361.189	129.53
361.4	27.14
361.611	90.62
361.823	76.29
362.034	12.8
362.245	18.94
362.456	66.05
362.667	88.57
362.879	-71.17
363.09	123.39
363.301	70.14
363.512	68.09
363.723	59.9
363.935	-5.63
364.146	27.14
364.357	57.86
364.568	92.67
364.779	18.94
364.99	72.19
365.201	90.62
365.412	166.4
365.623	-15.87
365.834	117.25
366.045	35.33
366.256	72.19
366.467	86.53
366.678	-19.97
366.889	107.01
367.1	111.1
367.311	70.14
367.522	8.7
367.733	43.52
367.944	49.66
368.155	76.29
368.366	68.09
368.577	115.2
368.788	90.62
368.999	47.62
369.209	64
369.42	129.53
369.631	104.96
369.842	109.05
370.053	90.62
370.264	133.63
370.474	51.71
370.685	29.18
370.896	2.56
371.107	14.85
371.317	47.62
371.528	41.47
371.739	147.97
371.95	100.86
372.16	90.62
372.371	-9.73
372.582	25.09
372.792	82.43
373.003	98.81
373.214	111.1
373.424	152.06
373.635	121.34
373.846	35.33
374.056	55.81
374.267	72.19
374.477	-60.93
374.688	100.86
374.898	100.86
375.109	145.92
375.319	55.81
375.53	64
375.74	70.14
375.951	98.81
376.161	111.1
376.372	74.24
376.582	47.62
376.793	10.75
377.003	47.62
377.214	18.94
377.424	39.42
377.635	16.9
377.845	82.43
378.055	150.01
378.266	47.62
378.476	29.18
378.686	68.09
378.897	129.53
379.107	76.29
379.317	111.1
379.528	90.62
379.738	98.81
379.948	-52.74
380.158	129.53
380.369	66.05
380.579	33.28
380.789	72.19
380.999	41.47
381.21	59.9
381.42	121.34
381.63	47.62
381.84	121.34
382.05	96.77
382.261	109.05
382.471	107.01
382.681	55.81
382.891	121.34
383.101	119.29
383.311	51.71
383.521	10.75
383.731	109.05
383.941	145.92
384.151	92.67
384.361	0.51
384.571	102.91
384.781	139.77
384.991	143.87
385.201	90.62
385.411	129.53
385.621	80.38
385.831	66.05
386.041	90.62
386.251	123.39
386.461	107.01
386.671	82.43
386.881	109.05
387.091	107.01
387.301	59.9
387.511	53.76
387.72	145.92
387.93	78.33
388.14	31.23
388.35	131.58
388.56	119.29
388.769	154.11
388.979	23.04
389.189	25.09
389.399	158.21
389.609	68.09
389.818	115.2
390.028	51.71
390.238	64
390.447	47.62
390.657	109.05
390.867	33.28
391.076	96.77
391.286	92.67
391.496	76.29
391.705	119.29
391.915	141.82
392.125	88.57
392.334	57.86
392.544	92.67
392.753	88.57
392.963	23.04
393.172	123.39
393.382	80.38
393.591	180.73
393.801	78.33
394.01	94.72
394.22	129.53
394.429	59.9
394.639	170.49
394.848	156.16
395.058	113.15
395.267	76.29
395.477	25.09
395.686	121.34
395.895	160.25
396.105	152.06
396.314	74.24
396.524	125.44
396.733	39.42
396.942	168.45
397.152	211.45
397.361	182.78
397.57	164.35
397.78	178.69
397.989	139.77
398.198	248.32
398.407	96.77
398.617	90.62
398.826	88.57
399.035	176.64
399.244	186.88
399.453	162.3
399.663	127.49
399.872	215.55
400.081	141.82
400.29	186.88
400.499	125.44
400.708	182.78
400.917	109.05
401.127	158.21
401.336	70.14
401.545	213.5
401.754	184.83
401.963	137.73
402.172	111.1
402.381	53.76
402.59	180.73
402.799	100.86
403.008	197.12
403.217	139.77
403.426	207.36
403.635	211.45
403.844	154.11
404.053	227.84
404.262	160.25
404.471	225.79
404.68	248.32
404.888	164.35
405.097	250.36
405.306	236.03
405.515	356.86
405.724	244.22
405.933	197.12
406.142	244.22
406.35	268.8
406.559	236.03
406.768	225.79
406.977	307.71
407.185	270.84
407.394	305.66
407.603	227.84
407.812	305.66
408.02	340.47
408.229	350.71
408.438	326.14
408.646	301.56
408.855	311.8
409.064	313.85
409.272	387.58
409.481	465.4
409.69	307.71
409.898	449.02
410.107	451.07
410.315	414.2
410.524	438.78
410.733	489.98
410.941	453.11
411.15	526.84
411.358	647.67
411.567	569.85
411.775	543.22
411.984	528.89
412.192	598.52
412.401	547.32
412.609	686.58
412.818	651.77
413.026	756.21
413.234	645.62
413.443	723.44
413.651	682.49
413.86	756.21
414.068	829.94
414.276	819.7
414.485	846.32
414.693	797.17
414.901	1024.5
415.11	997.87
415.318	942.58
415.526	1038.83
415.734	1063.41
415.943	1096.18
416.151	1094.13
416.359	1034.74
416.567	1184.24
416.776	1276.4
416.984	1315.31
417.192	1438.19
417.4	1354.22
417.608	1366.51
417.817	1378.79
418.025	1427.95
418.233	1665.51
418.441	1479.15
418.649	1636.84
418.857	1710.57
419.065	1907.17
419.273	1751.53
419.481	1974.75
419.689	1937.89
419.897	2130.4
420.105	2101.73
420.313	2161.12
420.521	2240.99
420.729	2255.33
420.937	2273.76
421.145	2380.25
421.353	2628.06
421.561	2687.45
421.769	2806.23
421.977	2818.52
422.185	2871.76
422.393	2939.35
422.601	3295.69
422.809	3133.9
423.017	3162.58
423.224	3441.1
423.432	3475.91
423.64	3365.32
423.848	3695.05
424.056	3625.42
424.263	3742.15
424.471	3983.81
424.679	4057.54
424.887	4344.25
425.094	4313.53
425.302	4370.88
425.51	4663.74
425.718	4716.98
425.925	4817.33
426.133	5032.37
426.341	5286.32
426.548	5444.01
426.756	5476.78
426.964	5530.03
427.171	5777.83
427.379	5806.5
427.586	6267.3
427.794	6349.22
428.001	6601.12
428.209	6785.43
428.417	6801.82
428.624	7213.46
428.832	7373.2
429.039	7219.6
429.247	7270.8
429.454	7811.46
429.662	8311.17
429.869	7907.72
430.076	8470.91
430.284	8130.95
430.491	8585.6
430.699	9120.12
430.906	9083.25
431.114	9146.74
431.321	9484.66
431.528	9617.77
431.736	10389.86
431.943	10934.62
432.15	10531.17
432.358	10504.54
432.565	11161.94
432.772	11198.81
432.979	11893.07
433.187	12157.25
433.394	12245.32
433.601	13035.83
433.808	12964.15
434.016	12712.25
434.223	13623.6
434.43	14131.5
434.637	14018.86
434.844	14762.27
435.052	15012.12
435.259	15057.18
435.466	15053.08
435.673	15137.05
435.88	16144.65
436.087	16558.34
436.294	16836.86
436.501	16488.71
436.708	16730.37
436.915	17314.04
437.122	17950.96
437.329	18176.23
437.537	18684.13
437.743	18960.61
437.95	18899.17
438.157	19902.67
438.364	20435.14
438.571	20531.4
438.778	20447.43
438.985	22395.05
439.192	21596.34
439.399	22411.43
439.606	21790.9
439.813	23130.27
440.02	24197.26
440.227	23832.72
440.433	23693.46
440.64	24529.03
440.847	24293.52
441.054	25106.56
441.261	26499.18
441.467	25895.03
441.674	26876.01
441.881	27949.14
442.088	27873.37
442.294	27461.72
442.501	28270.67
442.708	28987.46
442.914	29792.31
443.121	31107.11
443.328	30154.8
443.534	32682
443.741	31615.01
443.948	30912.55
444.154	33630.21
444.361	33613.82
444.568	33501.18
444.774	33540.1
444.981	34205.69
445.187	34928.62
445.394	36141.02
445.6	35977.18
445.807	39464.87
446.013	37550.02
446.22	38514.61
446.426	40042.4
446.633	40261.53
446.839	41383.82
447.046	39874.46
447.252	42030.97
447.459	41940.86
447.665	42002.3
447.871	43900.77
448.078	45412.17
448.284	43399.02
448.491	44373.85
448.697	45954.88
448.903	47204.14
449.11	47570.73
449.316	46288.7
449.522	47054.64
449.728	48367.39
449.935	48914.2
450.141	48854.81
450.347	49843.98
450.553	48301.85
450.76	48828.18
450.966	50697.98
451.172	49870.6
451.378	51289.84
451.584	50312.96
451.791	51205.87
451.997	51209.97
452.203	51734.25
452.409	52141.8
452.615	51582.7
452.821	49596.17
453.027	49145.62
453.233	51879.66
453.44	50009.86
453.646	50292.48
453.852	50487.04
454.058	51437.3
454.264	49848.07
454.47	50759.42
454.676	49395.47
454.882	50867.96
455.088	46985.01
455.294	47652.65
455.5	48107.3
455.705	48744.22
455.911	47306.54
456.117	45907.78
456.323	45479.75
456.529	42981.23
456.735	45041.49
456.941	43818.85
457.147	42854.26
457.352	41748.35
457.558	40880.02
457.764	41351.05
457.97	40429.46
458.176	39727.01
458.381	39471.01
458.587	37636.03
458.793	37808.06
458.999	35633.12
459.204	38256.57
459.41	37232.58
459.616	34646
459.821	34826.22
460.027	34682.86
460.233	33677.31
460.438	32149.53
460.644	32743.44
460.85	31453.22
461.055	30586.93
461.261	30601.26
461.466	28325.97
461.672	27560.03
461.878	29444.16
462.083	27404.38
462.289	26908.77
462.494	26691.69
462.7	25579.64
462.905	24801.41
463.111	25342.08
463.316	25669.75
463.522	25104.51
463.727	25389.18
463.932	25221.25
464.138	25090.18
464.343	25032.83
464.549	24219.79
464.754	25079.94
464.959	24694.92
465.165	24735.88
465.37	23449.75
465.575	23210.14
465.781	24000.66
465.986	24154.26
466.191	23437.47
466.397	22829.22
466.602	21674.17
466.807	22419.63
467.012	22970.53
467.218	22419.63
467.423	22220.97
467.628	22128.81
467.833	23263.39
468.038	22509.74
468.244	21713.08
468.449	22767.78
468.654	21995.7
468.859	21622.97
469.064	21567.67
469.269	20744.39
469.474	20904.13
469.679	21395.64
469.885	20820.16
470.09	21182.65
470.295	20680.9
470.5	20365.51
470.705	20598.98
470.91	20005.07
471.115	19704.02
471.32	20091.09
471.525	20193.48
471.73	19738.83
471.935	19558.61
472.139	18634.98
472.344	19011.81
472.549	18989.28
472.754	18751.71
472.959	18325.74
473.164	17938.67
473.369	17543.41
473.574	18325.74
473.778	18053.36
473.983	17953.01
474.188	17797.36
474.393	16947.45
474.598	17154.3
474.802	17109.24
475.007	16910.59
475.212	16859.39
475.417	16255.24
475.621	16226.57
475.826	16128.27
476.031	15960.33
476.235	15851.79
476.44	16038.16
476.645	15642.9
476.849	15577.36
477.054	15528.21
477.259	15241.5
477.463	15161.62
477.668	15057.18
477.872	15024.41
478.077	14647.58
478.282	14276.9
478.486	14367.01
478.691	14143.78
478.895	14100.78
479.1	13832.49
479.304	13998.38
479.509	13744.43
479.713	14215.46
479.918	13709.61
480.122	13328.69
480.326	13517.11
480.531	13721.9
480.735	13549.87
480.94	13158.71
481.144	13672.75
481.348	13205.81
481.553	13367.6
481.757	13082.94
481.961	13056.31
482.166	13394.23
482.37	13091.13
482.574	13046.07
482.778	13103.42
482.983	13228.34
483.187	13011.26
483.391	13259.06
483.595	13134.14
483.8	12790.08
484.004	12990.78
484.208	13144.38
484.412	12974.39
484.616	12816.7
484.821	13265.21
485.025	12708.16
485.229	13226.29
485.433	12767.55
485.637	13273.4
485.841	13025.59
486.045	13199.67
486.249	12990.78
486.453	12931.39
486.657	13228.34
486.861	13164.86
487.065	12681.53
487.269	13003.07
487.473	12710.21
487.677	13119.8
487.881	12884.28
488.085	12929.34
488.289	13009.21
488.493	13189.43
488.697	13084.98
488.901	13207.86
489.105	13322.55
489.309	13164.86
489.512	12906.81
489.716	13390.13
489.92	13314.36
490.124	13156.66
490.328	13476.15
490.531	13160.76
490.735	13111.61
490.939	13371.7
491.143	13506.87
491.346	13179.19
491.55	13543.73
491.754	13330.74
491.958	13697.33
492.161	13898.03
492.365	13631.79
492.569	13576.5
492.772	13912.36
492.976	13859.12
493.18	13816.11
493.383	14041.39
493.587	13992.23
493.79	14434.6
493.994	14086.44
494.197	14569.76
494.401	14401.83
494.605	14672.16
494.808	14627.1
495.012	14960.92
495.215	15008.03
495.419	15024.41
495.622	15100.19
495.825	15227.16
496.029	15323.41
496.232	15503.64
496.436	15446.29
496.639	15868.17
496.843	15784.21
497.046	16140.55
497.249	16298.25
497.453	15972.62
497.656	16355.59
497.859	16365.83
498.063	16697.6
498.266	16840.96
498.469	16888.06
498.673	16931.07
498.876	17543.41
499.079	17803.5
499.282	17744.11
499.485	18118.89
499.689	18145.52
499.892	18372.84
500.095	18409.7
500.298	18958.56
500.501	18747.62
500.705	18864.35
500.908	19378.39
501.111	19781.84
501.314	19712.21
501.517	19949.78
501.72	20379.85
501.923	20140.24
502.126	20736.2
502.329	21061.82
502.532	21096.64
502.735	20897.99
502.938	21590.2
503.141	21731.51
503.344	22116.53
503.547	22149.29
503.75	22626.47
503.953	22718.63
504.156	22794.4
504.359	23056.54
504.562	23318.68
504.765	23611.54
504.968	23943.31
505.17	24162.45
505.373	24361.1
505.576	24676.49
505.779	24983.68
505.982	25147.52
506.185	25456.76
506.387	25469.05
506.59	25960.56
506.793	26443.88
506.996	26382.45
507.198	26980.45
507.401	26964.07
507.604	27545.69
507.807	27799.64
508.009	27836.5
508.212	28006.48
508.415	28586.06
508.617	28573.77
508.82	29284.42
509.022	28862.54
509.225	29681.72
509.428	29608
509.63	30246.96
509.833	30472.24
510.035	31213.6
510.238	30976.04
510.44	31649.82
510.643	31680.54
510.845	31946.78
511.048	31764.51
511.25	32356.37
511.453	32442.38
511.655	33830.91
511.858	33228.8
512.06	33333.25
512.262	33748.99
512.465	33810.43
512.667	34854.89
512.87	35174.38
513.072	35051.5
513.274	35348.45
513.477	35921.88
513.679	36552.66
513.881	36591.57
514.084	36909
514.286	37236.68
514.488	37236.68
514.69	38467.51
514.893	38471.6
515.095	38686.64
515.297	39237.55
515.499	39167.91
515.701	39370.66
515.904	40075.16
516.106	40134.56
516.308	40890.26
516.51	41283.47
516.712	41133.96
516.914	41920.38
517.116	42512.25
517.318	42254.2
517.52	42739.57
517.722	43509.61
517.925	43624.29
518.127	44324.7
518.329	44566.36
518.531	44521.3
518.733	45248.33
518.935	45608.78
519.136	45352.78
519.338	46462.78
519.54	46126.91
519.742	46888.76
519.944	47200.05
520.146	47922.98
520.348	48023.33
520.55	48047.91
520.752	48619.29
520.954	48928.53
521.155	48822.04
521.357	49700.62
521.559	49729.29
521.761	50751.23
521.963	50138.88
522.164	50720.51
522.366	51066.61
522.568	51365.62
522.77	51558.13
522.971	52684.51
523.173	52119.27
523.375	52866.78
523.576	53069.53
523.778	53257.94
523.98	53835.47
524.181	53550.8
524.383	53829.32
524.584	54314.69
524.786	54871.74
524.988	54556.35
525.189	54795.96
525.391	55269.04
525.592	55953.07
525.794	55856.81
525.995	56039.08
526.197	56233.64
526.398	56192.68
526.6	56460.96
526.801	57036.44
527.003	56985.24
527.204	57276.05
527.406	57718.42
527.607	57894.54
527.808	57927.31
528.01	57153.18
528.211	57980.56
528.412	58746.5
528.614	58234.5
528.815	58799.74
529.016	59209.34
529.218	58676.86
529.419	58785.41
529.62	59059.83
529.822	59111.03
530.023	59498.1
530.224	59350.65
530.425	59393.65
530.626	59111.03
530.828	59016.83
531.029	59932.27
531.23	59491.96
531.431	59475.57
531.632	59647.6
531.833	60151.4
532.035	59909.74
532.236	60024.43
532.437	60321.38
532.638	60241.51
532.839	60544.61
533.04	60241.51
533.241	60153.45
533.442	60620.39
533.643	60130.92
533.844	60284.52
534.045	60536.42
534.246	60059.24
534.447	60890.72
534.648	60565.09
534.849	60800.61
535.05	59717.23
535.251	60647.01
535.451	60194.41
535.652	60823.14
535.853	60292.71
536.054	60814.94
536.255	60571.24
536.456	60257.9
536.657	61361.75
536.857	60673.63
537.058	60692.07
537.259	60704.35
537.46	60956.25
537.66	60454.5
537.861	60745.31
538.062	60712.55
538.263	60900.96
538.463	60479.08
538.664	60724.83
538.865	60741.22
539.065	60784.22
539.266	59969.13
539.466	60819.04
539.667	60460.65
539.868	61181.53
540.068	60839.52
540.269	60769.89
540.469	60831.33
540.67	60372.58
540.87	60505.7
541.071	60270.18
541.271	60755.55
541.472	60737.12
541.672	60106.35
541.873	60251.75
542.073	59979.37
542.274	60630.63
542.474	60493.41
542.675	60063.34
542.875	60968.54
543.075	60507.75
543.276	60059.24
543.476	60481.13
543.676	60241.51
543.877	60348.01
544.077	60528.23
544.277	60151.4
544.478	59995.76
544.678	60442.21
544.878	60399.21
545.078	60552.8
545.279	59889.26
545.479	59930.22
545.679	59960.94
545.879	60249.7
546.079	60354.15
546.28	60135.02
546.48	59942.51
546.68	60173.93
546.88	59805.3
547.08	60339.82
547.28	60028.52
547.48	59455.09
547.68	60110.44
547.88	59481.72
548.081	59836.01
548.281	59745.9
548.481	59301.5
548.681	60249.7
548.881	59840.11
549.081	59784.82
549.28	60235.37
549.48	60098.15
549.68	59430.52
549.88	60423.78
550.08	59555.44
550.28	59887.21
550.48	59776.62
550.68	60026.48
550.88	59803.25
551.08	59762.29
551.279	60040.81
551.479	59313.78
551.679	59463.28
551.879	59940.46
552.079	60106.35
552.278	59487.86
552.478	59420.28
552.678	59582.07
552.878	59813.49
553.077	59274.87
553.277	59012.73
553.477	60141.16
553.676	59016.83
553.876	59559.54
554.076	59168.38
554.275	59436.66
554.475	58537.6
554.674	59278.97
554.874	59344.5
555.074	59074.17
555.273	59090.55
555.473	59328.12
555.672	58732.16
555.872	58254.98
556.071	58832.51
556.271	58689.15
556.47	58394.24
556.67	58461.83
556.869	58609.28
557.068	58803.84
557.268	58111.63
557.467	58685.06
557.667	58619.52
557.866	58402.44
558.065	58015.37
558.265	58023.56
558.464	57970.32
558.663	58146.44
558.863	57454.23
559.062	58701.44
559.261	57558.67
559.461	58267.27
559.66	57231
559.859	57341.59
560.058	57280.15
560.258	57788.05
560.457	57521.81
560.656	57583.25
560.855	57317.01
561.054	57276.05
561.253	56999.58
561.453	57321.11
561.652	56884.89
561.851	57458.32
562.05	56956.57
562.249	56417.96
562.448	57011.87
562.647	56878.75
562.846	56444.58
563.045	56229.54
563.244	56542.88
563.443	56528.55
563.642	55586.48
563.841	56223.4
564.04	55289.52
564.239	56178.34
564.438	55697.07
564.637	55625.39
564.836	55838.38
565.035	55396.02
565.234	55375.54
565.432	55557.81
565.631	54886.07
565.83	55443.12
566.029	55097.02
566.228	54662.85
566.427	54707.9
566.625	54955.71
566.824	53939.91
567.023	54847.16
567.222	53634.77
567.42	54773.44
567.619	54261.44
567.818	54089.41
568.016	53376.72
568.215	54120.13
568.414	53634.77
568.612	53907.15
568.811	53403.35
569.01	53552.85
569.208	52661.98
569.407	53216.98
569.605	53028.57
569.804	52852.44
570.002	52526.81
570.201	52567.77
570.4	52483.81
570.598	52532.96
570.797	52004.58
570.995	52268.77
571.193	51314.42
571.392	52307.68
571.59	51578.6
571.789	51832.55
571.987	51588.84
572.186	51633.9
572.384	51191.54
572.582	51193.59
572.781	51508.97
572.979	50654.97
573.177	50736.89
573.376	50847.48
573.574	50126.6
573.772	50681.59
573.971	50110.21
574.169	49968.9
574.367	49678.09
574.565	50159.36
574.763	49968.9
574.962	50034.44
575.16	48922.39
575.358	49770.25
575.556	48899.86
575.754	49905.41
575.952	48725.78
576.151	49002.26
576.349	48414.49
576.547	48412.45
576.745	48858.9
576.943	48682.78
577.141	48090.91
577.339	48742.17
577.537	47894.31
577.735	48072.48
577.933	47750.95
578.131	47978.28
578.329	48045.86
578.527	47351.6
578.725	47222.58
578.923	47318.83
579.121	47212.34
579.319	46982.96
579.516	47040.31
579.714	47142.7
579.912	46370.62
580.11	46772.02
580.308	46841.65
580.506	46403.39
580.704	45743.94
580.901	46223.17
581.099	46593.85
581.297	46206.78
581.495	45809.48
581.692	45748.04
581.89	45533
582.088	45903.68
582.285	45109.07
582.483	45670.22
582.681	44891.99
582.878	45094.74
583.076	44889.94
583.274	44787.54
583.471	44345.18
583.669	44869.46
583.866	44226.4
584.064	44547.93
584.262	44242.78
584.459	44558.17
584.657	43939.68
584.854	44003.17
585.052	43220.84
585.249	43894.63
585.447	43827.04
585.644	43313
585.841	43149.17
586.039	43951.97
586.236	42864.5
586.434	42960.75
586.631	42667.89
586.828	42876.79
587.026	42970.99
587.223	42962.8
587.42	42067.84
587.618	42467.19
587.815	42114.94
588.012	41854.85
588.21	41838.47
588.407	42225.53
588.604	41428.87
588.801	41099.15
588.999	41654.15
589.196	41322.38
589.393	41424.78
589.59	41033.61
589.787	41088.91
589.984	40787.86
590.182	40308.63
590.379	40464.28
590.576	40544.15
590.773	40460.18
590.97	40079.26
591.167	40408.98
591.364	39839.65
591.561	39980.96
591.758	39684
591.955	40056.73
592.152	39952.29
592.349	39520.16
592.546	39770.02
592.743	39196.59
592.94	38842.29
593.137	38901.68
593.334	39489.45
593.531	38324.15
593.727	38588.34
593.924	39034.8
594.121	38547.38
594.318	38625.2
594.515	38201.27
594.712	38602.67
594.908	38229.94
595.105	38201.27
595.302	37664.71
595.499	38000.57
595.696	37947.32
595.892	37251.02
596.089	37619.65
596.286	37365.7
596.482	37373.89
596.679	36898.76
596.876	37464
597.072	37060.55
597.269	36937.68
597.466	36571.09
597.662	36427.73
597.859	36810.7
598.055	36745.17
598.252	36235.22
598.448	36335.57
598.645	36024.28
598.841	35702.75
599.038	35680.22
599.234	35887.07
599.431	35645.41
599.627	35569.63
599.824	36026.33
600.02	35248.1
600.217	35706.85
600.413	35096.55
600.609	34883.56
600.806	35119.08
601.002	34756.59
601.198	34469.87
601.395	34504.69
601.591	34338.8
601.787	34559.98
601.984	34267.13
602.18	34293.75
602.376	33992.7
602.572	34195.45
602.769	34021.37
602.965	33716.22
603.161	33646.59
603.357	33472.51
603.553	33290.24
603.75	33204.23
603.946	33288.2
604.142	33531.9
604.338	33048.58
604.534	33261.57
604.73	33042.44
604.926	32540.69
605.122	32440.34
605.318	32747.53
605.514	32368.66
605.71	32563.22
605.906	32217.11
606.102	32319.51
606.298	32229.4
606.494	31987.74
606.69	31850.52
606.886	32036.89
607.082	31522.85
607.278	32184.34
607.474	31242.28
607.67	32188.44
607.866	31629.34
608.062	31862.81
608.257	31176.74
608.453	31451.17
608.649	31240.23
608.845	31074.34
609.041	31121.45
609.236	31311.91
609.432	30828.59
609.628	31133.73
609.824	30988.33
610.019	30847.02
610.215	30603.31
610.411	30783.53
610.606	30361.65
610.802	30371.89
610.998	30314.55
611.193	30404.66
611.389	30277.68
611.584	30066.74
611.78	30128.18
611.976	30085.17
612.171	29995.06
612.367	30298.16
612.562	29646.91
612.758	29679.68
612.953	29804.6
613.149	30136.37
613.344	29612.09
613.539	30132.28
613.735	29534.27
613.93	29956.15
614.126	29540.41
614.321	29845.56
614.517	29321.28
614.712	29302.85
614.907	28858.44
615.103	29546.56
615.298	28971.08
615.493	29448.25
615.688	28729.42
615.884	29546.56
616.079	28829.77
616.274	28788.81
616.47	28930.12
616.665	28561.48
616.86	28280.91
617.055	28364.88
617.25	28545.1
617.445	28620.88
617.641	28237.91
617.836	28328.02
618.031	27828.31
618.226	28213.33
618.421	28020.82
618.616	28260.43
618.811	27951.19
619.006	27891.8
619.201	27500.64
619.396	27793.5
619.591	27392.09
619.786	27801.69
619.981	26964.07
620.176	26953.83
620.371	27183.2
620.566	27144.29
620.761	26757.22
620.956	27058.28
621.151	26789.99
621.346	26706.02
621.541	26224.75
621.735	26407.02
621.93	26110.07
622.125	25976.95
622.32	25385.08
622.515	25759.86
622.709	25569.4
622.904	25708.66
623.099	25116.8
623.294	25471.1
623.488	25012.35
623.683	24860.8
623.878	24856.71
624.072	24789.13
624.267	24660.1
624.462	24428.68
624.656	24111.25
624.851	24334.48
625.046	24006.8
625.24	23926.93
625.435	23840.92
625.629	23826.58
625.824	23529.62
626.018	23343.26
626.213	22964.39
626.407	23337.12
626.602	22714.53
626.796	22995.11
626.991	22872.23
627.185	22667.43
627.38	22370.47
627.574	22663.33
627.768	22194.35
627.963	22286.51
628.157	22026.42
628.352	21948.59
628.546	21907.63
628.74	21964.98
628.935	21311.67
629.129	21706.93
629.323	21190.84
629.517	21256.38
629.712	21287.1
629.906	21262.52
630.1	20842.69
630.294	20863.17
630.489	20666.56
630.683	20785.35
630.877	20545.73
631.071	20404.42
631.265	20197.58
631.459	20355.27
631.653	19982.54
631.848	19814.61
632.042	19742.93
632.236	19955.92
632.43	19648.72
632.624	19556.57
632.818	19470.55
633.012	19357.91
633.206	19237.08
633.4	19488.98
633.594	19050.72
633.788	18929.89
633.982	18813.15
634.176	19028.19
634.369	18624.74
634.563	18651.36
634.757	18438.37
634.951	18612.45
635.145	18387.18
635.339	18317.54
635.533	17918.19
635.726	18063.6
635.92	18061.55
636.114	18182.38
636.308	17680.63
636.501	17924.33
636.695	17613.04
636.889	17545.46
637.083	17461.49
637.276	17484.02
637.47	17219.83
637.664	17199.35
637.857	17080.57
638.051	17045.76
638.244	16894.21
638.438	16720.13
638.632	16789.76
638.825	16341.25
639.019	16226.57
639.212	16404.74
639.406	16556.29
639.599	16468.23
639.793	16140.55
639.986	15624.47
640.18	16218.38
640.373	16183.56
640.567	15853.84
640.76	15849.74
640.954	15632.66
641.147	15350.04
641.34	15589.65
641.534	15638.8
641.727	15591.7
641.92	15214.87
642.114	15001.88
642.307	15069.47
642.5	15014.17
642.694	14618.91
642.887	14706.98
643.08	14780.7
643.273	14749.98
643.467	14543.14
643.66	14557.47
643.853	14504.23
644.046	14231.85
644.239	14381.35
644.432	14074.15
644.626	14115.11
644.819	14145.83
645.012	14213.42
645.205	13840.68
645.398	13996.33
645.591	13656.37
645.784	13846.83
645.977	13543.73
646.17	13527.35
646.363	13418.8
646.556	13474.1
646.749	13412.66
646.942	13496.63
647.135	13297.97
647.328	13232.44
647.521	12925.24
647.714	12757.31
647.907	12841.28
648.099	12925.24
648.292	12982.59
648.485	12898.62
648.678	12429.63
648.871	12519.74
649.064	12538.18
649.256	12783.93
649.449	12314.95
649.642	12435.78
649.835	12153.16
650.027	12329.28
650.22	12040.52
650.413	11940.17
650.605	12210.5
650.798	11905.35
650.991	11950.41
651.183	11772.24
651.376	11749.71
651.568	11641.17
651.761	11473.23
651.954	11661.65
652.146	11559.25
652.339	11639.12
652.531	11516.24
652.724	11155.8
652.916	11127.13
653.109	11233.62
653.301	11129.17
653.494	11241.81
653.686	11088.21
653.879	11131.22
654.071	10772.83
654.263	10774.88
654.456	10975.58
654.648	10811.74
654.84	10473.82
655.033	10748.25
655.225	10830.17
655.417	10369.38
655.61	10686.81
655.802	10547.55
655.994	10432.86
656.186	10375.52
656.379	10117.48
656.571	10074.47
656.763	10402.15
656.955	10207.59
657.148	10072.42
657.34	10062.18
657.532	10023.27
657.724	9890.15
657.916	10076.52
658.108	9834.86
658.3	9754.99
658.492	9630.06
658.684	9613.68
658.876	9578.86
659.068	9656.68
659.26	9546.09
659.452	9701.74
659.644	9478.51
659.836	9079.16
660.028	9439.6
660.22	9308.53
660.412	9318.77
660.604	9075.06
660.796	9353.59
660.988	9027.96
661.18	9027.96
661.372	9015.67
661.563	9079.16
661.755	8943.99
661.947	8874.36
662.139	8673.66
662.331	8817.02
662.522	8675.71
662.714	8591.74
662.906	8450.43
663.097	8784.25
663.289	8544.64
663.481	8563.07
663.673	8503.68
663.864	8532.35
664.056	8436.1
664.247	8401.28
664.439	8214.91
664.631	8270.21
664.822	8286.59
665.014	8243.59
665.205	8051.08
665.397	8249.73
665.588	8067.46
665.78	8118.66
665.971	8014.21
666.163	7965.06
666.354	7958.92
666.546	7952.77
666.737	7838.09
666.929	7948.68
667.12	7793.03
667.311	7657.87
667.503	7672.2
667.694	7618.96
667.885	7813.51
668.077	7760.27
668.268	7641.48
668.459	7428.49
668.651	7500.17
668.842	7457.17
669.033	7428.49
669.224	7514.51
669.416	7641.48
669.607	7387.54
669.798	7483.79
669.989	7469.45
670.18	7395.73
670.371	7330.19
670.563	7207.31
670.754	7221.65
670.945	7299.47
671.136	7211.41
671.327	7195.03
671.518	6953.37
671.709	7023
671.9	6961.56
672.091	7016.85
672.282	7010.71
672.473	6719.9
672.664	6963.61
672.855	6967.7
673.046	7006.61
673.237	6941.08
673.428	6795.67
673.619	6861.21
673.809	6871.45
674	6853.02
674.191	6709.66
674.382	6695.32
674.573	6799.77
674.764	6760.86
674.954	6848.92
675.145	6629.79
675.336	6494.62
675.527	6523.29
675.717	6658.46
675.908	6461.85
676.099	6617.5
676.289	6420.89
676.48	6580.64
676.671	6508.96
676.861	6605.21
677.052	6472.09
677.243	6406.56
677.433	6484.38
677.624	6521.24
677.814	6408.61
678.005	6584.73
678.195	6447.52
678.386	6271.39
678.576	6250.91
678.767	6214.05
678.957	6396.32
679.148	6396.32
679.338	6269.34
679.529	6320.54
679.719	6392.22
679.909	6285.73
680.1	6295.97
680.29	6316.45
680.481	6220.19
680.671	6427.04
680.861	6238.62
681.052	6134.18
681.242	6273.44
681.432	6267.3
681.622	6138.27
681.813	6220.19
682.003	6119.84
682.193	6060.45
682.383	6162.85
682.573	6218.15
682.764	5919.14
682.954	6281.63
683.144	6107.55
683.334	6033.83
683.524	5943.72
683.714	5958.05
683.904	6058.4
684.094	6001.06
684.284	5984.68
684.474	6099.36
684.664	5867.94
684.854	6162.85
685.044	5976.48
685.234	5753.26
685.424	5835.17
685.614	5841.32
685.804	5759.4
685.994	5855.65
686.184	5833.13
686.374	5831.08
686.564	5691.82
686.753	5747.11
686.943	5738.92
687.133	5726.63
687.323	5763.5
687.513	5583.27
687.702	5745.06
687.892	5544.36
688.082	5489.07
688.272	5671.34
688.461	5532.08
688.651	5452.2
688.841	5439.92
689.03	5452.2
689.22	5405.1
689.41	5241.26
689.599	5276.08
689.789	5280.18
689.979	5376.43
690.168	5257.65
690.358	5161.39
690.547	5114.29
690.737	5173.68
690.926	5310.89
691.116	4946.36
691.305	5261.74
691.495	5177.78
691.684	4950.45
691.874	5032.37
692.063	4956.6
692.252	4993.46
692.442	5011.89
692.631	4907.45
692.82	5044.66
693.01	4956.6
693.199	4745.66
693.388	4923.83
693.578	4870.58
693.767	4725.18
693.956	4526.52
694.146	4727.22
694.335	4692.41
694.524	4813.24
694.713	4889.01
694.902	4596.15
695.092	4690.36
695.281	4694.46
695.47	4708.79
695.659	4571.58
695.848	4512.19
696.037	4481.47
696.226	4565.43
696.415	4592.06
696.604	4555.19
696.793	4544.95
696.982	4573.63
697.171	4450.75
697.36	4417.98
697.549	4403.64
697.738	4381.12
697.927	4530.62
698.116	4426.17
698.305	4262.33
698.494	4360.64
698.683	4346.3
698.872	4477.37
699.061	4481.47
699.25	4338.11
699.438	4344.25
699.627	4409.79
699.816	4352.45
700.005	4311.49
700.193	4413.88
700.382	4344.25
700.571	4303.29
700.76	4307.39
700.948	4438.46
701.137	4387.26
701.326	4360.64
701.514	4364.73
701.703	4364.73
701.892	4174.27
702.08	4389.31
702.269	4323.77
702.457	4278.72
702.646	4303.29
702.834	4207.04
703.023	4219.33
703.212	4372.93
703.4	4227.52
703.589	4080.07
703.777	4204.99
703.965	3998.15
704.154	4147.65
704.342	4035.01
704.531	4297.15
704.719	4014.53
704.907	4231.62
705.096	4151.74
705.284	4010.43
705.472	4114.88
705.661	4223.42
705.849	4174.27
706.037	4311.49
706.226	4211.14
706.414	4157.89
706.602	4067.78
706.79	4215.23
706.979	4088.26
707.167	4053.44
707.355	4231.62
707.543	4221.38
707.731	4139.46
707.919	4057.54
708.107	4141.5
708.296	4264.38
708.484	4145.6
708.672	4139.46
708.86	4239.81
709.048	4217.28
709.236	4037.06
709.424	4137.41
709.612	4018.63
709.8	4043.2
709.988	4161.98
710.176	4135.36
710.364	4133.31
710.551	4141.5
710.739	4057.54
710.927	4166.08
711.115	4057.54
711.303	3992
711.491	4024.77
711.679	3955.14
711.866	4151.74
712.054	4133.31
712.242	4049.35
712.43	4180.42
712.617	4073.92
712.805	4014.53
712.993	4141.5
713.181	3908.04
713.368	4086.21
713.556	4209.09
713.744	3946.95
713.931	4276.67
714.119	4004.29
714.306	4071.87
714.494	4086.21
714.682	4080.07
714.869	4116.93
715.057	4170.18
715.244	4118.98
715.432	4055.49
715.619	4106.69
715.807	4227.52
715.994	4204.99
716.182	4002.24
716.369	4092.35
716.556	4192.7
716.744	4082.11
716.931	4075.97
717.119	4047.3
717.306	4055.49
717.493	3973.57
717.681	4073.92
717.868	4004.29
718.055	4037.06
718.242	4123.07
718.43	4139.46
718.617	4069.83
718.804	4125.12
718.991	4086.21
719.179	4297.15
719.366	4006.34
719.553	4121.03
719.74	4166.08
719.927	4227.52
720.114	4090.31
720.301	4231.62
720.488	4121.03
720.676	4049.35
720.863	4102.59
721.05	4207.04
721.237	3987.91
721.424	4149.7
721.611	4143.55
721.798	4078.02
721.985	4155.84
722.172	4182.46
722.358	4059.59
722.545	4190.66
722.732	4137.41
722.919	4186.56
723.106	4014.53
723.293	4135.36
723.48	4121.03
723.667	4219.33
723.853	4057.54
724.04	4180.42
724.227	4225.47
724.414	4200.9
724.6	4268.48
724.787	4256.19
724.974	4266.43
725.161	4309.44
725.347	4215.23
725.534	4270.53
725.72	4110.79
725.907	4204.99
726.094	4092.35
726.28	4131.26
726.467	4137.41
726.653	4198.85
726.84	4133.31
727.027	4356.54
727.213	4155.84
727.4	4334.01
727.586	4071.87
727.773	4209.09
727.959	4252.1
728.145	4166.08
728.332	4223.42
728.518	4180.42
728.705	4168.13
728.891	4094.4
729.077	4166.08
729.264	4235.71
729.45	4219.33
729.636	4395.45
729.823	4338.11
730.009	4129.22
730.195	4174.27
730.382	4420.03
730.568	4196.8
730.754	4282.81
730.94	4293.05
731.126	4401.6
731.313	4366.78
731.499	4204.99
731.685	4209.09
731.871	4272.57
732.057	4352.45
732.243	4209.09
732.429	4254.14
732.615	4241.86
732.801	4254.14
732.987	4319.68
733.173	4297.15
733.359	4317.63
733.545	4295.1
733.731	4307.39
733.917	4364.73
734.103	4327.87
734.289	4282.81
734.475	4151.74
734.661	4323.77
734.847	4276.67
735.033	4417.98
735.219	4317.63
735.404	4237.76
735.59	4194.75
735.776	4125.12
735.962	4385.21
736.148	4282.81
736.333	4243.9
736.519	4211.14
736.705	4233.66
736.89	4405.69
737.076	4235.71
737.262	4207.04
737.447	4372.93
737.633	4315.58
737.819	4338.11
738.004	4151.74
738.19	4112.83
738.375	4235.71
738.561	4258.24
738.747	4272.57
738.932	4161.98
739.118	4338.11
739.303	4194.75
739.489	4172.22
739.674	4202.94
739.859	4016.58
740.045	4125.12
740.23	4088.26
740.416	4286.91
740.601	4131.26
740.786	4047.3
740.972	4082.11
741.157	4141.5
741.342	3975.62
741.528	4125.12
741.713	4131.26
741.898	3969.48
742.084	4129.22
742.269	4049.35
742.454	4078.02
742.639	4067.78
742.824	3903.94
743.01	4008.39
743.195	4092.35
743.38	3930.56
743.565	3977.67
743.75	3944.9
743.935	3936.71
744.12	4092.35
744.305	3895.75
744.49	3922.37
744.675	3869.12
744.86	3674.57
745.045	3760.58
745.23	3758.53
745.415	3803.59
745.6	3768.77
745.785	3647.94
745.97	3824.07
746.155	3934.66
746.34	3717.58
746.525	3707.34
746.71	3768.77
746.895	3643.85
747.079	3539.4
747.264	3693
747.449	3647.94
747.634	3697.1
747.819	3496.39
748.003	3473.87
748.188	3643.85
748.373	3520.97
748.557	3527.11
748.742	3508.68
748.927	3432.91
749.111	3551.69
749.296	3361.23
749.481	3437
749.665	3377.61
749.85	3283.41
750.034	3303.89
750.219	3379.66
750.404	3258.83
750.588	3318.22
750.773	3148.24
750.957	3314.13
751.141	3269.07
751.326	3342.8
751.51	3138
751.695	3109.33
751.879	3166.67
752.064	3215.82
752.248	3060.18
752.432	3109.33
752.617	3084.75
752.801	3131.86
752.985	3025.36
753.17	2968.02
753.354	3006.93
753.538	2957.78
753.722	2857.43
753.907	2886.1
754.091	2925.01
754.275	2863.57
754.459	2820.56
754.643	2781.65
754.828	2849.24
755.012	2748.89
755.196	2732.5
755.38	2748.89
755.564	2820.56
755.748	2761.17
755.932	2738.65
756.116	2759.13
756.3	2609.62
756.484	2574.81
756.668	2548.19
756.852	2507.23
757.036	2677.21
757.22	2560.47
757.404	2619.86
757.588	2451.93
757.772	2509.27
757.956	2484.7
758.14	2423.26
758.323	2464.22
758.507	2505.18
758.691	2392.54
758.875	2468.31
759.059	2466.27
759.242	2404.83
759.426	2546.14
759.61	2331.1
759.794	2433.5
759.977	2380.25
760.161	2421.21
760.345	2314.72
760.528	2361.82
760.712	2382.3
760.895	2310.62
761.079	2234.85
761.263	2343.39
761.446	2308.57
761.63	2322.91
761.813	2111.97
761.997	2273.76
762.18	2204.13
762.364	2224.61
762.547	2071.01
762.731	2171.36
762.914	2187.74
763.098	2191.84
763.281	2060.77
763.464	2081.25
763.648	2085.34
763.831	2214.37
764.015	2015.71
764.198	2040.29
764.381	2054.62
764.564	2056.67
764.748	2130.4
764.931	2056.67
765.114	1948.13
765.297	2003.43
765.481	1997.28
765.664	1980.9
765.847	2023.91
766.03	2019.81
766.213	2005.47
766.397	1966.56
766.58	1978.85
766.763	2044.38
766.946	1935.84
767.129	1954.27
767.312	1886.69
767.495	1898.98
767.678	1786.34
767.861	1944.03
768.044	1851.88
768.227	1890.79
768.41	1724.9
768.593	1917.41
768.776	1802.72
768.959	1806.82
769.142	1837.54
769.324	1866.21
769.507	1792.48
769.69	1759.72
769.873	1786.34
770.056	1747.43
770.239	1769.96
770.421	1739.24
770.604	1819.11
770.787	1741.29
770.97	1729
771.152	1681.89
771.335	1718.76
771.518	1624.55
771.7	1741.29
771.883	1763.81
772.066	1663.46
772.248	1634.79
772.431	1642.98
772.613	1651.17
772.796	1630.7
772.978	1565.16
773.161	1653.22
773.343	1544.68
773.526	1602.02
773.708	1571.3
773.891	1511.91
774.073	1577.45
774.256	1577.45
774.438	1585.64
774.621	1505.77
774.803	1550.82
774.985	1456.62
775.168	1546.73
775.35	1501.67
775.532	1526.25
775.715	1434.09
775.897	1434.09
776.079	1483.24
776.261	1436.14
776.444	1411.56
776.626	1335.79
776.808	1425.9
776.99	1286.64
777.173	1346.03
777.355	1429.99
777.537	1401.32
777.719	1245.68
777.901	1335.79
778.083	1329.64
778.265	1317.36
778.447	1329.64
778.629	1233.39
778.811	1296.88
778.993	1307.12
779.175	1313.26
779.357	1219.05
779.539	1159.66
779.721	1202.67
779.903	1233.39
780.085	1255.92
780.267	1137.13
780.449	1155.57
780.631	1225.2
780.812	1137.13
780.994	1237.49
781.176	1217.01
781.358	1118.7
781.54	1081.84
781.721	1110.51
781.903	1194.48
782.085	1055.22
782.267	1098.22
782.448	1065.46
782.63	1001.97
782.812	1026.54
782.993	1047.02
783.175	1094.13
783.357	961.01
783.538	1010.16
783.72	1102.32
783.901	969.2
784.083	946.67
784.264	940.53
784.446	993.78
784.627	901.62
784.809	997.87
784.99	852.47
785.172	903.67
785.353	872.95
785.535	868.85
785.716	915.95
785.897	823.8
786.079	881.14
786.26	920.05
786.441	924.15
786.623	848.37
786.804	883.19
786.985	885.23
787.167	883.19
787.348	819.7
787.529	776.69
787.71	922.1
787.891	782.84
788.073	844.28
788.254	788.98
788.435	885.23
788.616	752.12
788.797	778.74
788.978	809.46
789.159	760.31
789.34	805.36
789.522	788.98
789.703	819.7
789.884	655.86
790.065	788.98
790.246	750.07
790.427	752.12
790.607	762.36
790.788	758.26
790.969	621.05
791.15	756.21
791.331	694.77
791.512	623.09
791.693	666.1
791.874	682.49
792.054	668.15
792.235	711.16
792.416	723.44
792.597	676.34
792.778	696.82
792.958	676.34
793.139	598.52
793.32	606.71
793.5	655.86
793.681	594.42
793.862	545.27
794.042	573.94
794.223	616.95
794.404	541.18
794.584	612.85
794.765	590.33
794.945	602.61
795.126	635.38
795.306	688.63
795.487	582.14
795.667	619
795.848	592.37
796.028	539.13
796.209	653.81
796.389	682.49
796.57	514.55
796.75	567.8
796.93	559.61
797.111	485.88
797.291	524.79
797.471	524.79
797.652	563.7
797.832	569.85
798.012	555.51
798.192	442.87
798.373	496.12
798.553	584.18
798.733	639.48
798.913	434.68
799.093	543.22
799.274	434.68
799.454	565.75
799.634	471.54
799.814	469.5
799.994	528.89
800.174	532.98
800.354	492.02
800.534	465.4
800.714	516.6
800.894	436.73
801.074	403.96
801.254	530.94
801.434	457.21
801.614	516.6
801.794	508.41
801.974	1239.53
802.154	420.35
802.334	510.46
802.514	403.96
802.693	455.16
802.873	451.07
803.053	438.78
803.233	471.54
803.413	537.08
803.592	408.06
803.772	391.67
803.952	397.82
804.131	379.39
804.311	457.21
804.491	393.72
804.67	436.73
804.85	459.26
805.03	432.63
805.209	348.67
805.389	414.2
805.568	438.78
805.748	346.62
805.928	332.28
806.107	410.11
806.287	463.35
806.466	410.11
806.646	399.87
806.825	422.39
807.004	344.57
807.184	342.52
807.363	348.67
807.543	416.25
807.722	389.63
807.901	428.54
808.081	344.57
808.26	322.04
808.439	365.05
808.619	360.95
808.798	299.52
808.977	410.11
809.156	385.53
809.336	442.87
809.515	360.95
809.694	311.8
809.873	381.43
810.052	342.52
810.231	346.62
810.411	360.95
810.59	367.1
810.769	358.91
810.948	354.81
811.127	346.62
811.306	334.33
811.485	283.13
811.664	403.96
811.843	285.18
812.022	342.52
812.201	252.41
812.38	330.23
812.559	352.76
812.737	309.76
812.916	301.56
813.095	256.51
813.274	274.94
813.453	297.47
813.632	356.86
813.811	313.85
813.989	217.6
814.168	260.6
814.347	252.41
814.526	311.8
814.704	281.08
814.883	279.04
815.062	246.27
815.24	395.77
815.419	272.89
815.598	285.18
815.776	213.5
815.955	266.75
816.133	178.69
816.312	297.47
816.49	203.26
816.669	283.13
816.847	305.66
817.026	213.5
817.204	236.03
817.383	246.27
817.561	242.17
817.74	270.84
817.918	264.7
818.097	250.36
818.275	223.74
818.453	256.51
818.632	223.74
818.81	250.36
818.988	276.99
819.167	193.02
819.345	252.41
819.523	190.97
819.701	188.93
819.879	283.13
820.058	209.4
820.236	248.32
820.414	209.4
820.592	305.66
820.77	221.69
820.948	227.84
821.127	291.32
821.305	315.9
821.483	295.42
821.661	240.12
821.839	246.27
822.017	184.83
822.195	205.31
822.373	244.22
822.551	223.74
822.729	287.23
822.907	203.26
823.085	270.84
823.262	219.64
823.44	199.16
823.618	225.79
823.796	174.59
823.974	205.31
824.152	248.32
824.329	147.97
824.507	168.45
824.685	182.78
824.863	162.3
825.04	197.12
825.218	262.65
825.396	205.31
825.574	182.78
825.751	158.21
825.929	252.41
826.107	164.35
826.284	154.11
826.462	248.32
826.639	182.78
826.817	174.59
826.994	172.54
827.172	184.83
827.349	295.42
827.527	186.88
827.704	150.01
827.882	201.21
828.059	154.11
828.237	172.54
828.414	203.26
828.591	94.72
828.769	213.5
828.946	186.88
829.124	168.45
829.301	150.01
829.478	162.3
829.655	233.98
829.833	197.12
830.01	170.49
830.187	152.06
830.364	156.16
830.542	193.02
830.719	223.74
830.896	180.73
831.073	170.49
831.25	154.11
831.427	201.21
831.604	88.57
831.782	166.4
831.959	141.82
832.136	107.01
832.313	186.88
832.49	100.86
832.667	92.67
832.844	119.29
833.021	217.6
833.198	98.81
833.374	100.86
833.551	154.11
833.728	123.39
833.905	125.44
834.082	94.72
834.259	84.48
834.436	168.45
834.612	137.73
834.789	152.06
834.966	115.2
835.143	100.86
835.319	92.67
835.496	203.26
835.673	115.2
835.85	215.55
836.026	190.97
836.203	145.92
836.38	64
836.556	133.63
836.733	123.39
836.909	150.01
837.086	82.43
837.262	70.14
837.439	107.01
837.616	150.01
837.792	98.81
837.968	164.35
838.145	135.68
838.321	117.25
838.498	119.29
838.674	107.01
838.851	86.53
839.027	107.01
839.203	94.72
839.38	109.05
839.556	133.63
839.732	129.53
839.909	145.92
840.085	104.96
840.261	100.86
840.437	141.82
840.614	211.45
840.79	176.64
840.966	98.81
841.142	76.29
841.318	74.24
841.494	115.2
841.671	178.69
841.847	68.09
842.023	107.01
842.199	127.49
842.375	186.88
842.551	117.25
842.727	64
842.903	129.53
843.079	86.53
843.255	207.36
843.431	115.2
843.607	92.67
843.783	2.56
843.959	129.53
844.134	53.76
844.31	147.97
844.486	100.86
844.662	74.24
844.838	18.94
845.013	72.19
845.189	90.62
845.365	72.19
845.541	66.05
845.716	90.62
845.892	147.97
846.068	115.2
846.244	98.81
846.419	98.81
846.595	27.14
846.77	113.15
846.946	186.88
847.122	90.62
847.297	78.33
847.473	145.92
847.648	47.62
847.824	109.05
847.999	10.75
848.175	20.99
848.35	162.3
848.526	96.77
848.701	250.36
848.876	111.1
849.052	53.76
849.227	74.24
849.403	131.58
849.578	80.38
849.753	49.66
849.929	90.62
850.104	96.77
850.279	100.86
850.454	94.72
850.63	152.06
850.805	59.9
850.98	154.11
851.155	8.7
851.33	74.24
851.505	104.96
851.681	61.95
851.856	86.53
852.031	45.57
852.206	94.72
852.381	86.53
852.556	119.29
852.731	115.2
852.906	98.81
853.081	145.92
853.256	82.43
853.431	141.82
853.606	88.57
853.781	115.2
853.956	61.95
854.131	100.86
854.305	39.42
854.48	29.18
854.655	66.05
854.83	129.53
855.005	123.39
855.18	61.95
855.354	45.57
855.529	84.48
855.704	111.1
855.879	102.91
856.053	43.52
856.228	117.25
856.403	25.09
856.577	92.67
856.752	0.51
856.926	33.28
857.101	53.76
857.276	4.61
857.45	109.05
857.625	45.57
857.799	47.62
857.974	45.57
858.148	31.23
858.323	39.42
858.497	6.66
858.672	2.56
858.846	2.56
859.02	14.85
859.195	35.33
859.369	76.29
859.543	78.33
859.718	70.14
859.892	96.77
860.066	66.05
860.241	37.38
860.415	53.76
860.589	14.85
860.763	84.48
860.938	-42.5
861.112	88.57
861.286	-36.35
861.46	47.62
861.634	2.56
861.808	53.76
861.982	29.18
862.157	16.9
862.331	8.7
862.505	10.75
862.679	20.99
862.853	31.23
863.027	4.61
863.201	150.01
863.375	29.18
863.549	27.14
863.722	78.33
863.896	61.95
864.07	45.57
864.244	70.14
864.418	51.71
864.592	-42.5
864.766	18.94
864.939	76.29
865.113	31.23
865.287	45.57
865.461	-54.78
865.634	64
865.808	31.23
865.982	-5.63
866.156	-19.97
866.329	33.28
866.503	55.81
866.676	23.04
866.85	88.57
867.024	4.61
867.197	37.38
867.371	61.95
867.544	23.04
867.718	14.85
867.891	2.56
868.065	10.75
868.238	4.61
868.412	25.09
868.585	37.38
868.759	74.24
868.932	14.85
869.105	25.09
869.279	90.62
869.452	20.99
869.625	53.76
869.799	-22.02
869.972	10.75
870.145	18.94
870.319	31.23
870.492	70.14
870.665	0.51
870.838	53.76
871.011	33.28
871.185	18.94
871.358	49.66
871.531	88.57
871.704	23.04
871.877	8.7
872.05	104.96
872.223	57.86
872.396	43.52
872.569	2.56
872.742	-22.02
872.915	27.14
873.088	-65.02
873.261	-81.41
873.434	18.94
873.607	76.29
873.78	47.62
873.953	43.52
874.126	84.48
874.299	47.62
874.471	70.14
874.644	45.57
874.817	8.7
874.99	90.62
875.163	-30.21
875.335	20.99
875.508	45.57
875.681	76.29
875.853	8.7
876.026	-11.78
876.199	45.57
876.371	45.57
876.544	14.85
876.717	23.04
876.889	0.51
877.062	76.29
877.234	74.24
877.407	-42.5
877.579	45.57
877.752	12.8
877.924	47.62
878.097	68.09
878.269	41.47
878.442	-3.58
878.614	57.86
878.786	-17.92
878.959	35.33
879.131	51.71
879.303	-15.87
879.476	-26.11
879.648	61.95
879.82	45.57
879.993	49.66
880.165	84.48
880.337	10.75
880.509	59.9
880.681	31.23
880.854	29.18
881.026	14.85
881.198	115.2
881.37	27.14
881.542	41.47
881.714	-54.78
881.886	12.8
882.058	-15.87
882.23	-1.54
882.402	51.71
882.574	53.76
882.746	0.51
882.918	4.61
883.09	-30.21
883.262	37.38
883.434	18.94
883.606	-67.07
883.778	-48.64
883.95	55.81
884.122	-24.06
884.293	57.86
884.465	102.91
884.637	37.38
884.809	-19.97
884.98	-40.45
885.152	33.28
885.324	6.66
885.496	-15.87
885.667	20.99
885.839	-99.84
886.011	33.28
886.182	51.71
886.354	55.81
886.525	55.81
886.697	80.38
886.869	-15.87
887.04	29.18
887.212	53.76
887.383	78.33
887.555	37.38
887.726	18.94
887.897	-36.35
888.069	35.33
888.24	10.75
888.412	10.75
888.583	8.7
888.754	37.38
888.926	-40.45
889.097	45.57
889.268	57.86
889.44	23.04
889.611	27.14
889.782	-22.02
889.953	-36.35
890.125	-1.54
890.296	-60.93
890.467	102.91
890.638	8.7
890.809	-11.78
890.98	-1.54
891.151	4.61
891.323	51.71
891.494	31.23
891.665	31.23
891.836	-46.59
892.007	-11.78
892.178	84.48
892.349	35.33
892.52	-44.54
892.691	47.62
892.862	-50.69
893.032	4.61
893.203	-32.26
893.374	43.52
893.545	96.77
893.716	31.23
893.887	53.76
894.057	-1.54
894.228	25.09
894.399	-28.16
894.57	10.75
894.74	20.99
894.911	18.94
895.082	-26.11
895.253	10.75
895.423	39.42
895.594	31.23
895.764	-17.92
895.935	-30.21
896.106	20.99
896.276	12.8
896.447	-15.87
896.617	8.7
896.788	68.09
896.958	25.09
897.129	-11.78
897.299	12.8
897.47	33.28
897.64	59.9
897.81	-3.58
897.981	8.7
898.151	-36.35
898.322	45.57
898.492	51.71
898.662	76.29
898.832	45.57
899.003	-44.54
899.173	20.99
899.343	-11.78
899.513	25.09
