Data from USB4F104151__30__12-23-43-726.txt Node

Date: Fri Mar 14 12:23:43 EDT 2025
User: louis
Spectrometer: USB4F10415
Trigger mode: 4
Integration Time (sec): 3.500000E-2
Scans to average: 1
Electric dark correction enabled: true
Nonlinearity correction enabled: false
Boxcar width: 0
XAxis mode: Wavelengths
Number of Pixels in Spectrum: 3648
>>>>>Begin Spectral Data<<<<<
178.204	-148.31
178.424	-148.31
178.644	-148.31
178.864	-152.4
179.084	-109.4
179.304	-15.19
179.524	-21.33
179.744	-41.81
179.964	25.77
180.184	-0.85
180.404	11.43
180.624	11.43
180.844	9.39
181.064	-45.91
181.283	17.58
181.503	-23.38
181.723	72.87
181.943	11.43
182.163	62.63
182.383	-52.05
182.602	17.58
182.822	74.92
183.042	58.54
183.262	-47.96
183.482	76.97
183.701	38.06
183.921	21.67
184.141	-17.24
184.361	44.2
184.58	44.2
184.8	42.15
185.02	-43.86
185.239	60.59
185.459	9.39
185.679	27.82
185.898	-54.1
186.118	19.63
186.338	13.48
186.557	68.78
186.777	11.43
186.997	9.39
187.216	5.29
187.436	36.01
187.655	38.06
187.875	87.21
188.095	11.43
188.314	111.78
188.534	11.43
188.753	48.3
188.973	74.92
189.192	60.59
189.412	40.11
189.631	27.82
189.851	15.53
190.07	93.35
190.29	-35.67
190.509	3.24
190.729	46.25
190.948	62.63
191.168	87.21
191.387	-17.24
191.607	-2.9
191.826	36.01
192.045	5.29
192.265	-2.9
192.484	60.59
192.704	-17.24
192.923	-21.33
193.142	142.5
193.362	-19.29
193.581	89.26
193.8	58.54
194.02	101.55
194.239	13.48
194.458	17.58
194.678	-27.48
194.897	19.63
195.116	-56.15
195.335	33.96
195.555	64.68
195.774	11.43
195.993	91.31
196.212	44.2
196.432	9.39
196.651	7.34
196.87	31.91
197.089	38.06
197.308	56.49
197.528	105.64
197.747	19.63
197.966	56.49
198.185	52.39
198.404	36.01
198.623	103.59
198.842	101.55
199.062	3.24
199.281	40.11
199.5	-35.67
199.719	60.59
199.938	74.92
200.157	-7
200.376	31.91
200.595	95.4
200.814	17.58
201.033	-41.81
201.252	-9.05
201.471	46.25
201.69	48.3
201.909	85.16
202.128	68.78
202.347	-21.33
202.566	7.34
202.785	56.49
203.004	40.11
203.223	95.4
203.442	5.29
203.661	68.78
203.879	25.77
204.098	50.35
204.317	-11.09
204.536	81.07
204.755	-13.14
204.974	95.4
205.193	-7
205.411	142.5
205.63	40.11
205.849	27.82
206.068	3.24
206.287	31.91
206.505	25.77
206.724	54.44
206.943	-27.48
207.162	31.91
207.381	95.4
207.599	29.87
207.818	17.58
208.037	-72.53
208.255	-15.19
208.474	38.06
208.693	46.25
208.911	72.87
209.13	134.31
209.349	33.96
209.567	50.35
209.786	33.96
210.005	25.77
210.223	5.29
210.442	7.34
210.661	62.63
210.879	-43.86
211.098	23.72
211.316	60.59
211.535	54.44
211.753	9.39
211.972	-19.29
212.191	-15.19
212.409	3.24
212.628	-2.9
212.846	-11.09
213.065	21.67
213.283	101.55
213.502	9.39
213.72	60.59
213.938	15.53
214.157	36.01
214.375	-2.9
214.594	29.87
214.812	46.25
215.031	68.78
215.249	-37.72
215.467	19.63
215.686	29.87
215.904	119.98
216.122	52.39
216.341	52.39
216.559	54.44
216.778	72.87
216.996	66.73
217.214	3.24
217.432	5.29
217.651	79.02
217.869	48.3
218.087	27.82
218.306	9.39
218.524	33.96
218.742	17.58
218.96	15.53
219.179	91.31
219.397	25.77
219.615	74.92
219.833	21.67
220.051	46.25
220.27	76.97
220.488	95.4
220.706	70.83
220.924	62.63
221.142	-0.85
221.36	1.19
221.578	83.11
221.796	52.39
222.015	-29.52
222.233	68.78
222.451	-0.85
222.669	-19.29
222.887	-45.91
223.105	-25.43
223.323	3.24
223.541	-0.85
223.759	79.02
223.977	19.63
224.195	50.35
224.413	42.15
224.631	54.44
224.849	17.58
225.067	62.63
225.285	-78.68
225.503	70.83
225.721	-29.52
225.939	13.48
226.157	54.44
226.375	144.55
226.592	-41.81
226.81	-0.85
227.028	115.88
227.246	89.26
227.464	85.16
227.682	113.83
227.9	33.96
228.117	89.26
228.335	29.87
228.553	19.63
228.771	19.63
228.989	87.21
229.206	1.19
229.424	87.21
229.642	50.35
229.86	-41.81
230.077	81.07
230.295	81.07
230.513	46.25
230.731	33.96
230.948	48.3
231.166	101.55
231.384	29.87
231.601	17.58
231.819	7.34
232.037	-4.95
232.254	-72.53
232.472	29.87
232.689	-9.05
232.907	62.63
233.125	-33.62
233.342	-19.29
233.56	-50
233.777	42.15
233.995	-27.48
234.213	66.73
234.43	87.21
234.648	89.26
234.865	27.82
235.083	103.59
235.3	58.54
235.518	31.91
235.735	62.63
235.953	36.01
236.17	40.11
236.388	-4.95
236.605	91.31
236.822	50.35
237.04	31.91
237.257	-13.14
237.475	46.25
237.692	-2.9
237.909	36.01
238.127	70.83
238.344	15.53
238.562	95.4
238.779	-56.15
238.996	1.19
239.214	-60.24
239.431	109.74
239.648	-2.9
239.865	21.67
240.083	17.58
240.3	50.35
240.517	29.87
240.735	19.63
240.952	44.2
241.169	74.92
241.386	56.49
241.603	-17.24
241.821	-13.14
242.038	21.67
242.255	5.29
242.472	46.25
242.689	5.29
242.907	72.87
243.124	42.15
243.341	52.39
243.558	60.59
243.775	66.73
243.992	7.34
244.209	-17.24
244.426	95.4
244.643	62.63
244.86	46.25
245.078	36.01
245.295	3.24
245.512	48.3
245.729	7.34
245.946	-39.76
246.163	-7
246.38	11.43
246.597	9.39
246.814	79.02
247.031	-31.57
247.248	36.01
247.464	-4.95
247.681	9.39
247.898	38.06
248.115	27.82
248.332	11.43
248.549	107.69
248.766	105.64
248.983	132.26
249.2	-33.62
249.417	109.74
249.633	23.72
249.85	38.06
250.067	-43.86
250.284	-9.05
250.501	3.24
250.717	107.69
250.934	-39.76
251.151	76.97
251.368	-17.24
251.585	50.35
251.801	21.67
252.018	-41.81
252.235	7.34
252.451	54.44
252.668	5.29
252.885	109.74
253.102	7.34
253.318	-9.05
253.535	15.53
253.752	-50
253.968	-45.91
254.185	-21.33
254.401	13.48
254.618	-23.38
254.835	1.19
255.051	50.35
255.268	76.97
255.484	-17.24
255.701	72.87
255.917	66.73
256.134	42.15
256.351	62.63
256.567	9.39
256.784	48.3
257	27.82
257.217	17.58
257.433	3.24
257.65	19.63
257.866	36.01
258.082	-15.19
258.299	-39.76
258.515	70.83
258.732	-25.43
258.948	25.77
259.165	60.59
259.381	-0.85
259.597	122.02
259.814	99.5
260.03	27.82
260.246	-15.19
260.463	-27.48
260.679	89.26
260.895	99.5
261.112	91.31
261.328	-13.14
261.544	-2.9
261.761	29.87
261.977	68.78
262.193	-9.05
262.409	58.54
262.626	60.59
262.842	9.39
263.058	-9.05
263.274	-23.38
263.49	11.43
263.707	83.11
263.923	66.73
264.139	-13.14
264.355	42.15
264.571	74.92
264.787	13.48
265.004	36.01
265.22	-7
265.436	74.92
265.652	1.19
265.868	25.77
266.084	-11.09
266.3	50.35
266.516	-76.63
266.732	46.25
266.948	3.24
267.164	46.25
267.38	-11.09
267.596	36.01
267.812	48.3
268.028	33.96
268.244	3.24
268.46	-11.09
268.676	33.96
268.892	19.63
269.108	19.63
269.324	1.19
269.54	-19.29
269.756	140.46
269.972	17.58
270.188	19.63
270.403	-0.85
270.619	3.24
270.835	95.4
271.051	-58.2
271.267	-7
271.483	9.39
271.698	50.35
271.914	62.63
272.13	91.31
272.346	-29.52
272.562	-17.24
272.777	38.06
272.993	76.97
273.209	-7
273.425	11.43
273.64	-15.19
273.856	105.64
274.072	36.01
274.287	-2.9
274.503	97.45
274.719	85.16
274.934	-76.63
275.15	-37.72
275.366	-2.9
275.581	81.07
275.797	-9.05
276.012	70.83
276.228	21.67
276.444	46.25
276.659	-13.14
276.875	-41.81
277.09	5.29
277.306	-50
277.521	95.4
277.737	36.01
277.952	52.39
278.168	23.72
278.383	27.82
278.599	54.44
278.814	31.91
279.03	5.29
279.245	95.4
279.461	15.53
279.676	7.34
279.892	23.72
280.107	-37.72
280.322	-9.05
280.538	-2.9
280.753	23.72
280.969	31.91
281.184	17.58
281.399	33.96
281.615	27.82
281.83	60.59
282.045	-47.96
282.26	64.68
282.476	9.39
282.691	21.67
282.906	62.63
283.122	50.35
283.337	54.44
283.552	36.01
283.767	23.72
283.983	46.25
284.198	-7
284.413	83.11
284.628	1.19
284.843	-29.52
285.058	68.78
285.274	-21.33
285.489	-9.05
285.704	130.22
285.919	91.31
286.134	64.68
286.349	13.48
286.564	-50
286.779	36.01
286.995	60.59
287.21	-27.48
287.425	36.01
287.64	-4.95
287.855	-7
288.07	23.72
288.285	56.49
288.5	36.01
288.715	36.01
288.93	52.39
289.145	-7
289.36	54.44
289.575	62.63
289.79	60.59
290.004	36.01
290.219	17.58
290.434	58.54
290.649	-0.85
290.864	31.91
291.079	74.92
291.294	-31.57
291.509	-15.19
291.724	91.31
291.938	-21.33
292.153	109.74
292.368	36.01
292.583	1.19
292.798	91.31
293.012	29.87
293.227	40.11
293.442	42.15
293.657	3.24
293.871	-9.05
294.086	-13.14
294.301	72.87
294.516	42.15
294.73	38.06
294.945	-56.15
295.16	13.48
295.374	-29.52
295.589	154.79
295.804	25.77
296.018	44.2
296.233	-2.9
296.447	81.07
296.662	40.11
296.877	93.35
297.091	48.3
297.306	29.87
297.52	38.06
297.735	87.21
297.949	15.53
298.164	9.39
298.378	7.34
298.593	31.91
298.807	-7
299.022	25.77
299.236	29.87
299.451	40.11
299.665	72.87
299.88	-4.95
300.094	136.36
300.309	-54.1
300.523	99.5
300.737	13.48
300.952	85.16
301.166	17.58
301.381	33.96
301.595	42.15
301.809	-7
302.024	27.82
302.238	-80.72
302.452	15.53
302.667	-17.24
302.881	132.26
303.095	-9.05
303.309	58.54
303.524	-41.81
303.738	-56.15
303.952	-27.48
304.166	72.87
304.381	-27.48
304.595	52.39
304.809	-9.05
305.023	25.77
305.237	-31.57
305.452	-68.44
305.666	21.67
305.88	7.34
306.094	89.26
306.308	36.01
306.522	89.26
306.736	52.39
306.95	38.06
307.164	23.72
307.379	21.67
307.593	46.25
307.807	105.64
308.021	62.63
308.235	40.11
308.449	-25.43
308.663	46.25
308.877	76.97
309.091	50.35
309.305	89.26
309.519	-45.91
309.733	56.49
309.947	-33.62
310.161	111.78
310.374	60.59
310.588	21.67
310.802	25.77
311.016	-43.86
311.23	-27.48
311.444	11.43
311.658	74.92
311.872	103.59
312.085	11.43
312.299	68.78
312.513	79.02
312.727	62.63
312.941	17.58
313.154	-17.24
313.368	-7
313.582	36.01
313.796	17.58
314.009	25.77
314.223	79.02
314.437	64.68
314.651	23.72
314.864	-11.09
315.078	21.67
315.292	31.91
315.505	11.43
315.719	31.91
315.933	54.44
316.146	-0.85
316.36	117.93
316.573	111.78
316.787	76.97
317.001	-33.62
317.214	79.02
317.428	-11.09
317.641	-45.91
317.855	48.3
318.068	-33.62
318.282	3.24
318.495	132.26
318.709	62.63
318.922	31.91
319.136	99.5
319.349	66.73
319.563	15.53
319.776	1.19
319.99	-2.9
320.203	79.02
320.417	117.93
320.63	5.29
320.843	79.02
321.057	72.87
321.27	70.83
321.483	89.26
321.697	183.46
321.91	21.67
322.124	64.68
322.337	17.58
322.55	21.67
322.763	68.78
322.977	52.39
323.19	-9.05
323.403	44.2
323.617	56.49
323.83	29.87
324.043	54.44
324.256	15.53
324.469	-21.33
324.683	70.83
324.896	54.44
325.109	23.72
325.322	-52.05
325.535	11.43
325.748	36.01
325.962	-11.09
326.175	66.73
326.388	23.72
326.601	-4.95
326.814	42.15
327.027	9.39
327.24	13.48
327.453	-7
327.666	27.82
327.879	74.92
328.092	29.87
328.305	72.87
328.518	-0.85
328.731	46.25
328.944	115.88
329.157	5.29
329.37	27.82
329.583	111.78
329.796	113.83
330.009	-43.86
330.222	40.11
330.435	124.07
330.648	62.63
330.861	46.25
331.073	79.02
331.286	23.72
331.499	56.49
331.712	40.11
331.925	81.07
332.138	3.24
332.35	83.11
332.563	-56.15
332.776	83.11
332.989	-47.96
333.202	25.77
333.414	1.19
333.627	38.06
333.84	15.53
334.053	70.83
334.265	-2.9
334.478	15.53
334.691	1.19
334.903	33.96
335.116	-4.95
335.329	105.64
335.541	103.59
335.754	138.41
335.966	-15.19
336.179	21.67
336.392	81.07
336.604	23.72
336.817	68.78
337.029	5.29
337.242	-9.05
337.454	-11.09
337.667	1.19
337.88	85.16
338.092	79.02
338.305	68.78
338.517	38.06
338.729	70.83
338.942	81.07
339.154	-13.14
339.367	93.35
339.579	11.43
339.792	-17.24
340.004	23.72
340.217	29.87
340.429	19.63
340.641	31.91
340.854	-23.38
341.066	33.96
341.278	76.97
341.491	126.12
341.703	3.24
341.915	-7
342.128	33.96
342.34	-64.34
342.552	36.01
342.764	-33.62
342.977	-11.09
343.189	68.78
343.401	60.59
343.613	15.53
343.826	13.48
344.038	3.24
344.25	38.06
344.462	93.35
344.674	46.25
344.886	68.78
345.099	97.45
345.311	68.78
345.523	15.53
345.735	-11.09
345.947	21.67
346.159	62.63
346.371	-9.05
346.583	27.82
346.795	19.63
347.007	76.97
347.219	-39.76
347.431	-13.14
347.643	50.35
347.855	-7
348.067	68.78
348.279	7.34
348.491	-4.95
348.703	-52.05
348.915	33.96
349.127	38.06
349.339	66.73
349.551	42.15
349.763	46.25
349.975	62.63
350.187	64.68
350.399	66.73
350.61	60.59
350.822	31.91
351.034	103.59
351.246	21.67
351.458	70.83
351.669	13.48
351.881	72.87
352.093	-2.9
352.305	42.15
352.517	91.31
352.728	83.11
352.94	42.15
353.152	7.34
353.363	-19.29
353.575	50.35
353.787	58.54
353.999	-9.05
354.21	87.21
354.422	-62.29
354.633	25.77
354.845	103.59
355.057	-33.62
355.268	21.67
355.48	85.16
355.692	64.68
355.903	40.11
356.115	17.58
356.326	-9.05
356.538	29.87
356.749	99.5
356.961	19.63
357.172	46.25
357.384	9.39
357.595	81.07
357.807	-13.14
358.018	-0.85
358.23	46.25
358.441	68.78
358.653	68.78
358.864	33.96
359.075	-9.05
359.287	-21.33
359.498	79.02
359.709	29.87
359.921	15.53
360.132	60.59
360.344	89.26
360.555	38.06
360.766	56.49
360.977	50.35
361.189	87.21
361.4	-19.29
361.611	-17.24
361.823	50.35
362.034	83.11
362.245	3.24
362.456	25.77
362.667	-31.57
362.879	-19.29
363.09	27.82
363.301	101.55
363.512	19.63
363.723	38.06
363.935	9.39
364.146	46.25
364.357	44.2
364.568	62.63
364.779	-13.14
364.99	81.07
365.201	-39.76
365.412	44.2
365.623	9.39
365.834	3.24
366.045	11.43
366.256	70.83
366.467	46.25
366.678	-37.72
366.889	-52.05
367.1	27.82
367.311	40.11
367.522	52.39
367.733	15.53
367.944	70.83
368.155	27.82
368.366	15.53
368.577	140.46
368.788	-58.2
368.999	64.68
369.209	-0.85
369.42	72.87
369.631	52.39
369.842	33.96
370.053	58.54
370.264	15.53
370.474	-4.95
370.685	76.97
370.896	27.82
371.107	58.54
371.317	-13.14
371.528	-4.95
371.739	83.11
371.95	50.35
372.16	52.39
372.371	5.29
372.582	50.35
372.792	56.49
373.003	103.59
373.214	115.88
373.424	124.07
373.635	15.53
373.846	54.44
374.056	66.73
374.267	48.3
374.477	-64.34
374.688	13.48
374.898	74.92
375.109	1.19
375.319	27.82
375.53	64.68
375.74	115.88
375.951	89.26
376.161	46.25
376.372	54.44
376.582	23.72
376.793	101.55
377.003	7.34
377.214	64.68
377.424	48.3
377.635	97.45
377.845	76.97
378.055	97.45
378.266	13.48
378.476	99.5
378.686	50.35
378.897	-35.67
379.107	68.78
379.317	46.25
379.528	-4.95
379.738	52.39
379.948	-7
380.158	15.53
380.369	50.35
380.579	79.02
380.789	29.87
380.999	54.44
381.21	74.92
381.42	105.64
381.63	15.53
381.84	103.59
382.05	50.35
382.261	52.39
382.471	89.26
382.681	146.6
382.891	81.07
383.101	72.87
383.311	1.19
383.521	23.72
383.731	27.82
383.941	72.87
384.151	31.91
384.361	58.54
384.571	13.48
384.781	-7
384.991	87.21
385.201	-0.85
385.411	85.16
385.621	21.67
385.831	70.83
386.041	7.34
386.251	19.63
386.461	-15.19
386.671	97.45
386.881	-13.14
387.091	68.78
387.301	87.21
387.511	95.4
387.72	5.29
387.93	103.59
388.14	44.2
388.35	74.92
388.56	95.4
388.769	119.98
388.979	19.63
389.189	44.2
389.399	33.96
389.609	48.3
389.818	95.4
390.028	38.06
390.238	25.77
390.447	36.01
390.657	160.94
390.867	46.25
391.076	87.21
391.286	81.07
391.496	-7
391.705	44.2
391.915	15.53
392.125	119.98
392.334	42.15
392.544	177.32
392.753	46.25
392.963	1.19
393.172	38.06
393.382	40.11
393.591	89.26
393.801	48.3
394.01	74.92
394.22	76.97
394.429	42.15
394.639	81.07
394.848	150.7
395.058	105.64
395.267	113.83
395.477	115.88
395.686	58.54
395.895	148.65
396.105	70.83
396.314	117.93
396.524	128.17
396.733	36.01
396.942	99.5
397.152	95.4
397.361	52.39
397.57	52.39
397.78	99.5
397.989	79.02
398.198	138.41
398.407	60.59
398.617	38.06
398.826	124.07
399.035	46.25
399.244	138.41
399.453	144.55
399.663	33.96
399.872	76.97
400.081	76.97
400.29	150.7
400.499	21.67
400.708	128.17
400.917	136.36
401.127	56.49
401.336	64.68
401.545	169.13
401.754	89.26
401.963	208.04
402.172	85.16
402.381	50.35
402.59	85.16
402.799	119.98
403.008	107.69
403.217	74.92
403.426	99.5
403.635	103.59
403.844	79.02
404.053	79.02
404.262	132.26
404.471	199.85
404.68	113.83
404.888	171.18
405.097	111.78
405.306	99.5
405.515	187.56
405.724	122.02
405.933	173.22
406.142	117.93
406.35	107.69
406.559	150.7
406.768	99.5
406.977	208.04
407.185	173.22
407.394	162.98
407.603	173.22
407.812	146.6
408.02	160.94
408.229	199.85
408.438	191.66
408.646	152.74
408.855	175.27
409.064	197.8
409.272	177.32
409.481	156.84
409.69	259.24
409.898	187.56
410.107	232.62
410.315	289.96
410.524	244.9
410.733	205.99
410.941	214.18
411.15	292.01
411.358	273.57
411.567	298.15
411.775	318.63
411.984	404.64
412.192	300.2
412.401	339.11
412.609	320.68
412.818	392.36
413.026	398.5
413.234	337.06
413.443	375.97
413.651	464.04
413.86	367.78
414.068	498.85
414.276	537.76
414.485	455.84
414.693	437.41
414.901	580.77
415.11	470.18
415.318	433.32
415.526	548
415.734	591.01
415.943	562.34
416.151	629.92
416.359	582.82
416.567	707.74
416.776	744.61
416.984	746.66
417.192	744.61
417.4	722.08
417.608	742.56
417.817	789.66
418.025	795.81
418.233	791.71
418.441	791.71
418.649	873.63
418.857	869.53
419.065	980.12
419.273	941.21
419.481	924.83
419.689	992.41
419.897	1115.29
420.105	1131.67
420.313	1215.64
420.521	1182.87
420.729	1178.78
420.937	1320.09
421.145	1270.94
421.353	1389.72
421.561	1449.11
421.769	1514.64
421.977	1479.83
422.185	1424.53
422.393	1612.95
422.601	1635.47
422.809	1655.95
423.017	1639.57
423.224	1696.91
423.432	1854.61
423.64	1821.84
423.848	2028.68
424.056	1825.93
424.263	2186.38
424.471	2067.6
424.679	2102.41
424.887	2256.01
425.094	2317.45
425.302	2188.43
425.51	2419.85
425.718	2559.11
425.925	2507.91
426.133	2536.58
426.341	2866.3
426.548	2806.91
426.756	2870.4
426.964	2831.49
427.171	3110.01
427.379	3200.12
427.586	3191.93
427.794	3427.45
428.001	3552.37
428.209	3744.88
428.417	3650.67
428.624	3921.01
428.832	3867.76
429.039	3861.62
429.247	3708.02
429.454	4146.28
429.662	4342.89
429.869	4105.32
430.076	4344.94
430.284	4387.94
430.491	4529.25
430.699	4863.07
430.906	4809.83
431.114	4797.54
431.321	5119.07
431.528	5194.84
431.736	5352.54
431.943	5778.51
432.15	5559.38
432.358	5690.45
432.565	5827.67
432.772	5870.67
432.979	6120.53
433.187	6186.06
433.394	6278.22
433.601	6659.14
433.808	6765.64
434.016	6667.33
434.223	7056.45
434.43	7330.87
434.637	7488.57
434.844	7892.02
435.052	8027.18
435.259	7926.83
435.466	7984.18
435.673	7748.66
435.88	8449.07
436.087	8768.55
436.294	8901.67
436.501	8496.17
436.708	8907.81
436.915	8926.24
437.122	9415.71
437.329	9362.46
437.537	9868.31
437.743	9956.37
437.95	9671.7
438.157	10652.68
438.364	10849.29
438.571	10783.75
438.778	10793.99
438.985	11895.8
439.192	11316.22
439.399	11674.62
439.606	11262.97
439.813	11858.93
440.02	12770.28
440.227	12356.59
440.433	12491.76
440.64	13065.19
440.847	12819.43
441.054	13188.07
441.261	13890.52
441.467	13487.07
441.674	14076.88
441.881	14504.91
442.088	14341.07
442.294	14635.98
442.501	14955.46
442.708	15027.14
442.914	15819.71
443.121	16362.42
443.328	16067.51
443.534	17204.13
443.741	16460.72
443.948	16235.44
444.154	17537.95
444.361	17556.38
444.568	17619.87
444.774	17617.82
444.981	17851.29
445.187	18498.45
445.394	19053.45
445.6	19065.74
445.807	20478.83
446.013	19858.3
446.22	20169.59
446.426	21027.69
446.633	21263.21
446.839	22033.24
447.046	21338.98
447.252	21992.28
447.459	22037.34
447.665	22274.9
447.871	23024.46
448.078	24187.71
448.284	22965.07
448.491	23466.82
448.697	24697.65
448.903	24873.78
449.11	25047.85
449.316	24390.45
449.522	24974.13
449.728	25838.37
449.935	26028.83
450.141	26166.04
450.347	26571.54
450.553	25703.2
450.76	25850.66
450.966	26706.71
451.172	26438.42
451.378	27159.31
451.584	26594.07
451.791	27284.23
451.997	27284.23
452.203	27806.47
452.409	27689.73
452.615	27583.24
452.821	26473.24
453.027	26110.75
453.233	27462.41
453.44	26422.04
453.646	26878.74
453.852	27079.44
454.058	27149.07
454.264	26354.46
454.47	27048.72
454.676	26215.19
454.882	27237.13
455.088	25002.8
455.294	25123.63
455.5	25436.97
455.705	25719.59
455.911	24875.82
456.117	24718.13
456.323	24181.56
456.529	22788.94
456.735	23767.87
456.941	23182.15
457.147	22639.44
457.352	22225.75
457.558	21986.14
457.764	21781.34
457.97	21488.48
458.176	20913
458.381	21064.55
458.587	19962.75
458.793	19620.74
458.999	18754.44
459.204	20188.02
459.41	19555.2
459.616	18367.38
459.821	18283.41
460.027	18176.92
460.233	17980.31
460.438	17073.06
460.644	17089.45
460.85	16452.53
461.055	16280.5
461.261	16184.24
461.466	14760.91
461.672	14296.02
461.878	15389.63
462.083	14427.09
462.289	13984.73
462.494	14210
462.7	13323.23
462.905	13116.39
463.111	13544.41
463.316	13571.04
463.522	13085.67
463.727	13104.1
463.932	13122.53
464.138	12948.45
464.343	13120.48
464.549	12782.57
464.754	13155.3
464.959	12919.78
465.165	13024.23
465.37	12362.73
465.575	12102.64
465.781	12532.72
465.986	12588.01
466.191	12297.2
466.397	11850.74
466.602	11303.93
466.807	11955.19
467.012	11809.78
467.218	11691
467.423	11703.29
467.628	11793.4
467.833	12131.31
468.038	11766.78
468.244	11328.51
468.449	11877.37
468.654	11580.41
468.859	11351.04
469.064	11322.37
469.269	10902.53
469.474	11054.08
469.679	11158.53
469.885	10714.12
470.09	11160.58
470.295	10896.39
470.5	10662.92
470.705	10699.78
470.91	10226.7
471.115	10202.13
471.32	10550.28
471.525	10554.38
471.73	10316.81
471.935	10290.19
472.139	9714.71
472.344	9976.85
472.549	9905.17
472.754	9765.91
472.959	9559.06
473.164	9348.12
473.369	9245.73
473.574	9479.19
473.778	9376.8
473.983	9407.52
474.188	9518.11
474.393	8916
474.598	8903.71
474.802	8858.66
475.007	8854.56
475.212	8784.93
475.417	8520.74
475.621	8506.41
475.826	8500.26
476.031	8215.6
476.235	8248.36
476.44	8318
476.645	8145.97
476.849	8102.96
477.054	7988.27
477.259	7959.6
477.463	8002.61
477.668	7760.95
477.872	8025.14
478.077	7781.43
478.282	7502.9
478.486	7490.62
478.691	7445.56
478.895	7328.83
479.1	7441.47
479.304	7353.4
479.509	7150.65
479.713	7308.35
479.918	7035.97
480.122	6999.1
480.326	7033.92
480.531	7224.38
480.735	6853.7
480.94	7021.63
481.144	7257.15
481.348	6937.66
481.553	6878.27
481.757	6667.33
481.961	6892.61
482.166	7091.26
482.37	6976.58
482.574	6865.99
482.778	6726.72
482.983	6863.94
483.187	6702.15
483.391	6884.42
483.595	6820.93
483.8	6710.34
484.004	6820.93
484.208	6917.19
484.412	6906.95
484.616	6945.86
484.821	6990.91
485.025	6659.14
485.229	6788.16
485.433	6835.27
485.637	6763.59
485.841	6769.73
486.045	6802.5
486.249	6741.06
486.453	6620.23
486.657	6908.99
486.861	6851.65
487.065	6708.29
487.269	6837.31
487.473	6808.64
487.677	6833.22
487.881	6933.57
488.085	6829.12
488.289	6941.76
488.493	6851.65
488.697	6816.83
488.901	6906.95
489.105	6734.92
489.309	7021.63
489.512	7046.21
489.716	6853.7
489.92	6880.32
490.124	6835.27
490.328	6978.62
490.531	6827.07
490.735	7027.78
490.939	7003.2
491.143	7150.65
491.346	6886.47
491.55	7124.03
491.754	7111.74
491.958	7208
492.161	6958.14
492.365	7296.06
492.569	7191.61
492.772	7195.71
492.976	7263.29
493.18	7404.6
493.383	7412.79
493.587	7605.3
493.79	7369.79
493.994	7441.47
494.197	7523.38
494.401	7654.45
494.605	7564.34
494.808	7740.47
495.012	7642.17
495.215	7877.68
495.419	7701.56
495.622	7824.44
495.825	7988.27
496.029	7851.06
496.232	8264.75
496.436	7957.55
496.639	8467.5
496.843	8279.08
497.046	8434.73
497.249	8373.29
497.453	8465.45
497.656	8647.72
497.859	8729.64
498.063	8803.36
498.266	8954.91
498.469	9002.02
498.673	8999.97
498.876	9151.52
499.079	9339.93
499.282	9274.4
499.485	9557.02
499.689	9475.1
499.892	9540.63
500.095	9696.28
500.298	9882.64
500.501	9729.05
500.705	9864.21
500.908	10220.56
501.111	10310.67
501.314	10413.07
501.517	10540.04
501.72	10394.64
501.923	10443.79
502.126	11017.22
502.329	11154.43
502.532	11129.86
502.735	11262.97
502.938	11404.28
503.141	11518.97
503.344	11516.92
503.547	11887.61
503.75	12030.96
503.953	11963.38
504.156	11979.76
504.359	12397.55
504.562	12389.36
504.765	12532.72
504.968	12702.7
505.17	12827.62
505.373	12991.46
505.576	13233.12
505.779	13394.91
505.982	13323.23
506.185	13622.23
506.387	13663.19
506.59	13855.7
506.793	14054.36
506.996	14271.44
507.198	14470.09
507.401	14332.88
507.604	14486.48
507.807	14814.15
508.009	15031.24
508.212	15070.15
508.415	15268.8
508.617	15641.53
508.82	15524.8
509.022	15444.93
509.225	15752.12
509.428	16096.18
509.63	16196.53
509.833	16421.81
510.035	16798.63
510.238	16552.88
510.44	16554.93
510.643	17032.1
510.845	17284
511.048	17271.72
511.25	17613.73
511.453	17523.62
511.655	18191.25
511.858	17888.15
512.06	18181.01
512.262	18475.92
512.465	18688.91
512.667	18881.42
512.87	19121.03
513.072	19397.51
513.274	19458.95
513.477	19497.86
513.679	19854.2
513.881	20028.28
514.084	20294.52
514.286	20296.56
514.488	20636.53
514.69	21089.13
514.893	21179.24
515.095	21179.24
515.297	21478.24
515.499	21754.72
515.701	22045.53
515.904	22264.66
516.106	22125.4
516.308	22664.02
516.51	23253.83
516.712	22795.09
516.914	23319.37
517.116	23356.23
517.318	23733.06
517.52	23946.05
517.722	24077.12
517.925	24255.29
518.127	24765.23
518.329	25172.78
518.531	24687.41
518.733	25307.94
518.935	25520.93
519.136	25754.4
519.338	26168.09
519.54	25905.95
519.742	26577.69
519.944	26807.06
520.146	27169.55
520.348	26948.37
520.55	27462.41
520.752	27869.95
520.954	28041.98
521.155	27872
521.357	28402.43
521.559	28627.7
521.761	29051.63
521.963	29080.3
522.164	29588.2
522.366	29225.71
522.568	29733.6
522.77	30024.42
522.971	30266.08
523.173	30167.77
523.375	30722.77
523.576	30501.59
523.778	31007.44
523.98	31421.13
524.181	31730.37
524.383	31431.37
524.584	31670.98
524.786	32197.31
524.988	31888.07
525.189	32451.26
525.391	32180.93
525.592	32576.19
525.794	33057.46
525.995	32807.61
526.197	32737.98
526.398	33129.14
526.6	33534.63
526.801	33397.42
527.003	33606.31
527.204	33677.99
527.406	34144.93
527.607	34308.77
527.808	34470.56
528.01	33944.23
528.211	34337.44
528.412	35066.52
528.614	35138.19
528.815	34773.66
529.016	35144.34
529.218	35066.52
529.419	35185.3
529.62	35609.23
529.822	35267.22
530.023	35353.23
530.224	35973.77
530.425	35443.34
530.626	35420.81
530.828	35469.97
531.029	36555.39
531.23	35932.81
531.431	35787.4
531.632	35975.81
531.833	36137.6
532.035	36278.91
532.236	35848.84
532.437	36457.09
532.638	36194.95
532.839	36522.62
533.04	36643.45
533.241	36231.81
533.442	36747.9
533.643	36811.38
533.844	36461.18
534.045	36766.33
534.246	36264.58
534.447	36776.57
534.648	36305.54
534.849	36774.52
535.05	36641.4
535.251	36962.93
535.451	36641.4
535.652	37089.91
535.853	37030.52
536.054	37210.74
536.255	36717.18
536.456	36584.06
536.657	37309.04
536.857	36754.04
537.058	36498.05
537.259	37186.16
537.46	36981.37
537.66	36975.22
537.861	37083.76
538.062	37089.91
538.263	37347.95
538.463	36610.68
538.664	36854.39
538.865	37540.46
539.065	37370.48
539.266	36878.97
539.466	37075.57
539.667	36780.67
539.868	37409.39
540.068	36829.82
540.269	37352.05
540.469	36993.65
540.67	36895.35
540.87	36897.4
541.071	36872.82
541.271	37194.36
541.472	36971.13
541.672	36997.75
541.873	36766.33
542.073	36733.56
542.274	37132.92
542.474	36760.19
542.675	36973.17
542.875	37051
543.075	36723.32
543.276	36414.08
543.476	37055.09
543.676	36805.24
543.877	36964.98
544.077	36584.06
544.277	36930.17
544.478	36688.51
544.678	37331.57
544.878	36928.12
545.078	36633.21
545.279	36989.56
545.479	36510.33
545.679	36987.51
545.879	36594.3
546.079	36883.06
546.28	36784.76
546.48	36729.47
546.68	36915.83
546.88	37239.41
547.08	37112.44
547.28	36983.41
547.48	36399.74
547.68	36438.65
547.88	36502.14
548.081	36745.85
548.281	36649.6
548.481	36467.33
548.681	36870.78
548.881	36760.19
549.081	36567.68
549.28	36493.95
549.48	36872.82
549.68	36579.96
549.88	37237.36
550.08	36596.35
550.28	36915.83
550.48	36725.37
550.68	36672.12
550.88	36590.2
551.08	36268.67
551.279	36883.06
551.479	36475.52
551.679	36672.12
551.879	36545.15
552.079	36735.61
552.278	36571.77
552.478	36385.41
552.678	36502.14
552.878	36829.82
553.077	36622.97
553.277	36256.39
553.477	36741.75
553.676	36201.09
553.876	36287.1
554.076	36145.8
554.275	35955.33
554.475	36000.39
554.674	36098.69
554.874	36422.27
555.074	36080.26
555.273	36219.52
555.473	36174.47
555.672	35744.39
555.872	36299.39
556.071	35750.54
556.271	36139.65
556.47	35529.36
556.67	35633.8
556.869	35904.13
557.068	35906.18
557.268	35650.19
557.467	35678.86
557.667	35515.02
557.866	35398.29
558.065	35531.4
558.265	35025.56
558.464	35031.7
558.663	35740.3
558.863	35263.12
559.062	35375.76
559.261	35205.78
559.461	35250.83
559.66	34675.35
559.859	34814.62
560.058	34908.82
560.258	34503.32
560.457	34075.3
560.656	34925.21
560.855	34435.74
561.054	34605.72
561.253	34378.4
561.453	34224.8
561.652	34542.24
561.851	34445.98
562.05	34077.35
562.249	33811.11
562.448	34445.98
562.647	34126.5
562.846	33966.76
563.045	33944.23
563.244	33673.9
563.443	33770.15
563.642	33358.51
563.841	33776.3
564.04	33352.37
564.239	33868.45
564.438	33411.76
564.637	33321.65
564.836	33448.62
565.035	32711.35
565.234	33145.52
565.432	32815.8
565.631	32875.19
565.83	32625.34
566.029	32561.85
566.228	32467.64
566.427	32422.59
566.625	32221.89
566.824	32027.33
567.023	32639.67
567.222	31904.45
567.42	32375.48
567.619	31969.99
567.818	31941.32
568.016	31726.28
568.215	31988.42
568.414	31279.82
568.612	31709.89
568.811	31634.12
569.01	31431.37
569.208	30857.94
569.407	31333.07
569.605	30640.86
569.804	31505.1
570.002	30804.69
570.201	31191.76
570.4	30307.04
570.598	30212.83
570.797	30143.2
570.995	30165.73
571.193	30063.33
571.392	30247.65
571.59	29854.44
571.789	30155.49
571.987	29825.76
572.186	29731.56
572.384	29461.23
572.582	29711.08
572.781	29434.6
572.979	29256.43
573.177	29184.75
573.376	29432.55
573.574	28779.25
573.772	28898.03
573.971	28699.38
574.169	28601.08
574.367	28742.39
574.565	28502.78
574.763	28392.19
574.962	28343.03
575.16	28097.28
575.358	28347.13
575.556	27890.43
575.754	28248.83
575.952	27575.05
576.151	28291.83
576.349	27632.39
576.547	27532.04
576.745	27796.23
576.943	27925.25
577.141	27044.62
577.339	27405.06
577.537	27575.05
577.735	27181.84
577.933	27093.77
578.131	27147.02
578.329	26825.49
578.527	26659.6
578.725	26776.34
578.923	27091.73
579.121	26458.9
579.319	26350.36
579.516	26403.61
579.714	26657.56
579.912	26176.28
580.11	26520.34
580.308	26008.35
580.506	25875.23
580.704	26002.21
580.901	25895.71
581.099	26024.73
581.297	25828.13
581.495	25686.82
581.692	25578.28
581.89	25621.28
582.088	25432.87
582.285	25449.25
582.483	25312.04
582.681	24945.45
582.878	25322.28
583.076	25002.8
583.274	25033.52
583.471	25054
583.669	24765.23
583.866	24431.41
584.064	24703.79
584.262	24167.23
584.459	24494.9
584.657	24490.8
584.854	24501.04
585.052	24062.78
585.249	24501.04
585.447	24142.65
585.644	24042.3
585.841	23952.19
586.039	24113.98
586.236	23972.67
586.434	23659.33
586.631	23546.69
586.828	23544.64
587.026	23739.2
587.223	23503.68
587.42	23290.7
587.618	23311.17
587.815	23520.07
588.012	23354.18
588.21	22825.81
588.407	23386.95
588.604	22797.13
588.801	22805.33
588.999	22745.94
589.196	22969.16
589.393	22883.15
589.59	22784.85
589.787	22661.97
589.984	22463.32
590.182	22162.26
590.379	22389.59
590.576	22180.7
590.773	22254.42
590.97	22078.3
591.167	21998.43
591.364	21926.75
591.561	21883.74
591.758	21711.71
591.955	21449.57
592.152	21717.86
592.349	21482.34
592.546	21846.88
592.743	21463.91
592.94	21289.83
593.137	21455.72
593.334	21521.25
593.531	21080.94
593.727	21214.05
593.924	21314.41
594.121	20732.78
594.318	20816.75
594.515	20908.91
594.712	20831.08
594.908	20743.02
595.105	20870
595.302	20706.16
595.499	20822.89
595.696	20890.48
595.892	20409.2
596.089	20386.68
596.286	20282.23
596.482	20454.26
596.679	20411.25
596.876	20198.26
597.072	20321.14
597.269	20040.57
597.466	19932.03
597.662	19960.7
597.859	19923.83
598.055	19876.73
598.252	19774.33
598.448	19919.74
598.645	19454.85
598.841	19409.79
599.038	19626.88
599.234	19493.76
599.431	19121.03
599.627	19235.72
599.824	19442.56
600.02	19272.58
600.217	19252.1
600.413	19303.3
600.609	18625.42
600.806	19147.65
601.002	19217.29
601.198	18549.65
601.395	18627.47
601.591	18879.37
601.787	18740.11
601.984	18502.54
602.18	18695.05
602.376	18518.93
602.572	18439.06
602.769	18312.08
602.965	17949.59
603.161	18357.14
603.357	18060.18
603.553	17957.78
603.75	18178.97
603.946	17949.59
604.142	18236.31
604.338	17791.9
604.534	17951.64
604.73	17783.71
604.926	17486.75
605.122	17746.84
605.318	17722.27
605.514	17632.16
605.71	17527.71
605.906	17349.54
606.102	17445.79
606.298	17445.79
606.494	17339.3
606.69	17421.22
606.886	16991.14
607.082	17380.26
607.278	17236.9
607.474	16829.35
607.67	17044.39
607.866	16776.11
608.062	17191.84
608.257	17046.44
608.453	17046.44
608.649	16724.91
608.845	16794.54
609.041	16802.73
609.236	16597.93
609.432	16786.35
609.628	16473.01
609.824	16434.1
610.019	16501.68
610.215	16591.79
610.411	16397.23
610.606	16292.79
610.802	16466.86
610.998	16333.75
611.193	16391.09
611.389	16206.77
611.584	16343.99
611.78	15875
611.976	16247.73
612.171	16221.11
612.367	16171.96
612.562	15903.67
612.758	15750.07
612.953	16044.98
613.149	16151.48
613.344	15870.9
613.539	15932.34
613.735	15522.75
613.93	15774.65
614.126	15586.24
614.321	15811.51
614.517	15713.21
614.712	15698.88
614.907	15578.04
615.103	15664.06
615.298	15428.54
615.493	15621.05
615.688	15272.9
615.884	15854.52
616.079	15225.79
616.274	15715.26
616.47	15147.97
616.665	15371.2
616.86	15233.99
617.055	15197.12
617.25	15059.91
617.445	15203.27
617.641	14873.54
617.836	14945.22
618.031	14648.27
618.226	14934.98
618.421	14924.74
618.616	14863.3
618.811	14611.4
619.006	14855.11
619.201	14425.04
619.396	14771.15
619.591	14369.74
619.786	14662.6
619.981	14498.77
620.176	14412.75
620.371	14320.59
620.566	14154.71
620.761	14166.99
620.956	14070.74
621.151	13919.19
621.346	14341.07
621.541	13906.9
621.735	13824.98
621.93	13913.05
622.125	13804.5
622.32	13458.4
622.515	13597.66
622.709	13312.99
622.904	13392.86
623.099	13427.68
623.294	13331.42
623.488	13157.35
623.683	13186.02
623.878	13104.1
624.072	13024.23
624.267	12909.54
624.462	12811.24
624.656	12786.66
624.851	12721.13
625.046	12528.62
625.24	12622.83
625.435	12526.57
625.629	12493.8
625.824	12235.76
626.018	12418.03
626.213	12260.34
626.407	12395.5
626.602	11860.98
626.796	12059.63
626.991	12045.3
627.185	11815.93
627.38	11912.18
627.574	11791.35
627.768	11748.34
627.963	11727.86
628.157	11697.14
628.352	11428.86
628.546	11541.5
628.74	11604.99
628.935	11283.45
629.129	11377.66
629.323	11133.95
629.517	11213.82
629.712	11084.8
629.906	11080.71
630.1	10742.79
630.294	10800.13
630.489	10898.44
630.683	10884.1
630.877	10640.39
631.071	10753.03
631.265	10714.12
631.459	10640.39
631.653	10593.29
631.848	10581
632.042	10445.84
632.236	10581
632.43	10222.61
632.624	10267.66
632.818	10134.54
633.012	10026
633.206	10183.7
633.4	9901.08
633.594	9933.84
633.788	10095.63
633.982	9948.18
634.176	9966.61
634.369	9665.56
634.563	9610.26
634.757	9727
634.951	9843.73
635.145	9610.26
635.339	9511.96
635.533	9483.29
635.726	9384.99
635.92	9378.84
636.114	9323.55
636.308	9262.11
636.501	9274.4
636.695	9206.81
636.889	9206.81
637.083	9016.35
637.276	9069.6
637.47	9067.55
637.664	9202.72
637.857	9022.5
638.051	8817.7
638.244	8754.21
638.438	8778.79
638.632	8850.47
638.825	8807.46
639.019	8565.8
639.212	8510.5
639.406	8594.47
639.599	8481.83
639.793	8463.4
639.986	8174.64
640.18	8420.39
640.373	8318
640.567	8129.58
640.76	8227.89
640.954	8221.74
641.147	7879.73
641.34	7980.08
641.534	7748.66
641.727	7967.79
641.92	7826.48
642.114	7855.15
642.307	7867.44
642.5	7732.28
642.694	7629.88
642.887	7623.73
643.08	7699.51
643.273	7707.7
643.467	7496.76
643.66	7463.99
643.853	7380.03
644.046	7255.1
644.239	7476.28
644.432	7222.33
644.626	7345.21
644.819	7242.81
645.012	7265.34
645.205	7330.87
645.398	7181.37
645.591	7064.64
645.784	7156.8
645.977	6853.7
646.17	6972.48
646.363	6861.89
646.556	6982.72
646.749	6966.34
646.942	6771.78
647.135	6749.25
647.328	6636.61
647.521	6804.55
647.714	6734.92
647.907	6632.52
648.099	6587.46
648.292	6681.67
648.485	6526.02
648.678	6476.87
648.871	6562.89
649.064	6452.3
649.256	6376.52
649.449	6407.24
649.642	6327.37
649.835	6229.07
650.027	6384.71
650.22	6313.03
650.413	6112.33
650.605	6188.11
650.798	6177.87
650.991	6073.42
651.183	6116.43
651.376	5979.22
651.568	6079.57
651.761	5934.16
651.954	5842
652.146	5852.24
652.339	5958.74
652.531	5903.44
652.724	5704.79
652.916	5745.75
653.109	5696.6
653.301	5794.9
653.494	5811.28
653.686	5624.92
653.879	5796.95
654.071	5753.94
654.263	5493.85
654.456	5590.1
654.648	5624.92
654.84	5545.05
655.033	5502.04
655.225	5545.05
655.417	5217.37
655.61	5641.3
655.802	5370.97
655.994	5340.25
656.186	5348.44
656.379	5543
656.571	5266.52
656.763	5086.3
656.955	5147.74
657.148	5194.84
657.34	5254.23
657.532	4985.95
657.724	4983.9
657.916	5143.64
658.108	5143.64
658.3	4875.36
658.492	5022.81
658.684	4803.68
658.876	4996.19
659.068	4938.85
659.26	4910.18
659.452	4936.8
659.644	4848.74
659.836	4883.55
660.028	4895.84
660.22	4752.48
660.412	4697.19
660.604	4721.76
660.796	4686.95
660.988	4656.23
661.18	4676.71
661.372	4619.36
661.563	4623.46
661.755	4693.09
661.947	4637.8
662.139	4568.16
662.331	4611.17
662.522	4527.21
662.714	4408.42
662.906	4373.61
663.097	4598.88
663.289	4375.66
663.481	4500.58
663.673	4369.51
663.864	4271.21
664.056	4441.19
664.247	4332.65
664.439	4338.79
664.631	4250.73
664.822	4344.94
665.014	4260.97
665.205	4295.79
665.397	4199.53
665.588	4121.71
665.78	4134
665.971	4150.38
666.163	4248.68
666.354	4213.87
666.546	4140.14
666.737	4119.66
666.929	4027.5
667.12	4146.28
667.311	4113.52
667.503	4047.98
667.694	4174.95
667.885	4078.7
668.077	4021.36
668.268	3927.15
668.459	3959.92
668.651	4082.8
668.842	4035.69
669.033	3945.58
669.224	3875.95
669.416	3998.83
669.607	4009.07
669.798	4009.07
669.989	4031.6
670.18	3902.58
670.371	3910.77
670.563	3808.37
670.754	3955.82
670.945	3908.72
671.136	3830.9
671.327	3841.14
671.518	3974.25
671.709	3929.2
671.9	3834.99
672.091	3724.4
672.282	3921.01
672.473	3892.34
672.664	3867.76
672.855	3834.99
673.046	3802.22
673.237	3726.45
673.428	3777.65
673.619	3765.36
673.809	3677.3
674	3839.09
674.191	3791.98
674.382	3765.36
674.573	3734.64
674.764	3671.15
674.954	3834.99
675.145	3714.16
675.336	3705.97
675.527	3722.35
675.717	3691.63
675.908	3730.55
676.099	3689.59
676.289	3767.41
676.48	3564.66
676.671	3781.74
676.861	3718.26
677.052	3720.31
677.243	3673.2
677.433	3777.65
677.624	3941.49
677.814	3748.98
678.005	3753.07
678.195	3718.26
678.386	3667.06
678.576	3648.63
678.767	3679.35
678.957	3744.88
679.148	3753.07
679.338	3857.52
679.529	3699.83
679.719	3796.08
679.909	3810.42
680.1	3804.27
680.29	3761.27
680.481	3738.74
680.671	3613.81
680.861	3843.18
681.052	3830.9
681.242	3791.98
681.432	3798.13
681.622	3695.73
681.813	3660.91
682.003	3779.7
682.193	3712.11
682.383	3806.32
682.573	3654.77
682.764	3802.22
682.954	3834.99
683.144	3697.78
683.334	3759.22
683.524	3685.49
683.714	3785.84
683.904	3841.14
684.094	3619.96
684.284	3701.87
684.474	3665.01
684.664	3751.03
684.854	3765.36
685.044	3683.44
685.234	3595.38
685.424	3777.65
685.614	3726.45
685.804	3669.11
685.994	3775.6
686.184	3699.83
686.374	3673.2
686.564	3814.51
686.753	3523.7
686.943	3591.28
687.133	3548.28
687.323	3617.91
687.513	3705.97
687.702	3462.26
687.892	3490.93
688.082	3495.03
688.272	3564.66
688.461	3525.75
688.651	3478.65
688.841	3466.36
689.03	3472.5
689.22	3325.05
689.41	3466.36
689.599	3460.21
689.789	3558.52
689.979	3337.34
690.168	3296.38
690.358	3294.33
690.547	3284.09
690.737	3320.95
690.926	3349.62
691.116	3251.32
691.305	3138.68
691.495	3292.28
691.684	3189.88
691.874	3228.79
692.063	3273.85
692.252	3269.75
692.442	3198.07
692.631	3208.31
692.82	3216.51
693.01	3052.67
693.199	3265.66
693.388	3107.96
693.578	2974.85
693.767	3128.44
693.956	3067
694.146	3003.52
694.335	3009.66
694.524	3024
694.713	3075.2
694.902	3089.53
695.092	2993.28
695.281	2911.36
695.47	3081.34
695.659	3001.47
695.848	3044.48
696.037	2866.3
696.226	2894.97
696.415	2876.54
696.604	2937.98
696.793	3060.86
696.982	3011.71
697.171	3155.07
697.36	2909.31
697.549	2999.42
697.738	2927.74
697.927	2888.83
698.116	3009.66
698.305	2905.21
698.494	2800.77
698.683	2966.65
698.872	2856.06
699.061	2780.29
699.25	2929.79
699.438	2870.4
699.627	2915.45
699.816	2925.69
700.005	2874.49
700.193	2831.49
700.382	2911.36
700.571	3036.28
700.76	2868.35
700.948	2892.93
701.137	2894.97
701.326	2886.78
701.514	2897.02
701.703	2882.69
701.892	2972.8
702.08	2958.46
702.269	2972.8
702.457	2806.91
702.646	2866.3
702.834	2874.49
703.023	2839.68
703.212	2968.7
703.4	3040.38
703.589	2778.24
703.777	2768
703.965	2819.2
704.154	2792.58
704.342	2837.63
704.531	2890.88
704.719	2985.09
704.907	2897.02
705.096	2913.41
705.284	2929.79
705.472	2933.89
705.661	2884.73
705.849	2897.02
706.037	3007.61
706.226	2933.89
706.414	2903.17
706.602	2907.26
706.79	3007.61
706.979	2882.69
707.167	3097.72
707.355	2940.03
707.543	2985.09
707.731	2901.12
707.919	3048.57
708.107	2966.65
708.296	2907.26
708.484	2952.32
708.672	3064.96
708.86	3073.15
709.048	2903.17
709.236	2925.69
709.424	3116.16
709.612	2954.37
709.8	2999.42
709.988	2907.26
710.176	2995.32
710.364	3001.47
710.551	3083.39
710.739	2997.37
710.927	2985.09
711.115	3024
711.303	3116.16
711.491	3056.76
711.679	3001.47
711.866	2946.17
712.054	3003.52
712.242	3054.72
712.43	3081.34
712.617	3171.45
712.805	3067
712.993	2991.23
713.181	3091.58
713.368	3224.7
713.556	3251.32
713.744	3120.25
713.931	3234.94
714.119	3110.01
714.306	3130.49
714.494	3296.38
714.682	3114.11
714.869	3015.8
715.057	3118.2
715.244	3167.35
715.432	3171.45
715.619	3212.41
715.807	3216.51
715.994	3097.72
716.182	3083.39
716.369	3208.31
716.556	3251.32
716.744	3144.83
716.931	3167.35
717.119	3083.39
717.306	3163.26
717.493	3304.57
717.681	3323
717.868	3224.7
718.055	3292.28
718.242	3384.44
718.43	3204.22
718.617	3372.15
718.804	3271.8
718.991	3308.66
719.179	3294.33
719.366	3327.1
719.553	3208.31
719.74	3159.16
719.927	3298.42
720.114	3298.42
720.301	3261.56
720.488	3327.1
720.676	3337.34
720.863	3351.67
721.05	3357.82
721.237	3394.68
721.424	3413.11
721.611	3372.15
721.798	3325.05
721.985	3347.58
722.172	3339.38
722.358	3398.77
722.545	3472.5
722.732	3490.93
722.919	3490.93
723.106	3355.77
723.293	3417.21
723.48	3359.86
723.667	3521.65
723.853	3513.46
724.04	3445.88
724.227	3431.54
724.414	3443.83
724.6	3495.03
724.787	3503.22
724.974	3474.55
725.161	3560.56
725.347	3423.35
725.534	3486.84
725.72	3535.99
725.907	3470.45
726.094	3470.45
726.28	3468.41
726.467	3540.08
726.653	3542.13
726.84	3509.37
727.027	3564.66
727.213	3472.5
727.4	3544.18
727.586	3646.58
727.773	3624.05
727.959	3576.95
728.145	3701.87
728.332	3570.8
728.518	3533.94
728.705	3765.36
728.891	3503.22
729.077	3646.58
729.264	3642.48
729.45	3652.72
729.636	3748.98
729.823	3583.09
730.009	3796.08
730.195	3525.75
730.382	3669.11
730.568	3759.22
730.754	3798.13
730.94	3605.62
731.126	3638.39
731.313	3679.35
731.499	3699.83
731.685	3847.28
731.871	3718.26
732.057	3710.07
732.243	3794.03
732.429	3726.45
732.615	3716.21
732.801	3740.79
732.987	3837.04
733.173	3744.88
733.359	3691.63
733.545	3658.87
733.731	3689.59
733.917	3763.31
734.103	3828.85
734.289	3718.26
734.475	3789.94
734.661	3775.6
734.847	3839.09
735.033	3968.11
735.219	3925.1
735.404	3748.98
735.59	3662.96
735.776	3871.86
735.962	3918.96
736.148	3841.14
736.333	3798.13
736.519	3724.4
736.705	3843.18
736.89	3771.51
737.076	3814.51
737.262	3861.62
737.447	3761.27
737.633	3732.59
737.819	3802.22
738.004	3726.45
738.19	3841.14
738.375	3751.03
738.561	3869.81
738.747	3851.38
738.932	3824.75
739.118	3816.56
739.303	3834.99
739.489	3847.28
739.674	3697.78
739.859	3808.37
740.045	3703.92
740.23	3806.32
740.416	3640.44
740.601	3800.18
740.786	3757.17
740.972	3740.79
741.157	3802.22
741.342	3710.07
741.528	3796.08
741.713	3791.98
741.898	3724.4
742.084	3619.96
742.269	3785.84
742.454	3667.06
742.639	3671.15
742.824	3687.54
743.01	3716.21
743.195	3812.46
743.38	3597.43
743.565	3597.43
743.75	3579
743.935	3638.39
744.12	3544.18
744.305	3523.7
744.49	3628.15
744.675	3615.86
744.86	3521.65
745.045	3292.28
745.23	3497.08
745.415	3386.49
745.6	3531.89
745.785	3417.21
745.97	3458.17
746.155	3398.77
746.34	3325.05
746.525	3415.16
746.71	3458.17
746.895	3302.52
747.079	3255.42
747.264	3441.78
747.449	3349.62
747.634	3265.66
747.819	3267.7
748.003	3343.48
748.188	3312.76
748.373	3302.52
748.557	3249.27
748.742	3243.13
748.927	3146.87
749.111	3228.79
749.296	3030.14
749.481	3146.87
749.665	3044.48
749.85	3103.87
750.034	3120.25
750.219	3075.2
750.404	2966.65
750.588	3042.43
750.773	3126.39
750.957	3048.57
751.141	2911.36
751.326	2966.65
751.51	2921.6
751.695	2862.21
751.879	2874.49
752.064	3028.09
752.248	2751.62
752.432	2835.58
752.617	2731.14
752.801	2841.73
752.985	2729.09
753.17	2794.62
753.354	2798.72
753.538	2714.75
753.722	2718.85
753.907	2649.22
754.091	2681.99
754.275	2628.74
754.459	2636.93
754.643	2563.2
754.828	2557.06
755.012	2638.98
755.196	2542.72
755.38	2499.72
755.564	2624.64
755.748	2485.38
755.932	2624.64
756.116	2329.74
756.3	2413.7
756.484	2450.57
756.668	2337.93
756.852	2188.43
757.036	2317.45
757.22	2370.69
757.404	2344.07
757.588	2307.21
757.772	2430.09
757.956	2282.63
758.14	2280.58
758.323	2208.9
758.507	2446.47
758.691	2208.9
758.875	2469
759.059	2278.54
759.242	2188.43
759.426	2159.75
759.61	2174.09
759.794	2200.71
759.977	2159.75
760.161	2198.67
760.345	2135.18
760.528	2223.24
760.712	2106.51
760.895	2102.41
761.079	2040.97
761.263	2059.4
761.446	2094.22
761.63	2014.35
761.813	2057.36
761.997	2045.07
762.18	2043.02
762.364	2077.83
762.547	1963.15
762.731	2004.11
762.914	1948.81
763.098	2034.83
763.281	1903.76
763.464	1877.13
763.648	1950.86
763.831	1971.34
764.015	1852.56
764.198	1959.05
764.381	1936.53
764.564	1944.72
764.748	1897.61
764.931	1907.85
765.114	1825.93
765.297	1950.86
765.481	1868.94
765.664	1698.96
765.847	1780.88
766.03	1838.22
766.213	1836.17
766.397	1842.32
766.58	1819.79
766.763	1838.22
766.946	1758.35
767.129	1774.74
767.312	1774.74
767.495	1713.3
767.678	1752.21
767.861	1756.3
768.044	1690.77
768.227	1709.2
768.41	1774.74
768.593	1733.78
768.776	1711.25
768.959	1666.19
769.142	1782.93
769.324	1688.72
769.507	1621.14
769.69	1647.76
769.873	1643.67
770.056	1649.81
770.239	1608.85
770.421	1692.82
770.604	1668.24
770.787	1600.66
770.97	1565.84
771.152	1533.08
771.335	1633.43
771.518	1457.3
771.7	1608.85
771.883	1633.43
772.066	1436.82
772.248	1490.07
772.431	1545.36
772.613	1469.59
772.796	1483.92
772.978	1485.97
773.161	1522.84
773.343	1438.87
773.526	1352.85
773.708	1367.19
773.891	1471.64
774.073	1479.83
774.256	1356.95
774.438	1447.06
774.621	1350.81
774.803	1455.25
774.985	1371.29
775.168	1447.06
775.35	1385.62
775.532	1313.94
775.715	1334.42
775.897	1373.33
776.079	1318.04
776.261	1356.95
776.444	1221.78
776.626	1275.03
776.808	1203.35
776.99	1256.6
777.173	1246.36
777.355	1240.22
777.537	1047.71
777.719	1215.64
777.901	1223.83
778.083	1160.34
778.265	1086.62
778.447	1141.91
778.629	1141.91
778.811	1223.83
778.993	1260.7
779.175	1135.77
779.357	1160.34
779.539	1006.75
779.721	1098.91
779.903	1123.48
780.085	1051.8
780.267	1131.67
780.449	1008.8
780.631	1012.89
780.812	1082.52
780.994	1010.84
781.176	1006.75
781.358	1070.23
781.54	965.79
781.721	984.22
781.903	961.69
782.085	1002.65
782.267	902.3
782.448	902.3
782.63	980.12
782.812	998.56
782.993	910.49
783.175	953.5
783.357	869.53
783.538	847.01
783.72	904.35
783.901	957.6
784.083	875.68
784.264	842.91
784.446	873.63
784.627	867.49
784.809	847.01
784.99	867.49
785.172	877.73
785.353	769.18
785.535	863.39
785.716	851.1
785.897	824.48
786.079	787.61
786.26	847.01
786.441	820.38
786.623	777.37
786.804	742.56
786.985	781.47
787.167	732.32
787.348	769.18
787.529	795.81
787.71	767.13
787.891	722.08
788.073	705.7
788.254	674.98
788.435	785.57
788.616	756.9
788.797	728.22
788.978	693.41
789.159	642.21
789.34	687.26
789.522	672.93
789.703	677.02
789.884	664.74
790.065	615.59
790.246	691.36
790.427	652.45
790.607	638.11
790.788	634.02
790.969	699.55
791.15	615.59
791.331	674.98
791.512	568.48
791.693	584.87
791.874	609.44
792.054	500.9
792.235	599.2
792.416	588.96
792.597	576.67
792.778	658.59
792.958	607.39
793.139	568.48
793.32	572.58
793.5	533.67
793.681	591.01
793.862	634.02
794.042	554.15
794.223	519.33
794.404	541.86
794.584	511.14
794.765	414.88
794.945	529.57
795.126	591.01
795.306	580.77
795.487	527.52
795.667	566.43
795.848	523.43
796.028	494.76
796.209	490.66
796.389	558.24
796.57	556.19
796.75	445.6
796.93	484.52
797.111	488.61
797.291	466.08
797.471	509.09
797.652	478.37
797.832	498.85
798.012	535.71
798.192	384.16
798.373	431.27
798.553	502.95
798.733	498.85
798.913	494.76
799.093	468.13
799.274	427.17
799.454	459.94
799.634	531.62
799.814	476.32
799.994	404.64
800.174	416.93
800.354	459.94
800.534	369.83
800.714	408.74
800.894	492.71
801.074	353.45
801.254	398.5
801.434	470.18
801.614	439.46
801.794	472.23
801.974	1078.43
802.154	410.79
802.334	480.42
802.514	312.49
802.693	359.59
802.873	339.11
803.053	414.88
803.233	363.69
803.413	349.35
803.592	314.53
803.772	335.01
803.952	378.02
804.131	347.3
804.311	380.07
804.491	416.93
804.67	328.87
804.85	394.4
805.03	421.03
805.209	474.28
805.389	326.82
805.568	402.6
805.748	375.97
805.928	355.49
806.107	406.69
806.287	357.54
806.466	314.53
806.646	353.45
806.825	345.25
807.004	324.77
807.184	380.07
807.363	341.16
807.543	337.06
807.722	263.33
807.901	343.21
808.081	375.97
808.26	240.81
808.439	347.3
808.619	322.73
808.798	281.77
808.977	314.53
809.156	380.07
809.336	310.44
809.515	255.14
809.694	275.62
809.873	294.05
810.052	244.9
810.231	328.87
810.411	330.92
810.59	302.25
810.769	300.2
810.948	378.02
811.127	199.85
811.306	236.71
811.485	261.29
811.664	326.82
811.843	337.06
812.022	263.33
812.201	238.76
812.38	212.14
812.559	226.47
812.737	292.01
812.916	251.05
813.095	183.46
813.274	300.2
813.453	263.33
813.632	318.63
813.811	253.09
813.989	222.38
814.168	339.11
814.347	171.18
814.526	289.96
814.704	320.68
814.883	351.4
815.062	345.25
815.24	255.14
815.419	242.85
815.598	218.28
815.776	150.7
815.955	242.85
816.133	152.74
816.312	199.85
816.49	255.14
816.669	353.45
816.847	224.42
817.026	226.47
817.204	210.09
817.383	314.53
817.561	181.42
817.74	205.99
817.918	187.56
818.097	224.42
818.275	236.71
818.453	214.18
818.632	191.66
818.81	220.33
818.988	179.37
819.167	234.66
819.345	117.93
819.523	216.23
819.701	238.76
819.879	226.47
820.058	175.27
820.236	306.34
820.414	269.48
820.592	230.57
820.77	167.08
820.948	228.52
821.127	203.94
821.305	240.81
821.483	246.95
821.661	257.19
821.839	183.46
822.017	177.32
822.195	222.38
822.373	238.76
822.551	201.9
822.729	222.38
822.907	173.22
823.085	212.14
823.262	220.33
823.44	111.78
823.618	193.7
823.796	212.14
823.974	156.84
824.152	124.07
824.329	156.84
824.507	160.94
824.685	142.5
824.863	193.7
825.04	189.61
825.218	126.12
825.396	160.94
825.574	216.23
825.751	195.75
825.929	203.94
826.107	128.17
826.284	177.32
826.462	210.09
826.639	128.17
826.817	124.07
826.994	167.08
827.172	130.22
827.349	257.19
827.527	107.69
827.704	124.07
827.882	205.99
828.059	136.36
828.237	162.98
828.414	144.55
828.591	111.78
828.769	132.26
828.946	150.7
829.124	175.27
829.301	150.7
829.478	150.7
829.655	140.46
829.833	150.7
830.01	-9.05
830.187	167.08
830.364	142.5
830.542	42.15
830.719	179.37
830.896	175.27
831.073	191.66
831.25	142.5
831.427	214.18
831.604	158.89
831.782	148.65
831.959	218.28
832.136	144.55
832.313	126.12
832.49	130.22
832.667	124.07
832.844	167.08
833.021	208.04
833.198	150.7
833.374	148.65
833.551	175.27
833.728	83.11
833.905	208.04
834.082	103.59
834.259	119.98
834.436	193.7
834.612	113.83
834.789	122.02
834.966	201.9
835.143	105.64
835.319	101.55
835.496	140.46
835.673	148.65
835.85	201.9
836.026	154.79
836.203	175.27
836.38	27.82
836.556	124.07
836.733	97.45
836.909	126.12
837.086	95.4
837.262	68.78
837.439	97.45
837.616	113.83
837.792	177.32
837.968	205.99
838.145	87.21
838.321	136.36
838.498	132.26
838.674	103.59
838.851	52.39
839.027	60.59
839.203	128.17
839.38	79.02
839.556	132.26
839.732	160.94
839.909	33.96
840.085	91.31
840.261	81.07
840.437	126.12
840.614	103.59
840.79	95.4
840.966	79.02
841.142	128.17
841.318	-29.52
841.494	72.87
841.671	136.36
841.847	76.97
842.023	87.21
842.199	79.02
842.375	152.74
842.551	11.43
842.727	68.78
842.903	119.98
843.079	85.16
843.255	189.61
843.431	93.35
843.607	117.93
843.783	9.39
843.959	115.88
844.134	52.39
844.31	154.79
844.486	105.64
844.662	52.39
844.838	91.31
845.013	122.02
845.189	111.78
845.365	109.74
845.541	62.63
845.716	130.22
845.892	42.15
846.068	119.98
846.244	87.21
846.419	105.64
846.595	33.96
846.77	154.79
846.946	99.5
847.122	79.02
847.297	40.11
847.473	144.55
847.648	-29.52
847.824	48.3
847.999	25.77
848.175	1.19
848.35	132.26
848.526	95.4
848.701	62.63
848.876	119.98
849.052	142.5
849.227	48.3
849.403	66.73
849.578	72.87
849.753	74.92
849.929	72.87
850.104	33.96
850.279	111.78
850.454	19.63
850.63	148.65
850.805	54.44
850.98	9.39
851.155	89.26
851.33	56.49
851.505	-27.48
851.681	83.11
851.856	40.11
852.031	54.44
852.206	79.02
852.381	97.45
852.556	74.92
852.731	85.16
852.906	56.49
853.081	107.69
853.256	52.39
853.431	23.72
853.606	-66.39
853.781	76.97
853.956	31.91
854.131	70.83
854.305	38.06
854.48	31.91
854.655	56.49
854.83	56.49
855.005	33.96
855.18	62.63
855.354	79.02
855.529	19.63
855.704	11.43
855.879	-13.14
856.053	7.34
856.228	107.69
856.403	-15.19
856.577	128.17
856.752	-2.9
856.926	87.21
857.101	101.55
857.276	25.77
857.45	-7
857.625	-13.14
857.799	74.92
857.974	-13.14
858.148	-54.1
858.323	44.2
858.497	15.53
858.672	36.01
858.846	38.06
859.02	-25.43
859.195	19.63
859.369	-2.9
859.543	29.87
859.718	72.87
859.892	-25.43
860.066	79.02
860.241	31.91
860.415	60.59
860.589	79.02
860.763	23.72
860.938	1.19
861.112	93.35
861.286	56.49
861.46	70.83
861.634	-19.29
861.808	85.16
861.982	38.06
862.157	-19.29
862.331	60.59
862.505	13.48
862.679	29.87
862.853	87.21
863.027	40.11
863.201	142.5
863.375	-33.62
863.549	68.78
863.722	7.34
863.896	21.67
864.07	68.78
864.244	97.45
864.418	29.87
864.592	79.02
864.766	36.01
864.939	-4.95
865.113	-21.33
865.287	7.34
865.461	25.77
865.634	5.29
865.808	46.25
865.982	-13.14
866.156	1.19
866.329	7.34
866.503	19.63
866.676	25.77
866.85	136.36
867.024	-2.9
867.197	79.02
867.371	91.31
867.544	-13.14
867.718	-70.48
867.891	81.07
868.065	25.77
868.238	44.2
868.412	85.16
868.585	64.68
868.759	33.96
868.932	-9.05
869.105	17.58
869.279	23.72
869.452	13.48
869.625	-70.48
869.799	31.91
869.972	21.67
870.145	23.72
870.319	70.83
870.492	5.29
870.665	58.54
870.838	-50
871.011	-50
871.185	-47.96
871.358	-27.48
871.531	40.11
871.704	50.35
871.877	115.88
872.05	31.91
872.223	11.43
872.396	95.4
872.569	72.87
872.742	23.72
872.915	5.29
873.088	-2.9
873.261	-66.39
873.434	29.87
873.607	48.3
873.78	-0.85
873.953	23.72
874.126	66.73
874.299	15.53
874.471	-54.1
874.644	46.25
874.817	89.26
874.99	21.67
875.163	-45.91
875.335	36.01
875.508	97.45
875.681	105.64
875.853	-50
876.026	13.48
876.199	23.72
876.371	95.4
876.544	13.48
876.717	5.29
876.889	-13.14
877.062	29.87
877.234	-95.06
877.407	21.67
877.579	42.15
877.752	68.78
877.924	83.11
878.097	19.63
878.269	1.19
878.442	17.58
878.614	38.06
878.786	62.63
878.959	31.91
879.131	5.29
879.303	-90.96
879.476	101.55
879.648	5.29
879.82	9.39
879.993	27.82
880.165	50.35
880.337	15.53
880.509	36.01
880.681	1.19
880.854	-7
881.026	-4.95
881.198	40.11
881.37	31.91
881.542	66.73
881.714	17.58
881.886	-7
882.058	-35.67
882.23	70.83
882.402	17.58
882.574	62.63
882.746	50.35
882.918	46.25
883.09	27.82
883.262	-7
883.434	48.3
883.606	-76.63
883.778	-19.29
883.95	93.35
884.122	48.3
884.293	46.25
884.465	9.39
884.637	3.24
884.809	33.96
884.98	-17.24
885.152	19.63
885.324	40.11
885.496	29.87
885.667	-43.86
885.839	3.24
886.011	91.31
886.182	-33.62
886.354	33.96
886.525	-2.9
886.697	38.06
886.869	17.58
887.04	5.29
887.212	70.83
887.383	113.83
887.555	19.63
887.726	-33.62
887.897	-33.62
888.069	-7
888.24	-45.91
888.412	42.15
888.583	9.39
888.754	-19.29
888.926	-9.05
889.097	19.63
889.268	13.48
889.44	-17.24
889.611	9.39
889.782	-58.2
889.953	-52.05
890.125	1.19
890.296	-13.14
890.467	70.83
890.638	-9.05
890.809	27.82
890.98	-41.81
891.151	105.64
891.323	-45.91
891.494	17.58
891.665	54.44
891.836	25.77
892.007	-27.48
892.178	117.93
892.349	58.54
892.52	-11.09
892.691	81.07
892.862	48.3
893.032	-33.62
893.203	-54.1
893.374	-25.43
893.545	31.91
893.716	21.67
893.887	19.63
894.057	46.25
894.228	3.24
894.399	9.39
894.57	66.73
894.74	36.01
894.911	83.11
895.082	-39.76
895.253	21.67
895.423	-39.76
895.594	25.77
895.764	60.59
895.935	27.82
896.106	-60.24
896.276	-23.38
896.447	-41.81
896.617	54.44
896.788	9.39
896.958	-0.85
897.129	-68.44
897.299	31.91
897.47	79.02
897.64	9.39
897.81	-52.05
897.981	76.97
898.151	-15.19
898.322	29.87
898.492	-19.29
898.662	-35.67
898.832	-76.63
899.003	48.3
899.173	-4.95
899.343	81.07
899.513	-7
