Data from USB4F104151__69__12-24-16-937.txt Node

Date: Fri Mar 14 12:24:16 EDT 2025
User: louis
Spectrometer: USB4F10415
Trigger mode: 4
Integration Time (sec): 3.500000E-2
Scans to average: 1
Electric dark correction enabled: true
Nonlinearity correction enabled: false
Boxcar width: 0
XAxis mode: Wavelengths
Number of Pixels in Spectrum: 3648
>>>>>Begin Spectral Data<<<<<
178.204	-66.39
178.424	-66.39
178.644	-66.39
178.864	-156.5
179.084	-140.12
179.304	-47.96
179.524	13.48
179.744	70.83
179.964	-17.24
180.184	-7
180.404	-15.19
180.624	-37.72
180.844	36.01
181.064	-50
181.283	58.54
181.503	-39.76
181.723	36.01
181.943	-123.73
182.163	89.26
182.383	46.25
182.602	1.19
182.822	33.96
183.042	17.58
183.262	-15.19
183.482	-7
183.701	-47.96
183.921	-47.96
184.141	3.24
184.361	-11.09
184.58	27.82
184.8	3.24
185.02	-60.24
185.239	138.41
185.459	-25.43
185.679	-17.24
185.898	-76.63
186.118	19.63
186.338	-31.57
186.557	-4.95
186.777	-82.77
186.997	-105.3
187.216	-2.9
187.436	64.68
187.655	33.96
187.875	-21.33
188.095	-11.09
188.314	29.87
188.534	76.97
188.753	-54.1
188.973	11.43
189.192	44.2
189.412	9.39
189.631	-2.9
189.851	23.72
190.07	46.25
190.29	-54.1
190.509	-0.85
190.729	-13.14
190.948	76.97
191.168	134.31
191.387	1.19
191.607	-82.77
191.826	-50
192.045	1.19
192.265	1.19
192.484	-15.19
192.704	15.53
192.923	-56.15
193.142	115.88
193.362	-37.72
193.581	-13.14
193.8	62.63
194.02	107.69
194.239	-17.24
194.458	-2.9
194.678	-39.76
194.897	31.91
195.116	7.34
195.335	17.58
195.555	93.35
195.774	-17.24
195.993	27.82
196.212	66.73
196.432	17.58
196.651	-97.11
196.87	-23.38
197.089	117.93
197.308	23.72
197.528	46.25
197.747	1.19
197.966	-11.09
198.185	56.49
198.404	21.67
198.623	-9.05
198.842	9.39
199.062	-4.95
199.281	52.39
199.5	36.01
199.719	1.19
199.938	72.87
200.157	76.97
200.376	21.67
200.595	44.2
200.814	-31.57
201.033	-64.34
201.252	1.19
201.471	89.26
201.69	56.49
201.909	-13.14
202.128	-43.86
202.347	46.25
202.566	31.91
202.785	79.02
203.004	-11.09
203.223	154.79
203.442	-15.19
203.661	13.48
203.879	-43.86
204.098	9.39
204.317	-70.48
204.536	-11.09
204.755	21.67
204.974	31.91
205.193	-23.38
205.411	50.35
205.63	74.92
205.849	-7
206.068	29.87
206.287	3.24
206.505	54.44
206.724	-25.43
206.943	72.87
207.162	-9.05
207.381	9.39
207.599	-39.76
207.818	29.87
208.037	-76.63
208.255	15.53
208.474	5.29
208.693	13.48
208.911	-7
209.13	-19.29
209.349	11.43
209.567	40.11
209.786	21.67
210.005	36.01
210.223	-13.14
210.442	-9.05
210.661	5.29
210.879	7.34
211.098	-13.14
211.316	70.83
211.535	15.53
211.753	85.16
211.972	15.53
212.191	25.77
212.409	3.24
212.628	-4.95
212.846	-21.33
213.065	128.17
213.283	-13.14
213.502	7.34
213.72	-62.29
213.938	9.39
214.157	-103.25
214.375	31.91
214.594	-27.48
214.812	85.16
215.031	40.11
215.249	-11.09
215.467	46.25
215.686	-52.05
215.904	58.54
216.122	21.67
216.341	56.49
216.559	-31.57
216.778	23.72
216.996	46.25
217.214	-31.57
217.432	-15.19
217.651	-33.62
217.869	5.29
218.087	5.29
218.306	3.24
218.524	-45.91
218.742	-31.57
218.96	-37.72
219.179	5.29
219.397	23.72
219.615	122.02
219.833	15.53
220.051	25.77
220.27	-23.38
220.488	1.19
220.706	58.54
220.924	36.01
221.142	40.11
221.36	38.06
221.578	-31.57
221.796	15.53
222.015	52.39
222.233	64.68
222.451	74.92
222.669	-35.67
222.887	81.07
223.105	-37.72
223.323	-2.9
223.541	-0.85
223.759	66.73
223.977	64.68
224.195	142.5
224.413	70.83
224.631	7.34
224.849	-7
225.067	27.82
225.285	-27.48
225.503	25.77
225.721	1.19
225.939	25.77
226.157	-15.19
226.375	17.58
226.592	-86.87
226.81	21.67
227.028	72.87
227.246	115.88
227.464	15.53
227.682	76.97
227.9	-9.05
228.117	-13.14
228.335	72.87
228.553	-19.29
228.771	56.49
228.989	23.72
229.206	109.74
229.424	-13.14
229.642	-13.14
229.86	-41.81
230.077	99.5
230.295	-2.9
230.513	62.63
230.731	25.77
230.948	44.2
231.166	66.73
231.384	58.54
231.601	-72.53
231.819	27.82
232.037	-19.29
232.254	-13.14
232.472	-15.19
232.689	19.63
232.907	1.19
233.125	1.19
233.342	81.07
233.56	-41.81
233.777	-25.43
233.995	-58.2
234.213	50.35
234.43	25.77
234.648	17.58
234.865	7.34
235.083	72.87
235.3	70.83
235.518	-27.48
235.735	29.87
235.953	38.06
236.17	-21.33
236.388	-0.85
236.605	93.35
236.822	72.87
237.04	23.72
237.257	17.58
237.475	3.24
237.692	11.43
237.909	15.53
238.127	56.49
238.344	103.59
238.562	1.19
238.779	-37.72
238.996	-31.57
239.214	25.77
239.431	1.19
239.648	-13.14
239.865	58.54
240.083	31.91
240.3	-29.52
240.517	-11.09
240.735	-25.43
240.952	91.31
241.169	29.87
241.386	5.29
241.603	11.43
241.821	3.24
242.038	-33.62
242.255	29.87
242.472	23.72
242.689	-0.85
242.907	72.87
243.124	3.24
243.341	-23.38
243.558	-62.29
243.775	-29.52
243.992	-33.62
244.209	70.83
244.426	48.3
244.643	-2.9
244.86	-68.44
245.078	25.77
245.295	40.11
245.512	66.73
245.729	3.24
245.946	36.01
246.163	52.39
246.38	-50
246.597	-39.76
246.814	-17.24
247.031	-13.14
247.248	-27.48
247.464	-29.52
247.681	-4.95
247.898	-33.62
248.115	-54.1
248.332	-7
248.549	11.43
248.766	76.97
248.983	70.83
249.2	13.48
249.417	-9.05
249.633	19.63
249.85	-9.05
250.067	9.39
250.284	3.24
250.501	31.91
250.717	-7
250.934	-58.2
251.151	76.97
251.368	64.68
251.585	33.96
251.801	-27.48
252.018	-2.9
252.235	48.3
252.451	-0.85
252.668	3.24
252.885	70.83
253.102	52.39
253.318	64.68
253.535	-13.14
253.752	-9.05
253.968	-37.72
254.185	-105.3
254.401	-27.48
254.618	-23.38
254.835	-43.86
255.051	-21.33
255.268	56.49
255.484	42.15
255.701	13.48
255.917	31.91
256.134	-11.09
256.351	-39.76
256.567	-19.29
256.784	33.96
257	-29.52
257.217	91.31
257.433	27.82
257.65	33.96
257.866	54.44
258.082	29.87
258.299	-2.9
258.515	148.65
258.732	-11.09
258.948	-13.14
259.165	17.58
259.381	-7
259.597	11.43
259.814	36.01
260.03	17.58
260.246	40.11
260.463	3.24
260.679	74.92
260.895	25.77
261.112	13.48
261.328	33.96
261.544	13.48
261.761	85.16
261.977	17.58
262.193	-95.06
262.409	52.39
262.626	21.67
262.842	29.87
263.058	58.54
263.274	46.25
263.49	40.11
263.707	9.39
263.923	-2.9
264.139	-7
264.355	15.53
264.571	11.43
264.787	-0.85
265.004	93.35
265.22	5.29
265.436	52.39
265.652	-19.29
265.868	21.67
266.084	1.19
266.3	68.78
266.516	-29.52
266.732	83.11
266.948	62.63
267.164	-13.14
267.38	-9.05
267.596	33.96
267.812	87.21
268.028	46.25
268.244	-76.63
268.46	-29.52
268.676	-58.2
268.892	1.19
269.108	-43.86
269.324	13.48
269.54	-68.44
269.756	52.39
269.972	11.43
270.188	-7
270.403	-13.14
270.619	42.15
270.835	11.43
271.051	23.72
271.267	-52.05
271.483	-33.62
271.698	113.83
271.914	-25.43
272.13	17.58
272.346	-17.24
272.562	-35.67
272.777	109.74
272.993	7.34
273.209	15.53
273.425	25.77
273.64	1.19
273.856	1.19
274.072	-43.86
274.287	23.72
274.503	31.91
274.719	-19.29
274.934	23.72
275.15	-45.91
275.366	1.19
275.581	-7
275.797	76.97
276.012	-35.67
276.228	23.72
276.444	-4.95
276.659	58.54
276.875	-103.25
277.09	21.67
277.306	-82.77
277.521	23.72
277.737	-35.67
277.952	7.34
278.168	-0.85
278.383	-41.81
278.599	5.29
278.814	-29.52
279.03	-60.24
279.245	9.39
279.461	66.73
279.676	48.3
279.892	-31.57
280.107	-37.72
280.322	42.15
280.538	13.48
280.753	-25.43
280.969	-29.52
281.184	79.02
281.399	83.11
281.615	1.19
281.83	-25.43
282.045	-31.57
282.26	-56.15
282.476	-19.29
282.691	15.53
282.906	-17.24
283.122	-41.81
283.337	-25.43
283.552	9.39
283.767	-37.72
283.983	-7
284.198	11.43
284.413	-17.24
284.628	13.48
284.843	40.11
285.058	95.4
285.274	-54.1
285.489	7.34
285.704	-2.9
285.919	9.39
286.134	-9.05
286.349	-52.05
286.564	-13.14
286.779	72.87
286.995	-31.57
287.21	29.87
287.425	5.29
287.64	-9.05
287.855	-74.58
288.07	-72.53
288.285	48.3
288.5	15.53
288.715	-37.72
288.93	29.87
289.145	-52.05
289.36	19.63
289.575	19.63
289.79	29.87
290.004	-47.96
290.219	74.92
290.434	1.19
290.649	-129.88
290.864	52.39
291.079	27.82
291.294	27.82
291.509	46.25
291.724	27.82
291.938	-62.29
292.153	-33.62
292.368	15.53
292.583	-31.57
292.798	40.11
293.012	48.3
293.227	19.63
293.442	9.39
293.657	-2.9
293.871	142.5
294.086	-23.38
294.301	11.43
294.516	95.4
294.73	-43.86
294.945	5.29
295.16	46.25
295.374	-7
295.589	52.39
295.804	-60.24
296.018	50.35
296.233	17.58
296.447	-78.68
296.662	5.29
296.877	5.29
297.091	113.83
297.306	7.34
297.52	-62.29
297.735	-33.62
297.949	9.39
298.164	44.2
298.378	27.82
298.593	-19.29
298.807	-9.05
299.022	1.19
299.236	-50
299.451	-35.67
299.665	-0.85
299.88	23.72
300.094	-47.96
300.309	17.58
300.523	19.63
300.737	-7
300.952	-47.96
301.166	-31.57
301.381	36.01
301.595	33.96
301.809	-41.81
302.024	-13.14
302.238	9.39
302.452	138.41
302.667	87.21
302.881	42.15
303.095	33.96
303.309	-17.24
303.524	-62.29
303.738	-99.16
303.952	-23.38
304.166	46.25
304.381	-74.58
304.595	54.44
304.809	9.39
305.023	-17.24
305.237	25.77
305.452	50.35
305.666	-21.33
305.88	-35.67
306.094	-7
306.308	66.73
306.522	15.53
306.736	-7
306.95	11.43
307.164	-37.72
307.379	-47.96
307.593	79.02
307.807	31.91
308.021	1.19
308.235	33.96
308.449	-2.9
308.663	1.19
308.877	48.3
309.091	11.43
309.305	3.24
309.519	-119.64
309.733	50.35
309.947	-27.48
310.161	60.59
310.374	70.83
310.588	50.35
310.802	-43.86
311.016	1.19
311.23	-41.81
311.444	58.54
311.658	-47.96
311.872	31.91
312.085	5.29
312.299	70.83
312.513	-13.14
312.727	29.87
312.941	-39.76
313.154	29.87
313.368	-0.85
313.582	-45.91
313.796	-21.33
314.009	-9.05
314.223	11.43
314.437	1.19
314.651	-11.09
314.864	-13.14
315.078	-11.09
315.292	-39.76
315.505	-19.29
315.719	-52.05
315.933	31.91
316.146	15.53
316.36	-0.85
316.573	-50
316.787	62.63
317.001	-7
317.214	3.24
317.428	-4.95
317.641	-9.05
317.855	46.25
318.068	38.06
318.282	27.82
318.495	81.07
318.709	40.11
318.922	15.53
319.136	93.35
319.349	87.21
319.563	-4.95
319.776	-33.62
319.99	-90.96
320.203	-23.38
320.417	1.19
320.63	19.63
320.843	11.43
321.057	5.29
321.27	46.25
321.483	93.35
321.697	58.54
321.91	29.87
322.124	50.35
322.337	23.72
322.55	-31.57
322.763	42.15
322.977	-62.29
323.19	13.48
323.403	-21.33
323.617	48.3
323.83	-0.85
324.043	9.39
324.256	33.96
324.469	-27.48
324.683	79.02
324.896	-39.76
325.109	-45.91
325.322	-13.14
325.535	64.68
325.748	81.07
325.962	-35.67
326.175	-4.95
326.388	83.11
326.601	19.63
326.814	42.15
327.027	23.72
327.24	134.31
327.453	36.01
327.666	3.24
327.879	15.53
328.092	72.87
328.305	64.68
328.518	9.39
328.731	25.77
328.944	36.01
329.157	9.39
329.37	-56.15
329.583	56.49
329.796	58.54
330.009	-19.29
330.222	36.01
330.435	70.83
330.648	-7
330.861	-4.95
331.073	-39.76
331.286	48.3
331.499	54.44
331.712	-27.48
331.925	56.49
332.138	11.43
332.35	1.19
332.563	-23.38
332.776	85.16
332.989	-62.29
333.202	-21.33
333.414	-21.33
333.627	27.82
333.84	-11.09
334.053	-47.96
334.265	-50
334.478	-13.14
334.691	9.39
334.903	48.3
335.116	-76.63
335.329	-35.67
335.541	23.72
335.754	66.73
335.966	-23.38
336.179	17.58
336.392	-58.2
336.604	-21.33
336.817	-17.24
337.029	42.15
337.242	23.72
337.454	15.53
337.667	7.34
337.88	119.98
338.092	-23.38
338.305	54.44
338.517	-78.68
338.729	91.31
338.942	-33.62
339.154	-54.1
339.367	25.77
339.579	-27.48
339.792	-25.43
340.004	46.25
340.217	33.96
340.429	-13.14
340.641	-19.29
340.854	7.34
341.066	-21.33
341.278	-27.48
341.491	31.91
341.703	5.29
341.915	7.34
342.128	-4.95
342.34	-0.85
342.552	-39.76
342.764	-9.05
342.977	-17.24
343.189	-11.09
343.401	13.48
343.613	-15.19
343.826	23.72
344.038	-17.24
344.25	19.63
344.462	-17.24
344.674	-0.85
344.886	29.87
345.099	-25.43
345.311	-29.52
345.523	-31.57
345.735	-23.38
345.947	50.35
346.159	21.67
346.371	70.83
346.583	11.43
346.795	44.2
347.007	-11.09
347.219	13.48
347.431	9.39
347.643	54.44
347.855	-43.86
348.067	54.44
348.279	23.72
348.491	40.11
348.703	52.39
348.915	25.77
349.127	-70.48
349.339	60.59
349.551	25.77
349.763	-9.05
349.975	-72.53
350.187	74.92
350.399	29.87
350.61	25.77
350.822	17.58
351.034	-4.95
351.246	19.63
351.458	31.91
351.669	-43.86
351.881	33.96
352.093	40.11
352.305	38.06
352.517	21.67
352.728	89.26
352.94	56.49
353.152	21.67
353.363	-27.48
353.575	1.19
353.787	-15.19
353.999	93.35
354.21	50.35
354.422	-23.38
354.633	-0.85
354.845	19.63
355.057	33.96
355.268	-27.48
355.48	27.82
355.692	7.34
355.903	-21.33
356.115	11.43
356.326	-47.96
356.538	83.11
356.749	46.25
356.961	-21.33
357.172	-0.85
357.384	-33.62
357.595	58.54
357.807	15.53
358.018	-84.82
358.23	7.34
358.441	76.97
358.653	25.77
358.864	25.77
359.075	56.49
359.287	11.43
359.498	54.44
359.709	85.16
359.921	31.91
360.132	17.58
360.344	-11.09
360.555	-25.43
360.766	1.19
360.977	-60.24
361.189	42.15
361.4	21.67
361.611	72.87
361.823	17.58
362.034	33.96
362.245	-62.29
362.456	44.2
362.667	48.3
362.879	11.43
363.09	-0.85
363.301	15.53
363.512	-15.19
363.723	-45.91
363.935	21.67
364.146	-29.52
364.357	-21.33
364.568	21.67
364.779	-21.33
364.99	74.92
365.201	-60.24
365.412	91.31
365.623	-31.57
365.834	25.77
366.045	-43.86
366.256	60.59
366.467	21.67
366.678	-0.85
366.889	70.83
367.1	11.43
367.311	27.82
367.522	38.06
367.733	-15.19
367.944	44.2
368.155	101.55
368.366	-15.19
368.577	29.87
368.788	42.15
368.999	-47.96
369.209	48.3
369.42	99.5
369.631	130.22
369.842	-0.85
370.053	38.06
370.264	23.72
370.474	-43.86
370.685	-23.38
370.896	36.01
371.107	42.15
371.317	-29.52
371.528	52.39
371.739	85.16
371.95	33.96
372.16	68.78
372.371	-13.14
372.582	-13.14
372.792	66.73
373.003	101.55
373.214	5.29
373.424	58.54
373.635	-101.2
373.846	58.54
374.056	33.96
374.267	52.39
374.477	-0.85
374.688	1.19
374.898	5.29
375.109	68.78
375.319	-9.05
375.53	17.58
375.74	85.16
375.951	-13.14
376.161	-4.95
376.372	68.78
376.582	42.15
376.793	38.06
377.003	-4.95
377.214	33.96
377.424	-45.91
377.635	11.43
377.845	5.29
378.055	81.07
378.266	-9.05
378.476	-23.38
378.686	54.44
378.897	15.53
379.107	23.72
379.317	42.15
379.528	70.83
379.738	91.31
379.948	-35.67
380.158	40.11
380.369	56.49
380.579	25.77
380.789	-27.48
380.999	-4.95
381.21	128.17
381.42	33.96
381.63	11.43
381.84	52.39
382.05	70.83
382.261	62.63
382.471	-2.9
382.681	-35.67
382.891	126.12
383.101	64.68
383.311	-13.14
383.521	54.44
383.731	66.73
383.941	60.59
384.151	50.35
384.361	-25.43
384.571	-21.33
384.781	52.39
384.991	76.97
385.201	33.96
385.411	23.72
385.621	-84.82
385.831	33.96
386.041	-2.9
386.251	-35.67
386.461	42.15
386.671	-39.76
386.881	3.24
387.091	-2.9
387.301	44.2
387.511	15.53
387.72	36.01
387.93	79.02
388.14	-37.72
388.35	-2.9
388.56	44.2
388.769	9.39
388.979	36.01
389.189	58.54
389.399	-7
389.609	122.02
389.818	13.48
390.028	36.01
390.238	74.92
390.447	-31.57
390.657	58.54
390.867	74.92
391.076	-7
391.286	-0.85
391.496	25.77
391.705	44.2
391.915	1.19
392.125	31.91
392.334	-7
392.544	48.3
392.753	-86.87
392.963	15.53
393.172	111.78
393.382	36.01
393.591	60.59
393.801	5.29
394.01	89.26
394.22	68.78
394.429	76.97
394.639	-15.19
394.848	58.54
395.058	46.25
395.267	85.16
395.477	9.39
395.686	31.91
395.895	105.64
396.105	19.63
396.314	46.25
396.524	-4.95
396.733	-37.72
396.942	81.07
397.152	23.72
397.361	60.59
397.57	48.3
397.78	54.44
397.989	76.97
398.198	187.56
398.407	50.35
398.617	66.73
398.826	19.63
399.035	99.5
399.244	150.7
399.453	72.87
399.663	-4.95
399.872	76.97
400.081	48.3
400.29	1.19
400.499	-2.9
400.708	70.83
400.917	52.39
401.127	25.77
401.336	25.77
401.545	162.98
401.754	15.53
401.963	-15.19
402.172	46.25
402.381	91.31
402.59	95.4
402.799	-13.14
403.008	136.36
403.217	103.59
403.426	46.25
403.635	74.92
403.844	1.19
404.053	93.35
404.262	29.87
404.471	105.64
404.68	87.21
404.888	85.16
405.097	91.31
405.306	36.01
405.515	134.31
405.724	42.15
405.933	66.73
406.142	146.6
406.35	40.11
406.559	21.67
406.768	70.83
406.977	95.4
407.185	128.17
407.394	154.79
407.603	40.11
407.812	93.35
408.02	115.88
408.229	111.78
408.438	152.74
408.646	101.55
408.855	119.98
409.064	197.8
409.272	124.07
409.481	175.27
409.69	156.84
409.898	101.55
410.107	128.17
410.315	220.33
410.524	119.98
410.733	220.33
410.941	160.94
411.15	214.18
411.358	126.12
411.567	173.22
411.775	185.51
411.984	218.28
412.192	185.51
412.401	230.57
412.609	308.39
412.818	244.9
413.026	296.1
413.234	253.09
413.443	205.99
413.651	210.09
413.86	287.91
414.068	337.06
414.276	355.49
414.485	279.72
414.693	437.41
414.901	443.56
415.11	443.56
415.318	457.89
415.526	416.93
415.734	431.27
415.943	482.47
416.151	418.98
416.359	451.75
416.567	525.47
416.776	515.23
416.984	599.2
417.192	601.25
417.4	515.23
417.608	498.85
417.817	527.52
418.025	591.01
418.233	652.45
418.441	586.91
418.649	619.68
418.857	826.53
419.065	660.64
419.273	697.5
419.481	787.61
419.689	746.66
419.897	771.23
420.105	808.09
420.313	947.36
420.521	916.64
420.729	953.5
420.937	879.77
421.145	978.08
421.353	1043.61
421.561	1168.54
421.769	1129.63
421.977	1125.53
422.185	1178.78
422.393	1139.87
422.601	1219.74
422.809	1303.7
423.017	1303.7
423.224	1348.76
423.432	1363.09
423.64	1461.4
423.848	1498.26
424.056	1410.2
424.263	1686.67
424.471	1692.82
424.679	1709.2
424.887	1647.76
425.094	1868.94
425.302	1780.88
425.51	1848.46
425.718	1926.29
425.925	1901.71
426.133	2057.36
426.341	2231.43
426.548	2237.58
426.756	2329.74
426.964	2278.54
427.171	2339.97
427.379	2540.68
427.586	2509.96
427.794	2647.17
428.001	2694.27
428.209	2675.84
428.417	2743.42
428.624	2886.78
428.832	2991.23
429.039	2944.13
429.247	2843.78
429.454	3157.11
429.662	3435.64
429.869	3169.4
430.076	3396.73
430.284	3347.58
430.491	3472.5
430.699	3724.4
430.906	3609.72
431.114	3830.9
431.321	3959.92
431.528	3941.49
431.736	4201.58
431.943	4320.36
432.15	4275.31
432.358	4310.12
432.565	4525.16
432.772	4547.69
432.979	4768.87
433.187	5051.49
433.394	4899.94
433.601	5164.12
433.808	5237.85
434.016	5295.19
434.223	5446.74
434.43	5704.79
434.637	5510.23
434.844	5973.07
435.052	6149.2
435.259	6255.69
435.466	6069.33
435.673	6069.33
435.88	6517.83
436.087	6931.52
436.294	7017.54
436.501	6786.12
436.708	6870.08
436.915	7341.11
437.122	7423.03
437.329	7355.45
437.537	7504.95
437.743	7574.58
437.95	7554.1
438.157	7990.32
438.364	8250.41
438.571	8238.12
438.778	8467.5
438.985	9149.47
439.192	8756.26
439.399	8954.91
439.606	8813.6
439.813	9321.5
440.02	9960.47
440.227	9690.13
440.433	9710.61
440.64	9845.78
440.847	10130.45
441.054	10234.89
441.261	10685.45
441.467	10882.05
441.674	10892.29
441.881	11455.48
442.088	11308.03
442.294	11117.57
442.501	11533.31
442.708	11791.35
442.914	12258.29
443.121	12526.57
443.328	12536.81
443.534	13183.97
443.741	13110.24
443.948	12743.66
444.154	13755.35
444.361	13540.32
444.568	13736.92
444.774	13714.39
444.981	14097.36
445.187	14056.4
445.394	14771.15
445.6	14414.8
445.807	16124.85
446.013	15379.39
446.22	15627.2
446.426	16073.65
446.633	16331.7
446.839	17099.69
447.046	16384.94
447.252	17277.86
447.459	17197.99
447.665	17181.6
447.871	18025.37
448.078	18815.88
448.284	17951.64
448.491	18355.09
448.697	19243.91
448.903	19352.45
449.11	19372.93
449.316	19118.98
449.522	19356.55
449.728	20169.59
449.935	20288.37
450.141	20306.8
450.347	20847.47
450.553	20044.66
450.76	20253.56
450.966	20736.88
451.172	20728.69
451.378	21222.25
451.584	21072.75
451.791	21496.67
451.997	21248.87
452.203	21777.25
452.409	21670.75
452.615	21594.98
452.821	20634.48
453.027	20489.07
453.233	21562.21
453.44	20714.35
453.646	20876.14
453.852	21144.42
454.058	21439.33
454.264	20706.16
454.47	21275.49
454.676	20935.53
454.882	21472.1
455.088	19465.09
455.294	20097.91
455.5	20173.69
455.705	20253.56
455.911	19164.04
456.117	19260.29
456.323	19018.63
456.529	17568.67
456.735	18426.77
456.941	18344.85
457.147	17931.16
457.352	17220.52
457.558	17175.46
457.764	17150.88
457.97	16499.63
458.176	16509.87
458.381	16354.23
458.587	15614.91
458.793	15408.06
458.999	14816.2
459.204	15797.18
459.41	15459.26
459.616	14339.02
459.821	14590.92
460.027	14269.39
460.233	14072.79
460.438	13464.54
460.644	13417.44
460.85	13016.04
461.055	12856.29
461.261	12921.83
461.466	11656.18
461.672	11389.95
461.878	12041.2
462.083	11621.37
462.289	11164.67
462.494	10976.26
462.7	10464.27
462.905	10460.17
463.111	10802.18
463.316	10765.32
463.522	10521.61
463.727	10636.3
463.932	10474.51
464.138	10353.68
464.343	10456.08
464.549	10144.78
464.754	10458.12
464.959	10169.36
465.165	10402.83
465.37	9694.23
465.575	9704.47
465.781	10238.99
465.986	9899.03
466.191	9589.78
466.397	9473.05
466.602	9192.48
466.807	9217.05
467.012	9337.88
467.218	9243.68
467.423	9053.22
467.628	9145.38
467.833	9630.74
468.038	9305.12
468.244	9128.99
468.449	9458.71
468.654	8954.91
468.859	9128.99
469.064	8762.4
469.269	8551.46
469.474	8655.91
469.679	8952.87
469.885	8627.24
470.09	8719.4
470.295	8367.15
470.5	8250.41
470.705	8375.34
470.91	8274.99
471.115	8363.05
471.32	8240.17
471.525	8279.08
471.73	8143.92
471.935	8129.58
472.139	7789.62
472.344	7851.06
472.549	7765.04
472.754	7644.21
472.959	7535.67
473.164	7472.18
473.369	7304.25
473.574	7564.34
473.778	7267.39
473.983	7367.74
474.188	7384.12
474.393	6937.66
474.598	7111.74
474.802	6876.23
475.007	7027.78
475.212	6849.6
475.417	6693.96
475.621	6653
475.826	6884.42
476.031	6704.2
476.235	6491.21
476.44	6566.98
476.645	6499.4
476.849	6487.11
477.054	6321.23
477.259	6372.43
477.463	6347.85
477.668	6249.55
477.872	6239.31
478.077	6104.14
478.282	6022.22
478.486	6018.13
478.691	6036.56
478.895	5911.63
479.1	5964.88
479.304	5905.49
479.509	5766.23
479.713	5860.43
479.918	5702.74
480.122	5694.55
480.326	5792.85
480.531	5581.91
480.735	5655.64
480.94	5493.85
481.144	5583.96
481.348	5432.41
481.553	5499.99
481.757	5413.98
481.961	5463.13
482.166	5483.61
482.37	5399.64
482.574	5330.01
482.778	5586.01
482.983	5612.63
483.187	5540.95
483.391	5432.41
483.595	5420.12
483.8	5305.43
484.004	5434.46
484.208	5452.89
484.412	5606.49
484.616	5450.84
484.821	5413.98
485.025	5366.87
485.229	5358.68
485.433	5411.93
485.637	5389.4
485.841	5424.22
486.045	5450.84
486.249	5418.07
486.453	5383.26
486.657	5301.34
486.861	5334.11
487.065	5366.87
487.269	5321.82
487.473	5315.67
487.677	5504.09
487.881	5534.81
488.085	5430.36
488.289	5385.3
488.493	5631.06
488.697	5481.56
488.901	5383.26
489.105	5491.8
489.309	5364.82
489.512	5563.48
489.716	5510.23
489.92	5422.17
490.124	5295.19
490.328	5661.78
490.531	5522.52
490.735	5602.39
490.939	5809.23
491.143	5432.41
491.346	5659.73
491.55	5661.78
491.754	5581.91
491.958	5631.06
492.161	5715.03
492.365	5872.72
492.569	5598.29
492.772	5696.6
492.976	5786.71
493.18	5768.27
493.383	5907.54
493.587	6022.22
493.79	6104.14
493.994	5803.09
494.197	5952.59
494.401	6134.86
494.605	6040.65
494.808	6212.68
495.012	6177.87
495.215	6100.05
495.419	6224.97
495.622	6210.64
495.825	6478.92
496.029	6360.14
496.232	6532.17
496.436	6394.95
496.639	6667.33
496.843	6483.02
497.046	6765.64
497.249	6743.11
497.453	6886.47
497.656	6974.53
497.859	6777.92
498.063	7017.54
498.266	7195.71
498.469	7064.64
498.673	7089.21
498.876	7404.6
499.079	7547.96
499.282	7361.59
499.485	7726.13
499.689	7449.66
499.892	7806
500.095	7752.76
500.298	7975.98
500.501	7857.2
500.705	8203.31
500.908	8117.29
501.111	8111.15
501.314	8365.1
501.517	8479.79
501.72	8412.2
501.923	8662.05
502.126	8776.74
502.329	8893.47
502.532	8913.95
502.735	9165.85
502.938	9307.16
503.141	9280.54
503.344	9210.91
503.547	9438.23
503.75	9391.13
503.953	9489.43
504.156	9862.16
504.359	9722.9
504.562	9792.53
504.765	10001.43
504.968	10202.13
505.17	10181.65
505.373	10408.97
505.576	10497.03
505.779	10652.68
505.982	10644.49
506.185	10841.09
506.387	11115.52
506.59	10945.54
506.793	11166.72
506.996	11346.94
507.198	11750.39
507.401	11521.02
507.604	11695.1
507.807	11906.04
508.009	11973.62
508.212	12121.07
508.415	12397.55
508.617	12514.28
508.82	12452.84
509.022	12606.44
509.225	13061.09
509.428	12821.48
509.63	13145.06
509.833	13122.53
510.035	13525.98
510.238	13497.31
510.44	13556.7
510.643	13747.16
510.845	13931.48
511.048	13954.01
511.25	14345.17
511.453	14263.25
511.655	14740.43
511.858	14789.58
512.06	14984.13
512.262	15039.43
512.465	15129.54
512.667	15223.75
512.87	15590.33
513.072	15426.5
513.274	15852.47
513.477	16167.86
513.679	16331.7
513.881	16411.57
514.084	16921.51
514.286	16665.52
514.488	16665.52
514.69	17292.19
514.893	17243.04
515.095	17390.5
515.297	17791.9
515.499	17750.94
515.701	18043.8
515.904	18131.86
516.106	18174.87
516.308	18520.98
516.51	18922.38
516.712	18895.75
516.914	19073.93
517.116	19544.96
517.318	19512.19
517.52	19399.55
517.722	19852.16
517.925	19936.12
518.127	20310.9
518.329	20501.36
518.531	20212.6
518.733	20626.29
518.935	21019.5
519.136	21080.94
519.338	21334.89
519.54	21625.7
519.742	21691.23
519.944	21992.28
520.146	22309.72
520.348	22352.73
520.55	22668.11
520.752	22969.16
520.954	23073.61
521.155	23053.13
521.357	23675.71
521.559	23857.98
521.761	23927.61
521.963	24060.73
522.164	24202.04
522.366	24570.68
522.568	24607.54
522.77	24945.45
522.971	25180.97
523.173	25226.03
523.375	25322.28
523.576	25281.32
523.778	25367.34
523.98	25858.85
524.181	25946.91
524.383	26266.39
524.584	26245.91
524.786	26481.43
524.988	26424.09
525.189	26786.58
525.391	27052.81
525.592	27190.03
525.794	27482.89
525.995	27816.71
526.197	27628.29
526.398	27947.78
526.6	27966.21
526.801	27982.59
527.003	28275.45
527.204	28338.94
527.406	28328.7
527.607	28461.82
527.808	28914.42
528.01	28273.4
528.211	28697.33
528.412	29317.87
528.614	29283.05
528.815	29305.58
529.016	29584.1
529.218	29473.51
529.419	29209.32
529.62	29430.51
529.822	29698.79
530.023	29444.84
530.224	29815.52
530.425	29872.87
530.626	29729.51
530.828	29733.6
531.029	30720.73
531.23	29678.31
531.431	30065.38
531.632	30511.83
531.833	30655.19
532.035	30335.71
532.236	30466.78
532.437	30753.49
532.638	30499.55
532.839	30573.27
533.04	30560.98
533.241	30292.7
533.442	31195.85
533.643	30948.05
533.844	30986.96
534.045	30919.38
534.246	30909.14
534.447	31339.21
534.648	30603.99
534.849	30915.28
535.05	30644.95
535.251	31148.75
535.451	30544.6
535.652	31064.78
535.853	30962.39
536.054	31150.8
536.255	31101.65
536.456	30685.91
536.657	31357.64
536.857	31087.31
537.058	31113.94
537.259	31357.64
537.46	31441.61
537.66	30941.91
537.861	31443.66
538.062	31046.35
538.263	31294.16
538.463	31093.46
538.664	31027.92
538.865	31292.11
539.065	31355.6
539.266	31048.4
539.466	31099.6
539.667	31077.07
539.868	31406.8
540.068	31273.68
540.269	31521.48
540.469	31548.11
540.67	31032.02
540.87	31273.68
541.071	30933.71
541.271	31552.2
541.472	31257.29
541.672	31138.51
541.873	30958.29
542.073	30974.67
542.274	31539.91
542.474	31240.91
542.675	31001.3
542.875	31566.54
543.075	30931.67
543.276	30806.74
543.476	31218.38
543.676	31175.37
543.877	31107.79
544.077	31251.15
544.277	31115.98
544.478	31169.23
544.678	30880.47
544.878	31175.37
545.078	31503.05
545.279	31089.36
545.479	30900.95
545.679	31222.48
545.879	30982.87
546.079	30954.19
546.28	30706.39
546.48	30935.76
546.68	31132.37
546.88	31187.66
547.08	31216.33
547.28	30948.05
547.48	30855.89
547.68	31189.71
547.88	30728.92
548.081	31075.02
548.281	31138.51
548.481	30653.14
548.681	31007.44
548.881	30964.43
549.081	30671.57
549.28	31015.63
549.48	31118.03
549.68	31083.22
549.88	31245.01
550.08	30798.55
550.28	31095.5
550.48	31156.94
550.68	31466.19
550.88	30403.29
551.08	30804.69
551.279	30589.66
551.479	30616.28
551.679	30515.93
551.879	31148.75
552.079	31101.65
552.278	30735.06
552.478	30745.3
552.678	30962.39
552.878	31083.22
553.077	30864.08
553.277	30458.59
553.477	30980.82
553.676	30753.49
553.876	30841.56
554.076	30509.79
554.275	30610.14
554.475	30319.32
554.674	31242.96
554.874	30839.51
555.074	30270.17
555.273	30560.98
555.473	30679.77
555.672	30599.9
555.872	30614.23
556.071	30515.93
556.271	30393.05
556.47	30362.33
556.67	29987.55
556.869	29967.07
557.068	30544.6
557.268	30309.08
557.467	30270.17
557.667	30026.46
557.866	30100.19
558.065	29991.65
558.265	29741.8
558.464	29651.69
558.663	30106.34
558.863	29762.28
559.062	30253.79
559.261	29786.85
559.461	29762.28
559.66	29391.59
559.859	29561.58
560.058	29174.51
560.258	29475.56
560.457	29354.73
560.656	29289.2
560.855	29256.43
561.054	29434.6
561.253	29149.93
561.453	29274.86
561.652	28934.9
561.851	29090.54
562.05	28695.28
562.249	28592.89
562.448	28826.35
562.647	28805.88
562.846	28625.65
563.045	28840.69
563.244	28216.06
563.443	28564.21
563.642	28273.4
563.841	28394.23
564.04	28457.72
564.239	28275.45
564.438	27822.85
564.637	28300.03
564.836	28187.39
565.035	27577.09
565.234	27826.95
565.432	27738.88
565.631	27564.81
565.83	27833.09
566.029	27405.06
566.228	27421.45
566.427	27575.05
566.625	27267.85
566.824	27075.34
567.023	27198.22
567.222	26675.99
567.42	27165.45
567.619	26823.44
567.818	26852.11
568.016	26751.76
568.215	26772.24
568.414	26342.17
568.612	26888.98
568.811	26540.82
569.01	26207
569.208	25901.86
569.407	26180.38
569.605	26077.98
569.804	25998.11
570.002	25811.74
570.201	25772.83
570.4	25584.42
570.598	25625.38
570.797	25477.93
570.995	25520.93
571.193	25074.48
571.392	25469.73
571.59	25295.66
571.789	25322.28
571.987	24924.97
572.186	25207.59
572.384	24750.9
572.582	24705.84
572.781	24615.73
572.979	24607.54
573.177	24568.63
573.376	24775.47
573.574	24445.75
573.772	24632.11
573.971	24243
574.169	24066.88
574.367	23788.35
574.565	24159.03
574.763	23868.22
574.962	23673.67
575.16	23612.23
575.358	23995.2
575.556	23343.94
575.754	23659.33
575.952	23262.02
576.151	23229.26
576.349	22985.55
576.547	23204.68
576.745	23198.54
576.943	23010.12
577.141	22879.05
577.339	23196.49
577.537	22584.15
577.735	22700.88
577.933	22553.43
578.131	22727.5
578.329	22457.17
578.527	22510.42
578.725	22422.36
578.923	22397.78
579.121	22350.68
579.319	22199.13
579.516	22342.49
579.714	22319.96
579.912	22051.67
580.11	21949.28
580.308	21982.04
580.506	21564.26
580.704	21664.61
580.901	21949.28
581.099	21885.79
581.297	21437.28
581.495	21414.76
581.692	21449.57
581.89	21279.59
582.088	21615.46
582.285	20984.68
582.483	21265.25
582.681	21134.18
582.878	21046.12
583.076	20835.18
583.274	20996.97
583.471	20519.79
583.669	20585.33
583.866	20730.73
584.064	20532.08
584.262	20194.17
584.459	20556.66
584.657	20274.04
584.854	20423.54
585.052	20128.63
585.249	20114.3
585.447	20323.19
585.644	20204.41
585.841	20159.35
586.039	20321.14
586.236	19780.48
586.434	19579.78
586.631	19579.78
586.828	19729.28
587.026	19479.43
587.223	19690.37
587.42	19401.6
587.618	19598.21
587.815	19116.93
588.012	19501.95
588.21	19225.48
588.407	19575.68
588.604	18817.93
588.801	19106.7
588.999	19182.47
589.196	19039.11
589.393	18998.15
589.59	18797.45
589.787	18713.49
589.984	18615.18
590.182	18709.39
590.379	18738.06
590.576	18426.77
590.773	18559.89
590.97	18625.42
591.167	18432.91
591.364	17914.78
591.561	18482.06
591.758	18160.53
591.955	18432.91
592.152	18217.88
592.349	18189.21
592.546	18080.66
592.743	18004.89
592.94	17783.71
593.137	17812.38
593.334	17798.04
593.531	17695.64
593.727	17617.82
593.924	17744.8
594.121	17478.56
594.318	17607.58
594.515	17370.02
594.712	17445.79
594.908	17238.95
595.105	17154.98
595.302	17236.9
595.499	17527.71
595.696	17210.28
595.892	16745.39
596.089	16997.29
596.286	17054.63
596.482	17077.16
596.679	17011.62
596.876	16915.37
597.072	16829.35
597.269	16718.76
597.466	16561.07
597.662	16673.71
597.859	16810.92
598.055	16769.96
598.252	16538.54
598.448	16446.38
598.645	16241.59
598.841	16317.36
599.038	16167.86
599.234	16190.39
599.431	16067.51
599.627	16034.74
599.824	16006.07
600.02	15780.79
600.217	16161.72
600.413	16049.08
600.609	15645.63
600.806	15586.24
601.002	15856.57
601.198	15664.06
601.395	15467.45
601.591	15569.85
601.787	15659.96
601.984	15549.37
602.18	15682.49
602.376	15313.86
602.572	15260.61
602.769	15236.03
602.965	15111.11
603.161	15111.11
603.357	14857.16
603.553	15154.12
603.75	15117.25
603.946	14957.51
604.142	14853.06
604.338	14640.08
604.534	14932.93
604.73	14685.13
604.926	14683.08
605.122	14838.73
605.318	14527.44
605.514	14291.92
605.71	14615.5
605.906	14382.03
606.102	14377.94
606.298	14470.09
606.494	14476.24
606.69	14302.16
606.886	14562.25
607.082	14205.91
607.278	14334.93
607.474	14025.68
607.67	14494.67
607.866	13681.63
608.062	14279.63
608.257	14068.69
608.453	14011.35
608.649	14052.31
608.845	14080.98
609.041	13911
609.236	13960.15
609.432	13906.9
609.628	13741.02
609.824	13468.64
610.019	13677.53
610.215	13794.26
610.411	13747.16
610.606	13550.56
610.802	13681.63
610.998	13403.1
611.193	13491.16
611.389	13413.34
611.584	13487.07
611.78	13431.77
611.976	13310.94
612.171	13464.54
612.367	13310.94
612.562	13284.32
612.758	13124.58
612.953	13120.48
613.149	13245.41
613.344	12987.36
613.539	13206.5
613.735	12915.69
613.93	13093.86
614.126	13126.63
614.321	13042.66
614.517	13042.66
614.712	13052.9
614.907	13020.13
615.103	12884.97
615.298	12540.91
615.493	12753.9
615.688	12657.64
615.884	12999.65
616.079	12540.91
616.274	12604.39
616.47	12706.79
616.665	12520.43
616.86	12794.86
617.055	12465.13
617.25	12620.78
617.445	12686.31
617.641	12297.2
617.836	12655.59
618.031	12346.35
618.226	12428.27
618.421	12366.83
618.616	12200.94
618.811	12057.59
619.006	12432.36
619.201	12033.01
619.396	11938.8
619.591	11889.65
619.786	11910.13
619.981	11826.17
620.176	12221.42
620.371	11740.15
620.566	11863.03
620.761	11607.03
620.956	11697.14
621.151	11584.51
621.346	11594.75
621.541	11523.07
621.735	11441.15
621.93	11389.95
622.125	11465.72
622.32	11287.55
622.515	11254.78
622.709	11086.85
622.904	11129.86
623.099	10972.16
623.294	11103.23
623.488	11148.29
623.683	10855.43
623.878	10683.4
624.072	11009.03
624.267	10984.45
624.462	10882.05
624.656	10581
624.851	10599.43
625.046	10615.82
625.24	10380.3
625.435	10544.14
625.629	10417.16
625.824	10138.64
626.018	10234.89
626.213	10206.22
626.407	10165.26
626.602	9925.65
626.796	9993.23
626.991	9929.75
627.185	9927.7
627.38	9686.04
627.574	9718.81
627.768	9593.88
627.963	9724.95
628.157	9372.7
628.352	9516.06
628.546	9327.64
628.74	9378.84
628.935	9333.79
629.129	9389.08
629.323	9217.05
629.517	9278.49
629.712	9182.24
629.906	9329.69
630.1	9249.82
630.294	9020.45
630.489	8860.71
630.683	9059.36
630.877	8776.74
631.071	8688.68
631.265	8760.36
631.459	8715.3
631.653	8641.57
631.848	8453.16
632.042	8483.88
632.236	8545.32
632.43	8389.67
632.624	8467.5
632.818	8526.89
633.012	8506.41
633.206	8320.04
633.4	8436.78
633.594	8377.39
633.788	8131.63
633.982	8262.7
634.176	8141.87
634.369	8170.54
634.563	8062
634.757	7871.54
634.951	8115.25
635.145	8047.66
635.339	7826.48
635.533	7998.51
635.726	7701.56
635.92	7736.37
636.114	7705.65
636.308	7777.33
636.501	7803.96
636.695	7631.93
636.889	7576.63
637.083	7507
637.276	7324.73
637.47	7459.9
637.664	7554.1
637.857	7382.07
638.051	7375.93
638.244	7107.65
638.438	7181.37
638.632	7287.87
638.825	7128.13
639.019	7119.93
639.212	6874.18
639.406	7101.5
639.599	6845.51
639.793	7107.65
639.986	6710.34
640.18	6898.75
640.373	6880.32
640.567	6782.02
640.76	6872.13
640.954	6636.61
641.147	6659.14
641.34	6513.74
641.534	6550.6
641.727	6556.74
641.92	6597.7
642.114	6653
642.307	6493.26
642.5	6427.72
642.694	6288.46
642.887	6503.5
643.08	6435.91
643.273	6198.35
643.467	6255.69
643.66	6048.85
643.853	6151.24
644.046	6048.85
644.239	5985.36
644.432	6149.2
644.626	5950.54
644.819	5999.7
645.012	6073.42
645.205	6102.09
645.398	5983.31
645.591	5921.87
645.784	5784.66
645.977	5786.71
646.17	5614.68
646.363	5588.05
646.556	5719.12
646.749	5588.05
646.942	5704.79
647.135	5659.73
647.328	5631.06
647.521	5504.09
647.714	5573.72
647.907	5354.58
648.099	5389.4
648.292	5448.79
648.485	5491.8
648.678	5401.69
648.871	5246.04
649.064	5278.81
649.256	5315.67
649.449	5297.24
649.642	5221.47
649.835	5348.44
650.027	5100.64
650.22	5293.15
650.413	5100.64
650.605	5065.82
650.798	5049.44
650.991	5041.25
651.183	4926.56
651.376	4791.39
651.568	4893.79
651.761	4934.75
651.954	4818.02
652.146	4783.2
652.339	4809.83
652.531	4779.11
652.724	4787.3
652.916	4674.66
653.109	4600.93
653.301	4670.56
653.494	4777.06
653.686	4666.47
653.879	4760.67
654.071	4686.95
654.263	4615.27
654.456	4539.49
654.648	4615.27
654.84	4508.77
655.033	4545.64
655.225	4484.2
655.417	4445.29
655.61	4433
655.802	4422.76
655.994	4527.21
656.186	4342.89
656.379	4342.89
656.571	4363.37
656.763	4375.66
656.955	4158.57
657.148	4138.09
657.34	4363.37
657.532	4324.46
657.724	4244.59
657.916	4074.6
658.108	4199.53
658.3	4187.24
658.492	4131.95
658.684	4004.97
658.876	4080.75
659.068	3982.45
659.26	4025.45
659.452	3912.81
659.644	3853.42
659.836	4007.02
660.028	4011.12
660.22	3918.96
660.412	3996.78
660.604	3916.91
660.796	3767.41
660.988	3763.31
661.18	3761.27
661.372	3794.03
661.563	3841.14
661.755	3687.54
661.947	3746.93
662.139	3677.3
662.331	3681.39
662.522	3630.2
662.714	3662.96
662.906	3730.55
663.097	3759.22
663.289	3570.8
663.481	3570.8
663.673	3593.33
663.864	3646.58
664.056	3589.24
664.247	3468.41
664.439	3486.84
664.631	3585.14
664.822	3542.13
665.014	3480.69
665.205	3458.17
665.397	3603.57
665.588	3462.26
665.78	3482.74
665.971	3617.91
666.163	3480.69
666.354	3343.48
666.546	3445.88
666.737	3349.62
666.929	3378.3
667.12	3361.91
667.311	3540.08
667.503	3421.3
667.694	3337.34
667.885	3400.82
668.077	3415.16
668.268	3249.27
668.459	3302.52
668.651	3290.23
668.842	3234.94
669.033	3136.63
669.224	3249.27
669.416	3286.14
669.607	3279.99
669.798	3204.22
669.989	3296.38
670.18	3161.21
670.371	3296.38
670.563	3181.69
670.754	3267.7
670.945	3236.99
671.136	3155.07
671.327	3177.59
671.518	3196.03
671.709	3222.65
671.9	3316.86
672.091	3060.86
672.282	3191.93
672.473	3179.64
672.664	3122.3
672.855	3159.16
673.046	3042.43
673.237	3218.55
673.428	3179.64
673.619	3232.89
673.809	3021.95
674	3089.53
674.191	3107.96
674.382	3200.12
674.573	3142.78
674.764	3189.88
674.954	3071.1
675.145	3177.59
675.336	3157.11
675.527	3067
675.717	3122.3
675.908	3130.49
676.099	3087.48
676.289	3134.59
676.48	2995.32
676.671	3126.39
676.861	3126.39
677.052	3124.35
677.243	3087.48
677.433	2962.56
677.624	3208.31
677.814	3075.2
678.005	3093.63
678.195	3206.27
678.386	3132.54
678.576	3134.59
678.767	3099.77
678.957	3079.29
679.148	3130.49
679.338	3187.83
679.529	3075.2
679.719	2999.42
679.909	3155.07
680.1	3118.2
680.29	3101.82
680.481	3120.25
680.671	3224.7
680.861	3087.48
681.052	3140.73
681.242	3189.88
681.432	3208.31
681.622	3245.18
681.813	2989.18
682.003	3069.05
682.193	3081.34
682.383	3169.4
682.573	3163.26
682.764	3112.06
682.954	3335.29
683.144	3232.89
683.334	3144.83
683.524	3171.45
683.714	2960.51
683.904	3189.88
684.094	3105.92
684.284	3163.26
684.474	3101.82
684.664	3048.57
684.854	3060.86
685.044	3089.53
685.234	3112.06
685.424	3028.09
685.614	3087.48
685.804	3087.48
685.994	3130.49
686.184	3120.25
686.374	3038.33
686.564	2995.32
686.753	3087.48
686.943	2995.32
687.133	3019.9
687.323	3052.67
687.513	3036.28
687.702	2983.04
687.892	2974.85
688.082	2970.75
688.272	2989.18
688.461	3021.95
688.651	2964.61
688.841	2811.01
689.03	2849.92
689.22	2944.13
689.41	2833.54
689.599	2868.35
689.789	2874.49
689.979	2884.73
690.168	2882.69
690.358	2804.86
690.547	2714.75
690.737	2794.62
690.926	2722.95
691.116	2827.39
691.305	2741.38
691.495	2686.08
691.684	2688.13
691.874	2788.48
692.063	2743.42
692.252	2669.7
692.442	2735.23
692.631	2737.28
692.82	2661.51
693.01	2626.69
693.199	2638.98
693.388	2516.1
693.578	2679.94
693.767	2575.49
693.956	2600.07
694.146	2645.12
694.335	2544.77
694.524	2593.92
694.713	2638.98
694.902	2512
695.092	2575.49
695.281	2485.38
695.47	2514.05
695.659	2565.25
695.848	2520.2
696.037	2405.51
696.226	2401.41
696.415	2493.57
696.604	2464.9
696.793	2473.09
696.982	2438.28
697.171	2661.51
697.36	2456.71
697.549	2473.09
697.738	2333.83
697.927	2454.66
698.116	2327.69
698.305	2380.93
698.494	2444.42
698.683	2507.91
698.872	2446.47
699.061	2348.17
699.25	2466.95
699.438	2325.64
699.627	2512
699.816	2589.83
700.005	2524.29
700.193	2452.61
700.382	2495.62
700.571	2421.89
700.76	2497.67
700.948	2493.57
701.137	2362.5
701.326	2401.41
701.514	2485.38
701.703	2497.67
701.892	2475.14
702.08	2552.96
702.269	2464.9
702.457	2489.48
702.646	2450.57
702.834	2374.79
703.023	2567.3
703.212	2518.15
703.4	2509.96
703.589	2446.47
703.777	2417.8
703.965	2454.66
704.154	2481.28
704.342	2378.89
704.531	2595.97
704.719	2415.75
704.907	2507.91
705.096	2499.72
705.284	2411.65
705.472	2397.32
705.661	2571.4
705.849	2600.07
706.037	2636.93
706.226	2415.75
706.414	2448.52
706.602	2604.16
706.79	2620.55
706.979	2440.33
707.167	2548.87
707.355	2538.63
707.543	2526.34
707.731	2516.1
707.919	2526.34
708.107	2493.57
708.296	2555.01
708.484	2559.11
708.672	2600.07
708.86	2550.92
709.048	2696.32
709.236	2487.43
709.424	2542.72
709.612	2661.51
709.8	2643.07
709.988	2555.01
710.176	2673.79
710.364	2573.44
710.551	2534.53
710.739	2542.72
710.927	2505.86
711.115	2573.44
711.303	2585.73
711.491	2583.68
711.679	2638.98
711.866	2768
712.054	2579.59
712.242	2567.3
712.43	2743.42
712.617	2659.46
712.805	2587.78
712.993	2610.31
713.181	2483.33
713.368	2643.07
713.556	2600.07
713.744	2507.91
713.931	2735.23
714.119	2575.49
714.306	2612.35
714.494	2714.75
714.682	2671.75
714.869	2694.27
715.057	2704.51
715.244	2696.32
715.432	2684.03
715.619	2843.78
715.807	2727.04
715.994	2784.38
716.182	2659.46
716.369	2866.3
716.556	2745.47
716.744	2770.05
716.931	2796.67
717.119	2784.38
717.306	2792.58
717.493	2835.58
717.681	2794.62
717.868	2837.63
718.055	2776.19
718.242	2753.66
718.43	2925.69
718.617	3015.8
718.804	2804.86
718.991	2839.68
719.179	2935.93
719.366	2786.43
719.553	2731.14
719.74	2942.08
719.927	2856.06
720.114	2946.17
720.301	2696.32
720.488	2796.67
720.676	2811.01
720.863	2827.39
721.05	2948.22
721.237	2868.35
721.424	2901.12
721.611	3021.95
721.798	2798.72
721.985	2897.02
722.172	2854.02
722.358	2974.85
722.545	2856.06
722.732	3089.53
722.919	3007.61
723.106	2958.46
723.293	2952.32
723.48	3021.95
723.667	2886.78
723.853	2948.22
724.04	2890.88
724.227	3116.16
724.414	2964.61
724.6	2987.13
724.787	3067
724.974	2989.18
725.161	2958.46
725.347	2964.61
725.534	3085.44
725.72	3013.76
725.907	3116.16
726.094	2897.02
726.28	3089.53
726.467	3062.91
726.653	2980.99
726.84	3048.57
727.027	3220.6
727.213	3124.35
727.4	3136.63
727.586	3050.62
727.773	2944.13
727.959	3085.44
728.145	3005.56
728.332	3187.83
728.518	3220.6
728.705	3042.43
728.891	3150.97
729.077	3189.88
729.264	3253.37
729.45	3177.59
729.636	3255.42
729.823	3124.35
730.009	3185.79
730.195	3175.55
730.382	3228.79
730.568	3124.35
730.754	3165.31
730.94	3222.65
731.126	3077.24
731.313	3236.99
731.499	3247.23
731.685	3269.75
731.871	3150.97
732.057	3112.06
732.243	3120.25
732.429	3204.22
732.615	3425.4
732.801	3134.59
732.987	3159.16
733.173	3318.9
733.359	3298.42
733.545	3198.07
733.731	3345.53
733.917	3165.31
734.103	3220.6
734.289	3288.18
734.475	3236.99
734.661	3200.12
734.847	3255.42
735.033	3208.31
735.219	3329.14
735.404	3198.07
735.59	3198.07
735.776	3202.17
735.962	3198.07
736.148	3318.9
736.333	3263.61
736.519	3255.42
736.705	3279.99
736.89	3220.6
737.076	3320.95
737.262	3277.94
737.447	3165.31
737.633	3236.99
737.819	3171.45
738.004	3239.03
738.19	3312.76
738.375	3241.08
738.561	3257.46
738.747	3269.75
738.932	3146.87
739.118	3290.23
739.303	3124.35
739.489	3226.75
739.674	3175.55
739.859	3204.22
740.045	3239.03
740.23	3241.08
740.416	3015.8
740.601	3097.72
740.786	3157.11
740.972	3153.02
741.157	3179.64
741.342	3146.87
741.528	3196.03
741.713	3120.25
741.898	3239.03
742.084	3126.39
742.269	3220.6
742.454	3173.5
742.639	3247.23
742.824	3112.06
743.01	3138.68
743.195	3173.5
743.38	3046.52
743.565	3026.04
743.75	3046.52
743.935	3101.82
744.12	3157.11
744.305	2946.17
744.49	3036.28
744.675	3036.28
744.86	3050.62
745.045	2923.65
745.23	3001.47
745.415	2970.75
745.6	3089.53
745.785	2919.55
745.97	2995.32
746.155	2878.59
746.34	2964.61
746.525	2937.98
746.71	2888.83
746.895	2802.82
747.079	2755.71
747.264	2847.87
747.449	2950.27
747.634	2778.24
747.819	2878.59
748.003	2782.34
748.188	2686.08
748.373	2813.06
748.557	2681.99
748.742	2614.4
748.927	2720.9
749.111	2698.37
749.296	2679.94
749.481	2606.21
749.665	2741.38
749.85	2739.33
750.034	2720.9
750.219	2688.13
750.404	2612.35
750.588	2720.9
750.773	2550.92
750.957	2591.88
751.141	2614.4
751.326	2598.02
751.51	2348.17
751.695	2524.29
751.879	2522.24
752.064	2479.24
752.248	2475.14
752.432	2423.94
752.617	2421.89
752.801	2368.65
752.985	2323.59
753.17	2344.07
753.354	2329.74
753.538	2294.92
753.722	2243.72
753.907	2372.74
754.091	2241.67
754.275	2307.21
754.459	2256.01
754.643	2221.19
754.828	2210.95
755.012	2204.81
755.196	2167.95
755.38	2172.04
755.564	2206.86
755.748	2260.1
755.932	2210.95
756.116	2153.61
756.3	2047.12
756.484	2043.02
756.668	2114.7
756.852	2022.54
757.036	2012.3
757.22	1957
757.404	1938.57
757.588	1934.48
757.772	2049.16
757.956	1936.53
758.14	1930.38
758.323	1985.68
758.507	1969.29
758.691	1918.09
758.875	1817.74
759.059	1924.24
759.242	1911.95
759.426	1787.02
759.61	1778.83
759.794	1846.41
759.977	1864.85
760.161	1977.48
760.345	1936.53
760.528	1854.61
760.712	1836.17
760.895	1844.37
761.079	1805.46
761.263	1713.3
761.446	1526.93
761.63	1692.82
761.813	1744.02
761.997	1756.3
762.18	1746.06
762.364	1762.45
762.547	1555.6
762.731	1698.96
762.914	1639.57
763.098	1623.19
763.281	1655.95
763.464	1629.33
763.648	1698.96
763.831	1674.39
764.015	1481.88
764.198	1602.71
764.381	1614.99
764.564	1569.94
764.748	1612.95
764.931	1606.8
765.114	1582.23
765.297	1623.19
765.481	1496.21
765.664	1543.32
765.847	1463.44
766.03	1596.56
766.213	1463.44
766.397	1502.36
766.58	1483.92
766.763	1504.4
766.946	1445.01
767.129	1545.36
767.312	1567.89
767.495	1496.21
767.678	1363.09
767.861	1418.39
768.044	1383.57
768.227	1422.48
768.41	1418.39
768.593	1490.07
768.776	1412.25
768.959	1479.83
769.142	1434.77
769.324	1404.05
769.507	1336.47
769.69	1432.72
769.873	1410.2
770.056	1404.05
770.239	1227.93
770.421	1387.67
770.604	1354.9
770.787	1430.68
770.97	1338.52
771.152	1293.46
771.335	1408.15
771.518	1359
771.7	1414.29
771.883	1229.98
772.066	1315.99
772.248	1342.61
772.431	1336.47
772.613	1211.54
772.796	1289.37
772.978	1238.17
773.161	1307.8
773.343	1150.11
773.526	1301.65
773.708	1119.39
773.891	1221.78
774.073	1121.43
774.256	1189.02
774.438	1252.5
774.621	1229.98
774.803	1131.67
774.985	1227.93
775.168	1133.72
775.35	1123.48
775.532	1072.28
775.715	1111.19
775.897	1096.86
776.079	1070.23
776.261	1141.91
776.444	1031.32
776.626	1012.89
776.808	1141.91
776.99	984.22
777.173	1010.84
777.355	1035.42
777.537	1082.52
777.719	1051.8
777.901	1019.04
778.083	967.84
778.265	980.12
778.447	984.22
778.629	1014.94
778.811	918.68
778.993	902.3
779.175	978.08
779.357	947.36
779.539	918.68
779.721	945.31
779.903	904.35
780.085	922.78
780.267	928.92
780.449	916.64
780.631	857.25
780.812	937.12
780.994	873.63
781.176	896.16
781.358	849.05
781.54	787.61
781.721	787.61
781.903	859.29
782.085	840.86
782.267	844.96
782.448	830.62
782.63	826.53
782.812	742.56
782.993	720.03
783.175	844.96
783.357	672.93
783.538	771.23
783.72	695.46
783.901	679.07
784.083	826.53
784.264	679.07
784.446	724.13
784.627	736.42
784.809	609.44
784.99	742.56
785.172	640.16
785.353	689.31
785.535	732.32
785.716	668.83
785.897	726.18
786.079	685.22
786.26	658.59
786.441	695.46
786.623	617.63
786.804	691.36
786.985	584.87
787.167	580.77
787.348	603.3
787.529	672.93
787.71	658.59
787.891	550.05
788.073	513.19
788.254	580.77
788.435	595.11
788.616	548
788.797	562.34
788.978	552.1
789.159	500.9
789.34	650.4
789.522	584.87
789.703	560.29
789.884	527.52
790.065	562.34
790.246	654.5
790.427	527.52
790.607	627.87
790.788	558.24
790.969	459.94
791.15	570.53
791.331	451.75
791.512	558.24
791.693	474.28
791.874	486.56
792.054	574.63
792.235	591.01
792.416	535.71
792.597	464.04
792.778	521.38
792.958	480.42
793.139	513.19
793.32	504.99
793.5	513.19
793.681	486.56
793.862	464.04
794.042	459.94
794.223	343.21
794.404	378.02
794.584	353.45
794.765	494.76
794.945	511.14
795.126	429.22
795.306	439.46
795.487	423.08
795.667	461.99
795.848	404.64
796.028	394.4
796.209	464.04
796.389	441.51
796.57	421.03
796.75	375.97
796.93	488.61
797.111	461.99
797.291	390.31
797.471	429.22
797.652	320.68
797.832	414.88
798.012	414.88
798.192	326.82
798.373	386.21
798.553	439.46
798.733	414.88
798.913	310.44
799.093	345.25
799.274	359.59
799.454	453.8
799.634	402.6
799.814	406.69
799.994	429.22
800.174	382.12
800.354	332.97
800.534	361.64
800.714	369.83
800.894	314.53
801.074	316.58
801.254	355.49
801.434	380.07
801.614	332.97
801.794	371.88
801.974	1062.04
802.154	275.62
802.334	378.02
802.514	277.67
802.693	337.06
802.873	236.71
803.053	263.33
803.233	373.92
803.413	410.79
803.592	353.45
803.772	287.91
803.952	289.96
804.131	267.43
804.311	304.29
804.491	294.05
804.67	214.18
804.85	355.49
805.03	308.39
805.209	390.31
805.389	292.01
805.568	332.97
805.748	267.43
805.928	285.86
806.107	287.91
806.287	335.01
806.466	302.25
806.646	328.87
806.825	142.5
807.004	269.48
807.184	304.29
807.363	246.95
807.543	181.42
807.722	236.71
807.901	277.67
808.081	304.29
808.26	255.14
808.439	224.42
808.619	314.53
808.798	314.53
808.977	289.96
809.156	304.29
809.336	255.14
809.515	216.23
809.694	208.04
809.873	160.94
810.052	275.62
810.231	298.15
810.411	234.66
810.59	322.73
810.769	167.08
810.948	257.19
811.127	201.9
811.306	175.27
811.485	189.61
811.664	271.53
811.843	279.72
812.022	281.77
812.201	148.65
812.38	220.33
812.559	212.14
812.737	177.32
812.916	162.98
813.095	218.28
813.274	185.51
813.453	238.76
813.632	259.24
813.811	183.46
813.989	154.79
814.168	173.22
814.347	89.26
814.526	271.53
814.704	285.86
814.883	244.9
815.062	193.7
815.24	240.81
815.419	132.26
815.598	228.52
815.776	179.37
815.955	185.51
816.133	173.22
816.312	189.61
816.49	169.13
816.669	234.66
816.847	244.9
817.026	177.32
817.204	165.03
817.383	212.14
817.561	195.75
817.74	187.56
817.918	109.74
818.097	167.08
818.275	216.23
818.453	158.89
818.632	169.13
818.81	203.94
818.988	183.46
819.167	46.25
819.345	203.94
819.523	140.46
819.701	271.53
819.879	201.9
820.058	158.89
820.236	142.5
820.414	152.74
820.592	119.98
820.77	162.98
820.948	144.55
821.127	93.35
821.305	122.02
821.483	148.65
821.661	91.31
821.839	134.31
822.017	115.88
822.195	93.35
822.373	193.7
822.551	160.94
822.729	244.9
822.907	128.17
823.085	152.74
823.262	132.26
823.44	156.84
823.618	105.64
823.796	95.4
823.974	83.11
824.152	119.98
824.329	126.12
824.507	140.46
824.685	132.26
824.863	138.41
825.04	76.97
825.218	115.88
825.396	138.41
825.574	199.85
825.751	105.64
825.929	156.84
826.107	128.17
826.284	85.16
826.462	105.64
826.639	58.54
826.817	54.44
826.994	203.94
827.172	66.73
827.349	171.18
827.527	113.83
827.704	76.97
827.882	136.36
828.059	79.02
828.237	81.07
828.414	138.41
828.591	-70.48
828.769	74.92
828.946	105.64
829.124	111.78
829.301	173.22
829.478	83.11
829.655	103.59
829.833	79.02
830.01	177.32
830.187	197.8
830.364	156.84
830.542	87.21
830.719	66.73
830.896	70.83
831.073	103.59
831.25	115.88
831.427	126.12
831.604	54.44
831.782	68.78
831.959	142.5
832.136	83.11
832.313	72.87
832.49	113.83
832.667	115.88
832.844	83.11
833.021	134.31
833.198	19.63
833.374	58.54
833.551	113.83
833.728	154.79
833.905	115.88
834.082	87.21
834.259	36.01
834.436	169.13
834.612	113.83
834.789	109.74
834.966	62.63
835.143	64.68
835.319	29.87
835.496	48.3
835.673	138.41
835.85	99.5
836.026	74.92
836.203	113.83
836.38	9.39
836.556	115.88
836.733	119.98
836.909	144.55
837.086	89.26
837.262	70.83
837.439	56.49
837.616	58.54
837.792	134.31
837.968	76.97
838.145	-17.24
838.321	52.39
838.498	79.02
838.674	27.82
838.851	11.43
839.027	99.5
839.203	85.16
839.38	109.74
839.556	29.87
839.732	158.89
839.909	54.44
840.085	42.15
840.261	95.4
840.437	87.21
840.614	29.87
840.79	85.16
840.966	9.39
841.142	89.26
841.318	91.31
841.494	-9.05
841.671	64.68
841.847	-2.9
842.023	79.02
842.199	119.98
842.375	91.31
842.551	-39.76
842.727	58.54
842.903	122.02
843.079	66.73
843.255	68.78
843.431	33.96
843.607	25.77
843.783	-0.85
843.959	122.02
844.134	44.2
844.31	79.02
844.486	56.49
844.662	91.31
844.838	208.04
845.013	36.01
845.189	72.87
845.365	62.63
845.541	46.25
845.716	60.59
845.892	54.44
846.068	9.39
846.244	66.73
846.419	38.06
846.595	-13.14
846.77	-60.24
846.946	-4.95
847.122	62.63
847.297	-33.62
847.473	48.3
847.648	-37.72
847.824	140.46
847.999	50.35
848.175	148.65
848.35	29.87
848.526	68.78
848.701	38.06
848.876	-11.09
849.052	68.78
849.227	-9.05
849.403	23.72
849.578	-19.29
849.753	38.06
849.929	115.88
850.104	5.29
850.279	7.34
850.454	60.59
850.63	15.53
850.805	-2.9
850.98	27.82
851.155	83.11
851.33	13.48
851.505	50.35
851.681	107.69
851.856	-56.15
852.031	27.82
852.206	-31.57
852.381	1.19
852.556	-43.86
852.731	33.96
852.906	42.15
853.081	-0.85
853.256	111.78
853.431	-25.43
853.606	17.58
853.781	81.07
853.956	-37.72
854.131	40.11
854.305	-2.9
854.48	-7
854.655	-19.29
854.83	46.25
855.005	-4.95
855.18	-15.19
855.354	-2.9
855.529	27.82
855.704	3.24
855.879	23.72
856.053	-15.19
856.228	21.67
856.403	19.63
856.577	54.44
856.752	36.01
856.926	56.49
857.101	-2.9
857.276	-54.1
857.45	64.68
857.625	36.01
857.799	-7
857.974	15.53
858.148	-76.63
858.323	11.43
858.497	33.96
858.672	15.53
858.846	-2.9
859.02	9.39
859.195	3.24
859.369	-54.1
859.543	58.54
859.718	-80.72
859.892	-27.48
860.066	85.16
860.241	-41.81
860.415	-33.62
860.589	48.3
860.763	-43.86
860.938	-50
861.112	70.83
861.286	52.39
861.46	9.39
861.634	74.92
861.808	115.88
861.982	-13.14
862.157	3.24
862.331	27.82
862.505	13.48
862.679	-15.19
862.853	-19.29
863.027	-19.29
863.201	50.35
863.375	-43.86
863.549	76.97
863.722	5.29
863.896	1.19
864.07	-45.91
864.244	-13.14
864.418	-17.24
864.592	3.24
864.766	44.2
864.939	-9.05
865.113	-50
865.287	76.97
865.461	68.78
865.634	27.82
865.808	-11.09
865.982	9.39
866.156	-13.14
866.329	29.87
866.503	-19.29
866.676	23.72
866.85	-27.48
867.024	-21.33
867.197	7.34
867.371	23.72
867.544	-15.19
867.718	-23.38
867.891	-15.19
868.065	29.87
868.238	-37.72
868.412	17.58
868.585	1.19
868.759	-15.19
868.932	-78.68
869.105	17.58
869.279	62.63
869.452	9.39
869.625	-33.62
869.799	-23.38
869.972	-58.2
870.145	11.43
870.319	33.96
870.492	-17.24
870.665	23.72
870.838	-47.96
871.011	-2.9
871.185	21.67
871.358	-23.38
871.531	-2.9
871.704	27.82
871.877	48.3
872.05	1.19
872.223	54.44
872.396	29.87
872.569	56.49
872.742	-13.14
872.915	29.87
873.088	-23.38
873.261	-21.33
873.434	-4.95
873.607	46.25
873.78	-15.19
873.953	-23.38
874.126	-35.67
874.299	56.49
874.471	-7
874.644	76.97
874.817	85.16
874.99	27.82
875.163	31.91
875.335	-39.76
875.508	23.72
875.681	40.11
875.853	48.3
876.026	17.58
876.199	38.06
876.371	-70.48
876.544	-64.34
876.717	-21.33
876.889	-23.38
877.062	68.78
877.234	-15.19
877.407	-31.57
877.579	-7
877.752	-21.33
877.924	-17.24
878.097	-82.77
878.269	-2.9
878.442	-52.05
878.614	46.25
878.786	7.34
878.959	1.19
879.131	42.15
879.303	-64.34
879.476	-43.86
879.648	-15.19
879.82	17.58
879.993	76.97
880.165	-41.81
880.337	-58.2
880.509	46.25
880.681	-0.85
880.854	-19.29
881.026	3.24
881.198	3.24
881.37	-54.1
881.542	19.63
881.714	-27.48
881.886	48.3
882.058	19.63
882.23	-17.24
882.402	1.19
882.574	-37.72
882.746	15.53
882.918	56.49
883.09	87.21
883.262	44.2
883.434	-11.09
883.606	25.77
883.778	-0.85
883.95	25.77
884.122	-39.76
884.293	56.49
884.465	-74.58
884.637	-19.29
884.809	-15.19
884.98	-11.09
885.152	-11.09
885.324	44.2
885.496	-37.72
885.667	3.24
885.839	-64.34
886.011	85.16
886.182	-13.14
886.354	-35.67
886.525	-0.85
886.697	48.3
886.869	-64.34
887.04	-9.05
887.212	-15.19
887.383	19.63
887.555	17.58
887.726	5.29
887.897	-15.19
888.069	-37.72
888.24	7.34
888.412	-43.86
888.583	-7
888.754	-76.63
888.926	-56.15
889.097	-45.91
889.268	17.58
889.44	-21.33
889.611	-29.52
889.782	-41.81
889.953	36.01
890.125	-4.95
890.296	-35.67
890.467	-41.81
890.638	-62.29
890.809	-9.05
890.98	-66.39
891.151	-23.38
891.323	62.63
891.494	-0.85
891.665	11.43
891.836	27.82
892.007	-47.96
892.178	83.11
892.349	38.06
892.52	25.77
892.691	-23.38
892.862	-78.68
893.032	-72.53
893.203	-37.72
893.374	-29.52
893.545	-15.19
893.716	-47.96
893.887	31.91
894.057	-54.1
894.228	40.11
894.399	-86.87
894.57	-9.05
894.74	-39.76
894.911	25.77
895.082	-15.19
895.253	-19.29
895.423	-37.72
895.594	21.67
895.764	-25.43
895.935	-60.24
896.106	-76.63
896.276	-62.29
896.447	-33.62
896.617	38.06
896.788	-129.88
896.958	3.24
897.129	-25.43
897.299	23.72
897.47	-19.29
897.64	23.72
897.81	5.29
897.981	7.34
898.151	-19.29
898.322	58.54
898.492	-9.05
898.662	-37.72
898.832	-103.25
899.003	44.2
899.173	-66.39
899.343	-41.81
899.513	-33.62
