Data from USB4F104151__85__12-24-30-620.txt Node

Date: Fri Mar 14 12:24:30 EDT 2025
User: louis
Spectrometer: USB4F10415
Trigger mode: 4
Integration Time (sec): 3.500000E-2
Scans to average: 1
Electric dark correction enabled: true
Nonlinearity correction enabled: false
Boxcar width: 0
XAxis mode: Wavelengths
Number of Pixels in Spectrum: 3648
>>>>>Begin Spectral Data<<<<<
178.204	-72.87
178.424	-72.87
178.644	-72.87
178.864	-115.88
179.084	-109.74
179.304	33.62
179.524	60.24
179.744	4.95
179.964	-9.39
180.184	-27.82
180.404	7
180.624	33.62
180.844	2.9
181.064	-23.72
181.283	-31.91
181.503	-38.06
181.723	-11.43
181.943	15.19
182.163	60.24
182.383	37.72
182.602	-3.24
182.822	86.87
183.042	37.72
183.262	-27.82
183.482	66.39
183.701	11.09
183.921	25.43
184.141	62.29
184.361	158.55
184.58	-11.43
184.8	58.2
185.02	86.87
185.239	60.24
185.459	109.4
185.679	129.88
185.898	74.58
186.118	-11.43
186.338	27.48
186.557	33.62
186.777	58.2
186.997	90.96
187.216	9.05
187.436	127.83
187.655	107.35
187.875	64.34
188.095	-40.11
188.314	127.83
188.534	54.1
188.753	15.19
188.973	-5.29
189.192	123.73
189.412	27.48
189.631	88.92
189.851	21.33
190.07	70.48
190.29	0.85
190.509	-3.24
190.729	9.05
190.948	62.29
191.168	162.64
191.387	93.01
191.607	33.62
191.826	60.24
192.045	33.62
192.265	31.57
192.484	25.43
192.704	-5.29
192.923	31.57
193.142	109.4
193.362	17.24
193.581	45.91
193.8	47.96
194.02	101.2
194.239	11.09
194.458	74.58
194.678	23.38
194.897	74.58
195.116	47.96
195.335	17.24
195.555	105.3
195.774	-7.34
195.993	72.53
196.212	107.35
196.432	-1.19
196.651	60.24
196.87	21.33
197.089	62.29
197.308	88.92
197.528	31.57
197.747	-3.24
197.966	95.06
198.185	80.72
198.404	39.76
198.623	82.77
198.842	70.48
199.062	52.05
199.281	68.44
199.5	-29.87
199.719	29.52
199.938	76.63
200.157	52.05
200.376	107.35
200.595	189.27
200.814	52.05
201.033	27.48
201.252	41.81
201.471	-1.19
201.69	129.88
201.909	-3.24
202.128	-40.11
202.347	80.72
202.566	68.44
202.785	43.86
203.004	-21.67
203.223	54.1
203.442	62.29
203.661	-11.43
203.879	84.82
204.098	41.81
204.317	-21.67
204.536	47.96
204.755	47.96
204.974	25.43
205.193	50
205.411	99.16
205.63	31.57
205.849	113.49
206.068	31.57
206.287	68.44
206.505	35.67
206.724	90.96
206.943	50
207.162	19.29
207.381	68.44
207.599	50
207.818	9.05
208.037	50
208.255	7
208.474	31.57
208.693	76.63
208.911	119.64
209.13	43.86
209.349	119.64
209.567	78.68
209.786	47.96
210.005	105.3
210.223	80.72
210.442	-33.96
210.661	25.43
210.879	13.14
211.098	33.62
211.316	50
211.535	47.96
211.753	23.38
211.972	11.09
212.191	47.96
212.409	133.97
212.628	-11.43
212.846	37.72
213.065	52.05
213.283	101.2
213.502	-9.39
213.72	15.19
213.938	60.24
214.157	19.29
214.375	140.12
214.594	-1.19
214.812	140.12
215.031	45.91
215.249	66.39
215.467	27.48
215.686	31.57
215.904	101.2
216.122	60.24
216.341	47.96
216.559	66.39
216.778	43.86
216.996	82.77
217.214	68.44
217.432	0.85
217.651	17.24
217.869	-19.63
218.087	72.53
218.306	31.57
218.524	86.87
218.742	21.33
218.96	43.86
219.179	43.86
219.397	13.14
219.615	166.74
219.833	39.76
220.051	2.9
220.27	17.24
220.488	54.1
220.706	41.81
220.924	0.85
221.142	17.24
221.36	15.19
221.578	52.05
221.796	27.48
222.015	56.15
222.233	29.52
222.451	88.92
222.669	-36.01
222.887	66.39
223.105	15.19
223.323	17.24
223.541	47.96
223.759	68.44
223.977	84.82
224.195	62.29
224.413	72.53
224.631	41.81
224.849	72.53
225.067	86.87
225.285	47.96
225.503	62.29
225.721	50
225.939	43.86
226.157	0.85
226.375	101.2
226.592	23.38
226.81	19.29
227.028	50
227.246	142.16
227.464	21.33
227.682	27.48
227.9	47.96
228.117	35.67
228.335	11.09
228.553	47.96
228.771	15.19
228.989	80.72
229.206	54.1
229.424	37.72
229.642	37.72
229.86	52.05
230.077	52.05
230.295	-23.72
230.513	68.44
230.731	39.76
230.948	2.9
231.166	64.34
231.384	103.25
231.601	35.67
231.819	101.2
232.037	-5.29
232.254	-38.06
232.472	-19.63
232.689	84.82
232.907	131.92
233.125	82.77
233.342	-5.29
233.56	11.09
233.777	29.52
233.995	4.95
234.213	144.21
234.43	72.53
234.648	4.95
234.865	54.1
235.083	80.72
235.3	54.1
235.518	68.44
235.735	7
235.953	41.81
236.17	33.62
236.388	17.24
236.605	78.68
236.822	35.67
237.04	47.96
237.257	-17.58
237.475	-23.72
237.692	25.43
237.909	2.9
238.127	27.48
238.344	29.52
238.562	72.53
238.779	-44.2
238.996	-27.82
239.214	-1.19
239.431	72.53
239.648	39.76
239.865	17.24
240.083	35.67
240.3	76.63
240.517	-9.39
240.735	84.82
240.952	82.77
241.169	72.53
241.386	37.72
241.603	11.09
241.821	27.48
242.038	60.24
242.255	115.54
242.472	-62.63
242.689	-21.67
242.907	82.77
243.124	29.52
243.341	-23.72
243.558	41.81
243.775	80.72
243.992	-21.67
244.209	97.11
244.426	121.68
244.643	74.58
244.86	11.09
245.078	60.24
245.295	56.15
245.512	90.96
245.729	19.29
245.946	119.64
246.163	47.96
246.38	82.77
246.597	-1.19
246.814	78.68
247.031	70.48
247.248	-1.19
247.464	154.45
247.681	17.24
247.898	76.63
248.115	86.87
248.332	93.01
248.549	62.29
248.766	152.4
248.983	72.53
249.2	33.62
249.417	70.48
249.633	43.86
249.85	-17.58
250.067	-33.96
250.284	0.85
250.501	74.58
250.717	13.14
250.934	7
251.151	68.44
251.368	0.85
251.585	-17.58
251.801	119.64
252.018	68.44
252.235	131.92
252.451	78.68
252.668	29.52
252.885	-7.34
253.102	39.76
253.318	93.01
253.535	45.91
253.752	33.62
253.968	-9.39
254.185	-48.3
254.401	43.86
254.618	15.19
254.835	7
255.051	76.63
255.268	84.82
255.484	4.95
255.701	-23.72
255.917	72.53
256.134	-3.24
256.351	43.86
256.567	43.86
256.784	72.53
257	-64.68
257.217	84.82
257.433	76.63
257.65	123.73
257.866	58.2
258.082	-3.24
258.299	64.34
258.515	60.24
258.732	62.29
258.948	58.2
259.165	72.53
259.381	-15.53
259.597	66.39
259.814	-29.87
260.03	2.9
260.246	19.29
260.463	-19.63
260.679	19.29
260.895	45.91
261.112	41.81
261.328	37.72
261.544	47.96
261.761	121.68
261.977	80.72
262.193	-42.15
262.409	-3.24
262.626	17.24
262.842	62.29
263.058	-40.11
263.274	78.68
263.49	62.29
263.707	80.72
263.923	50
264.139	39.76
264.355	72.53
264.571	93.01
264.787	88.92
265.004	105.3
265.22	9.05
265.436	29.52
265.652	7
265.868	19.29
266.084	45.91
266.3	31.57
266.516	-13.48
266.732	107.35
266.948	68.44
267.164	58.2
267.38	101.2
267.596	39.76
267.812	95.06
268.028	33.62
268.244	64.34
268.46	31.57
268.676	37.72
268.892	54.1
269.108	23.38
269.324	29.52
269.54	-3.24
269.756	74.58
269.972	31.57
270.188	2.9
270.403	56.15
270.619	4.95
270.835	58.2
271.051	45.91
271.267	43.86
271.483	-11.43
271.698	52.05
271.914	19.29
272.13	68.44
272.346	72.53
272.562	-13.48
272.777	88.92
272.993	47.96
273.209	39.76
273.425	168.79
273.64	0.85
273.856	97.11
274.072	-5.29
274.287	7
274.503	82.77
274.719	88.92
274.934	88.92
275.15	-42.15
275.366	58.2
275.581	17.24
275.797	58.2
276.012	60.24
276.228	39.76
276.444	76.63
276.659	47.96
276.875	33.62
277.09	56.15
277.306	56.15
277.521	58.2
277.737	80.72
277.952	78.68
278.168	64.34
278.383	72.53
278.599	56.15
278.814	133.97
279.03	17.24
279.245	68.44
279.461	64.34
279.676	158.55
279.892	80.72
280.107	-50.35
280.322	-11.43
280.538	125.78
280.753	50
280.969	27.48
281.184	97.11
281.399	162.64
281.615	95.06
281.83	43.86
282.045	101.2
282.26	-31.91
282.476	84.82
282.691	21.33
282.906	-9.39
283.122	43.86
283.337	25.43
283.552	29.52
283.767	25.43
283.983	29.52
284.198	21.33
284.413	117.59
284.628	-9.39
284.843	23.38
285.058	52.05
285.274	47.96
285.489	-1.19
285.704	101.2
285.919	52.05
286.134	66.39
286.349	62.29
286.564	19.29
286.779	58.2
286.995	35.67
287.21	-40.11
287.425	41.81
287.64	2.9
287.855	76.63
288.07	4.95
288.285	93.01
288.5	60.24
288.715	47.96
288.93	21.33
289.145	9.05
289.36	21.33
289.575	68.44
289.79	70.48
290.004	21.33
290.219	25.43
290.434	35.67
290.649	76.63
290.864	29.52
291.079	4.95
291.294	68.44
291.509	97.11
291.724	158.55
291.938	121.68
292.153	80.72
292.368	-11.43
292.583	45.91
292.798	64.34
293.012	29.52
293.227	117.59
293.442	-19.63
293.657	72.53
293.871	45.91
294.086	117.59
294.301	35.67
294.516	129.88
294.73	0.85
294.945	0.85
295.16	41.81
295.374	78.68
295.589	72.53
295.804	0.85
296.018	62.29
296.233	97.11
296.447	-25.77
296.662	41.81
296.877	103.25
297.091	33.62
297.306	29.52
297.52	66.39
297.735	62.29
297.949	23.38
298.164	13.14
298.378	88.92
298.593	11.09
298.807	50
299.022	37.72
299.236	90.96
299.451	4.95
299.665	-38.06
299.88	23.38
300.094	43.86
300.309	45.91
300.523	0.85
300.737	62.29
300.952	11.09
301.166	66.39
301.381	33.62
301.595	43.86
301.809	4.95
302.024	47.96
302.238	33.62
302.452	119.64
302.667	31.57
302.881	50
303.095	52.05
303.309	95.06
303.524	37.72
303.738	111.44
303.952	27.48
304.166	9.05
304.381	-56.49
304.595	84.82
304.809	-11.43
305.023	47.96
305.237	60.24
305.452	68.44
305.666	82.77
305.88	50
306.094	21.33
306.308	7
306.522	25.43
306.736	78.68
306.95	105.3
307.164	43.86
307.379	9.05
307.593	62.29
307.807	95.06
308.021	111.44
308.235	17.24
308.449	-23.72
308.663	13.14
308.877	140.12
309.091	-52.39
309.305	70.48
309.519	4.95
309.733	66.39
309.947	-5.29
310.161	66.39
310.374	105.3
310.588	68.44
310.802	-13.48
311.016	82.77
311.23	54.1
311.444	60.24
311.658	-17.58
311.872	43.86
312.085	82.77
312.299	64.34
312.513	17.24
312.727	43.86
312.941	60.24
313.154	64.34
313.368	37.72
313.582	109.4
313.796	74.58
314.009	72.53
314.223	64.34
314.437	115.54
314.651	68.44
314.864	21.33
315.078	19.29
315.292	60.24
315.505	50
315.719	93.01
315.933	62.29
316.146	43.86
316.36	-1.19
316.573	129.88
316.787	56.15
317.001	29.52
317.214	4.95
317.428	29.52
317.641	-3.24
317.855	99.16
318.068	41.81
318.282	78.68
318.495	82.77
318.709	68.44
318.922	35.67
319.136	113.49
319.349	97.11
319.563	60.24
319.776	52.05
319.99	78.68
320.203	111.44
320.417	80.72
320.63	54.1
320.843	101.2
321.057	19.29
321.27	78.68
321.483	45.91
321.697	62.29
321.91	95.06
322.124	111.44
322.337	23.38
322.55	9.05
322.763	58.2
322.977	88.92
323.19	70.48
323.403	50
323.617	39.76
323.83	0.85
324.043	-1.19
324.256	60.24
324.469	2.9
324.683	72.53
324.896	9.05
325.109	82.77
325.322	47.96
325.535	64.34
325.748	125.78
325.962	39.76
326.175	93.01
326.388	50
326.601	41.81
326.814	78.68
327.027	11.09
327.24	156.5
327.453	13.14
327.666	64.34
327.879	66.39
328.092	64.34
328.305	62.29
328.518	23.38
328.731	-29.87
328.944	107.35
329.157	86.87
329.37	37.72
329.583	136.02
329.796	164.69
330.009	37.72
330.222	66.39
330.435	107.35
330.648	50
330.861	50
331.073	115.54
331.286	43.86
331.499	60.24
331.712	-1.19
331.925	64.34
332.138	19.29
332.35	60.24
332.563	52.05
332.776	74.58
332.989	54.1
333.202	2.9
333.414	25.43
333.627	27.48
333.84	101.2
334.053	29.52
334.265	9.05
334.478	58.2
334.691	64.34
334.903	31.57
335.116	19.29
335.329	95.06
335.541	35.67
335.754	39.76
335.966	60.24
336.179	84.82
336.392	99.16
336.604	27.48
336.817	35.67
337.029	125.78
337.242	101.2
337.454	113.49
337.667	37.72
337.88	84.82
338.092	60.24
338.305	78.68
338.517	58.2
338.729	90.96
338.942	117.59
339.154	58.2
339.367	35.67
339.579	76.63
339.792	-40.11
340.004	115.54
340.217	-46.25
340.429	-3.24
340.641	-1.19
340.854	17.24
341.066	-27.82
341.278	103.25
341.491	103.25
341.703	76.63
341.915	15.19
342.128	-13.48
342.34	103.25
342.552	-7.34
342.764	86.87
342.977	54.1
343.189	62.29
343.401	37.72
343.613	35.67
343.826	29.52
344.038	72.53
344.25	119.64
344.462	56.15
344.674	-13.48
344.886	7
345.099	39.76
345.311	70.48
345.523	56.15
345.735	56.15
345.947	138.07
346.159	93.01
346.371	21.33
346.583	52.05
346.795	111.44
347.007	140.12
347.219	50
347.431	31.57
347.643	62.29
347.855	4.95
348.067	70.48
348.279	4.95
348.491	-40.11
348.703	129.88
348.915	2.9
349.127	58.2
349.339	31.57
349.551	50
349.763	52.05
349.975	4.95
350.187	129.88
350.399	80.72
350.61	109.4
350.822	54.1
351.034	33.62
351.246	72.53
351.458	56.15
351.669	95.06
351.881	131.92
352.093	95.06
352.305	68.44
352.517	47.96
352.728	107.35
352.94	27.48
353.152	-5.29
353.363	11.09
353.575	62.29
353.787	123.73
353.999	-9.39
354.21	99.16
354.422	58.2
354.633	68.44
354.845	68.44
355.057	60.24
355.268	133.97
355.48	76.63
355.692	45.91
355.903	45.91
356.115	9.05
356.326	-42.15
356.538	35.67
356.749	66.39
356.961	68.44
357.172	19.29
357.384	21.33
357.595	136.02
357.807	35.67
358.018	-46.25
358.23	25.43
358.441	72.53
358.653	88.92
358.864	68.44
359.075	-7.34
359.287	146.26
359.498	113.49
359.709	93.01
359.921	45.91
360.132	107.35
360.344	99.16
360.555	86.87
360.766	41.81
360.977	21.33
361.189	58.2
361.4	29.52
361.611	113.49
361.823	127.83
362.034	62.29
362.245	4.95
362.456	47.96
362.667	74.58
362.879	9.05
363.09	78.68
363.301	70.48
363.512	45.91
363.723	33.62
363.935	54.1
364.146	103.25
364.357	78.68
364.568	82.77
364.779	-7.34
364.99	131.92
365.201	35.67
365.412	29.52
365.623	39.76
365.834	84.82
366.045	45.91
366.256	60.24
366.467	109.4
366.678	107.35
366.889	4.95
367.1	11.09
367.311	-15.53
367.522	64.34
367.733	80.72
367.944	142.16
368.155	103.25
368.366	140.12
368.577	50
368.788	82.77
368.999	37.72
369.209	43.86
369.42	174.93
369.631	111.44
369.842	47.96
370.053	52.05
370.264	4.95
370.474	17.24
370.685	119.64
370.896	13.14
371.107	62.29
371.317	29.52
371.528	47.96
371.739	146.26
371.95	62.29
372.16	86.87
372.371	-9.39
372.582	74.58
372.792	76.63
373.003	66.39
373.214	15.19
373.424	103.25
373.635	-1.19
373.846	50
374.056	70.48
374.267	37.72
374.477	56.15
374.688	86.87
374.898	-7.34
375.109	82.77
375.319	66.39
375.53	25.43
375.74	29.52
375.951	148.31
376.161	82.77
376.372	107.35
376.582	105.3
376.793	88.92
377.003	50
377.214	60.24
377.424	80.72
377.635	7
377.845	-13.48
378.055	99.16
378.266	-13.48
378.476	97.11
378.686	101.2
378.897	146.26
379.107	70.48
379.317	80.72
379.528	115.54
379.738	90.96
379.948	35.67
380.158	72.53
380.369	62.29
380.579	111.44
380.789	35.67
380.999	127.83
381.21	4.95
381.42	144.21
381.63	-15.53
381.84	45.91
382.05	84.82
382.261	148.31
382.471	58.2
382.681	50
382.891	136.02
383.101	70.48
383.311	76.63
383.521	-27.82
383.731	95.06
383.941	15.19
384.151	15.19
384.361	17.24
384.571	131.92
384.781	0.85
384.991	60.24
385.201	117.59
385.411	84.82
385.621	146.26
385.831	111.44
386.041	33.62
386.251	95.06
386.461	131.92
386.671	76.63
386.881	111.44
387.091	60.24
387.301	107.35
387.511	93.01
387.72	107.35
387.93	113.49
388.14	-25.77
388.35	97.11
388.56	115.54
388.769	123.73
388.979	19.29
389.189	4.95
389.399	60.24
389.609	43.86
389.818	72.53
390.028	86.87
390.238	82.77
390.447	66.39
390.657	115.54
390.867	-1.19
391.076	45.91
391.286	74.58
391.496	41.81
391.705	86.87
391.915	117.59
392.125	187.22
392.334	52.05
392.544	144.21
392.753	97.11
392.963	121.68
393.172	105.3
393.382	93.01
393.591	136.02
393.801	68.44
394.01	189.27
394.22	95.06
394.429	123.73
394.639	119.64
394.848	133.97
395.058	123.73
395.267	105.3
395.477	187.22
395.686	144.21
395.895	111.44
396.105	226.13
396.314	86.87
396.524	74.58
396.733	95.06
396.942	154.45
397.152	117.59
397.361	152.4
397.57	74.58
397.78	156.5
397.989	164.69
398.198	117.59
398.407	78.68
398.617	113.49
398.826	80.72
399.035	62.29
399.244	205.65
399.453	93.01
399.663	39.76
399.872	99.16
400.081	33.62
400.29	121.68
400.499	121.68
400.708	136.02
400.917	136.02
401.127	105.3
401.336	33.62
401.545	154.45
401.754	150.36
401.963	103.25
402.172	179.03
402.381	90.96
402.59	146.26
402.799	166.74
403.008	115.54
403.217	156.5
403.426	133.97
403.635	146.26
403.844	121.68
404.053	125.78
404.262	148.31
404.471	195.41
404.68	195.41
404.888	129.88
405.097	232.27
405.306	168.79
405.515	176.98
405.724	142.16
405.933	181.07
406.142	176.98
406.35	224.08
406.559	207.7
406.768	140.12
406.977	262.99
407.185	127.83
407.394	238.42
407.603	228.18
407.812	213.84
408.02	232.27
408.229	201.55
408.438	205.65
408.646	148.31
408.855	303.95
409.064	256.85
409.272	273.23
409.481	287.57
409.69	273.23
409.898	248.66
410.107	373.58
410.315	306
410.524	224.08
410.733	299.86
410.941	351.06
411.15	355.15
411.358	324.43
411.567	371.54
411.775	463.69
411.984	398.16
412.192	471.89
412.401	375.63
412.609	541.52
412.818	467.79
413.026	506.7
413.234	518.99
413.443	574.28
413.651	572.24
413.86	566.09
414.068	572.24
414.276	662.35
414.485	570.19
414.693	660.3
414.901	715.59
415.11	662.35
415.318	676.68
415.526	707.4
415.734	682.83
415.943	709.45
416.151	889.67
416.359	744.27
416.567	854.86
416.776	906.06
416.984	965.45
417.192	1018.69
417.4	1049.41
417.608	967.49
417.817	969.54
418.025	1065.8
418.233	1157.96
418.441	1055.56
418.649	1211.2
418.857	1254.21
419.065	1346.37
419.273	1258.31
419.481	1241.92
419.689	1475.39
419.897	1411.9
420.105	1592.13
420.313	1411.9
420.521	1575.74
420.729	1563.45
420.937	1624.89
421.145	1663.8
421.353	1846.07
421.561	1919.8
421.769	1901.37
421.977	1985.34
422.185	1948.47
422.393	2069.3
422.601	2169.65
422.809	2181.94
423.017	2241.33
423.224	2353.97
423.432	2374.45
423.64	2442.03
423.848	2716.46
424.056	2515.76
424.263	2698.03
424.471	2794.28
424.679	2872.11
424.887	2970.41
425.094	2958.12
425.302	3085.09
425.51	3177.25
425.718	3246.88
425.925	3511.07
426.133	3615.52
426.341	3646.24
426.548	3814.17
426.756	3830.55
426.964	3947.29
427.171	4143.89
427.379	4229.91
427.586	4383.51
427.794	4356.88
428.001	4504.34
428.209	4690.7
428.417	4694.8
428.624	5124.87
428.832	5057.29
429.039	5020.42
429.247	5229.32
429.454	5595.9
429.662	5841.66
429.869	5538.56
430.076	5933.82
430.284	5845.76
430.491	5939.96
430.699	6361.84
430.906	6388.47
431.114	6400.76
431.321	6656.75
431.528	6841.07
431.736	7230.18
431.943	7365.35
432.15	7336.68
432.358	7502.56
432.565	7813.85
432.772	7742.18
432.979	8323.8
433.187	8370.9
433.394	8346.33
433.601	8827.6
433.808	9136.84
434.016	8915.66
434.223	9427.65
434.43	9687.75
434.637	9556.68
434.844	10484.41
435.052	10386.1
435.259	10513.08
435.466	10508.98
435.673	10324.66
435.88	11115.18
436.087	11649.7
436.294	11633.32
436.501	11438.76
436.708	11610.79
436.915	12253.85
437.122	12528.28
437.329	12591.77
437.537	13064.85
437.743	13253.26
437.95	13060.75
438.157	13789.83
438.364	14262.91
438.571	14199.42
438.778	14320.25
438.985	15463.02
439.192	14862.96
439.399	15542.89
439.606	15067.76
439.813	15792.74
440.02	17019.47
440.227	16585.3
440.433	16585.3
440.64	17154.64
440.847	16929.36
441.054	17330.76
441.261	18573.88
441.467	18352.7
441.674	18852.41
441.881	19477.04
442.088	19223.09
442.294	19251.76
442.501	19720.74
442.708	20238.88
442.914	20877.85
443.121	21969.41
443.328	21525
443.534	22774.27
443.741	22024.71
443.948	21754.38
444.154	23149.04
444.361	23316.98
444.568	23415.28
444.774	23591.41
444.981	23851.5
445.187	24416.74
445.394	25244.12
445.6	25070.04
445.807	27232.69
446.013	26524.1
446.22	26468.8
446.426	27736.49
446.633	28039.59
446.839	28832.16
447.046	27695.53
447.252	29311.38
447.459	29407.64
447.665	29333.91
447.871	30749.06
448.078	31959.41
448.284	30204.3
448.491	31476.09
448.697	32604.52
448.903	32690.53
449.11	33012.06
449.316	32670.05
449.522	32907.62
449.728	34142.54
449.935	34265.42
450.141	34326.86
450.347	35066.17
450.553	33962.32
450.76	34107.72
450.966	35713.33
451.172	35244.35
451.378	35942.7
451.584	35311.93
451.791	36276.52
451.997	35703.09
452.203	36735.27
452.409	36602.15
452.615	36188.46
452.821	34978.11
453.027	34969.92
453.233	36553
453.44	34992.45
453.646	35744.05
453.852	35488.06
454.058	36540.71
454.264	35037.5
454.47	35852.59
454.676	35090.75
454.882	36221.23
455.088	33096.03
455.294	33392.98
455.5	33915.22
455.705	34341.19
455.911	33194.33
456.117	32622.95
456.323	32004.46
456.529	30472.58
456.735	31621.49
456.941	30570.88
457.147	30116.23
457.352	29213.08
457.558	28922.27
457.764	29032.86
457.97	28451.24
458.176	28019.11
458.381	27670.96
458.587	26399.17
458.793	26446.27
458.999	25137.62
459.204	26862.01
459.41	26343.88
459.616	24355.3
459.821	24226.28
460.027	24148.45
460.233	23978.47
460.438	22942.2
460.644	22870.52
460.85	22112.77
461.055	21639.69
461.261	21443.09
461.466	20189.73
461.672	19403.31
461.878	20892.18
462.083	19354.16
462.289	18915.89
462.494	18874.93
462.7	17910.34
462.905	17666.63
463.111	17912.39
463.316	18018.88
463.522	17877.57
463.727	17609.29
463.932	17785.41
464.138	17492.55
464.343	17691.21
464.549	16935.51
464.754	17402.44
464.959	17637.96
465.165	17515.08
465.37	16691.8
465.575	16413.27
465.781	16894.55
465.986	16829.01
466.191	16599.64
466.397	16048.74
466.602	15229.55
466.807	15710.82
467.012	16122.46
467.218	15696.49
467.423	15821.41
467.628	15467.11
467.833	16058.98
468.038	15501.93
468.244	15247.98
468.449	15888.99
468.654	15161.97
468.859	15166.06
469.064	15125.1
469.269	14623.35
469.474	14695.03
469.679	14842.48
469.885	14467.7
470.09	14707.32
470.295	14627.45
470.5	14307.96
470.705	14318.2
470.91	14236.28
471.115	13992.58
471.32	14361.21
471.525	13922.94
471.73	14011.01
471.935	13666.95
472.139	13105.81
472.344	13206.16
472.549	13519.5
472.754	13195.92
472.959	12720.79
473.164	12452.5
473.369	12335.77
473.574	12917.39
473.778	12804.75
473.983	12264.09
474.188	12579.48
474.393	12001.95
474.598	12128.92
474.802	11930.27
475.007	11739.81
475.212	11897.5
475.417	11397.8
475.621	11627.17
475.826	11412.14
476.031	11168.43
476.235	11008.69
476.44	11131.56
476.645	11092.65
476.849	10988.21
477.054	10738.35
477.259	10633.91
477.463	10797.74
477.668	10496.69
477.872	10592.95
478.077	10398.39
478.282	10130.11
478.486	9999.04
478.691	10080.96
478.895	10150.59
479.1	10011.32
479.304	10035.9
479.509	9665.22
479.713	9853.63
479.918	9732.8
480.122	9620.16
480.326	9757.38
480.531	9349.83
480.735	9511.62
480.94	9388.74
481.144	9814.72
481.348	9267.91
481.553	9427.65
481.757	9218.76
481.961	9265.86
482.166	9372.36
482.37	9370.31
482.574	9059.02
482.778	8993.48
482.983	9190.09
483.187	9274.06
483.391	9173.71
483.595	9001.68
483.8	9296.58
484.004	9140.94
484.208	9212.62
484.412	9126.6
484.616	9347.78
484.821	9263.82
485.025	9085.64
485.229	9259.72
485.433	9011.92
485.637	9087.69
485.841	9163.47
486.045	9063.12
486.249	9274.06
486.453	9196.23
486.657	9229
486.861	9267.91
487.065	9022.16
487.269	9104.07
487.473	8956.62
487.677	9157.32
487.881	9331.4
488.085	9286.34
488.289	9298.63
488.493	9067.21
488.697	9347.78
488.901	9300.68
489.105	9351.88
489.309	9147.08
489.512	9384.65
489.716	9470.66
489.92	9163.47
490.124	9296.58
490.328	9444.04
490.531	9224.9
490.735	9505.48
490.939	9642.69
491.143	9345.73
491.346	9376.45
491.55	9614.02
491.754	9470.66
491.958	9624.26
492.161	9540.29
492.365	9611.97
492.569	9663.17
492.772	9593.54
492.976	9784
493.18	9724.61
493.383	9861.82
493.587	10179.26
493.79	10103.48
493.994	9956.03
494.197	10062.52
494.401	10142.39
494.605	10363.58
494.808	10298.04
495.012	10472.12
495.215	10517.17
495.419	10525.36
495.622	10599.09
495.825	10691.25
496.029	10670.77
496.232	10812.08
496.436	11156.14
496.639	11256.49
496.843	11104.94
497.046	11133.61
497.249	11326.12
497.453	11350.7
497.656	11479.72
497.859	11551.4
498.063	11766.43
498.266	11944.61
498.469	12012.19
498.673	12116.64
498.876	12155.55
499.079	12585.62
499.282	12255.9
499.485	12751.51
499.689	12882.58
499.892	12901.01
500.095	13263.5
500.298	13167.24
500.501	13038.22
500.705	13527.69
500.908	13677.19
501.111	13824.64
501.314	13992.58
501.517	14164.61
501.72	14412.41
501.923	14357.11
502.126	14496.38
502.329	14832.24
502.532	14785.14
502.735	14860.91
502.938	15078
503.141	15354.48
503.344	15778.4
503.547	15688.29
503.75	15999.59
503.953	16235.1
504.156	16120.42
504.359	16435.8
504.562	16482.91
504.765	16988.75
504.968	16945.75
505.17	17451.6
505.373	17490.51
505.576	17723.97
505.779	17601.1
505.982	17777.22
506.185	18096.71
506.387	18186.82
506.59	18553.4
506.793	18709.05
506.996	18567.74
507.198	19292.72
507.401	19067.44
507.604	19427.88
507.807	19888.68
508.009	19950.12
508.212	19999.27
508.415	20292.13
508.617	20535.84
508.82	20668.95
509.022	20687.39
509.225	21191.19
509.428	21182.99
509.63	21322.26
509.833	21856.78
510.035	22235.65
510.238	22155.78
510.44	22647.29
510.643	22680.06
510.845	23140.85
511.048	22815.23
511.25	23302.64
511.453	23716.33
511.655	24300
511.858	24005.1
512.06	24306.15
512.262	24832.47
512.465	24916.44
512.667	25057.75
512.87	25248.21
513.072	25616.85
513.274	25936.33
513.477	26001.86
513.679	26393.03
513.881	27048.38
514.084	27001.27
514.286	27109.82
514.488	27140.54
514.69	28148.14
514.893	28191.14
515.095	28144.04
515.297	28502.43
515.499	28570.02
515.701	29067.67
515.904	29516.18
516.106	29507.99
516.308	29774.22
516.51	30140.81
516.712	30046.6
516.914	30429.57
517.116	30900.61
517.318	31205.75
517.52	31646.07
517.722	31834.48
517.925	31818.1
518.127	32772.45
518.329	32543.08
518.531	32803.17
518.733	33206.62
518.935	33522.01
519.136	33653.08
519.338	34152.78
519.54	34083.15
519.742	34679.11
519.944	34480.46
520.146	35580.21
520.348	35553.59
520.55	36122.93
520.752	35799.35
520.954	36747.56
521.155	36233.52
521.357	36741.41
521.559	37462.3
521.761	37671.19
521.963	38136.08
522.164	38179.09
522.366	38297.87
522.568	38279.44
522.77	39067.91
522.971	39655.67
523.173	38983.94
523.375	39483.64
523.576	39792.89
523.778	39624.95
523.98	40614.12
524.181	40538.35
524.383	40483.05
524.584	41033.96
524.786	41343.2
524.988	41369.82
525.189	41418.97
525.391	42074.32
525.592	42174.67
525.794	42240.21
525.995	42586.32
526.197	42932.42
526.398	42873.03
526.6	43167.94
526.801	43206.85
527.003	43415.74
527.204	43876.54
527.406	44177.59
527.607	44204.21
527.808	44488.88
528.01	43817.14
528.211	44523.69
528.412	45258.91
528.614	44976.3
528.815	44845.23
529.016	45451.42
529.218	45019.3
529.419	45228.2
529.62	45455.52
529.822	45418.66
530.023	45146.28
530.224	45039.78
530.425	45873.31
530.626	45185.19
530.828	46076.05
531.029	46514.32
531.23	45971.61
531.431	46256.28
531.632	46307.47
531.833	46213.27
532.035	46375.06
532.236	46622.86
532.437	46307.47
532.638	46133.4
532.839	46512.27
533.04	46680.21
533.241	46129.3
533.442	47609.98
533.643	46942.35
533.844	46942.35
534.045	47026.31
534.246	46383.25
534.447	47274.12
534.648	46973.06
534.849	47159.43
535.05	46823.56
535.251	47292.55
535.451	47069.32
535.652	46866.57
535.853	47198.34
536.054	47124.61
536.255	47052.94
536.456	46669.97
536.657	47820.92
536.857	46872.71
537.058	47186.05
537.259	47196.29
537.46	47337.6
537.66	47038.6
537.861	47241.35
538.062	46915.72
538.263	47437.95
538.463	46985.35
538.664	46979.21
538.865	47558.78
539.065	47485.06
539.266	47286.4
539.466	47716.48
539.667	47020.17
539.868	47497.34
540.068	47153.29
540.269	46758.03
540.469	47390.85
540.67	46936.2
540.87	47081.61
541.071	46864.52
541.271	47440
541.472	47216.77
541.672	46956.68
541.873	46807.18
542.073	46270.61
542.274	47483.01
542.474	47067.27
542.675	46805.13
542.875	47141
543.075	47304.84
543.276	46360.72
543.476	47564.93
543.676	46901.39
543.877	47208.58
544.077	46899.34
544.277	47077.51
544.478	47218.82
544.678	47423.62
544.878	46833.8
545.078	46684.3
545.279	46469.26
545.479	46680.21
545.679	47231.11
545.879	46977.16
546.079	46788.75
546.28	46710.92
546.48	46563.47
546.68	46788.75
546.88	46837.9
547.08	46651.53
547.28	46684.3
547.48	46436.5
547.68	47100.04
547.88	46346.39
548.081	46786.7
548.281	46581.9
548.481	46579.85
548.681	47321.22
548.881	46803.08
549.081	46729.36
549.28	46694.54
549.48	47130.76
549.68	46227.6
549.88	46739.6
550.08	46508.18
550.28	46416.02
550.48	46368.91
550.68	47116.42
550.88	46581.9
551.08	46618.77
551.279	46354.58
551.479	46493.84
551.679	46481.55
551.879	46489.74
552.079	46508.18
552.278	46444.69
552.478	46428.3
552.678	46413.97
552.878	46723.21
553.077	46416.02
553.277	45938.84
553.477	46479.5
553.676	45949.08
553.876	46213.27
554.076	46008.47
554.275	45944.98
554.475	45445.28
554.674	46149.78
554.874	46250.13
555.074	45883.55
555.273	46028.95
555.473	46108.82
555.672	45723.8
555.872	45979.8
556.071	45932.7
556.271	45910.17
556.47	45412.51
556.67	45414.56
556.869	45351.07
557.068	45652.12
557.268	45308.07
557.467	45074.6
557.667	45666.46
557.866	45568.16
558.065	45101.22
558.265	44875.94
558.464	44970.15
558.663	45414.56
558.863	44695.72
559.062	45596.83
559.261	44884.14
559.461	45148.32
559.66	44136.63
559.859	44335.28
560.058	44677.29
560.258	44724.39
560.457	44255.41
560.656	44896.42
560.855	44095.67
561.054	44394.67
561.253	43761.85
561.453	44052.66
561.652	44093.62
561.851	44269.75
562.05	43512
562.249	43733.18
562.448	44048.57
562.647	43745.47
562.846	43575.48
563.045	43735.23
563.244	43047.11
563.443	43329.73
563.642	42764.49
563.841	43317.44
564.04	42930.37
564.239	43430.08
564.438	42862.79
564.637	43251.91
564.836	42916.04
565.035	42199.25
565.234	42641.61
565.432	42619.08
565.631	42385.61
565.83	42229.97
566.029	41867.48
566.228	41775.32
566.427	41857.24
566.625	41601.24
566.824	41537.76
567.023	41816.28
567.222	40870.12
567.42	41881.81
567.619	41119.97
567.818	41095.39
568.016	41197.79
568.215	41187.55
568.414	40788.2
568.612	41062.63
568.811	40714.47
569.01	40624.36
569.208	40300.78
569.407	40372.46
569.605	40077.55
569.804	40458.48
570.002	39928.05
570.201	40270.06
570.4	39563.51
570.598	39893.24
570.797	39565.56
570.995	39624.95
571.193	39137.54
571.392	39444.73
571.59	38764.81
571.789	39141.63
571.987	38871.3
572.186	38854.92
572.384	38392.08
572.582	38623.5
572.781	38578.44
572.979	37921.04
573.177	38242.57
573.376	38471.95
573.574	37968.15
573.772	38211.85
573.971	37740.82
574.169	37271.84
574.367	37237.02
574.565	37726.49
574.763	37476.63
574.962	37499.16
575.16	36897.06
575.358	37189.92
575.556	36598.05
575.754	37280.03
575.952	36538.66
576.151	36571.43
576.349	36413.74
576.547	36397.35
576.745	36489.51
576.943	36139.31
577.141	36428.07
577.339	36286.76
577.537	35682.61
577.735	36059.44
577.933	36208.94
578.131	35959.09
578.329	35361.08
578.527	35334.46
578.725	35215.68
578.923	35092.8
579.121	35082.56
579.319	34789.7
579.516	35268.92
579.714	34906.43
579.912	34898.24
580.11	34212.17
580.308	34902.34
580.506	34302.28
580.704	33943.89
580.901	34441.54
581.099	34734.4
581.297	33925.46
581.495	33988.94
581.692	34287.95
581.89	33800.53
582.088	33900.88
582.285	33773.91
582.483	33591.64
582.681	33745.23
582.878	33200.47
583.076	33186.14
583.274	33186.14
583.471	32969.05
583.669	32686.43
583.866	32813.41
584.064	32782.69
584.262	32625
584.459	32659.81
584.657	32246.12
584.854	32799.07
585.052	32018.8
585.249	32282.98
585.447	32239.98
585.644	31627.63
585.841	31715.7
586.039	32344.42
586.236	31687.03
586.434	31560.05
586.631	31648.11
586.828	31660.4
587.026	31228.28
587.223	31261.05
587.42	31066.49
587.618	31551.86
587.815	31072.64
588.012	30990.72
588.21	30701.95
588.407	31062.4
588.604	30673.28
588.801	30259.59
588.999	30454.15
589.196	30566.79
589.393	30241.16
589.59	30321.03
589.787	30032.27
589.984	29747.6
590.182	29419.92
590.379	30060.94
590.576	29555.09
590.773	29747.6
590.97	29340.05
591.167	29770.13
591.364	29352.34
591.561	29233.56
591.758	29417.88
591.955	29090.2
592.152	29231.51
592.349	28819.87
592.546	29331.86
592.743	28995.99
592.94	28547.49
593.137	28660.13
593.334	28604.83
593.531	28332.45
593.727	28451.24
593.924	28594.59
594.121	28334.5
594.318	28215.72
594.515	27593.14
594.712	28146.09
594.908	27886
595.105	27773.36
595.302	27894.19
595.499	27419.06
595.696	27785.65
595.892	27423.15
596.089	27691.44
596.286	27314.61
596.482	26943.93
596.679	27158.97
596.876	27158.97
597.072	27374
597.269	26730.94
597.466	26868.16
597.662	26790.33
597.859	27009.47
598.055	26735.04
598.252	26710.46
598.448	26528.19
598.645	26599.87
598.841	26020.3
599.038	26335.68
599.234	26208.71
599.431	25928.14
599.627	25723.34
599.824	25975.24
600.02	25678.29
600.217	25993.67
600.413	25592.27
600.609	25471.44
600.806	26030.54
601.002	25465.3
601.198	25625.04
601.395	25111
601.591	24951.26
601.787	25119.19
601.984	25178.58
602.18	24791.52
602.376	24766.94
602.572	24730.08
602.769	24650.21
602.965	24652.25
603.161	24504.8
603.357	24191.46
603.553	24533.47
603.75	24588.77
603.946	23845.35
604.142	24406.5
604.338	24115.69
604.534	24295.91
604.73	23927.27
604.926	23980.52
605.122	23839.21
605.318	23681.52
605.514	23554.54
605.71	23640.56
605.906	23831.02
606.102	23265.78
606.298	23190
606.494	23460.34
606.69	23271.92
606.886	23235.06
607.082	23173.62
607.278	23276.02
607.474	22749.69
607.67	23114.23
607.866	22684.16
608.062	22870.52
608.257	22913.53
608.453	22610.43
608.649	22845.94
608.845	22483.45
609.041	22508.03
609.236	22471.17
609.432	22116.87
609.628	22276.61
609.824	22573.56
610.019	22454.78
610.215	22172.16
610.411	22417.92
610.606	22118.92
610.802	22024.71
610.998	22194.69
611.193	22004.23
611.389	21715.47
611.584	21864.97
611.78	21916.17
611.976	21785.1
612.171	21879.3
612.367	21858.82
612.562	21619.21
612.758	21246.48
612.953	21115.41
613.149	21494.29
613.344	21492.24
613.539	21471.76
613.735	21228.05
613.93	21506.57
614.126	21316.11
614.321	21578.25
614.517	21236.24
614.712	21223.95
614.907	21215.76
615.103	21060.12
615.298	20832.79
615.493	21412.37
615.688	20689.43
615.884	21193.23
616.079	20271.65
616.274	21049.88
616.47	20890.13
616.665	20716.06
616.86	20697.63
617.055	20840.98
617.25	20275.74
617.445	20791.83
617.641	20304.42
617.836	20496.92
618.031	19966.5
618.226	20324.9
618.421	20267.55
618.616	20062.76
618.811	20122.15
619.006	20349.47
619.201	19710.5
619.396	20103.71
619.591	19518
619.786	19798.57
619.981	19501.61
620.176	19808.81
620.371	19481.13
620.566	19536.43
620.761	19245.62
620.956	19403.31
621.151	19034.67
621.346	19280.43
621.541	18694.71
621.735	18958.9
621.93	18635.32
622.125	18666.04
622.32	18369.09
622.515	18569.79
622.709	18348.61
622.904	18424.38
623.099	18113.09
623.294	18231.87
623.488	17889.86
623.683	17824.33
623.878	17838.66
624.072	17697.35
624.267	17764.93
624.462	17689.16
624.656	17392.2
624.851	17551.95
625.046	17222.22
625.24	17236.56
625.435	16902.74
625.629	16908.88
625.824	17019.47
626.018	17054.29
626.213	16837.2
626.407	16708.18
626.602	16317.02
626.796	16282.2
626.991	16835.16
627.185	16169.57
627.38	16114.27
627.574	16173.66
627.768	15700.58
627.963	16077.41
628.157	15821.41
628.352	15727.21
628.546	15536.74
628.74	15848.04
628.935	15579.75
629.129	15624.81
629.323	15217.26
629.517	15444.59
629.712	15188.59
629.906	15034.99
630.1	14996.08
630.294	15020.66
630.489	14799.48
630.683	14748.28
630.877	14615.16
631.071	14604.92
631.265	14561.91
631.459	14436.99
631.653	14250.62
631.848	14482.04
632.042	14154.37
632.236	14086.78
632.43	14082.69
632.624	14097.02
632.818	13951.62
633.012	13769.35
633.206	13640.33
633.4	13720.2
633.594	13771.4
633.788	13539.97
633.982	13505.16
634.176	13472.39
634.369	13212.3
634.563	13402.76
634.757	13161.1
634.951	13099.66
635.145	13306.51
635.339	12909.2
635.533	13081.23
635.726	12905.1
635.92	12595.86
636.114	12681.88
636.308	12573.33
636.501	12749.46
636.695	12733.08
636.889	12389.02
637.083	12462.74
637.276	12434.07
637.47	12276.38
637.664	12063.39
637.857	12259.99
638.051	12079.77
638.244	12055.2
638.438	12184.22
638.632	11819.68
638.825	11926.18
639.019	11920.03
639.212	11647.65
639.406	11639.46
639.599	11672.23
639.793	11471.53
639.986	11416.23
640.18	11561.64
640.373	11301.54
640.567	11119.28
640.76	11027.12
640.954	11111.08
641.147	11053.74
641.34	11053.74
641.534	11023.02
641.727	10871.47
641.92	10787.5
642.114	10818.22
642.307	10758.83
642.5	10609.33
642.694	10521.27
642.887	10472.12
643.08	10562.23
643.273	10334.9
643.467	10252.98
643.66	10273.46
643.853	10228.41
644.046	10130.11
644.239	10267.32
644.432	10029.76
644.626	9888.45
644.819	10128.06
645.012	9904.83
645.205	9970.37
645.398	9753.28
645.591	9620.16
645.784	9724.61
645.977	9403.08
646.17	9730.75
646.363	9446.09
646.556	9339.59
646.749	9450.18
646.942	9579.2
647.135	9265.86
647.328	9280.2
647.521	9302.73
647.714	8997.58
647.907	9355.97
648.099	9095.88
648.292	9050.83
648.485	9026.25
648.678	8921.81
648.871	8911.57
649.064	8930
649.256	8876.75
649.449	8907.47
649.642	8798.93
649.835	8622.8
650.027	8755.92
650.22	8424.15
650.413	8450.77
650.605	8596.18
650.798	8606.42
650.991	8534.74
651.183	8266.46
651.376	8262.36
651.568	8133.34
651.761	8151.77
651.954	8213.21
652.146	8084.19
652.339	8016.6
652.531	8018.65
652.724	7887.58
652.916	7832.29
653.109	7994.08
653.301	7987.93
653.494	8006.36
653.686	7858.91
653.879	7738.08
654.071	7901.92
654.263	7754.46
654.456	7803.61
654.648	7828.19
654.84	7572.19
655.033	7463.65
655.225	7564
655.417	7426.79
655.61	7652.06
655.802	7596.77
655.994	7267.05
656.186	7447.27
656.379	7277.29
656.571	7348.97
656.763	7095.02
656.955	7226.09
657.148	7211.75
657.34	7084.78
657.532	7092.97
657.724	7043.82
657.916	7000.81
658.108	6879.98
658.3	6699.76
658.492	7013.1
658.684	6755.05
658.876	6779.63
659.068	6724.33
659.26	6687.47
659.452	6734.57
659.644	6656.75
659.836	6537.97
660.028	6716.14
660.22	6540.02
660.412	6417.14
660.604	6525.68
660.796	6355.7
660.988	6472.43
661.18	6515.44
661.372	6429.43
661.563	6408.95
661.755	6286.07
661.947	6408.95
662.139	6288.12
662.331	6200.05
662.522	6206.2
662.714	6163.19
662.906	6003.45
663.097	6126.33
663.289	5976.83
663.481	6062.84
663.673	6185.72
663.864	5974.78
664.056	6042.36
664.247	6046.46
664.439	5915.39
664.631	5892.86
664.822	5817.08
665.014	5829.37
665.205	5831.42
665.397	5778.17
665.588	5907.2
665.78	5747.45
665.971	5696.25
666.163	5643.01
666.354	5759.74
666.546	5706.49
666.737	5573.38
666.929	5618.43
667.12	5477.12
667.311	5495.55
667.503	5581.57
667.694	5528.32
667.885	5477.12
668.077	5452.55
668.268	5370.63
668.459	5503.75
668.651	5522.18
668.842	5405.44
669.033	5329.67
669.224	5339.91
669.416	5217.03
669.607	5292.8
669.798	5454.59
669.989	5329.67
670.18	5362.44
670.371	5231.37
670.563	5245.7
670.754	5317.38
670.945	5243.65
671.136	5311.24
671.327	5071.62
671.518	5190.41
671.709	5186.31
671.9	5378.82
672.091	5110.54
672.282	5225.22
672.473	5186.31
672.664	5227.27
672.855	4909.83
673.046	5100.3
673.237	5116.68
673.428	4922.12
673.619	5114.63
673.809	4932.36
674	5014.28
674.191	5067.53
674.382	4838.16
674.573	4975.37
674.764	4985.61
674.954	5104.39
675.145	4973.32
675.336	4801.29
675.527	4973.32
675.717	4854.54
675.908	4752.14
676.099	4934.41
676.289	4893.45
676.48	4778.76
676.671	4832.01
676.861	4891.4
677.052	4860.68
677.243	4905.74
677.433	4803.34
677.624	4789
677.814	4983.56
678.005	4862.73
678.195	4821.77
678.386	4881.16
678.576	4627.21
678.767	4762.38
678.957	4748.04
679.148	4748.04
679.338	4776.72
679.529	4838.16
679.719	4696.85
679.909	4797.2
680.1	4768.52
680.29	4834.06
680.481	4768.52
680.671	4666.13
680.861	4807.44
681.052	4737.81
681.242	4621.07
681.432	4975.37
681.622	4662.03
681.813	4672.27
682.003	4678.41
682.193	4797.2
682.383	4801.29
682.573	4750.09
682.764	4797.2
682.954	4760.33
683.144	4686.61
683.334	4694.8
683.524	4666.13
683.714	4637.45
683.904	4670.22
684.094	4643.6
684.284	4623.12
684.474	4832.01
684.664	4664.08
684.854	4647.69
685.044	4537.1
685.234	4676.37
685.424	4553.49
685.614	4643.6
685.804	4436.75
685.994	4582.16
686.184	4463.38
686.374	4553.49
686.564	4588.3
686.753	4506.38
686.943	4498.19
687.133	4483.86
687.323	4324.12
687.513	4438.8
687.702	4432.66
687.892	4430.61
688.082	4344.6
688.272	4391.7
688.461	4397.84
688.651	4252.44
688.841	4369.17
689.03	4322.07
689.22	4301.59
689.41	4291.35
689.599	4313.88
689.789	4102.93
689.979	4178.71
690.168	4115.22
690.358	4176.66
690.547	4141.85
690.737	4168.47
690.926	4188.95
691.116	4006.68
691.305	4141.85
691.495	3914.52
691.684	4002.58
691.874	4082.46
692.063	3980.06
692.252	4111.13
692.442	3922.71
692.631	4025.11
692.82	4053.78
693.01	3861.27
693.199	3861.27
693.388	3838.75
693.578	3965.72
693.767	3857.18
693.956	3828.51
694.146	3719.96
694.335	3834.65
694.524	3758.88
694.713	3818.27
694.902	3846.94
695.092	3754.78
695.281	3695.39
695.47	3662.62
695.659	3578.65
695.848	3658.53
696.037	3793.69
696.226	3691.29
696.415	3701.53
696.604	3801.88
696.793	3683.1
696.982	3646.24
697.171	3502.88
697.36	3599.13
697.549	3705.63
697.738	3576.61
697.927	3592.99
698.116	3558.18
698.305	3531.55
698.494	3613.47
698.683	3549.98
698.872	3515.17
699.061	3613.47
699.25	3416.87
699.438	3658.53
699.627	3607.33
699.816	3652.38
700.005	3564.32
700.193	3568.41
700.382	3595.04
700.571	3615.52
700.76	3552.03
700.948	3648.29
701.137	3506.98
701.326	3627.81
701.514	3660.57
701.703	3691.29
701.892	3582.75
702.08	3597.09
702.269	3478.3
702.457	3552.03
702.646	3578.65
702.834	3511.07
703.023	3410.72
703.212	3443.49
703.4	3525.41
703.589	3554.08
703.777	3717.92
703.965	3504.93
704.154	3621.66
704.342	3523.36
704.531	3523.36
704.719	3412.77
704.907	3537.7
705.096	3492.64
705.284	3437.34
705.472	3574.56
705.661	3625.76
705.849	3398.43
706.037	3619.61
706.226	3523.36
706.414	3533.6
706.602	3390.24
706.79	3468.06
706.979	3482.4
707.167	3623.71
707.355	3373.86
707.543	3410.72
707.731	3722.01
707.919	3603.23
708.107	3326.75
708.296	3513.12
708.484	3302.18
708.672	3543.84
708.86	3449.63
709.048	3552.03
709.236	3549.98
709.424	3562.27
709.612	3642.14
709.8	3531.55
709.988	3633.95
710.176	3679.01
710.364	3584.8
710.551	3613.47
710.739	3537.7
710.927	3592.99
711.115	3549.98
711.303	3633.95
711.491	3554.08
711.679	3490.59
711.866	3623.71
712.054	3605.28
712.242	3470.11
712.43	3631.9
712.617	3511.07
712.805	3578.65
712.993	3584.8
713.181	3595.04
713.368	3482.4
713.556	3588.89
713.744	3494.69
713.931	3668.77
714.119	3556.13
714.306	3500.83
714.494	3670.81
714.682	3719.96
714.869	3578.65
715.057	3515.17
715.244	3463.97
715.432	3664.67
715.619	3656.48
715.807	3527.46
715.994	3730.2
716.182	3592.99
716.369	3636
716.556	3619.61
716.744	3595.04
716.931	3633.95
717.119	3539.74
717.306	3781.4
717.493	3703.58
717.681	3660.57
717.868	3592.99
718.055	3726.11
718.242	3754.78
718.43	3715.87
718.617	3748.64
718.804	3652.38
718.991	3793.69
719.179	3674.91
719.366	3844.89
719.553	3736.35
719.74	3717.92
719.927	3732.25
720.114	3775.26
720.301	3719.96
720.488	3699.48
720.676	3719.96
720.863	3691.29
721.05	3810.08
721.237	3791.64
721.424	3746.59
721.611	3754.78
721.798	3795.74
721.985	3650.33
722.172	3746.59
722.358	3793.69
722.545	3881.75
722.732	3826.46
722.919	3894.04
723.106	3638.05
723.293	3846.94
723.48	3805.98
723.667	3810.08
723.853	3742.49
724.04	3805.98
724.227	3769.12
724.414	3902.23
724.6	3971.86
724.787	3808.03
724.974	3980.06
725.161	3830.55
725.347	3865.37
725.534	3812.12
725.72	3842.84
725.907	3961.62
726.094	3891.99
726.28	3789.6
726.467	3838.75
726.653	3939.1
726.84	3902.23
727.027	4107.03
727.213	3947.29
727.4	3924.76
727.586	3924.76
727.773	4016.92
727.959	3867.42
728.145	3959.58
728.332	3832.6
728.518	3967.77
728.705	3961.62
728.891	3812.12
729.077	4043.54
729.264	3793.69
729.45	4068.12
729.636	4047.64
729.823	3756.83
730.009	3900.19
730.195	3877.66
730.382	3922.71
730.568	3988.25
730.754	4016.92
730.94	4082.46
731.126	3986.2
731.313	3889.95
731.499	3949.34
731.685	3912.47
731.871	3920.67
732.057	3984.15
732.243	4170.52
732.429	4074.26
732.615	4053.78
732.801	4145.94
732.987	3973.91
733.173	4037.4
733.359	4143.89
733.545	4268.82
733.731	4000.54
733.917	4156.18
734.103	4107.03
734.289	4078.36
734.475	4096.79
734.661	4092.69
734.847	3994.39
735.033	4057.88
735.219	4057.88
735.404	4055.83
735.59	3930.91
735.776	3883.8
735.962	4281.11
736.148	4088.6
736.333	4057.88
736.519	3887.9
736.705	4061.98
736.89	4090.65
737.076	4127.51
737.262	3887.9
737.447	4029.21
737.633	4057.88
737.819	4010.78
738.004	4127.51
738.19	4082.46
738.375	4021.02
738.561	4092.69
738.747	3902.23
738.932	3902.23
739.118	4055.83
739.303	4191
739.489	4016.92
739.674	3953.43
739.859	4107.03
740.045	3910.43
740.23	4035.35
740.416	3848.99
740.601	3834.65
740.786	3699.48
740.972	3783.45
741.157	3861.27
741.342	3801.88
741.528	3832.6
741.713	3873.56
741.898	3793.69
742.084	3908.38
742.269	3957.53
742.454	3861.27
742.639	3885.85
742.824	3826.46
743.01	3779.36
743.195	3793.69
743.38	3771.16
743.565	3810.08
743.75	3717.92
743.935	3715.87
744.12	3879.71
744.305	3719.96
744.49	3715.87
744.675	3640.09
744.86	3722.01
745.045	3683.1
745.23	3730.2
745.415	3582.75
745.6	3785.5
745.785	3683.1
745.97	3693.34
746.155	3562.27
746.34	3570.46
746.525	3466.02
746.71	3592.99
746.895	3519.26
747.079	3506.98
747.264	3474.21
747.449	3646.24
747.634	3517.22
747.819	3509.02
748.003	3336.99
748.188	3386.15
748.373	3324.71
748.557	3261.22
748.742	3320.61
748.927	3398.43
749.111	3238.69
749.296	3429.15
749.481	3277.6
749.665	3263.27
749.85	3121.96
750.034	3273.51
750.219	3173.16
750.404	3162.92
750.588	3101.48
750.773	3144.49
750.957	3189.54
751.141	3023.66
751.326	2982.7
751.51	3003.18
751.695	3142.44
751.879	3078.95
752.064	2997.03
752.248	2884.39
752.432	3097.38
752.617	3035.94
752.801	2882.35
752.985	3007.27
753.17	2779.95
753.354	2913.06
753.538	2943.78
753.722	2757.42
753.907	2781.99
754.091	2786.09
754.275	2722.6
754.459	2829.1
754.643	2802.47
754.828	2718.51
755.012	2685.74
755.196	2689.84
755.38	2646.83
755.564	2571.05
755.748	2646.83
755.932	2747.18
756.116	2544.43
756.3	2474.8
756.484	2464.56
756.668	2456.37
756.852	2347.83
757.036	2452.27
757.22	2390.83
757.404	2423.6
757.588	2403.12
757.772	2480.94
757.956	2382.64
758.14	2530.09
758.323	2399.02
758.507	2374.45
758.691	2313.01
758.875	2407.22
759.059	2302.77
759.242	2345.78
759.426	2370.35
759.61	2288.43
759.794	2181.94
759.977	2249.52
760.161	2462.51
760.345	2409.26
760.528	2231.09
760.712	2253.62
760.895	2145.08
761.079	2038.58
761.263	2050.87
761.446	1997.62
761.63	2130.74
761.813	2165.56
761.997	2106.17
762.18	2153.27
762.364	1981.24
762.547	2011.96
762.731	2075.45
762.914	1991.48
763.098	2116.41
763.281	2134.84
763.464	2030.39
763.648	1989.43
763.831	1991.48
764.015	1876.79
764.198	1952.57
764.381	2020.15
764.564	1993.53
764.748	1893.18
764.931	2014.01
765.114	1991.48
765.297	1915.7
765.481	1901.37
765.664	1823.55
765.847	1821.5
766.03	1905.46
766.213	1901.37
766.397	1860.41
766.58	1872.7
766.763	1891.13
766.946	1790.78
767.129	1762.11
767.312	1876.79
767.495	1860.41
767.678	1807.16
767.861	1858.36
768.044	1848.12
768.227	1733.43
768.41	1747.77
768.593	1723.2
768.776	1647.42
768.959	1667.9
769.142	1729.34
769.324	1678.14
769.507	1667.9
769.69	1727.29
769.873	1641.28
770.056	1813.31
770.239	1620.8
770.421	1665.85
770.604	1665.85
770.787	1684.28
770.97	1633.08
771.152	1626.94
771.335	1549.12
771.518	1606.46
771.7	1704.76
771.883	1545.02
772.066	1598.27
772.248	1686.33
772.431	1639.23
772.613	1506.11
772.796	1581.89
772.978	1463.1
773.161	1594.17
773.343	1454.91
773.526	1641.28
773.708	1504.06
773.891	1450.82
774.073	1387.33
774.256	1407.81
774.438	1542.97
774.621	1473.34
774.803	1346.37
774.985	1407.81
775.168	1338.18
775.35	1362.75
775.532	1461.06
775.715	1344.32
775.897	1459.01
776.079	1276.74
776.261	1299.27
776.444	1344.32
776.626	1248.07
776.808	1258.31
776.99	1307.46
777.173	1336.13
777.355	1315.65
777.537	1342.27
777.719	1266.5
777.901	1188.68
778.083	1370.94
778.265	1123.14
778.447	1237.83
778.629	1188.68
778.811	1155.91
778.993	1280.83
779.175	1196.87
779.357	1219.39
779.539	1123.14
779.721	1151.81
779.903	1221.44
780.085	1127.24
780.267	1117
780.449	1137.48
780.631	1119.04
780.812	1133.38
780.994	1035.08
781.176	1153.86
781.358	1088.32
781.54	1028.93
781.721	1041.22
781.903	1073.99
782.085	1092.42
782.267	1078.08
782.448	1008.45
782.63	1059.65
782.812	1020.74
782.993	951.11
783.175	1002.31
783.357	887.62
783.538	1008.45
783.72	971.59
783.901	906.06
784.083	947.01
784.264	973.64
784.446	852.81
784.627	912.2
784.809	914.25
784.99	928.58
785.172	887.62
785.353	865.1
785.535	842.57
785.716	865.1
785.897	852.81
786.079	918.34
786.26	770.89
786.441	895.82
786.623	817.99
786.804	865.1
786.985	848.71
787.167	824.14
787.348	721.74
787.529	781.13
787.71	830.28
787.891	770.89
788.073	725.83
788.254	719.69
788.435	723.79
788.616	756.55
788.797	631.63
788.978	772.94
789.159	754.51
789.34	715.59
789.522	701.26
789.703	645.96
789.884	748.36
790.065	699.21
790.246	772.94
790.427	668.49
790.607	781.13
790.788	754.51
790.969	697.16
791.15	678.73
791.331	662.35
791.512	635.72
791.693	574.28
791.874	631.63
792.054	717.64
792.235	605
792.416	576.33
792.597	627.53
792.778	627.53
792.958	672.59
793.139	611.15
793.32	625.48
793.5	586.57
793.681	633.68
793.862	617.29
794.042	566.09
794.223	559.95
794.404	586.57
794.584	512.85
794.765	580.43
794.945	549.71
795.126	605
795.306	619.34
795.487	500.56
795.667	553.8
795.848	527.18
796.028	619.34
796.209	492.37
796.389	566.09
796.57	506.7
796.75	525.13
796.93	531.28
797.111	516.94
797.291	525.13
797.471	512.85
797.652	469.84
797.832	510.8
798.012	596.81
798.192	414.54
798.373	467.79
798.553	500.56
798.733	486.22
798.913	445.26
799.093	516.94
799.274	443.21
799.454	508.75
799.634	437.07
799.814	490.32
799.994	445.26
800.174	480.08
800.354	416.59
800.534	435.02
800.714	461.65
800.894	514.89
801.074	484.17
801.254	471.89
801.434	426.83
801.614	508.75
801.794	422.73
801.974	1291.07
802.154	455.5
802.334	430.93
802.514	334.67
802.693	449.36
802.873	410.45
803.053	486.22
803.233	459.6
803.413	387.92
803.592	379.73
803.772	424.78
803.952	365.39
804.131	349.01
804.311	349.01
804.491	428.88
804.67	365.39
804.85	351.06
805.03	435.02
805.209	381.78
805.389	373.58
805.568	361.3
805.748	353.1
805.928	371.54
806.107	432.97
806.287	410.45
806.466	430.93
806.646	273.23
806.825	361.3
807.004	365.39
807.184	392.02
807.363	422.73
807.543	355.15
807.722	265.04
807.901	357.2
808.081	406.35
808.26	277.33
808.439	312.14
808.619	365.39
808.798	344.91
808.977	316.24
809.156	334.67
809.336	301.9
809.515	416.59
809.694	301.9
809.873	349.01
810.052	295.76
810.231	369.49
810.411	346.96
810.59	369.49
810.769	369.49
810.948	340.82
811.127	312.14
811.306	326.48
811.485	279.38
811.664	379.73
811.843	258.9
812.022	332.62
812.201	361.3
812.38	262.99
812.559	224.08
812.737	355.15
812.916	308.05
813.095	222.03
813.274	330.58
813.453	377.68
813.632	361.3
813.811	277.33
813.989	224.08
814.168	328.53
814.347	136.02
814.526	293.71
814.704	283.47
814.883	322.38
815.062	262.99
815.24	387.92
815.419	242.51
815.598	316.24
815.776	228.18
815.955	238.42
816.133	289.62
816.312	283.47
816.49	244.56
816.669	336.72
816.847	250.71
817.026	285.52
817.204	287.57
817.383	271.19
817.561	269.14
817.74	250.71
817.918	306
818.097	179.03
818.275	265.04
818.453	240.47
818.632	250.71
818.81	299.86
818.988	297.81
819.167	174.93
819.345	172.88
819.523	203.6
819.701	240.47
819.879	318.29
820.058	328.53
820.236	291.66
820.414	189.27
820.592	158.55
820.77	252.75
820.948	236.37
821.127	222.03
821.305	322.38
821.483	203.6
821.661	205.65
821.839	236.37
822.017	207.7
822.195	183.12
822.373	250.71
822.551	230.23
822.729	193.36
822.907	254.8
823.085	205.65
823.262	244.56
823.44	162.64
823.618	166.74
823.796	238.42
823.974	185.17
824.152	144.21
824.329	244.56
824.507	195.41
824.685	187.22
824.863	248.66
825.04	176.98
825.218	236.37
825.396	168.79
825.574	219.99
825.751	279.38
825.929	170.83
826.107	140.12
826.284	193.36
826.462	158.55
826.639	207.7
826.817	160.59
826.994	240.47
827.172	146.26
827.349	189.27
827.527	201.55
827.704	172.88
827.882	226.13
828.059	244.56
828.237	117.59
828.414	187.22
828.591	136.02
828.769	121.68
828.946	242.51
829.124	238.42
829.301	179.03
829.478	183.12
829.655	121.68
829.833	195.41
830.01	183.12
830.187	176.98
830.364	240.47
830.542	191.31
830.719	199.51
830.896	164.69
831.073	113.49
831.25	142.16
831.427	109.4
831.604	117.59
831.782	129.88
831.959	103.25
832.136	160.59
832.313	119.64
832.49	101.2
832.667	189.27
832.844	211.79
833.021	287.57
833.198	152.4
833.374	207.7
833.551	144.21
833.728	68.44
833.905	170.83
834.082	109.4
834.259	150.36
834.436	160.59
834.612	209.75
834.789	185.17
834.966	138.07
835.143	160.59
835.319	152.4
835.496	172.88
835.673	146.26
835.85	168.79
836.026	211.79
836.203	156.5
836.38	209.75
836.556	56.15
836.733	0.85
836.909	222.03
837.086	88.92
837.262	105.3
837.439	84.82
837.616	111.44
837.792	168.79
837.968	146.26
838.145	37.72
838.321	205.65
838.498	107.35
838.674	105.3
838.851	205.65
839.027	99.16
839.203	156.5
839.38	123.73
839.556	35.67
839.732	174.93
839.909	125.78
840.085	140.12
840.261	119.64
840.437	156.5
840.614	74.58
840.79	185.17
840.966	113.49
841.142	123.73
841.318	50
841.494	119.64
841.671	82.77
841.847	105.3
842.023	72.53
842.199	152.4
842.375	127.83
842.551	95.06
842.727	136.02
842.903	142.16
843.079	35.67
843.255	181.07
843.431	131.92
843.607	121.68
843.783	72.53
843.959	127.83
844.134	33.62
844.31	95.06
844.486	166.74
844.662	74.58
844.838	70.48
845.013	90.96
845.189	95.06
845.365	140.12
845.541	41.81
845.716	107.35
845.892	117.59
846.068	47.96
846.244	95.06
846.419	144.21
846.595	64.34
846.77	138.07
846.946	113.49
847.122	119.64
847.297	111.44
847.473	146.26
847.648	13.14
847.824	58.2
847.999	115.54
848.175	23.38
848.35	56.15
848.526	183.12
848.701	13.14
848.876	56.15
849.052	101.2
849.227	9.05
849.403	101.2
849.578	131.92
849.753	74.58
849.929	54.1
850.104	131.92
850.279	97.11
850.454	107.35
850.63	97.11
850.805	78.68
850.98	60.24
851.155	99.16
851.33	60.24
851.505	45.91
851.681	107.35
851.856	74.58
852.031	136.02
852.206	150.36
852.381	50
852.556	66.39
852.731	31.57
852.906	105.3
853.081	70.48
853.256	93.01
853.431	15.19
853.606	-5.29
853.781	31.57
853.956	11.09
854.131	90.96
854.305	23.38
854.48	35.67
854.655	52.05
854.83	103.25
855.005	47.96
855.18	86.87
855.354	115.54
855.529	90.96
855.704	52.05
855.879	66.39
856.053	19.29
856.228	68.44
856.403	70.48
856.577	35.67
856.752	60.24
856.926	43.86
857.101	50
857.276	56.15
857.45	50
857.625	70.48
857.799	-1.19
857.974	70.48
858.148	82.77
858.323	97.11
858.497	68.44
858.672	-19.63
858.846	56.15
859.02	41.81
859.195	62.29
859.369	72.53
859.543	133.97
859.718	82.77
859.892	0.85
860.066	76.63
860.241	129.88
860.415	21.33
860.589	82.77
860.763	21.33
860.938	103.25
861.112	119.64
861.286	39.76
861.46	45.91
861.634	70.48
861.808	107.35
861.982	86.87
862.157	15.19
862.331	88.92
862.505	35.67
862.679	47.96
862.853	-21.67
863.027	-31.91
863.201	156.5
863.375	45.91
863.549	35.67
863.722	111.44
863.896	103.25
864.07	-54.44
864.244	39.76
864.418	-9.39
864.592	50
864.766	29.52
864.939	7
865.113	15.19
865.287	70.48
865.461	-5.29
865.634	58.2
865.808	43.86
865.982	95.06
866.156	41.81
866.329	41.81
866.503	27.48
866.676	78.68
866.85	27.48
867.024	60.24
867.197	4.95
867.371	125.78
867.544	107.35
867.718	23.38
867.891	45.91
868.065	58.2
868.238	15.19
868.412	113.49
868.585	43.86
868.759	-7.34
868.932	37.72
869.105	-60.59
869.279	31.57
869.452	-5.29
869.625	7
869.799	52.05
869.972	35.67
870.145	-19.63
870.319	62.29
870.492	25.43
870.665	13.14
870.838	27.48
871.011	66.39
871.185	31.57
871.358	31.57
871.531	95.06
871.704	21.33
871.877	35.67
872.05	37.72
872.223	33.62
872.396	74.58
872.569	105.3
872.742	-21.67
872.915	58.2
873.088	99.16
873.261	43.86
873.434	105.3
873.607	52.05
873.78	80.72
873.953	-25.77
874.126	15.19
874.299	121.68
874.471	58.2
874.644	64.34
874.817	0.85
874.99	121.68
875.163	27.48
875.335	82.77
875.508	64.34
875.681	33.62
875.853	56.15
876.026	-9.39
876.199	111.44
876.371	90.96
876.544	-7.34
876.717	54.1
876.889	-13.48
877.062	33.62
877.234	35.67
877.407	39.76
877.579	45.91
877.752	70.48
877.924	35.67
878.097	64.34
878.269	33.62
878.442	72.53
878.614	41.81
878.786	43.86
878.959	52.05
879.131	68.44
879.303	-1.19
879.476	60.24
879.648	-1.19
879.82	13.14
879.993	68.44
880.165	27.48
880.337	-29.87
880.509	90.96
880.681	-50.35
880.854	27.48
881.026	78.68
881.198	80.72
881.37	56.15
881.542	25.43
881.714	76.63
881.886	80.72
882.058	64.34
882.23	52.05
882.402	2.9
882.574	31.57
882.746	93.01
882.918	86.87
883.09	54.1
883.262	-42.15
883.434	84.82
883.606	-74.92
883.778	50
883.95	136.02
884.122	111.44
884.293	9.05
884.465	-27.82
884.637	60.24
884.809	-11.43
884.98	11.09
885.152	47.96
885.324	17.24
885.496	-9.39
885.667	-9.39
885.839	4.95
886.011	86.87
886.182	47.96
886.354	41.81
886.525	52.05
886.697	33.62
886.869	-15.53
887.04	43.86
887.212	109.4
887.383	119.64
887.555	90.96
887.726	-13.48
887.897	37.72
888.069	2.9
888.24	2.9
888.412	15.19
888.583	60.24
888.754	-3.24
888.926	-31.91
889.097	-11.43
889.268	68.44
889.44	45.91
889.611	-42.15
889.782	-36.01
889.953	82.77
890.125	93.01
890.296	2.9
890.467	37.72
890.638	-5.29
890.809	9.05
890.98	-3.24
891.151	35.67
891.323	21.33
891.494	45.91
891.665	43.86
891.836	-21.67
892.007	-3.24
892.178	80.72
892.349	23.38
892.52	31.57
892.691	-3.24
892.862	45.91
893.032	-15.53
893.203	39.76
893.374	4.95
893.545	72.53
893.716	9.05
893.887	23.38
894.057	13.14
894.228	-1.19
894.399	-31.91
894.57	70.48
894.74	64.34
894.911	7
895.082	37.72
895.253	4.95
895.423	-5.29
895.594	13.14
895.764	90.96
895.935	-44.2
896.106	9.05
896.276	76.63
896.447	35.67
896.617	-38.06
896.788	52.05
896.958	-31.91
897.129	-11.43
897.299	-11.43
897.47	62.29
897.64	47.96
897.81	11.09
897.981	-1.19
898.151	15.19
898.322	45.91
898.492	-15.53
898.662	-19.63
898.832	-101.55
899.003	-21.67
899.173	74.58
899.343	27.48
899.513	-9.39
