Data from USB4F104151__77__12-24-22-465.txt Node

Date: Fri Mar 14 12:24:22 EDT 2025
User: louis
Spectrometer: USB4F10415
Trigger mode: 4
Integration Time (sec): 3.500000E-2
Scans to average: 1
Electric dark correction enabled: true
Nonlinearity correction enabled: false
Boxcar width: 0
XAxis mode: Wavelengths
Number of Pixels in Spectrum: 3648
>>>>>Begin Spectral Data<<<<<
178.204	-100.18
178.424	-100.18
178.644	-100.18
178.864	-120.66
179.084	-89.94
179.304	18.6
179.524	30.89
179.744	45.23
179.964	-14.17
180.184	37.03
180.404	-5.97
180.624	2.22
180.844	-55.12
181.064	-65.36
181.283	24.75
181.503	-5.97
181.723	-12.12
181.943	-32.6
182.163	34.99
182.383	-94.04
182.602	20.65
182.822	84.14
183.042	67.75
183.262	-30.55
183.482	32.94
183.701	-1.88
183.921	59.56
184.141	-67.41
184.361	88.23
184.58	45.23
184.8	47.27
185.02	-8.02
185.239	63.66
185.459	49.32
185.679	53.42
185.898	94.38
186.118	73.9
186.338	28.84
186.557	-1.88
186.777	32.94
186.997	28.84
187.216	61.61
187.436	65.71
187.655	96.43
187.875	75.95
188.095	61.61
188.314	39.08
188.534	63.66
188.753	84.14
188.973	47.27
189.192	18.6
189.412	63.66
189.631	-8.02
189.851	65.71
190.07	26.79
190.29	2.22
190.509	10.41
190.729	-16.21
190.948	65.71
191.168	207.02
191.387	-5.97
191.607	-44.88
191.826	2.22
192.045	8.36
192.265	12.46
192.484	26.79
192.704	57.51
192.923	-42.84
193.142	125.1
193.362	39.08
193.581	110.76
193.8	18.6
194.02	43.18
194.239	6.31
194.458	45.23
194.678	8.36
194.897	28.84
195.116	18.6
195.335	6.31
195.555	67.75
195.774	65.71
195.993	53.42
196.212	-30.55
196.432	37.03
196.651	0.17
196.87	2.22
197.089	147.62
197.308	77.99
197.528	37.03
197.747	55.47
197.966	34.99
198.185	51.37
198.404	61.61
198.623	77.99
198.842	121
199.062	18.6
199.281	41.13
199.5	2.22
199.719	86.19
199.938	0.17
200.157	57.51
200.376	32.94
200.595	26.79
200.814	22.7
201.033	30.89
201.252	98.47
201.471	16.55
201.69	75.95
201.909	12.46
202.128	-34.64
202.347	86.19
202.566	6.31
202.785	41.13
203.004	-61.27
203.223	121
203.442	2.22
203.661	37.03
203.879	-1.88
204.098	69.8
204.317	-24.4
204.536	-48.98
204.755	63.66
204.974	24.75
205.193	4.27
205.411	137.38
205.63	55.47
205.849	88.23
206.068	-5.97
206.287	-79.7
206.505	71.85
206.724	104.62
206.943	10.41
207.162	-12.12
207.381	32.94
207.599	18.6
207.818	65.71
208.037	-18.26
208.255	37.03
208.474	24.75
208.693	6.31
208.911	41.13
209.13	59.56
209.349	16.55
209.567	49.32
209.786	34.99
210.005	14.51
210.223	92.33
210.442	12.46
210.661	39.08
210.879	34.99
211.098	-14.17
211.316	63.66
211.535	-61.27
211.753	34.99
211.972	47.27
212.191	51.37
212.409	51.37
212.628	-14.17
212.846	43.18
213.065	59.56
213.283	51.37
213.502	0.17
213.72	-18.26
213.938	37.03
214.157	-36.69
214.375	59.56
214.594	-48.98
214.812	121
215.031	61.61
215.249	47.27
215.467	-16.21
215.686	98.47
215.904	45.23
216.122	24.75
216.341	63.66
216.559	22.7
216.778	28.84
216.996	53.42
217.214	82.09
217.432	67.75
217.651	-32.6
217.869	-3.93
218.087	-10.07
218.306	71.85
218.524	63.66
218.742	-36.69
218.96	37.03
219.179	2.22
219.397	30.89
219.615	121
219.833	26.79
220.051	-20.31
220.27	37.03
220.488	53.42
220.706	102.57
220.924	-14.17
221.142	98.47
221.36	-20.31
221.578	14.51
221.796	6.31
222.015	24.75
222.233	61.61
222.451	8.36
222.669	-20.31
222.887	57.51
223.105	-10.07
223.323	59.56
223.541	39.08
223.759	24.75
223.977	4.27
224.195	41.13
224.413	65.71
224.631	114.86
224.849	47.27
225.067	47.27
225.285	39.08
225.503	82.09
225.721	-51.03
225.939	34.99
226.157	182.44
226.375	94.38
226.592	55.47
226.81	-20.31
227.028	127.14
227.246	49.32
227.464	75.95
227.682	22.7
227.9	37.03
228.117	51.37
228.335	28.84
228.553	37.03
228.771	24.75
228.989	96.43
229.206	75.95
229.424	18.6
229.642	14.51
229.86	10.41
230.077	34.99
230.295	59.56
230.513	75.95
230.731	37.03
230.948	26.79
231.166	73.9
231.384	-1.88
231.601	-46.93
231.819	37.03
232.037	28.84
232.254	49.32
232.472	28.84
232.689	88.23
232.907	22.7
233.125	37.03
233.342	22.7
233.56	90.28
233.777	-12.12
233.995	6.31
234.213	178.34
234.43	41.13
234.648	57.51
234.865	-3.93
235.083	125.1
235.3	-5.97
235.518	51.37
235.735	43.18
235.953	30.89
236.17	16.55
236.388	92.33
236.605	2.22
236.822	73.9
237.04	16.55
237.257	43.18
237.475	37.03
237.692	-10.07
237.909	104.62
238.127	67.75
238.344	28.84
238.562	49.32
238.779	43.18
238.996	43.18
239.214	-3.93
239.431	59.56
239.648	-55.12
239.865	73.9
240.083	102.57
240.3	71.85
240.517	45.23
240.735	86.19
240.952	34.99
241.169	55.47
241.386	-63.32
241.603	45.23
241.821	-18.26
242.038	4.27
242.255	114.86
242.472	-12.12
242.689	-10.07
242.907	96.43
243.124	47.27
243.341	20.65
243.558	-10.07
243.775	-57.17
243.992	-40.79
244.209	28.84
244.426	88.23
244.643	-5.97
244.86	41.13
245.078	125.1
245.295	-8.02
245.512	32.94
245.729	53.42
245.946	-12.12
246.163	73.9
246.38	4.27
246.597	32.94
246.814	26.79
247.031	39.08
247.248	22.7
247.464	45.23
247.681	6.31
247.898	55.47
248.115	18.6
248.332	0.17
248.549	94.38
248.766	67.75
248.983	14.51
249.2	-5.97
249.417	59.56
249.633	-38.74
249.85	88.23
250.067	43.18
250.284	49.32
250.501	55.47
250.717	0.17
250.934	24.75
251.151	71.85
251.368	82.09
251.585	59.56
251.801	34.99
252.018	4.27
252.235	45.23
252.451	-16.21
252.668	16.55
252.885	-42.84
253.102	139.43
253.318	26.79
253.535	-3.93
253.752	34.99
253.968	24.75
254.185	-10.07
254.401	53.42
254.618	82.09
254.835	34.99
255.051	94.38
255.268	118.95
255.484	-1.88
255.701	26.79
255.917	80.04
256.134	47.27
256.351	32.94
256.567	4.27
256.784	75.95
257	-10.07
257.217	77.99
257.433	39.08
257.65	73.9
257.866	32.94
258.082	16.55
258.299	-14.17
258.515	86.19
258.732	67.75
258.948	39.08
259.165	166.06
259.381	77.99
259.597	110.76
259.814	43.18
260.03	39.08
260.246	73.9
260.463	59.56
260.679	82.09
260.895	90.28
261.112	39.08
261.328	47.27
261.544	28.84
261.761	133.29
261.977	8.36
262.193	-69.46
262.409	26.79
262.626	96.43
262.842	12.46
263.058	34.99
263.274	28.84
263.49	16.55
263.707	28.84
263.923	16.55
264.139	-28.5
264.355	39.08
264.571	51.37
264.787	59.56
265.004	10.41
265.22	67.75
265.436	-10.07
265.652	10.41
265.868	153.77
266.084	-1.88
266.3	-3.93
266.516	-24.4
266.732	69.8
266.948	45.23
267.164	-1.88
267.38	55.47
267.596	41.13
267.812	59.56
268.028	88.23
268.244	28.84
268.46	26.79
268.676	34.99
268.892	47.27
269.108	24.75
269.324	4.27
269.54	20.65
269.756	61.61
269.972	39.08
270.188	16.55
270.403	65.71
270.619	39.08
270.835	67.75
271.051	12.46
271.267	0.17
271.483	71.85
271.698	104.62
271.914	20.65
272.13	69.8
272.346	63.66
272.562	73.9
272.777	28.84
272.993	26.79
273.209	59.56
273.425	10.41
273.64	-1.88
273.856	67.75
274.072	86.19
274.287	-18.26
274.503	100.52
274.719	90.28
274.934	98.47
275.15	-16.21
275.366	-24.4
275.581	39.08
275.797	10.41
276.012	20.65
276.228	51.37
276.444	30.89
276.659	71.85
276.875	-14.17
277.09	28.84
277.306	69.8
277.521	73.9
277.737	71.85
277.952	45.23
278.168	24.75
278.383	43.18
278.599	22.7
278.814	96.43
279.03	43.18
279.245	67.75
279.461	-3.93
279.676	63.66
279.892	10.41
280.107	-26.45
280.322	-30.55
280.538	6.31
280.753	22.7
280.969	32.94
281.184	41.13
281.399	90.28
281.615	53.42
281.83	37.03
282.045	61.61
282.26	12.46
282.476	94.38
282.691	43.18
282.906	90.28
283.122	71.85
283.337	6.31
283.552	45.23
283.767	-14.17
283.983	22.7
284.198	63.66
284.413	84.14
284.628	34.99
284.843	65.71
285.058	-1.88
285.274	41.13
285.489	20.65
285.704	53.42
285.919	-48.98
286.134	20.65
286.349	90.28
286.564	18.6
286.779	43.18
286.995	22.7
287.21	-34.64
287.425	82.09
287.64	20.65
287.855	116.9
288.07	-20.31
288.285	30.89
288.5	59.56
288.715	28.84
288.93	-8.02
289.145	-20.31
289.36	51.37
289.575	14.51
289.79	8.36
290.004	114.86
290.219	100.52
290.434	-32.6
290.649	47.27
290.864	43.18
291.079	0.17
291.294	6.31
291.509	77.99
291.724	-28.5
291.938	30.89
292.153	55.47
292.368	30.89
292.583	102.57
292.798	67.75
293.012	4.27
293.227	45.23
293.442	-38.74
293.657	61.61
293.871	49.32
294.086	135.34
294.301	65.71
294.516	2.22
294.73	12.46
294.945	12.46
295.16	51.37
295.374	121
295.589	96.43
295.804	-3.93
296.018	51.37
296.233	100.52
296.447	-53.08
296.662	14.51
296.877	82.09
297.091	67.75
297.306	59.56
297.52	-24.4
297.735	96.43
297.949	84.14
298.164	73.9
298.378	65.71
298.593	20.65
298.807	10.41
299.022	71.85
299.236	18.6
299.451	6.31
299.665	55.47
299.88	30.89
300.094	32.94
300.309	34.99
300.523	86.19
300.737	75.95
300.952	71.85
301.166	84.14
301.381	86.19
301.595	-12.12
301.809	47.27
302.024	32.94
302.238	63.66
302.452	63.66
302.667	-22.36
302.881	141.48
303.095	47.27
303.309	118.95
303.524	6.31
303.738	43.18
303.952	-14.17
304.166	39.08
304.381	37.03
304.595	12.46
304.809	51.37
305.023	75.95
305.237	-8.02
305.452	92.33
305.666	55.47
305.88	98.47
306.094	49.32
306.308	69.8
306.522	92.33
306.736	61.61
306.95	77.99
307.164	82.09
307.379	43.18
307.593	71.85
307.807	22.7
308.021	49.32
308.235	37.03
308.449	55.47
308.663	4.27
308.877	100.52
309.091	32.94
309.305	32.94
309.519	0.17
309.733	16.55
309.947	-69.46
310.161	63.66
310.374	125.1
310.588	49.32
310.802	-14.17
311.016	32.94
311.23	55.47
311.444	37.03
311.658	55.47
311.872	80.04
312.085	88.23
312.299	39.08
312.513	77.99
312.727	90.28
312.941	116.9
313.154	-8.02
313.368	65.71
313.582	26.79
313.796	69.8
314.009	102.57
314.223	45.23
314.437	49.32
314.651	67.75
314.864	65.71
315.078	26.79
315.292	0.17
315.505	30.89
315.719	4.27
315.933	10.41
316.146	-30.55
316.36	34.99
316.573	53.42
316.787	114.86
317.001	16.55
317.214	-67.41
317.428	47.27
317.641	6.31
317.855	84.14
318.068	-30.55
318.282	106.67
318.495	125.1
318.709	104.62
318.922	43.18
319.136	75.95
319.349	71.85
319.563	0.17
319.776	73.9
319.99	80.04
320.203	96.43
320.417	-57.17
320.63	96.43
320.843	16.55
321.057	47.27
321.27	102.57
321.483	65.71
321.697	-3.93
321.91	90.28
322.124	0.17
322.337	69.8
322.55	45.23
322.763	75.95
322.977	18.6
323.19	12.46
323.403	-14.17
323.617	4.27
323.83	98.47
324.043	65.71
324.256	18.6
324.469	69.8
324.683	61.61
324.896	47.27
325.109	43.18
325.322	59.56
325.535	145.58
325.748	67.75
325.962	10.41
326.175	22.7
326.388	151.72
326.601	73.9
326.814	-14.17
327.027	28.84
327.24	65.71
327.453	-18.26
327.666	133.29
327.879	47.27
328.092	10.41
328.305	71.85
328.518	63.66
328.731	16.55
328.944	39.08
329.157	28.84
329.37	65.71
329.583	157.86
329.796	20.65
330.009	-3.93
330.222	45.23
330.435	55.47
330.648	96.43
330.861	77.99
331.073	-1.88
331.286	43.18
331.499	45.23
331.712	-1.88
331.925	-8.02
332.138	63.66
332.35	108.71
332.563	12.46
332.776	34.99
332.989	32.94
333.202	18.6
333.414	53.42
333.627	-12.12
333.84	100.52
334.053	20.65
334.265	-20.31
334.478	-20.31
334.691	61.61
334.903	57.51
335.116	28.84
335.329	26.79
335.541	98.47
335.754	139.43
335.966	65.71
336.179	34.99
336.392	-8.02
336.604	112.81
336.817	112.81
337.029	10.41
337.242	41.13
337.454	37.03
337.667	41.13
337.88	37.03
338.092	47.27
338.305	69.8
338.517	-5.97
338.729	118.95
338.942	8.36
339.154	-55.12
339.367	30.89
339.579	69.8
339.792	63.66
340.004	96.43
340.217	49.32
340.429	116.9
340.641	39.08
340.854	-3.93
341.066	14.51
341.278	28.84
341.491	34.99
341.703	49.32
341.915	69.8
342.128	80.04
342.34	69.8
342.552	4.27
342.764	114.86
342.977	30.89
343.189	100.52
343.401	51.37
343.613	104.62
343.826	125.1
344.038	102.57
344.25	20.65
344.462	6.31
344.674	102.57
344.886	55.47
345.099	100.52
345.311	71.85
345.523	41.13
345.735	0.17
345.947	14.51
346.159	57.51
346.371	-8.02
346.583	63.66
346.795	10.41
347.007	37.03
347.219	61.61
347.431	139.43
347.643	98.47
347.855	125.1
348.067	59.56
348.279	-36.69
348.491	22.7
348.703	18.6
348.915	69.8
349.127	4.27
349.339	24.75
349.551	14.51
349.763	127.14
349.975	86.19
350.187	39.08
350.399	86.19
350.61	108.71
350.822	4.27
351.034	63.66
351.246	75.95
351.458	125.1
351.669	77.99
351.881	86.19
352.093	106.67
352.305	96.43
352.517	88.23
352.728	73.9
352.94	-8.02
353.152	104.62
353.363	47.27
353.575	34.99
353.787	34.99
353.999	137.38
354.21	84.14
354.422	26.79
354.633	-8.02
354.845	75.95
355.057	24.75
355.268	53.42
355.48	75.95
355.692	-30.55
355.903	-5.97
356.115	-42.84
356.326	14.51
356.538	100.52
356.749	82.09
356.961	100.52
357.172	84.14
357.384	18.6
357.595	82.09
357.807	34.99
358.018	106.67
358.23	53.42
358.441	166.06
358.653	104.62
358.864	14.51
359.075	22.7
359.287	59.56
359.498	106.67
359.709	47.27
359.921	2.22
360.132	88.23
360.344	102.57
360.555	57.51
360.766	61.61
360.977	67.75
361.189	86.19
361.4	-12.12
361.611	-1.88
361.823	34.99
362.034	-3.93
362.245	0.17
362.456	61.61
362.667	67.75
362.879	41.13
363.09	24.75
363.301	47.27
363.512	26.79
363.723	55.47
363.935	67.75
364.146	55.47
364.357	51.37
364.568	121
364.779	39.08
364.99	34.99
365.201	24.75
365.412	53.42
365.623	0.17
365.834	57.51
366.045	116.9
366.256	71.85
366.467	71.85
366.678	75.95
366.889	69.8
367.1	20.65
367.311	39.08
367.522	18.6
367.733	65.71
367.944	43.18
368.155	45.23
368.366	84.14
368.577	106.67
368.788	14.51
368.999	51.37
369.209	84.14
369.42	80.04
369.631	170.15
369.842	39.08
370.053	86.19
370.264	98.47
370.474	-3.93
370.685	53.42
370.896	133.29
371.107	32.94
371.317	75.95
371.528	61.61
371.739	116.9
371.95	47.27
372.16	61.61
372.371	2.22
372.582	53.42
372.792	18.6
373.003	2.22
373.214	80.04
373.424	75.95
373.635	32.94
373.846	80.04
374.056	114.86
374.267	53.42
374.477	94.38
374.688	16.55
374.898	57.51
375.109	32.94
375.319	53.42
375.53	53.42
375.74	90.28
375.951	20.65
376.161	82.09
376.372	100.52
376.582	20.65
376.793	116.9
377.003	41.13
377.214	80.04
377.424	75.95
377.635	10.41
377.845	-40.79
378.055	0.17
378.266	57.51
378.476	121
378.686	133.29
378.897	77.99
379.107	94.38
379.317	-65.36
379.528	32.94
379.738	112.81
379.948	12.46
380.158	65.71
380.369	65.71
380.579	59.56
380.789	47.27
380.999	82.09
381.21	-12.12
381.42	-14.17
381.63	24.75
381.84	77.99
382.05	98.47
382.261	73.9
382.471	80.04
382.681	47.27
382.891	80.04
383.101	32.94
383.311	6.31
383.521	75.95
383.731	75.95
383.941	86.19
384.151	114.86
384.361	53.42
384.571	75.95
384.781	47.27
384.991	88.23
385.201	112.81
385.411	164.01
385.621	20.65
385.831	-1.88
386.041	8.36
386.251	39.08
386.461	106.67
386.671	43.18
386.881	37.03
387.091	114.86
387.301	170.15
387.511	77.99
387.72	45.23
387.93	65.71
388.14	-73.56
388.35	127.14
388.56	102.57
388.769	108.71
388.979	155.82
389.189	104.62
389.399	59.56
389.609	73.9
389.818	133.29
390.028	65.71
390.238	82.09
390.447	53.42
390.657	41.13
390.867	12.46
391.076	18.6
391.286	43.18
391.496	114.86
391.705	47.27
391.915	133.29
392.125	86.19
392.334	55.47
392.544	108.71
392.753	108.71
392.963	53.42
393.172	172.2
393.382	59.56
393.591	75.95
393.801	123.05
394.01	94.38
394.22	88.23
394.429	139.43
394.639	55.47
394.848	80.04
395.058	28.84
395.267	45.23
395.477	94.38
395.686	102.57
395.895	116.9
396.105	8.36
396.314	131.24
396.524	159.91
396.733	92.33
396.942	139.43
397.152	47.27
397.361	71.85
397.57	61.61
397.78	45.23
397.989	118.95
398.198	127.14
398.407	106.67
398.617	55.47
398.826	86.19
399.035	14.51
399.244	86.19
399.453	110.76
399.663	63.66
399.872	135.34
400.081	41.13
400.29	131.24
400.499	59.56
400.708	217.26
400.917	69.8
401.127	69.8
401.336	63.66
401.545	164.01
401.754	129.19
401.963	143.53
402.172	98.47
402.381	88.23
402.59	104.62
402.799	77.99
403.008	149.67
403.217	110.76
403.426	102.57
403.635	172.2
403.844	211.11
404.053	161.96
404.262	104.62
404.471	170.15
404.68	114.86
404.888	151.72
405.097	157.86
405.306	139.43
405.515	139.43
405.724	139.43
405.933	100.52
406.142	110.76
406.35	155.82
406.559	151.72
406.768	157.86
406.977	153.77
407.185	231.59
407.394	170.15
407.603	86.19
407.812	241.83
408.02	266.41
408.229	182.44
408.438	219.3
408.646	180.39
408.855	182.44
409.064	184.49
409.272	164.01
409.481	336.04
409.69	303.27
409.898	202.92
410.107	272.55
410.315	327.85
410.524	270.5
410.733	313.51
410.941	303.27
411.15	338.09
411.358	329.89
411.567	385.19
411.775	313.51
411.984	385.19
412.192	344.23
412.401	350.37
412.609	440.48
412.818	432.29
413.026	391.33
413.234	379.04
413.443	395.43
413.651	465.06
413.86	352.42
414.068	520.35
414.276	538.79
414.485	544.93
414.693	579.75
414.901	594.08
415.11	616.61
415.318	645.28
415.526	694.43
415.734	694.43
415.943	596.13
416.151	710.82
416.359	751.78
416.567	796.83
416.776	805.02
416.984	725.15
417.192	768.16
417.4	792.73
417.608	839.84
417.817	827.55
418.025	862.37
418.233	983.2
418.441	950.43
418.649	962.72
418.857	1036.44
419.065	1196.18
419.273	1044.63
419.481	1110.17
419.689	1167.51
419.897	1224.86
420.105	1212.57
420.313	1259.67
420.521	1341.59
420.729	1427.6
420.937	1355.93
421.145	1396.89
421.353	1618.07
421.561	1544.34
421.769	1579.15
421.977	1671.31
422.185	1788.05
422.393	1857.68
422.601	1831.05
422.809	1788.05
423.017	1951.88
423.224	2009.23
423.432	1904.78
423.64	2087.05
423.848	2304.14
424.056	2166.92
424.263	2308.23
424.471	2295.94
424.679	2486.4
424.887	2594.95
425.094	2488.45
425.302	2590.85
425.51	2691.2
425.718	2730.11
425.925	2799.74
426.133	2889.85
426.341	3154.04
426.548	3168.38
426.756	3186.81
426.964	3285.11
427.171	3559.54
427.379	3537.01
427.586	3547.25
427.794	3743.86
428.001	3803.25
428.209	4046.96
428.417	3919.98
428.624	4362.34
428.832	4272.23
429.039	4241.51
429.247	4288.62
429.454	4628.58
429.662	5146.72
429.869	4581.48
430.076	5011.55
430.284	4784.23
430.491	5013.6
430.699	5269.59
430.906	5470.3
431.114	5369.94
431.321	5736.53
431.528	5691.48
431.736	6109.26
431.943	6463.56
432.15	6197.32
432.358	6328.39
432.565	6608.97
432.772	6606.92
432.979	7061.57
433.187	6993.98
433.394	7030.85
433.601	7651.38
433.808	7651.38
434.016	7651.38
434.223	8003.63
434.43	8392.75
434.637	8241.2
434.844	8747.05
435.052	8921.12
435.259	8753.19
435.466	8945.7
435.673	8845.35
435.88	9302.04
436.087	9844.76
436.294	9791.51
436.501	9656.34
436.708	10000.4
436.915	10190.86
437.122	10676.23
437.329	10635.27
437.537	11046.91
437.743	11261.95
437.95	11020.29
438.157	11622.39
438.364	12023.8
438.571	11876.34
438.778	12101.62
438.985	13348.83
439.192	12697.58
439.399	12980.2
439.606	12769.26
439.813	13432.8
440.02	14331.86
440.227	14102.48
440.433	14024.66
440.64	14344.14
440.847	14202.83
441.054	14591.95
441.261	15509.44
441.467	15468.48
441.674	15855.54
441.881	16426.93
442.088	16326.58
442.294	16060.34
442.501	16619.44
442.708	16824.23
442.914	17358.75
443.121	18460.56
443.328	17758.11
443.534	19179.4
443.741	18505.62
443.948	18493.33
444.154	19632
444.361	19541.89
444.568	19812.22
444.774	19959.67
444.981	20039.54
445.187	20307.83
445.394	21362.53
445.6	21055.34
445.807	23373.64
446.013	22194.01
446.22	22712.14
446.426	23498.56
446.633	23555.91
446.839	24786.74
447.046	23615.3
447.252	24913.71
447.459	24854.32
447.665	24565.56
447.871	26023.71
448.078	26824.47
448.284	25696.03
448.491	26253.08
448.697	27354.89
448.903	27729.67
449.11	28163.84
449.316	27719.43
449.522	28147.45
449.728	28686.07
449.935	28921.59
450.141	29110
450.347	29480.68
450.553	28350.2
450.76	28942.07
450.966	29910.75
451.172	29470.44
451.378	30422.75
451.584	29388.52
451.791	30281.44
451.997	30389.98
452.203	30856.92
452.409	30914.26
452.615	30498.52
452.821	29599.46
453.027	29071.09
453.233	30789.33
453.44	29499.11
453.646	29863.65
453.852	30088.93
454.058	30723.8
454.264	29642.47
454.47	30150.37
454.676	29232.88
454.882	30193.37
455.088	27715.33
455.294	28245.76
455.5	28432.12
455.705	28561.14
455.911	27547.4
456.117	27031.31
456.323	26758.93
456.529	25397.03
456.735	26554.13
456.941	25806.62
457.147	25325.35
457.352	24645.43
457.558	24379.19
457.764	24284.98
457.97	23756.61
458.176	23404.36
458.381	23424.84
458.587	22142.81
458.793	22425.43
458.999	21110.63
459.204	22552.4
459.41	21954.4
459.616	20565.87
459.821	20664.18
460.027	19916.67
460.233	19967.87
460.438	18909.07
460.644	19183.49
460.85	18175.89
461.055	17833.88
461.261	17670.05
461.466	16517.04
461.672	16201.65
461.878	16961.45
462.083	16160.69
462.289	15679.42
462.494	15652.8
462.7	14903.24
462.905	14581.71
463.111	14682.06
463.316	15091.65
463.522	14737.35
463.727	14993.35
463.932	14739.4
464.138	14698.44
464.343	14694.35
464.549	14233.55
464.754	14776.27
464.959	14688.2
465.165	14397.39
465.37	13985.75
465.575	13641.69
465.781	14120.92
465.986	14266.32
466.191	13555.68
466.397	13371.36
466.602	12464.11
466.807	13158.37
467.012	13215.71
467.218	13137.89
467.423	13371.36
467.628	13352.93
467.833	13633.5
468.038	13006.82
468.244	12912.61
468.449	13184.99
468.654	12748.78
468.859	12599.27
469.064	12787.69
469.269	12210.16
469.474	12382.19
469.679	12460.01
469.885	12158.96
470.09	12318.7
470.295	12191.73
470.5	11759.61
470.705	12074.99
470.91	11831.29
471.115	11612.15
471.32	11902.97
471.525	11640.83
471.73	11442.17
471.935	11462.65
472.139	10901.51
472.344	11202.56
472.549	11087.87
472.754	10803.21
472.959	10795.01
473.164	10491.91
473.369	10543.11
473.574	10764.29
473.778	10811.4
473.983	10315.79
474.188	10356.75
474.393	10084.37
474.598	9975.83
474.802	10086.42
475.007	9967.63
475.212	9908.24
475.417	9490.46
475.621	9703.45
475.826	9461.79
476.031	9500.7
476.235	9164.83
476.44	9467.93
476.645	9216.03
476.849	9136.16
477.054	9125.92
477.259	8953.89
477.463	8919.07
477.668	8818.72
477.872	8824.87
478.077	8628.26
478.282	8462.38
478.486	8312.88
478.691	8482.86
478.895	8233.01
479.1	8357.93
479.304	8400.94
479.509	7868.47
479.713	8237.1
479.918	7974.96
480.122	7870.51
480.326	8048.69
480.531	8060.98
480.735	7884.85
480.94	7798.84
481.144	8052.78
481.348	7770.16
481.553	7821.36
481.757	7630.9
481.961	7890.99
482.166	7712.82
482.37	7868.47
482.574	7616.57
482.778	7700.53
482.983	7796.79
483.187	7594.04
483.391	7518.26
483.595	7675.96
483.8	7567.42
484.004	7847.99
484.208	7690.29
484.412	7880.75
484.616	7622.71
484.821	7671.86
485.025	7440.44
485.229	7594.04
485.433	7712.82
485.637	7514.17
485.841	7614.52
486.045	7602.23
486.249	7702.58
486.453	7630.9
486.657	7647.29
486.861	7641.14
487.065	7395.39
487.269	7747.64
487.473	7696.44
487.677	7829.56
487.881	7952.43
488.085	7653.43
488.289	7852.08
488.493	7708.73
488.697	7753.78
488.901	7882.8
489.105	7612.47
489.309	7755.83
489.512	7958.58
489.716	7835.7
489.92	7684.15
490.124	7893.04
490.328	8017.97
490.531	7766.07
490.735	7825.46
490.939	8071.22
491.143	7872.56
491.346	7925.81
491.55	8063.02
491.754	8060.98
491.958	8050.74
492.161	8011.82
492.365	8146.99
492.569	7950.39
492.772	8249.39
492.976	8286.25
493.18	8198.19
493.383	8294.44
493.587	8263.72
493.79	8437.8
493.994	8251.44
494.197	8435.75
494.401	8681.51
494.605	8665.13
494.808	8687.65
495.012	8669.22
495.215	8992.8
495.419	8912.93
495.622	8826.92
495.825	8804.39
496.029	9068.58
496.232	9246.75
496.436	9035.81
496.639	9381.92
496.843	9236.51
497.046	9537.56
497.249	9541.66
497.453	9832.47
497.656	9666.58
497.859	9662.49
498.063	9676.82
498.266	10160.14
498.469	10182.67
498.673	10176.53
498.876	10444.81
499.079	10358.8
499.282	10385.42
499.485	10657.8
499.689	10733.57
499.892	10983.43
500.095	10864.64
500.298	11102.21
500.501	11059.2
500.705	11380.73
500.908	11343.87
501.111	11536.38
501.314	11683.83
501.517	11853.81
501.72	11923.44
501.923	12124.15
502.126	12300.27
502.329	12449.77
502.532	12341.23
502.735	12687.34
502.938	12830.69
503.141	13072.36
503.344	13350.88
503.547	13164.51
503.75	13393.89
503.953	13469.66
504.156	13576.16
504.359	13641.69
504.562	14010.32
504.765	14096.34
504.968	14331.86
505.17	14415.82
505.373	14458.83
505.576	14598.09
505.779	14813.13
505.982	15136.71
506.185	15366.08
506.387	15353.79
506.59	15419.33
506.793	15693.76
506.996	15929.27
507.198	16297.91
507.401	16019.38
507.604	16273.33
507.807	16437.17
508.009	16838.57
508.212	17037.22
508.415	17256.36
508.617	17102.76
508.82	17563.55
509.022	17256.36
509.225	18110.36
509.428	17846.17
509.63	18155.41
509.833	18175.89
510.035	18882.44
510.238	18796.43
510.44	19029.9
510.643	19099.53
510.845	19498.88
511.048	19392.39
511.25	19683.2
511.453	20074.36
511.655	20549.49
511.858	20234.1
512.06	20774.77
512.262	21063.53
512.465	20768.62
512.667	21155.69
512.87	21362.53
513.072	21704.54
513.274	22155.1
513.477	22282.07
513.679	22151
513.881	22806.35
514.084	22947.66
514.286	22785.87
514.488	23060.3
514.69	23715.65
514.893	23586.63
515.095	24233.78
515.297	24338.23
515.499	24721.2
515.701	24880.94
515.904	24948.53
516.106	25251.63
516.308	25429.8
516.51	25988.89
516.712	25624.36
516.914	26326.81
517.116	26568.47
517.318	26531.61
517.52	27012.88
517.722	26998.54
517.925	27698.95
518.127	27975.42
518.329	28122.88
518.531	28014.34
518.733	28579.57
518.935	28993.26
519.136	28737.27
519.338	29431.53
519.54	29482.73
519.742	29861.6
519.944	29906.66
520.146	30574.3
520.348	30375.64
520.55	30783.19
520.752	31047.38
520.954	31506.12
521.155	31123.15
521.357	32005.83
521.559	32396.99
521.761	32485.05
521.963	32487.1
522.164	32861.88
522.366	33382.06
522.568	33367.73
522.77	33664.68
522.971	33992.36
523.173	33846.95
523.375	34125.47
523.576	34231.97
523.778	34811.54
523.98	35145.36
524.181	35448.46
524.383	35352.21
524.584	35864.2
524.786	35798.66
524.988	35739.27
525.189	36306.56
525.391	36333.18
525.592	36327.04
525.794	36859.51
525.995	37088.88
526.197	37170.8
526.398	37443.18
526.6	37566.06
526.801	37895.78
527.003	37940.84
527.204	38137.44
527.406	38360.67
527.607	38219.36
527.808	38800.99
528.01	38409.82
528.211	38608.48
528.412	39147.09
528.614	39597.65
528.815	39218.77
529.016	39872.07
529.218	39464.53
529.419	39333.46
529.62	39728.72
529.822	39747.15
530.023	39890.51
530.224	39812.68
530.425	39706.19
530.626	39585.36
530.828	39886.41
531.029	40898.11
531.23	40087.11
531.431	40300.1
531.632	40521.28
531.833	40713.79
532.035	40883.77
532.236	40396.35
532.437	40721.98
532.638	40648.25
532.839	40517.18
533.04	41090.62
533.241	40834.62
533.442	41395.76
533.643	40840.76
533.844	41082.42
534.045	41160.25
534.246	40830.52
534.447	41356.85
534.648	41305.65
534.849	41383.48
535.05	40973.88
535.251	41045.56
535.451	41268.79
535.652	40922.68
535.853	41389.62
536.054	41158.2
536.255	41387.57
536.456	41012.79
536.657	41850.41
536.857	41127.48
537.058	41074.23
537.259	41760.3
537.46	41547.31
537.66	41451.06
537.861	41553.46
538.062	41408.05
538.263	41545.26
538.463	41520.69
538.664	41184.82
538.865	41322.04
539.065	41741.87
539.266	41158.2
539.466	41426.48
539.667	40992.31
539.868	41270.84
540.068	41160.25
540.269	41627.18
540.469	41231.93
540.67	41229.88
540.87	41276.98
541.071	41111.1
541.271	41537.07
541.472	40977.98
541.672	41401.91
541.873	41223.73
542.073	40715.84
542.274	41551.41
542.474	41143.86
542.675	41049.66
542.875	41782.83
543.075	41113.14
543.276	41027.13
543.476	41553.46
543.676	40695.36
543.877	41188.92
544.077	40947.26
544.277	41164.34
544.478	41360.95
544.678	41109.05
544.878	41567.79
545.078	41401.91
545.279	40662.59
545.479	40773.18
545.679	40922.68
545.879	40857.15
546.079	41213.49
546.28	40914.49
546.48	41053.75
546.68	41489.97
546.88	41096.76
547.08	41178.68
547.28	40906.3
547.48	40799.8
547.68	41272.88
547.88	41102.9
548.081	41461.3
548.281	40715.84
548.481	41076.28
548.681	40836.67
548.881	40828.48
549.081	41176.63
549.28	41070.14
549.48	41358.9
549.68	40920.63
549.88	41444.91
550.08	40570.43
550.28	40887.87
550.48	40775.23
550.68	41104.95
550.88	40857.15
551.08	40840.76
551.279	41086.52
551.479	40511.04
551.679	41358.9
551.879	40924.73
552.079	41319.99
552.278	41059.9
552.478	40965.69
552.678	40808
552.878	41102.9
553.077	40914.49
553.277	40441.41
553.477	41227.83
553.676	40529.47
553.876	40920.63
554.076	40617.53
554.275	40588.86
554.475	40410.69
554.674	40437.31
554.874	40265.28
555.074	40373.83
555.273	40527.42
555.473	40642.11
555.672	40420.93
555.872	40328.77
556.071	40584.77
556.271	40314.44
556.47	39923.27
556.67	40025.67
556.869	39890.51
557.068	40236.61
557.268	39927.37
557.467	39366.23
557.667	40017.48
557.866	39947.85
558.065	39495.25
558.265	39140.95
558.464	39241.3
558.663	39929.42
558.863	39145.05
559.062	39745.1
559.261	39433.81
559.461	39712.33
559.66	38854.23
559.859	39206.48
560.058	38631.01
560.258	39132.76
560.457	38583.9
560.656	39069.27
560.855	38807.13
561.054	39079.51
561.253	38381.15
561.453	38458.98
561.652	38774.36
561.851	38731.36
562.05	38454.88
562.249	38286.95
562.448	38526.56
562.647	38286.95
562.846	37891.69
563.045	38383.2
563.244	37703.28
563.443	38276.71
563.642	37277.3
563.841	37690.99
564.04	37588.59
564.239	37981.8
564.438	37191.28
564.637	37449.33
564.836	37441.14
565.035	36912.76
565.234	37469.81
565.432	36882.04
565.631	36882.04
565.83	36638.33
566.029	36339.33
566.228	36542.08
566.427	36718.2
566.625	36243.07
566.824	35851.91
567.023	35952.26
567.222	35718.79
567.42	35882.63
567.619	36112
567.818	35878.54
568.016	35622.54
568.215	35884.68
568.414	35573.39
568.612	35845.77
568.811	35407.5
569.01	35171.99
569.208	34934.42
569.407	35133.07
569.605	34817.69
569.804	34795.16
570.002	34193.06
570.201	34684.57
570.4	34524.83
570.598	34526.88
570.797	34004.64
570.995	34000.55
571.193	33498.8
571.392	34166.43
571.59	33656.49
571.789	33844.9
571.987	33892.01
572.186	33685.16
572.384	33298.09
572.582	33556.14
572.781	33570.47
572.979	32755.38
573.177	33179.31
573.376	32769.72
573.574	32351.93
573.772	32644.79
573.971	32536.25
574.169	32128.7
574.367	32204.48
574.565	32548.54
574.763	31868.61
574.962	32122.56
575.16	31694.54
575.358	31753.93
575.556	31514.31
575.754	32282.3
575.952	31424.2
576.151	31483.59
576.349	31000.27
576.547	31260.37
576.745	31102.67
576.943	31176.4
577.141	30893.78
577.339	31037.14
577.537	30734.04
577.735	30703.32
577.933	30639.83
578.131	30801.62
578.329	30654.17
578.527	30230.24
578.725	30289.63
578.923	30492.38
579.121	29816.55
579.319	30193.37
579.516	29773.54
579.714	29662.95
579.912	30015.2
580.11	29505.26
580.308	29939.43
580.506	29540.07
580.704	29034.22
580.901	29574.89
581.099	29492.97
581.297	29062.9
581.495	28833.52
581.692	28739.32
581.89	28751.6
582.088	29003.5
582.285	28448.5
582.483	28995.31
582.681	28755.7
582.878	28301.05
583.076	28020.48
583.274	28479.22
583.471	27956.99
583.669	28237.56
583.866	27834.11
584.064	28057.34
584.262	27717.38
584.459	28079.87
584.657	27795.2
584.854	27979.52
585.052	27561.73
585.249	27354.89
585.447	27623.17
585.644	27170.57
585.841	27252.49
586.039	27135.76
586.236	26797.84
586.434	26969.87
586.631	26801.94
586.828	26793.75
587.026	26892.05
587.223	26584.85
587.42	26335
587.618	26525.46
587.815	25999.13
588.012	26248.99
588.21	26036
588.407	26183.45
588.604	26246.94
588.801	25677.6
588.999	25788.19
589.196	25722.66
589.393	25669.41
589.59	25751.33
589.787	25419.56
589.984	25454.37
590.182	25179.95
590.379	25495.33
590.576	25351.98
590.773	25206.57
590.97	25229.1
591.167	25286.44
591.364	24852.27
591.561	24977.2
591.758	24497.97
591.955	24371
592.152	24721.2
592.349	24440.63
592.546	24641.33
592.743	24971.05
592.94	23940.93
593.137	24368.95
593.334	24395.57
593.531	23914.3
593.727	24354.62
593.924	23877.44
594.121	23807.81
594.318	23746.37
594.515	23459.65
594.712	23832.38
594.908	23517
595.105	23392.07
595.302	23293.77
595.499	23500.61
595.696	23252.81
595.892	23058.25
596.089	23351.11
596.286	23045.96
596.482	23027.53
596.679	22896.46
596.876	23056.2
597.072	23027.53
597.269	22822.73
597.466	22613.84
597.662	22613.84
597.859	22585.17
598.055	22513.49
598.252	22316.89
598.448	22302.55
598.645	22146.9
598.841	22028.12
599.038	21956.44
599.234	22165.34
599.431	21837.66
599.627	21591.91
599.824	21983.07
600.02	22050.65
600.217	21815.13
600.413	21798.75
600.609	21612.38
600.806	21389.16
601.002	21477.22
601.198	21198.7
601.395	20946.8
601.591	21186.41
601.787	21286.76
601.984	20961.13
602.18	21170.02
602.376	21106.54
602.572	20789.1
602.769	20647.79
602.965	20621.17
603.161	20502.39
603.357	20809.58
603.553	20522.87
603.75	20651.89
603.946	20395.89
604.142	20445.04
604.338	19898.24
604.534	20279.16
604.73	20119.42
604.926	20123.51
605.122	20014.97
605.318	20060.02
605.514	19789.69
605.71	19445.63
605.906	19945.34
606.102	19959.67
606.298	19533.7
606.494	19574.66
606.69	19748.73
606.886	19625.86
607.082	19255.17
607.278	19468.16
607.474	19179.4
607.67	19500.93
607.866	19255.17
608.062	19494.79
608.257	19404.67
608.453	19097.48
608.649	19292.04
608.845	19025.8
609.041	19154.82
609.236	19015.56
609.432	18896.78
609.628	19007.37
609.824	18872.2
610.019	18593.68
610.215	18792.33
610.411	18755.47
610.606	18571.15
610.802	18712.46
610.998	18325.4
611.193	18460.56
611.389	18452.37
611.584	18442.13
611.78	17903.51
611.976	18335.63
612.171	18478.99
612.367	18509.71
612.562	18216.85
612.758	18069.4
612.953	17944.47
613.149	18053.02
613.344	17913.75
613.539	18118.55
613.735	18071.45
613.93	18028.44
614.126	17833.88
614.321	18053.02
614.517	17833.88
614.712	17647.52
614.907	17461.15
615.103	17940.38
615.298	17500.06
615.493	17565.6
615.688	17094.57
615.884	17674.14
616.079	17307.55
616.274	17397.67
616.47	17223.59
616.665	17590.17
616.86	17045.41
617.055	17061.8
617.25	17239.97
617.445	17377.19
617.641	16994.22
617.836	17233.83
618.031	16852.91
618.226	16971.69
618.421	16748.46
618.616	16723.88
618.811	16725.93
619.006	17125.29
619.201	16543.66
619.396	16347.06
619.591	16330.67
619.786	16838.57
619.981	16277.43
620.176	16578.48
620.371	16213.94
620.566	16215.99
620.761	16183.22
620.956	16349.11
621.151	15849.4
621.346	16003
621.541	15407.04
621.735	15929.27
621.93	15589.31
622.125	15499.2
622.32	15167.43
622.515	15484.86
622.709	15075.27
622.904	15321.02
623.099	15204.29
623.294	15353.79
623.488	14884.81
623.683	14880.71
623.878	14981.06
624.072	14829.51
624.267	14594
624.462	14659.53
624.656	14440.4
624.851	14491.6
625.046	14274.51
625.24	14100.44
625.435	14192.59
625.629	14184.4
625.824	14071.76
626.018	14069.72
626.213	13723.61
626.407	14051.28
626.602	13852.63
626.796	13836.25
626.991	13750.23
627.185	13602.78
627.38	13418.46
627.574	13359.07
627.768	13111.27
627.963	13332.45
628.157	13129.7
628.352	13131.75
628.546	13023.2
628.74	13017.06
628.935	12752.87
629.129	12804.07
629.323	12517.36
629.517	12705.77
629.712	12619.75
629.906	12539.88
630.1	12324.85
630.294	12410.86
630.489	12449.77
630.683	12376.05
630.877	11988.98
631.071	12333.04
631.265	12023.8
631.459	12029.94
631.653	11937.78
631.848	11909.11
632.042	11868.15
632.236	11939.83
632.43	11606.01
632.624	11612.15
632.818	11816.95
633.012	11571.19
633.206	11556.86
633.4	11409.4
633.594	11182.08
633.788	11415.55
633.982	11425.79
634.176	11235.33
634.369	11036.67
634.563	10967.04
634.757	10985.48
634.951	11038.72
635.145	11010.05
635.339	10965
635.533	10860.55
635.726	10786.82
635.92	10600.46
636.114	10663.94
636.308	10502.15
636.501	10645.51
636.695	10629.13
636.889	10403.85
637.083	10319.89
637.276	10211.34
637.47	10252.3
637.664	10154
637.857	10035.22
638.051	10059.79
638.244	9986.07
638.438	9930.77
638.632	9912.34
638.825	9773.08
639.019	9672.73
639.212	9758.74
639.406	9891.86
639.599	9715.73
639.793	9529.37
639.986	9457.69
640.18	9476.12
640.373	9418.78
640.567	9334.81
640.76	9248.8
640.954	9267.23
641.147	9127.97
641.34	9082.91
641.534	9170.97
641.727	8898.59
641.92	8939.55
642.114	8818.72
642.307	8894.5
642.5	8796.2
642.694	8730.66
642.887	8923.17
643.08	8792.1
643.273	8640.55
643.467	8591.4
643.66	8558.63
643.853	8468.52
644.046	8386.6
644.239	8435.75
644.432	8378.41
644.626	8312.88
644.819	8226.86
645.012	8216.62
645.205	8210.48
645.398	8308.78
645.591	8179.76
645.784	7940.15
645.977	7847.99
646.17	7827.51
646.363	7813.17
646.556	7913.52
646.749	7813.17
646.942	7911.47
647.135	7667.77
647.328	7852.08
647.521	7860.27
647.714	7583.8
647.907	7696.44
648.099	7649.33
648.292	7831.6
648.485	7534.65
648.678	7387.19
648.871	7462.97
649.064	7440.44
649.256	7387.19
649.449	7270.46
649.642	7098.43
649.835	7094.33
650.027	7077.95
650.22	7147.58
650.413	7166.01
650.605	6944.83
650.798	7000.13
650.991	6905.92
651.183	7016.51
651.376	6821.95
651.568	6824
651.761	6766.66
651.954	6762.56
652.146	6690.88
652.339	6729.8
652.531	6821.95
652.724	6623.3
652.916	6406.22
653.109	6529.1
653.301	6410.31
653.494	6416.46
653.686	6387.79
653.879	6561.86
654.071	6572.1
654.263	6334.54
654.456	6406.22
654.648	6285.39
654.84	6228.04
655.033	6189.13
655.225	6226
655.417	6119.5
655.61	6170.7
655.802	6230.09
655.994	6178.89
656.186	6154.32
656.379	6131.79
656.571	6029.39
656.763	5861.46
656.955	5838.93
657.148	5890.13
657.34	5970
657.532	5920.85
657.724	5828.69
657.916	5787.73
658.108	5822.55
658.3	5763.15
658.492	5662.8
658.684	5625.94
658.876	5658.71
659.068	5605.46
659.26	5486.68
659.452	5529.69
659.644	5691.48
659.836	5501.01
660.028	5617.75
660.22	5255.26
660.412	5388.38
660.604	5242.97
660.796	5341.27
660.988	5328.99
661.18	5251.16
661.372	5265.5
661.563	5396.57
661.755	5267.55
661.947	5439.58
662.139	5111.9
662.331	5240.92
662.522	5116
662.714	5161.05
662.906	5107.8
663.097	5027.93
663.289	4962.4
663.481	5062.75
663.673	5034.08
663.864	5001.31
664.056	5007.45
664.247	5005.41
664.439	4804.71
664.631	4761.7
664.822	4946.02
665.014	5011.55
665.205	4837.47
665.397	4718.69
665.588	4773.99
665.78	4929.63
665.971	4759.65
666.163	4892.77
666.354	4812.9
666.546	4759.65
666.737	4644.96
666.929	4890.72
667.12	4823.14
667.311	4771.94
667.503	4610.15
667.694	4577.38
667.885	4497.51
668.077	4573.28
668.268	4530.28
668.459	4485.22
668.651	4409.45
668.842	4571.24
669.033	4493.41
669.224	4438.12
669.416	4552.81
669.607	4499.56
669.798	4534.37
669.989	4505.7
670.18	4384.87
670.371	4386.92
670.563	4427.88
670.754	4419.69
670.945	4388.97
671.136	4614.24
671.327	4278.38
671.518	4233.32
671.709	4395.11
671.9	4266.09
672.091	4116.59
672.282	4325.48
672.473	4388.97
672.664	4016.24
672.855	4247.66
673.046	4194.41
673.237	4311.14
673.428	4227.18
673.619	4270.19
673.809	4190.31
674	4405.35
674.191	4087.92
674.382	4171.88
674.573	4319.34
674.764	4337.77
674.954	4196.46
675.145	4169.84
675.336	4221.03
675.527	4139.12
675.717	4245.61
675.908	4110.44
676.099	4167.79
676.289	4149.36
676.48	4008.05
676.671	4210.79
676.861	4108.4
677.052	4071.53
677.243	4135.02
677.433	4110.44
677.624	4231.27
677.814	4006
678.005	4055.15
678.195	4083.82
678.386	4178.03
678.576	4218.99
678.767	4024.43
678.957	4079.72
679.148	4139.12
679.338	4143.21
679.529	4186.22
679.719	4085.87
679.909	4130.92
680.1	4102.25
680.29	4122.73
680.481	4008.05
680.671	4192.36
680.861	4030.57
681.052	4180.07
681.242	4016.24
681.432	4112.49
681.622	4020.33
681.813	4198.51
682.003	4065.39
682.193	4171.88
682.383	4036.72
682.573	4145.26
682.764	4126.83
682.954	3969.13
683.144	4178.03
683.334	3932.27
683.524	4024.43
683.714	4098.16
683.904	4079.72
684.094	3969.13
684.284	4079.72
684.474	4079.72
684.664	4104.3
684.854	4012.14
685.044	4073.58
685.234	4106.35
685.424	3893.36
685.614	4010.09
685.804	3987.57
685.994	3948.65
686.184	4026.48
686.374	3934.32
686.564	4024.43
686.753	4016.24
686.943	3844.21
687.133	3973.23
687.323	3926.13
687.513	3797.1
687.702	3891.31
687.892	3915.89
688.082	3743.86
688.272	3739.76
688.461	3805.3
688.651	3989.61
688.841	3739.76
689.03	3706.99
689.22	3729.52
689.41	3731.57
689.599	3649.65
689.789	3618.93
689.979	3674.23
690.168	3641.46
690.358	3602.55
690.547	3727.47
690.737	3686.51
690.926	3625.08
691.116	3557.49
691.305	3719.28
691.495	3625.08
691.684	3520.63
691.874	3465.33
692.063	3446.9
692.252	3498.1
692.442	3500.15
692.631	3528.82
692.82	3489.91
693.01	3379.32
693.199	3530.87
693.388	3401.85
693.578	3391.61
693.767	3346.55
693.956	3430.52
694.146	3180.67
694.335	3401.85
694.524	3278.97
694.713	3305.59
694.902	3260.54
695.092	3281.02
695.281	3244.15
695.47	3297.4
695.659	3274.87
695.848	3281.02
696.037	3303.54
696.226	3223.67
696.415	3137.66
696.604	3166.33
696.793	3309.69
696.982	3313.78
697.171	3217.53
697.36	3360.89
697.549	3233.91
697.738	3137.66
697.927	3115.13
698.116	3190.91
698.305	3162.23
698.494	3164.28
698.683	3094.65
698.872	3326.07
699.061	3154.04
699.25	3111.04
699.438	3246.2
699.627	3186.81
699.816	3145.85
700.005	3227.77
700.193	3063.93
700.382	3242.11
700.571	3129.47
700.76	3242.11
700.948	3174.52
701.137	3250.3
701.326	3264.63
701.514	3131.51
701.703	3117.18
701.892	3149.95
702.08	3246.2
702.269	3213.43
702.457	3106.94
702.646	3266.68
702.834	3215.48
703.023	3192.95
703.212	3151.99
703.4	3244.15
703.589	3170.43
703.777	3291.26
703.965	3158.14
704.154	3242.11
704.342	3231.87
704.531	3154.04
704.719	3233.91
704.907	3217.53
705.096	2979.97
705.284	3135.61
705.472	3207.29
705.661	3209.34
705.849	3311.74
706.037	3192.95
706.226	3328.12
706.414	3276.92
706.602	3162.23
706.79	3244.15
706.979	3285.11
707.167	3287.16
707.355	3145.85
707.543	3129.47
707.731	3305.59
707.919	3246.2
708.107	3238.01
708.296	3264.63
708.484	3192.95
708.672	3205.24
708.86	3289.21
709.048	3178.62
709.236	3205.24
709.424	3250.3
709.612	3315.83
709.8	3166.33
709.988	3045.5
710.176	3334.26
710.364	3328.12
710.551	3317.88
710.739	3248.25
710.927	3238.01
711.115	3342.46
711.303	3313.78
711.491	3297.4
711.679	3213.43
711.866	3407.99
712.054	3221.63
712.242	3274.87
712.43	3444.85
712.617	3381.37
712.805	3311.74
712.993	3289.21
713.181	3248.25
713.368	3295.35
713.556	3395.7
713.744	3328.12
713.931	3518.58
714.119	3360.89
714.306	3393.65
714.494	3268.73
714.682	3377.27
714.869	3401.85
715.057	3338.36
715.244	3358.84
715.432	3397.75
715.619	3434.61
715.807	3455.09
715.994	3403.89
716.182	3407.99
716.369	3375.22
716.556	3539.06
716.744	3504.25
716.931	3397.75
717.119	3424.37
717.306	3387.51
717.493	3367.03
717.681	3375.22
717.868	3412.09
718.055	3514.49
718.242	3379.32
718.43	3424.37
718.617	3485.81
718.804	3580.02
718.991	3352.7
719.179	3590.26
719.366	3516.53
719.553	3500.15
719.74	3588.21
719.927	3563.64
720.114	3473.53
720.301	3592.31
720.488	3516.53
720.676	3420.28
720.863	3451
721.05	3541.11
721.237	3563.64
721.424	3582.07
721.611	3700.85
721.798	3596.4
721.985	3532.92
722.172	3614.84
722.358	3526.77
722.545	3580.02
722.732	3498.1
722.919	3590.26
723.106	3555.44
723.293	3588.21
723.48	3721.33
723.667	3653.75
723.853	3614.84
724.04	3592.31
724.227	3639.41
724.414	3610.74
724.6	3670.13
724.787	3614.84
724.974	3729.52
725.161	3766.39
725.347	3571.83
725.534	3575.92
725.72	3709.04
725.907	3719.28
726.094	3702.9
726.28	3821.68
726.467	3803.25
726.653	3672.18
726.84	3811.44
727.027	3799.15
727.213	3694.71
727.4	3899.5
727.586	3797.1
727.773	3688.56
727.959	3666.03
728.145	3696.75
728.332	3706.99
728.518	3887.22
728.705	3903.6
728.891	3836.02
729.077	3864.69
729.264	3754.1
729.45	3805.3
729.636	3926.13
729.823	3788.91
730.009	3750
730.195	3764.34
730.382	3850.35
730.568	3858.54
730.754	3827.82
730.94	3799.15
731.126	3860.59
731.313	3823.73
731.499	3862.64
731.685	3858.54
731.871	3782.77
732.057	3893.36
732.243	3919.98
732.429	3913.84
732.615	3870.83
732.801	3905.65
732.987	3821.68
733.173	3817.58
733.359	3856.5
733.545	3846.26
733.731	3860.59
733.917	4012.14
734.103	3860.59
734.289	3917.93
734.475	3819.63
734.661	3883.12
734.847	3840.11
735.033	3905.65
735.219	3854.45
735.404	3983.47
735.59	3956.85
735.776	3868.78
735.962	3985.52
736.148	3840.11
736.333	3872.88
736.519	3778.67
736.705	3842.16
736.89	3973.23
737.076	4003.95
737.262	3780.72
737.447	3909.74
737.633	3815.54
737.819	3950.7
738.004	3903.6
738.19	3881.07
738.375	3743.86
738.561	3999.85
738.747	3911.79
738.932	3846.26
739.118	3831.92
739.303	3907.7
739.489	3889.26
739.674	3919.98
739.859	3696.75
740.045	3772.53
740.23	3756.15
740.416	3766.39
740.601	3801.2
740.786	3897.46
740.972	3774.58
741.157	3715.19
741.342	3684.47
741.528	3856.5
741.713	3784.82
741.898	3786.86
742.084	3801.2
742.269	3727.47
742.454	3743.86
742.639	3706.99
742.824	3549.3
743.01	3637.36
743.195	3762.29
743.38	3698.8
743.565	3758.19
743.75	3580.02
743.935	3620.98
744.12	3745.91
744.305	3528.82
744.49	3543.16
744.675	3477.62
744.86	3496.05
745.045	3647.6
745.23	3440.76
745.415	3508.34
745.6	3446.9
745.785	3498.1
745.97	3532.92
746.155	3315.83
746.34	3504.25
746.525	3451
746.71	3430.52
746.895	3483.77
747.079	3453.05
747.264	3369.08
747.449	3403.89
747.634	3375.22
747.819	3438.71
748.003	3190.91
748.188	3190.91
748.373	3246.2
748.557	3199.1
748.742	3240.06
748.927	3227.77
749.111	3166.33
749.296	3119.23
749.481	3182.71
749.665	3092.6
749.85	3086.46
750.034	3149.95
750.219	3092.6
750.404	3242.11
750.588	3000.44
750.773	3027.07
750.957	2973.82
751.141	2996.35
751.326	3068.03
751.51	3031.16
751.695	2994.3
751.879	2902.14
752.064	2932.86
752.248	2826.37
752.432	3018.88
752.617	2936.96
752.801	2953.34
752.985	2832.51
753.17	2793.6
753.354	2791.55
753.538	2861.18
753.722	2678.91
753.907	2734.21
754.091	2584.71
754.275	2605.19
754.459	2642.05
754.643	2699.39
754.828	2584.71
755.012	2615.43
755.196	2594.95
755.38	2527.36
755.564	2496.64
755.748	2551.94
755.932	2539.65
756.116	2496.64
756.3	2386.05
756.484	2484.36
756.668	2508.93
756.852	2353.29
757.036	2519.17
757.22	2377.86
757.404	2484.36
757.588	2259.08
757.772	2332.81
757.956	2222.22
758.14	2408.58
758.323	2330.76
758.507	2359.43
758.691	2332.81
758.875	2318.47
759.059	2271.37
759.242	2308.23
759.426	2220.17
759.61	2259.08
759.794	2211.98
759.977	2224.26
760.161	2240.65
760.345	2162.83
760.528	2263.18
760.712	2244.74
760.895	2039.95
761.079	2187.4
761.263	1996.94
761.446	2105.48
761.63	2148.49
761.813	2029.71
761.997	2001.04
762.18	2011.28
762.364	2021.52
762.547	1939.6
762.731	1968.27
762.914	2021.52
763.098	2042
763.281	1994.89
763.464	1820.81
763.648	1912.97
763.831	1931.41
764.015	1927.31
764.198	1960.08
764.381	1896.59
764.564	1906.83
764.748	1980.56
764.931	1886.35
765.114	1802.38
765.297	1820.81
765.481	1841.29
765.664	1880.21
765.847	1845.39
766.03	1794.19
766.213	1695.89
766.397	1869.97
766.58	1767.57
766.763	1872.01
766.946	1781.9
767.129	1783.95
767.312	1697.94
767.495	1745.04
767.678	1624.21
767.861	1769.62
768.044	1767.57
768.227	1798.29
768.41	1712.27
768.593	1753.23
768.776	1767.57
768.959	1695.89
769.142	1659.03
769.324	1550.48
769.507	1689.74
769.69	1628.31
769.873	1562.77
770.056	1646.74
770.239	1702.03
770.421	1601.68
770.604	1562.77
770.787	1562.77
770.97	1632.4
771.152	1511.57
771.335	1591.44
771.518	1521.81
771.7	1542.29
771.883	1652.88
772.066	1573.01
772.248	1593.49
772.431	1536.15
772.613	1540.24
772.796	1501.33
772.978	1497.24
773.161	1505.43
773.343	1487
773.526	1491.09
773.708	1415.32
773.891	1398.93
774.073	1435.8
774.256	1450.13
774.438	1384.6
774.621	1407.13
774.803	1429.65
774.985	1382.55
775.168	1386.65
775.35	1343.64
775.532	1306.77
775.715	1319.06
775.897	1413.27
776.079	1329.3
776.261	1294.49
776.444	1286.3
776.626	1345.69
776.808	1241.24
776.99	1355.93
777.173	1161.37
777.355	1288.34
777.537	1288.34
777.719	1220.76
777.901	1124.51
778.083	1187.99
778.265	1212.57
778.447	1161.37
778.629	1249.43
778.811	1208.47
778.993	1233.05
779.175	1169.56
779.357	1159.32
779.539	1140.89
779.721	1061.02
779.903	1118.36
780.085	1040.54
780.267	1157.27
780.449	1210.52
780.631	1093.79
780.812	1101.98
780.994	1042.59
781.176	956.57
781.358	1069.21
781.54	1005.72
781.721	1026.2
781.903	977.05
782.085	1048.73
782.267	1058.97
782.448	972.96
782.63	919.71
782.812	964.76
782.993	977.05
783.175	958.62
783.357	975
783.538	958.62
783.72	880.8
783.901	921.76
784.083	891.04
784.264	917.66
784.446	862.37
784.627	835.74
784.809	835.74
784.99	884.89
785.172	932
785.353	831.65
785.535	829.6
785.716	895.13
785.897	813.21
786.079	813.21
786.26	788.64
786.441	786.59
786.623	776.35
786.804	845.98
786.985	776.35
787.167	815.26
787.348	786.59
787.529	759.97
787.71	874.65
787.891	798.88
788.073	790.69
788.254	743.58
788.435	839.84
788.616	716.96
788.797	632.99
788.978	788.64
789.159	772.25
789.34	723.1
789.522	663.71
789.703	624.8
789.884	655.52
790.065	700.58
790.246	712.86
790.427	719.01
790.607	676
790.788	704.67
790.969	649.38
791.15	673.95
791.331	659.62
791.512	622.75
791.693	690.34
791.874	589.99
792.054	671.9
792.235	618.66
792.416	630.95
792.597	606.37
792.778	618.66
792.958	608.42
793.139	565.41
793.32	678.05
793.5	583.84
793.681	659.62
793.862	604.32
794.042	489.64
794.223	479.4
794.404	520.35
794.584	561.31
794.765	479.4
794.945	565.41
795.126	497.83
795.306	559.27
795.487	534.69
795.667	520.35
795.848	579.75
796.028	497.83
796.209	544.93
796.389	614.56
796.57	528.55
796.75	532.64
796.93	499.88
797.111	503.97
797.291	536.74
797.471	516.26
797.652	512.16
797.832	469.16
798.012	469.16
798.192	389.28
798.373	444.58
798.553	506.02
798.733	448.68
798.913	477.35
799.093	444.58
799.274	448.68
799.454	540.83
799.634	495.78
799.814	422.05
799.994	475.3
800.174	479.4
800.354	520.35
800.534	460.96
800.714	399.52
800.894	426.15
801.074	422.05
801.254	356.52
801.434	491.68
801.614	436.39
801.794	397.48
801.974	1144.99
802.154	413.86
802.334	555.17
802.514	303.27
802.693	403.62
802.873	469.16
803.053	508.07
803.233	327.85
803.413	377
803.592	417.96
803.772	323.75
803.952	379.04
804.131	280.74
804.311	278.69
804.491	452.77
804.67	346.28
804.85	327.85
805.03	377
805.209	454.82
805.389	350.37
805.568	325.8
805.748	420
805.928	366.76
806.107	436.39
806.287	368.81
806.466	426.15
806.646	331.94
806.825	366.76
807.004	323.75
807.184	383.14
807.363	293.03
807.543	383.14
807.722	295.08
807.901	432.29
808.081	405.67
808.26	295.08
808.439	348.33
808.619	444.58
808.798	360.61
808.977	286.89
809.156	340.13
809.336	311.46
809.515	299.17
809.694	401.57
809.873	379.04
810.052	360.61
810.231	372.9
810.411	315.56
810.59	417.96
810.769	311.46
810.948	307.37
811.127	278.69
811.306	297.13
811.485	245.93
811.664	395.43
811.843	288.93
812.022	340.13
812.201	295.08
812.38	293.03
812.559	290.98
812.737	342.18
812.916	186.54
813.095	227.5
813.274	288.93
813.453	262.31
813.632	323.75
813.811	307.37
813.989	172.2
814.168	231.59
814.347	305.32
814.526	344.23
814.704	288.93
814.883	309.41
815.062	276.65
815.24	299.17
815.419	155.82
815.598	293.03
815.776	233.64
815.955	340.13
816.133	159.91
816.312	264.36
816.49	217.26
816.669	202.92
816.847	272.55
817.026	194.73
817.204	241.83
817.383	215.21
817.561	276.65
817.74	276.65
817.918	374.95
818.097	293.03
818.275	260.26
818.453	227.5
818.632	278.69
818.81	284.84
818.988	192.68
819.167	164.01
819.345	209.06
819.523	184.49
819.701	229.54
819.879	229.54
820.058	209.06
820.236	256.17
820.414	196.78
820.592	262.31
820.77	172.2
820.948	252.07
821.127	247.97
821.305	178.34
821.483	211.11
821.661	219.3
821.839	153.77
822.017	200.87
822.195	209.06
822.373	198.82
822.551	186.54
822.729	239.78
822.907	196.78
823.085	223.4
823.262	147.62
823.44	135.34
823.618	262.31
823.796	256.17
823.974	209.06
824.152	159.91
824.329	176.3
824.507	159.91
824.685	184.49
824.863	204.97
825.04	159.91
825.218	186.54
825.396	266.41
825.574	106.67
825.751	170.15
825.929	317.61
826.107	180.39
826.284	63.66
826.462	190.63
826.639	147.62
826.817	112.81
826.994	151.72
827.172	110.76
827.349	211.11
827.527	123.05
827.704	155.82
827.882	233.64
828.059	182.44
828.237	114.86
828.414	260.26
828.591	147.62
828.769	209.06
828.946	129.19
829.124	245.93
829.301	213.16
829.478	149.67
829.655	186.54
829.833	164.01
830.01	186.54
830.187	180.39
830.364	131.24
830.542	155.82
830.719	184.49
830.896	182.44
831.073	159.91
831.25	157.86
831.427	127.14
831.604	159.91
831.782	168.1
831.959	198.82
832.136	139.43
832.313	192.68
832.49	147.62
832.667	80.04
832.844	118.95
833.021	125.1
833.198	112.81
833.374	174.25
833.551	164.01
833.728	143.53
833.905	141.48
834.082	88.23
834.259	77.99
834.436	164.01
834.612	108.71
834.789	239.78
834.966	157.86
835.143	157.86
835.319	118.95
835.496	211.11
835.673	186.54
835.85	153.77
836.026	90.28
836.203	141.48
836.38	121
836.556	139.43
836.733	80.04
836.909	153.77
837.086	63.66
837.262	6.31
837.439	149.67
837.616	61.61
837.792	73.9
837.968	84.14
838.145	88.23
838.321	155.82
838.498	178.34
838.674	145.58
838.851	172.2
839.027	127.14
839.203	37.03
839.38	168.1
839.556	67.75
839.732	100.52
839.909	151.72
840.085	106.67
840.261	80.04
840.437	180.39
840.614	32.94
840.79	135.34
840.966	84.14
841.142	118.95
841.318	75.95
841.494	90.28
841.671	198.82
841.847	61.61
842.023	55.47
842.199	157.86
842.375	168.1
842.551	34.99
842.727	65.71
842.903	123.05
843.079	155.82
843.255	129.19
843.431	116.9
843.607	112.81
843.783	49.32
843.959	166.06
844.134	65.71
844.31	159.91
844.486	129.19
844.662	49.32
844.838	75.95
845.013	102.57
845.189	106.67
845.365	104.62
845.541	86.19
845.716	116.9
845.892	80.04
846.068	55.47
846.244	71.85
846.419	73.9
846.595	98.47
846.77	141.48
846.946	100.52
847.122	86.19
847.297	159.91
847.473	69.8
847.648	65.71
847.824	94.38
847.999	-18.26
848.175	110.76
848.35	98.47
848.526	145.58
848.701	104.62
848.876	34.99
849.052	129.19
849.227	110.76
849.403	51.37
849.578	139.43
849.753	49.32
849.929	59.56
850.104	43.18
850.279	34.99
850.454	92.33
850.63	32.94
850.805	65.71
850.98	77.99
851.155	39.08
851.33	75.95
851.505	51.37
851.681	104.62
851.856	32.94
852.031	98.47
852.206	153.77
852.381	121
852.556	86.19
852.731	39.08
852.906	104.62
853.081	59.56
853.256	43.18
853.431	6.31
853.606	114.86
853.781	-1.88
853.956	-36.69
854.131	69.8
854.305	24.75
854.48	34.99
854.655	-12.12
854.83	-5.97
855.005	114.86
855.18	34.99
855.354	43.18
855.529	104.62
855.704	41.13
855.879	53.42
856.053	-34.64
856.228	84.14
856.403	45.23
856.577	2.22
856.752	110.76
856.926	84.14
857.101	53.42
857.276	20.65
857.45	121
857.625	133.29
857.799	96.43
857.974	84.14
858.148	-5.97
858.323	73.9
858.497	-26.45
858.672	77.99
858.846	77.99
859.02	77.99
859.195	59.56
859.369	63.66
859.543	69.8
859.718	47.27
859.892	77.99
860.066	43.18
860.241	18.6
860.415	73.9
860.589	49.32
860.763	80.04
860.938	16.55
861.112	55.47
861.286	22.7
861.46	63.66
861.634	73.9
861.808	45.23
861.982	-34.64
862.157	6.31
862.331	8.36
862.505	90.28
862.679	-28.5
862.853	45.23
863.027	-14.17
863.201	139.43
863.375	90.28
863.549	12.46
863.722	-3.93
863.896	30.89
864.07	57.51
864.244	2.22
864.418	22.7
864.592	59.56
864.766	28.84
864.939	61.61
865.113	108.71
865.287	71.85
865.461	10.41
865.634	-12.12
865.808	57.51
865.982	10.41
866.156	-30.55
866.329	16.55
866.503	-3.93
866.676	86.19
866.85	43.18
867.024	69.8
867.197	65.71
867.371	32.94
867.544	-36.69
867.718	65.71
867.891	118.95
868.065	14.51
868.238	-3.93
868.412	59.56
868.585	59.56
868.759	75.95
868.932	43.18
869.105	16.55
869.279	55.47
869.452	-3.93
869.625	30.89
869.799	84.14
869.972	16.55
870.145	34.99
870.319	30.89
870.492	69.8
870.665	55.47
870.838	10.41
871.011	-12.12
871.185	47.27
871.358	-1.88
871.531	-30.55
871.704	-36.69
871.877	61.61
872.05	73.9
872.223	-24.4
872.396	43.18
872.569	90.28
872.742	39.08
872.915	2.22
873.088	43.18
873.261	-53.08
873.434	8.36
873.607	-20.31
873.78	22.7
873.953	-28.5
874.126	16.55
874.299	34.99
874.471	51.37
874.644	4.27
874.817	45.23
874.99	157.86
875.163	43.18
875.335	28.84
875.508	-26.45
875.681	24.75
875.853	12.46
876.026	51.37
876.199	67.75
876.371	4.27
876.544	10.41
876.717	32.94
876.889	55.47
877.062	-5.97
877.234	43.18
877.407	-12.12
877.579	26.79
877.752	59.56
877.924	39.08
878.097	75.95
878.269	2.22
878.442	4.27
878.614	-32.6
878.786	86.19
878.959	28.84
879.131	51.37
879.303	-63.32
879.476	55.47
879.648	39.08
879.82	22.7
879.993	10.41
880.165	12.46
880.337	10.41
880.509	28.84
880.681	-26.45
880.854	-51.03
881.026	104.62
881.198	157.86
881.37	45.23
881.542	0.17
881.714	127.14
881.886	65.71
882.058	55.47
882.23	-1.88
882.402	59.56
882.574	39.08
882.746	77.99
882.918	73.9
883.09	41.13
883.262	-26.45
883.434	-20.31
883.606	53.42
883.778	59.56
883.95	43.18
884.122	57.51
884.293	121
884.465	16.55
884.637	6.31
884.809	-1.88
884.98	32.94
885.152	-16.21
885.324	6.31
885.496	96.43
885.667	6.31
885.839	6.31
886.011	53.42
886.182	-40.79
886.354	37.03
886.525	-12.12
886.697	-28.5
886.869	-5.97
887.04	88.23
887.212	0.17
887.383	73.9
887.555	-12.12
887.726	53.42
887.897	24.75
888.069	20.65
888.24	-16.21
888.412	47.27
888.583	-55.12
888.754	-28.5
888.926	-30.55
889.097	-18.26
889.268	-55.12
889.44	8.36
889.611	-34.64
889.782	-12.12
889.953	-63.32
890.125	10.41
890.296	0.17
890.467	32.94
890.638	-67.41
890.809	-8.02
890.98	18.6
891.151	-22.36
891.323	51.37
891.494	43.18
891.665	18.6
891.836	-40.79
892.007	82.09
892.178	-30.55
892.349	6.31
892.52	57.51
892.691	-24.4
892.862	18.6
893.032	-32.6
893.203	-42.84
893.374	-8.02
893.545	39.08
893.716	73.9
893.887	55.47
894.057	-24.4
894.228	28.84
894.399	-20.31
894.57	65.71
894.74	41.13
894.911	37.03
895.082	12.46
895.253	14.51
895.423	16.55
895.594	75.95
895.764	37.03
895.935	6.31
896.106	2.22
896.276	26.79
896.447	32.94
896.617	-26.45
896.788	6.31
896.958	-69.46
897.129	51.37
897.299	37.03
897.47	57.51
897.64	47.27
897.81	-20.31
897.981	45.23
898.151	-114.52
898.322	57.51
898.492	20.65
898.662	-32.6
898.832	-38.74
899.003	-18.26
899.173	-44.88
899.343	-38.74
899.513	-46.93
