Data from USB4F104151__48__12-23-57-515.txt Node

Date: Fri Mar 14 12:23:57 EDT 2025
User: louis
Spectrometer: USB4F10415
Trigger mode: 4
Integration Time (sec): 3.500000E-2
Scans to average: 1
Electric dark correction enabled: true
Nonlinearity correction enabled: false
Boxcar width: 0
XAxis mode: Wavelengths
Number of Pixels in Spectrum: 3648
>>>>>Begin Spectral Data<<<<<
178.204	-184.66
178.424	-184.66
178.644	-184.66
178.864	-178.51
179.084	-139.6
179.304	-2.39
179.524	-0.34
179.744	-4.44
179.964	18.09
180.184	40.62
180.404	-20.82
180.624	-80.21
180.844	26.28
181.064	20.14
181.283	32.43
181.503	-43.35
181.723	13.99
181.943	-39.25
182.163	57
182.383	-12.63
182.602	-16.73
182.822	61.1
183.042	38.57
183.262	-22.87
183.482	57
183.701	-22.87
183.921	-41.3
184.141	11.95
184.361	61.1
184.58	52.91
184.8	54.95
185.02	-10.58
185.239	112.3
185.459	-29.01
185.679	20.14
185.898	-55.64
186.118	28.33
186.338	28.33
186.557	65.19
186.777	36.52
186.997	18.09
187.216	-39.25
187.436	18.09
187.655	65.19
187.875	11.95
188.095	63.15
188.314	67.24
188.534	46.76
188.753	73.39
188.973	11.95
189.192	75.43
189.412	116.39
189.631	-8.53
189.851	40.62
190.07	28.33
190.29	-29.01
190.509	52.91
190.729	34.47
190.948	71.34
191.168	97.96
191.387	73.39
191.607	-43.35
191.826	85.67
192.045	57
192.265	28.33
192.484	95.91
192.704	-14.68
192.923	16.04
193.142	75.43
193.362	102.06
193.581	81.58
193.8	28.33
194.02	112.3
194.239	28.33
194.458	81.58
194.678	44.71
194.897	85.67
195.116	-6.49
195.335	7.85
195.555	69.29
195.774	-14.68
195.993	54.95
196.212	-0.34
196.432	-39.25
196.651	48.81
196.87	7.85
197.089	48.81
197.308	42.67
197.528	52.91
197.747	-16.73
197.966	59.05
198.185	32.43
198.404	28.33
198.623	22.19
198.842	69.29
199.062	67.24
199.281	65.19
199.5	1.71
199.719	65.19
199.938	44.71
200.157	73.39
200.376	85.67
200.595	87.72
200.814	54.95
201.033	18.09
201.252	38.57
201.471	87.72
201.69	54.95
201.909	-4.44
202.128	100.01
202.347	-41.3
202.566	44.71
202.785	-39.25
203.004	24.23
203.223	106.15
203.442	-4.44
203.661	16.04
203.879	38.57
204.098	40.62
204.317	7.85
204.536	87.72
204.755	42.67
204.974	-55.64
205.193	-26.96
205.411	118.44
205.63	112.3
205.849	50.86
206.068	116.39
206.287	1.71
206.505	-2.39
206.724	18.09
206.943	57
207.162	13.99
207.381	91.82
207.599	20.14
207.818	30.38
208.037	-6.49
208.255	24.23
208.474	34.47
208.693	52.91
208.911	50.86
209.13	26.28
209.349	30.38
209.567	48.81
209.786	36.52
210.005	108.2
210.223	73.39
210.442	36.52
210.661	57
210.879	16.04
211.098	40.62
211.316	52.91
211.535	3.75
211.753	34.47
211.972	30.38
212.191	28.33
212.409	50.86
212.628	71.34
212.846	-29.01
213.065	81.58
213.283	-0.34
213.502	-12.63
213.72	122.54
213.938	40.62
214.157	16.04
214.375	38.57
214.594	59.05
214.812	28.33
215.031	-12.63
215.249	9.9
215.467	102.06
215.686	-2.39
215.904	30.38
216.122	-22.87
216.341	61.1
216.559	110.25
216.778	9.9
216.996	61.1
217.214	32.43
217.432	40.62
217.651	87.72
217.869	54.95
218.087	40.62
218.306	-14.68
218.524	87.72
218.742	81.58
218.96	-10.58
219.179	24.23
219.397	7.85
219.615	91.82
219.833	28.33
220.051	48.81
220.27	108.2
220.488	75.43
220.706	24.23
220.924	22.19
221.142	3.75
221.36	30.38
221.578	57
221.796	-22.87
222.015	28.33
222.233	16.04
222.451	-4.44
222.669	18.09
222.887	20.14
223.105	9.9
223.323	5.8
223.541	28.33
223.759	9.9
223.977	40.62
224.195	100.01
224.413	26.28
224.631	50.86
224.849	110.25
225.067	40.62
225.285	11.95
225.503	81.58
225.721	13.99
225.939	85.67
226.157	85.67
226.375	145.06
226.592	-18.77
226.81	77.48
227.028	69.29
227.246	26.28
227.464	13.99
227.682	52.91
227.9	30.38
228.117	71.34
228.335	102.06
228.553	-45.4
228.771	44.71
228.989	59.05
229.206	44.71
229.424	-24.92
229.642	16.04
229.86	95.91
230.077	44.71
230.295	9.9
230.513	38.57
230.731	26.28
230.948	1.71
231.166	81.58
231.384	-6.49
231.601	100.01
231.819	46.76
232.037	36.52
232.254	46.76
232.472	65.19
232.689	-125.27
232.907	18.09
233.125	-20.82
233.342	-33.11
233.56	18.09
233.777	-12.63
233.995	30.38
234.213	69.29
234.43	65.19
234.648	-24.92
234.865	-0.34
235.083	13.99
235.3	40.62
235.518	3.75
235.735	116.39
235.953	1.71
236.17	81.58
236.388	28.33
236.605	48.81
236.822	65.19
237.04	85.67
237.257	81.58
237.475	11.95
237.692	-49.49
237.909	5.8
238.127	22.19
238.344	11.95
238.562	7.85
238.779	104.11
238.996	50.86
239.214	18.09
239.431	26.28
239.648	-2.39
239.865	11.95
240.083	22.19
240.3	79.53
240.517	42.67
240.735	-2.39
240.952	34.47
241.169	73.39
241.386	32.43
241.603	-45.4
241.821	40.62
242.038	13.99
242.255	50.86
242.472	61.1
242.689	44.71
242.907	36.52
243.124	106.15
243.341	77.48
243.558	-10.58
243.775	13.99
243.992	57
244.209	38.57
244.426	79.53
244.643	77.48
244.86	34.47
245.078	91.82
245.295	57
245.512	83.63
245.729	9.9
245.946	36.52
246.163	87.72
246.38	-4.44
246.597	9.9
246.814	36.52
247.031	24.23
247.248	-18.77
247.464	38.57
247.681	30.38
247.898	118.44
248.115	93.87
248.332	-0.34
248.549	138.92
248.766	104.11
248.983	100.01
249.2	18.09
249.417	108.2
249.633	1.71
249.85	114.34
250.067	32.43
250.284	69.29
250.501	57
250.717	71.34
250.934	20.14
251.151	13.99
251.368	3.75
251.585	69.29
251.801	22.19
252.018	-20.82
252.235	108.2
252.451	-41.3
252.668	-10.58
252.885	67.24
253.102	-8.53
253.318	7.85
253.535	34.47
253.752	22.19
253.968	28.33
254.185	-0.34
254.401	-4.44
254.618	71.34
254.835	65.19
255.051	65.19
255.268	38.57
255.484	61.1
255.701	91.82
255.917	52.91
256.134	-29.01
256.351	-4.44
256.567	-24.92
256.784	36.52
257	38.57
257.217	118.44
257.433	-6.49
257.65	87.72
257.866	46.76
258.082	52.91
258.299	24.23
258.515	13.99
258.732	-14.68
258.948	79.53
259.165	13.99
259.381	44.71
259.597	-0.34
259.814	44.71
260.03	-0.34
260.246	20.14
260.463	26.28
260.679	95.91
260.895	18.09
261.112	28.33
261.328	-10.58
261.544	34.47
261.761	100.01
261.977	26.28
262.193	9.9
262.409	73.39
262.626	-20.82
262.842	32.43
263.058	-26.96
263.274	13.99
263.49	67.24
263.707	54.95
263.923	106.15
264.139	9.9
264.355	18.09
264.571	108.2
264.787	71.34
265.004	20.14
265.22	65.19
265.436	11.95
265.652	11.95
265.868	89.77
266.084	5.8
266.3	36.52
266.516	-20.82
266.732	65.19
266.948	40.62
267.164	108.2
267.38	73.39
267.596	26.28
267.812	145.06
268.028	93.87
268.244	-24.92
268.46	-31.06
268.676	42.67
268.892	130.73
269.108	28.33
269.324	22.19
269.54	1.71
269.756	104.11
269.972	42.67
270.188	71.34
270.403	-14.68
270.619	26.28
270.835	32.43
271.051	30.38
271.267	30.38
271.483	40.62
271.698	34.47
271.914	-22.87
272.13	63.15
272.346	79.53
272.562	67.24
272.777	48.81
272.993	54.95
273.209	18.09
273.425	-2.39
273.64	26.28
273.856	77.48
274.072	36.52
274.287	59.05
274.503	50.86
274.719	67.24
274.934	42.67
275.15	28.33
275.366	61.1
275.581	-14.68
275.797	59.05
276.012	42.67
276.228	13.99
276.444	-10.58
276.659	91.82
276.875	-6.49
277.09	67.24
277.306	91.82
277.521	100.01
277.737	32.43
277.952	32.43
278.168	114.34
278.383	-10.58
278.599	57
278.814	22.19
279.03	7.85
279.245	128.68
279.461	-4.44
279.676	149.16
279.892	5.8
280.107	102.06
280.322	-6.49
280.538	65.19
280.753	22.19
280.969	100.01
281.184	24.23
281.399	46.76
281.615	79.53
281.83	26.28
282.045	5.8
282.26	-37.2
282.476	9.9
282.691	28.33
282.906	11.95
283.122	67.24
283.337	-39.25
283.552	61.1
283.767	20.14
283.983	120.49
284.198	9.9
284.413	75.43
284.628	20.14
284.843	71.34
285.058	46.76
285.274	22.19
285.489	69.29
285.704	97.96
285.919	-51.54
286.134	97.96
286.349	63.15
286.564	7.85
286.779	75.43
286.995	61.1
287.21	44.71
287.425	89.77
287.64	20.14
287.855	-37.2
288.07	-29.01
288.285	169.64
288.5	104.11
288.715	16.04
288.93	-18.77
289.145	9.9
289.36	-12.63
289.575	32.43
289.79	95.91
290.004	9.9
290.219	50.86
290.434	48.81
290.649	48.81
290.864	-8.53
291.079	30.38
291.294	71.34
291.509	11.95
291.724	26.28
291.938	-4.44
292.153	3.75
292.368	36.52
292.583	54.95
292.798	130.73
293.012	73.39
293.227	40.62
293.442	-31.06
293.657	11.95
293.871	61.1
294.086	42.67
294.301	69.29
294.516	67.24
294.73	-6.49
294.945	-14.68
295.16	116.39
295.374	100.01
295.589	108.2
295.804	83.63
296.018	132.78
296.233	104.11
296.447	77.48
296.662	-20.82
296.877	73.39
297.091	65.19
297.306	52.91
297.52	-12.63
297.735	13.99
297.949	30.38
298.164	79.53
298.378	26.28
298.593	3.75
298.807	22.19
299.022	38.57
299.236	147.11
299.451	73.39
299.665	-2.39
299.88	38.57
300.094	57
300.309	32.43
300.523	18.09
300.737	77.48
300.952	44.71
301.166	44.71
301.381	-31.06
301.595	42.67
301.809	5.8
302.024	28.33
302.238	-31.06
302.452	22.19
302.667	-4.44
302.881	145.06
303.095	73.39
303.309	95.91
303.524	28.33
303.738	-37.2
303.952	24.23
304.166	46.76
304.381	57
304.595	83.63
304.809	32.43
305.023	30.38
305.237	7.85
305.452	67.24
305.666	32.43
305.88	73.39
306.094	89.77
306.308	67.24
306.522	69.29
306.736	57
306.95	54.95
307.164	-16.73
307.379	-12.63
307.593	77.48
307.807	-10.58
308.021	40.62
308.235	77.48
308.449	-2.39
308.663	-49.49
308.877	93.87
309.091	65.19
309.305	-2.39
309.519	-43.35
309.733	36.52
309.947	52.91
310.161	1.71
310.374	97.96
310.588	79.53
310.802	-18.77
311.016	59.05
311.23	36.52
311.444	132.78
311.658	67.24
311.872	71.34
312.085	108.2
312.299	18.09
312.513	44.71
312.727	59.05
312.941	1.71
313.154	-37.2
313.368	110.25
313.582	89.77
313.796	85.67
314.009	26.28
314.223	61.1
314.437	57
314.651	11.95
314.864	32.43
315.078	77.48
315.292	22.19
315.505	30.38
315.719	28.33
315.933	40.62
316.146	93.87
316.36	-8.53
316.573	69.29
316.787	83.63
317.001	63.15
317.214	11.95
317.428	18.09
317.641	36.52
317.855	-12.63
318.068	93.87
318.282	77.48
318.495	42.67
318.709	50.86
318.922	-8.53
319.136	114.34
319.349	83.63
319.563	97.96
319.776	128.68
319.99	-43.35
320.203	81.58
320.417	-24.92
320.63	73.39
320.843	71.34
321.057	5.8
321.27	38.57
321.483	102.06
321.697	130.73
321.91	-37.2
322.124	95.91
322.337	83.63
322.55	54.95
322.763	28.33
322.977	85.67
323.19	-20.82
323.403	-6.49
323.617	91.82
323.83	42.67
324.043	28.33
324.256	34.47
324.469	38.57
324.683	87.72
324.896	48.81
325.109	81.58
325.322	-10.58
325.535	81.58
325.748	65.19
325.962	73.39
326.175	165.54
326.388	32.43
326.601	81.58
326.814	36.52
327.027	85.67
327.24	122.54
327.453	-55.64
327.666	87.72
327.879	65.19
328.092	44.71
328.305	32.43
328.518	79.53
328.731	9.9
328.944	134.82
329.157	22.19
329.37	5.8
329.583	65.19
329.796	24.23
330.009	1.71
330.222	71.34
330.435	38.57
330.648	63.15
330.861	132.78
331.073	54.95
331.286	5.8
331.499	75.43
331.712	18.09
331.925	89.77
332.138	75.43
332.35	1.71
332.563	11.95
332.776	28.33
332.989	24.23
333.202	61.1
333.414	26.28
333.627	69.29
333.84	30.38
334.053	38.57
334.265	79.53
334.478	69.29
334.691	32.43
334.903	20.14
335.116	26.28
335.329	16.04
335.541	186.02
335.754	30.38
335.966	50.86
336.179	13.99
336.392	34.47
336.604	71.34
336.817	65.19
337.029	122.54
337.242	11.95
337.454	77.48
337.667	9.9
337.88	63.15
338.092	83.63
338.305	75.43
338.517	9.9
338.729	54.95
338.942	48.81
339.154	-20.82
339.367	-14.68
339.579	9.9
339.792	-24.92
340.004	63.15
340.217	95.91
340.429	71.34
340.641	38.57
340.854	32.43
341.066	20.14
341.278	106.15
341.491	63.15
341.703	26.28
341.915	22.19
342.128	102.06
342.34	63.15
342.552	50.86
342.764	-26.96
342.977	13.99
343.189	42.67
343.401	79.53
343.613	-47.44
343.826	26.28
344.038	16.04
344.25	59.05
344.462	34.47
344.674	34.47
344.886	69.29
345.099	32.43
345.311	73.39
345.523	91.82
345.735	24.23
345.947	34.47
346.159	63.15
346.371	40.62
346.583	48.81
346.795	104.11
347.007	-2.39
347.219	63.15
347.431	26.28
347.643	83.63
347.855	3.75
348.067	104.11
348.279	-12.63
348.491	16.04
348.703	73.39
348.915	26.28
349.127	-10.58
349.339	59.05
349.551	89.77
349.763	100.01
349.975	54.95
350.187	40.62
350.399	71.34
350.61	71.34
350.822	-31.06
351.034	22.19
351.246	28.33
351.458	20.14
351.669	48.81
351.881	89.77
352.093	71.34
352.305	114.34
352.517	102.06
352.728	128.68
352.94	36.52
353.152	61.1
353.363	22.19
353.575	83.63
353.787	171.69
353.999	73.39
354.21	69.29
354.422	7.85
354.633	79.53
354.845	87.72
355.057	81.58
355.268	34.47
355.48	118.44
355.692	112.3
355.903	61.1
356.115	36.52
356.326	32.43
356.538	108.2
356.749	97.96
356.961	116.39
357.172	42.67
357.384	-35.16
357.595	196.26
357.807	-2.39
358.018	-18.77
358.23	89.77
358.441	106.15
358.653	83.63
358.864	118.44
359.075	48.81
359.287	30.38
359.498	151.21
359.709	-14.68
359.921	95.91
360.132	38.57
360.344	73.39
360.555	38.57
360.766	100.01
360.977	97.96
361.189	122.54
361.4	44.71
361.611	73.39
361.823	32.43
362.034	9.9
362.245	-2.39
362.456	57
362.667	63.15
362.879	73.39
363.09	57
363.301	110.25
363.512	16.04
363.723	16.04
363.935	22.19
364.146	34.47
364.357	30.38
364.568	44.71
364.779	61.1
364.99	149.16
365.201	34.47
365.412	87.72
365.623	5.8
365.834	83.63
366.045	89.77
366.256	59.05
366.467	71.34
366.678	63.15
366.889	85.67
367.1	34.47
367.311	30.38
367.522	59.05
367.733	153.26
367.944	93.87
368.155	30.38
368.366	69.29
368.577	100.01
368.788	63.15
368.999	61.1
369.209	11.95
369.42	108.2
369.631	179.88
369.842	120.49
370.053	38.57
370.264	24.23
370.474	63.15
370.685	122.54
370.896	63.15
371.107	204.46
371.317	48.81
371.528	48.81
371.739	42.67
371.95	24.23
372.16	104.11
372.371	40.62
372.582	91.82
372.792	65.19
373.003	106.15
373.214	73.39
373.424	42.67
373.635	102.06
373.846	97.96
374.056	9.9
374.267	26.28
374.477	75.43
374.688	-22.87
374.898	42.67
375.109	85.67
375.319	48.81
375.53	81.58
375.74	44.71
375.951	30.38
376.161	46.76
376.372	85.67
376.582	54.95
376.793	136.87
377.003	48.81
377.214	7.85
377.424	63.15
377.635	42.67
377.845	104.11
378.055	122.54
378.266	65.19
378.476	26.28
378.686	38.57
378.897	50.86
379.107	126.63
379.317	132.78
379.528	50.86
379.738	89.77
379.948	38.57
380.158	118.44
380.369	114.34
380.579	18.09
380.789	7.85
380.999	50.86
381.21	163.5
381.42	63.15
381.63	134.82
381.84	71.34
382.05	71.34
382.261	114.34
382.471	97.96
382.681	48.81
382.891	79.53
383.101	77.48
383.311	-59.73
383.521	73.39
383.731	28.33
383.941	126.63
384.151	44.71
384.361	50.86
384.571	59.05
384.781	89.77
384.991	169.64
385.201	102.06
385.411	61.1
385.621	57
385.831	59.05
386.041	63.15
386.251	26.28
386.461	122.54
386.671	112.3
386.881	95.91
387.091	20.14
387.301	65.19
387.511	102.06
387.72	59.05
387.93	116.39
388.14	63.15
388.35	79.53
388.56	108.2
388.769	116.39
388.979	61.1
389.189	34.47
389.399	118.44
389.609	91.82
389.818	126.63
390.028	54.95
390.238	169.64
390.447	61.1
390.657	95.91
390.867	87.72
391.076	48.81
391.286	106.15
391.496	122.54
391.705	22.19
391.915	112.3
392.125	153.26
392.334	20.14
392.544	120.49
392.753	85.67
392.963	-16.73
393.172	36.52
393.382	24.23
393.591	143.02
393.801	134.82
394.01	130.73
394.22	71.34
394.429	1.71
394.639	102.06
394.848	132.78
395.058	97.96
395.267	97.96
395.477	102.06
395.686	75.43
395.895	179.88
396.105	136.87
396.314	95.91
396.524	106.15
396.733	134.82
396.942	138.92
397.152	136.87
397.361	75.43
397.57	149.16
397.78	110.25
397.989	163.5
398.198	220.84
398.407	112.3
398.617	81.58
398.826	95.91
399.035	138.92
399.244	44.71
399.453	132.78
399.663	153.26
399.872	190.12
400.081	97.96
400.29	102.06
400.499	95.91
400.708	175.78
400.917	198.31
401.127	163.5
401.336	69.29
401.545	235.18
401.754	132.78
401.963	79.53
402.172	116.39
402.381	120.49
402.59	177.83
402.799	169.64
403.008	190.12
403.217	147.11
403.426	224.94
403.635	104.11
403.844	165.54
404.053	140.97
404.262	222.89
404.471	231.08
404.68	151.21
404.888	155.3
405.097	190.12
405.306	134.82
405.515	284.33
405.724	208.55
405.933	190.12
406.142	190.12
406.35	179.88
406.559	243.37
406.768	169.64
406.977	204.46
407.185	284.33
407.394	218.79
407.603	188.07
407.812	167.59
408.02	280.23
408.229	245.41
408.438	286.37
408.646	337.57
408.855	315.05
409.064	325.29
409.272	276.13
409.481	276.13
409.69	415.4
409.898	249.51
410.107	431.78
410.315	419.49
410.524	341.67
410.733	366.25
410.941	454.31
411.15	411.3
411.358	421.54
411.567	462.5
411.775	519.84
411.984	462.5
412.192	495.27
412.401	632.48
412.609	532.13
412.818	566.95
413.026	667.3
413.234	530.08
413.443	689.82
413.651	630.43
413.86	708.26
414.068	747.17
414.276	747.17
414.485	718.5
414.693	790.17
414.901	988.83
415.11	853.66
415.318	841.37
415.526	868
415.734	958.11
415.943	1033.88
416.151	1017.5
416.359	958.11
416.567	1011.36
416.776	1097.37
416.984	1238.68
417.192	1220.25
417.4	1316.5
417.608	1212.06
417.817	1224.34
418.025	1373.85
418.233	1394.33
418.441	1336.98
418.649	1513.11
418.857	1623.7
419.065	1742.48
419.273	1730.19
419.481	1693.33
419.689	1754.77
419.897	1808.02
420.105	1932.94
420.313	1894.03
420.521	2031.24
420.729	2006.67
420.937	2115.21
421.145	2166.41
421.353	2258.57
421.561	2350.73
421.769	2356.87
421.977	2489.99
422.185	2563.72
422.393	2737.79
422.601	2858.62
422.809	2938.49
423.017	2913.92
423.224	3065.47
423.432	3176.06
423.64	3139.19
423.848	3542.64
424.056	3264.12
424.263	3606.13
424.471	3597.94
424.679	3681.91
424.887	3946.09
425.094	3901.04
425.302	3982.96
425.51	4195.95
425.718	4286.06
425.925	4329.06
426.133	4460.13
426.341	4746.85
426.548	4916.83
426.756	4949.6
426.964	5023.33
427.171	5197.4
427.379	5480.02
427.586	5475.93
427.794	5607
428.001	5973.58
428.209	6194.76
428.417	6372.94
428.624	6485.58
428.832	6710.85
429.039	6452.81
429.247	6608.45
429.454	7169.6
429.662	7710.26
429.869	7116.35
430.076	7446.07
430.284	7323.19
430.491	7775.8
430.699	8142.38
430.906	8279.6
431.114	8220.21
431.321	8650.28
431.528	8769.06
431.736	9291.29
431.943	9678.36
432.15	9373.21
432.358	9510.43
432.565	10307.09
432.772	10153.49
432.979	10655.24
433.187	10802.69
433.394	10745.35
433.601	11415.04
433.808	11546.11
434.016	11503.1
434.223	11894.26
434.43	12570.09
434.637	12666.35
434.844	13315.55
435.052	13563.36
435.259	13336.03
435.466	13878.74
435.673	13635.03
435.88	14347.73
436.087	15070.66
436.294	15300.03
436.501	14800.33
436.708	15107.52
436.915	15709.63
437.122	16410.03
437.329	16227.76
437.537	16922.02
437.743	17110.44
437.95	16905.64
438.157	17948.06
438.364	18535.82
438.571	18458
438.778	18517.39
438.985	20145.53
439.192	19127.69
439.399	20082.04
439.606	19582.34
439.813	20968.81
440.02	21910.88
440.227	21673.31
440.433	21538.15
440.64	22152.54
440.847	21869.92
441.054	22627.67
441.261	24157.5
441.467	23964.99
441.674	24130.87
441.881	25064.75
442.088	25275.69
442.294	25003.31
442.501	25265.45
442.708	25849.12
442.914	26914.06
443.121	28177.66
443.328	27616.52
443.534	29177.07
443.741	28566.77
443.948	28312.83
444.154	30129.37
444.361	30170.33
444.568	30209.25
444.774	30330.08
444.981	30940.37
445.187	31614.15
445.394	32928.95
445.6	32019.65
445.807	35669.13
446.013	33920.17
446.22	34880.66
446.426	35978.37
446.633	36297.86
446.839	37602.41
447.046	35859.59
447.252	38059.11
447.459	37772.39
447.665	38036.58
447.871	39717.96
448.078	41350.2
448.284	39171.16
448.491	40139.85
448.697	41833.52
448.903	42171.43
449.11	42818.59
449.316	41583.66
449.522	42664.99
449.728	43895.82
449.935	44133.39
450.141	44581.89
450.347	44641.28
450.553	43834.38
450.76	44381.19
450.966	46021.61
451.172	45222.9
451.378	46242.79
451.584	45515.76
451.791	46185.45
451.997	45925.36
452.203	46969.82
452.409	46894.05
452.615	47084.51
452.821	44905.47
453.027	44819.45
453.233	47254.49
453.44	45622.26
453.646	45708.27
453.852	46015.47
454.058	46603.24
454.264	45091.83
454.47	46400.49
454.676	44506.12
454.882	46031.85
455.088	42460.19
455.294	43050.01
455.5	43691.02
455.705	44434.44
455.911	41983.02
456.117	41526.32
456.323	41004.09
456.529	38749.28
456.735	40506.43
456.941	39416.91
457.147	38964.31
457.352	37727.34
457.558	36983.93
457.764	37547.12
457.97	36648.06
458.176	35687.56
458.381	35687.56
458.587	33813.67
458.793	33883.3
458.999	32019.65
459.204	34673.82
459.41	33320.11
459.616	31468.75
459.821	31333.58
460.027	31345.87
460.233	30602.46
460.438	28953.84
460.644	29365.48
460.85	27970.82
461.055	27823.36
461.261	27825.41
461.466	25699.62
461.672	24972.59
461.878	26717.46
462.083	24769.84
462.289	23958.85
462.494	24309.05
462.7	22799.69
462.905	22203.74
463.111	23035.21
463.316	23252.3
463.522	22623.57
463.727	22635.86
463.932	22705.49
464.138	22545.75
464.343	22414.68
464.549	21947.74
464.754	22654.29
464.959	22541.65
465.165	22191.45
465.37	21079.4
465.575	20938.09
465.781	21579.11
465.986	21589.35
466.191	21146.98
466.397	20493.68
466.602	19737.98
466.807	20282.74
467.012	20180.34
467.218	20094.33
467.423	19727.74
467.628	19926.39
467.833	21110.12
468.038	19938.68
468.244	19484.03
468.449	20379
468.654	19619.2
468.859	19481.99
469.064	19400.07
469.269	18742.67
469.474	18869.64
469.679	19162.5
469.885	18806.16
470.09	19303.81
470.295	19049.86
470.5	18400.66
470.705	18392.47
470.91	18247.06
471.115	17917.34
471.32	18220.44
471.525	17950.1
471.73	17614.24
471.935	17829.27
472.139	16891.3
472.344	16950.7
472.549	16956.84
472.754	16766.38
472.959	16428.46
473.164	16139.7
473.369	15881.66
473.574	16479.66
473.778	16324.02
473.983	16082.36
474.188	16020.92
474.393	15443.39
474.598	15500.73
474.802	15107.52
475.007	15183.3
475.212	15162.82
475.417	14462.41
475.621	14656.97
475.826	14804.42
476.031	13993.43
476.235	13995.48
476.44	14292.43
476.645	13952.47
476.849	13901.27
477.054	13757.91
477.259	13716.95
477.463	13589.98
477.668	13305.31
477.872	13454.81
478.077	13200.87
478.282	12762.6
478.486	12908.01
478.691	12946.92
478.895	12834.28
479.1	12475.88
479.304	12725.74
479.509	12426.73
479.713	12547.56
479.918	12271.09
480.122	12051.95
480.326	12305.9
480.531	12248.56
480.735	12123.63
480.94	11963.89
481.144	12338.67
481.348	11851.25
481.553	11841.01
481.757	11771.38
481.961	11865.59
482.166	11884.02
482.37	12031.48
482.574	11611.64
482.778	11617.79
482.983	11830.77
483.187	11687.42
483.391	11814.39
483.595	11795.96
483.8	11630.07
484.004	11795.96
484.208	11937.27
484.412	11744.76
484.616	11759.1
484.821	11939.32
485.025	11679.22
485.229	11746.81
485.433	11568.63
485.637	11496.96
485.841	11613.69
486.045	11707.9
486.249	11673.08
486.453	11625.98
486.657	11601.4
486.861	11765.24
487.065	11560.44
487.269	11582.97
487.473	11386.36
487.677	11771.38
487.881	11818.49
488.085	11677.18
488.289	11892.21
488.493	11517.43
488.697	11857.4
488.901	11812.34
489.105	11881.97
489.309	11630.07
489.512	11845.11
489.716	11728.38
489.92	11789.81
490.124	11777.53
490.328	12051.95
490.531	11904.5
490.735	12019.19
490.939	12027.38
491.143	11963.89
491.346	12213.74
491.55	12287.47
491.754	12180.98
491.958	12271.09
492.161	12234.22
492.365	12441.07
492.569	12359.15
492.772	12350.96
492.976	12633.58
493.18	12563.95
493.383	12756.46
493.587	12805.61
493.79	12731.88
493.994	12465.64
494.197	12813.8
494.401	12828.13
494.605	13049.32
494.808	13125.09
495.012	13213.15
495.215	13383.13
495.419	13653.47
495.622	13682.14
495.825	13544.92
496.029	13530.59
496.232	14085.59
496.436	13852.12
496.639	14245.33
496.843	14218.71
497.046	14441.93
497.249	14781.9
497.453	14517.71
497.656	14620.11
497.859	14630.35
498.063	14904.78
498.266	15265.22
498.469	15068.61
498.673	15316.42
498.876	15670.72
499.079	15799.74
499.282	15754.68
499.485	16235.95
499.689	16061.88
499.892	16446.9
500.095	16588.21
500.298	16950.7
500.501	16745.9
500.705	17182.12
500.908	17440.16
501.111	17647.01
501.314	17577.37
501.517	17841.56
501.72	18091.41
501.923	18154.9
502.126	18687.37
502.329	18718.09
502.532	18873.74
502.735	18943.37
502.938	19549.57
503.141	19377.54
503.344	19799.42
503.547	20008.31
503.75	20264.31
503.953	20284.79
504.156	20749.68
504.359	20575.6
504.562	20950.38
504.765	21472.61
504.968	21525.86
505.17	21886.3
505.373	21765.47
505.576	22193.5
505.779	22574.42
505.982	22695.25
506.185	23164.23
506.387	22912.33
506.59	23424.33
506.793	23496
506.996	23874.88
507.198	24350.01
507.401	24233.27
507.604	24550.71
507.807	24927.53
508.009	25161
508.212	25310.5
508.415	25666.85
508.617	25777.44
508.82	26062.11
509.022	25949.47
509.225	26537.24
509.428	26819.86
509.63	27088.14
509.833	27213.07
510.035	28163.32
510.238	28120.32
510.44	28192
510.643	28507.38
510.845	28929.27
511.048	28738.8
511.25	29396.2
511.453	29719.78
511.655	30737.62
511.858	29934.82
512.06	30424.28
512.262	30874.84
512.465	30797.01
512.667	31382.73
512.87	31864
513.072	31669.45
513.274	32339.13
513.477	32738.49
513.679	32758.97
513.881	33402.03
514.084	33557.67
514.286	33832.1
514.488	33881.25
514.69	34942.1
514.893	34634.91
515.095	34794.65
515.297	35243.15
515.499	35626.12
515.701	36131.97
515.904	36744.31
516.106	36619.39
516.308	37037.17
516.51	37332.08
516.712	37303.41
516.914	37930.09
517.116	38454.37
517.318	38683.74
517.52	38812.76
517.722	39033.94
517.925	39523.41
518.127	39859.27
518.329	40576.06
518.531	40080.46
518.733	40991.8
518.935	41200.69
519.136	41120.82
519.338	42075.18
519.54	41935.91
519.742	42069.03
519.944	42798.11
520.146	43303.96
520.348	43435.03
520.55	43910.16
520.752	44198.92
520.954	44780.54
521.155	44368.9
521.357	45011.96
521.559	45687.79
521.761	45898.73
521.963	45681.65
522.164	46343.14
522.366	46605.28
522.568	47274.97
522.77	47000.54
522.971	47594.45
523.173	47051.74
523.375	48434.12
523.576	47793.11
523.778	48251.85
523.98	49198.01
524.181	49124.29
524.383	49777.59
524.584	49763.25
524.786	49953.71
524.988	49558.45
525.189	50723.75
525.391	50783.14
525.592	51274.65
525.794	50996.13
525.995	50901.92
526.197	51381.15
526.398	51282.84
526.6	51940.24
526.801	51815.32
527.003	52421.51
527.204	52198.29
527.406	52593.54
527.607	52681.61
527.808	52978.56
528.01	52376.46
528.211	52720.52
528.412	53961.59
528.614	53511.03
528.815	53398.4
529.016	54371.18
529.218	53402.49
529.419	54322.03
529.62	53965.68
529.822	53977.97
530.023	54291.31
530.224	54524.78
530.425	54063.99
530.626	53918.58
530.828	54063.99
531.029	54823.78
531.23	54487.92
531.431	54997.86
531.632	55268.19
531.833	55223.14
532.035	55298.91
532.236	55413.6
532.437	55581.53
532.638	55317.34
532.839	55542.62
533.04	55966.55
533.241	54723.43
533.442	56210.26
533.643	55956.31
533.844	55866.2
534.045	56191.83
534.246	55298.91
534.447	55911.25
534.648	55690.07
534.849	55636.83
535.05	55092.07
535.251	55528.28
535.451	55792.47
535.652	55999.32
535.853	55755.61
536.054	55491.42
536.255	56271.7
536.456	55407.45
536.657	56621.9
536.857	55612.25
537.058	55460.7
537.259	56271.7
537.46	55962.45
537.66	55937.88
537.861	55882.58
538.062	55884.63
538.263	55829.33
538.463	55645.02
538.664	55266.14
538.865	55966.55
539.065	56109.91
539.266	55845.72
539.466	56339.28
539.667	55561.05
539.868	56099.67
540.068	55319.39
540.269	55665.5
540.469	56128.34
540.67	55407.45
540.87	55239.52
541.071	56068.95
541.271	55800.66
541.472	55817.05
541.672	55173.98
541.873	55669.59
542.073	55016.29
542.274	55976.79
542.474	55712.6
542.675	55348.06
542.875	55915.35
543.075	55704.41
543.276	54866.79
543.476	55837.53
543.676	55292.77
543.877	55421.79
544.077	55939.93
544.277	55145.31
544.478	55518.04
544.678	55726.94
544.878	55915.35
545.078	55434.08
545.279	55296.86
545.479	54815.59
545.679	55253.86
545.879	55313.25
546.079	55337.82
546.28	55395.17
546.48	55257.95
546.68	55241.57
546.88	55520.09
547.08	55036.77
547.28	54995.81
547.48	55014.24
547.68	55440.22
547.88	55018.34
548.081	55444.32
548.281	55384.93
548.481	54942.56
548.681	55538.52
548.881	55364.45
549.081	55032.67
549.28	54911.84
549.48	55409.5
549.68	54580.07
549.88	55436.12
550.08	54508.39
550.28	55202.66
550.48	55350.11
550.68	55638.87
550.88	54745.96
551.08	55055.2
551.279	54528.87
551.479	54676.33
551.679	54829.93
551.879	54571.88
552.079	54805.35
552.278	54627.18
552.478	55030.63
552.678	54846.31
552.878	54745.96
553.077	54766.44
553.277	53906.29
553.477	55212.9
553.676	54784.87
553.876	54819.69
554.076	54780.77
554.275	54252.4
554.475	53945.2
554.674	54508.39
554.874	54567.79
555.074	54291.31
555.273	54344.56
555.473	54412.14
555.672	53996.4
555.872	54264.69
556.071	54387.56
556.271	54434.67
556.47	53762.93
556.67	53730.17
556.869	53988.21
557.068	53851
557.268	53762.93
557.467	53842.81
557.667	53951.35
557.866	53601.14
558.065	53490.55
558.265	53324.67
558.464	53183.36
558.663	53551.99
558.863	52771.72
559.062	53670.78
559.261	53021.57
559.461	53443.45
559.66	52863.88
559.859	53255.04
560.058	52722.57
560.258	53062.53
560.457	52298.64
560.656	52503.43
560.855	52409.23
561.054	52810.63
561.253	52327.31
561.453	52280.2
561.652	52542.34
561.851	52509.58
562.05	51952.53
562.249	51602.33
562.448	52052.88
562.647	52079.5
562.846	51639.19
563.045	51651.48
563.244	51395.48
563.443	51882.9
563.642	50854.82
563.841	51624.85
564.04	51184.54
564.239	51205.02
564.438	50809.76
564.637	51585.94
564.836	51041.18
565.035	50492.33
565.234	51000.22
565.432	50688.93
565.631	50176.94
565.83	50566.06
566.029	50115.5
566.228	49841.07
566.427	49974.19
566.625	49783.73
566.824	49542.07
567.023	49685.43
567.222	49230.78
567.42	49513.4
567.619	49361.85
567.818	49509.3
568.016	49062.85
568.215	49636.28
568.414	49007.55
568.612	49226.68
568.811	48794.56
569.01	48794.56
569.208	48280.52
569.407	48841.67
569.605	47952.85
569.804	48548.81
570.002	47541.21
570.201	48128.97
570.4	48026.57
570.598	47817.68
570.797	47586.26
570.995	47801.3
571.193	47098.84
571.392	47174.62
571.59	46568.42
571.789	46826.46
571.987	46990.3
572.186	46898.14
572.384	46334.95
572.582	46746.59
572.781	46584.8
572.979	45716.47
573.177	46339.05
573.376	46699.49
573.574	45915.12
573.772	45706.23
573.971	45648.88
574.169	45366.26
574.367	45069.31
574.565	45745.14
574.763	45429.75
574.962	45378.55
575.16	44680.19
575.358	44997.63
575.556	44252.17
575.754	44897.28
575.952	44078.09
576.151	44686.34
576.349	44250.12
576.547	44241.93
576.745	44416
576.943	44426.24
577.141	43881.49
577.339	43881.49
577.537	43574.29
577.735	43676.69
577.933	42869.79
578.131	43496.47
578.329	43367.44
578.527	42734.62
578.725	42986.52
578.923	43545.62
579.121	42607.65
579.319	42533.92
579.516	42906.65
579.714	42841.12
579.912	42515.49
580.11	41935.91
580.308	42116.14
580.506	41860.14
580.704	41460.79
580.901	41690.16
581.099	41956.39
581.297	41669.68
581.495	41088.06
581.692	41565.23
581.89	41241.65
582.088	41452.59
582.285	40647.74
582.483	41149.49
582.681	41020.47
582.878	40805.44
583.076	40272.96
583.274	40739.9
583.471	40510.53
583.669	40080.46
583.866	40178.76
584.064	40221.76
584.262	39531.6
584.459	40119.37
584.657	39703.63
584.854	40080.46
585.052	39357.52
585.249	39500.88
585.447	39740.49
585.644	39113.81
585.841	39126.1
586.039	39658.57
586.236	38597.73
586.434	38624.35
586.631	38567.01
586.828	38421.6
587.026	38589.53
587.223	38311.01
587.42	38212.71
587.618	38290.53
587.815	37602.41
588.012	37868.65
588.21	37839.98
588.407	37999.72
588.604	37229.68
588.801	37168.24
588.999	37323.89
589.196	37452.91
589.393	37022.84
589.59	37008.5
589.787	37272.69
589.984	36818.04
590.182	36775.03
590.379	36924.54
590.576	36545.66
590.773	36588.67
590.97	36164.74
591.167	36252.8
591.364	36099.2
591.561	36426.88
591.758	36033.67
591.955	35722.38
592.152	35988.61
592.349	35597.45
592.546	35841.16
592.743	35624.08
592.94	35099.8
593.137	35437.71
593.334	35490.96
593.531	34802.84
593.727	34954.39
593.924	34692.25
594.121	34528.41
594.318	34806.94
594.515	34462.88
594.712	34446.49
594.908	33965.22
595.105	34403.49
595.302	34014.37
595.499	34110.63
595.696	34088.1
595.892	33633.45
596.089	33801.38
596.286	33993.89
596.482	33379.5
596.679	33254.58
596.876	33404.08
597.072	33172.66
597.269	33608.87
597.466	33121.46
597.662	32904.37
597.859	32769.21
598.055	33111.22
598.252	32599.23
598.448	32834.74
598.645	32529.59
598.841	32165.06
599.038	32453.82
599.234	32351.42
599.431	32101.57
599.627	31902.92
599.824	32312.51
600.02	31591.62
600.217	31849.67
600.413	31679.69
600.609	31442.12
600.806	31333.58
601.002	31618.25
601.198	31577.29
601.395	31188.17
601.591	31298.77
601.787	30999.76
601.984	30813.4
602.18	31096.02
602.376	30776.53
602.572	30788.82
602.769	30246.11
602.965	30264.54
603.161	30405.85
603.357	29998.3
603.553	29912.29
603.75	30037.22
603.946	30061.79
604.142	29897.95
604.338	29564.14
604.534	29869.28
604.73	29263.08
604.926	29383.91
605.122	29177.07
605.318	29226.22
605.514	29125.87
605.71	28931.31
605.906	28749.04
606.102	28855.54
606.298	29191.41
606.494	28732.66
606.69	28667.13
606.886	28646.65
607.082	28550.39
607.278	28833.01
607.474	28304.63
607.67	28462.33
607.866	27952.38
608.062	28232.96
608.257	28087.55
608.453	28431.61
608.649	28192
608.845	28099.84
609.041	28019.97
609.236	28259.58
609.432	27608.33
609.628	27909.38
609.824	27589.89
610.019	27395.34
610.215	27743.49
610.411	27849.99
610.606	27651.33
610.802	27528.45
610.998	27370.76
611.193	27573.51
611.389	26940.69
611.584	27045.13
611.78	26985.74
611.976	27383.05
612.171	27231.5
612.367	26584.34
612.562	26684.69
612.758	26490.13
612.953	26567.96
613.149	26774.8
613.344	26619.16
613.539	26914.06
613.735	26414.36
613.93	26670.36
614.126	26678.55
614.321	26621.2
614.517	26230.04
614.712	26105.12
614.907	26316.06
615.103	26373.4
615.298	26299.67
615.493	26266.91
615.688	25754.91
615.884	26465.56
616.079	25734.43
616.274	26311.96
616.47	26049.82
616.665	25808.16
616.86	25494.82
617.055	25824.54
617.25	25566.5
617.445	25679.14
617.641	25140.52
617.836	25367.85
618.031	25128.24
618.226	25130.28
618.421	25126.19
618.616	25431.33
618.811	24800.56
619.006	25105.71
619.201	24679.73
619.396	24743.22
619.591	24354.1
619.786	24452.41
619.981	24290.62
620.176	24622.39
620.371	24438.07
620.566	24290.62
620.761	23860.54
620.956	24038.72
621.151	23735.62
621.346	23905.6
621.541	23293.26
621.735	23989.56
621.93	23375.17
622.125	23575.87
622.32	22955.34
622.515	23176.52
622.709	22932.81
622.904	22752.59
623.099	22928.72
623.294	22822.22
623.488	22439.25
623.683	22525.27
623.878	21980.51
624.072	22211.93
624.267	22449.49
624.462	21783.9
624.656	21744.99
624.851	21497.19
625.046	21497.19
625.24	21300.58
625.435	21202.28
625.629	21151.08
625.824	21292.39
626.018	21017.96
626.213	20344.18
626.407	20903.28
626.602	20227.45
626.796	20530.55
626.991	20448.63
627.185	20292.98
627.38	19950.97
627.574	20229.49
627.768	19938.68
627.963	19979.64
628.157	19633.54
628.352	19529.09
628.546	19209.61
628.74	19701.12
628.935	19408.26
629.129	19504.51
629.323	19013
629.517	19080.58
629.712	19056.01
629.906	18736.52
630.1	18294.16
630.294	18814.35
630.489	18562.45
630.683	18492.82
630.877	18011.54
631.071	18220.44
631.265	18036.12
631.459	17911.19
631.653	18005.4
631.848	17972.63
632.042	17870.23
632.236	17882.52
632.43	17350.05
632.624	17653.15
632.818	17237.41
633.012	17286.56
633.206	17247.65
633.4	17356.19
633.594	16946.6
633.788	17161.64
633.982	16846.25
634.176	16694.7
634.369	16620.97
634.563	16502.19
634.757	16371.12
634.951	16592.3
635.145	16500.14
635.339	16426.42
635.533	16115.12
635.726	16018.87
635.92	15812.03
636.114	16049.59
636.308	15787.45
636.501	15392.19
636.695	15977.91
636.889	15576.51
637.083	15517.12
637.276	15318.46
637.47	15347.14
637.664	15293.89
637.857	15359.42
638.051	15134.15
638.244	14917.06
638.438	15140.29
638.632	14990.79
638.825	14749.13
639.019	14689.74
639.212	14585.29
639.406	14560.72
639.599	14624.2
639.793	14540.24
639.986	14308.82
640.18	14251.47
640.373	14061.01
640.567	14114.26
640.76	14065.11
640.954	13905.37
641.147	13821.4
641.34	13788.63
641.534	13608.41
641.727	13651.42
641.92	13530.59
642.114	13788.63
642.307	13508.06
642.5	13321.7
642.694	13077.99
642.887	13231.58
643.08	13276.64
643.273	12963.3
643.467	12967.4
643.66	12844.52
643.853	12977.64
644.046	12713.45
644.239	12817.9
644.432	12645.87
644.626	12459.5
644.819	12486.12
645.012	12432.88
645.205	12584.43
645.398	12379.63
645.591	12060.15
645.784	12068.34
645.977	12056.05
646.17	12174.83
646.363	12068.34
646.556	11777.53
646.749	11978.23
646.942	11933.17
647.135	11623.93
647.328	11793.91
647.521	11857.4
647.714	11673.08
647.907	11546.11
648.099	11302.4
648.292	11374.08
648.485	11359.74
648.678	11089.41
648.871	11300.35
649.064	11060.74
649.256	11277.82
649.449	11224.58
649.642	10925.57
649.835	10817.03
650.027	10751.49
650.22	10808.84
650.413	10774.02
650.605	10696.2
650.798	10743.3
650.991	10243.6
651.183	10628.62
651.376	10315.28
651.568	10429.96
651.761	10397.2
651.954	10438.16
652.146	10259.98
652.339	10399.24
652.531	10178.06
652.724	10225.17
652.916	9948.69
653.109	9864.72
653.301	9733.65
653.494	9799.19
653.686	9563.67
653.879	9846.29
654.071	9815.57
654.263	9678.36
654.456	9653.78
654.648	9780.76
654.84	9418.27
655.033	9565.72
655.225	9283.1
655.417	9264.67
655.61	9350.68
655.802	9528.86
655.994	9063.97
656.186	9008.67
656.379	9037.34
656.571	9252.38
656.763	9045.54
656.955	8881.7
657.148	9127.46
657.34	8955.43
657.532	8814.12
657.724	8906.27
657.916	8889.89
658.108	8681
658.3	8726.05
658.492	8504.87
658.684	8515.11
658.876	8642.09
659.068	8517.16
659.26	8490.54
659.452	8265.26
659.644	8492.59
659.836	8203.82
660.028	8316.46
660.22	8062.51
660.412	8222.25
660.604	8082.99
660.796	8201.77
660.988	8179.25
661.18	7902.77
661.372	8105.52
661.563	7900.72
661.755	7925.3
661.947	7892.53
662.139	7558.71
662.331	7720.5
662.522	7867.95
662.714	7614.01
662.906	7669.3
663.097	7599.67
663.289	7521.85
663.481	7571
663.673	7591.48
663.864	7296.57
664.056	7480.89
664.247	7337.53
664.439	7315
664.631	7253.56
664.822	7401.02
665.014	7183.93
665.205	7206.46
665.397	7175.74
665.588	7196.22
665.78	7202.36
665.971	7089.73
666.163	6993.47
666.354	7134.78
666.546	6942.27
666.737	7048.77
666.929	6981.18
667.12	7003.71
667.311	6837.83
667.503	7007.81
667.694	6862.4
667.885	6819.39
668.077	6884.93
668.268	6657.61
668.459	6803.01
668.651	6809.15
668.842	6649.41
669.033	6499.91
669.224	6524.49
669.416	6837.83
669.607	6612.55
669.798	6551.11
669.989	6592.07
670.18	6524.49
670.371	6446.66
670.563	6368.84
670.754	6446.66
670.945	6301.26
671.136	6456.9
671.327	6342.22
671.518	6315.59
671.709	6358.6
671.9	6444.62
672.091	6180.43
672.282	6174.28
672.473	6280.78
672.664	6151.76
672.855	6227.53
673.046	6241.87
673.237	6401.61
673.428	6272.59
673.619	6100.56
673.809	6110.8
674	6055.5
674.191	6039.12
674.382	6106.7
674.573	5916.24
674.764	6039.12
674.954	6088.27
675.145	5903.95
675.336	5979.73
675.527	5877.33
675.717	5854.8
675.908	5865.04
676.099	5824.08
676.289	5862.99
676.48	5854.8
676.671	5854.8
676.861	5830.23
677.052	5785.17
677.243	5695.06
677.433	5809.75
677.624	5764.69
677.814	5832.27
678.005	5723.73
678.195	5793.36
678.386	5891.66
678.576	5748.31
678.767	5750.35
678.957	5598.81
679.148	5742.16
679.338	5678.68
679.529	5860.95
679.719	5639.76
679.909	5719.64
680.1	5500.5
680.29	5713.49
680.481	5455.45
680.671	5682.77
680.861	5604.95
681.052	5633.62
681.242	5394.01
681.432	5635.67
681.622	5488.21
681.813	5545.56
682.003	5555.8
682.193	5471.83
682.383	5617.24
682.573	5500.5
682.764	5680.72
682.954	5330.52
683.144	5484.12
683.334	5424.73
683.524	5437.02
683.714	5424.73
683.904	5461.59
684.094	5484.12
684.284	5418.58
684.474	5451.35
684.664	5408.34
684.854	5416.54
685.044	5467.74
685.234	5338.71
685.424	5291.61
685.614	5256.79
685.804	5357.14
685.994	5355.1
686.184	5353.05
686.374	5232.22
686.564	5211.74
686.753	5275.23
686.943	5183.07
687.133	5107.29
687.323	5072.48
687.513	5283.42
687.702	5176.92
687.892	4988.51
688.082	5088.86
688.272	4972.13
688.461	4994.65
688.651	4937.31
688.841	4943.46
689.03	4947.55
689.22	5072.48
689.41	4865.63
689.599	4857.44
689.789	4861.54
689.979	4953.7
690.168	4888.16
690.358	4701.79
690.547	4709.99
690.737	4808.29
690.926	4701.79
691.116	4605.54
691.305	4693.6
691.495	4662.88
691.684	4671.08
691.874	4623.97
692.063	4527.72
692.252	4705.89
692.442	4675.17
692.631	4355.69
692.82	4576.87
693.01	4480.61
693.199	4619.88
693.388	4449.89
693.578	4327.02
693.767	4466.28
693.956	4390.5
694.146	4296.3
694.335	4410.98
694.524	4382.31
694.713	4400.74
694.902	4337.26
695.092	4501.09
695.281	4300.39
695.47	4261.48
695.659	4275.82
695.848	4218.47
696.037	4179.56
696.226	4191.85
696.415	3962.48
696.604	4152.94
696.793	4138.6
696.982	4146.8
697.171	4169.32
697.36	4159.08
697.549	4079.21
697.738	4105.84
697.927	4095.6
698.116	4073.07
698.305	4068.97
698.494	4023.92
698.683	3954.29
698.872	4255.34
699.061	4023.92
699.25	4048.49
699.438	3995.25
699.627	3964.53
699.816	4083.31
700.005	4019.82
700.193	3987.05
700.382	4134.51
700.571	3939.95
700.76	3954.29
700.948	3964.53
701.137	3907.18
701.326	3966.57
701.514	3772.02
701.703	4001.39
701.892	3999.34
702.08	3909.23
702.269	4030.06
702.457	3862.13
702.646	3886.7
702.834	3911.28
703.023	3835.5
703.212	3905.14
703.4	3919.47
703.589	3800.69
703.777	3817.07
703.965	3903.09
704.154	3925.61
704.342	3870.32
704.531	3866.22
704.719	3772.02
704.907	3968.62
705.096	3870.32
705.284	3878.51
705.472	4007.53
705.661	3954.29
705.849	3892.85
706.037	3954.29
706.226	3886.7
706.414	3966.57
706.602	3989.1
706.79	3931.76
706.979	3909.23
707.167	3915.37
707.355	4073.07
707.543	4062.83
707.731	3960.43
707.919	3829.36
708.107	3827.31
708.296	3855.98
708.484	3737.2
708.672	3937.9
708.86	3860.08
709.048	3739.25
709.236	3868.27
709.424	3864.18
709.612	3939.95
709.8	3847.79
709.988	3892.85
710.176	3792.5
710.364	3788.4
710.551	3720.82
710.739	3989.1
710.927	3989.1
711.115	3774.07
711.303	3864.18
711.491	3907.18
711.679	3839.6
711.866	3923.57
712.054	4044.4
712.242	3774.07
712.43	3874.42
712.617	3794.54
712.805	3901.04
712.993	3960.43
713.181	3782.26
713.368	3950.19
713.556	3903.09
713.744	3886.7
713.931	3931.76
714.119	3892.85
714.306	3907.18
714.494	3862.13
714.682	3911.28
714.869	3698.29
715.057	3919.47
715.244	3878.51
715.432	3939.95
715.619	3864.18
715.807	3886.7
715.994	3933.81
716.182	3835.5
716.369	3976.81
716.556	3851.89
716.744	3835.5
716.931	3718.77
717.119	4007.53
717.306	3956.33
717.493	3982.96
717.681	3939.95
717.868	3806.83
718.055	3874.42
718.242	3987.05
718.43	3960.43
718.617	3872.37
718.804	3839.6
718.991	3931.76
719.179	3876.46
719.366	4058.73
719.553	3870.32
719.74	3954.29
719.927	3980.91
720.114	3931.76
720.301	3831.41
720.488	3931.76
720.676	3907.18
720.863	3921.52
721.05	3919.47
721.237	4034.16
721.424	3913.33
721.611	3880.56
721.798	3944.05
721.985	3997.29
722.172	4013.68
722.358	3907.18
722.545	3974.77
722.732	3999.34
722.919	3939.95
723.106	3993.2
723.293	3989.1
723.48	4023.92
723.667	3942
723.853	4089.45
724.04	4181.61
724.227	3993.2
724.414	4034.16
724.6	3901.04
724.787	3896.94
724.974	4048.49
725.161	3942
725.347	4066.92
725.534	3919.47
725.72	3999.34
725.907	4138.6
726.094	4148.84
726.28	4028.01
726.467	3972.72
726.653	4052.59
726.84	4189.8
727.027	4189.8
727.213	3886.7
727.4	4064.88
727.586	4003.44
727.773	4142.7
727.959	3948.14
728.145	4060.78
728.332	4058.73
728.518	4077.16
728.705	4214.38
728.891	4003.44
729.077	4068.97
729.264	4058.73
729.45	4116.08
729.636	4152.94
729.823	4130.41
730.009	4038.25
730.195	4089.45
730.382	4101.74
730.568	4032.11
730.754	4163.18
730.94	4099.69
731.126	4075.12
731.313	4286.06
731.499	4062.83
731.685	4159.08
731.871	4167.28
732.057	4107.88
732.243	4116.08
732.429	4120.17
732.615	4017.77
732.801	4109.93
732.987	4128.36
733.173	4085.36
733.359	4126.32
733.545	4089.45
733.731	4058.73
733.917	4138.6
734.103	4154.99
734.289	4269.67
734.475	4085.36
734.661	4109.93
734.847	4099.69
735.033	4114.03
735.219	4179.56
735.404	4230.76
735.59	4036.21
735.776	4077.16
735.962	4255.34
736.148	4238.95
736.333	4134.51
736.519	4249.19
736.705	4304.49
736.89	4001.39
737.076	4089.45
737.262	4089.45
737.447	4089.45
737.633	4009.58
737.819	4060.78
738.004	3935.85
738.19	4277.87
738.375	4005.49
738.561	4134.51
738.747	4122.22
738.932	4066.92
739.118	4066.92
739.303	4097.64
739.489	4122.22
739.674	3987.05
739.859	3999.34
740.045	3985.01
740.23	4079.21
740.416	3864.18
740.601	3960.43
740.786	4046.44
740.972	3780.21
741.157	4060.78
741.342	3942
741.528	3923.57
741.713	3858.03
741.898	3923.57
742.084	3911.28
742.269	4021.87
742.454	3991.15
742.639	3853.94
742.824	3851.89
743.01	4056.68
743.195	3909.23
743.38	3915.37
743.565	3960.43
743.75	3952.24
743.935	3933.81
744.12	3862.13
744.305	3741.3
744.49	3724.91
744.675	3688.05
744.86	3743.35
745.045	3690.1
745.23	3774.07
745.415	3714.67
745.6	3858.03
745.785	3716.72
745.97	3561.08
746.155	3649.14
746.34	3759.73
746.525	3505.78
746.71	3683.95
746.895	3473.01
747.079	3513.97
747.264	3550.84
747.449	3505.78
747.634	3356.28
747.819	3597.94
748.003	3464.82
748.188	3458.68
748.373	3387
748.557	3403.38
748.742	3399.29
748.927	3313.27
749.111	3395.19
749.296	3257.98
749.481	3387
749.665	3432.05
749.85	3303.03
750.034	3241.59
750.219	3225.21
750.404	3169.91
750.588	3239.55
750.773	3180.15
750.957	3090.04
751.141	3042.94
751.326	3088
751.51	3028.6
751.695	3116.67
751.879	3040.89
752.064	3049.08
752.248	2985.6
752.432	2965.12
752.617	3053.18
752.801	2889.34
752.985	3059.32
753.17	3006.08
753.354	3014.27
753.538	3038.84
753.722	2799.23
753.907	2883.2
754.091	2795.14
754.275	2924.16
754.459	2885.25
754.643	2709.12
754.828	2815.62
755.012	2719.36
755.196	2672.26
755.38	2629.25
755.564	2541.19
755.748	2674.31
755.932	2623.11
756.116	2522.76
756.3	2541.19
756.484	2580.1
756.668	2539.14
756.852	2522.76
757.036	2533
757.22	2440.84
757.404	2477.7
757.588	2418.31
757.772	2428.55
757.956	2369.16
758.14	2449.03
758.323	2430.6
758.507	2367.11
758.691	2408.07
758.875	2408.07
759.059	2346.63
759.242	2375.3
759.426	2225.8
759.61	2399.88
759.794	2268.81
759.977	2336.39
760.161	2410.12
760.345	2340.49
760.528	2291.34
760.712	2236.04
760.895	2197.13
761.079	2072.2
761.263	2250.38
761.446	2176.65
761.63	2154.12
761.813	2248.33
761.997	2141.83
762.18	2123.4
762.364	2059.92
762.547	2125.45
762.731	2053.77
762.914	2141.83
763.098	2147.98
763.281	2094.73
763.464	2025.1
763.648	2195.08
763.831	1992.33
764.015	1992.33
764.198	1982.09
764.381	1959.56
764.564	2090.63
764.748	2057.87
764.931	1969.8
765.114	1945.23
765.297	1955.47
765.481	1924.75
765.664	1928.85
765.847	1986.19
766.03	1932.94
766.213	1945.23
766.397	1894.03
766.58	1916.56
766.763	1939.09
766.946	1875.6
767.129	1902.22
767.312	1869.45
767.495	1830.54
767.678	1789.58
767.861	1928.85
768.044	1889.93
768.227	1908.37
768.41	1861.26
768.593	1863.31
768.776	1867.41
768.959	1722
769.142	1846.93
769.324	1664.66
769.507	1738.38
769.69	1644.18
769.873	1719.95
770.056	1846.93
770.239	1662.61
770.421	1750.67
770.604	1722
770.787	1709.71
770.97	1597.07
771.152	1562.26
771.335	1599.12
771.518	1668.75
771.7	1607.31
771.883	1685.14
772.066	1578.64
772.248	1662.61
772.431	1656.47
772.613	1625.75
772.796	1599.12
772.978	1625.75
773.161	1617.55
773.343	1568.4
773.526	1502.87
773.708	1537.68
773.891	1562.26
774.073	1408.66
774.256	1441.43
774.438	1558.16
774.621	1492.63
774.803	1543.83
774.985	1521.3
775.168	1584.79
775.35	1353.37
775.532	1445.52
775.715	1429.14
775.897	1357.46
776.079	1377.94
776.261	1369.75
776.444	1361.56
776.626	1455.76
776.808	1330.84
776.99	1230.49
777.173	1330.84
777.355	1322.65
777.537	1312.41
777.719	1199.77
777.901	1289.88
778.083	1273.5
778.265	1255.06
778.447	1207.96
778.629	1271.45
778.811	1261.21
778.993	1195.67
779.175	1273.5
779.357	1189.53
779.539	1121.95
779.721	1099.42
779.903	1189.53
780.085	1181.34
780.267	1224.34
780.449	1169.05
780.631	1117.85
780.812	1146.52
780.994	1113.75
781.176	1085.08
781.358	1085.08
781.54	1091.23
781.721	1132.19
781.903	1097.37
782.085	1093.27
782.267	1078.94
782.448	1007.26
782.63	1005.21
782.812	1037.98
782.993	1013.4
783.175	1074.84
783.357	966.3
783.538	994.97
783.72	986.78
783.901	1042.07
784.083	1001.12
784.264	870.05
784.446	841.37
784.627	978.59
784.809	927.39
784.99	878.24
785.172	919.2
785.353	868
785.535	980.64
785.716	902.81
785.897	802.46
786.079	892.57
786.26	902.81
786.441	911
786.623	734.88
786.804	874.14
786.985	794.27
787.167	822.94
787.348	831.13
787.529	814.75
787.71	800.41
787.891	853.66
788.073	792.22
788.254	822.94
788.435	790.17
788.616	736.93
788.797	691.87
788.978	747.17
789.159	796.32
789.34	755.36
789.522	732.83
789.703	749.22
789.884	667.3
790.065	726.69
790.246	843.42
790.427	745.12
790.607	665.25
790.788	755.36
790.969	636.58
791.15	761.5
791.331	620.19
791.512	738.98
791.693	634.53
791.874	669.34
792.054	796.32
792.235	708.26
792.416	593.57
792.597	661.15
792.778	638.62
792.958	655.01
793.139	634.53
793.32	534.18
793.5	589.47
793.681	624.29
793.862	681.63
794.042	603.81
794.223	573.09
794.404	571.04
794.584	612
794.765	571.04
794.945	601.76
795.126	564.9
795.306	646.82
795.487	503.46
795.667	607.91
795.848	679.58
796.028	560.8
796.209	476.84
796.389	618.15
796.57	548.51
796.75	497.32
796.93	644.77
797.111	466.6
797.291	573.09
797.471	534.18
797.652	536.23
797.832	523.94
798.012	542.37
798.192	493.22
798.373	499.36
798.553	511.65
798.733	515.75
798.913	507.55
799.093	550.56
799.274	523.94
799.454	577.19
799.634	530.08
799.814	532.13
799.994	521.89
800.174	519.84
800.354	442.02
800.534	364.2
800.714	460.45
800.894	439.97
801.074	386.72
801.254	482.98
801.434	468.64
801.614	470.69
801.794	429.73
801.974	1144.47
802.154	376.48
802.334	466.6
802.514	446.12
802.693	364.2
802.873	450.21
803.053	534.18
803.233	411.3
803.413	392.87
803.592	386.72
803.772	427.68
803.952	448.16
804.131	284.33
804.311	435.88
804.491	351.91
804.67	396.96
804.85	372.39
805.03	450.21
805.209	489.12
805.389	403.11
805.568	433.83
805.748	364.2
805.928	345.77
806.107	378.53
806.287	421.54
806.466	392.87
806.646	366.25
806.825	368.29
807.004	405.16
807.184	454.31
807.363	419.49
807.543	333.48
807.722	315.05
807.901	329.38
808.081	382.63
808.26	319.14
808.439	292.52
808.619	323.24
808.798	337.57
808.977	362.15
809.156	368.29
809.336	306.85
809.515	345.77
809.694	343.72
809.873	392.87
810.052	378.53
810.231	300.71
810.411	294.57
810.59	364.2
810.769	372.39
810.948	339.62
811.127	321.19
811.306	304.81
811.485	321.19
811.664	376.48
811.843	364.2
812.022	292.52
812.201	284.33
812.38	241.32
812.559	341.67
812.737	300.71
812.916	224.94
813.095	229.03
813.274	298.66
813.453	358.05
813.632	290.47
813.811	284.33
813.989	198.31
814.168	319.14
814.347	216.74
814.526	257.7
814.704	329.38
814.883	347.81
815.062	302.76
815.24	212.65
815.419	259.75
815.598	255.65
815.776	233.13
815.955	218.79
816.133	263.85
816.312	349.86
816.49	216.74
816.669	241.32
816.847	259.75
817.026	243.37
817.204	220.84
817.383	335.53
817.561	188.07
817.74	313
817.918	229.03
818.097	194.22
818.275	181.93
818.453	241.32
818.632	288.42
818.81	233.13
818.988	196.26
819.167	243.37
819.345	214.7
819.523	198.31
819.701	257.7
819.879	292.52
820.058	192.17
820.236	259.75
820.414	218.79
820.592	265.89
820.77	161.45
820.948	163.5
821.127	204.46
821.305	208.55
821.483	116.39
821.661	292.52
821.839	278.18
822.017	259.75
822.195	210.6
822.373	192.17
822.551	167.59
822.729	300.71
822.907	226.98
823.085	239.27
823.262	149.16
823.44	269.99
823.618	194.22
823.796	224.94
823.974	165.54
824.152	214.7
824.329	202.41
824.507	210.6
824.685	202.41
824.863	237.22
825.04	220.84
825.218	155.3
825.396	175.78
825.574	194.22
825.751	153.26
825.929	165.54
826.107	151.21
826.284	212.65
826.462	163.5
826.639	165.54
826.817	165.54
826.994	169.64
827.172	124.58
827.349	212.65
827.527	147.11
827.704	186.02
827.882	161.45
828.059	200.36
828.237	132.78
828.414	208.55
828.591	186.02
828.769	175.78
828.946	175.78
829.124	140.97
829.301	181.93
829.478	147.11
829.655	255.65
829.833	126.63
830.01	214.7
830.187	222.89
830.364	192.17
830.542	108.2
830.719	241.32
830.896	120.49
831.073	145.06
831.25	220.84
831.427	239.27
831.604	175.78
831.782	108.2
831.959	200.36
832.136	132.78
832.313	149.16
832.49	155.3
832.667	126.63
832.844	118.44
833.021	255.65
833.198	145.06
833.374	143.02
833.551	196.26
833.728	173.74
833.905	200.36
834.082	100.01
834.259	186.02
834.436	126.63
834.612	128.68
834.789	128.68
834.966	93.87
835.143	91.82
835.319	67.24
835.496	145.06
835.673	155.3
835.85	132.78
836.026	85.67
836.203	138.92
836.38	132.78
836.556	165.54
836.733	97.96
836.909	50.86
837.086	130.73
837.262	149.16
837.439	167.59
837.616	157.35
837.792	112.3
837.968	122.54
838.145	44.71
838.321	122.54
838.498	153.26
838.674	126.63
838.851	126.63
839.027	155.3
839.203	95.91
839.38	102.06
839.556	67.24
839.732	97.96
839.909	132.78
840.085	157.35
840.261	110.25
840.437	77.48
840.614	132.78
840.79	65.19
840.966	114.34
841.142	67.24
841.318	13.99
841.494	181.93
841.671	69.29
841.847	67.24
842.023	63.15
842.199	100.01
842.375	38.57
842.551	40.62
842.727	65.19
842.903	151.21
843.079	79.53
843.255	87.72
843.431	110.25
843.607	108.2
843.783	22.19
843.959	108.2
844.134	91.82
844.31	136.87
844.486	50.86
844.662	26.28
844.838	18.09
845.013	149.16
845.189	65.19
845.365	79.53
845.541	83.63
845.716	79.53
845.892	140.97
846.068	-2.39
846.244	57
846.419	75.43
846.595	59.05
846.77	48.81
846.946	63.15
847.122	24.23
847.297	13.99
847.473	169.64
847.648	7.85
847.824	83.63
847.999	7.85
848.175	91.82
848.35	24.23
848.526	89.77
848.701	108.2
848.876	147.11
849.052	143.02
849.227	65.19
849.403	42.67
849.578	44.71
849.753	61.1
849.929	136.87
850.104	18.09
850.279	32.43
850.454	24.23
850.63	69.29
850.805	93.87
850.98	48.81
851.155	-57.68
851.33	81.58
851.505	24.23
851.681	179.88
851.856	5.8
852.031	93.87
852.206	93.87
852.381	32.43
852.556	42.67
852.731	122.54
852.906	106.15
853.081	91.82
853.256	130.73
853.431	1.71
853.606	30.38
853.781	44.71
853.956	1.71
854.131	102.06
854.305	24.23
854.48	38.57
854.655	30.38
854.83	85.67
855.005	26.28
855.18	-6.49
855.354	26.28
855.529	93.87
855.704	36.52
855.879	140.97
856.053	18.09
856.228	122.54
856.403	-8.53
856.577	26.28
856.752	26.28
856.926	91.82
857.101	-8.53
857.276	3.75
857.45	26.28
857.625	85.67
857.799	79.53
857.974	71.34
858.148	13.99
858.323	34.47
858.497	22.19
858.672	73.39
858.846	61.1
859.02	20.14
859.195	32.43
859.369	143.02
859.543	89.77
859.718	54.95
859.892	9.9
860.066	52.91
860.241	38.57
860.415	28.33
860.589	-41.3
860.763	61.1
860.938	42.67
861.112	97.96
861.286	-12.63
861.46	-8.53
861.634	61.1
861.808	28.33
861.982	44.71
862.157	24.23
862.331	13.99
862.505	28.33
862.679	42.67
862.853	18.09
863.027	73.39
863.201	91.82
863.375	95.91
863.549	9.9
863.722	110.25
863.896	57
864.07	-39.25
864.244	13.99
864.418	128.68
864.592	3.75
864.766	-12.63
864.939	120.49
865.113	95.91
865.287	104.11
865.461	7.85
865.634	85.67
865.808	57
865.982	57
866.156	-16.73
866.329	-59.73
866.503	57
866.676	30.38
866.85	11.95
867.024	7.85
867.197	-10.58
867.371	69.29
867.544	59.05
867.718	5.8
867.891	75.43
868.065	20.14
868.238	38.57
868.412	122.54
868.585	40.62
868.759	7.85
868.932	-16.73
869.105	-0.34
869.279	54.95
869.452	-67.92
869.625	16.04
869.799	73.39
869.972	-0.34
870.145	-8.53
870.319	63.15
870.492	24.23
870.665	42.67
870.838	-6.49
871.011	-8.53
871.185	18.09
871.358	30.38
871.531	3.75
871.704	50.86
871.877	75.43
872.05	-45.4
872.223	-20.82
872.396	24.23
872.569	48.81
872.742	52.91
872.915	22.19
873.088	7.85
873.261	75.43
873.434	69.29
873.607	36.52
873.78	97.96
873.953	71.34
874.126	7.85
874.299	22.19
874.471	-4.44
874.644	9.9
874.817	71.34
874.99	52.91
875.163	-8.53
875.335	50.86
875.508	65.19
875.681	63.15
875.853	5.8
876.026	-2.39
876.199	28.33
876.371	79.53
876.544	40.62
876.717	18.09
876.889	-57.68
877.062	75.43
877.234	5.8
877.407	-4.44
877.579	36.52
877.752	32.43
877.924	-31.06
878.097	75.43
878.269	16.04
878.442	3.75
878.614	50.86
878.786	73.39
878.959	13.99
879.131	44.71
879.303	40.62
879.476	-24.92
879.648	79.53
879.82	44.71
879.993	42.67
880.165	108.2
880.337	-31.06
880.509	-22.87
880.681	-45.4
880.854	-26.96
881.026	77.48
881.198	118.44
881.37	26.28
881.542	7.85
881.714	-72.02
881.886	-29.01
882.058	-55.64
882.23	59.05
882.402	83.63
882.574	42.67
882.746	-10.58
882.918	67.24
883.09	59.05
883.262	-16.73
883.434	36.52
883.606	-47.44
883.778	-6.49
883.95	13.99
884.122	28.33
884.293	112.3
884.465	30.38
884.637	-0.34
884.809	-102.74
884.98	81.58
885.152	30.38
885.324	65.19
885.496	9.9
885.667	-65.88
885.839	22.19
886.011	93.87
886.182	-6.49
886.354	50.86
886.525	22.19
886.697	20.14
886.869	-41.3
887.04	-14.68
887.212	46.76
887.383	48.81
887.555	32.43
887.726	5.8
887.897	-47.44
888.069	13.99
888.24	48.81
888.412	-14.68
888.583	22.19
888.754	26.28
888.926	-84.31
889.097	24.23
889.268	9.9
889.44	-35.16
889.611	1.71
889.782	57
889.953	-10.58
890.125	5.8
890.296	22.19
890.467	-10.58
890.638	-22.87
890.809	44.71
890.98	7.85
891.151	-4.44
891.323	38.57
891.494	-10.58
891.665	-8.53
891.836	11.95
892.007	54.95
892.178	13.99
892.349	-24.92
892.52	100.01
892.691	-8.53
892.862	54.95
893.032	-35.16
893.203	-2.39
893.374	-39.25
893.545	59.05
893.716	-24.92
893.887	-2.39
894.057	-72.02
894.228	-14.68
894.399	-129.36
894.57	59.05
894.74	-10.58
894.911	34.47
895.082	-37.2
895.253	-33.11
895.423	95.91
895.594	5.8
895.764	-49.49
895.935	-53.59
896.106	-12.63
896.276	-53.59
896.447	-33.11
896.617	30.38
896.788	11.95
896.958	-24.92
897.129	-2.39
897.299	-55.64
897.47	61.1
897.64	20.14
897.81	-90.45
897.981	9.9
898.151	20.14
898.322	24.23
898.492	-63.83
898.662	-14.68
898.832	-55.64
899.003	16.04
899.173	-33.11
899.343	3.75
899.513	-59.73
