Data from USB4F104151__46__12-23-56-814.txt Node

Date: Fri Mar 14 12:23:56 EDT 2025
User: louis
Spectrometer: USB4F10415
Trigger mode: 4
Integration Time (sec): 3.500000E-2
Scans to average: 1
Electric dark correction enabled: true
Nonlinearity correction enabled: false
Boxcar width: 0
XAxis mode: Wavelengths
Number of Pixels in Spectrum: 3648
>>>>>Begin Spectral Data<<<<<
178.204	-133.29
178.424	-133.29
178.644	-133.29
178.864	-147.62
179.084	-86.19
179.304	-51.37
179.524	16.21
179.744	42.84
179.964	42.84
180.184	-28.84
180.404	-41.13
180.624	28.5
180.844	83.8
181.064	-53.42
181.283	-75.95
181.503	-2.22
181.723	38.74
181.943	16.21
182.163	122.71
182.383	-59.56
182.602	96.08
182.822	26.45
183.042	69.46
183.262	63.32
183.482	10.07
183.701	87.89
183.921	20.31
184.141	24.4
184.361	-14.51
184.58	75.6
184.8	98.13
185.02	53.08
185.239	89.94
185.459	44.88
185.679	149.33
185.898	20.31
186.118	30.55
186.338	77.65
186.557	10.07
186.777	5.97
186.997	42.84
187.216	81.75
187.436	67.41
187.655	5.97
187.875	135
188.095	-6.31
188.314	108.37
188.534	53.08
188.753	-6.31
188.973	-0.17
189.192	112.47
189.412	75.6
189.631	16.21
189.851	8.02
190.07	83.8
190.29	-2.22
190.509	34.64
190.729	61.27
190.948	36.69
191.168	184.15
191.387	137.04
191.607	16.21
191.826	57.17
192.045	67.41
192.265	16.21
192.484	81.75
192.704	67.41
192.923	26.45
193.142	163.67
193.362	16.21
193.581	139.09
193.8	69.46
194.02	16.21
194.239	96.08
194.458	1.88
194.678	28.5
194.897	16.21
195.116	53.08
195.335	14.17
195.555	106.32
195.774	22.36
195.993	48.98
196.212	98.13
196.432	12.12
196.651	5.97
196.87	-28.84
197.089	151.38
197.308	124.76
197.528	94.04
197.747	32.6
197.966	53.08
198.185	53.08
198.404	3.93
198.623	53.08
198.842	14.17
199.062	89.94
199.281	65.36
199.5	91.99
199.719	28.5
199.938	46.93
200.157	87.89
200.376	14.17
200.595	10.07
200.814	3.93
201.033	-10.41
201.252	122.71
201.471	-2.22
201.69	75.6
201.909	48.98
202.128	-18.6
202.347	61.27
202.566	53.08
202.785	-12.46
203.004	3.93
203.223	73.56
203.442	77.65
203.661	12.12
203.879	53.08
204.098	61.27
204.317	-22.7
204.536	112.47
204.755	14.17
204.974	55.12
205.193	44.88
205.411	87.89
205.63	120.66
205.849	98.13
206.068	106.32
206.287	-24.75
206.505	38.74
206.724	30.55
206.943	28.5
207.162	-26.79
207.381	38.74
207.599	3.93
207.818	53.08
208.037	96.08
208.255	96.08
208.474	96.08
208.693	12.12
208.911	38.74
209.13	65.36
209.349	79.7
209.567	53.08
209.786	24.4
210.005	38.74
210.223	22.36
210.442	-2.22
210.661	116.56
210.879	69.46
211.098	51.03
211.316	55.12
211.535	65.36
211.753	10.07
211.972	20.31
212.191	116.56
212.409	83.8
212.628	108.37
212.846	18.26
213.065	98.13
213.283	106.32
213.502	26.45
213.72	98.13
213.938	96.08
214.157	38.74
214.375	59.22
214.594	57.17
214.812	87.89
215.031	24.4
215.249	22.36
215.467	36.69
215.686	8.02
215.904	147.28
216.122	-6.31
216.341	79.7
216.559	110.42
216.778	106.32
216.996	130.9
217.214	16.21
217.432	-20.65
217.651	32.6
217.869	24.4
218.087	71.51
218.306	-8.36
218.524	20.31
218.742	98.13
218.96	-16.55
219.179	16.21
219.397	91.99
219.615	200.53
219.833	124.76
220.051	81.75
220.27	77.65
220.488	40.79
220.706	79.7
220.924	51.03
221.142	28.5
221.36	57.17
221.578	89.94
221.796	128.85
222.015	104.28
222.233	104.28
222.451	85.84
222.669	-24.75
222.887	87.89
223.105	53.08
223.323	12.12
223.541	20.31
223.759	20.31
223.977	1.88
224.195	42.84
224.413	104.28
224.631	48.98
224.849	63.32
225.067	108.37
225.285	3.93
225.503	32.6
225.721	-32.94
225.939	40.79
226.157	75.6
226.375	141.14
226.592	14.17
226.81	51.03
227.028	63.32
227.246	79.7
227.464	22.36
227.682	75.6
227.9	87.89
228.117	59.22
228.335	65.36
228.553	40.79
228.771	67.41
228.989	-8.36
229.206	65.36
229.424	-10.41
229.642	55.12
229.86	-47.27
230.077	94.04
230.295	116.56
230.513	40.79
230.731	73.56
230.948	139.09
231.166	124.76
231.384	83.8
231.601	-18.6
231.819	94.04
232.037	30.55
232.254	-10.41
232.472	71.51
232.689	-4.27
232.907	53.08
233.125	69.46
233.342	32.6
233.56	-63.66
233.777	63.32
233.995	-20.65
234.213	161.62
234.43	51.03
234.648	128.85
234.865	28.5
235.083	87.89
235.3	46.93
235.518	32.6
235.735	89.94
235.953	94.04
236.17	69.46
236.388	28.5
236.605	67.41
236.822	116.56
237.04	61.27
237.257	-30.89
237.475	14.17
237.692	14.17
237.909	67.41
238.127	14.17
238.344	137.04
238.562	98.13
238.779	14.17
238.996	55.12
239.214	61.27
239.431	114.52
239.648	44.88
239.865	44.88
240.083	108.37
240.3	30.55
240.517	69.46
240.735	57.17
240.952	71.51
241.169	57.17
241.386	61.27
241.603	3.93
241.821	79.7
242.038	81.75
242.255	102.23
242.472	-24.75
242.689	100.18
242.907	112.47
243.124	-30.89
243.341	55.12
243.558	30.55
243.775	71.51
243.992	36.69
244.209	14.17
244.426	85.84
244.643	-6.31
244.86	51.03
245.078	63.32
245.295	108.37
245.512	83.8
245.729	48.98
245.946	38.74
246.163	-14.51
246.38	40.79
246.597	34.64
246.814	48.98
247.031	89.94
247.248	87.89
247.464	51.03
247.681	57.17
247.898	135
248.115	-0.17
248.332	16.21
248.549	87.89
248.766	143.19
248.983	18.26
249.2	59.22
249.417	65.36
249.633	-6.31
249.85	65.36
250.067	61.27
250.284	24.4
250.501	108.37
250.717	106.32
250.934	-32.94
251.151	89.94
251.368	46.93
251.585	48.98
251.801	77.65
252.018	-4.27
252.235	94.04
252.451	10.07
252.668	44.88
252.885	87.89
253.102	36.69
253.318	79.7
253.535	28.5
253.752	28.5
253.968	26.45
254.185	-20.65
254.401	81.75
254.618	42.84
254.835	98.13
255.051	118.61
255.268	26.45
255.484	65.36
255.701	40.79
255.917	77.65
256.134	61.27
256.351	24.4
256.567	-22.7
256.784	61.27
257	32.6
257.217	-47.27
257.433	20.31
257.65	36.69
257.866	-37.03
258.082	-20.65
258.299	30.55
258.515	63.32
258.732	65.36
258.948	38.74
259.165	-8.36
259.381	65.36
259.597	16.21
259.814	100.18
260.03	75.6
260.246	14.17
260.463	65.36
260.679	59.22
260.895	79.7
261.112	-0.17
261.328	28.5
261.544	79.7
261.761	130.9
261.977	85.84
262.193	57.17
262.409	1.88
262.626	81.75
262.842	89.94
263.058	8.02
263.274	5.97
263.49	69.46
263.707	153.43
263.923	94.04
264.139	-28.84
264.355	77.65
264.571	137.04
264.787	-4.27
265.004	79.7
265.22	91.99
265.436	14.17
265.652	81.75
265.868	75.6
266.084	57.17
266.3	36.69
266.516	3.93
266.732	48.98
266.948	51.03
267.164	118.61
267.38	18.26
267.596	10.07
267.812	165.71
268.028	22.36
268.244	32.6
268.46	87.89
268.676	130.9
268.892	59.22
269.108	8.02
269.324	59.22
269.54	-39.08
269.756	143.19
269.972	-37.03
270.188	57.17
270.403	42.84
270.619	85.84
270.835	30.55
271.051	83.8
271.267	32.6
271.483	106.32
271.698	42.84
271.914	106.32
272.13	36.69
272.346	26.45
272.562	110.42
272.777	53.08
272.993	34.64
273.209	40.79
273.425	26.45
273.64	12.12
273.856	143.19
274.072	89.94
274.287	55.12
274.503	63.32
274.719	94.04
274.934	34.64
275.15	12.12
275.366	57.17
275.581	10.07
275.797	40.79
276.012	-18.6
276.228	94.04
276.444	51.03
276.659	126.8
276.875	-73.9
277.09	-30.89
277.306	57.17
277.521	112.47
277.737	44.88
277.952	-2.22
278.168	59.22
278.383	51.03
278.599	16.21
278.814	55.12
279.03	69.46
279.245	53.08
279.461	3.93
279.676	59.22
279.892	57.17
280.107	40.79
280.322	30.55
280.538	112.47
280.753	26.45
280.969	149.33
281.184	-34.99
281.399	69.46
281.615	57.17
281.83	-0.17
282.045	69.46
282.26	102.23
282.476	46.93
282.691	16.21
282.906	46.93
283.122	73.56
283.337	1.88
283.552	165.71
283.767	100.18
283.983	89.94
284.198	38.74
284.413	151.38
284.628	59.22
284.843	20.31
285.058	30.55
285.274	53.08
285.489	71.51
285.704	81.75
285.919	108.37
286.134	114.52
286.349	96.08
286.564	42.84
286.779	48.98
286.995	73.56
287.21	20.31
287.425	53.08
287.64	28.5
287.855	53.08
288.07	-14.51
288.285	24.4
288.5	69.46
288.715	98.13
288.93	61.27
289.145	51.03
289.36	26.45
289.575	38.74
289.79	-6.31
290.004	63.32
290.219	71.51
290.434	40.79
290.649	67.41
290.864	55.12
291.079	55.12
291.294	143.19
291.509	73.56
291.724	48.98
291.938	38.74
292.153	67.41
292.368	73.56
292.583	61.27
292.798	104.28
293.012	14.17
293.227	67.41
293.442	38.74
293.657	65.36
293.871	53.08
294.086	116.56
294.301	55.12
294.516	59.22
294.73	65.36
294.945	59.22
295.16	34.64
295.374	100.18
295.589	130.9
295.804	46.93
296.018	67.41
296.233	77.65
296.447	98.13
296.662	20.31
296.877	143.19
297.091	65.36
297.306	59.22
297.52	-18.6
297.735	98.13
297.949	94.04
298.164	149.33
298.378	106.32
298.593	71.51
298.807	28.5
299.022	20.31
299.236	102.23
299.451	89.94
299.665	65.36
299.88	26.45
300.094	81.75
300.309	114.52
300.523	147.28
300.737	36.69
300.952	135
301.166	57.17
301.381	24.4
301.595	26.45
301.809	57.17
302.024	28.5
302.238	32.6
302.452	128.85
302.667	42.84
302.881	30.55
303.095	24.4
303.309	-8.36
303.524	-30.89
303.738	55.12
303.952	61.27
304.166	89.94
304.381	61.27
304.595	128.85
304.809	106.32
305.023	67.41
305.237	63.32
305.452	55.12
305.666	69.46
305.88	135
306.094	87.89
306.308	89.94
306.522	38.74
306.736	63.32
306.95	81.75
307.164	98.13
307.379	42.84
307.593	44.88
307.807	126.8
308.021	83.8
308.235	24.4
308.449	18.26
308.663	36.69
308.877	126.8
309.091	73.56
309.305	22.36
309.519	87.89
309.733	128.85
309.947	-28.84
310.161	100.18
310.374	87.89
310.588	100.18
310.802	-32.94
311.016	18.26
311.23	73.56
311.444	94.04
311.658	124.76
311.872	91.99
312.085	94.04
312.299	112.47
312.513	100.18
312.727	79.7
312.941	30.55
313.154	36.69
313.368	110.42
313.582	16.21
313.796	87.89
314.009	71.51
314.223	55.12
314.437	112.47
314.651	79.7
314.864	83.8
315.078	75.6
315.292	26.45
315.505	10.07
315.719	46.93
315.933	124.76
316.146	106.32
316.36	89.94
316.573	145.24
316.787	110.42
317.001	34.64
317.214	5.97
317.428	63.32
317.641	77.65
317.855	116.56
318.068	-20.65
318.282	46.93
318.495	91.99
318.709	124.76
318.922	38.74
319.136	114.52
319.349	83.8
319.563	110.42
319.776	24.4
319.99	26.45
320.203	81.75
320.417	106.32
320.63	32.6
320.843	141.14
321.057	87.89
321.27	10.07
321.483	67.41
321.697	106.32
321.91	71.51
322.124	94.04
322.337	63.32
322.55	32.6
322.763	96.08
322.977	24.4
323.19	57.17
323.403	71.51
323.617	1.88
323.83	149.33
324.043	48.98
324.256	8.02
324.469	12.12
324.683	182.1
324.896	96.08
325.109	102.23
325.322	12.12
325.535	96.08
325.748	116.56
325.962	53.08
326.175	87.89
326.388	22.36
326.601	53.08
326.814	81.75
327.027	81.75
327.24	67.41
327.453	-22.7
327.666	114.52
327.879	46.93
328.092	30.55
328.305	120.66
328.518	32.6
328.731	85.84
328.944	53.08
329.157	57.17
329.37	36.69
329.583	167.76
329.796	67.41
330.009	8.02
330.222	128.85
330.435	28.5
330.648	73.56
330.861	67.41
331.073	110.42
331.286	42.84
331.499	65.36
331.712	73.56
331.925	108.37
332.138	83.8
332.35	116.56
332.563	63.32
332.776	91.99
332.989	3.93
333.202	145.24
333.414	46.93
333.627	22.36
333.84	67.41
334.053	135
334.265	87.89
334.478	-39.08
334.691	75.6
334.903	46.93
335.116	55.12
335.329	44.88
335.541	44.88
335.754	116.56
335.966	65.36
336.179	48.98
336.392	-14.51
336.604	34.64
336.817	26.45
337.029	153.43
337.242	71.51
337.454	87.89
337.667	-8.36
337.88	132.95
338.092	85.84
338.305	61.27
338.517	30.55
338.729	89.94
338.942	61.27
339.154	51.03
339.367	20.31
339.579	51.03
339.792	81.75
340.004	104.28
340.217	-14.51
340.429	104.28
340.641	24.4
340.854	32.6
341.066	79.7
341.278	73.56
341.491	124.76
341.703	8.02
341.915	77.65
342.128	69.46
342.34	36.69
342.552	-39.08
342.764	57.17
342.977	40.79
343.189	48.98
343.401	110.42
343.613	44.88
343.826	26.45
344.038	-26.79
344.25	51.03
344.462	12.12
344.674	120.66
344.886	108.37
345.099	141.14
345.311	57.17
345.523	38.74
345.735	-2.22
345.947	57.17
346.159	61.27
346.371	116.56
346.583	63.32
346.795	118.61
347.007	14.17
347.219	135
347.431	24.4
347.643	100.18
347.855	44.88
348.067	104.28
348.279	20.31
348.491	44.88
348.703	135
348.915	75.6
349.127	71.51
349.339	28.5
349.551	26.45
349.763	87.89
349.975	55.12
350.187	73.56
350.399	81.75
350.61	87.89
350.822	61.27
351.034	34.64
351.246	83.8
351.458	110.42
351.669	100.18
351.881	46.93
352.093	73.56
352.305	61.27
352.517	182.1
352.728	81.75
352.94	24.4
353.152	104.28
353.363	53.08
353.575	87.89
353.787	67.41
353.999	65.36
354.21	112.47
354.422	8.02
354.633	38.74
354.845	91.99
355.057	53.08
355.268	57.17
355.48	110.42
355.692	69.46
355.903	32.6
356.115	-32.94
356.326	77.65
356.538	89.94
356.749	83.8
356.961	139.09
357.172	14.17
357.384	104.28
357.595	167.76
357.807	-6.31
358.018	18.26
358.23	94.04
358.441	194.39
358.653	120.66
358.864	20.31
359.075	46.93
359.287	89.94
359.498	186.19
359.709	71.51
359.921	53.08
360.132	63.32
360.344	63.32
360.555	77.65
360.766	65.36
360.977	57.17
361.189	112.47
361.4	106.32
361.611	108.37
361.823	75.6
362.034	94.04
362.245	114.52
362.456	-14.51
362.667	-8.36
362.879	73.56
363.09	159.57
363.301	36.69
363.512	81.75
363.723	55.12
363.935	87.89
364.146	163.67
364.357	40.79
364.568	96.08
364.779	57.17
364.99	112.47
365.201	44.88
365.412	61.27
365.623	75.6
365.834	110.42
366.045	126.8
366.256	87.89
366.467	38.74
366.678	116.56
366.889	73.56
367.1	118.61
367.311	22.36
367.522	94.04
367.733	104.28
367.944	53.08
368.155	130.9
368.366	71.51
368.577	85.84
368.788	51.03
368.999	22.36
369.209	75.6
369.42	61.27
369.631	116.56
369.842	73.56
370.053	16.21
370.264	130.9
370.474	87.89
370.685	34.64
370.896	63.32
371.107	137.04
371.317	165.71
371.528	120.66
371.739	85.84
371.95	143.19
372.16	165.71
372.371	28.5
372.582	79.7
372.792	87.89
373.003	55.12
373.214	63.32
373.424	38.74
373.635	10.07
373.846	139.09
374.056	61.27
374.267	89.94
374.477	61.27
374.688	63.32
374.898	55.12
375.109	53.08
375.319	71.51
375.53	57.17
375.74	77.65
375.951	128.85
376.161	79.7
376.372	77.65
376.582	108.37
376.793	98.13
377.003	48.98
377.214	96.08
377.424	159.57
377.635	167.76
377.845	51.03
378.055	165.71
378.266	53.08
378.476	3.93
378.686	173.91
378.897	135
379.107	98.13
379.317	114.52
379.528	91.99
379.738	153.43
379.948	30.55
380.158	161.62
380.369	59.22
380.579	87.89
380.789	106.32
380.999	94.04
381.21	75.6
381.42	145.24
381.63	79.7
381.84	104.28
382.05	255.83
382.261	96.08
382.471	180.05
382.681	104.28
382.891	145.24
383.101	24.4
383.311	38.74
383.521	32.6
383.731	-0.17
383.941	151.38
384.151	28.5
384.361	114.52
384.571	126.8
384.781	-8.36
384.991	126.8
385.201	169.81
385.411	81.75
385.621	141.14
385.831	73.56
386.041	132.95
386.251	55.12
386.461	114.52
386.671	104.28
386.881	104.28
387.091	73.56
387.301	114.52
387.511	32.6
387.72	73.56
387.93	102.23
388.14	87.89
388.35	98.13
388.56	139.09
388.769	137.04
388.979	69.46
389.189	40.79
389.399	42.84
389.609	81.75
389.818	100.18
390.028	89.94
390.238	53.08
390.447	67.41
390.657	137.04
390.867	-8.36
391.076	137.04
391.286	112.47
391.496	145.24
391.705	59.22
391.915	112.47
392.125	128.85
392.334	42.84
392.544	184.15
392.753	135
392.963	102.23
393.172	112.47
393.382	149.33
393.591	194.39
393.801	63.32
394.01	161.62
394.22	116.56
394.429	57.17
394.639	22.36
394.848	118.61
395.058	81.75
395.267	118.61
395.477	130.9
395.686	149.33
395.895	216.91
396.105	110.42
396.314	161.62
396.524	118.61
396.733	71.51
396.942	223.06
397.152	104.28
397.361	165.71
397.57	178
397.78	147.28
397.989	75.6
398.198	188.24
398.407	161.62
398.617	161.62
398.826	137.04
399.035	151.38
399.244	141.14
399.453	130.9
399.663	94.04
399.872	272.21
400.081	89.94
400.29	141.14
400.499	126.8
400.708	157.52
400.917	83.8
401.127	194.39
401.336	126.8
401.545	286.54
401.754	200.53
401.963	175.95
402.172	165.71
402.381	171.86
402.59	137.04
402.799	218.96
403.008	153.43
403.217	210.77
403.426	229.2
403.635	182.1
403.844	251.73
404.053	186.19
404.262	165.71
404.471	261.97
404.68	233.3
404.888	229.2
405.097	200.53
405.306	218.96
405.515	159.57
405.724	208.72
405.933	202.58
406.142	171.86
406.35	229.2
406.559	190.29
406.768	276.31
406.977	243.54
407.185	296.78
407.394	309.07
407.603	257.87
407.812	339.79
408.02	341.84
408.229	292.69
408.438	302.93
408.646	325.46
408.855	393.04
409.064	366.42
409.272	337.74
409.481	378.7
409.69	431.95
409.898	327.5
410.107	397.14
410.315	397.14
410.524	425.81
410.733	481.1
410.941	468.81
411.15	466.77
411.358	569.16
411.567	548.68
411.775	573.26
411.984	513.87
412.192	546.64
412.401	554.83
412.609	677.71
412.818	597.84
413.026	667.47
413.234	659.28
413.443	610.12
413.651	661.32
413.86	708.43
414.068	747.34
414.276	753.48
414.485	739.15
414.693	778.06
414.901	878.41
415.11	982.85
415.318	880.46
415.526	862.02
415.734	962.37
415.943	937.8
416.151	1089.35
416.359	993.09
416.567	1158.98
416.776	1165.12
416.984	1265.47
417.192	1285.95
417.4	1285.95
417.608	1179.46
417.817	1218.37
418.025	1376.06
418.233	1431.36
418.441	1435.46
418.649	1509.18
418.857	1578.81
419.065	1627.96
419.273	1580.86
419.481	1736.51
419.689	1855.29
419.897	1763.13
420.105	1769.27
420.313	1980.22
420.521	1974.07
420.729	1978.17
420.937	2156.34
421.145	2281.27
421.353	2410.29
421.561	2414.38
421.769	2449.2
421.977	2498.35
422.185	2565.93
422.393	2803.5
422.601	2791.21
422.809	2918.18
423.017	2944.81
423.224	2920.23
423.432	3301.15
423.64	3252
423.848	3430.18
424.056	3344.16
424.263	3620.64
424.471	3624.73
424.679	3622.69
424.887	3888.92
425.094	4069.14
425.302	4058.9
425.51	4140.82
425.718	4423.44
425.925	4364.05
426.133	4462.35
426.341	4654.86
426.548	4947.72
426.756	5009.16
426.964	5062.41
427.171	5250.82
427.379	5469.95
427.586	5570.3
427.794	5603.07
428.001	6051.58
428.209	6319.86
428.417	6256.37
428.624	6592.24
428.832	6596.34
429.039	6590.19
429.247	6309.62
429.454	7155.43
429.662	7585.51
429.869	7317.22
430.076	7636.7
430.284	7399.14
430.491	7765.73
430.699	8179.42
430.906	8308.44
431.114	8285.91
431.321	8576.72
431.528	8820.43
431.736	9258.7
431.943	9649.86
432.15	9465.54
432.358	9494.21
432.565	10178.23
432.772	9950.91
432.979	10575.54
433.187	10792.62
433.394	10962.61
433.601	11554.47
433.808	11650.72
434.016	11542.18
434.223	12228.25
434.43	12736.15
434.637	12572.31
434.844	13348.49
435.052	13672.07
435.259	13645.45
435.466	13483.66
435.673	13665.92
435.88	14347.9
436.087	15220.33
436.294	15187.57
436.501	14620.28
436.708	14978.67
436.915	15490.66
437.122	16516.7
437.329	16326.24
437.537	16778.84
437.743	17151.57
437.95	16766.55
438.157	17806.92
438.364	18409.02
438.571	18492.99
438.778	18654.78
438.985	20364.83
439.192	19492.4
439.399	19961.38
439.606	19541.55
439.813	20989.46
440.02	22261.25
440.227	21681.67
440.433	21114.39
440.64	22017.54
440.847	21886.47
441.054	22601.21
441.261	23877.1
441.467	23791.08
441.674	24184.29
441.881	24925.66
442.088	25167.32
442.294	24939.99
442.501	25374.16
442.708	25855.43
442.914	27053.5
443.121	28093.86
443.328	27184.57
443.534	29437.33
443.741	28593.57
443.948	28143.02
444.154	30190.98
444.361	30008.72
444.568	30266.76
444.774	30233.99
444.981	30637.44
445.187	31640.95
445.394	32855.39
445.6	32392.55
445.807	35691.83
446.013	33647.96
446.22	34493.77
446.426	35855.67
446.633	36169.01
446.839	37451.03
447.046	35927.35
447.252	37920.02
447.459	38122.77
447.665	38065.42
447.871	39636.22
448.078	41145.57
448.284	39066.88
448.491	40365.29
448.697	41700.57
448.903	42419.41
449.11	42513.61
449.316	41835.73
449.522	42884.29
449.728	43904.18
449.935	44149.94
450.141	44002.49
450.347	45120.68
450.553	43283.65
450.76	44139.7
450.966	45491.36
451.172	45368.48
451.378	46292.11
451.584	45186.21
451.791	46322.83
451.997	46558.35
452.203	46589.07
452.409	46953.61
452.615	46683.28
452.821	45126.82
453.027	44815.53
453.233	47291.52
453.44	45536.41
453.646	45560.99
453.852	46050.45
454.058	46263.44
454.264	44778.67
454.47	46038.17
454.676	44768.43
454.882	46017.69
455.088	42632.39
455.294	42849.48
455.5	43527.36
455.705	43926.71
455.911	42376.4
456.117	41610.46
456.323	41237.73
456.529	38587.66
456.735	40793.32
456.941	39613.69
457.147	38573.32
457.352	37455.13
457.558	37369.12
457.764	37233.95
457.97	36627.75
458.176	35661.11
458.381	35872.05
458.587	34461
458.793	34264.39
458.999	32396.65
459.204	34739.52
459.41	33719.63
459.616	31001.98
459.821	31487.35
460.027	31208.83
460.233	30190.98
460.438	28874.14
460.644	29791.63
460.85	28034.47
461.055	27391.41
461.261	27829.68
461.466	25378.26
461.672	24608.22
461.878	26373.57
462.083	24634.85
462.289	24389.09
462.494	24163.81
462.7	23033.33
462.905	22410.75
463.111	22998.52
463.316	23182.84
463.522	22672.89
463.727	22769.15
463.932	22865.4
464.138	22611.45
464.343	22480.38
464.549	21765.64
464.754	22474.24
464.959	22605.31
465.165	22132.23
465.37	20960.79
465.575	20887.06
465.781	21437.97
465.986	21765.64
466.191	21030.42
466.397	20504.09
466.602	19582.51
466.807	20215.33
467.012	20272.67
467.218	20207.14
467.423	19635.75
467.628	20153.89
467.833	20954.65
468.038	20129.31
468.244	19635.75
468.449	20192.8
468.654	19467.82
468.859	19166.77
469.064	19383.85
469.269	18740.79
469.474	18867.77
469.679	19213.87
469.885	18626.11
470.09	18693.69
470.295	18726.46
470.5	18382.4
470.705	18312.77
470.91	18105.92
471.115	17765.96
471.32	18187.84
471.525	18019.91
471.73	17436.24
471.935	17471.05
472.139	16668.25
472.344	17030.74
472.549	16881.24
472.754	16848.47
472.959	16176.73
473.164	16039.52
473.369	15916.64
473.574	16518.75
473.778	16039.52
473.983	16008.8
474.188	16019.04
474.393	15363.69
474.598	15429.23
474.802	15292.01
475.007	15357.55
475.212	15148.65
475.417	14589.56
475.621	14538.36
475.826	14536.31
476.031	14380.67
476.235	14093.95
476.44	14272.12
476.645	13960.83
476.849	13977.22
477.054	13844.1
477.259	13442.7
477.463	13713.03
477.668	13399.69
477.872	13495.94
478.077	13186.7
478.282	13072.01
478.486	13039.25
478.691	12707.48
478.895	12820.11
479.1	12551.83
479.304	12643.99
479.509	12093.08
479.713	12492.44
479.918	12316.31
480.122	11904.67
480.326	12197.53
480.531	12218.01
480.735	11830.94
480.94	11964.06
481.144	12443.29
481.348	11665.06
481.553	11896.48
481.757	11667.11
481.961	11876
482.166	12013.21
482.37	11880.1
482.574	11595.43
482.778	11697.83
482.983	11746.98
483.187	11744.93
483.391	11939.49
483.595	11663.01
483.8	11468.45
484.004	11880.1
484.208	11728.55
484.412	11650.72
484.616	11620
484.821	11769.51
485.025	11507.37
485.229	11749.03
485.433	11749.03
485.637	11771.55
485.841	11503.27
486.045	11564.71
486.249	11533.99
486.453	11652.77
486.657	11837.09
486.861	11796.13
487.065	11329.19
487.269	11783.84
487.473	11347.62
487.677	11701.92
487.881	11734.69
488.085	11593.38
488.289	11718.31
488.493	11523.75
488.697	11706.02
488.901	11779.75
489.105	11712.16
489.309	11892.38
489.512	11896.48
489.716	12033.69
489.92	11792.03
490.124	11998.88
490.328	12031.65
490.531	11968.16
490.735	12007.07
490.939	12240.54
491.143	11978.4
491.346	12109.47
491.55	12250.78
491.754	12220.06
491.958	12410.52
492.161	12007.07
492.365	12301.98
492.569	12428.95
492.772	12252.83
492.976	12414.62
493.18	12652.18
493.383	12750.48
493.587	12914.32
493.79	12727.96
493.994	12529.3
494.197	12842.64
494.401	12850.83
494.605	13033.1
494.808	13272.71
495.012	13266.57
495.215	13293.19
495.419	13489.8
495.622	13262.47
495.825	13637.25
496.029	13405.83
496.232	13846.15
496.436	13889.15
496.639	14225.02
496.843	14167.68
497.046	14501.5
497.249	14468.73
497.453	14712.44
497.656	14777.97
497.859	14847.6
498.063	15091.31
498.266	15210.09
498.469	15216.24
498.673	15408.75
498.876	15674.98
499.079	15681.13
499.282	15666.79
499.485	16215.65
499.689	16379.48
499.892	16393.82
500.095	16514.65
500.298	16973.39
500.501	17002.07
500.705	17135.18
500.908	17567.31
501.111	17389.13
501.314	17651.27
501.517	17849.92
501.72	18206.27
501.923	18056.77
502.126	18699.83
502.329	18607.67
502.532	18998.84
502.735	18769.46
502.938	19658.28
503.141	19674.67
503.344	19912.23
503.547	19791.4
503.75	20178.47
503.953	20504.09
504.156	20239.9
504.359	20665.88
504.562	20755.99
504.765	21392.91
504.968	21382.67
505.17	21653
505.373	21691.91
505.576	22384.13
505.779	22498.81
505.982	22922.74
506.185	22961.65
506.387	22935.03
506.59	23170.55
506.793	23696.88
506.996	23746.03
507.198	24335.84
507.401	24018.41
507.604	24827.35
507.807	25195.99
508.009	25091.54
508.212	25353.68
508.415	25607.63
508.617	25808.33
508.82	26062.28
509.022	26144.2
509.225	26799.55
509.428	26785.21
509.63	27319.73
509.833	27450.8
510.035	27868.59
510.238	27848.11
510.44	28222.89
510.643	28624.29
510.845	28974.49
511.048	28773.79
511.25	29169.05
511.453	29328.79
511.655	30430.6
511.858	30410.12
512.06	30563.71
512.262	30823.81
512.465	30651.78
512.667	31327.61
512.87	31638.9
513.072	31815.02
513.274	32408.93
513.477	32621.92
513.679	32945.5
513.881	33264.99
514.084	33555.8
514.286	33680.72
514.488	33842.51
514.69	34753.86
514.893	34735.43
515.095	35050.81
515.297	35206.46
515.499	35304.76
515.701	35861.81
515.904	35972.4
516.106	36627.75
516.308	37221.66
516.51	37416.22
516.712	37104.93
516.914	37870.87
517.116	38683.91
517.318	38495.5
517.52	39533.82
517.722	39134.46
517.925	39679.22
518.127	39726.33
518.329	40088.82
518.531	39947.51
518.733	41059.55
518.935	40969.44
519.136	41673.95
519.338	41845.97
519.54	42396.88
519.742	42632.39
519.944	42937.54
520.146	43431.1
520.348	43963.57
520.55	43668.67
520.752	43805.88
520.954	44352.69
521.155	44530.86
521.357	45208.74
521.559	45350.05
521.761	46103.7
521.963	46011.54
522.164	46183.57
522.366	46642.32
522.568	47359.11
522.77	47172.74
522.971	47899.77
523.173	47387.78
523.375	48000.12
523.576	47963.26
523.778	48024.7
523.98	48782.44
524.181	49173.61
524.383	49026.15
524.584	49652.83
524.786	49560.67
524.988	50003.03
525.189	50142.3
525.391	50848.85
525.592	50809.93
525.794	50717.78
525.995	51096.65
526.197	51203.14
526.398	51553.35
526.6	51928.12
526.801	51889.21
527.003	52202.55
527.204	52462.64
527.406	53025.84
527.607	52933.68
527.808	52978.73
528.01	52565.04
528.211	52862
528.412	54184.99
528.614	53578.79
528.815	53623.84
529.016	54563.86
529.218	53808.16
529.419	54031.39
529.62	54121.5
529.822	54240.28
530.023	54289.43
530.224	54342.68
530.425	54621.2
530.626	54156.31
530.828	53976.09
531.029	55520.26
531.23	54950.93
531.431	54570
531.632	55061.52
531.833	55321.61
532.035	55004.17
532.236	55299.08
532.437	55653.38
532.638	55137.29
532.839	55856.13
533.04	56001.53
533.241	54844.43
533.442	55892.99
533.643	55729.15
533.844	55469.06
534.045	55815.17
534.246	55206.92
534.447	55608.32
534.648	55542.79
534.849	55514.12
535.05	55196.68
535.251	56001.53
535.451	55471.11
535.652	56105.98
535.853	55454.73
536.054	55835.65
536.255	55786.5
536.456	56026.11
536.657	56642.55
536.857	55901.18
537.058	55333.9
537.259	56239.1
537.46	55962.62
537.66	55651.33
537.861	55972.86
538.062	55143.44
538.263	55413.77
538.463	55561.22
538.664	55643.14
538.865	56015.87
539.065	55958.53
539.266	55600.13
539.466	56126.46
539.667	55090.19
539.868	56089.6
540.068	55618.56
540.269	55424.01
540.469	55755.78
540.67	55247.88
540.87	56056.83
541.071	55655.43
541.271	55866.37
541.472	55526.41
541.672	55405.58
541.873	55464.97
542.073	54731.79
542.274	56093.69
542.474	55397.38
542.675	55415.82
542.875	55931.9
543.075	55358.47
543.276	55043.09
543.476	55565.32
543.676	55251.98
543.877	55792.64
544.077	55399.43
544.277	55297.03
544.478	55563.27
544.678	55854.08
544.878	55362.57
545.078	55436.3
545.279	54987.79
545.479	55403.53
545.679	55393.29
545.879	55616.52
546.079	55153.68
546.28	54973.45
546.48	54881.3
546.68	55467.01
546.88	55337.99
547.08	55493.64
547.28	55536.65
547.48	54580.24
547.68	55245.83
547.88	54461.46
548.081	55137.29
548.281	54922.26
548.481	54834.19
548.681	55397.38
548.881	55106.57
549.081	54952.97
549.28	54932.5
549.48	55174.16
549.68	54774.8
549.88	55604.23
550.08	55030.8
550.28	55352.33
550.48	54473.75
550.68	55069.71
550.88	54809.62
551.08	54899.73
551.279	54977.55
551.479	54240.28
551.679	54608.92
551.879	54879.25
552.079	55292.94
552.278	54610.96
552.478	54854.67
552.678	54809.62
552.878	54957.07
553.077	54690.83
553.277	54264.86
553.477	55385.1
553.676	54475.8
553.876	54723.6
554.076	54567.96
554.275	54219.8
554.475	53734.43
554.674	54696.98
554.874	54424.6
555.074	54158.36
555.273	54271
555.473	54344.73
555.672	53793.82
555.872	53943.33
556.071	53912.61
556.271	54520.85
556.47	53476.39
556.67	53836.83
556.869	53855.26
557.068	54293.53
557.268	53711.91
557.467	53253.16
557.667	53308.46
557.866	53318.7
558.065	53519.4
558.265	52872.24
558.464	53820.45
558.663	53363.75
558.863	53023.79
559.062	53894.17
559.261	52696.11
559.461	53281.83
559.66	52782.13
559.859	52872.24
560.058	52487.22
560.258	53091.37
560.457	52440.12
560.656	52649.01
560.855	52304.95
561.054	52679.73
561.253	51772.48
561.453	52063.29
561.652	52663.35
561.851	52724.78
562.05	51872.83
562.249	51784.77
562.448	51860.54
562.647	52274.23
562.846	51825.73
563.045	51868.73
563.244	50975.82
563.443	51858.49
563.642	50910.28
563.841	51149.9
564.04	51006.54
564.239	51297.35
564.438	50570.32
564.637	51309.64
564.836	50967.63
565.035	50164.82
565.234	50758.73
565.432	50304.09
565.631	49980.51
565.83	50361.43
566.029	49951.84
566.228	50191.45
566.427	49927.26
566.625	49585.25
566.824	49738.85
567.023	49853.53
567.222	48882.8
567.42	49505.38
567.619	49382.5
567.818	49204.33
568.016	49032.3
568.215	49568.86
568.414	49071.21
568.612	49159.27
568.811	48671.85
569.01	48747.63
569.208	48364.66
569.407	48702.57
569.605	47889.53
569.804	48450.67
570.002	48125.05
570.201	48059.51
570.4	47551.62
570.598	47570.05
570.797	47269
570.995	47350.91
571.193	46781.58
571.392	47660.16
571.59	46795.92
571.789	47062.15
571.987	46558.35
572.186	46668.94
572.384	46384.27
572.582	46871.69
572.781	46646.41
572.979	45925.53
573.177	46326.93
573.376	46113.94
573.574	45745.31
573.772	45886.62
573.971	45452.45
574.169	45337.76
574.367	45325.47
574.565	45552.8
574.763	45382.82
574.962	45151.4
575.16	44635.31
575.358	45102.25
575.556	44608.68
575.754	44967.08
575.952	44340.4
576.151	44424.37
576.349	43971.77
576.547	44229.81
576.745	44012.73
576.943	43916.47
577.141	44240.05
577.339	43424.96
577.537	43644.09
577.735	43603.13
577.933	43060.42
578.131	43576.51
578.329	43091.14
578.527	42845.38
578.725	42869.96
578.923	42892.49
579.121	42583.24
579.319	42484.94
579.516	42788.04
579.714	42218.71
579.912	42343.63
580.11	42308.82
580.308	42151.12
580.506	41506.01
580.704	41256.16
580.901	42026.2
581.099	42112.21
581.297	41372.89
581.495	41645.27
581.692	41333.98
581.89	41071.84
582.088	41483.48
582.285	41075.94
582.483	41166.05
582.681	41118.95
582.878	40785.13
583.076	40223.98
583.274	40783.08
583.471	40174.83
583.669	40158.45
583.866	40201.46
584.064	40056.05
584.262	39578.87
584.459	40000.75
584.657	40129.78
584.854	40062.19
585.052	39206.14
585.249	39363.84
585.447	39322.88
585.644	39048.45
585.841	39122.18
586.039	39535.87
586.236	39185.66
586.434	38448.39
586.631	38290.7
586.828	38872.32
587.026	38786.31
587.223	38544.65
587.42	37967.12
587.618	38403.34
587.815	37635.35
588.012	37817.62
588.21	37856.53
588.407	37969.17
588.604	37815.57
588.801	37584.15
588.999	37621.02
589.196	37197.09
589.393	37393.69
589.59	37092.64
589.787	36640.04
589.984	37066.02
590.182	36468.01
590.379	36855.07
590.576	36242.73
590.773	36338.99
590.97	36207.92
591.167	36416.81
591.364	35677.49
591.561	36050.22
591.758	35607.86
591.955	35849.52
592.152	36095.28
592.349	35669.3
592.546	35540.28
592.743	35605.81
592.94	35026.24
593.137	35255.61
593.334	35194.17
593.531	34682.18
593.727	35374.39
593.924	34614.6
594.121	34854.21
594.318	35233.08
594.515	34368.84
594.712	34692.42
594.908	34035.02
595.105	34313.55
595.302	33600.85
595.499	34108.75
595.696	33910.1
595.892	33897.81
596.089	34112.84
596.286	33885.52
596.482	33207.64
596.679	33492.31
596.876	33574.23
597.072	33328.47
597.269	32916.83
597.466	32896.35
597.662	32949.6
597.859	32904.54
598.055	32888.16
598.252	32466.28
598.448	32525.67
598.645	32525.67
598.841	32269.67
599.038	32269.67
599.234	32652.64
599.431	31798.64
599.627	31806.83
599.824	31905.13
600.02	31886.7
600.217	31819.12
600.413	31444.34
600.609	31577.46
600.806	30977.4
601.002	31569.27
601.198	31233.4
601.395	30999.93
601.591	30819.71
601.787	31229.3
601.984	30905.73
602.18	30985.6
602.376	30561.67
602.572	30629.25
602.769	30455.17
602.965	30260.62
603.161	30313.86
603.357	30381.45
603.553	30193.03
603.75	30487.94
603.946	29687.18
604.142	29988.24
604.338	29574.55
604.534	29939.08
604.73	29283.73
604.926	29441.43
605.122	29635.99
605.318	29048.22
605.514	29078.94
605.71	29093.27
605.906	28939.68
606.102	28992.92
606.298	28681.63
606.494	28779.93
606.69	29035.93
606.886	28929.44
607.082	28159.4
607.278	28620.19
607.474	28265.89
607.67	28417.44
607.866	28358.05
608.062	28460.45
608.257	28423.59
608.453	28007.85
608.649	28241.32
608.845	27786.67
609.041	28272.04
609.236	27958.7
609.432	27913.64
609.628	27809.2
609.824	27743.66
610.019	27596.21
610.215	27688.37
610.411	27479.47
610.606	27375.03
610.802	27323.83
610.998	27422.13
611.193	27325.88
611.389	27147.7
611.584	27348.4
611.78	26822.08
611.976	27000.25
612.171	26863.04
612.367	26957.24
612.562	27184.57
612.758	26514.88
612.953	26582.46
613.149	26987.96
613.344	26437.06
613.539	26860.99
613.735	26428.87
613.93	26578.37
614.126	26217.93
614.321	26650.05
614.517	26404.29
614.712	26537.41
614.907	26299.84
615.103	26527.17
615.298	26172.87
615.493	26312.13
615.688	25757.13
615.884	26199.49
616.079	25753.04
616.274	25925.07
616.47	26023.37
616.665	25914.83
616.86	25533.9
617.055	25775.56
617.25	25744.84
617.445	25544.14
617.641	24800.73
617.836	25640.4
618.031	24911.32
618.226	25349.59
618.421	25132.5
618.616	25249.24
618.811	24870.36
619.006	25116.12
619.201	24503.78
619.396	24655.33
619.591	24339.94
619.786	24817.11
619.981	24145.38
620.176	24436.19
620.371	24382.95
620.566	23813.61
620.761	23999.98
620.956	24112.61
621.151	23516.65
621.346	23717.36
621.541	23535.09
621.735	23459.31
621.93	23035.38
622.125	23170.55
622.32	23152.12
622.515	23027.19
622.709	22951.42
622.904	22832.63
623.099	22590.97
623.294	22808.06
623.488	22543.87
623.683	22441.47
623.878	22038.02
624.072	22091.27
624.267	21941.77
624.462	21962.25
624.656	21458.45
624.851	21685.77
625.046	21730.83
625.24	21487.12
625.435	21356.05
625.629	21241.36
625.824	21130.77
626.018	21095.96
626.213	20364.83
626.407	20721.18
626.602	20489.76
626.796	20577.82
626.991	20270.62
627.185	20248.1
627.38	20049.44
627.574	20059.68
627.768	19945
627.963	20008.48
628.157	19631.66
628.352	19910.18
628.546	19369.52
628.74	19555.88
628.935	19244.59
629.129	19402.29
629.323	19090.99
629.517	19047.99
629.712	18861.62
629.906	18980.4
630.1	18499.13
630.294	18845.24
630.489	18544.19
630.683	18822.71
630.877	18116.16
631.071	18308.67
631.265	18349.63
631.459	17952.32
631.653	17958.47
631.848	17933.89
632.042	17929.8
632.236	17729.09
632.43	17344.08
632.624	17636.94
632.818	17417.8
633.012	16926.29
633.206	17159.76
633.4	17268.3
633.594	16770.65
633.788	17088.08
633.982	16889.43
634.176	16674.39
634.369	16721.49
634.563	16627.29
634.757	16408.15
634.951	16533.08
635.145	16316
635.339	16256.61
635.533	16354.91
635.726	16184.93
635.92	15918.69
636.114	15951.46
636.308	16004.71
636.501	16154.21
636.695	16000.61
636.889	15517.29
637.083	15490.66
637.276	15373.93
637.47	15294.06
637.664	15236.72
637.857	15249
638.051	15191.66
638.244	14823.03
638.438	15011.44
638.632	15036.02
638.825	14999.15
639.019	14812.79
639.212	14687.86
639.406	14655.09
639.599	14505.59
639.793	14636.66
639.986	14386.81
640.18	14335.61
640.373	14042.75
640.567	14093.95
640.76	14206.59
640.954	13940.35
641.147	13899.39
641.34	13725.32
641.534	13770.37
641.727	13584.01
641.92	13624.97
642.114	13602.44
642.307	13440.65
642.5	13276.81
642.694	13190.8
642.887	13125.26
643.08	13409.93
643.273	12883.6
643.467	13029.01
643.66	12848.79
643.853	12732.05
644.046	12613.27
644.239	12793.49
644.432	12721.81
644.626	12514.97
644.819	12797.59
645.012	12611.22
645.205	12453.53
645.398	12369.56
645.591	12232.35
645.784	12275.35
645.977	12117.66
646.17	12099.23
646.363	11990.69
646.556	11808.42
646.749	11808.42
646.942	11966.11
647.135	11832.99
647.328	11740.83
647.521	11622.05
647.714	11433.64
647.907	11394.73
648.099	11425.45
648.292	11146.92
648.485	11226.79
648.678	11175.59
648.871	11132.59
649.064	11398.82
649.256	11218.6
649.449	11022
649.642	11024.05
649.835	10772.14
650.027	10796.72
650.22	10843.82
650.413	10761.91
650.605	10581.68
650.798	10587.83
650.991	10538.68
651.183	10475.19
651.376	10344.12
651.568	10452.66
651.761	10258.1
651.954	10245.82
652.146	10344.12
652.339	10135.23
652.531	10157.75
652.724	10170.04
652.916	9903.81
653.109	10026.68
653.301	10094.27
653.494	9918.14
653.686	9762.5
653.879	10024.64
654.071	9944.77
654.263	9709.25
654.456	9813.7
654.648	9656
654.84	9461.44
655.033	9506.5
655.225	9414.34
655.417	9434.82
655.61	9483.97
655.802	9357
655.994	9252.55
656.186	9217.74
656.379	9359.05
656.571	8873.68
656.763	8965.84
656.955	8965.84
657.148	8904.4
657.34	8947.4
657.532	8802
657.724	8830.67
657.916	8773.33
658.108	8562.39
658.3	8617.68
658.492	8392.41
658.684	8380.12
658.876	8566.48
659.068	8560.34
659.26	8462.04
659.452	8537.81
659.644	8425.17
659.836	8333.01
660.028	8359.64
660.22	8185.56
660.412	8029.91
660.604	8156.89
660.796	8249.05
660.988	8011.48
661.18	7988.96
661.372	7943.9
661.563	8001.24
661.755	7825.12
661.947	8070.87
662.139	7904.99
662.331	7943.9
662.522	7866.08
662.714	7571.17
662.906	7689.95
663.097	7493.35
663.289	7622.37
663.481	7651.04
663.673	7468.77
663.864	7415.52
664.056	7386.85
664.247	7372.52
664.439	7380.71
664.631	7433.96
664.822	7186.15
665.014	7233.25
665.205	7298.79
665.397	7093.99
665.588	7112.42
665.78	7153.38
665.971	7173.86
666.163	7190.25
666.354	7016.17
666.546	6967.02
666.737	7022.31
666.929	7096.04
667.12	6917.87
667.311	6948.59
667.503	6829.81
667.694	6850.28
667.885	6725.36
668.077	6788.85
668.268	6704.88
668.459	6596.34
668.651	6577.9
668.842	6682.35
669.033	6717.17
669.224	6688.5
669.416	6606.58
669.607	6461.17
669.798	6596.34
669.989	6582
670.18	6469.36
670.371	6424.31
670.563	6495.99
670.754	6407.92
670.945	6543.09
671.136	6481.65
671.327	6342.39
671.518	6356.72
671.709	6254.33
671.9	6379.25
672.091	6270.71
672.282	6192.89
672.473	6090.49
672.664	6270.71
672.855	6029.05
673.046	6147.83
673.237	6268.66
673.428	6223.61
673.619	6133.5
673.809	6213.37
674	5949.18
674.191	6027
674.382	5992.19
674.573	6016.76
674.764	5947.13
674.954	6090.49
675.145	5891.84
675.336	5900.03
675.527	5797.63
675.717	5932.79
675.908	5848.83
676.099	5910.27
676.289	5961.47
676.48	5885.69
676.671	5715.71
676.861	5961.47
677.052	5904.12
677.243	5756.67
677.433	5646.08
677.624	5783.29
677.814	5744.38
678.005	5809.92
678.195	5715.71
678.386	5811.96
678.576	5568.26
678.767	5658.37
678.957	5625.6
679.148	5662.46
679.338	5818.11
679.529	5777.15
679.719	5603.07
679.909	5635.84
680.1	5498.63
680.29	5768.96
680.481	5603.07
680.671	5664.51
680.861	5730.05
681.052	5615.36
681.242	5576.45
681.432	5588.74
681.622	5537.54
681.813	5560.06
682.003	5519.11
682.193	5588.74
682.383	5596.93
682.573	5488.39
682.764	5392.13
682.954	5543.68
683.144	5623.55
683.334	5375.75
683.524	5424.9
683.714	5486.34
683.904	5406.47
684.094	5560.06
684.284	5396.23
684.474	5582.59
684.664	5437.19
684.854	5371.65
685.044	5279.49
685.234	5328.64
685.424	5295.88
685.614	5383.94
685.804	5308.16
685.994	5216.01
686.184	5191.43
686.374	5336.84
686.564	5160.71
686.753	5183.24
686.943	5033.74
687.133	5076.74
687.323	5273.35
687.513	5000.97
687.702	5144.33
687.892	5181.19
688.082	5023.5
688.272	5019.4
688.461	4943.63
688.651	5031.69
688.841	5005.06
689.03	4919.05
689.22	5013.26
689.41	4964.11
689.599	4851.47
689.789	4978.44
689.979	4876.04
690.168	4749.07
690.358	4792.08
690.547	4822.8
690.737	4761.36
690.926	4480.78
691.116	4693.77
691.305	4683.53
691.495	4519.7
691.684	4642.57
691.874	4661.01
692.063	4613.9
692.252	4546.32
692.442	4566.8
692.631	4476.69
692.82	4642.57
693.01	4486.93
693.199	4419.35
693.388	4407.06
693.578	4556.56
693.767	4413.2
693.956	4386.58
694.146	4300.56
694.335	4247.32
694.524	4235.03
694.713	4386.58
694.902	4093.72
695.092	4192.02
695.281	4202.26
695.47	4314.9
695.659	4310.8
695.848	4251.41
696.037	4308.76
696.226	4243.22
696.415	4230.93
696.604	4155.16
696.793	4165.4
696.982	4142.87
697.171	4097.81
697.36	4140.82
697.549	4054.81
697.738	3954.46
697.927	4005.66
698.116	4026.14
698.305	3993.37
698.494	4071.19
698.683	4028.18
698.872	3991.32
699.061	3989.27
699.25	4056.86
699.438	3956.5
699.627	4034.33
699.816	4044.57
700.005	4015.9
700.193	4071.19
700.382	4058.9
700.571	3970.84
700.76	3874.59
700.948	3923.74
701.137	3952.41
701.326	4032.28
701.514	3825.43
701.703	3895.07
701.892	3811.1
702.08	4083.48
702.269	3983.13
702.457	3872.54
702.646	3847.96
702.834	3968.79
703.023	4007.7
703.212	3915.55
703.4	3884.83
703.589	3768.09
703.777	3968.79
703.965	3921.69
704.154	3827.48
704.342	3886.87
704.531	3815.2
704.719	3919.64
704.907	4095.77
705.096	3866.39
705.284	3944.22
705.472	3917.59
705.661	3936.03
705.849	3764
706.037	3870.49
706.226	3931.93
706.414	3817.24
706.602	3735.32
706.79	3821.34
706.979	3860.25
707.167	3913.5
707.355	3841.82
707.543	3876.63
707.731	4013.85
707.919	3931.93
708.107	3897.11
708.296	3927.83
708.484	3661.6
708.672	3907.35
708.86	3911.45
709.048	3936.03
709.236	3790.62
709.424	3960.6
709.612	3731.23
709.8	3866.39
709.988	3899.16
710.176	3987.22
710.364	3847.96
710.551	3913.5
710.739	3798.81
710.927	3690.27
711.115	3880.73
711.303	3938.07
711.491	3870.49
711.679	3854.11
711.866	3815.2
712.054	3866.39
712.242	3862.3
712.43	3888.92
712.617	3839.77
712.805	3780.38
712.993	3888.92
713.181	3800.86
713.368	3882.78
713.556	3925.79
713.744	3729.18
713.931	3927.83
714.119	3850.01
714.306	3876.63
714.494	3942.17
714.682	3856.15
714.869	3798.81
715.057	3917.59
715.244	3905.31
715.432	3938.07
715.619	3901.21
715.807	3878.68
715.994	3997.46
716.182	3921.69
716.369	3907.35
716.556	3868.44
716.744	3850.01
716.931	3682.08
717.119	3872.54
717.306	3893.02
717.493	3835.67
717.681	3917.59
717.868	3800.86
718.055	3921.69
718.242	3950.36
718.43	3870.49
718.617	3950.36
718.804	3847.96
718.991	3864.35
719.179	3981.08
719.366	3706.65
719.553	3979.03
719.74	4071.19
719.927	4042.52
720.114	3815.2
720.301	3940.12
720.488	3907.35
720.676	3974.94
720.863	3942.17
721.05	3895.07
721.237	4005.66
721.424	3897.11
721.611	4011.8
721.798	3860.25
721.985	3843.87
722.172	4013.85
722.358	3890.97
722.545	3958.55
722.732	3958.55
722.919	4028.18
723.106	4030.23
723.293	3893.02
723.48	3852.06
723.667	3893.02
723.853	3952.41
724.04	4065.05
724.227	4069.14
724.414	3960.6
724.6	3827.48
724.787	4011.8
724.974	3999.51
725.161	3976.98
725.347	3835.67
725.534	4013.85
725.72	4052.76
725.907	4073.24
726.094	3983.13
726.28	3927.83
726.467	3899.16
726.653	4067.1
726.84	3929.88
727.027	4091.67
727.213	3917.59
727.4	4005.66
727.586	4032.28
727.773	4026.14
727.959	3952.41
728.145	4091.67
728.332	4089.62
728.518	4030.23
728.705	4060.95
728.891	3962.65
729.077	4087.57
729.264	3882.78
729.45	4052.76
729.636	4095.77
729.823	3968.79
730.009	4079.38
730.195	4024.09
730.382	3952.41
730.568	3987.22
730.754	4155.16
730.94	4056.86
731.126	4302.61
731.313	4110.1
731.499	4026.14
731.685	4063
731.871	4261.65
732.057	4091.67
732.243	4108.05
732.429	4091.67
732.615	4128.53
732.801	4050.71
732.987	4101.91
733.173	3968.79
733.359	4138.77
733.545	4114.2
733.731	4019.99
733.917	4011.8
734.103	4169.49
734.289	4054.81
734.475	4140.82
734.661	4194.07
734.847	4155.16
735.033	4083.48
735.219	4116.25
735.404	4075.29
735.59	4161.3
735.776	4075.29
735.962	4132.63
736.148	4101.91
736.333	4101.91
736.519	4048.66
736.705	4165.4
736.89	4028.18
737.076	4269.84
737.262	3999.51
737.447	4044.57
737.633	4181.78
737.819	4052.76
738.004	4097.81
738.19	4009.75
738.375	3897.11
738.561	4015.9
738.747	4140.82
738.932	3866.39
739.118	4163.35
739.303	4097.81
739.489	3968.79
739.674	4050.71
739.859	3927.83
740.045	4097.81
740.23	4044.57
740.416	4028.18
740.601	4013.85
740.786	3931.93
740.972	3856.15
741.157	4073.24
741.342	4046.62
741.528	3895.07
741.713	3903.26
741.898	3950.36
742.084	3811.1
742.269	3862.3
742.454	3827.48
742.639	3890.97
742.824	3903.26
743.01	3815.2
743.195	3821.34
743.38	3815.2
743.565	3608.35
743.75	3778.33
743.935	3778.33
744.12	3878.68
744.305	3675.93
744.49	3606.3
744.675	3710.75
744.86	3680.03
745.045	3782.43
745.23	3651.36
745.415	3561.25
745.6	3616.54
745.785	3680.03
745.97	3604.25
746.155	3491.62
746.34	3694.36
746.525	3585.82
746.71	3567.39
746.895	3516.19
747.079	3499.81
747.264	3446.56
747.449	3532.58
747.634	3518.24
747.819	3319.59
748.003	3446.56
748.188	3419.94
748.373	3503.9
748.557	3417.89
748.742	3303.2
748.927	3430.18
749.111	3364.64
749.296	3233.57
749.481	3241.76
749.665	3211.04
749.85	3174.18
750.034	3295.01
750.219	3141.41
750.404	3215.14
750.588	3110.69
750.773	3125.03
750.957	3094.31
751.141	3026.73
751.326	3051.3
751.51	3008.3
751.695	3053.35
751.879	2948.9
752.064	2944.81
752.248	2985.77
752.432	3024.68
752.617	3079.97
752.801	2950.95
752.985	2959.14
753.17	2996.01
753.354	2897.71
753.538	2778.92
753.722	2856.75
753.907	2697
754.091	2756.4
754.275	2844.46
754.459	2752.3
754.643	2639.66
754.828	2768.68
755.012	2719.53
755.196	2774.83
755.38	2588.46
755.564	2572.08
755.748	2762.54
755.932	2649.9
756.116	2563.89
756.3	2602.8
756.484	2596.65
756.668	2672.43
756.852	2479.92
757.036	2426.67
757.22	2570.03
757.404	2434.86
757.588	2420.53
757.772	2475.82
757.956	2459.44
758.14	2469.68
758.323	2346.8
758.507	2383.66
758.691	2414.38
758.875	2414.38
759.059	2377.52
759.242	2289.46
759.426	2287.41
759.61	2365.23
759.794	2340.66
759.977	2271.03
760.161	2293.55
760.345	2348.85
760.528	2146.1
760.712	2228.02
760.895	2111.29
761.079	2162.48
761.263	2266.93
761.446	2133.81
761.63	2164.53
761.813	2178.87
761.997	2156.34
762.18	2111.29
762.364	2068.28
762.547	2080.57
762.731	2205.49
762.914	2217.78
763.098	2152.24
763.281	2033.46
763.464	2043.7
763.648	2010.93
763.831	2002.74
764.015	2002.74
764.198	1988.41
764.381	2029.37
764.564	2033.46
764.748	2027.32
764.931	2010.93
765.114	1961.78
765.297	1918.78
765.481	1769.27
765.664	1802.04
765.847	1857.34
766.03	1978.17
766.213	1863.48
766.397	1900.34
766.58	1855.29
766.763	1947.45
766.946	1935.16
767.129	1883.96
767.312	1849.15
767.495	1795.9
767.678	1797.95
767.861	1918.78
768.044	1750.84
768.227	1879.86
768.41	1867.58
768.593	1793.85
768.776	1799.99
768.959	1746.75
769.142	1828.67
769.324	1791.8
769.507	1642.3
769.69	1840.95
769.873	1763.13
770.056	1871.67
770.239	1695.55
770.421	1752.89
770.604	1734.46
770.787	1654.59
770.97	1636.16
771.152	1673.02
771.335	1728.31
771.518	1652.54
771.7	1759.03
771.883	1701.69
772.066	1668.92
772.248	1767.23
772.431	1660.73
772.613	1523.52
772.796	1576.77
772.978	1627.96
773.161	1605.44
773.343	1587.01
773.526	1587.01
773.708	1550.14
773.891	1455.94
774.073	1482.56
774.256	1566.53
774.438	1566.53
774.621	1535.81
774.803	1560.38
774.985	1439.55
775.168	1486.65
775.35	1412.93
775.532	1361.73
775.715	1447.74
775.897	1423.17
776.079	1472.32
776.261	1410.88
776.444	1490.75
776.626	1435.46
776.808	1343.3
776.99	1318.72
777.173	1320.77
777.355	1341.25
777.537	1269.57
777.719	1228.61
777.901	1283.91
778.083	1228.61
778.265	1279.81
778.447	1253.19
778.629	1324.87
778.811	1201.99
778.993	1296.19
779.175	1240.9
779.357	1261.38
779.539	1183.56
779.721	1083.2
779.903	1173.32
780.085	1150.79
780.267	1083.2
780.449	1163.08
780.631	1259.33
780.812	1179.46
780.994	1191.75
781.176	1218.37
781.358	1107.78
781.54	1097.54
781.721	1025.86
781.903	1056.58
782.085	1038.15
782.267	1154.88
782.448	1027.91
782.63	1081.16
782.812	1005.38
782.993	1124.16
783.175	1081.16
783.357	960.33
783.538	1052.49
783.72	1052.49
783.901	968.52
784.083	991.05
784.264	939.85
784.446	980.81
784.627	859.98
784.809	931.66
784.99	876.36
785.172	939.85
785.353	880.46
785.535	864.07
785.716	882.5
785.897	841.54
786.079	864.07
786.26	747.34
786.441	909.13
786.623	804.68
786.804	810.82
786.985	829.26
787.167	831.3
787.348	794.44
787.529	845.64
787.71	870.22
787.891	892.74
788.073	843.59
788.254	841.54
788.435	796.49
788.616	696.14
788.797	763.72
788.978	792.39
789.159	757.58
789.34	692.04
789.522	790.35
789.703	716.62
789.884	704.33
790.065	687.95
790.246	833.35
790.427	663.37
790.607	878.41
790.788	735.05
790.969	657.23
791.15	718.67
791.331	657.23
791.512	632.65
791.693	726.86
791.874	567.12
792.054	700.23
792.235	606.03
792.416	585.55
792.597	657.23
792.778	712.52
792.958	728.91
793.139	651.08
793.32	628.56
793.5	640.84
793.681	698.19
793.862	671.56
794.042	599.88
794.223	606.03
794.404	622.41
794.584	560.97
794.765	546.64
794.945	575.31
795.126	595.79
795.306	649.04
795.487	552.78
795.667	538.45
795.848	612.17
796.028	546.64
796.209	606.03
796.389	534.35
796.57	481.1
796.75	597.84
796.93	595.79
797.111	511.82
797.291	565.07
797.471	565.07
797.652	616.27
797.832	563.02
798.012	515.92
798.192	517.97
798.373	503.63
798.553	466.77
798.733	517.97
798.913	466.77
799.093	495.44
799.274	489.29
799.454	524.11
799.634	595.79
799.814	434
799.994	517.97
800.174	593.74
800.354	524.11
800.534	466.77
800.714	567.12
800.894	464.72
801.074	411.47
801.254	497.49
801.434	517.97
801.614	431.95
801.794	423.76
801.974	1247.04
802.154	513.87
802.334	495.44
802.514	444.24
802.693	390.99
802.873	460.62
803.053	507.73
803.233	489.29
803.413	360.27
803.592	427.85
803.772	429.9
803.952	456.53
804.131	390.99
804.311	462.67
804.491	440.14
804.67	442.19
804.85	405.33
805.03	477.01
805.209	454.48
805.389	356.18
805.568	431.95
805.748	356.18
805.928	362.32
806.107	448.33
806.287	323.41
806.466	434
806.646	370.51
806.825	354.13
807.004	423.76
807.184	354.13
807.363	407.38
807.543	407.38
807.722	280.4
807.901	386.9
808.081	495.44
808.26	354.13
808.439	362.32
808.619	405.33
808.798	370.51
808.977	409.42
809.156	378.7
809.336	388.94
809.515	366.42
809.694	327.5
809.873	456.53
810.052	407.38
810.231	413.52
810.411	390.99
810.59	372.56
810.769	300.88
810.948	427.85
811.127	304.98
811.306	360.27
811.485	370.51
811.664	376.66
811.843	343.89
812.022	331.6
812.201	302.93
812.38	323.41
812.559	325.46
812.737	251.73
812.916	208.72
813.095	282.45
813.274	307.02
813.453	337.74
813.632	276.31
813.811	411.47
813.989	280.4
814.168	249.68
814.347	309.07
814.526	325.46
814.704	315.22
814.883	261.97
815.062	249.68
815.24	294.74
815.419	284.5
815.598	327.5
815.776	229.2
815.955	290.64
816.133	276.31
816.312	274.26
816.49	280.4
816.669	266.07
816.847	180.05
817.026	284.5
817.204	249.68
817.383	280.4
817.561	221.01
817.74	292.69
817.918	253.78
818.097	290.64
818.275	249.68
818.453	249.68
818.632	264.02
818.81	302.93
818.988	218.96
819.167	313.17
819.345	235.35
819.523	145.24
819.701	327.5
819.879	309.07
820.058	261.97
820.236	237.39
820.414	264.02
820.592	221.01
820.77	243.54
820.948	223.06
821.127	268.11
821.305	321.36
821.483	161.62
821.661	270.16
821.839	237.39
822.017	221.01
822.195	315.22
822.373	243.54
822.551	190.29
822.729	272.21
822.907	216.91
823.085	235.35
823.262	206.67
823.44	204.63
823.618	253.78
823.796	186.19
823.974	169.81
824.152	137.04
824.329	171.86
824.507	235.35
824.685	253.78
824.863	180.05
825.04	270.16
825.218	251.73
825.396	235.35
825.574	284.5
825.751	233.3
825.929	200.53
826.107	135
826.284	257.87
826.462	159.57
826.639	163.67
826.817	130.9
826.994	200.53
827.172	149.33
827.349	276.31
827.527	249.68
827.704	151.38
827.882	241.49
828.059	173.91
828.237	112.47
828.414	274.26
828.591	212.82
828.769	204.63
828.946	122.71
829.124	214.87
829.301	218.96
829.478	153.43
829.655	196.43
829.833	155.47
830.01	151.38
830.187	218.96
830.364	139.09
830.542	190.29
830.719	251.73
830.896	126.8
831.073	218.96
831.25	204.63
831.427	180.05
831.604	190.29
831.782	135
831.959	137.04
832.136	163.67
832.313	159.57
832.49	218.96
832.667	241.49
832.844	141.14
833.021	192.34
833.198	175.95
833.374	48.98
833.551	159.57
833.728	190.29
833.905	151.38
834.082	63.32
834.259	192.34
834.436	161.62
834.612	132.95
834.789	184.15
834.966	151.38
835.143	204.63
835.319	77.65
835.496	130.9
835.673	259.92
835.85	180.05
836.026	175.95
836.203	145.24
836.38	139.09
836.556	151.38
836.733	46.93
836.909	173.91
837.086	59.22
837.262	194.39
837.439	85.84
837.616	104.28
837.792	184.15
837.968	149.33
838.145	79.7
838.321	194.39
838.498	75.6
838.674	137.04
838.851	180.05
839.027	104.28
839.203	81.75
839.38	145.24
839.556	122.71
839.732	210.77
839.909	106.32
840.085	112.47
840.261	34.64
840.437	143.19
840.614	89.94
840.79	151.38
840.966	204.63
841.142	94.04
841.318	122.71
841.494	128.85
841.671	165.71
841.847	42.84
842.023	67.41
842.199	81.75
842.375	130.9
842.551	108.37
842.727	104.28
842.903	165.71
843.079	94.04
843.255	184.15
843.431	94.04
843.607	155.47
843.783	81.75
843.959	139.09
844.134	110.42
844.31	173.91
844.486	132.95
844.662	112.47
844.838	130.9
845.013	85.84
845.189	91.99
845.365	143.19
845.541	59.22
845.716	167.76
845.892	165.71
846.068	102.23
846.244	151.38
846.419	61.27
846.595	143.19
846.77	46.93
846.946	135
847.122	65.36
847.297	51.03
847.473	204.63
847.648	104.28
847.824	104.28
847.999	16.21
848.175	71.51
848.35	137.04
848.526	114.52
848.701	137.04
848.876	85.84
849.052	130.9
849.227	120.66
849.403	135
849.578	77.65
849.753	98.13
849.929	61.27
850.104	32.6
850.279	79.7
850.454	63.32
850.63	180.05
850.805	65.36
850.98	55.12
851.155	91.99
851.33	118.61
851.505	75.6
851.681	112.47
851.856	96.08
852.031	100.18
852.206	59.22
852.381	65.36
852.556	67.41
852.731	149.33
852.906	46.93
853.081	165.71
853.256	104.28
853.431	89.94
853.606	108.37
853.781	40.79
853.956	40.79
854.131	32.6
854.305	57.17
854.48	85.84
854.655	14.17
854.83	57.17
855.005	128.85
855.18	46.93
855.354	81.75
855.529	116.56
855.704	8.02
855.879	59.22
856.053	118.61
856.228	159.57
856.403	98.13
856.577	102.23
856.752	40.79
856.926	83.8
857.101	32.6
857.276	59.22
857.45	106.32
857.625	108.37
857.799	61.27
857.974	48.98
858.148	46.93
858.323	24.4
858.497	36.69
858.672	28.5
858.846	48.98
859.02	100.18
859.195	69.46
859.369	89.94
859.543	73.56
859.718	38.74
859.892	81.75
860.066	122.71
860.241	51.03
860.415	51.03
860.589	48.98
860.763	65.36
860.938	36.69
861.112	59.22
861.286	40.79
861.46	104.28
861.634	104.28
861.808	34.64
861.982	77.65
862.157	10.07
862.331	94.04
862.505	34.64
862.679	-8.36
862.853	112.47
863.027	14.17
863.201	126.8
863.375	14.17
863.549	106.32
863.722	42.84
863.896	67.41
864.07	61.27
864.244	53.08
864.418	81.75
864.592	147.28
864.766	71.51
864.939	40.79
865.113	42.84
865.287	28.5
865.461	94.04
865.634	91.99
865.808	10.07
865.982	-12.46
866.156	24.4
866.329	67.41
866.503	28.5
866.676	116.56
866.85	18.26
867.024	32.6
867.197	79.7
867.371	3.93
867.544	67.41
867.718	-6.31
867.891	89.94
868.065	-10.41
868.238	71.51
868.412	34.64
868.585	36.69
868.759	46.93
868.932	40.79
869.105	-22.7
869.279	44.88
869.452	-10.41
869.625	57.17
869.799	124.76
869.972	-0.17
870.145	26.45
870.319	14.17
870.492	46.93
870.665	-4.27
870.838	26.45
871.011	-43.18
871.185	83.8
871.358	1.88
871.531	96.08
871.704	42.84
871.877	96.08
872.05	-22.7
872.223	26.45
872.396	46.93
872.569	24.4
872.742	38.74
872.915	61.27
873.088	-8.36
873.261	38.74
873.434	108.37
873.607	12.12
873.78	32.6
873.953	34.64
874.126	22.36
874.299	12.12
874.471	53.08
874.644	53.08
874.817	-8.36
874.99	16.21
875.163	77.65
875.335	151.38
875.508	96.08
875.681	75.6
875.853	57.17
876.026	61.27
876.199	12.12
876.371	77.65
876.544	-6.31
876.717	145.24
876.889	75.6
877.062	5.97
877.234	16.21
877.407	67.41
877.579	63.32
877.752	71.51
877.924	36.69
878.097	81.75
878.269	77.65
878.442	30.55
878.614	40.79
878.786	69.46
878.959	-0.17
879.131	32.6
879.303	1.88
879.476	5.97
879.648	57.17
879.82	75.6
879.993	61.27
880.165	5.97
880.337	3.93
880.509	46.93
880.681	-18.6
880.854	71.51
881.026	-14.51
881.198	79.7
881.37	18.26
881.542	-2.22
881.714	22.36
881.886	-53.42
882.058	44.88
882.23	53.08
882.402	-4.27
882.574	91.99
882.746	81.75
882.918	77.65
883.09	65.36
883.262	57.17
883.434	40.79
883.606	-39.08
883.778	32.6
883.95	79.7
884.122	20.31
884.293	59.22
884.465	-10.41
884.637	104.28
884.809	20.31
884.98	22.36
885.152	42.84
885.324	63.32
885.496	59.22
885.667	106.32
885.839	-20.65
886.011	40.79
886.182	34.64
886.354	48.98
886.525	30.55
886.697	18.26
886.869	-10.41
887.04	20.31
887.212	94.04
887.383	8.02
887.555	57.17
887.726	26.45
887.897	32.6
888.069	5.97
888.24	102.23
888.412	36.69
888.583	34.64
888.754	75.6
888.926	42.84
889.097	38.74
889.268	-80.04
889.44	32.6
889.611	57.17
889.782	38.74
889.953	8.02
890.125	63.32
890.296	-41.13
890.467	36.69
890.638	63.32
890.809	77.65
890.98	122.71
891.151	22.36
891.323	59.22
891.494	40.79
891.665	5.97
891.836	24.4
892.007	8.02
892.178	55.12
892.349	12.12
892.52	-2.22
892.691	98.13
892.862	28.5
893.032	-12.46
893.203	28.5
893.374	-41.13
893.545	48.98
893.716	24.4
893.887	42.84
894.057	24.4
894.228	-18.6
894.399	-4.27
894.57	65.36
894.74	73.56
894.911	24.4
895.082	16.21
895.253	-59.56
895.423	-22.7
895.594	73.56
895.764	36.69
895.935	36.69
896.106	40.79
896.276	10.07
896.447	-16.55
896.617	48.98
896.788	42.84
896.958	22.36
897.129	-18.6
897.299	-0.17
897.47	61.27
897.64	14.17
897.81	-63.66
897.981	32.6
898.151	-37.03
898.322	51.03
898.492	46.93
898.662	-16.55
898.832	83.8
899.003	-6.31
899.173	-45.23
899.343	-49.32
899.513	-53.42
