Data from USB4F104151__51__12-24-01-153.txt Node

Date: Fri Mar 14 12:24:01 EDT 2025
User: louis
Spectrometer: USB4F10415
Trigger mode: 4
Integration Time (sec): 3.500000E-2
Scans to average: 1
Electric dark correction enabled: true
Nonlinearity correction enabled: false
Boxcar width: 0
XAxis mode: Wavelengths
Number of Pixels in Spectrum: 3648
>>>>>Begin Spectral Data<<<<<
178.204	-131.07
178.424	-131.07
178.644	-131.07
178.864	-243.71
179.084	-186.37
179.304	-6.14
179.524	8.19
179.744	-73.73
179.964	-24.58
180.184	-57.34
180.404	49.15
180.624	57.34
180.844	34.82
181.064	-59.39
181.283	55.3
181.503	-2.05
181.723	18.43
181.943	-32.77
182.163	51.2
182.383	-28.67
182.602	-34.82
182.822	24.58
183.042	-4.1
183.262	-8.19
183.482	47.1
183.701	24.58
183.921	-63.49
184.141	-12.29
184.361	40.96
184.58	22.53
184.8	16.38
185.02	49.15
185.239	63.49
185.459	36.86
185.679	-6.14
185.898	20.48
186.118	30.72
186.338	28.67
186.557	-18.43
186.777	36.86
186.997	47.1
187.216	-34.82
187.436	34.82
187.655	4.1
187.875	77.82
188.095	-30.72
188.314	59.39
188.534	59.39
188.753	24.58
188.973	63.49
189.192	88.06
189.412	28.67
189.631	55.3
189.851	2.05
190.07	100.35
190.29	12.29
190.509	-28.67
190.729	-73.73
190.948	-16.38
191.168	143.36
191.387	63.49
191.607	16.38
191.826	-40.96
192.045	51.2
192.265	-2.05
192.484	28.67
192.704	61.44
192.923	-53.25
193.142	153.6
193.362	-18.43
193.581	114.69
193.8	18.43
194.02	55.3
194.239	67.58
194.458	-16.38
194.678	24.58
194.897	55.3
195.116	4.1
195.335	36.86
195.555	-40.96
195.774	-12.29
195.993	24.58
196.212	18.43
196.432	-45.06
196.651	-8.19
196.87	18.43
197.089	90.11
197.308	12.29
197.528	69.63
197.747	-43.01
197.966	59.39
198.185	90.11
198.404	61.44
198.623	43.01
198.842	57.34
199.062	26.62
199.281	77.82
199.5	-16.38
199.719	59.39
199.938	67.58
200.157	38.91
200.376	20.48
200.595	90.11
200.814	79.87
201.033	-8.19
201.252	18.43
201.471	40.96
201.69	77.82
201.909	-6.14
202.128	36.86
202.347	75.77
202.566	38.91
202.785	-26.62
203.004	-26.62
203.223	26.62
203.442	43.01
203.661	-6.14
203.879	61.44
204.098	2.05
204.317	-79.87
204.536	110.59
204.755	67.58
204.974	10.24
205.193	61.44
205.411	71.68
205.63	-20.48
205.849	18.43
206.068	-12.29
206.287	-30.72
206.505	67.58
206.724	49.15
206.943	28.67
207.162	-20.48
207.381	67.58
207.599	-57.34
207.818	0
208.037	38.91
208.255	-57.34
208.474	49.15
208.693	75.77
208.911	45.06
209.13	38.91
209.349	-30.72
209.567	12.29
209.786	108.54
210.005	36.86
210.223	26.62
210.442	-57.34
210.661	4.1
210.879	40.96
211.098	-4.1
211.316	-69.63
211.535	67.58
211.753	53.25
211.972	32.77
212.191	0
212.409	63.49
212.628	20.48
212.846	24.58
213.065	100.35
213.283	47.1
213.502	55.3
213.72	4.1
213.938	40.96
214.157	47.1
214.375	34.82
214.594	28.67
214.812	92.16
215.031	8.19
215.249	-22.53
215.467	-6.14
215.686	116.73
215.904	65.54
216.122	83.97
216.341	18.43
216.559	24.58
216.778	2.05
216.996	120.83
217.214	-40.96
217.432	-36.86
217.651	47.1
217.869	-22.53
218.087	28.67
218.306	59.39
218.524	34.82
218.742	30.72
218.96	10.24
219.179	-43.01
219.397	-24.58
219.615	118.78
219.833	-8.19
220.051	-34.82
220.27	73.73
220.488	-8.19
220.706	-47.1
220.924	-36.86
221.142	92.16
221.36	59.39
221.578	51.2
221.796	59.39
222.015	47.1
222.233	-47.1
222.451	32.77
222.669	-12.29
222.887	116.73
223.105	-12.29
223.323	6.14
223.541	-30.72
223.759	-8.19
223.977	-24.58
224.195	137.21
224.413	28.67
224.631	55.3
224.849	-12.29
225.067	-6.14
225.285	49.15
225.503	75.77
225.721	-18.43
225.939	-6.14
226.157	38.91
226.375	118.78
226.592	36.86
226.81	-8.19
227.028	38.91
227.246	83.97
227.464	45.06
227.682	26.62
227.9	20.48
228.117	81.92
228.335	-12.29
228.553	10.24
228.771	32.77
228.989	51.2
229.206	-26.62
229.424	-26.62
229.642	-28.67
229.86	24.58
230.077	24.58
230.295	10.24
230.513	22.53
230.731	43.01
230.948	59.39
231.166	73.73
231.384	69.63
231.601	32.77
231.819	18.43
232.037	4.1
232.254	-55.3
232.472	-6.14
232.689	32.77
232.907	59.39
233.125	100.35
233.342	2.05
233.56	-28.67
233.777	-4.1
233.995	6.14
234.213	55.3
234.43	-24.58
234.648	-18.43
234.865	47.1
235.083	-43.01
235.3	14.34
235.518	14.34
235.735	77.82
235.953	61.44
236.17	14.34
236.388	51.2
236.605	43.01
236.822	165.89
237.04	55.3
237.257	8.19
237.475	4.1
237.692	4.1
237.909	45.06
238.127	10.24
238.344	0
238.562	55.3
238.779	-30.72
238.996	22.53
239.214	20.48
239.431	55.3
239.648	-18.43
239.865	120.83
240.083	71.68
240.3	12.29
240.517	8.19
240.735	-20.48
240.952	53.25
241.169	18.43
241.386	24.58
241.603	-40.96
241.821	-12.29
242.038	71.68
242.255	63.49
242.472	-12.29
242.689	12.29
242.907	49.15
243.124	73.73
243.341	-43.01
243.558	-79.87
243.775	34.82
243.992	-63.49
244.209	59.39
244.426	86.01
244.643	26.62
244.86	55.3
245.078	-18.43
245.295	36.86
245.512	12.29
245.729	-65.53
245.946	47.1
246.163	4.1
246.38	59.39
246.597	-18.43
246.814	36.86
247.031	12.29
247.248	43.01
247.464	67.58
247.681	-20.48
247.898	4.1
248.115	77.82
248.332	12.29
248.549	63.49
248.766	45.06
248.983	51.2
249.2	55.3
249.417	88.06
249.633	49.15
249.85	45.06
250.067	6.14
250.284	-12.29
250.501	77.82
250.717	114.69
250.934	-10.24
251.151	-30.72
251.368	-49.15
251.585	40.96
251.801	-6.14
252.018	-36.86
252.235	104.45
252.451	-14.34
252.668	24.58
252.885	83.97
253.102	-32.77
253.318	55.3
253.535	-30.72
253.752	32.77
253.968	-14.34
254.185	-14.34
254.401	16.38
254.618	77.82
254.835	43.01
255.051	116.73
255.268	49.15
255.484	24.58
255.701	24.58
255.917	61.44
256.134	32.77
256.351	38.91
256.567	24.58
256.784	32.77
257	47.1
257.217	-2.05
257.433	51.2
257.65	-12.29
257.866	63.49
258.082	-32.77
258.299	57.34
258.515	30.72
258.732	24.58
258.948	67.58
259.165	53.25
259.381	67.58
259.597	38.91
259.814	-16.38
260.03	-6.14
260.246	-22.53
260.463	22.53
260.679	57.34
260.895	-14.34
261.112	110.59
261.328	-14.34
261.544	4.1
261.761	114.69
261.977	-6.14
262.193	-63.49
262.409	83.97
262.626	4.1
262.842	81.92
263.058	-6.14
263.274	32.77
263.49	36.86
263.707	16.38
263.923	75.77
264.139	-22.53
264.355	-30.72
264.571	83.97
264.787	-28.67
265.004	30.72
265.22	45.06
265.436	28.67
265.652	30.72
265.868	43.01
266.084	40.96
266.3	34.82
266.516	20.48
266.732	22.53
266.948	30.72
267.164	2.05
267.38	40.96
267.596	-6.14
267.812	122.88
268.028	75.77
268.244	55.3
268.46	36.86
268.676	45.06
268.892	0
269.108	-59.39
269.324	-47.1
269.54	0
269.756	-8.19
269.972	8.19
270.188	67.58
270.403	-14.34
270.619	18.43
270.835	77.82
271.051	43.01
271.267	57.34
271.483	-2.05
271.698	47.1
271.914	-28.67
272.13	40.96
272.346	55.3
272.562	8.19
272.777	28.67
272.993	49.15
273.209	6.14
273.425	57.34
273.64	10.24
273.856	71.68
274.072	8.19
274.287	-43.01
274.503	32.77
274.719	22.53
274.934	22.53
275.15	-6.14
275.366	22.53
275.581	-75.77
275.797	34.82
276.012	96.25
276.228	28.67
276.444	28.67
276.659	79.87
276.875	34.82
277.09	73.73
277.306	-2.05
277.521	47.1
277.737	51.2
277.952	47.1
278.168	6.14
278.383	40.96
278.599	57.34
278.814	32.77
279.03	79.87
279.245	18.43
279.461	100.35
279.676	77.82
279.892	-40.96
280.107	-20.48
280.322	43.01
280.538	63.49
280.753	71.68
280.969	12.29
281.184	14.34
281.399	32.77
281.615	8.19
281.83	32.77
282.045	14.34
282.26	28.67
282.476	49.15
282.691	10.24
282.906	69.63
283.122	38.91
283.337	-71.68
283.552	38.91
283.767	22.53
283.983	34.82
284.198	-22.53
284.413	65.54
284.628	-10.24
284.843	-2.05
285.058	20.48
285.274	-4.1
285.489	45.06
285.704	26.62
285.919	22.53
286.134	-55.3
286.349	-28.67
286.564	14.34
286.779	28.67
286.995	8.19
287.21	36.86
287.425	26.62
287.64	-34.82
287.855	47.1
288.07	6.14
288.285	57.34
288.5	61.44
288.715	32.77
288.93	-61.44
289.145	18.43
289.36	88.06
289.575	36.86
289.79	57.34
290.004	26.62
290.219	94.21
290.434	38.91
290.649	14.34
290.864	-10.24
291.079	100.35
291.294	38.91
291.509	30.72
291.724	16.38
291.938	24.58
292.153	38.91
292.368	36.86
292.583	24.58
292.798	96.25
293.012	32.77
293.227	73.73
293.442	-34.82
293.657	79.87
293.871	34.82
294.086	-38.91
294.301	55.3
294.516	0
294.73	51.2
294.945	-14.34
295.16	-24.58
295.374	96.25
295.589	133.12
295.804	45.06
296.018	57.34
296.233	14.34
296.447	92.16
296.662	12.29
296.877	83.97
297.091	102.4
297.306	32.77
297.52	32.77
297.735	90.11
297.949	61.44
298.164	71.68
298.378	16.38
298.593	-22.53
298.807	-4.1
299.022	49.15
299.236	49.15
299.451	49.15
299.665	22.53
299.88	26.62
300.094	32.77
300.309	10.24
300.523	81.92
300.737	-8.19
300.952	75.77
301.166	-30.72
301.381	38.91
301.595	90.11
301.809	40.96
302.024	0
302.238	40.96
302.452	69.63
302.667	8.19
302.881	36.86
303.095	77.82
303.309	16.38
303.524	4.1
303.738	14.34
303.952	63.49
304.166	45.06
304.381	36.86
304.595	137.21
304.809	61.44
305.023	2.05
305.237	20.48
305.452	30.72
305.666	71.68
305.88	71.68
306.094	83.97
306.308	34.82
306.522	69.63
306.736	-4.1
306.95	45.06
307.164	8.19
307.379	55.3
307.593	108.54
307.807	67.58
308.021	28.67
308.235	40.96
308.449	38.91
308.663	-30.72
308.877	69.63
309.091	24.58
309.305	51.2
309.519	-36.86
309.733	104.45
309.947	22.53
310.161	96.25
310.374	81.92
310.588	116.73
310.802	-67.58
311.016	73.73
311.23	59.39
311.444	38.91
311.658	69.63
311.872	108.54
312.085	51.2
312.299	-2.05
312.513	57.34
312.727	65.54
312.941	34.82
313.154	81.92
313.368	57.34
313.582	-8.19
313.796	10.24
314.009	49.15
314.223	-14.34
314.437	40.96
314.651	18.43
314.864	6.14
315.078	51.2
315.292	-30.72
315.505	-8.19
315.719	83.97
315.933	51.2
316.146	45.06
316.36	-24.58
316.573	61.44
316.787	-8.19
317.001	30.72
317.214	53.25
317.428	81.92
317.641	-8.19
317.855	55.3
318.068	-36.86
318.282	26.62
318.495	55.3
318.709	-8.19
318.922	4.1
319.136	98.3
319.349	-10.24
319.563	45.06
319.776	104.45
319.99	-18.43
320.203	26.62
320.417	57.34
320.63	116.73
320.843	90.11
321.057	30.72
321.27	-34.82
321.483	86.01
321.697	102.4
321.91	116.73
322.124	86.01
322.337	61.44
322.55	32.77
322.763	36.86
322.977	114.69
323.19	4.1
323.403	47.1
323.617	32.77
323.83	30.72
324.043	12.29
324.256	-57.34
324.469	14.34
324.683	43.01
324.896	32.77
325.109	59.39
325.322	-6.14
325.535	92.16
325.748	18.43
325.962	38.91
326.175	92.16
326.388	88.06
326.601	26.62
326.814	98.3
327.027	20.48
327.24	71.68
327.453	-22.53
327.666	-24.58
327.879	139.26
328.092	-28.67
328.305	43.01
328.518	30.72
328.731	-20.48
328.944	51.2
329.157	43.01
329.37	102.4
329.583	165.89
329.796	104.45
330.009	6.14
330.222	81.92
330.435	88.06
330.648	-14.34
330.861	14.34
331.073	73.73
331.286	81.92
331.499	2.05
331.712	22.53
331.925	57.34
332.138	28.67
332.35	122.88
332.563	10.24
332.776	153.6
332.989	26.62
333.202	47.1
333.414	22.53
333.627	2.05
333.84	34.82
334.053	30.72
334.265	-4.1
334.478	-2.05
334.691	-40.96
334.903	51.2
335.116	-32.77
335.329	4.1
335.541	83.97
335.754	110.59
335.966	10.24
336.179	65.54
336.392	53.25
336.604	61.44
336.817	92.16
337.029	71.68
337.242	96.25
337.454	49.15
337.667	26.62
337.88	77.82
338.092	-6.14
338.305	83.97
338.517	59.39
338.729	49.15
338.942	104.45
339.154	47.1
339.367	20.48
339.579	55.3
339.792	-10.24
340.004	34.82
340.217	30.72
340.429	26.62
340.641	57.34
340.854	137.21
341.066	-14.34
341.278	-8.19
341.491	45.06
341.703	59.39
341.915	36.86
342.128	18.43
342.34	47.1
342.552	92.16
342.764	14.34
342.977	28.67
343.189	67.58
343.401	79.87
343.613	47.1
343.826	118.78
344.038	94.21
344.25	32.77
344.462	26.62
344.674	131.07
344.886	88.06
345.099	20.48
345.311	10.24
345.523	38.91
345.735	-32.77
345.947	30.72
346.159	26.62
346.371	26.62
346.583	-20.48
346.795	124.93
347.007	106.49
347.219	-4.1
347.431	77.82
347.643	100.35
347.855	67.58
348.067	57.34
348.279	-20.48
348.491	73.73
348.703	47.1
348.915	30.72
349.127	96.25
349.339	24.58
349.551	61.44
349.763	69.63
349.975	20.48
350.187	108.54
350.399	102.4
350.61	67.58
350.822	122.88
351.034	106.49
351.246	131.07
351.458	40.96
351.669	20.48
351.881	98.3
352.093	77.82
352.305	102.4
352.517	49.15
352.728	155.65
352.94	73.73
353.152	-22.53
353.363	0
353.575	53.25
353.787	94.21
353.999	51.2
354.21	145.41
354.422	18.43
354.633	61.44
354.845	71.68
355.057	73.73
355.268	96.25
355.48	55.3
355.692	14.34
355.903	73.73
356.115	0
356.326	26.62
356.538	120.83
356.749	96.25
356.961	92.16
357.172	69.63
357.384	16.38
357.595	53.25
357.807	55.3
358.018	71.68
358.23	32.77
358.441	102.4
358.653	83.97
358.864	73.73
359.075	14.34
359.287	98.3
359.498	22.53
359.709	0
359.921	12.29
360.132	16.38
360.344	-12.29
360.555	28.67
360.766	-65.53
360.977	49.15
361.189	90.11
361.4	45.06
361.611	112.64
361.823	112.64
362.034	94.21
362.245	47.1
362.456	45.06
362.667	63.49
362.879	49.15
363.09	63.49
363.301	43.01
363.512	63.49
363.723	-32.77
363.935	67.58
364.146	92.16
364.357	43.01
364.568	116.73
364.779	-26.62
364.99	83.97
365.201	10.24
365.412	47.1
365.623	55.3
365.834	53.25
366.045	43.01
366.256	34.82
366.467	77.82
366.678	88.06
366.889	28.67
367.1	38.91
367.311	112.64
367.522	59.39
367.733	36.86
367.944	57.34
368.155	38.91
368.366	83.97
368.577	77.82
368.788	63.49
368.999	69.63
369.209	-14.34
369.42	126.97
369.631	163.84
369.842	0
370.053	75.77
370.264	14.34
370.474	81.92
370.685	86.01
370.896	-30.72
371.107	45.06
371.317	40.96
371.528	6.14
371.739	69.63
371.95	18.43
372.16	100.35
372.371	-8.19
372.582	18.43
372.792	73.73
373.003	88.06
373.214	73.73
373.424	63.49
373.635	32.77
373.846	96.25
374.056	110.59
374.267	49.15
374.477	57.34
374.688	149.5
374.898	116.73
375.109	122.88
375.319	79.87
375.53	79.87
375.74	106.49
375.951	43.01
376.161	40.96
376.372	141.31
376.582	20.48
376.793	118.78
377.003	63.49
377.214	75.77
377.424	24.58
377.635	32.77
377.845	38.91
378.055	180.22
378.266	110.59
378.476	40.96
378.686	36.86
378.897	49.15
379.107	6.14
379.317	43.01
379.528	-2.05
379.738	75.77
379.948	98.3
380.158	102.4
380.369	83.97
380.579	47.1
380.789	57.34
380.999	100.35
381.21	141.31
381.42	133.12
381.63	53.25
381.84	165.89
382.05	22.53
382.261	94.21
382.471	114.69
382.681	73.73
382.891	71.68
383.101	73.73
383.311	-22.53
383.521	0
383.731	45.06
383.941	106.49
384.151	73.73
384.361	96.25
384.571	153.6
384.781	47.1
384.991	129.02
385.201	83.97
385.411	73.73
385.621	120.83
385.831	77.82
386.041	79.87
386.251	124.93
386.461	139.26
386.671	47.1
386.881	57.34
387.091	6.14
387.301	59.39
387.511	112.64
387.72	59.39
387.93	151.55
388.14	12.29
388.35	43.01
388.56	51.2
388.769	83.97
388.979	106.49
389.189	-8.19
389.399	110.59
389.609	16.38
389.818	83.97
390.028	86.01
390.238	114.69
390.447	104.45
390.657	159.74
390.867	63.49
391.076	28.67
391.286	61.44
391.496	124.93
391.705	71.68
391.915	139.26
392.125	133.12
392.334	57.34
392.544	153.6
392.753	96.25
392.963	53.25
393.172	94.21
393.382	45.06
393.591	96.25
393.801	120.83
394.01	102.4
394.22	59.39
394.429	88.06
394.639	55.3
394.848	90.11
395.058	141.31
395.267	90.11
395.477	165.89
395.686	120.83
395.895	178.17
396.105	165.89
396.314	67.58
396.524	215.04
396.733	108.54
396.942	159.74
397.152	63.49
397.361	65.54
397.57	65.54
397.78	104.45
397.989	114.69
398.198	153.6
398.407	178.17
398.617	147.45
398.826	178.17
399.035	120.83
399.244	131.07
399.453	73.73
399.663	149.5
399.872	141.31
400.081	139.26
400.29	137.21
400.499	159.74
400.708	137.21
400.917	131.07
401.127	106.49
401.336	69.63
401.545	151.55
401.754	192.51
401.963	145.41
402.172	124.93
402.381	120.83
402.59	38.91
402.799	122.88
403.008	151.55
403.217	176.13
403.426	245.76
403.635	149.5
403.844	139.26
404.053	178.17
404.262	180.22
404.471	194.56
404.68	192.51
404.888	274.43
405.097	258.04
405.306	169.98
405.515	288.76
405.724	182.27
405.933	196.61
406.142	217.08
406.35	299
406.559	284.67
406.768	212.99
406.977	370.68
407.185	194.56
407.394	278.52
407.603	241.66
407.812	190.46
408.02	333.82
408.229	268.28
408.438	331.77
408.646	272.38
408.855	352.25
409.064	301.05
409.272	309.24
409.481	434.17
409.69	360.44
409.898	428.03
410.107	409.59
410.315	487.42
410.524	473.08
410.733	524.28
410.941	387.07
411.15	516.09
411.358	530.42
411.567	509.94
411.775	569.34
411.984	587.77
412.192	514.04
412.401	598.01
412.609	641.01
412.818	641.01
413.026	700.41
413.234	671.73
413.443	737.27
413.651	718.84
413.86	778.23
414.068	772.08
414.276	835.57
414.485	786.42
414.693	937.97
414.901	1026.03
415.11	1023.98
415.318	927.73
415.526	1011.7
415.734	1085.42
415.943	1198.06
416.151	1161.2
416.359	1114.1
416.567	1200.11
416.776	1173.49
416.984	1335.28
417.192	1337.32
417.4	1339.37
417.608	1376.24
417.817	1320.94
418.025	1550.31
418.233	1665
418.441	1535.98
418.649	1581.03
418.857	1802.21
419.065	1691.62
419.273	1742.82
419.481	2043.87
419.689	1957.86
419.897	2045.92
420.105	2084.83
420.313	2164.7
420.521	2211.81
420.729	2281.44
420.937	2375.64
421.145	2453.47
421.353	2580.44
421.561	2711.51
421.769	2740.18
421.977	2760.66
422.185	2858.96
422.393	2910.16
422.601	3155.92
422.809	3114.96
423.017	3184.59
423.224	3200.98
423.432	3538.89
423.64	3362.76
423.848	3825.61
424.056	3620.81
424.263	4061.12
424.471	3956.68
424.679	4011.97
424.887	4147.14
425.094	4499.39
425.302	4519.87
425.51	4523.96
425.718	4700.09
425.925	4718.52
426.133	4855.73
426.341	5207.98
426.548	5367.73
426.756	5466.03
426.964	5582.76
427.171	5853.09
427.379	5955.49
427.586	6100.9
427.794	6174.63
428.001	6467.49
428.209	6735.77
428.417	6715.29
428.624	7255.95
428.832	7323.54
429.039	7415.69
429.247	7276.43
429.454	8013.7
429.662	8277.89
429.869	7923.59
430.076	8304.51
430.284	8255.36
430.491	8638.33
430.699	9006.97
430.906	8861.56
431.114	9062.26
431.321	9365.36
431.528	9811.82
431.736	10418.02
431.943	10825.56
432.15	10315.62
432.358	10637.15
432.565	11126.61
432.772	11192.15
432.979	11818.83
433.187	11802.44
433.394	12074.82
433.601	12695.36
433.808	12900.16
434.016	12693.31
434.223	13256.5
434.43	14040.87
434.637	13831.98
434.844	14563.11
435.052	15032.09
435.259	15005.47
435.466	15044.38
435.673	14909.21
435.88	16006.92
436.087	16793.34
436.294	16537.35
436.501	16592.64
436.708	16568.07
436.915	17202.94
437.122	18128.62
437.329	18071.28
437.537	18691.81
437.743	18958.05
437.95	18657
438.157	19680.98
438.364	20465.35
438.571	20516.55
438.778	20545.22
438.985	22683.3
439.192	21731
439.399	22107.82
439.606	21862.07
439.813	23053.98
440.02	23994
440.227	23920.28
440.433	23678.61
440.64	24505.99
440.847	24331.92
441.054	25214.59
441.261	26625.64
441.467	26115.7
441.674	26728.04
441.881	27864.66
442.088	27616.86
442.294	27520.6
442.501	28489.29
442.708	28692.04
442.914	29937.21
443.121	31090.21
443.328	30260.79
443.534	32738.83
443.741	31706.65
443.948	31284.77
444.154	33455.62
444.361	33496.58
444.568	33644.03
444.774	33482.24
444.981	33979.9
445.187	34891.24
445.394	36212.18
445.6	35788.25
445.807	39019.95
446.013	37727.68
446.22	38583.73
446.426	39665.06
446.633	40351.13
446.839	41221.51
447.046	39900.58
447.252	42290.55
447.459	42175.87
447.665	41561.48
447.871	43842.91
448.078	45569.35
448.284	43398.51
448.491	44422.49
448.697	46337.34
448.903	46896.44
449.11	47250.73
449.316	46267.71
449.522	46957.88
449.728	48424.22
449.935	48958.74
450.141	48680.22
450.347	49796.36
450.553	48174.37
450.76	48733.46
450.966	50459.9
451.172	50035.97
451.378	51068.15
451.584	49997.06
451.791	51295.47
451.997	50824.44
452.203	51893.48
452.409	51692.78
452.615	51694.83
452.821	49640.71
453.027	49141.01
453.233	51891.43
453.44	49990.92
453.646	50328.83
453.852	50638.08
454.058	51662.06
454.264	50076.93
454.47	50973.94
454.676	49511.69
454.882	51182.83
455.088	46990.64
455.294	47752.49
455.5	47826.21
455.705	48866.58
455.911	46677.3
456.117	45784.39
456.323	45231.44
456.529	42802.55
456.735	44813.65
456.941	43756.9
457.147	43052.4
457.352	41905.54
457.558	41536.9
457.764	41264.52
457.97	40617.36
458.176	39814.56
458.381	39519.65
458.587	37629.38
458.793	37645.76
458.999	35503.59
459.204	38501.81
459.41	37057.99
459.616	34582
459.821	34903.53
460.027	34518.51
460.233	33703.42
460.438	32562.7
460.644	32751.12
460.85	31393.31
461.055	30369.33
461.261	30369.33
461.466	28110.42
461.672	27532.89
461.878	29197.89
462.083	27364.96
462.289	26652.27
462.494	26637.93
462.7	25585.27
462.905	25126.53
463.111	25888.37
463.316	25601.66
463.522	25167.49
463.727	25583.23
463.932	25181.82
464.138	25020.03
464.343	24725.13
464.549	23973.52
464.754	24956.55
464.959	24845.96
465.165	24850.05
465.37	23500.44
465.575	23305.88
465.781	24346.25
465.986	24323.72
466.191	23262.88
466.397	22800.04
466.602	21765.81
466.807	22621.86
467.012	22574.76
467.218	22415.02
467.423	22312.62
467.628	22333.1
467.833	23047.84
468.038	21925.55
468.244	21706.42
468.449	22455.98
468.654	22097.58
468.859	21540.54
469.064	21401.27
469.269	20860.61
469.474	20952.77
469.679	21569.21
469.885	20571.85
470.09	21145.28
470.295	20694.72
470.5	20360.91
470.705	20438.73
470.91	20008.65
471.115	19762.9
471.32	20115.15
471.525	19918.54
471.73	19592.92
471.935	19324.63
472.139	18835.17
472.344	19220.19
472.549	18910.94
472.754	18878.18
472.959	18286.31
473.164	17833.71
473.369	18134.76
473.574	18224.87
473.778	17827.57
473.983	17846
474.188	17774.32
474.393	17088.25
474.598	17151.74
474.802	16957.18
475.007	16830.21
475.212	17121.02
475.417	16234.25
475.621	16301.83
475.826	16504.58
476.031	16025.36
476.235	15773.46
476.44	16070.41
476.645	15484.69
476.849	15677.2
477.054	15499.03
477.259	15228.7
477.463	15093.53
477.668	15054.62
477.872	14749.47
478.077	14731.04
478.282	14378.79
478.486	14427.94
478.691	14182.18
478.895	14159.66
479.1	14059.31
479.304	14071.59
479.509	13526.83
479.713	13821.74
479.918	13715.25
480.122	13176.63
480.326	13702.96
480.531	13496.11
480.735	13545.27
480.94	13350.71
481.144	13666.1
481.348	13129.53
481.553	13422.39
481.757	13096.76
481.961	13129.53
482.166	13403.96
482.37	13076.28
482.574	12885.82
482.778	12685.12
482.983	13276.98
483.187	13293.37
483.391	13160.25
483.595	13000.51
483.8	12783.42
484.004	13182.77
484.208	13227.83
484.412	13068.09
484.616	13072.18
484.821	13096.76
485.025	12830.52
485.229	13201.21
485.433	12887.87
485.637	13178.68
485.841	12799.8
486.045	12998.46
486.249	12951.35
486.453	13115.19
486.657	12863.29
486.861	12900.16
487.065	12519.23
487.269	12992.31
487.473	12769.09
487.677	13070.14
487.881	12922.68
488.085	13043.51
488.289	13027.13
488.493	13129.53
488.697	13068.09
488.901	13072.18
489.105	12986.17
489.309	12857.15
489.512	13360.95
489.716	13369.14
489.92	13356.85
490.124	13055.8
490.328	13467.44
490.531	13201.21
490.735	13637.42
490.939	13446.96
491.143	13332.28
491.346	13326.13
491.55	13723.44
491.754	13410.1
491.958	13588.27
492.161	13567.79
492.365	13928.24
492.569	13600.56
492.772	13672.24
492.976	13694.77
493.18	13856.56
493.383	14028.59
493.587	14268.2
493.79	14389.03
493.994	14225.19
494.197	14073.64
494.401	14464.8
494.605	14446.37
494.808	14718.75
495.012	14696.22
495.215	14696.22
495.419	15042.33
495.622	14991.13
495.825	15138.59
496.029	15372.05
496.232	15552.27
496.436	15402.77
496.639	15925
496.843	15798.03
497.046	16467.72
497.249	16291.59
497.453	16310.02
497.656	16191.24
497.859	16434.95
498.063	16736
498.266	16924.41
498.469	16649.99
498.673	17106.68
498.876	17366.78
499.079	17729.27
499.282	17622.77
499.485	17960.69
499.689	18005.74
499.892	18274.03
500.095	18515.69
500.298	18808.55
500.501	18743.01
500.705	19183.32
500.908	19220.19
501.111	19629.78
501.314	19723.99
501.517	19994.32
501.72	20203.21
501.923	20211.4
502.126	20616.9
502.329	20692.68
502.532	21065.41
502.735	21227.2
502.938	21520.06
503.141	21923.51
503.344	21903.03
503.547	22062.77
503.75	22392.49
503.953	22505.13
504.156	22959.78
504.359	23180.96
504.562	22980.26
504.765	23819.92
504.968	23834.26
505.17	24422.03
505.373	24395.4
505.576	24614.54
505.779	25030.27
505.982	25310.85
506.185	25509.5
506.387	25736.82
506.59	25966.2
506.793	26168.94
506.996	26383.98
507.198	27035.24
507.401	26721.9
507.604	27145.83
507.807	27672.15
508.009	27692.63
508.212	28175.95
508.415	28397.13
508.617	28945.99
508.82	28929.61
509.022	28905.03
509.225	29374.02
509.428	30236.21
509.63	29939.26
509.833	30142
510.035	30998.06
510.238	30772.78
510.44	31299.11
510.643	31778.33
510.845	31995.42
511.048	32210.45
511.25	32288.28
511.453	32540.18
511.655	33996.28
511.858	33390.08
512.06	33564.16
512.262	34039.29
512.465	33996.28
512.667	34541.04
512.87	35042.79
513.072	35071.46
513.274	35759.58
513.477	36257.24
513.679	36173.27
513.881	36740.56
514.084	37361.09
514.286	37154.25
514.488	37422.53
514.69	38460.85
514.893	39001.52
515.095	38522.29
515.297	38978.99
515.499	39169.45
515.701	39533.99
515.904	40232.35
516.106	40633.75
516.308	40539.54
516.51	41307.53
516.712	41217.42
516.914	41442.7
517.116	42794.35
517.318	42560.89
517.52	42851.7
517.722	42945.9
517.925	43855.2
518.127	43976.03
518.329	44365.15
518.531	44189.02
518.733	45319.5
518.935	45438.28
519.136	45333.84
519.338	46343.48
519.54	46411.07
519.742	46507.32
519.944	47181.1
520.146	47889.7
520.348	47949.09
520.55	48192.8
520.752	48383.26
520.954	49282.32
521.155	49098
521.357	49417.49
521.559	50097.41
521.761	50666.75
521.963	50375.94
522.164	50885.88
522.366	51041.53
522.568	51590.38
522.77	51653.87
522.971	52511.97
523.173	51928.3
523.375	52651.23
523.576	52653.28
523.778	52612.32
523.98	53419.22
524.181	53525.71
524.383	53976.26
524.584	54422.72
524.786	54658.24
524.988	54301.89
525.189	55141.56
525.391	54969.53
525.592	55461.04
525.794	56036.52
525.995	55934.12
526.197	56308.9
526.398	55942.31
526.6	56790.17
526.801	56130.73
527.003	56741.02
527.204	57152.66
527.406	57441.43
527.607	57459.86
527.808	57912.46
528.01	57400.47
528.211	57902.22
528.412	58881.15
528.614	58080.39
528.815	58485.89
529.016	58864.77
529.218	58557.57
529.419	58915.96
529.62	59063.42
529.822	58793.09
530.023	59038.84
530.224	58946.68
530.425	59137.15
530.626	58723.46
530.828	59126.91
531.029	60384.36
531.23	59556.98
531.431	59665.52
531.632	59698.29
531.833	60062.83
532.035	60333.16
532.236	60253.29
532.437	60503.14
532.638	59804.78
532.839	60386.41
533.04	60546.15
533.241	59829.36
533.442	60693.6
533.643	60576.87
533.844	60206.19
534.045	60576.87
534.246	59915.37
534.447	60894.3
534.648	60531.81
534.849	60621.92
535.05	60204.14
535.251	60441.7
535.451	60247.14
535.652	60888.16
535.853	60521.57
536.054	60961.89
536.255	60599.4
536.456	60238.95
536.657	61156.44
536.857	60513.38
537.058	60431.46
537.259	60656.74
537.46	60509.28
537.66	60456.04
537.861	61013.08
538.062	60394.6
538.263	60611.68
538.463	60568.68
538.664	60497
538.865	60374.12
539.065	60607.59
539.266	60562.53
539.466	60849.25
539.667	60157.03
539.868	60972.13
540.068	60632.16
540.269	60284.01
540.469	60771.42
540.67	60558.44
540.87	60437.61
541.071	60570.72
541.271	60656.74
541.472	60357.73
541.672	60361.83
541.873	60079.21
542.073	59774.06
542.274	61121.63
542.474	60466.28
542.675	59841.65
542.875	60939.36
543.075	60382.31
543.276	59751.54
543.476	60546.15
543.676	60050.54
543.877	60417.13
544.077	60593.25
544.277	59935.85
544.478	60214.38
544.678	60083.31
544.878	60367.97
545.078	60241
545.279	59980.91
545.479	59968.62
545.679	60251.24
545.879	59731.06
546.079	60363.88
546.28	60247.14
546.48	59440.24
546.68	60433.51
546.88	60218.47
547.08	60261.48
547.28	59434.1
547.48	59503.73
547.68	59790.45
547.88	59837.55
548.081	60101.74
548.281	59833.45
548.481	59749.49
548.681	60152.94
548.881	59737.2
549.081	59815.02
549.28	59839.6
549.48	60413.03
549.68	59653.23
549.88	60611.68
550.08	59575.41
550.28	60257.38
550.48	59466.87
550.68	60062.83
550.88	59368.57
551.08	59649.14
551.279	59767.92
551.479	59362.42
551.679	59636.85
551.879	59587.7
552.079	59612.27
552.278	59556.98
552.478	59593.84
552.678	59411.57
552.878	59620.47
553.077	59221.11
553.277	59110.52
553.477	59939.95
553.676	59227.26
553.876	59249.78
554.076	59071.61
554.275	59389.05
554.475	58678.4
554.674	59159.67
554.874	59583.6
555.074	58727.55
555.273	59393.14
555.473	59460.72
555.672	59049.08
555.872	58694.78
556.071	59305.08
556.271	58819.71
556.47	58991.74
556.67	58322.05
556.869	58457.22
557.068	58549.38
557.268	58231.94
557.467	58264.71
557.667	58303.62
557.866	58315.91
558.065	58596.48
558.265	58059.91
558.464	58006.67
558.663	58702.98
558.863	57728.14
559.062	58330.25
559.261	57517.2
559.461	58467.46
559.66	57363.6
559.859	57722
560.058	57707.66
560.258	57375.89
560.457	56970.39
560.656	57400.47
560.855	57003.16
561.054	57650.32
561.253	56997.02
561.453	56962.2
561.652	57021.59
561.851	57005.21
562.05	56583.33
562.249	56501.41
562.448	56982.68
562.647	56548.51
562.846	56562.85
563.045	56675.49
563.244	55872.68
563.443	57085.08
563.642	55547.06
563.841	56028.33
564.04	55450.8
564.239	56429.73
564.438	55565.49
564.637	55958.7
564.836	56134.82
565.035	55375.03
565.234	55426.23
565.432	55254.2
565.631	54570.18
565.83	55151.8
566.029	55205.05
566.228	54752.44
566.427	54779.07
566.625	54627.52
566.824	54009.03
567.023	54725.82
567.222	53837
567.42	54357.19
567.619	54285.51
567.818	54103.24
568.016	53806.28
568.215	53849.29
568.414	53621.97
568.612	53724.36
568.811	53234.9
569.01	53615.82
569.208	52784.35
569.407	53462.22
569.605	52313.31
569.804	53247.19
570.002	52657.37
570.201	52878.55
570.4	52581.6
570.598	52581.6
570.797	51680.49
570.995	52176.1
571.193	51682.54
571.392	52055.27
571.59	51318
571.789	51602.67
571.987	51397.87
572.186	51797.23
572.384	51285.23
572.582	50980.09
572.781	51209.46
572.979	50650.36
573.177	50898.17
573.376	50904.31
573.574	50140.42
573.772	50719.99
573.971	50515.2
574.169	50476.29
574.367	49704.2
574.565	50005.25
574.763	49646.86
574.962	49321.23
575.16	49083.67
575.358	49782.02
575.556	48594.2
575.754	49425.68
575.952	48794.9
576.151	49354
576.349	48581.91
576.547	48477.47
576.745	48852.25
576.943	48925.97
577.141	48293.15
577.339	48211.23
577.537	47865.13
577.735	48276.77
577.933	47709.48
578.131	48067.87
578.329	47783.21
578.527	47246.64
578.725	47473.96
578.923	47422.76
579.121	46935.35
579.319	46849.33
579.516	47095.09
579.714	46861.62
579.912	46929.2
580.11	46945.59
580.308	46521.66
580.506	46277.95
580.704	45745.48
580.901	46501.18
581.099	46300.48
581.297	46208.32
581.495	46001.47
581.692	46189.89
581.89	45598.02
582.088	45565.26
582.285	45538.63
582.483	45411.66
582.681	44989.78
582.878	45348.17
583.076	45051.22
583.274	45139.28
583.471	44463.45
583.669	44416.35
583.866	44440.92
584.064	44455.26
584.262	43732.32
584.459	44338.52
584.657	43806.05
584.854	44221.79
585.052	43236.72
585.249	43779.43
585.447	43799.91
585.644	43277.68
585.841	43492.71
586.039	43289.96
586.236	42845.55
586.434	42818.93
586.631	42681.72
586.828	42583.41
587.026	42743.16
587.223	42417.53
587.42	41940.35
587.618	42532.21
587.815	41852.29
588.012	41883.01
588.21	41756.03
588.407	42173.82
588.604	41801.09
588.801	41467.27
588.999	41569.67
589.196	41475.46
589.393	41203.08
589.59	41379.21
589.787	40695.19
589.984	40525.21
590.182	40869.26
590.379	40650.13
590.576	40484.25
590.773	40490.39
590.97	40486.29
591.167	40406.42
591.364	39421.35
591.561	40080.8
591.758	39566.76
591.955	39962.01
592.152	39775.65
592.349	39677.35
592.546	39689.63
592.743	39656.87
592.94	38438.33
593.137	39153.07
593.334	39065
593.531	38172.09
593.727	38774.19
593.924	38862.25
594.121	38264.25
594.318	38321.59
594.515	38004.16
594.712	38591.92
594.908	37928.38
595.105	37985.72
595.302	37590.47
595.499	37825.98
595.696	37780.93
595.892	37678.53
596.089	37674.43
596.286	37479.88
596.482	37203.4
596.679	37047.75
596.876	36933.07
597.072	36849.1
597.269	37103.05
597.466	36722.13
597.662	36320.73
597.859	36740.56
598.055	36449.75
598.252	36138.46
598.448	36240.85
598.645	35978.71
598.841	35769.82
599.038	36003.29
599.234	36034.01
599.431	35673.57
599.627	35376.61
599.824	35440.1
600.02	35243.49
600.217	35479.01
600.413	35028.46
600.609	34993.64
600.806	35042.79
601.002	35239.4
601.198	35071.46
601.395	34590.19
601.591	34467.31
601.787	34618.86
601.984	34223.61
602.18	34719.21
602.376	34235.89
602.572	34178.55
602.769	34113.02
602.965	33558.02
603.161	33721.85
603.357	33392.13
603.553	33345.03
603.75	33717.76
603.946	32988.68
604.142	33633.79
604.338	32837.13
604.534	33369.6
604.73	32957.96
604.926	32683.53
605.122	32857.61
605.318	32622.09
605.514	32661.01
605.71	32398.87
605.906	32374.29
606.102	32527.89
606.298	32273.94
606.494	32206.36
606.69	32153.11
606.886	31991.32
607.082	31489.57
607.278	31831.58
607.474	31276.58
607.67	31458.85
607.866	31088.17
608.062	31538.72
608.257	31055.4
608.453	31434.27
608.649	31366.69
608.845	30961.19
609.041	30840.36
609.236	31157.8
609.432	30871.08
609.628	31002.15
609.824	30858.79
610.019	30604.85
610.215	30740.01
610.411	30580.27
610.606	30697
610.802	30610.99
610.998	30445.1
611.193	30178.87
611.389	30334.51
611.584	30154.29
611.78	29828.66
611.976	30256.69
612.171	30201.4
612.367	30213.68
612.562	29726.27
612.758	29756.99
612.953	29574.72
613.149	30023.22
613.344	29681.21
613.539	29763.13
613.735	29578.81
613.93	29709.88
614.126	29369.92
614.321	29787.71
614.517	29560.38
614.712	29132.36
614.907	29054.53
615.103	29548.09
615.298	29085.25
615.493	29732.41
615.688	28679.75
615.884	29423.17
616.079	28720.71
616.274	29068.87
616.47	29007.43
616.665	28722.76
616.86	28073.56
617.055	28661.32
617.25	28333.65
617.445	28591.69
617.641	28270.16
617.836	28380.75
618.031	27792.98
618.226	28091.99
618.421	28208.72
618.616	28091.99
618.811	27592.28
619.006	28173.91
619.201	27393.63
619.396	27913.81
619.591	27250.27
619.786	27350.62
619.981	27137.63
620.176	27600.47
620.371	26955.36
620.566	27041.38
620.761	26730.09
620.956	26930.79
621.151	26388.08
621.346	26480.24
621.541	26058.35
621.735	26703.46
621.93	26017.4
622.125	26052.21
622.32	25593.47
622.515	25724.54
622.709	25575.03
622.904	25773.69
623.099	25443.96
623.294	25519.74
623.488	24845.96
623.683	25095.81
623.878	24534.67
624.072	24678.02
624.267	25022.08
624.462	24450.7
624.656	24483.47
624.851	24262.29
625.046	23887.51
625.24	23969.43
625.435	23596.7
625.629	23750.29
625.824	23473.82
626.018	23602.84
626.213	22890.15
626.407	23226.01
626.602	23084.7
626.796	23068.32
626.991	22871.72
627.185	22582.95
627.38	22785.7
627.574	22378.15
627.768	22302.38
627.963	21995.18
628.157	21894.83
628.352	21642.93
628.546	21595.83
628.74	22089.39
628.935	21587.64
629.129	21806.77
629.323	21206.72
629.517	21456.57
629.712	21081.79
629.906	21489.34
630.1	20827.84
630.294	20766.4
630.489	20582.09
630.683	20864.71
630.877	20430.54
631.071	20479.69
631.265	20405.96
631.459	20076.24
631.653	19977.94
631.848	20117.2
632.042	19805.91
632.236	19805.91
632.43	19476.18
632.624	19558.1
632.818	19646.16
633.012	19338.97
633.206	19128.03
633.4	19351.26
633.594	18931.42
633.788	19091.16
633.982	18968.29
634.176	18908.9
634.369	18773.73
634.563	18728.67
634.757	18435.81
634.951	18517.73
635.145	18280.17
635.339	18325.22
635.533	17948.4
635.726	17970.93
635.92	17921.77
636.114	17913.58
636.308	17915.63
636.501	17768.18
636.695	17915.63
636.889	17229.56
637.083	17323.77
637.276	17356.54
637.47	17075.96
637.664	17200.89
637.857	17164.03
638.051	17037.05
638.244	16756.48
638.438	16897.79
638.632	16633.6
638.825	16523.01
639.019	16465.67
639.212	16326.41
639.406	16224.01
639.599	16262.92
639.793	16301.83
639.986	16051.98
640.18	15914.77
640.373	15863.57
640.567	15703.82
640.76	15787.79
640.954	15578.9
641.147	15580.95
641.34	15370.01
641.534	15195.93
641.727	15286.04
641.92	15222.55
642.114	15224.6
642.307	14837.53
642.5	14864.16
642.694	14528.29
642.887	14829.34
643.08	14952.22
643.273	14577.44
643.467	14679.84
643.66	14458.66
643.853	14337.83
644.046	14386.98
644.239	14473
644.432	14176.04
644.626	14053.16
644.819	14157.61
645.012	14151.46
645.205	13950.76
645.398	14110.5
645.591	13926.19
645.784	13680.43
645.977	13512.5
646.17	13610.8
646.363	13451.06
646.556	13367.09
646.749	13504.31
646.942	13342.52
647.135	13188.92
647.328	13076.28
647.521	13166.39
647.714	12865.34
647.907	12957.5
648.099	12943.16
648.292	12818.24
648.485	12771.13
648.678	12676.93
648.871	12455.75
649.064	12576.58
649.256	12392.26
649.449	12386.11
649.642	12312.39
649.835	12119.88
650.027	12048.2
650.22	12009.29
650.413	12111.69
650.605	12033.86
650.798	11910.99
650.991	11767.63
651.183	11827.02
651.376	11710.29
651.568	11888.46
651.761	11671.37
651.954	11618.13
652.146	11331.41
652.339	11700.05
652.531	11523.92
652.724	11249.49
652.916	11116.37
653.109	11325.27
653.301	11208.53
653.494	11151.19
653.686	11009.88
653.879	11140.95
654.071	10846.04
654.263	10870.62
654.456	10833.75
654.648	10872.67
654.84	10553.18
655.033	10665.82
655.225	10530.66
655.417	10487.65
655.61	10628.96
655.802	10409.83
655.994	10297.19
656.186	10485.6
656.379	10297.19
656.571	10237.8
656.763	10116.97
656.955	10080.1
657.148	10282.85
657.34	10026.85
657.532	9811.82
657.724	9996.14
657.916	9756.52
658.108	9924.46
658.3	9604.97
658.492	9840.49
658.684	9613.17
658.876	9531.25
659.068	9494.38
659.26	9537.39
659.452	9547.63
659.644	9535.34
659.836	9531.25
660.028	9592.69
660.22	9174.9
660.412	9150.32
660.604	8976.25
660.796	9271.15
660.988	9035.64
661.18	8836.99
661.372	8814.46
661.563	8951.67
661.755	8845.18
661.947	8990.58
662.139	8802.17
662.331	8763.26
662.522	8746.87
662.714	8617.85
662.906	8449.92
663.097	8703.87
663.289	8576.89
663.481	8619.9
663.673	8482.69
663.864	8324.99
664.056	8548.22
664.247	8253.31
664.439	8238.98
664.631	8404.86
664.822	8263.55
665.014	8202.11
665.205	8005.51
665.397	7958.41
665.588	8036.23
665.78	7933.83
665.971	7948.17
666.163	8085.38
666.354	7896.97
666.546	7735.18
666.737	7892.87
666.929	7974.79
667.12	7827.34
667.311	7901.06
667.503	7550.86
667.694	7559.05
667.885	7618.44
668.077	7622.54
668.268	7427.98
668.459	7624.59
668.651	7610.25
668.842	7376.78
669.033	7448.46
669.224	7247.76
669.416	7331.73
669.607	7290.77
669.798	7440.27
669.989	7288.72
670.18	7235.47
670.371	7294.86
670.563	7307.15
670.754	7151.51
670.945	7024.53
671.136	7088.02
671.327	7118.74
671.518	7128.98
671.709	7169.94
671.9	7147.41
672.091	7149.46
672.282	7067.54
672.473	7022.48
672.664	7104.4
672.855	6811.54
673.046	6809.5
673.237	6930.33
673.428	7002.01
673.619	6764.44
673.809	6825.88
674	6854.55
674.191	6805.4
674.382	6666.14
674.573	6743.96
674.764	6541.21
674.954	6844.31
675.145	6469.53
675.336	6731.67
675.527	6604.7
675.717	6508.44
675.908	6510.49
676.099	6526.88
676.289	6645.66
676.48	6635.42
676.671	6391.71
676.861	6516.64
677.052	6479.77
677.243	6313.89
677.433	6428.57
677.624	6397.85
677.814	6424.48
678.005	6549.4
678.195	6391.71
678.386	6266.78
678.576	6250.4
678.767	6219.68
678.957	6307.74
679.148	6436.77
679.338	6217.63
679.529	6363.04
679.719	6264.74
679.909	6248.35
680.1	6156.19
680.29	6287.26
680.481	6367.13
680.671	6322.08
680.861	6227.87
681.052	6313.89
681.242	6156.19
681.432	6215.59
681.622	6092.71
681.813	5932.97
682.003	5963.68
682.193	6021.03
682.383	6068.13
682.573	6094.76
682.764	6127.52
682.954	5975.97
683.144	6029.22
683.334	6041.51
683.524	5947.3
683.714	5920.68
683.904	5998.5
684.094	6004.64
684.284	5849
684.474	6023.08
684.664	5818.28
684.854	5777.32
685.044	5879.72
685.234	5789.61
685.424	5881.77
685.614	5947.3
685.804	5621.67
685.994	5636.01
686.184	5750.7
686.374	5787.56
686.564	5728.17
686.753	5855.14
686.943	5795.75
687.133	5644.2
687.323	5787.56
687.513	5713.83
687.702	5787.56
687.892	5498.8
688.082	5595.05
688.272	5543.85
688.461	5556.14
688.651	5484.46
688.841	5533.61
689.03	5511.08
689.22	5232.56
689.41	5283.76
689.599	5326.77
689.789	5359.53
689.979	5138.35
690.168	5320.62
690.358	5185.46
690.547	5083.06
690.737	5203.89
690.926	5146.55
691.116	4890.55
691.305	5248.94
691.495	5007.28
691.684	4863.93
691.874	4890.55
692.063	5052.34
692.252	4995
692.442	4999.09
692.631	4986.8
692.82	4915.12
693.01	4861.88
693.199	4888.5
693.388	4790.2
693.578	4868.02
693.767	4796.34
693.956	4698.04
694.146	4659.13
694.335	4558.78
694.524	4667.32
694.713	4691.9
694.902	4540.35
695.092	4804.53
695.281	4659.13
695.47	4612.03
695.659	4644.79
695.848	4523.96
696.037	4771.77
696.226	4599.74
696.415	4343.74
696.604	4523.96
696.793	4603.83
696.982	4351.93
697.171	4601.79
697.36	4433.85
697.549	4550.59
697.738	4499.39
697.927	4380.61
698.116	4495.29
698.305	4239.3
698.494	4335.55
698.683	4474.81
698.872	4468.67
699.061	4245.44
699.25	4468.67
699.438	4280.25
699.627	4331.45
699.816	4376.51
700.005	4136.9
700.193	4343.74
700.382	4298.69
700.571	4401.08
700.76	4206.53
700.948	4335.55
701.137	4290.49
701.326	4267.97
701.514	4272.06
701.703	4376.51
701.892	4122.56
702.08	4360.13
702.269	4186.05
702.457	4151.23
702.646	4427.71
702.834	4224.96
703.023	4313.02
703.212	4186.05
703.4	4175.81
703.589	4112.32
703.777	4282.3
703.965	4202.43
704.154	4253.63
704.342	4079.55
704.531	4153.28
704.719	4102.08
704.907	4126.66
705.096	3956.68
705.284	4120.51
705.472	4128.7
705.661	4261.82
705.849	4145.09
706.037	4085.7
706.226	4124.61
706.414	4108.23
706.602	4036.55
706.79	4179.9
706.979	4046.79
707.167	4065.22
707.355	4106.18
707.543	4046.79
707.731	4052.93
707.919	4136.9
708.107	4057.03
708.296	4018.11
708.484	4069.31
708.672	4081.6
708.86	3977.16
709.048	4020.16
709.236	4188.1
709.424	4009.92
709.612	4130.75
709.8	4118.47
709.988	4081.6
710.176	4091.84
710.364	4192.19
710.551	4083.65
710.739	4134.85
710.927	4028.35
711.115	4231.1
711.303	4034.5
711.491	4093.89
711.679	4069.31
711.866	4067.27
712.054	4224.96
712.242	4024.26
712.43	4159.42
712.617	3997.64
712.805	4126.66
712.993	4077.51
713.181	3876.8
713.368	4136.9
713.556	4116.42
713.744	4040.64
713.931	4181.95
714.119	4097.99
714.306	4108.23
714.494	3981.25
714.682	4046.79
714.869	3964.87
715.057	4077.51
715.244	3954.63
715.432	4171.71
715.619	4145.09
715.807	4104.13
715.994	4163.52
716.182	4140.99
716.369	4089.79
716.556	4143.04
716.744	4007.87
716.931	4036.55
717.119	4190.14
717.306	4061.12
717.493	4108.23
717.681	4073.41
717.868	4147.14
718.055	4050.88
718.242	4087.75
718.43	4138.94
718.617	4059.07
718.804	4075.46
718.991	4079.55
719.179	4067.27
719.366	4122.56
719.553	3956.68
719.74	4128.7
719.927	4093.89
720.114	4161.47
720.301	3950.53
720.488	4112.32
720.676	3905.48
720.863	4065.22
721.05	4278.21
721.237	4073.41
721.424	4104.13
721.611	4005.83
721.798	4048.83
721.985	4116.42
722.172	4140.99
722.358	3971.01
722.545	4073.41
722.732	4194.24
722.919	4026.31
723.106	4108.23
723.293	4040.64
723.48	4063.17
723.667	4227.01
723.853	4073.41
724.04	4130.75
724.227	4100.03
724.414	3981.25
724.6	4093.89
724.787	4155.33
724.974	4095.94
725.161	4089.79
725.347	4018.11
725.534	4179.9
725.72	4294.59
725.907	4118.47
726.094	4116.42
726.28	4167.62
726.467	4014.02
726.653	4065.22
726.84	4118.47
727.027	4171.71
727.213	4052.93
727.4	4143.04
727.586	4163.52
727.773	4241.34
727.959	4245.44
728.145	4118.47
728.332	4288.45
728.518	4020.16
728.705	4175.81
728.891	4237.25
729.077	4151.23
729.264	4040.64
729.45	4306.88
729.636	4212.67
729.823	4122.56
730.009	4265.92
730.195	4210.62
730.382	4313.02
730.568	4134.85
730.754	4241.34
730.94	4145.09
731.126	4302.78
731.313	4245.44
731.499	4284.35
731.685	4265.92
731.871	4149.18
732.057	4130.75
732.243	4192.19
732.429	4151.23
732.615	4284.35
732.801	4210.62
732.987	4325.31
733.173	4122.56
733.359	4349.89
733.545	4081.6
733.731	4296.64
733.917	4290.49
734.103	4362.17
734.289	4161.47
734.475	3954.63
734.661	4370.37
734.847	4257.73
735.033	4138.94
735.219	4030.4
735.404	4163.52
735.59	4184
735.776	4157.38
735.962	4192.19
736.148	4325.31
736.333	4272.06
736.519	4104.13
736.705	4202.43
736.89	4155.33
737.076	4239.3
737.262	4067.27
737.447	4040.64
737.633	4179.9
737.819	4079.55
738.004	4134.85
738.19	4181.95
738.375	4147.14
738.561	4188.1
738.747	4245.44
738.932	3962.82
739.118	4335.55
739.303	4067.27
739.489	4167.62
739.674	4059.07
739.859	4044.74
740.045	3999.68
740.23	4102.08
740.416	4044.74
740.601	4065.22
740.786	4009.92
740.972	4110.27
741.157	4011.97
741.342	3975.11
741.528	4042.69
741.713	4052.93
741.898	4026.31
742.084	3850.18
742.269	3956.68
742.454	3846.09
742.639	3887.04
742.824	3983.3
743.01	3882.95
743.195	3950.53
743.38	3956.68
743.565	3893.19
743.75	3858.37
743.935	3762.12
744.12	3960.77
744.305	3860.42
744.49	3942.34
744.675	3782.6
744.86	3968.96
745.045	3866.56
745.23	3717.06
745.415	3770.31
745.6	3809.22
745.785	3690.44
745.97	3690.44
746.155	3743.69
746.34	3643.34
746.525	3635.14
746.71	3747.78
746.895	3659.72
747.079	3594.19
747.264	3694.54
747.449	3583.95
747.634	3551.18
747.819	3485.64
748.003	3506.12
748.188	3442.64
748.373	3618.76
748.557	3569.61
748.742	3407.82
748.927	3399.63
749.111	3364.81
749.296	3395.53
749.481	3426.25
749.665	3368.91
749.85	3190.74
750.034	3330
750.219	3395.53
750.404	3332.05
750.588	3192.78
750.773	3164.11
750.957	3162.06
751.141	3250.13
751.326	3139.54
751.51	3125.2
751.695	3129.3
751.879	3047.38
752.064	3090.38
752.248	3016.66
752.432	3106.77
752.617	2996.18
752.801	3092.43
752.985	2914.26
753.17	3014.61
753.354	2920.4
753.538	2869.2
753.722	2879.44
753.907	2918.36
754.091	2820.05
754.275	2754.52
754.459	2881.49
754.643	2701.27
754.828	2705.37
755.012	2795.48
755.196	2785.24
755.38	2641.88
755.564	2631.64
755.748	2754.52
755.932	2641.88
756.116	2766.81
756.3	2713.56
756.484	2598.87
756.668	2607.06
756.852	2410.46
757.036	2639.83
757.22	2541.53
757.404	2541.53
757.588	2471.9
757.772	2523.1
757.956	2457.56
758.14	2443.23
758.323	2414.56
758.507	2504.67
758.691	2385.88
758.875	2482.14
759.059	2379.74
759.242	2443.23
759.426	2379.74
759.61	2252.77
759.794	2430.94
759.977	2340.83
760.161	2420.7
760.345	2377.69
760.528	2205.66
760.712	2281.44
760.895	2310.11
761.079	2346.97
761.263	2277.34
761.446	2209.76
761.63	2203.61
761.813	2156.51
761.997	2131.94
762.18	2099.17
762.364	2185.18
762.547	2058.21
762.731	2054.11
762.914	2127.84
763.098	2011.11
763.281	2033.63
763.464	2093.02
763.648	2191.33
763.831	2136.03
764.015	2060.26
764.198	1990.63
764.381	2056.16
764.564	2027.49
764.748	2074.59
764.931	1972.19
765.114	1968.1
765.297	2103.26
765.481	1984.48
765.664	1953.76
765.847	1873.89
766.03	1982.43
766.213	1966.05
766.397	1912.8
766.58	1873.89
766.763	1959.91
766.946	1918.95
767.129	1978.34
767.312	1900.52
767.495	1920.99
767.678	1757.16
767.861	1931.23
768.044	1847.27
768.227	1849.32
768.41	1761.25
768.593	1771.49
768.776	1824.74
768.959	1771.49
769.142	1904.61
769.324	1703.91
769.507	1732.58
769.69	1742.82
769.873	1828.84
770.056	1855.46
770.239	1814.5
770.421	1738.73
770.604	1683.43
770.787	1728.49
770.97	1615.85
771.152	1615.85
771.335	1677.29
771.518	1765.35
771.7	1724.39
771.883	1593.32
772.066	1652.71
772.248	1667.05
772.431	1667.05
772.613	1521.64
772.796	1585.13
772.978	1595.37
773.161	1654.76
773.343	1593.32
773.526	1497.07
773.708	1495.02
773.891	1607.66
774.073	1542.12
774.256	1458.15
774.438	1525.74
774.621	1574.89
774.803	1533.93
774.985	1468.39
775.168	1503.21
775.35	1507.31
775.532	1452.01
775.715	1484.78
775.897	1363.95
776.079	1415.15
776.261	1417.19
776.444	1409
776.626	1419.24
776.808	1382.38
776.99	1347.56
777.173	1427.43
777.355	1290.22
777.537	1269.74
777.719	1439.72
777.901	1325.04
778.083	1302.51
778.265	1239.02
778.447	1304.56
778.629	1236.97
778.811	1275.88
778.993	1261.55
779.175	1253.36
779.357	1185.77
779.539	1251.31
779.721	1157.1
779.903	1208.3
780.085	1193.97
780.267	1357.8
780.449	1206.25
780.631	1200.11
780.812	1187.82
780.994	1177.58
781.176	1155.05
781.358	1132.53
781.54	1132.53
781.721	1140.72
781.903	1081.33
782.085	1060.85
782.267	1048.56
782.448	1017.84
782.63	993.26
782.812	1058.8
782.993	1001.46
783.175	1173.49
783.357	991.22
783.538	1030.13
783.72	1050.61
783.901	960.5
784.083	942.07
784.264	905.2
784.446	937.97
784.627	919.54
784.809	974.83
784.99	913.39
785.172	1034.22
785.353	880.63
785.535	958.45
785.716	952.31
785.897	901.11
786.079	907.25
786.26	905.2
786.441	839.67
786.623	845.81
786.804	866.29
786.985	823.28
787.167	856.05
787.348	800.76
787.529	854
787.71	860.15
787.891	894.96
788.073	759.8
788.254	811
788.435	815.09
788.616	813.04
788.797	677.88
788.978	741.36
789.159	681.97
789.34	792.56
789.522	821.24
789.703	765.94
789.884	763.89
790.065	706.55
790.246	704.5
790.427	679.93
790.607	688.12
790.788	735.22
790.969	688.12
791.15	585.72
791.331	608.25
791.512	600.05
791.693	591.86
791.874	665.59
792.054	735.22
792.235	724.98
792.416	669.69
792.597	604.15
792.778	636.92
792.958	747.51
793.139	653.3
793.32	598.01
793.5	632.82
793.681	757.75
793.862	626.68
794.042	575.48
794.223	509.94
794.404	665.59
794.584	528.38
794.765	579.58
794.945	561.14
795.126	634.87
795.306	600.05
795.487	509.94
795.667	565.24
795.848	679.93
796.028	544.76
796.209	542.71
796.389	598.01
796.57	573.43
796.75	475.13
796.93	563.19
797.111	616.44
797.291	483.32
797.471	561.14
797.652	483.32
797.832	524.28
798.012	518.14
798.192	452.6
798.373	493.56
798.553	524.28
798.733	514.04
798.913	493.56
799.093	530.42
799.274	487.42
799.454	522.23
799.634	593.91
799.814	532.47
799.994	569.34
800.174	509.94
800.354	557.05
800.534	489.46
800.714	559.1
800.894	473.08
801.074	430.07
801.254	405.5
801.434	501.75
801.614	458.75
801.794	407.55
801.974	1130.48
802.154	376.83
802.334	493.56
802.514	464.89
802.693	399.35
802.873	395.26
803.053	466.94
803.233	413.69
803.413	428.03
803.592	399.35
803.772	462.84
803.952	382.97
804.131	352.25
804.311	481.27
804.491	391.16
804.67	346.11
804.85	391.16
805.03	460.79
805.209	391.16
805.389	419.83
805.568	350.2
805.748	352.25
805.928	391.16
806.107	397.31
806.287	397.31
806.466	430.07
806.646	278.52
806.825	370.68
807.004	389.11
807.184	307.2
807.363	417.79
807.543	366.59
807.722	354.3
807.901	356.35
808.081	362.49
808.26	358.39
808.439	303.1
808.619	339.96
808.798	335.87
808.977	313.34
809.156	358.39
809.336	356.35
809.515	333.82
809.694	313.34
809.873	317.44
810.052	309.24
810.231	370.68
810.411	399.35
810.59	344.06
810.769	358.39
810.948	350.2
811.127	219.13
811.306	311.29
811.485	249.85
811.664	335.87
811.843	372.73
812.022	374.78
812.201	241.66
812.38	274.43
812.559	253.95
812.737	313.34
812.916	290.81
813.095	337.91
813.274	317.44
813.453	286.72
813.632	333.82
813.811	311.29
813.989	215.04
814.168	219.13
814.347	256
814.526	305.15
814.704	278.52
814.883	253.95
815.062	274.43
815.24	223.23
815.419	219.13
815.598	323.58
815.776	311.29
815.955	251.9
816.133	190.46
816.312	288.76
816.49	253.95
816.669	258.04
816.847	237.56
817.026	243.71
817.204	282.62
817.383	264.19
817.561	272.38
817.74	253.95
817.918	292.86
818.097	202.75
818.275	223.23
818.453	219.13
818.632	219.13
818.81	276.48
818.988	331.77
819.167	208.89
819.345	198.65
819.523	194.56
819.701	200.7
819.879	296.96
820.058	190.46
820.236	225.28
820.414	178.17
820.592	219.13
820.77	260.09
820.948	237.56
821.127	145.41
821.305	243.71
821.483	208.89
821.661	245.76
821.839	264.19
822.017	163.84
822.195	200.7
822.373	137.21
822.551	184.32
822.729	249.85
822.907	92.16
823.085	155.65
823.262	262.14
823.44	219.13
823.618	202.75
823.796	124.93
823.974	243.71
824.152	161.79
824.329	245.76
824.507	229.37
824.685	204.8
824.863	194.56
825.04	157.69
825.218	233.47
825.396	122.88
825.574	147.45
825.751	204.8
825.929	219.13
826.107	139.26
826.284	198.65
826.462	208.89
826.639	198.65
826.817	106.49
826.994	208.89
827.172	126.97
827.349	258.04
827.527	139.26
827.704	245.76
827.882	165.89
828.059	210.94
828.237	155.65
828.414	200.7
828.591	135.17
828.769	155.65
828.946	100.35
829.124	131.07
829.301	149.5
829.478	176.13
829.655	116.73
829.833	153.6
830.01	122.88
830.187	174.08
830.364	100.35
830.542	139.26
830.719	180.22
830.896	194.56
831.073	135.17
831.25	237.56
831.427	192.51
831.604	143.36
831.782	73.73
831.959	145.41
832.136	126.97
832.313	53.25
832.49	120.83
832.667	256
832.844	178.17
833.021	155.65
833.198	137.21
833.374	151.55
833.551	118.78
833.728	126.97
833.905	212.99
834.082	73.73
834.259	176.13
834.436	212.99
834.612	36.86
834.789	153.6
834.966	88.06
835.143	102.4
835.319	32.77
835.496	126.97
835.673	90.11
835.85	139.26
836.026	159.74
836.203	139.26
836.38	163.84
836.556	137.21
836.733	61.44
836.909	122.88
837.086	120.83
837.262	110.59
837.439	126.97
837.616	81.92
837.792	90.11
837.968	83.97
838.145	59.39
838.321	86.01
838.498	133.12
838.674	149.5
838.851	100.35
839.027	36.86
839.203	104.45
839.38	40.96
839.556	45.06
839.732	90.11
839.909	129.02
840.085	139.26
840.261	45.06
840.437	110.59
840.614	45.06
840.79	122.88
840.966	110.59
841.142	110.59
841.318	14.34
841.494	98.3
841.671	75.77
841.847	57.34
842.023	24.58
842.199	114.69
842.375	112.64
842.551	102.4
842.727	30.72
842.903	63.49
843.079	57.34
843.255	53.25
843.431	67.58
843.607	131.07
843.783	24.58
843.959	114.69
844.134	118.78
844.31	149.5
844.486	118.78
844.662	155.65
844.838	106.49
845.013	55.3
845.189	143.36
845.365	51.2
845.541	139.26
845.716	53.25
845.892	102.4
846.068	100.35
846.244	63.49
846.419	43.01
846.595	22.53
846.77	40.96
846.946	90.11
847.122	98.3
847.297	65.54
847.473	116.73
847.648	59.39
847.824	43.01
847.999	61.44
848.175	47.1
848.35	65.54
848.526	122.88
848.701	135.17
848.876	77.82
849.052	223.23
849.227	149.5
849.403	-51.2
849.578	49.15
849.753	34.82
849.929	69.63
850.104	90.11
850.279	34.82
850.454	-12.29
850.63	57.34
850.805	-49.15
850.98	129.02
851.155	-30.72
851.33	79.87
851.505	83.97
851.681	147.45
851.856	38.91
852.031	61.44
852.206	81.92
852.381	6.14
852.556	28.67
852.731	102.4
852.906	-8.19
853.081	75.77
853.256	77.82
853.431	81.92
853.606	28.67
853.781	71.68
853.956	55.3
854.131	96.25
854.305	12.29
854.48	36.86
854.655	47.1
854.83	79.87
855.005	-6.14
855.18	122.88
855.354	90.11
855.529	40.96
855.704	98.3
855.879	14.34
856.053	81.92
856.228	75.77
856.403	4.1
856.577	2.05
856.752	94.21
856.926	51.2
857.101	28.67
857.276	59.39
857.45	71.68
857.625	36.86
857.799	40.96
857.974	34.82
858.148	-16.38
858.323	81.92
858.497	53.25
858.672	65.54
858.846	4.1
859.02	133.12
859.195	6.14
859.369	12.29
859.543	71.68
859.718	45.06
859.892	-34.82
860.066	79.87
860.241	30.72
860.415	63.49
860.589	30.72
860.763	30.72
860.938	43.01
861.112	112.64
861.286	20.48
861.46	22.53
861.634	-6.14
861.808	51.2
861.982	28.67
862.157	22.53
862.331	28.67
862.505	-38.91
862.679	-10.24
862.853	120.83
863.027	79.87
863.201	163.84
863.375	24.58
863.549	49.15
863.722	51.2
863.896	75.77
864.07	-49.15
864.244	0
864.418	88.06
864.592	-2.05
864.766	-14.34
864.939	26.62
865.113	4.1
865.287	71.68
865.461	-18.43
865.634	45.06
865.808	8.19
865.982	0
866.156	-6.14
866.329	-6.14
866.503	47.1
866.676	4.1
866.85	8.19
867.024	-30.72
867.197	30.72
867.371	108.54
867.544	36.86
867.718	-40.96
867.891	112.64
868.065	-83.97
868.238	34.82
868.412	-28.67
868.585	34.82
868.759	-53.25
868.932	36.86
869.105	-10.24
869.279	22.53
869.452	-2.05
869.625	81.92
869.799	-10.24
869.972	-47.1
870.145	-14.34
870.319	92.16
870.492	-14.34
870.665	10.24
870.838	-40.96
871.011	6.14
871.185	-32.77
871.358	-55.3
871.531	71.68
871.704	4.1
871.877	8.19
872.05	-14.34
872.223	-10.24
872.396	24.58
872.569	137.21
872.742	16.38
872.915	38.91
873.088	67.58
873.261	4.1
873.434	55.3
873.607	67.58
873.78	165.89
873.953	12.29
874.126	34.82
874.299	16.38
874.471	-22.53
874.644	-51.2
874.817	24.58
874.99	92.16
875.163	6.14
875.335	32.77
875.508	-43.01
875.681	2.05
875.853	-30.72
876.026	16.38
876.199	-51.2
876.371	-12.29
876.544	-53.25
876.717	-4.1
876.889	-45.06
877.062	40.96
877.234	-10.24
877.407	18.43
877.579	30.72
877.752	43.01
877.924	51.2
878.097	4.1
878.269	12.29
878.442	38.91
878.614	-20.48
878.786	55.3
878.959	6.14
879.131	-8.19
879.303	-34.82
879.476	30.72
879.648	-14.34
879.82	90.11
879.993	-30.72
880.165	-30.72
880.337	57.34
880.509	-2.05
880.681	-2.05
880.854	-34.82
881.026	57.34
881.198	110.59
881.37	-53.25
881.542	-26.62
881.714	14.34
881.886	12.29
882.058	-47.1
882.23	73.73
882.402	-24.58
882.574	77.82
882.746	36.86
882.918	77.82
883.09	34.82
883.262	45.06
883.434	28.67
883.606	-61.44
883.778	-18.43
883.95	122.88
884.122	55.3
884.293	45.06
884.465	-4.1
884.637	28.67
884.809	-20.48
884.98	92.16
885.152	92.16
885.324	2.05
885.496	49.15
885.667	-16.38
885.839	16.38
886.011	51.2
886.182	-32.77
886.354	67.58
886.525	22.53
886.697	53.25
886.869	-45.06
887.04	-32.77
887.212	-43.01
887.383	45.06
887.555	24.58
887.726	-22.53
887.897	18.43
888.069	38.91
888.24	75.77
888.412	22.53
888.583	-16.38
888.754	-22.53
888.926	-16.38
889.097	61.44
889.268	-16.38
889.44	122.88
889.611	34.82
889.782	-8.19
889.953	20.48
890.125	73.73
890.296	-38.91
890.467	-24.58
890.638	-63.49
890.809	-28.67
890.98	14.34
891.151	77.82
891.323	-8.19
891.494	-30.72
891.665	6.14
891.836	-67.58
892.007	20.48
892.178	90.11
892.349	32.77
892.52	-30.72
892.691	12.29
892.862	67.58
893.032	-22.53
893.203	-18.43
893.374	24.58
893.545	96.25
893.716	-51.2
893.887	69.63
894.057	14.34
894.228	-47.1
894.399	16.38
894.57	47.1
894.74	-18.43
894.911	-28.67
895.082	-24.58
895.253	18.43
895.423	-2.05
895.594	20.48
895.764	-8.19
895.935	26.62
896.106	24.58
896.276	-26.62
896.447	2.05
896.617	-63.49
896.788	-45.06
896.958	2.05
897.129	-32.77
897.299	-63.49
897.47	53.25
897.64	-12.29
897.81	-40.96
897.981	-61.44
898.151	32.77
898.322	18.43
898.492	-10.24
898.662	-45.06
898.832	-20.48
899.003	8.19
899.173	63.49
899.343	-4.1
899.513	-75.77
