Data from USB4F104151__3__12-23-16-675.txt Node

Date: Fri Mar 14 12:23:16 EDT 2025
User: louis
Spectrometer: USB4F10415
Trigger mode: 4
Integration Time (sec): 3.500000E-2
Scans to average: 1
Electric dark correction enabled: true
Nonlinearity correction enabled: false
Boxcar width: 0
XAxis mode: Wavelengths
Number of Pixels in Spectrum: 3648
>>>>>Begin Spectral Data<<<<<
178.204	-182.95
178.424	-182.95
178.644	-182.95
178.864	-141.99
179.084	-92.84
179.304	-10.92
179.524	25.94
179.744	-6.83
179.964	60.76
180.184	64.85
180.404	1.37
180.624	-45.74
180.844	-17.07
181.064	-66.22
181.283	9.56
181.503	-31.4
181.723	15.7
181.943	-51.88
182.163	58.71
182.383	27.99
182.602	34.13
182.822	101.72
183.042	83.28
183.262	-4.78
183.482	-8.87
183.701	-2.73
183.921	46.42
184.141	-21.16
184.361	58.71
184.58	81.24
184.8	71
185.02	5.46
185.239	42.32
185.459	-6.83
185.679	5.46
185.898	-33.45
186.118	130.39
186.338	30.04
186.557	73.04
186.777	48.47
186.997	75.09
187.216	15.7
187.436	91.48
187.655	68.95
187.875	42.32
188.095	75.09
188.314	-37.55
188.534	36.18
188.753	-2.73
188.973	32.08
189.192	144.72
189.412	60.76
189.631	-23.21
189.851	38.23
190.07	64.85
190.29	-35.5
190.509	-15.02
190.729	91.48
190.948	11.61
191.168	148.82
191.387	62.8
191.607	-43.69
191.826	-19.11
192.045	-2.73
192.265	5.46
192.484	52.56
192.704	48.47
192.923	62.8
193.142	124.24
193.362	21.85
193.581	19.8
193.8	-4.78
194.02	52.56
194.239	23.89
194.458	75.09
194.678	11.61
194.897	13.65
195.116	17.75
195.335	-6.83
195.555	99.67
195.774	17.75
195.993	118.1
196.212	25.94
196.432	60.76
196.651	-8.87
196.87	50.52
197.089	71
197.308	13.65
197.528	62.8
197.747	40.28
197.966	-10.92
198.185	93.52
198.404	1.37
198.623	99.67
198.842	-31.4
199.062	40.28
199.281	103.76
199.5	83.28
199.719	71
199.938	36.18
200.157	83.28
200.376	13.65
200.595	-8.87
200.814	62.8
201.033	27.99
201.252	50.52
201.471	68.95
201.69	58.71
201.909	27.99
202.128	19.8
202.347	83.28
202.566	-8.87
202.785	52.56
203.004	89.43
203.223	165.2
203.442	-6.83
203.661	56.66
203.879	30.04
204.098	17.75
204.317	19.8
204.536	34.13
204.755	25.94
204.974	64.85
205.193	120.15
205.411	144.72
205.63	62.8
205.849	13.65
206.068	79.19
206.287	85.33
206.505	120.15
206.724	79.19
206.943	-0.68
207.162	48.47
207.381	107.86
207.599	19.8
207.818	79.19
208.037	17.75
208.255	30.04
208.474	93.52
208.693	27.99
208.911	34.13
209.13	54.61
209.349	27.99
209.567	42.32
209.786	9.56
210.005	91.48
210.223	52.56
210.442	-37.55
210.661	66.9
210.879	11.61
211.098	21.85
211.316	21.85
211.535	48.47
211.753	38.23
211.972	77.14
212.191	38.23
212.409	-19.11
212.628	27.99
212.846	-23.21
213.065	101.72
213.283	52.56
213.502	3.41
213.72	48.47
213.938	-49.83
214.157	21.85
214.375	32.08
214.594	30.04
214.812	21.85
215.031	99.67
215.249	54.61
215.467	17.75
215.686	-43.69
215.904	25.94
216.122	-19.11
216.341	99.67
216.559	25.94
216.778	38.23
216.996	77.14
217.214	23.89
217.432	50.52
217.651	9.56
217.869	32.08
218.087	68.95
218.306	15.7
218.524	79.19
218.742	46.42
218.96	77.14
219.179	44.37
219.397	42.32
219.615	111.96
219.833	109.91
220.051	3.41
220.27	60.76
220.488	44.37
220.706	-60.07
220.924	3.41
221.142	79.19
221.36	66.9
221.578	-10.92
221.796	-25.26
222.015	56.66
222.233	3.41
222.451	46.42
222.669	34.13
222.887	58.71
223.105	-6.83
223.323	101.72
223.541	21.85
223.759	32.08
223.977	11.61
224.195	140.63
224.413	21.85
224.631	140.63
224.849	54.61
225.067	118.1
225.285	7.51
225.503	3.41
225.721	-51.88
225.939	13.65
226.157	56.66
226.375	148.82
226.592	-2.73
226.81	5.46
227.028	40.28
227.246	105.81
227.464	83.28
227.682	40.28
227.9	11.61
228.117	-6.83
228.335	54.61
228.553	50.52
228.771	48.47
228.989	7.51
229.206	25.94
229.424	62.8
229.642	-8.87
229.86	27.99
230.077	7.51
230.295	83.28
230.513	95.57
230.731	36.18
230.948	66.9
231.166	83.28
231.384	91.48
231.601	19.8
231.819	64.85
232.037	13.65
232.254	-0.68
232.472	-49.83
232.689	101.72
232.907	40.28
233.125	56.66
233.342	83.28
233.56	-25.26
233.777	40.28
233.995	42.32
234.213	89.43
234.43	95.57
234.648	40.28
234.865	-6.83
235.083	-10.92
235.3	54.61
235.518	40.28
235.735	32.08
235.953	64.85
236.17	46.42
236.388	75.09
236.605	-10.92
236.822	146.77
237.04	111.96
237.257	62.8
237.475	-62.12
237.692	19.8
237.909	15.7
238.127	-45.74
238.344	-2.73
238.562	134.48
238.779	-41.64
238.996	19.8
239.214	-37.55
239.431	89.43
239.648	40.28
239.865	71
240.083	87.38
240.3	60.76
240.517	15.7
240.735	34.13
240.952	15.7
241.169	23.89
241.386	-6.83
241.603	11.61
241.821	11.61
242.038	83.28
242.255	38.23
242.472	19.8
242.689	19.8
242.907	27.99
243.124	44.37
243.341	23.89
243.558	-27.31
243.775	13.65
243.992	-4.78
244.209	60.76
244.426	81.24
244.643	46.42
244.86	122.2
245.078	87.38
245.295	64.85
245.512	50.52
245.729	-0.68
245.946	60.76
246.163	101.72
246.38	36.18
246.597	-12.97
246.814	9.56
247.031	23.89
247.248	23.89
247.464	60.76
247.681	77.14
247.898	-41.64
248.115	62.8
248.332	101.72
248.549	40.28
248.766	140.63
248.983	50.52
249.2	91.48
249.417	97.62
249.633	-6.83
249.85	-25.26
250.067	23.89
250.284	25.94
250.501	120.15
250.717	75.09
250.934	17.75
251.151	25.94
251.368	-12.97
251.585	27.99
251.801	15.7
252.018	-8.87
252.235	95.57
252.451	105.81
252.668	9.56
252.885	89.43
253.102	91.48
253.318	42.32
253.535	64.85
253.752	9.56
253.968	19.8
254.185	3.41
254.401	124.24
254.618	-10.92
254.835	-19.11
255.051	116.05
255.268	66.9
255.484	77.14
255.701	-6.83
255.917	58.71
256.134	-0.68
256.351	5.46
256.567	91.48
256.784	58.71
257	25.94
257.217	58.71
257.433	-0.68
257.65	120.15
257.866	68.95
258.082	46.42
258.299	-6.83
258.515	-15.02
258.732	54.61
258.948	-35.5
259.165	36.18
259.381	-6.83
259.597	36.18
259.814	-8.87
260.03	68.95
260.246	13.65
260.463	-12.97
260.679	62.8
260.895	-2.73
261.112	60.76
261.328	5.46
261.544	62.8
261.761	118.1
261.977	48.47
262.193	-0.68
262.409	42.32
262.626	85.33
262.842	7.51
263.058	19.8
263.274	81.24
263.49	5.46
263.707	-21.16
263.923	48.47
264.139	-27.31
264.355	46.42
264.571	58.71
264.787	11.61
265.004	89.43
265.22	56.66
265.436	23.89
265.652	-37.55
265.868	36.18
266.084	-27.31
266.3	-21.16
266.516	-39.59
266.732	3.41
266.948	34.13
267.164	-47.79
267.38	30.04
267.596	134.48
267.812	44.37
268.028	42.32
268.244	103.76
268.46	48.47
268.676	71
268.892	52.56
269.108	50.52
269.324	54.61
269.54	60.76
269.756	81.24
269.972	-10.92
270.188	32.08
270.403	9.56
270.619	79.19
270.835	42.32
271.051	-0.68
271.267	-19.11
271.483	15.7
271.698	30.04
271.914	77.14
272.13	13.65
272.346	58.71
272.562	44.37
272.777	89.43
272.993	5.46
273.209	27.99
273.425	56.66
273.64	15.7
273.856	-2.73
274.072	-43.69
274.287	42.32
274.503	89.43
274.719	9.56
274.934	19.8
275.15	7.51
275.366	38.23
275.581	30.04
275.797	34.13
276.012	-25.26
276.228	32.08
276.444	-8.87
276.659	36.18
276.875	-64.17
277.09	15.7
277.306	-19.11
277.521	60.76
277.737	-12.97
277.952	66.9
278.168	87.38
278.383	34.13
278.599	-19.11
278.814	-12.97
279.03	25.94
279.245	48.47
279.461	44.37
279.676	3.41
279.892	50.52
280.107	23.89
280.322	40.28
280.538	68.95
280.753	-19.11
280.969	87.38
281.184	46.42
281.399	52.56
281.615	9.56
281.83	46.42
282.045	-33.45
282.26	1.37
282.476	17.75
282.691	36.18
282.906	40.28
283.122	44.37
283.337	-12.97
283.552	91.48
283.767	13.65
283.983	32.08
284.198	-2.73
284.413	56.66
284.628	-23.21
284.843	52.56
285.058	36.18
285.274	46.42
285.489	52.56
285.704	27.99
285.919	15.7
286.134	50.52
286.349	19.8
286.564	-6.83
286.779	107.86
286.995	-0.68
287.21	77.14
287.425	19.8
287.64	-8.87
287.855	60.76
288.07	48.47
288.285	25.94
288.5	1.37
288.715	99.67
288.93	73.04
289.145	68.95
289.36	58.71
289.575	62.8
289.79	111.96
290.004	30.04
290.219	62.8
290.434	66.9
290.649	-23.21
290.864	-74.41
291.079	19.8
291.294	-27.31
291.509	79.19
291.724	21.85
291.938	34.13
292.153	60.76
292.368	-25.26
292.583	38.23
292.798	60.76
293.012	-60.07
293.227	5.46
293.442	79.19
293.657	17.75
293.871	165.2
294.086	13.65
294.301	83.28
294.516	54.61
294.73	-43.69
294.945	-25.26
295.16	13.65
295.374	44.37
295.589	21.85
295.804	40.28
296.018	52.56
296.233	15.7
296.447	40.28
296.662	64.85
296.877	58.71
297.091	60.76
297.306	140.63
297.52	54.61
297.735	7.51
297.949	27.99
298.164	95.57
298.378	-41.64
298.593	-37.55
298.807	-25.26
299.022	73.04
299.236	60.76
299.451	-17.07
299.665	1.37
299.88	38.23
300.094	95.57
300.309	56.66
300.523	93.52
300.737	30.04
300.952	23.89
301.166	56.66
301.381	73.04
301.595	23.89
301.809	32.08
302.024	114
302.238	15.7
302.452	83.28
302.667	89.43
302.881	62.8
303.095	42.32
303.309	21.85
303.524	-21.16
303.738	7.51
303.952	44.37
304.166	9.56
304.381	-39.59
304.595	103.76
304.809	-4.78
305.023	103.76
305.237	34.13
305.452	36.18
305.666	36.18
305.88	60.76
306.094	120.15
306.308	1.37
306.522	60.76
306.736	66.9
306.95	-29.35
307.164	64.85
307.379	-4.78
307.593	15.7
307.807	19.8
308.021	13.65
308.235	44.37
308.449	-49.83
308.663	25.94
308.877	36.18
309.091	21.85
309.305	46.42
309.519	-51.88
309.733	105.81
309.947	56.66
310.161	58.71
310.374	83.28
310.588	122.2
310.802	-29.35
311.016	15.7
311.23	-10.92
311.444	-62.12
311.658	-41.64
311.872	85.33
312.085	17.75
312.299	87.38
312.513	152.91
312.727	66.9
312.941	30.04
313.154	79.19
313.368	32.08
313.582	25.94
313.796	116.05
314.009	52.56
314.223	130.39
314.437	68.95
314.651	27.99
314.864	42.32
315.078	75.09
315.292	34.13
315.505	56.66
315.719	81.24
315.933	40.28
316.146	36.18
316.36	-10.92
316.573	64.85
316.787	19.8
317.001	1.37
317.214	-62.12
317.428	52.56
317.641	1.37
317.855	17.75
318.068	27.99
318.282	1.37
318.495	62.8
318.709	-4.78
318.922	34.13
319.136	89.43
319.349	11.61
319.563	-23.21
319.776	23.89
319.99	-33.45
320.203	44.37
320.417	42.32
320.63	109.91
320.843	83.28
321.057	111.96
321.27	34.13
321.483	83.28
321.697	19.8
321.91	71
322.124	3.41
322.337	34.13
322.55	13.65
322.763	-10.92
322.977	66.9
323.19	38.23
323.403	40.28
323.617	34.13
323.83	81.24
324.043	40.28
324.256	34.13
324.469	-4.78
324.683	85.33
324.896	91.48
325.109	34.13
325.322	-19.11
325.535	66.9
325.748	109.91
325.962	15.7
326.175	56.66
326.388	128.34
326.601	52.56
326.814	13.65
327.027	85.33
327.24	95.57
327.453	-0.68
327.666	124.24
327.879	54.61
328.092	60.76
328.305	36.18
328.518	122.2
328.731	50.52
328.944	60.76
329.157	13.65
329.37	7.51
329.583	68.95
329.796	62.8
330.009	-27.31
330.222	9.56
330.435	77.14
330.648	120.15
330.861	50.52
331.073	46.42
331.286	54.61
331.499	105.81
331.712	44.37
331.925	27.99
332.138	40.28
332.35	73.04
332.563	-37.55
332.776	93.52
332.989	19.8
333.202	-25.26
333.414	64.85
333.627	40.28
333.84	1.37
334.053	-10.92
334.265	17.75
334.478	21.85
334.691	54.61
334.903	7.51
335.116	15.7
335.329	44.37
335.541	48.47
335.754	36.18
335.966	27.99
336.179	23.89
336.392	-2.73
336.604	36.18
336.817	75.09
337.029	9.56
337.242	-31.4
337.454	105.81
337.667	-37.55
337.88	77.14
338.092	-12.97
338.305	60.76
338.517	21.85
338.729	60.76
338.942	91.48
339.154	-25.26
339.367	71
339.579	66.9
339.792	17.75
340.004	109.91
340.217	23.89
340.429	50.52
340.641	15.7
340.854	23.89
341.066	64.85
341.278	114
341.491	64.85
341.703	42.32
341.915	36.18
342.128	52.56
342.34	1.37
342.552	40.28
342.764	19.8
342.977	3.41
343.189	79.19
343.401	-10.92
343.613	-0.68
343.826	-6.83
344.038	21.85
344.25	95.57
344.462	-17.07
344.674	56.66
344.886	17.75
345.099	34.13
345.311	-15.02
345.523	11.61
345.735	11.61
345.947	68.95
346.159	68.95
346.371	60.76
346.583	42.32
346.795	189.78
347.007	-74.41
347.219	60.76
347.431	42.32
347.643	60.76
347.855	11.61
348.067	-2.73
348.279	-33.45
348.491	-8.87
348.703	21.85
348.915	62.8
349.127	19.8
349.339	50.52
349.551	68.95
349.763	73.04
349.975	73.04
350.187	71
350.399	93.52
350.61	-17.07
350.822	-27.31
351.034	25.94
351.246	-10.92
351.458	52.56
351.669	58.71
351.881	44.37
352.093	73.04
352.305	93.52
352.517	71
352.728	62.8
352.94	64.85
353.152	66.9
353.363	-0.68
353.575	40.28
353.787	62.8
353.999	-23.21
354.21	128.34
354.422	9.56
354.633	32.08
354.845	17.75
355.057	-15.02
355.268	71
355.48	21.85
355.692	134.48
355.903	42.32
356.115	25.94
356.326	62.8
356.538	36.18
356.749	101.72
356.961	97.62
357.172	27.99
357.384	52.56
357.595	40.28
357.807	68.95
358.018	144.72
358.23	-27.31
358.441	32.08
358.653	93.52
358.864	44.37
359.075	7.51
359.287	66.9
359.498	42.32
359.709	36.18
359.921	36.18
360.132	52.56
360.344	58.71
360.555	3.41
360.766	42.32
360.977	9.56
361.189	97.62
361.4	-10.92
361.611	36.18
361.823	122.2
362.034	1.37
362.245	9.56
362.456	44.37
362.667	111.96
362.879	-29.35
363.09	87.38
363.301	-6.83
363.512	23.89
363.723	58.71
363.935	1.37
364.146	79.19
364.357	52.56
364.568	13.65
364.779	30.04
364.99	107.86
365.201	44.37
365.412	42.32
365.623	89.43
365.834	40.28
366.045	91.48
366.256	40.28
366.467	25.94
366.678	77.14
366.889	48.47
367.1	11.61
367.311	23.89
367.522	-6.83
367.733	66.9
367.944	58.71
368.155	54.61
368.366	109.91
368.577	103.76
368.788	50.52
368.999	32.08
369.209	68.95
369.42	83.28
369.631	111.96
369.842	79.19
370.053	-15.02
370.264	89.43
370.474	-6.83
370.685	101.72
370.896	9.56
371.107	148.82
371.317	77.14
371.528	23.89
371.739	75.09
371.95	21.85
372.16	25.94
372.371	34.13
372.582	27.99
372.792	83.28
373.003	93.52
373.214	17.75
373.424	52.56
373.635	-31.4
373.846	60.76
374.056	15.7
374.267	36.18
374.477	3.41
374.688	42.32
374.898	83.28
375.109	9.56
375.319	19.8
375.53	116.05
375.74	83.28
375.951	93.52
376.161	58.71
376.372	101.72
376.582	21.85
376.793	77.14
377.003	19.8
377.214	34.13
377.424	42.32
377.635	5.46
377.845	-45.74
378.055	52.56
378.266	95.57
378.476	60.76
378.686	44.37
378.897	13.65
379.107	-37.55
379.317	17.75
379.528	5.46
379.738	66.9
379.948	27.99
380.158	19.8
380.369	25.94
380.579	9.56
380.789	-37.55
380.999	116.05
381.21	87.38
381.42	60.76
381.63	75.09
381.84	-12.97
382.05	38.23
382.261	56.66
382.471	73.04
382.681	1.37
382.891	42.32
383.101	7.51
383.311	30.04
383.521	50.52
383.731	42.32
383.941	73.04
384.151	46.42
384.361	-21.16
384.571	38.23
384.781	75.09
384.991	103.76
385.201	150.87
385.411	95.57
385.621	85.33
385.831	56.66
386.041	36.18
386.251	3.41
386.461	68.95
386.671	-0.68
386.881	79.19
387.091	111.96
387.301	50.52
387.511	-4.78
387.72	50.52
387.93	95.57
388.14	13.65
388.35	30.04
388.56	99.67
388.769	105.81
388.979	75.09
389.189	-33.45
389.399	15.7
389.609	93.52
389.818	15.7
390.028	40.28
390.238	66.9
390.447	122.2
390.657	103.76
390.867	46.42
391.076	68.95
391.286	-0.68
391.496	93.52
391.705	25.94
391.915	136.53
392.125	75.09
392.334	58.71
392.544	111.96
392.753	68.95
392.963	46.42
393.172	64.85
393.382	30.04
393.591	81.24
393.801	58.71
394.01	66.9
394.22	25.94
394.429	36.18
394.639	91.48
394.848	48.47
395.058	42.32
395.267	64.85
395.477	81.24
395.686	148.82
395.895	107.86
396.105	130.39
396.314	38.23
396.524	9.56
396.733	34.13
396.942	99.67
397.152	81.24
397.361	114
397.57	71
397.78	15.7
397.989	124.24
398.198	91.48
398.407	132.44
398.617	83.28
398.826	124.24
399.035	109.91
399.244	97.62
399.453	56.66
399.663	42.32
399.872	54.61
400.081	5.46
400.29	142.68
400.499	23.89
400.708	183.63
400.917	62.8
401.127	66.9
401.336	75.09
401.545	173.39
401.754	101.72
401.963	140.63
402.172	109.91
402.381	77.14
402.59	107.86
402.799	54.61
403.008	85.33
403.217	163.15
403.426	146.77
403.635	62.8
403.844	93.52
404.053	109.91
404.262	79.19
404.471	36.18
404.68	66.9
404.888	58.71
405.097	148.82
405.306	120.15
405.515	150.87
405.724	152.91
405.933	140.63
406.142	142.68
406.35	132.44
406.559	62.8
406.768	136.53
406.977	208.21
407.185	138.58
407.394	126.29
407.603	71
407.812	187.73
408.02	152.91
408.229	163.15
408.438	142.68
408.646	197.97
408.855	165.2
409.064	210.26
409.272	187.73
409.481	281.94
409.69	195.92
409.898	185.68
410.107	181.59
410.315	222.55
410.524	222.55
410.733	243.03
410.941	212.31
411.15	240.98
411.358	294.22
411.567	349.52
411.775	238.93
411.984	249.17
412.192	296.27
412.401	331.09
412.609	419.15
412.818	320.85
413.026	331.09
413.234	324.94
413.443	288.08
413.651	341.33
413.86	363.86
414.068	410.96
414.276	419.15
414.485	372.05
414.693	456.01
414.901	425.29
415.11	478.54
415.318	507.21
415.526	386.38
415.734	439.63
415.943	515.41
416.151	539.98
416.359	591.18
416.567	626
416.776	621.9
416.984	552.27
417.192	632.14
417.4	562.51
417.608	654.67
417.817	615.76
418.025	703.82
418.233	789.83
418.441	720.2
418.649	707.91
418.857	800.07
419.065	806.22
419.273	750.92
419.481	851.27
419.689	902.47
419.897	867.66
420.105	892.23
420.313	947.53
420.521	1031.49
420.729	1029.45
420.937	988.49
421.145	1058.12
421.353	1193.28
421.561	1199.43
421.769	1205.57
421.977	1199.43
422.185	1150.28
422.393	1295.68
422.601	1404.22
422.809	1402.18
423.017	1461.57
423.224	1574.21
423.432	1643.84
423.64	1559.87
423.848	1645.88
424.056	1690.94
424.263	1748.28
424.471	1705.28
424.679	1813.82
424.887	1865.02
425.094	1914.17
425.302	1969.46
425.51	2051.38
425.718	2096.44
425.925	2092.34
426.133	2080.05
426.341	2413.87
426.548	2276.66
426.756	2526.51
426.964	2551.09
427.171	2641.2
427.379	2592.05
427.586	2704.68
427.794	2725.16
428.001	2905.39
428.209	3218.72
428.417	2946.34
428.624	3378.47
428.832	3190.05
429.039	3214.63
429.247	3196.2
429.454	3626.27
429.662	3716.38
429.869	3460.38
430.076	3667.23
430.284	3712.28
430.491	3747.1
430.699	4125.97
430.906	4044.06
431.114	4171.03
431.321	4197.65
431.528	4338.96
431.736	4488.46
431.943	4762.89
432.15	4676.88
432.358	4871.43
432.565	4951.31
432.772	4902.15
432.979	5141.77
433.187	5287.17
433.394	5256.45
433.601	5610.75
433.808	5702.91
434.016	5760.25
434.223	5825.79
434.43	6315.25
434.637	6024.44
434.844	6454.51
435.052	6565.11
435.259	6585.58
435.466	6716.65
435.673	6608.11
435.88	7107.82
436.087	7337.19
436.294	7431.4
436.501	7251.17
436.708	7478.5
436.915	7761.12
437.122	7853.28
437.329	7933.15
437.537	8430.8
437.743	8137.95
437.95	8324.31
438.157	8684.75
438.364	8946.89
438.571	8965.32
438.778	9002.19
438.985	9913.53
439.192	9534.66
439.399	9850.05
439.606	9647.3
439.813	10124.47
440.02	10880.18
440.227	10554.55
440.433	10394.81
440.64	10781.87
440.847	10753.2
441.054	11054.25
441.261	11719.84
441.467	11508.9
441.674	11728.03
441.881	12104.86
442.088	12252.31
442.294	12102.81
442.501	12612.76
442.708	12946.58
442.914	13001.87
443.121	13894.79
443.328	13415.56
443.534	14138.49
443.741	13995.14
443.948	13739.14
444.154	14926.96
444.361	14859.38
444.568	15068.27
444.774	15064.18
444.981	15023.22
445.187	15590.5
445.394	16241.76
445.6	15897.7
445.807	17339.47
446.013	16856.15
446.22	16933.97
446.426	17536.07
446.633	17902.66
446.839	18574.39
447.046	17671.24
447.252	18662.46
447.459	18807.86
447.665	18775.09
447.871	19506.22
448.078	20286.5
448.284	19469.36
448.491	19950.63
448.697	20724.76
448.903	21091.35
449.11	21412.88
449.316	20907.03
449.522	21087.25
449.728	21879.82
449.935	21906.44
450.141	21830.66
450.347	22354.94
450.553	21828.62
450.76	21881.86
450.966	22866.94
451.172	22563.84
451.378	22965.24
451.584	22340.61
451.791	23157.75
451.997	23194.61
452.203	23413.74
452.409	23423.98
452.615	23464.94
452.821	22455.29
453.027	22137.86
453.233	23145.46
453.44	22524.93
453.646	22596.6
453.852	22815.74
454.058	22993.91
454.264	22285.31
454.47	22842.36
454.676	22008.84
454.882	23233.52
455.088	21066.77
455.294	21206.03
455.5	21789.7
455.705	22080.52
455.911	20847.64
456.117	20665.37
456.323	20548.64
456.529	19127.35
456.735	20186.15
456.941	19639.34
457.147	19254.32
457.352	18703.42
457.558	18492.48
457.764	18611.26
457.97	17828.93
458.176	17738.82
458.381	17765.45
458.587	17075.28
458.793	16972.88
458.999	16163.93
459.204	17232.97
459.41	16522.33
459.616	15441
459.821	15664.23
460.027	15660.13
460.233	15103.09
460.438	14365.82
460.644	14507.13
460.85	13888.64
461.055	13634.69
461.261	13307.02
461.466	12616.85
461.672	12254.36
461.878	13345.93
462.083	12256.41
462.289	11873.44
462.494	11863.2
462.7	11443.37
462.905	11044.01
463.111	11355.3
463.316	11513
463.522	11130.03
463.727	11285.67
463.932	11447.46
464.138	11187.37
464.343	11257
464.549	10753.2
464.754	11168.94
464.959	11037.87
465.165	11013.29
465.37	10560.69
465.575	10212.54
465.781	10683.57
465.986	10613.94
466.191	10437.81
466.397	10151.1
466.602	10009.79
466.807	9954.49
467.012	9882.81
467.218	10071.23
467.423	9802.94
467.628	9979.07
467.833	10374.33
468.038	9876.67
468.244	9589.95
468.449	10130.62
468.654	9817.28
468.859	9647.3
469.064	9747.65
469.269	9254.09
469.474	9323.72
469.679	9553.09
469.885	9018.57
470.09	9491.65
470.295	9215.18
470.5	9041.1
470.705	9213.13
470.91	8936.65
471.115	8869.07
471.32	8963.28
471.525	8918.22
471.73	8727.76
471.935	8635.6
472.139	8383.7
472.344	8412.37
472.549	8418.52
472.754	8287.45
472.959	8279.26
473.164	8000.73
473.369	7896.28
473.574	8039.64
473.778	7998.68
473.983	7840.99
474.188	8074.46
474.393	7300.33
474.598	7517.41
474.802	7558.37
475.007	7595.23
475.212	7535.84
475.417	7279.85
475.621	7242.98
475.826	7285.99
476.031	7154.92
476.235	6999.27
476.44	7027.95
476.645	6997.23
476.849	6821.1
477.054	6876.4
477.259	6712.56
477.463	6696.18
477.668	6657.26
477.872	6718.7
478.077	6483.19
478.282	6264.05
478.486	6358.26
478.691	6247.67
478.895	6272.25
479.1	6311.16
479.304	6186.23
479.509	6001.91
479.713	6360.31
479.918	6108.41
480.122	6053.11
480.326	6069.5
480.531	6069.5
480.735	5989.63
480.94	5881.08
481.144	6192.37
481.348	5913.85
481.553	5883.13
481.757	5840.12
481.961	5846.27
482.166	5924.09
482.37	5909.76
482.574	5764.35
482.778	5930.23
482.983	5864.7
483.187	5752.06
483.391	5866.75
483.595	5776.64
483.8	5649.66
484.004	5786.88
484.208	5825.79
484.412	5909.76
484.616	5750.01
484.821	5717.25
485.025	5725.44
485.229	6012.15
485.433	5647.62
485.637	5760.25
485.841	5747.97
486.045	5862.65
486.249	5917.95
486.453	5674.24
486.657	5817.6
486.861	5625.09
487.065	5653.76
487.269	5930.23
487.473	5672.19
487.677	5868.8
487.881	6063.35
488.085	5766.4
488.289	5825.79
488.493	5813.5
488.697	6081.78
488.901	5946.62
489.105	5860.6
489.309	5836.03
489.512	5969.15
489.716	5979.39
489.92	5870.84
490.124	5917.95
490.328	5948.67
490.531	5952.76
490.735	5969.15
490.939	5989.63
491.143	5817.6
491.346	6044.92
491.55	6014.2
491.754	6096.12
491.958	6137.08
492.161	6010.11
492.365	6038.78
492.569	6073.59
492.772	6167.8
492.976	6153.46
493.18	6284.53
493.383	6431.99
493.587	6384.88
493.79	6460.66
493.994	6227.19
494.197	6323.44
494.401	6456.56
494.605	6454.51
494.808	6518
495.012	6591.73
495.215	6677.74
495.419	6743.28
495.622	6663.41
495.825	6806.77
496.029	6800.62
496.232	6939.88
496.436	7120.1
496.639	7101.67
496.843	7136.49
497.046	7245.03
497.249	7367.91
497.453	7331.05
497.656	7384.29
497.859	7302.37
498.063	7593.19
498.266	7705.82
498.469	7658.72
498.673	7671.01
498.876	7933.15
499.079	7967.96
499.282	7939.29
499.485	8363.22
499.689	8129.75
499.892	8254.68
500.095	8342.74
500.298	8369.37
500.501	8537.3
500.705	8537.3
500.908	8717.52
501.111	9010.38
501.314	8897.74
501.517	8912.08
501.72	9200.84
501.923	9237.7
502.126	9360.58
502.329	9614.53
502.532	9471.17
502.735	9770.18
502.938	9925.82
503.141	9741.5
503.344	9946.3
503.547	10237.11
503.75	10269.88
503.953	10403
504.156	10362.04
504.359	10454.2
504.562	10724.53
504.765	10935.47
504.968	11101.36
505.17	11105.45
505.373	11269.29
505.576	11306.15
505.779	11580.58
505.982	11517.09
506.185	11996.32
506.387	11877.54
506.59	11889.82
506.793	12199.07
506.996	12342.42
507.198	12424.34
507.401	12453.02
507.604	12528.79
507.807	12965.01
508.009	13042.83
508.212	12913.81
508.415	13196.43
508.617	13522.06
508.82	13542.53
509.022	13524.1
509.225	14038.14
509.428	13982.85
509.63	14036.1
509.833	14255.23
510.035	14724.21
510.238	14558.33
510.44	14765.17
510.643	14959.73
510.845	15127.66
511.048	15037.55
511.25	15324.27
511.453	15539.3
511.655	15840.36
511.858	15844.45
512.06	16055.39
512.262	16325.72
512.465	16577.62
512.667	16520.28
512.87	16749.65
513.072	17110.1
513.274	17155.15
513.477	17411.15
513.679	17736.77
513.881	18117.7
514.084	17861.7
514.286	18203.71
514.488	18371.65
514.69	18830.39
514.893	18717.75
515.095	18846.77
515.297	19135.54
515.499	19332.14
515.701	19434.54
515.904	19895.33
516.106	19909.67
516.308	20220.96
516.51	20485.15
516.712	20296.74
516.914	20796.44
517.116	21316.62
517.318	21156.88
517.52	21224.47
517.722	22037.51
517.925	21572.62
518.127	22051.84
518.329	22240.26
518.531	22455.29
518.733	22746.11
518.935	22578.17
519.136	22932.47
519.338	23294.96
519.54	23419.89
519.742	23569.39
519.944	23940.07
520.146	24413.15
520.348	24478.69
520.55	24536.03
520.752	24873.95
520.954	25293.78
521.155	25179.09
521.357	25592.78
521.559	25646.03
521.761	26231.75
521.963	26244.04
522.164	26409.92
522.366	26477.51
522.568	27102.14
522.77	26850.24
522.971	27620.27
523.173	27333.56
523.375	27857.84
523.576	27870.12
523.778	27726.77
523.98	28375.97
524.181	28484.51
524.383	28535.71
524.584	28646.3
524.786	29098.91
524.988	28801.95
525.189	29111.19
525.391	29430.68
525.592	29803.41
525.794	29977.48
525.995	30036.88
526.197	30024.59
526.398	30155.66
526.6	30735.23
526.801	30729.09
527.003	30733.18
527.204	30892.93
527.406	31222.65
527.607	31593.33
527.808	31470.45
528.01	31169.4
528.211	31611.76
528.412	31943.53
528.614	31703.92
528.815	31855.47
529.016	32181.1
529.218	32316.26
529.419	32316.26
529.62	32387.94
529.822	32144.23
530.023	32576.36
530.224	32580.45
530.425	32457.57
530.626	32596.84
530.828	32519.01
531.029	33149.79
531.23	33309.53
531.431	33123.16
531.632	33440.6
531.833	33092.44
532.035	33272.67
532.236	33309.53
532.437	33360.73
532.638	33301.34
532.839	33430.36
533.04	33657.68
533.241	33385.3
533.442	34169.68
533.643	33719.12
533.844	33590.1
534.045	34108.24
534.246	33649.49
534.447	34040.65
534.648	33819.47
534.849	33815.38
535.05	33663.83
535.251	34120.52
535.451	34038.61
535.652	34239.31
535.853	34071.37
536.054	34167.63
536.255	33997.65
536.456	33622.87
536.657	34503.49
536.857	33999.69
537.058	34005.84
537.259	34184.01
537.46	34382.66
537.66	33940.3
537.861	34360.14
538.062	34077.52
538.263	34222.92
538.463	34339.66
538.664	33823.57
538.865	33829.71
539.065	34616.13
539.266	33686.36
539.466	34440.01
539.667	34042.7
539.868	34421.58
540.068	34339.66
540.269	34079.57
540.469	34368.33
540.67	34040.65
540.87	34032.46
541.071	33842
541.271	34388.81
541.472	34237.26
541.672	34171.72
541.873	33917.78
542.073	33723.22
542.274	34556.74
542.474	33938.26
542.675	34003.79
542.875	34577.22
543.075	34243.4
543.276	33651.54
543.476	34636.61
543.676	33860.43
543.877	34110.28
544.077	33864.53
544.277	33876.82
544.478	33862.48
544.678	33899.34
544.878	34038.61
545.078	33977.17
545.279	33944.4
545.479	33710.93
545.679	34038.61
545.879	34175.82
546.079	33960.78
546.28	33801.04
546.48	33788.75
546.68	34007.89
546.88	34188.11
547.08	34087.76
547.28	33956.69
547.48	33915.73
547.68	34425.67
547.88	33743.7
548.081	34155.34
548.281	33936.21
548.481	33794.9
548.681	34282.31
548.881	33704.79
549.081	34036.56
549.28	33788.75
549.48	34118.48
549.68	33704.79
549.88	34388.81
550.08	33557.33
550.28	34149.2
550.48	33782.61
550.68	33983.31
550.88	33782.61
551.08	33342.3
551.279	33964.88
551.479	33991.5
551.679	34118.48
551.879	34169.68
552.079	33993.55
552.278	33393.5
552.478	33747.79
552.678	33932.11
552.878	34188.11
553.077	33690.45
553.277	33760.08
553.477	34353.99
553.676	33581.91
553.876	33612.63
554.076	33659.73
554.275	33463.13
554.475	33235.8
554.674	33534.81
554.874	33821.52
555.074	33456.98
555.273	33641.3
555.473	33530.71
555.672	33770.32
555.872	33145.69
556.071	33389.4
556.271	33448.79
556.47	33438.55
556.67	32959.33
556.869	32910.18
557.068	33239.9
557.268	32877.41
557.467	32813.92
557.667	32781.15
557.866	32865.12
558.065	32994.14
558.265	32670.56
558.464	32682.85
558.663	33282.91
558.863	32277.35
559.062	32783.2
559.261	32355.18
559.461	32660.32
559.66	31943.53
559.859	32222.06
560.058	31955.82
560.258	32279.4
560.457	32162.67
560.656	32191.34
560.855	32121.71
561.054	31943.53
561.253	31667.06
561.453	32185.19
561.652	31912.81
561.851	31775.6
562.05	31447.93
562.249	31505.27
562.448	31777.65
562.647	31337.34
562.846	31566.71
563.045	31363.96
563.244	31153.02
563.443	31505.27
563.642	30800.77
563.841	30847.87
564.04	31026.04
564.239	31187.83
564.438	30598.02
564.637	30667.65
564.836	30471.04
565.035	30630.79
565.234	30512
565.432	30243.72
565.631	30258.06
565.83	30272.39
566.029	30434.18
566.228	29858.7
566.427	29694.86
566.625	29918.09
566.824	29574.03
567.023	30030.73
567.222	29436.82
567.42	29731.73
567.619	29324.18
567.818	29232.02
568.016	29027.23
568.215	29545.36
568.414	29033.37
568.612	29309.85
568.811	28924.83
569.01	28965.79
569.208	28543.91
569.407	28902.3
569.605	28750.75
569.804	28840.86
570.002	28070.83
570.201	28492.71
570.4	28099.5
570.598	27861.93
570.797	27497.39
570.995	28113.83
571.193	27544.5
571.392	27837.36
571.59	27304.88
571.789	27376.56
571.987	27407.28
572.186	27229.11
572.384	26934.2
572.582	27354.04
572.781	26840
572.979	26454.98
573.177	26680.25
573.376	26901.43
573.574	26790.84
573.772	26807.23
573.971	26434.5
574.169	26090.44
574.367	26325.96
574.565	26340.29
574.763	26092.49
574.962	26061.77
575.16	25709.52
575.358	26184.65
575.556	25637.84
575.754	26006.47
575.952	25449.42
576.151	25707.47
576.349	25433.04
576.547	25310.16
576.745	25402.32
576.943	25543.63
577.141	25152.47
577.339	25043.93
577.537	24955.86
577.735	24828.89
577.933	24554.46
578.131	24816.6
578.329	24626.14
578.527	24447.97
578.725	24447.97
578.923	24146.92
579.121	24536.03
579.319	24155.11
579.516	24263.65
579.714	24488.93
579.912	24036.33
580.11	23782.38
580.308	24017.89
580.506	23751.66
580.704	23469.04
580.901	23796.71
581.099	24087.53
581.297	23426.03
581.495	23213.04
581.692	23628.78
581.89	23254
582.088	23274.48
582.285	22928.38
582.483	23297.01
582.681	23299.06
582.878	22729.72
583.076	22809.59
583.274	22699
583.471	22490.11
583.669	22805.5
583.866	22451.2
584.064	22498.3
584.262	22127.62
584.459	22664.19
584.657	22035.46
584.854	22313.98
585.052	22090.76
585.249	22451.2
585.447	22346.75
585.644	21783.56
585.841	21885.96
586.039	21806.09
586.236	21468.17
586.434	21836.81
586.631	21613.58
586.828	21505.04
587.026	21675.02
587.223	21269.52
587.42	21171.22
587.618	21255.19
587.815	21228.56
588.012	21210.13
588.21	20964.37
588.407	21003.28
588.604	21048.34
588.801	20579.36
588.999	20775.96
589.196	20786.2
589.393	20677.66
589.59	20505.63
589.787	20558.88
589.984	20470.81
590.182	20358.17
590.379	20235.3
590.576	20057.12
590.773	20153.38
590.97	19954.72
591.167	20251.68
591.364	19907.62
591.561	19934.25
591.758	19815.46
591.955	19498.03
592.152	20110.37
592.349	19553.32
592.546	19719.21
592.743	19625
592.94	19342.38
593.137	19618.86
593.334	19676.2
593.531	19289.13
593.727	19385.39
593.924	19143.73
594.121	18891.83
594.318	19176.5
594.515	18674.74
594.712	19174.45
594.908	18727.99
595.105	18850.87
595.302	18631.74
595.499	18775.09
595.696	18852.92
595.892	18500.67
596.089	18973.75
596.286	18478.14
596.482	18426.94
596.679	18383.93
596.876	18646.07
597.072	18416.7
597.269	18437.18
597.466	18043.97
597.662	17951.81
597.859	18015.3
598.055	18078.79
598.252	18046.02
598.448	18072.64
598.645	17867.84
598.841	17439.82
599.038	17931.33
599.234	17943.62
599.431	17466.44
599.627	17617.99
599.824	17507.4
600.02	17572.94
600.217	17540.17
600.413	17493.07
600.609	17499.21
600.806	17343.56
601.002	17140.82
601.198	17134.67
601.395	16858.2
601.591	17069.14
601.787	17001.55
601.984	16976.98
602.18	17130.58
602.376	16976.98
602.572	16712.79
602.769	16596.06
602.965	16440.41
603.161	16913.49
603.357	16346.2
603.553	16487.51
603.75	16489.56
603.946	16501.85
604.142	16526.43
604.338	16278.62
604.534	16407.64
604.73	15977.57
604.926	15887.46
605.122	16104.54
605.318	15946.85
605.514	15914.08
605.71	15811.68
605.906	15676.52
606.102	15815.78
606.298	15653.99
606.494	15799.4
606.69	15807.59
606.886	15707.24
607.082	15432.81
607.278	15496.3
607.474	15484.01
607.67	15428.71
607.866	15291.5
608.062	15299.69
608.257	15127.66
608.453	15361.13
608.649	15295.6
608.845	15076.46
609.041	15000.69
609.236	15182.96
609.432	15037.55
609.628	14963.83
609.824	15006.83
610.019	14697.59
610.215	14926.96
610.411	15002.74
610.606	14947.44
610.802	14797.94
610.998	14611.57
611.193	14869.62
611.389	14591.09
611.584	14830.71
611.78	14570.61
611.976	14492.79
612.171	14523.51
612.367	14468.22
612.562	14425.21
612.758	14077.05
612.953	14214.27
613.149	14597.24
613.344	14107.77
613.539	14451.83
613.735	14156.93
613.93	14294.14
614.126	13962.37
614.321	14285.95
614.517	14406.78
614.712	14111.87
614.907	14097.53
615.103	14075.01
615.298	14152.83
615.493	14032
615.688	13929.6
615.884	14048.38
616.079	13855.87
616.274	13966.46
616.47	13952.13
616.665	13894.79
616.86	13743.24
617.055	13376.65
617.25	13689.99
617.445	13665.41
617.641	13667.46
617.836	13769.86
618.031	13280.39
618.226	13552.77
618.421	13276.3
618.616	13341.83
618.811	13204.62
619.006	13517.96
619.201	12872.85
619.396	13370.51
619.591	12805.27
619.786	12940.43
619.981	12821.65
620.176	13046.93
620.371	12688.53
620.566	12840.08
620.761	13022.35
620.956	12651.67
621.151	12612.76
621.346	12831.89
621.541	12651.67
621.735	12549.27
621.93	12280.99
622.125	12457.11
622.32	12174.49
622.515	12323.99
622.709	12311.71
622.904	12330.14
623.099	12209.31
623.294	11934.88
623.488	11703.46
623.683	11900.06
623.878	11660.45
624.072	11969.69
624.267	11793.57
624.462	11670.69
624.656	11381.93
624.851	11574.44
625.046	11533.48
625.24	11283.63
625.435	11314.34
625.629	11279.53
625.824	11201.71
626.018	11197.61
626.213	11140.27
626.407	11060.4
626.602	10939.57
626.796	10822.83
626.991	10847.41
627.185	10812.59
627.38	10937.52
627.574	10534.07
627.768	10714.29
627.963	10570.93
628.157	10536.12
628.352	10519.73
628.546	10151.1
628.74	10577.08
628.935	10357.94
629.129	10130.62
629.323	10124.47
629.517	10116.28
629.712	10042.56
629.906	9968.83
630.1	9780.42
630.294	9934.01
630.489	9956.54
630.683	9839.81
630.877	9616.58
631.071	9522.37
631.265	9712.83
631.459	9475.27
631.653	9424.07
631.848	9561.28
632.042	9389.25
632.236	9477.32
632.43	9231.56
632.624	9264.33
632.818	9227.46
633.012	9256.14
633.206	9090.25
633.4	9221.32
633.594	8996.04
633.788	8961.23
633.982	8852.69
634.176	8717.52
634.369	8918.22
634.563	8864.97
634.757	8881.36
634.951	8840.4
635.145	8686.8
635.339	8699.09
635.533	8742.1
635.726	8596.69
635.92	8371.41
636.114	8594.64
636.308	8486.1
636.501	8373.46
636.695	8160.47
636.889	8168.66
637.083	8285.4
637.276	8053.98
637.47	8193.24
637.664	8015.07
637.857	8056.03
638.051	7920.86
638.244	8015.07
638.438	7967.96
638.632	8074.46
638.825	7814.37
639.019	7931.1
639.212	7767.26
639.406	7810.27
639.599	7699.68
639.793	7642.34
639.986	7607.52
640.18	7519.46
640.373	7425.25
640.567	7386.34
640.76	7468.26
640.954	7468.26
641.147	7281.89
641.34	7150.82
641.534	7183.59
641.727	7324.9
641.92	7210.22
642.114	7109.86
642.307	7064.81
642.5	7029.99
642.694	6964.46
642.887	6984.94
643.08	6960.36
643.273	6835.44
643.467	6882.54
643.66	6796.53
643.853	6714.61
644.046	6802.67
644.239	6667.5
644.432	6612.21
644.626	6440.18
644.819	6671.6
645.012	6616.3
645.205	6380.79
645.398	6614.26
645.591	6569.2
645.784	6413.56
645.977	6323.44
646.17	6391.03
646.363	6292.73
646.556	6278.39
646.749	6210.81
646.942	6153.46
647.135	6116.6
647.328	6145.27
647.521	5981.43
647.714	5911.8
647.907	6100.22
648.099	5963
648.292	5854.46
648.485	5823.74
648.678	5940.47
648.871	5833.98
649.064	5809.4
649.256	5768.45
649.449	5594.37
649.642	5711.1
649.835	5559.55
650.027	5692.67
650.22	5756.16
650.413	5526.78
650.605	5545.22
650.798	5733.63
650.991	5475.59
651.183	5545.22
651.376	5321.99
651.568	5395.72
651.761	5465.35
651.954	5481.73
652.146	5244.17
652.339	5360.9
652.531	5403.91
652.724	5143.81
652.916	5203.21
653.109	5076.23
653.301	5383.43
653.494	5203.21
653.686	5082.38
653.879	5188.87
654.071	5002.51
654.263	5109
654.456	5141.77
654.648	5078.28
654.84	4965.64
655.033	4898.06
655.225	4867.34
655.417	4818.19
655.61	5072.14
655.802	4842.76
655.994	4801.8
656.186	4881.67
656.379	4740.36
656.571	4609.3
656.763	4617.49
656.955	4695.31
657.148	4734.22
657.34	4793.61
657.532	4515.09
657.724	4543.76
657.916	4672.78
658.108	4320.53
658.3	4451.6
658.492	4574.48
658.684	4521.23
658.876	4355.35
659.068	4463.89
659.26	4265.24
659.452	4496.66
659.644	4418.83
659.836	4402.45
660.028	4459.79
660.22	4193.56
660.412	4248.85
660.604	4312.34
660.796	4269.33
660.988	4302.1
661.18	4355.35
661.372	4338.96
661.563	4365.59
661.755	4074.78
661.947	4140.31
662.139	4177.17
662.331	4138.26
662.522	4007.19
662.714	4162.84
662.906	4035.86
663.097	4076.82
663.289	4029.72
663.481	3976.47
663.673	4039.96
663.864	3962.14
664.056	3894.55
664.247	4044.06
664.439	3853.59
664.631	3984.66
664.822	3960.09
665.014	3771.68
665.205	3853.59
665.397	3808.54
665.588	3738.91
665.78	3677.47
665.971	3790.11
666.163	3861.79
666.354	3783.96
666.546	3777.82
666.737	3683.61
666.929	3747.1
667.12	3740.96
667.311	3736.86
667.503	3693.85
667.694	3570.97
667.885	3646.75
668.077	3489.06
668.268	3587.36
668.459	3613.98
668.651	3544.35
668.842	3648.8
669.033	3575.07
669.224	3501.34
669.416	3591.45
669.607	3564.83
669.798	3452.19
669.989	3581.21
670.18	3386.66
670.371	3536.16
670.563	3425.57
670.754	3550.5
670.945	3618.08
671.136	3581.21
671.327	3400.99
671.518	3400.99
671.709	3480.86
671.9	3503.39
672.091	3435.81
672.282	3460.38
672.473	3337.51
672.664	3231.01
672.855	3411.23
673.046	3335.46
673.237	3458.34
673.428	3288.36
673.619	3362.08
673.809	3345.7
674	3302.69
674.191	3366.18
674.382	3294.5
674.573	3390.75
674.764	3419.43
674.954	3493.15
675.145	3327.27
675.336	3386.66
675.527	3331.36
675.717	3265.83
675.908	3290.4
676.099	3327.27
676.289	3280.16
676.48	3263.78
676.671	3206.44
676.861	3228.96
677.052	3245.35
677.243	3298.6
677.433	3368.23
677.624	3151.14
677.814	3208.48
678.005	3249.44
678.195	3366.18
678.386	3173.67
678.576	3308.83
678.767	3155.24
678.957	3288.36
679.148	3353.89
679.338	3403.04
679.529	3204.39
679.719	3226.92
679.909	3427.62
680.1	3218.72
680.29	3310.88
680.481	3298.6
680.671	3347.75
680.861	3271.97
681.052	3200.29
681.242	3253.54
681.432	3327.27
681.622	3282.21
681.813	3259.68
682.003	3247.4
682.193	3245.35
682.383	3345.7
682.573	3405.09
682.764	3294.5
682.954	3292.45
683.144	3364.13
683.334	3165.48
683.524	3245.35
683.714	3368.23
683.904	3167.52
684.094	3265.83
684.284	3278.12
684.474	3278.12
684.664	3194.15
684.854	3314.98
685.044	3280.16
685.234	3175.72
685.424	3218.72
685.614	3161.38
685.804	3398.95
685.994	3167.52
686.184	3296.55
686.374	3206.44
686.564	3247.4
686.753	3169.57
686.943	3149.09
687.133	3151.14
687.323	3222.82
687.513	3112.23
687.702	3202.34
687.892	3196.2
688.082	3085.61
688.272	3056.93
688.461	3081.51
688.651	3173.67
688.841	3130.66
689.03	3034.41
689.22	3108.13
689.41	3132.71
689.599	3134.76
689.789	3101.99
689.979	2977.06
690.168	2946.34
690.358	2977.06
690.547	3036.45
690.737	2956.58
690.926	3011.88
691.116	2831.66
691.305	3032.36
691.495	2864.43
691.684	2960.68
691.874	2798.89
692.063	2891.05
692.252	2868.52
692.442	2938.15
692.631	2860.33
692.82	2776.36
693.01	2727.21
693.199	2759.98
693.388	2866.47
693.578	2807.08
693.767	2856.23
693.956	2788.65
694.146	2809.13
694.335	2708.78
694.524	2743.6
694.713	2792.75
694.902	2673.96
695.092	2811.18
695.281	2651.44
695.47	2719.02
695.659	2673.96
695.848	2766.12
696.037	2665.77
696.226	2712.88
696.415	2645.29
696.604	2772.27
696.793	2780.46
696.982	2665.77
697.171	2780.46
697.36	2743.6
697.549	2663.72
697.738	2546.99
697.927	2661.68
698.116	2655.53
698.305	2624.81
698.494	2655.53
698.683	2784.55
698.872	2639.15
699.061	2637.1
699.25	2667.82
699.438	2635.05
699.627	2657.58
699.816	2725.16
700.005	2733.36
700.193	2667.82
700.382	2735.4
700.571	2667.82
700.76	2676.01
700.948	2739.5
701.137	2704.68
701.326	2700.59
701.514	2743.6
701.703	2749.74
701.892	2602.29
702.08	2751.79
702.269	2673.96
702.457	2655.53
702.646	2706.73
702.834	2788.65
703.023	2700.59
703.212	2708.78
703.4	2800.94
703.589	2690.35
703.777	2764.08
703.965	2700.59
704.154	2786.6
704.342	2755.88
704.531	2827.56
704.719	2798.89
704.907	2729.26
705.096	2741.55
705.284	2725.16
705.472	2909.48
705.661	2735.4
705.849	2897.19
706.037	2823.47
706.226	2737.45
706.414	2860.33
706.602	2743.6
706.79	2815.27
706.979	2755.88
707.167	2811.18
707.355	2743.6
707.543	2839.85
707.731	2762.03
707.919	2866.47
708.107	2790.7
708.296	2782.51
708.484	2839.85
708.672	2934.06
708.86	2864.43
709.048	2749.74
709.236	2790.7
709.424	3009.83
709.612	2886.95
709.8	2889
709.988	2833.71
710.176	2802.99
710.364	2936.1
710.551	2975.02
710.739	2798.89
710.927	2845.99
711.115	2862.38
711.303	2968.87
711.491	2821.42
711.679	2893.1
711.866	2919.72
712.054	2913.58
712.242	2843.95
712.43	2886.95
712.617	2741.55
712.805	2932.01
712.993	2936.1
713.181	2886.95
713.368	3093.8
713.556	3042.6
713.744	2983.21
713.931	3011.88
714.119	2977.06
714.306	2944.3
714.494	2993.45
714.682	3038.5
714.869	2841.9
715.057	3054.89
715.244	3028.26
715.432	3069.22
715.619	3095.85
715.807	3001.64
715.994	3052.84
716.182	3024.17
716.369	3097.89
716.556	3044.65
716.744	2970.92
716.931	2997.54
717.119	3054.89
717.306	3056.93
717.493	3011.88
717.681	3116.33
717.868	3122.47
718.055	3073.32
718.242	2995.5
718.43	3042.6
718.617	2972.97
718.804	3099.94
718.991	3073.32
719.179	3228.96
719.366	3112.23
719.553	3208.48
719.74	3075.37
719.927	3286.31
720.114	3153.19
720.301	3067.17
720.488	3190.05
720.676	3052.84
720.863	3138.85
721.05	3185.96
721.237	3202.34
721.424	3296.55
721.611	3235.11
721.798	3183.91
721.985	3108.13
722.172	3181.86
722.358	3292.45
722.545	3337.51
722.732	3159.33
722.919	3321.12
723.106	3335.46
723.293	3192.1
723.48	3274.02
723.667	3243.3
723.853	3286.31
724.04	3206.44
724.227	3190.05
724.414	3228.96
724.6	3214.63
724.787	3255.59
724.974	3276.07
725.161	3294.5
725.347	3155.24
725.534	3343.65
725.72	3329.31
725.907	3237.16
726.094	3204.39
726.28	3300.64
726.467	3245.35
726.653	3306.79
726.84	3271.97
727.027	3300.64
727.213	3376.42
727.4	3403.04
727.586	3349.79
727.773	3376.42
727.959	3360.03
728.145	3327.27
728.332	3392.8
728.518	3419.43
728.705	3575.07
728.891	3335.46
729.077	3398.95
729.264	3319.07
729.45	3536.16
729.636	3394.85
729.823	3327.27
730.009	3394.85
730.195	3491.1
730.382	3413.28
730.568	3319.07
730.754	3433.76
730.94	3265.83
731.126	3423.52
731.313	3396.9
731.499	3507.49
731.685	3478.82
731.871	3462.43
732.057	3349.79
732.243	3460.38
732.429	3411.23
732.615	3380.51
732.801	3482.91
732.987	3355.94
733.173	3583.26
733.359	3355.94
733.545	3419.43
733.731	3544.35
733.917	3605.79
734.103	3548.45
734.289	3573.02
734.475	3425.57
734.661	3495.2
734.847	3394.85
735.033	3513.63
735.219	3415.33
735.404	3562.78
735.59	3433.76
735.776	3394.85
735.962	3484.96
736.148	3536.16
736.333	3419.43
736.519	3378.47
736.705	3480.86
736.89	3353.89
737.076	3480.86
737.262	3470.62
737.447	3450.14
737.633	3382.56
737.819	3509.54
738.004	3429.66
738.19	3501.34
738.375	3343.65
738.561	3396.9
738.747	3550.5
738.932	3255.59
739.118	3601.69
739.303	3517.73
739.489	3452.19
739.674	3489.06
739.859	3304.74
740.045	3482.91
740.23	3388.71
740.416	3353.89
740.601	3157.29
740.786	3325.22
740.972	3218.72
741.157	3282.21
741.342	3288.36
741.528	3247.4
741.713	3454.24
741.898	3368.23
742.084	3376.42
742.269	3325.22
742.454	3274.02
742.639	3353.89
742.824	3355.94
743.01	3298.6
743.195	3267.88
743.38	3276.07
743.565	3243.3
743.75	3304.74
743.935	3200.29
744.12	3276.07
744.305	3056.93
744.49	3122.47
744.675	3130.66
744.86	3024.17
745.045	3151.14
745.23	3149.09
745.415	3140.9
745.6	3013.93
745.785	3054.89
745.97	3181.86
746.155	3118.37
746.34	3138.85
746.525	3106.09
746.71	3061.03
746.895	3132.71
747.079	3003.69
747.264	3024.17
747.449	3056.93
747.634	3001.64
747.819	3013.93
748.003	2966.82
748.188	2944.3
748.373	2929.96
748.557	2936.1
748.742	2800.94
748.927	2852.14
749.111	2850.09
749.296	2764.08
749.481	2891.05
749.665	2813.23
749.85	2733.36
750.034	2809.13
750.219	2762.03
750.404	2768.17
750.588	2682.16
750.773	2786.6
750.957	2735.4
751.141	2585.9
751.326	2696.49
751.51	2524.46
751.695	2614.57
751.879	2551.09
752.064	2633.01
752.248	2565.42
752.432	2639.15
752.617	2592.05
752.801	2641.2
752.985	2483.5
753.17	2540.85
753.354	2463.02
753.538	2446.64
753.722	2456.88
753.907	2448.69
754.091	2479.41
754.275	2358.58
754.459	2372.91
754.643	2225.46
754.828	2331.95
755.012	2338.1
755.196	2299.19
755.38	2231.6
755.564	2309.43
755.748	2342.19
755.932	2280.75
756.116	2166.07
756.3	2192.69
756.484	2172.21
756.668	2188.6
756.852	2202.93
757.036	2200.88
757.22	2106.68
757.404	2211.12
757.588	2002.23
757.772	2155.83
757.956	2108.73
758.14	2114.87
758.323	1887.54
758.507	2145.59
758.691	1989.94
758.875	2073.91
759.059	2139.44
759.242	1918.26
759.426	1934.65
759.61	1965.37
759.794	1905.98
759.977	2051.38
760.161	1989.94
760.345	2014.52
760.528	1776.95
760.712	1979.7
760.895	1862.97
761.079	1899.83
761.263	1875.26
761.446	1838.39
761.63	1815.87
761.813	1838.39
761.997	1903.93
762.18	1873.21
762.364	1754.43
762.547	1770.81
762.731	1740.09
762.914	1750.33
763.098	1729.85
763.281	1731.9
763.464	1750.33
763.648	1707.32
763.831	1705.28
764.015	1729.85
764.198	1623.36
764.381	1740.09
764.564	1637.69
764.748	1758.52
764.931	1600.83
765.114	1629.5
765.297	1674.56
765.481	1590.59
765.664	1615.16
765.847	1707.32
766.03	1615.16
766.213	1742.14
766.397	1494.33
766.58	1633.6
766.763	1672.51
766.946	1604.92
767.129	1588.54
767.312	1582.4
767.495	1647.93
767.678	1502.53
767.861	1533.25
768.044	1506.62
768.227	1514.81
768.41	1490.24
768.593	1510.72
768.776	1498.43
768.959	1506.62
769.142	1566.01
769.324	1461.57
769.507	1504.57
769.69	1486.14
769.873	1480
770.056	1496.38
770.239	1523.01
770.421	1426.75
770.604	1420.61
770.787	1463.61
770.97	1348.93
771.152	1412.42
771.335	1408.32
771.518	1488.19
771.7	1369.41
771.883	1525.05
772.066	1236.29
772.248	1363.26
772.431	1445.18
772.613	1404.22
772.796	1377.6
772.978	1367.36
773.161	1373.5
773.343	1426.75
773.526	1301.83
773.708	1234.24
773.891	1176.9
774.073	1295.68
774.256	1289.54
774.438	1301.83
774.621	1264.96
774.803	1289.54
774.985	1287.49
775.168	1301.83
775.35	1248.58
775.532	1160.52
775.715	1162.56
775.897	1158.47
776.079	1172.8
776.261	1170.76
776.444	1113.41
776.626	1094.98
776.808	1199.43
776.99	1129.8
777.173	1015.11
777.355	1097.03
777.537	1152.32
777.719	1148.23
777.901	1172.8
778.083	1066.31
778.265	1166.66
778.447	1082.69
778.629	1011.01
778.811	1131.84
778.993	1004.87
779.175	1099.08
779.357	982.34
779.539	906.57
779.721	1043.78
779.903	1035.59
780.085	1062.21
780.267	1043.78
780.449	898.38
780.631	1008.97
780.812	912.71
780.994	1002.82
781.176	886.09
781.358	947.53
781.54	916.81
781.721	912.71
781.903	918.86
782.085	875.85
782.267	957.77
782.448	781.64
782.63	828.74
782.812	759.11
782.993	929.1
783.175	910.66
783.357	820.55
783.538	769.35
783.72	728.39
783.901	822.6
784.083	863.56
784.264	779.59
784.446	707.91
784.627	763.21
784.809	775.5
784.99	763.21
785.172	830.79
785.353	773.45
785.535	705.87
785.716	765.26
785.897	748.87
786.079	738.63
786.26	738.63
786.441	781.64
786.623	623.95
786.804	691.53
786.985	673.1
787.167	722.25
787.348	623.95
787.529	716.11
787.71	742.73
787.891	650.57
788.073	628.04
788.254	697.67
788.435	673.1
788.616	689.48
788.797	673.1
788.978	566.6
789.159	582.99
789.34	613.71
789.522	597.32
789.703	666.96
789.884	640.33
790.065	578.89
790.246	693.58
790.427	621.9
790.607	576.84
790.788	638.28
790.969	603.47
791.15	591.18
791.331	632.14
791.512	656.72
791.693	527.69
791.874	542.03
792.054	679.24
792.235	652.62
792.416	464.21
792.597	558.41
792.778	566.6
792.958	519.5
793.139	580.94
793.32	603.47
793.5	466.25
793.681	599.37
793.862	476.49
794.042	505.17
794.223	499.02
794.404	548.17
794.584	439.63
794.765	544.08
794.945	474.45
795.126	494.93
795.306	595.28
795.487	478.54
795.667	509.26
795.848	552.27
796.028	490.83
796.209	458.06
796.389	462.16
796.57	464.21
796.75	439.63
796.93	427.34
797.111	374.1
797.291	466.25
797.471	439.63
797.652	413.01
797.832	445.77
798.012	456.01
798.192	404.82
798.373	396.62
798.553	460.11
798.733	404.82
798.913	476.49
799.093	372.05
799.274	466.25
799.454	425.29
799.634	437.58
799.814	439.63
799.994	419.15
800.174	476.49
800.354	351.57
800.534	394.58
800.714	433.49
800.894	339.28
801.074	474.45
801.254	396.62
801.434	406.86
801.614	376.14
801.794	355.66
801.974	1090.88
802.154	462.16
802.334	404.82
802.514	431.44
802.693	355.66
802.873	398.67
803.053	406.86
803.233	423.25
803.413	326.99
803.592	292.18
803.772	382.29
803.952	365.9
804.131	300.37
804.311	331.09
804.491	380.24
804.67	288.08
804.85	353.62
805.03	382.29
805.209	408.91
805.389	281.94
805.568	337.23
805.748	298.32
805.928	367.95
806.107	335.18
806.287	312.66
806.466	322.9
806.646	326.99
806.825	243.03
807.004	259.41
807.184	353.62
807.363	376.14
807.543	279.89
807.722	294.22
807.901	306.51
808.081	390.48
808.26	245.07
808.439	238.93
808.619	298.32
808.798	322.9
808.977	310.61
809.156	265.55
809.336	290.13
809.515	349.52
809.694	292.18
809.873	277.84
810.052	277.84
810.231	308.56
810.411	273.75
810.59	298.32
810.769	333.14
810.948	380.24
811.127	191.83
811.306	214.35
811.485	263.51
811.664	290.13
811.843	265.55
812.022	318.8
812.201	226.64
812.38	314.7
812.559	249.17
812.737	298.32
812.916	165.2
813.095	247.12
813.274	269.65
813.453	261.46
813.632	222.55
813.811	279.89
813.989	232.79
814.168	230.74
814.347	226.64
814.526	286.03
814.704	269.65
814.883	265.55
815.062	150.87
815.24	267.6
815.419	271.7
815.598	245.07
815.776	154.96
815.955	228.69
816.133	195.92
816.312	234.83
816.49	208.21
816.669	210.26
816.847	79.19
817.026	159.06
817.204	228.69
817.383	228.69
817.561	220.5
817.74	175.44
817.918	240.98
818.097	154.96
818.275	169.3
818.453	191.83
818.632	275.79
818.81	197.97
818.988	208.21
819.167	171.35
819.345	175.44
819.523	212.31
819.701	245.07
819.879	253.27
820.058	159.06
820.236	228.69
820.414	214.35
820.592	249.17
820.77	163.15
820.948	161.11
821.127	179.54
821.305	183.63
821.483	195.92
821.661	167.25
821.839	273.75
822.017	216.4
822.195	191.83
822.373	230.74
822.551	175.44
822.729	212.31
822.907	120.15
823.085	193.87
823.262	175.44
823.44	191.83
823.618	136.53
823.796	191.83
823.974	122.2
824.152	97.62
824.329	222.55
824.507	144.72
824.685	187.73
824.863	226.64
825.04	126.29
825.218	245.07
825.396	189.78
825.574	230.74
825.751	116.05
825.929	169.3
826.107	165.2
826.284	118.1
826.462	265.55
826.639	103.76
826.817	220.5
826.994	154.96
827.172	95.57
827.349	185.68
827.527	259.41
827.704	118.1
827.882	154.96
828.059	116.05
828.237	85.33
828.414	161.11
828.591	87.38
828.769	85.33
828.946	52.56
829.124	120.15
829.301	161.11
829.478	142.68
829.655	130.39
829.833	132.44
830.01	116.05
830.187	68.95
830.364	130.39
830.542	179.54
830.719	171.35
830.896	191.83
831.073	148.82
831.25	163.15
831.427	236.88
831.604	89.43
831.782	144.72
831.959	138.58
832.136	167.25
832.313	130.39
832.49	66.9
832.667	161.11
832.844	120.15
833.021	154.96
833.198	126.29
833.374	157.01
833.551	157.01
833.728	107.86
833.905	116.05
834.082	122.2
834.259	157.01
834.436	191.83
834.612	193.87
834.789	128.34
834.966	140.63
835.143	93.52
835.319	-21.16
835.496	159.06
835.673	116.05
835.85	120.15
836.026	157.01
836.203	140.63
836.38	62.8
836.556	66.9
836.733	154.96
836.909	214.35
837.086	120.15
837.262	30.04
837.439	122.2
837.616	25.94
837.792	107.86
837.968	134.48
838.145	77.14
838.321	-25.26
838.498	124.24
838.674	64.85
838.851	126.29
839.027	93.52
839.203	60.76
839.38	107.86
839.556	66.9
839.732	116.05
839.909	111.96
840.085	107.86
840.261	3.41
840.437	36.18
840.614	34.13
840.79	185.68
840.966	103.76
841.142	116.05
841.318	105.81
841.494	83.28
841.671	95.57
841.847	54.61
842.023	93.52
842.199	71
842.375	42.32
842.551	-6.83
842.727	1.37
842.903	140.63
843.079	23.89
843.255	167.25
843.431	103.76
843.607	77.14
843.783	25.94
843.959	128.34
844.134	81.24
844.31	75.09
844.486	87.38
844.662	97.62
844.838	13.65
845.013	46.42
845.189	56.66
845.365	124.24
845.541	66.9
845.716	107.86
845.892	183.63
846.068	42.32
846.244	48.47
846.419	64.85
846.595	30.04
846.77	1.37
846.946	169.3
847.122	118.1
847.297	21.85
847.473	46.42
847.648	-62.12
847.824	19.8
847.999	38.23
848.175	25.94
848.35	107.86
848.526	54.61
848.701	111.96
848.876	132.44
849.052	50.52
849.227	50.52
849.403	105.81
849.578	25.94
849.753	105.81
849.929	87.38
850.104	13.65
850.279	85.33
850.454	85.33
850.63	68.95
850.805	11.61
850.98	75.09
851.155	34.13
851.33	120.15
851.505	11.61
851.681	95.57
851.856	58.71
852.031	89.43
852.206	54.61
852.381	-35.5
852.556	54.61
852.731	83.28
852.906	85.33
853.081	85.33
853.256	68.95
853.431	128.34
853.606	46.42
853.781	1.37
853.956	-4.78
854.131	54.61
854.305	32.08
854.48	32.08
854.655	32.08
854.83	56.66
855.005	32.08
855.18	7.51
855.354	48.47
855.529	11.61
855.704	75.09
855.879	73.04
856.053	48.47
856.228	91.48
856.403	40.28
856.577	124.24
856.752	-21.16
856.926	103.76
857.101	85.33
857.276	36.18
857.45	19.8
857.625	111.96
857.799	25.94
857.974	118.1
858.148	-23.21
858.323	75.09
858.497	30.04
858.672	13.65
858.846	11.61
859.02	44.37
859.195	19.8
859.369	25.94
859.543	42.32
859.718	68.95
859.892	103.76
860.066	30.04
860.241	54.61
860.415	56.66
860.589	42.32
860.763	62.8
860.938	-55.98
861.112	44.37
861.286	40.28
861.46	-45.74
861.634	30.04
861.808	19.8
861.982	42.32
862.157	34.13
862.331	34.13
862.505	15.7
862.679	52.56
862.853	34.13
863.027	17.75
863.201	73.04
863.375	-64.17
863.549	-19.11
863.722	1.37
863.896	34.13
864.07	5.46
864.244	89.43
864.418	71
864.592	38.23
864.766	56.66
864.939	-51.88
865.113	62.8
865.287	52.56
865.461	-76.46
865.634	83.28
865.808	56.66
865.982	-23.21
866.156	-10.92
866.329	-53.93
866.503	95.57
866.676	9.56
866.85	-0.68
867.024	25.94
867.197	38.23
867.371	95.57
867.544	56.66
867.718	58.71
867.891	17.75
868.065	62.8
868.238	60.76
868.412	77.14
868.585	40.28
868.759	-17.07
868.932	38.23
869.105	13.65
869.279	64.85
869.452	36.18
869.625	-10.92
869.799	3.41
869.972	-94.89
870.145	36.18
870.319	17.75
870.492	-4.78
870.665	7.51
870.838	87.38
871.011	-29.35
871.185	-15.02
871.358	-31.4
871.531	-12.97
871.704	19.8
871.877	-15.02
872.05	97.62
872.223	-10.92
872.396	15.7
872.569	66.9
872.742	36.18
872.915	27.99
873.088	-17.07
873.261	-4.78
873.434	97.62
873.607	-31.4
873.78	-21.16
873.953	-0.68
874.126	50.52
874.299	13.65
874.471	-2.73
874.644	11.61
874.817	-23.21
874.99	46.42
875.163	73.04
875.335	-6.83
875.508	-0.68
875.681	32.08
875.853	95.57
876.026	3.41
876.199	-35.5
876.371	1.37
876.544	-23.21
876.717	23.89
876.889	-19.11
877.062	62.8
877.234	79.19
877.407	30.04
877.579	60.76
877.752	11.61
877.924	30.04
878.097	17.75
878.269	60.76
878.442	23.89
878.614	66.9
878.786	64.85
878.959	21.85
879.131	60.76
879.303	-31.4
879.476	54.61
879.648	40.28
879.82	36.18
879.993	9.56
880.165	9.56
880.337	-39.59
880.509	9.56
880.681	-92.84
880.854	-29.35
881.026	38.23
881.198	46.42
881.37	-31.4
881.542	46.42
881.714	-2.73
881.886	85.33
882.058	89.43
882.23	38.23
882.402	15.7
882.574	21.85
882.746	79.19
882.918	81.24
883.09	-25.26
883.262	60.76
883.434	15.7
883.606	-33.45
883.778	-17.07
883.95	109.91
884.122	40.28
884.293	44.37
884.465	68.95
884.637	11.61
884.809	17.75
884.98	13.65
885.152	27.99
885.324	25.94
885.496	-49.83
885.667	21.85
885.839	-33.45
886.011	-33.45
886.182	40.28
886.354	62.8
886.525	52.56
886.697	48.47
886.869	7.51
887.04	32.08
887.212	17.75
887.383	83.28
887.555	25.94
887.726	-53.93
887.897	-2.73
888.069	1.37
888.24	15.7
888.412	38.23
888.583	85.33
888.754	34.13
888.926	-92.84
889.097	38.23
889.268	-25.26
889.44	-21.16
889.611	9.56
889.782	-45.74
889.953	19.8
890.125	85.33
890.296	9.56
890.467	50.52
890.638	-19.11
890.809	71
890.98	-6.83
891.151	5.46
891.323	9.56
891.494	-17.07
891.665	-6.83
891.836	3.41
892.007	40.28
892.178	23.89
892.349	-2.73
892.52	-41.64
892.691	-43.69
892.862	7.51
893.032	-4.78
893.203	27.99
893.374	15.7
893.545	62.8
893.716	21.85
893.887	23.89
894.057	-6.83
894.228	3.41
894.399	13.65
894.57	25.94
894.74	34.13
894.911	13.65
895.082	-12.97
895.253	15.7
895.423	17.75
895.594	81.24
895.764	-45.74
895.935	-92.84
896.106	36.18
896.276	3.41
896.447	27.99
896.617	-6.83
896.788	-0.68
896.958	9.56
897.129	46.42
897.299	-86.7
897.47	79.19
897.64	42.32
897.81	21.85
897.981	46.42
898.151	-2.73
898.322	48.47
898.492	23.89
898.662	91.48
898.832	3.41
899.003	-70.31
899.173	64.85
899.343	-33.45
899.513	23.89
