Data from USB4F104151__27__12-23-40-296.txt Node

Date: Fri Mar 14 12:23:40 EDT 2025
User: louis
Spectrometer: USB4F10415
Trigger mode: 4
Integration Time (sec): 3.500000E-2
Scans to average: 1
Electric dark correction enabled: true
Nonlinearity correction enabled: false
Boxcar width: 0
XAxis mode: Wavelengths
Number of Pixels in Spectrum: 3648
>>>>>Begin Spectral Data<<<<<
178.204	-134.31
178.424	-134.31
178.644	-134.31
178.864	-167.08
179.084	-132.26
179.304	-15.53
179.524	-9.39
179.744	-11.43
179.964	70.48
180.184	-29.87
180.404	45.91
180.624	-13.48
180.844	-17.58
181.064	-21.67
181.283	-29.87
181.503	4.95
181.723	27.48
181.943	-89.26
182.163	35.67
182.383	58.2
182.602	37.72
182.822	35.67
183.042	50
183.262	90.96
183.482	0.85
183.701	-33.96
183.921	37.72
184.141	-19.63
184.361	82.77
184.58	29.52
184.8	27.48
185.02	-1.19
185.239	82.77
185.459	62.29
185.679	56.15
185.898	-7.34
186.118	66.39
186.338	58.2
186.557	103.25
186.777	72.53
186.997	2.9
187.216	105.3
187.436	31.57
187.655	82.77
187.875	68.44
188.095	-44.2
188.314	99.16
188.534	84.82
188.753	11.09
188.973	21.33
189.192	47.96
189.412	68.44
189.631	76.63
189.851	-38.06
190.07	68.44
190.29	60.24
190.509	-17.58
190.729	66.39
190.948	60.24
191.168	166.74
191.387	97.11
191.607	29.52
191.826	-33.96
192.045	50
192.265	-56.49
192.484	-15.53
192.704	60.24
192.923	56.15
193.142	86.87
193.362	17.24
193.581	93.01
193.8	33.62
194.02	-7.34
194.239	62.29
194.458	-48.3
194.678	-5.29
194.897	29.52
195.116	72.53
195.335	88.92
195.555	45.91
195.774	-3.24
195.993	107.35
196.212	47.96
196.432	0.85
196.651	76.63
196.87	15.19
197.089	138.07
197.308	13.14
197.528	109.4
197.747	54.1
197.966	35.67
198.185	56.15
198.404	15.19
198.623	109.4
198.842	9.05
199.062	13.14
199.281	93.01
199.5	31.57
199.719	47.96
199.938	62.29
200.157	95.06
200.376	19.29
200.595	133.97
200.814	37.72
201.033	-27.82
201.252	64.34
201.471	19.29
201.69	62.29
201.909	47.96
202.128	25.43
202.347	25.43
202.566	13.14
202.785	-5.29
203.004	-21.67
203.223	160.59
203.442	45.91
203.661	21.33
203.879	70.48
204.098	2.9
204.317	-29.87
204.536	99.16
204.755	29.52
204.974	56.15
205.193	25.43
205.411	80.72
205.63	43.86
205.849	-7.34
206.068	62.29
206.287	52.05
206.505	17.24
206.724	47.96
206.943	17.24
207.162	27.48
207.381	37.72
207.599	56.15
207.818	17.24
208.037	19.29
208.255	9.05
208.474	35.67
208.693	97.11
208.911	82.77
209.13	52.05
209.349	70.48
209.567	-9.39
209.786	125.78
210.005	88.92
210.223	47.96
210.442	11.09
210.661	39.76
210.879	7
211.098	70.48
211.316	4.95
211.535	31.57
211.753	-25.77
211.972	62.29
212.191	35.67
212.409	23.38
212.628	58.2
212.846	39.76
213.065	80.72
213.283	60.24
213.502	-3.24
213.72	27.48
213.938	52.05
214.157	37.72
214.375	4.95
214.594	-3.24
214.812	107.35
215.031	9.05
215.249	103.25
215.467	19.29
215.686	33.62
215.904	33.62
216.122	-7.34
216.341	138.07
216.559	15.19
216.778	70.48
216.996	82.77
217.214	-9.39
217.432	0.85
217.651	21.33
217.869	-19.63
218.087	-1.19
218.306	-42.15
218.524	80.72
218.742	-27.82
218.96	66.39
219.179	17.24
219.397	33.62
219.615	115.54
219.833	43.86
220.051	-9.39
220.27	78.68
220.488	33.62
220.706	50
220.924	43.86
221.142	9.05
221.36	37.72
221.578	97.11
221.796	19.29
222.015	27.48
222.233	68.44
222.451	93.01
222.669	72.53
222.887	105.3
223.105	21.33
223.323	37.72
223.541	13.14
223.759	37.72
223.977	45.91
224.195	64.34
224.413	84.82
224.631	82.77
224.849	47.96
225.067	90.96
225.285	19.29
225.503	35.67
225.721	-29.87
225.939	33.62
226.157	45.91
226.375	127.83
226.592	-15.53
226.81	-11.43
227.028	-36.01
227.246	84.82
227.464	-5.29
227.682	84.82
227.9	41.81
228.117	11.09
228.335	88.92
228.553	29.52
228.771	21.33
228.989	15.19
229.206	39.76
229.424	-36.01
229.642	97.11
229.86	17.24
230.077	23.38
230.295	58.2
230.513	95.06
230.731	43.86
230.948	23.38
231.166	45.91
231.384	41.81
231.601	68.44
231.819	97.11
232.037	35.67
232.254	62.29
232.472	-5.29
232.689	11.09
232.907	37.72
233.125	-52.39
233.342	27.48
233.56	-36.01
233.777	-74.92
233.995	-15.53
234.213	95.06
234.43	78.68
234.648	-46.25
234.865	9.05
235.083	76.63
235.3	-5.29
235.518	95.06
235.735	-27.82
235.953	54.1
236.17	-15.53
236.388	2.9
236.605	86.87
236.822	52.05
237.04	80.72
237.257	78.68
237.475	-27.82
237.692	13.14
237.909	11.09
238.127	-76.97
238.344	93.01
238.562	35.67
238.779	-95.4
238.996	56.15
239.214	-1.19
239.431	95.06
239.648	43.86
239.865	4.95
240.083	29.52
240.3	82.77
240.517	-9.39
240.735	43.86
240.952	25.43
241.169	86.87
241.386	76.63
241.603	31.57
241.821	-40.11
242.038	54.1
242.255	107.35
242.472	31.57
242.689	95.06
242.907	74.58
243.124	80.72
243.341	68.44
243.558	13.14
243.775	74.58
243.992	-44.2
244.209	21.33
244.426	113.49
244.643	25.43
244.86	17.24
245.078	0.85
245.295	119.64
245.512	52.05
245.729	-44.2
245.946	101.2
246.163	21.33
246.38	70.48
246.597	50
246.814	47.96
247.031	-48.3
247.248	97.11
247.464	37.72
247.681	-13.48
247.898	78.68
248.115	50
248.332	-48.3
248.549	58.2
248.766	78.68
248.983	56.15
249.2	25.43
249.417	47.96
249.633	-9.39
249.85	52.05
250.067	54.1
250.284	2.9
250.501	11.09
250.717	-1.19
250.934	27.48
251.151	39.76
251.368	31.57
251.585	17.24
251.801	11.09
252.018	111.44
252.235	64.34
252.451	-44.2
252.668	-38.06
252.885	80.72
253.102	4.95
253.318	60.24
253.535	-40.11
253.752	-62.63
253.968	29.52
254.185	31.57
254.401	-3.24
254.618	99.16
254.835	-15.53
255.051	95.06
255.268	27.48
255.484	72.53
255.701	-5.29
255.917	23.38
256.134	-3.24
256.351	41.81
256.567	9.05
256.784	70.48
257	58.2
257.217	33.62
257.433	43.86
257.65	70.48
257.866	64.34
258.082	23.38
258.299	7
258.515	70.48
258.732	-21.67
258.948	45.91
259.165	-36.01
259.381	-40.11
259.597	4.95
259.814	4.95
260.03	17.24
260.246	68.44
260.463	76.63
260.679	107.35
260.895	25.43
261.112	-19.63
261.328	27.48
261.544	97.11
261.761	148.31
261.977	62.29
262.193	-33.96
262.409	97.11
262.626	127.83
262.842	101.2
263.058	-11.43
263.274	54.1
263.49	115.54
263.707	93.01
263.923	-5.29
264.139	13.14
264.355	66.39
264.571	9.05
264.787	25.43
265.004	47.96
265.22	-7.34
265.436	9.05
265.652	58.2
265.868	56.15
266.084	9.05
266.3	-17.58
266.516	-7.34
266.732	11.09
266.948	4.95
267.164	29.52
267.38	60.24
267.596	70.48
267.812	78.68
268.028	86.87
268.244	54.1
268.46	56.15
268.676	19.29
268.892	-1.19
269.108	60.24
269.324	52.05
269.54	29.52
269.756	93.01
269.972	-40.11
270.188	19.29
270.403	54.1
270.619	95.06
270.835	50
271.051	13.14
271.267	23.38
271.483	93.01
271.698	97.11
271.914	35.67
272.13	78.68
272.346	78.68
272.562	-21.67
272.777	121.68
272.993	-36.01
273.209	35.67
273.425	70.48
273.64	19.29
273.856	103.25
274.072	11.09
274.287	-3.24
274.503	43.86
274.719	25.43
274.934	17.24
275.15	-70.83
275.366	0.85
275.581	-7.34
275.797	2.9
276.012	123.73
276.228	47.96
276.444	-3.24
276.659	88.92
276.875	2.9
277.09	17.24
277.306	9.05
277.521	52.05
277.737	62.29
277.952	-21.67
278.168	31.57
278.383	31.57
278.599	80.72
278.814	107.35
279.03	-17.58
279.245	50
279.461	-17.58
279.676	99.16
279.892	-33.96
280.107	-101.55
280.322	0.85
280.538	11.09
280.753	4.95
280.969	-7.34
281.184	54.1
281.399	76.63
281.615	-33.96
281.83	66.39
282.045	0.85
282.26	88.92
282.476	17.24
282.691	45.91
282.906	136.02
283.122	54.1
283.337	37.72
283.552	41.81
283.767	35.67
283.983	45.91
284.198	15.19
284.413	45.91
284.628	-81.07
284.843	52.05
285.058	50
285.274	-9.39
285.489	-9.39
285.704	15.19
285.919	74.58
286.134	47.96
286.349	58.2
286.564	45.91
286.779	74.58
286.995	58.2
287.21	50
287.425	97.11
287.64	-13.48
287.855	78.68
288.07	25.43
288.285	35.67
288.5	78.68
288.715	29.52
288.93	58.2
289.145	-33.96
289.36	68.44
289.575	54.1
289.79	93.01
290.004	-1.19
290.219	29.52
290.434	15.19
290.649	56.15
290.864	23.38
291.079	-29.87
291.294	39.76
291.509	45.91
291.724	84.82
291.938	15.19
292.153	43.86
292.368	-54.44
292.583	54.1
292.798	93.01
293.012	64.34
293.227	13.14
293.442	50
293.657	17.24
293.871	68.44
294.086	-9.39
294.301	133.97
294.516	82.77
294.73	101.2
294.945	-70.83
295.16	35.67
295.374	64.34
295.589	88.92
295.804	11.09
296.018	-33.96
296.233	9.05
296.447	27.48
296.662	23.38
296.877	41.81
297.091	19.29
297.306	66.39
297.52	-46.25
297.735	47.96
297.949	70.48
298.164	-15.53
298.378	82.77
298.593	15.19
298.807	64.34
299.022	13.14
299.236	158.55
299.451	21.33
299.665	-46.25
299.88	45.91
300.094	88.92
300.309	-36.01
300.523	35.67
300.737	29.52
300.952	82.77
301.166	-3.24
301.381	9.05
301.595	7
301.809	-1.19
302.024	39.76
302.238	82.77
302.452	103.25
302.667	41.81
302.881	33.62
303.095	25.43
303.309	88.92
303.524	-42.15
303.738	-1.19
303.952	19.29
304.166	68.44
304.381	-56.49
304.595	86.87
304.809	-15.53
305.023	50
305.237	-13.48
305.452	17.24
305.666	31.57
305.88	70.48
306.094	21.33
306.308	88.92
306.522	41.81
306.736	82.77
306.95	93.01
307.164	64.34
307.379	78.68
307.593	93.01
307.807	64.34
308.021	45.91
308.235	25.43
308.449	23.38
308.663	80.72
308.877	76.63
309.091	13.14
309.305	-17.58
309.519	-40.11
309.733	105.3
309.947	7
310.161	62.29
310.374	80.72
310.588	-3.24
310.802	45.91
311.016	66.39
311.23	27.48
311.444	-11.43
311.658	-124.07
311.872	86.87
312.085	21.33
312.299	-33.96
312.513	17.24
312.727	74.58
312.941	-3.24
313.154	-3.24
313.368	-13.48
313.582	88.92
313.796	7
314.009	4.95
314.223	103.25
314.437	47.96
314.651	68.44
314.864	23.38
315.078	9.05
315.292	105.3
315.505	7
315.719	127.83
315.933	86.87
316.146	31.57
316.36	52.05
316.573	64.34
316.787	68.44
317.001	15.19
317.214	-5.29
317.428	33.62
317.641	15.19
317.855	25.43
318.068	-7.34
318.282	33.62
318.495	95.06
318.709	33.62
318.922	25.43
319.136	70.48
319.349	70.48
319.563	41.81
319.776	109.4
319.99	41.81
320.203	31.57
320.417	50
320.63	41.81
320.843	105.3
321.057	105.3
321.27	47.96
321.483	58.2
321.697	2.9
321.91	80.72
322.124	74.58
322.337	35.67
322.55	15.19
322.763	11.09
322.977	4.95
323.19	39.76
323.403	39.76
323.617	68.44
323.83	111.44
324.043	37.72
324.256	2.9
324.469	50
324.683	25.43
324.896	60.24
325.109	37.72
325.322	4.95
325.535	121.68
325.748	66.39
325.962	-33.96
326.175	45.91
326.388	-21.67
326.601	-36.01
326.814	45.91
327.027	45.91
327.24	152.4
327.453	25.43
327.666	9.05
327.879	101.2
328.092	90.96
328.305	47.96
328.518	-21.67
328.731	15.19
328.944	43.86
329.157	-15.53
329.37	19.29
329.583	119.64
329.796	74.58
330.009	-50.35
330.222	101.2
330.435	90.96
330.648	80.72
330.861	31.57
331.073	60.24
331.286	54.1
331.499	82.77
331.712	-25.77
331.925	2.9
332.138	88.92
332.35	80.72
332.563	27.48
332.776	43.86
332.989	-66.73
333.202	13.14
333.414	70.48
333.627	7
333.84	-25.77
334.053	107.35
334.265	-31.91
334.478	23.38
334.691	37.72
334.903	41.81
335.116	-17.58
335.329	-1.19
335.541	31.57
335.754	140.12
335.966	27.48
336.179	52.05
336.392	35.67
336.604	31.57
336.817	66.39
337.029	80.72
337.242	7
337.454	60.24
337.667	58.2
337.88	-21.67
338.092	74.58
338.305	50
338.517	-17.58
338.729	60.24
338.942	31.57
339.154	-46.25
339.367	11.09
339.579	39.76
339.792	0.85
340.004	37.72
340.217	56.15
340.429	64.34
340.641	56.15
340.854	21.33
341.066	0.85
341.278	97.11
341.491	152.4
341.703	56.15
341.915	-56.49
342.128	52.05
342.34	9.05
342.552	9.05
342.764	72.53
342.977	-11.43
343.189	35.67
343.401	27.48
343.613	-42.15
343.826	84.82
344.038	7
344.25	-31.91
344.462	29.52
344.674	107.35
344.886	105.3
345.099	72.53
345.311	62.29
345.523	-19.63
345.735	-3.24
345.947	52.05
346.159	15.19
346.371	54.1
346.583	4.95
346.795	72.53
347.007	162.64
347.219	7
347.431	31.57
347.643	64.34
347.855	23.38
348.067	174.93
348.279	-15.53
348.491	47.96
348.703	58.2
348.915	60.24
349.127	2.9
349.339	86.87
349.551	64.34
349.763	-3.24
349.975	21.33
350.187	111.44
350.399	33.62
350.61	-29.87
350.822	50
351.034	84.82
351.246	74.58
351.458	90.96
351.669	45.91
351.881	62.29
352.093	66.39
352.305	41.81
352.517	60.24
352.728	80.72
352.94	41.81
353.152	72.53
353.363	-33.96
353.575	27.48
353.787	23.38
353.999	66.39
354.21	70.48
354.422	27.48
354.633	41.81
354.845	136.02
355.057	99.16
355.268	58.2
355.48	142.16
355.692	52.05
355.903	111.44
356.115	-50.35
356.326	-81.07
356.538	54.1
356.749	54.1
356.961	76.63
357.172	78.68
357.384	-87.21
357.595	13.14
357.807	39.76
358.018	31.57
358.23	123.73
358.441	84.82
358.653	54.1
358.864	37.72
359.075	39.76
359.287	43.86
359.498	68.44
359.709	11.09
359.921	84.82
360.132	0.85
360.344	25.43
360.555	-9.39
360.766	70.48
360.977	-44.2
361.189	43.86
361.4	-48.3
361.611	129.88
361.823	115.54
362.034	41.81
362.245	-44.2
362.456	84.82
362.667	47.96
362.879	47.96
363.09	-27.82
363.301	70.48
363.512	-3.24
363.723	47.96
363.935	9.05
364.146	62.29
364.357	-19.63
364.568	99.16
364.779	23.38
364.99	58.2
365.201	35.67
365.412	84.82
365.623	35.67
365.834	68.44
366.045	2.9
366.256	95.06
366.467	31.57
366.678	33.62
366.889	-1.19
367.1	-44.2
367.311	97.11
367.522	-3.24
367.733	54.1
367.944	60.24
368.155	21.33
368.366	-9.39
368.577	13.14
368.788	31.57
368.999	-64.68
369.209	78.68
369.42	133.97
369.631	109.4
369.842	62.29
370.053	31.57
370.264	-31.91
370.474	-25.77
370.685	78.68
370.896	29.52
371.107	56.15
371.317	47.96
371.528	45.91
371.739	101.2
371.95	74.58
372.16	144.21
372.371	31.57
372.582	80.72
372.792	80.72
373.003	13.14
373.214	64.34
373.424	93.01
373.635	15.19
373.846	154.45
374.056	17.24
374.267	68.44
374.477	86.87
374.688	-7.34
374.898	9.05
375.109	13.14
375.319	86.87
375.53	144.21
375.74	0.85
375.951	60.24
376.161	4.95
376.372	-36.01
376.582	-1.19
376.793	25.43
377.003	58.2
377.214	-72.87
377.424	-1.19
377.635	68.44
377.845	45.91
378.055	39.76
378.266	-9.39
378.476	52.05
378.686	80.72
378.897	37.72
379.107	60.24
379.317	45.91
379.528	29.52
379.738	78.68
379.948	0.85
380.158	76.63
380.369	27.48
380.579	58.2
380.789	68.44
380.999	47.96
381.21	25.43
381.42	121.68
381.63	9.05
381.84	47.96
382.05	82.77
382.261	54.1
382.471	66.39
382.681	131.92
382.891	41.81
383.101	70.48
383.311	0.85
383.521	82.77
383.731	60.24
383.941	27.48
384.151	21.33
384.361	64.34
384.571	31.57
384.781	15.19
384.991	88.92
385.201	41.81
385.411	76.63
385.621	21.33
385.831	105.3
386.041	62.29
386.251	54.1
386.461	78.68
386.671	99.16
386.881	101.2
387.091	54.1
387.301	88.92
387.511	68.44
387.72	74.58
387.93	15.19
388.14	-52.39
388.35	70.48
388.56	117.59
388.769	119.64
388.979	50
389.189	-31.91
389.399	90.96
389.609	105.3
389.818	64.34
390.028	58.2
390.238	84.82
390.447	66.39
390.657	56.15
390.867	88.92
391.076	17.24
391.286	56.15
391.496	95.06
391.705	35.67
391.915	84.82
392.125	78.68
392.334	31.57
392.544	123.73
392.753	86.87
392.963	0.85
393.172	76.63
393.382	-56.49
393.591	101.2
393.801	31.57
394.01	105.3
394.22	90.96
394.429	50
394.639	56.15
394.848	140.12
395.058	76.63
395.267	43.86
395.477	99.16
395.686	82.77
395.895	103.25
396.105	125.78
396.314	111.44
396.524	-21.67
396.733	93.01
396.942	121.68
397.152	84.82
397.361	39.76
397.57	-21.67
397.78	62.29
397.989	185.17
398.198	195.41
398.407	50
398.617	33.62
398.826	41.81
399.035	45.91
399.244	70.48
399.453	66.39
399.663	154.45
399.872	74.58
400.081	78.68
400.29	117.59
400.499	70.48
400.708	101.2
400.917	99.16
401.127	88.92
401.336	17.24
401.545	201.55
401.754	107.35
401.963	66.39
402.172	99.16
402.381	33.62
402.59	119.64
402.799	84.82
403.008	101.2
403.217	117.59
403.426	78.68
403.635	105.3
403.844	78.68
404.053	144.21
404.262	35.67
404.471	176.98
404.68	187.22
404.888	138.07
405.097	78.68
405.306	127.83
405.515	140.12
405.724	113.49
405.933	138.07
406.142	203.6
406.35	183.12
406.559	62.29
406.768	166.74
406.977	197.46
407.185	193.36
407.394	144.21
407.603	62.29
407.812	160.59
408.02	236.37
408.229	150.36
408.438	179.03
408.646	111.44
408.855	244.56
409.064	191.31
409.272	189.27
409.481	136.02
409.69	179.03
409.898	140.12
410.107	244.56
410.315	228.18
410.524	195.41
410.733	320.34
410.941	234.32
411.15	262.99
411.358	285.52
411.567	254.8
411.775	262.99
411.984	252.75
412.192	236.37
412.401	275.28
412.609	277.33
412.818	273.23
413.026	389.97
413.234	260.95
413.443	285.52
413.651	381.78
413.86	371.54
414.068	410.45
414.276	344.91
414.485	422.73
414.693	412.5
414.901	533.33
415.11	482.13
415.318	387.92
415.526	445.26
415.734	457.55
415.943	541.52
416.151	557.9
416.359	578.38
416.567	486.22
416.776	605
416.984	617.29
417.192	588.62
417.4	645.96
417.608	545.61
417.817	584.52
418.025	652.11
418.233	787.27
418.441	691.02
418.649	785.23
418.857	670.54
419.065	791.37
419.273	795.47
419.481	766.79
419.689	861
419.897	916.3
420.105	858.95
420.313	959.3
420.521	1086.28
420.729	949.06
420.937	1182.53
421.145	1104.71
421.353	1145.67
421.561	1190.72
421.769	1221.44
421.977	1229.63
422.185	1211.2
422.393	1403.71
422.601	1407.81
422.809	1393.47
423.017	1438.53
423.224	1485.63
423.432	1639.23
423.64	1573.69
423.848	1672
424.056	1635.13
424.263	1805.11
424.471	1774.39
424.679	1864.5
424.887	1846.07
425.094	1977.14
425.302	1932.09
425.51	2018.1
425.718	2091.83
425.925	2186.04
426.133	2237.24
426.341	2331.44
426.548	2501.42
426.756	2458.42
426.964	2448.18
427.171	2566.96
427.379	2669.36
427.586	2718.51
427.794	2839.34
428.001	2890.54
428.209	3029.8
428.417	3042.09
428.624	3296.04
428.832	3218.21
429.039	3121.96
429.247	3279.65
429.454	3558.18
429.662	3799.84
429.869	3541.79
430.076	3779.36
430.284	3695.39
430.491	3840.79
430.699	4098.84
430.906	4043.54
431.114	4164.37
431.321	4330.26
431.528	4373.27
431.736	4633.36
431.943	4954.89
432.15	4688.65
432.358	4817.68
432.565	5112.58
432.772	4909.83
432.979	5100.3
433.187	5204.74
433.394	5325.57
433.601	5657.34
433.808	5726.97
434.016	5780.22
434.223	5960.44
434.43	6284.02
434.637	6124.28
434.844	6527.73
435.052	6720.24
435.259	6533.87
435.466	6812.4
435.673	6630.13
435.88	7082.73
436.087	7424.74
436.294	7656.16
436.501	7320.29
436.708	7248.61
436.915	7820
437.122	8096.47
437.329	7899.87
437.537	8164.06
437.743	8334.04
437.95	8241.88
438.157	8864.46
438.364	9132.75
438.571	9145.03
438.778	9145.03
438.985	9876.16
439.192	9550.53
439.399	10062.52
439.606	9605.83
439.813	10080.96
440.02	10844.85
440.227	10554.04
440.433	10719.92
440.64	10744.5
440.847	10687.15
441.054	10994.35
441.261	11803.3
441.467	11670.18
441.674	11752.1
441.881	12165.79
442.088	12161.69
442.294	12237.47
442.501	12487.32
442.708	12960.4
442.914	13134.48
443.121	13781.64
443.328	13478.54
443.534	14547.58
443.741	14318.2
443.948	13652.61
444.154	14865.01
444.361	14922.35
444.568	15116.91
444.774	15116.91
444.981	15151.73
445.187	15491.69
445.394	15901.28
445.6	15800.93
445.807	17822.28
446.013	16736.85
446.22	17179.22
446.426	17855.04
446.633	17998.4
446.839	18371.13
447.046	17605.19
447.252	18577.98
447.459	18876.98
447.665	18913.84
447.871	19622.44
448.078	20310.56
448.284	19493.42
448.491	20113.95
448.697	20855.32
448.903	21094.93
449.11	20881.94
449.316	20849.18
449.522	21236.24
449.728	21828.1
449.935	22139.4
450.141	21768.71
450.347	22620.67
450.553	21776.91
450.76	22161.92
450.966	22886.9
451.172	22536.7
451.378	23085.56
451.584	22725.11
451.791	22979.06
451.997	23253.49
452.203	23306.74
452.409	23196.15
452.615	23691.76
452.821	22424.06
453.027	22522.37
453.233	23644.65
453.44	22782.46
453.646	22888.95
453.852	22954.49
454.058	23282.16
454.264	22555.13
454.47	23226.87
454.676	22280.71
454.882	23276.02
455.088	21131.79
455.294	21469.71
455.5	21983.75
455.705	22065.67
455.911	21277.2
456.117	20607.51
456.323	20546.08
456.529	19388.97
456.735	20490.78
456.941	19794.47
457.147	19370.54
457.352	18913.84
457.558	18825.78
457.764	18659.9
457.97	18299.45
458.176	17889.86
458.381	17871.43
458.587	16966.23
458.793	16788.05
458.999	16009.83
459.204	17328.72
459.41	16728.66
459.616	15637.09
459.821	15743.59
460.027	15559.27
460.233	15207.02
460.438	14602.87
460.644	14662.26
460.85	14099.07
461.055	13824.64
461.261	14021.25
461.466	12649.11
461.672	12370.58
461.878	13089.42
462.083	12427.93
462.289	12092.06
462.494	11743.91
462.7	11492.01
462.905	11053.74
463.111	11516.58
463.316	11463.33
463.522	11453.09
463.727	11430.57
463.932	11336.36
464.138	11170.47
464.343	11274.92
464.549	11109.04
464.754	11227.82
464.959	11227.82
465.165	11096.75
465.37	10611.38
465.575	10382.01
465.781	10721.97
465.986	10834.61
466.191	10404.53
466.397	10085.05
466.602	9751.23
466.807	10246.84
467.012	10105.53
467.218	9941.69
467.423	9990.84
467.628	10144.44
467.833	10402.49
468.038	9939.65
468.244	9906.88
468.449	9882.3
468.654	9691.84
468.859	9724.61
469.064	9476.8
469.269	9222.86
469.474	9298.63
469.679	9482.95
469.885	9140.94
470.09	9431.75
470.295	9220.81
470.5	9087.69
470.705	9292.49
470.91	8946.38
471.115	8973
471.32	9063.12
471.525	8866.51
471.73	8575.7
471.935	8647.38
472.139	8295.13
472.344	8557.27
472.549	8415.96
472.754	8256.22
472.959	8078.04
473.164	8094.43
473.369	7957.21
473.574	8065.75
473.778	8069.85
473.983	8002.27
474.188	8022.75
474.393	7580.39
474.598	7828.19
474.802	7453.41
475.007	7396.07
475.212	7529.19
475.417	7367.4
475.621	7373.54
475.826	7183.08
476.031	7213.8
476.235	7248.61
476.44	7244.52
476.645	7004.91
476.849	7107.3
477.054	6939.37
477.259	6753.01
477.463	6798.06
477.668	6638.32
477.872	6767.34
478.077	6695.66
478.282	6462.19
478.486	6556.4
478.691	6421.24
478.895	6427.38
479.1	6294.26
479.304	6333.17
479.509	6206.2
479.713	6257.4
479.918	6165.24
480.122	5993.21
480.326	6206.2
480.531	6042.36
480.735	6013.69
480.94	5966.59
481.144	6171.38
481.348	5843.71
481.553	5972.73
481.757	5729.02
481.961	6064.89
482.166	5970.68
482.37	5917.44
482.574	5718.78
482.778	5839.61
482.983	6011.64
483.187	5903.1
483.391	5851.9
483.595	5829.37
483.8	5663.49
484.004	5718.78
484.208	5913.34
484.412	5853.95
484.616	5952.25
484.821	5700.35
485.025	5831.42
485.229	5831.42
485.433	5786.37
485.637	5972.73
485.841	5815.04
486.045	5862.14
486.249	5870.33
486.453	5780.22
486.657	5835.52
486.861	5874.43
487.065	5653.25
487.269	5925.63
487.473	5890.81
487.677	6028.03
487.881	5923.58
488.085	5837.56
488.289	5802.75
488.493	5735.17
488.697	6109.94
488.901	6011.64
489.105	6009.59
489.309	5946.11
489.512	5923.58
489.716	6021.88
489.92	6134.52
490.124	5964.54
490.328	6034.17
490.531	6071.03
490.735	5923.58
490.939	5939.96
491.143	5962.49
491.346	6028.03
491.55	6132.47
491.754	6075.13
491.958	6349.56
492.161	5985.02
492.365	6111.99
492.569	6071.03
492.772	6183.67
492.976	6337.27
493.18	6380.28
493.383	6392.56
493.587	6312.69
493.79	6570.74
493.994	6337.27
494.197	6609.65
494.401	6599.41
494.605	6437.62
494.808	6456.05
495.012	6836.97
495.215	6531.83
495.419	7060.2
495.622	6875.88
495.825	6800.11
496.029	6816.49
496.232	6955.76
496.436	7049.96
496.639	7025.39
496.843	7086.83
497.046	7211.75
497.249	7520.99
497.453	7473.89
497.656	7441.12
497.859	7498.47
498.063	7598.82
498.266	7789.28
498.469	7783.13
498.673	7781.09
498.876	8028.89
499.079	7830.24
499.282	8008.41
499.485	8272.6
499.689	8231.64
499.892	8315.61
500.095	8295.13
500.298	8370.9
500.501	8612.56
500.705	8868.56
500.908	8942.28
501.111	8882.89
501.314	8882.89
501.517	9366.21
501.72	9169.61
501.923	9016.01
502.126	9323.21
502.329	9358.02
502.532	9669.31
502.735	9747.14
502.938	9839.3
503.141	9937.6
503.344	9937.6
503.547	9853.63
503.75	10400.44
503.953	10347.19
504.156	10562.23
504.359	10664.63
504.562	10545.84
504.765	10967.73
504.968	11201.19
505.17	11279.02
505.373	11266.73
505.576	11408.04
505.779	11367.08
505.982	11547.3
506.185	11629.22
506.387	11776.67
506.59	12173.98
506.793	12393.11
506.996	12278.43
507.198	12536.47
507.401	12497.56
507.604	12513.94
507.807	13122.19
508.009	13118.09
508.212	13128.33
508.415	13288.07
508.617	13466.25
508.82	13658.76
509.022	13507.21
509.225	13857.41
509.428	14269.05
509.63	14207.61
509.833	13978.24
510.035	14582.39
510.238	14643.83
510.44	14713.46
510.643	14996.08
510.845	15045.23
511.048	15078
511.25	15325.8
511.453	15489.64
511.655	16269.92
511.858	15817.32
512.06	16157.28
512.262	16239.2
512.465	16384.6
512.667	16683.61
512.87	16874.07
513.072	16935.51
513.274	17275.47
513.477	17377.87
513.679	17570.38
513.881	17855.04
514.084	17828.42
514.286	18242.11
514.488	18215.49
514.69	18979.38
514.893	18815.54
515.095	18805.3
515.297	19155.51
515.499	19155.51
515.701	19638.83
515.904	19794.47
516.106	20048.42
516.308	19919.4
516.51	20521.5
516.712	20417.05
516.914	20683.29
517.116	21256.72
517.318	21148.18
517.52	21498.38
517.722	21832.2
517.925	21942.79
518.127	22274.56
518.329	22682.11
518.531	22243.84
518.733	22721.02
518.935	22911.48
519.136	22794.75
519.338	23380.46
519.54	23564.78
519.742	23810.54
519.944	24107.49
520.146	24271.33
520.348	24484.32
520.55	24900.06
520.752	24926.68
520.954	25616.85
521.155	25086.42
521.357	25479.63
521.559	25709.01
521.761	26296.77
521.963	26261.96
522.164	26343.88
522.366	26261.96
522.568	26821.05
522.77	27064.76
522.971	27679.15
523.173	27244.98
523.375	27965.87
523.576	27752.88
523.778	27918.76
523.98	28058.03
524.181	28428.71
524.383	28795.29
524.584	29186.46
524.786	28965.28
524.988	28660.13
525.189	29376.92
525.391	29835.66
525.592	29766.03
525.794	29809.04
525.995	29993.36
526.197	30491.01
526.398	30400.9
526.6	30269.83
526.801	30560.64
527.003	30955.9
527.204	30945.66
527.406	31152.51
527.607	31146.36
527.808	31619.44
528.01	31117.69
528.211	31656.31
528.412	31783.28
528.614	31773.04
528.815	32117.1
529.016	32369
529.218	32004.46
529.419	32260.46
529.62	31988.08
529.822	32385.38
530.023	32700.77
530.224	32262.51
530.425	32657.76
530.626	32407.91
530.828	32377.19
531.029	33225.05
531.23	32774.5
531.431	33059.16
531.632	33040.73
531.833	33614.16
532.035	33452.37
532.236	33579.35
532.437	33581.4
532.638	33286.49
532.839	33538.39
533.04	33601.88
533.241	33302.87
533.442	34052.43
533.643	33675.6
533.844	33456.47
534.045	33763.67
534.246	33431.9
534.447	33696.08
534.648	33696.08
534.849	33812.82
535.05	33775.95
535.251	33761.62
535.451	34097.49
535.652	34158.92
535.853	33884.5
536.054	34085.2
536.255	34394.44
536.456	34122.06
536.657	34337.1
536.857	33960.27
537.058	33988.94
537.259	34220.36
537.46	34140.49
537.66	33907.02
537.861	34171.21
538.062	33941.84
538.263	34304.33
538.463	33974.61
538.664	34222.41
538.865	33956.18
539.065	34597.19
539.266	34109.77
539.466	34265.42
539.667	33665.36
539.868	34507.08
540.068	34232.65
540.269	34081.1
540.469	34253.13
540.67	34003.28
540.87	34048.33
541.071	34255.18
541.271	33829.2
541.472	34134.35
541.672	34246.99
541.873	33839.44
542.073	33786.19
542.274	34513.22
542.474	34152.78
542.675	33458.52
542.875	34462.02
543.075	33761.62
543.276	33763.67
543.476	34199.88
543.676	33804.63
543.877	34230.6
544.077	34009.42
544.277	34175.31
544.478	34044.24
544.678	34367.82
544.878	34034
545.078	33972.56
545.279	33829.2
545.479	34027.85
545.679	34052.43
545.879	34154.83
546.079	33603.92
546.28	33767.76
546.48	33915.22
546.68	33968.46
546.88	34113.87
547.08	34019.66
547.28	33780.05
547.48	33433.94
547.68	33907.02
547.88	33655.12
548.081	34244.94
548.281	33968.46
548.481	33880.4
548.681	34113.87
548.881	33935.7
549.081	33696.08
549.28	34040.14
549.48	33978.7
549.68	33933.65
549.88	33956.18
550.08	33501.53
550.28	34146.64
550.48	33550.68
550.68	33872.21
550.88	33542.49
551.08	33591.64
551.279	34074.96
551.479	33444.18
551.679	33976.65
551.879	33536.34
552.079	33921.36
552.278	33452.37
552.478	33485.14
552.678	33710.42
552.878	33894.74
553.077	33718.61
553.277	33552.73
553.477	33657.17
553.676	33270.11
553.876	33919.31
554.076	33704.28
554.275	33212.76
554.475	33266.01
554.674	33474.9
554.874	33323.35
555.074	33448.28
555.273	33591.64
555.473	33395.03
555.672	33261.91
555.872	33347.93
556.071	33038.69
556.271	33257.82
556.47	33212.76
556.67	32932.19
556.869	33233.24
557.068	33284.44
557.268	32438.63
557.467	32944.48
557.667	32778.59
557.866	32952.67
558.065	32774.5
558.265	32184.68
558.464	32340.33
558.663	32995.68
558.863	32061.8
559.062	32938.33
559.261	32536.93
559.461	32602.47
559.66	31988.08
559.859	32305.51
560.058	32000.37
560.258	32205.16
560.457	31934.83
560.656	31900.01
560.855	31955.31
561.054	32016.75
561.253	31650.16
561.453	32104.81
561.652	31738.23
561.851	31738.23
562.05	31809.9
562.249	31332.73
562.448	31871.34
562.647	31623.54
562.846	31066.49
563.045	31558
563.244	31117.69
563.443	31273.34
563.642	30773.63
563.841	31009.15
564.04	30689.67
564.239	31244.66
564.438	30617.99
564.637	30450.05
564.836	30919.04
565.035	30321.03
565.234	30486.92
565.432	30189.96
565.631	29936.01
565.83	30163.34
566.029	29886.86
566.228	29768.08
566.427	29702.54
566.625	29397.4
566.824	29503.89
567.023	29688.21
567.222	29323.67
567.42	29630.87
567.619	29309.33
567.818	29514.13
568.016	28909.98
568.215	29360.53
568.414	29043.1
568.612	29149.59
568.811	28576.16
569.01	28901.79
569.208	28219.81
569.407	28748.19
569.605	28297.64
569.804	28463.52
570.002	28185
570.201	28418.47
570.4	28244.39
570.598	27713.97
570.797	27701.68
570.995	27713.97
571.193	27322.8
571.392	27953.58
571.59	27496.88
571.789	27232.69
571.987	27316.66
572.186	27382.2
572.384	26759.61
572.582	27220.41
572.781	27001.27
572.979	26593.73
573.177	26790.33
573.376	26999.23
573.574	26585.54
573.772	26796.48
573.971	26382.79
574.169	26296.77
574.367	26071.5
574.565	25997.77
574.763	25989.58
574.962	25981.38
575.16	25729.48
575.358	25782.73
575.556	25256.4
575.754	25680.33
575.952	25442.77
576.151	25534.93
576.349	25125.33
576.547	25117.14
576.745	25311.7
576.943	25199.06
577.141	24852.95
577.339	24832.47
577.537	24904.15
577.735	24893.91
577.933	24672.73
578.131	24955.35
578.329	24482.27
578.527	24392.16
578.725	24242.66
578.923	24291.81
579.121	23953.9
579.319	24408.54
579.516	24246.76
579.714	23831.02
579.912	24007.14
580.11	23556.59
580.308	23654.89
580.506	24003.05
580.704	23546.35
580.901	23699.95
581.099	23589.36
581.297	23151.09
581.495	23392.75
581.692	23253.49
581.89	23288.31
582.088	23448.05
582.285	22940.15
582.483	22774.27
582.681	22673.92
582.878	22743.55
583.076	22548.99
583.274	22661.63
583.471	22651.39
583.669	22794.75
583.866	22098.44
584.064	22442.49
584.262	22120.96
584.459	22319.62
584.657	22088.2
584.854	22311.42
585.052	21801.48
585.249	21897.74
585.447	22194.69
585.644	21494.29
585.841	21848.58
586.039	21826.06
586.236	21621.26
586.434	21430.8
586.631	21549.58
586.828	21342.74
587.026	21492.24
587.223	21240.34
587.42	21201.43
587.618	21164.56
587.815	20826.65
588.012	21017.11
588.21	20724.25
588.407	20986.39
588.604	20621.85
588.801	20699.67
588.999	20804.12
589.196	20840.98
589.393	20494.88
589.59	20550.17
589.787	20132.39
589.984	20191.78
590.182	20095.52
590.379	20199.97
590.576	20134.43
590.773	20116
590.97	19993.12
591.167	20093.47
591.364	19829.29
591.561	20152.87
591.758	19702.31
591.955	19649.07
592.152	19696.17
592.349	19782.18
592.546	19534.38
592.743	19767.85
592.94	19366.45
593.137	19442.22
593.334	19556.91
593.531	19069.49
593.727	19003.96
593.924	19178.03
594.121	18975.28
594.318	19239.47
594.515	18813.49
594.712	19102.26
594.908	18897.46
595.105	18881.08
595.302	18629.18
595.499	18518.59
595.696	18625.08
595.892	18553.4
596.089	18518.59
596.286	18659.9
596.482	18555.45
596.679	18305.6
596.876	18182.72
597.072	18147.9
597.269	18346.56
597.466	17787.46
597.662	17844.81
597.859	18035.27
598.055	17996.35
598.252	18006.59
598.448	17660.49
598.645	17721.93
598.841	17488.46
599.038	17887.81
599.234	17662.54
599.431	17394.25
599.627	17427.02
599.824	17457.74
600.02	17298
600.217	17341
600.413	17029.71
600.609	17128.02
600.806	17095.25
601.002	17201.74
601.198	16994.9
601.395	16958.03
601.591	16921.17
601.787	17070.67
601.984	16704.09
602.18	16859.73
602.376	16755.29
602.572	16556.63
602.769	16728.66
602.965	16237.15
603.161	16487
603.357	16355.93
603.553	16364.12
603.75	16435.8
603.946	16138.85
604.142	16202.33
604.338	15983.2
604.534	16188
604.73	15833.7
604.926	15792.74
605.122	16003.68
605.318	15845.99
605.514	15794.79
605.71	15755.88
605.906	15968.87
606.102	15743.59
606.298	15825.51
606.494	15954.53
606.69	15641.19
606.886	15639.14
607.082	15147.63
607.278	15497.83
607.474	15256.17
607.67	15327.85
607.866	14955.12
608.062	15510.12
608.257	14912.11
608.453	15223.41
608.649	15094.38
608.845	14932.59
609.041	15020.66
609.236	15123.05
609.432	14912.11
609.628	14920.31
609.824	15069.81
610.019	14819.96
610.215	14987.89
610.411	14660.21
610.606	14672.5
610.802	14604.92
610.998	14574.2
611.193	14832.24
611.389	14627.45
611.584	14647.93
611.78	14477.94
611.976	14520.95
612.171	14500.47
612.367	14445.18
612.562	14228.09
612.758	14129.79
612.953	14197.37
613.149	14580.34
613.344	14267
613.539	14355.07
613.735	14164.61
613.93	14336.63
614.126	14074.49
614.321	14275.2
614.517	13978.24
614.712	13722.24
614.907	13937.28
615.103	14113.41
615.298	14029.44
615.493	13939.33
615.688	13836.93
615.884	14090.88
616.079	13705.86
616.274	13892.23
616.47	13857.41
616.665	13531.78
616.86	13636.23
617.055	13423.24
617.25	13499.02
617.445	13812.35
617.641	13304.46
617.836	13585.03
618.031	13277.83
618.226	13460.1
618.421	13271.69
618.616	13410.95
618.811	13347.47
619.006	13427.34
619.201	12892.82
619.396	13324.94
619.591	12628.63
619.786	13017.74
619.981	12817.04
620.176	12878.48
620.371	12776.08
620.566	12802.71
620.761	12640.92
620.956	12720.79
621.151	12538.52
621.346	12352.15
621.541	12450.46
621.735	12442.26
621.93	12366.49
622.125	12268.19
622.32	12106.4
622.515	12051.1
622.709	12247.71
622.904	12092.06
623.099	11811.49
623.294	12069.53
623.488	11862.69
623.683	11829.92
623.878	11780.77
624.072	11643.56
624.267	11645.6
624.462	11522.73
624.656	11539.11
624.851	11592.36
625.046	11168.43
625.24	11193
625.435	11332.26
625.629	11135.66
625.824	11190.95
626.018	11242.15
626.213	10818.22
626.407	10932.91
626.602	10863.28
626.796	10744.5
626.991	10730.16
627.185	10590.9
627.38	10513.08
627.574	10586.8
627.768	10416.82
627.963	10418.87
628.157	10394.29
628.352	10484.41
628.546	10279.61
628.74	10427.06
628.935	10220.22
629.129	10121.91
629.323	9874.11
629.517	10093.24
629.712	10089.15
629.906	10083
630.1	9908.93
630.294	9929.41
630.489	9775.81
630.683	9765.57
630.877	9716.42
631.071	9626.31
631.265	9638.59
631.459	9489.09
631.653	9599.68
631.848	9427.65
632.042	9296.58
632.236	9378.5
632.43	9259.72
632.624	9327.3
632.818	9169.61
633.012	9126.6
633.206	9048.78
633.4	9009.87
633.594	8985.29
633.788	8997.58
633.982	9011.92
634.176	8809.17
634.369	8819.41
634.563	8899.28
634.757	8684.24
634.951	8696.53
635.145	8835.79
635.339	8385.24
635.533	8530.64
635.726	8692.43
635.92	8407.77
636.114	8467.16
636.308	8366.81
636.501	8329.94
636.695	8469.2
636.889	8039.13
637.083	8219.35
637.276	8141.53
637.47	7918.3
637.664	7973.6
637.857	8291.03
638.051	7836.38
638.244	7895.77
638.438	7779.04
638.632	7842.53
638.825	7781.09
639.019	7709.41
639.212	7621.35
639.406	7658.21
639.599	7598.82
639.793	7617.25
639.986	7535.33
640.18	7502.56
640.373	7457.51
640.567	7398.12
640.76	7443.17
640.954	7365.35
641.147	7244.52
641.34	7129.83
641.534	7277.29
641.727	7017.19
641.92	7021.29
642.114	6982.38
642.307	7107.3
642.5	6879.98
642.694	6859.5
642.887	6935.28
643.08	7019.24
643.273	6818.54
643.467	6740.72
643.66	6755.05
643.853	6642.42
644.046	6617.84
644.239	6732.53
644.432	6513.39
644.626	6402.8
644.819	6537.97
645.012	6505.2
645.205	6529.78
645.398	6406.9
645.591	6365.94
645.784	6329.08
645.977	6232.82
646.17	6292.21
646.363	6298.36
646.556	6128.38
646.749	6150.9
646.942	6064.89
647.135	6146.81
647.328	6087.42
647.521	5864.19
647.714	5989.11
647.907	6089.46
648.099	5876.48
648.292	5970.68
648.485	5749.5
648.678	5683.97
648.871	5882.62
649.064	5712.64
649.256	5903.1
649.449	5704.45
649.642	5665.53
649.835	5581.57
650.027	5724.93
650.22	5354.24
650.413	5516.03
650.605	5640.96
650.798	5503.75
650.991	5387.01
651.183	5479.17
651.376	5200.65
651.568	5399.3
651.761	5368.58
651.954	5346.05
652.146	5241.61
652.339	5186.31
652.531	5311.24
652.724	5282.56
652.916	5196.55
653.109	5286.66
653.301	5073.67
653.494	5233.41
653.686	5118.73
653.879	5071.62
654.071	5063.43
654.263	5137.16
654.456	5008.14
654.648	5077.77
654.84	4963.08
655.033	4829.96
655.225	4913.93
655.417	4825.87
655.61	4735.76
655.802	4858.64
655.994	4907.79
656.186	4821.77
656.379	4748.04
656.571	4664.08
656.763	4565.78
656.955	4608.78
657.148	4619.02
657.34	4633.36
657.532	4563.73
657.724	4500.24
657.916	4569.87
658.108	4641.55
658.3	4469.52
658.492	4563.73
658.684	4332.31
658.876	4422.42
659.068	4414.23
659.26	4369.17
659.452	4526.86
659.644	4477.71
659.836	4375.31
660.028	4266.77
660.22	4270.87
660.412	4283.16
660.604	4344.6
660.796	4272.92
660.988	4309.78
661.18	4074.26
661.372	4043.54
661.563	4180.76
661.755	4016.92
661.947	4168.47
662.139	4006.68
662.331	3941.15
662.522	4049.69
662.714	3914.52
662.906	4086.55
663.097	4035.35
663.289	4004.63
663.481	3969.82
663.673	3992.34
663.864	3889.95
664.056	3965.72
664.247	3982.1
664.439	3937.05
664.631	3988.25
664.822	3799.84
665.014	3865.37
665.205	3875.61
665.397	3928.86
665.588	3791.64
665.78	3771.16
665.971	3754.78
666.163	3781.4
666.354	3730.2
666.546	3779.36
666.737	3775.26
666.929	3748.64
667.12	3754.78
667.311	3713.82
667.503	3695.39
667.694	3646.24
667.885	3814.17
668.077	3627.81
668.268	3556.13
668.459	3636
668.651	3685.15
668.842	3558.18
669.033	3640.09
669.224	3547.94
669.416	3539.74
669.607	3615.52
669.798	3486.5
669.989	3562.27
670.18	3695.39
670.371	3541.79
670.563	3466.02
670.754	3486.5
670.945	3517.22
671.136	3607.33
671.327	3410.72
671.518	3560.22
671.709	3470.11
671.9	3533.6
672.091	3599.13
672.282	3539.74
672.473	3488.54
672.664	3519.26
672.855	3414.82
673.046	3425.06
673.237	3599.13
673.428	3408.67
673.619	3547.94
673.809	3373.86
674	3443.49
674.191	3429.15
674.382	3396.39
674.573	3439.39
674.764	3447.58
674.954	3359.52
675.145	3291.94
675.336	3363.62
675.527	3498.78
675.717	3371.81
675.908	3302.18
676.099	3408.67
676.289	3447.58
676.48	3478.3
676.671	3339.04
676.861	3451.68
677.052	3453.73
677.243	3445.54
677.433	3322.66
677.624	3410.72
677.814	3351.33
678.005	3488.54
678.195	3486.5
678.386	3468.06
678.576	3298.08
678.767	3283.75
678.957	3515.17
679.148	3576.61
679.338	3449.63
679.529	3433.25
679.719	3476.26
679.909	3441.44
680.1	3308.32
680.29	3437.34
680.481	3531.55
680.671	3355.43
680.861	3525.41
681.052	3533.6
681.242	3357.47
681.432	3470.11
681.622	3560.22
681.813	3496.74
682.003	3431.2
682.193	3416.87
682.383	3525.41
682.573	3515.17
682.764	3312.42
682.954	3570.46
683.144	3484.45
683.334	3285.8
683.524	3435.3
683.714	3449.63
683.904	3515.17
684.094	3429.15
684.284	3392.29
684.474	3429.15
684.664	3459.87
684.854	3533.6
685.044	3396.39
685.234	3359.52
685.424	3423.01
685.614	3506.98
685.804	3394.34
685.994	3511.07
686.184	3371.81
686.374	3463.97
686.564	3472.16
686.753	3320.61
686.943	3298.08
687.133	3482.4
687.323	3304.23
687.513	3394.34
687.702	3320.61
687.892	3459.87
688.082	3240.74
688.272	3392.29
688.461	3257.12
688.651	3308.32
688.841	3173.16
689.03	3244.84
689.22	3162.92
689.41	3234.6
689.599	3189.54
689.789	3277.6
689.979	3281.7
690.168	3253.03
690.358	3089.19
690.547	3263.27
690.737	3156.77
690.926	3126.05
691.116	3091.24
691.305	3177.25
691.495	3105.57
691.684	3027.75
691.874	3087.14
692.063	3197.73
692.252	3062.57
692.442	3115.81
692.631	2827.05
692.82	3019.56
693.01	2964.26
693.199	2894.63
693.388	2976.55
693.578	2904.87
693.767	2841.39
693.956	2753.32
694.146	2884.39
694.335	2763.56
694.524	2773.8
694.713	2972.46
694.902	2788.14
695.092	2925.35
695.281	2853.67
695.47	2816.81
695.659	2841.39
695.848	2792.23
696.037	2773.8
696.226	2728.75
696.415	2806.57
696.604	2853.67
696.793	2771.76
696.982	2732.84
697.171	2882.35
697.36	2786.09
697.549	2724.65
697.738	2724.65
697.927	2798.38
698.116	2855.72
698.305	2820.91
698.494	2851.63
698.683	2837.29
698.872	2716.46
699.061	2804.52
699.25	2773.8
699.438	2722.6
699.627	2810.67
699.816	2798.38
700.005	2616.11
700.193	2741.04
700.382	2825
700.571	2747.18
700.76	2734.89
700.948	2800.43
701.137	2812.71
701.326	2818.86
701.514	2716.46
701.703	2812.71
701.892	2779.95
702.08	2880.3
702.269	2841.39
702.457	2749.23
702.646	2700.08
702.834	2874.15
703.023	2831.15
703.212	2712.36
703.4	2716.46
703.589	2769.71
703.777	2847.53
703.965	2790.19
704.154	2908.97
704.342	2753.32
704.531	2804.52
704.719	2755.37
704.907	2878.25
705.096	2732.84
705.284	2786.09
705.472	2786.09
705.661	2876.2
705.849	2978.6
706.037	3001.13
706.226	2919.21
706.414	2870.06
706.602	2851.63
706.79	2870.06
706.979	2855.72
707.167	2958.12
707.355	2788.14
707.543	2804.52
707.731	2937.64
707.919	2865.96
708.107	2822.95
708.296	2868.01
708.484	2810.67
708.672	3029.8
708.86	2888.49
709.048	2781.99
709.236	2798.38
709.424	2904.87
709.612	2976.55
709.8	2896.68
709.988	2876.2
710.176	2919.21
710.364	2999.08
710.551	2984.74
710.739	2956.07
710.927	2974.5
711.115	2960.17
711.303	2994.98
711.491	2874.15
711.679	2886.44
711.866	2839.34
712.054	3060.52
712.242	2939.69
712.43	3013.42
712.617	3031.85
712.805	3044.13
712.993	3035.94
713.181	3019.56
713.368	3066.66
713.556	2992.94
713.744	2994.98
713.931	3197.73
714.119	3003.18
714.306	3091.24
714.494	3089.19
714.682	3042.09
714.869	3046.18
715.057	3052.33
715.244	2937.64
715.432	3140.39
715.619	3128.1
715.807	2966.31
715.994	3248.93
716.182	3007.27
716.369	3144.49
716.556	3101.48
716.744	2968.36
716.931	2913.06
717.119	3255.08
717.306	3175.2
717.493	3154.73
717.681	3048.23
717.868	3185.44
718.055	3259.17
718.242	3160.87
718.43	3128.1
718.617	3261.22
718.804	3179.3
718.991	3273.51
719.179	3193.64
719.366	3126.05
719.553	3167.01
719.74	3179.3
719.927	3302.18
720.114	3285.8
720.301	3271.46
720.488	3222.31
720.676	3173.16
720.863	3328.8
721.05	3269.41
721.237	3322.66
721.424	3308.32
721.611	3265.32
721.798	3285.8
721.985	3265.32
722.172	3351.33
722.358	3265.32
722.545	3377.95
722.732	3298.08
722.919	3347.23
723.106	3343.14
723.293	3220.26
723.48	3324.71
723.667	3347.23
723.853	3355.43
724.04	3410.72
724.227	3420.96
724.414	3291.94
724.6	3400.48
724.787	3418.91
724.974	3439.39
725.161	3441.44
725.347	3281.7
725.534	3466.02
725.72	3445.54
725.907	3457.82
726.094	3336.99
726.28	3388.19
726.467	3377.95
726.653	3332.9
726.84	3492.64
727.027	3386.15
727.213	3535.65
727.4	3451.68
727.586	3576.61
727.773	3472.16
727.959	3408.67
728.145	3500.83
728.332	3519.26
728.518	3529.5
728.705	3562.27
728.891	3382.05
729.077	3556.13
729.264	3545.89
729.45	3558.18
729.636	3629.85
729.823	3554.08
730.009	3738.4
730.195	3595.04
730.382	3623.71
730.568	3525.41
730.754	3656.48
730.94	3660.57
731.126	3666.72
731.313	3617.57
731.499	3453.73
731.685	3709.72
731.871	3584.8
732.057	3638.05
732.243	3697.44
732.429	3658.53
732.615	3699.48
732.801	3599.13
732.987	3656.48
733.173	3599.13
733.359	3738.4
733.545	3719.96
733.731	3699.48
733.917	3668.77
734.103	3848.99
734.289	3494.69
734.475	3617.57
734.661	3726.11
734.847	3801.88
735.033	3779.36
735.219	3689.25
735.404	3746.59
735.59	3685.15
735.776	3654.43
735.962	3746.59
736.148	3699.48
736.333	3685.15
736.519	3703.58
736.705	3820.32
736.89	3584.8
737.076	3787.55
737.262	3590.94
737.447	3799.84
737.633	3629.85
737.819	3666.72
738.004	3621.66
738.19	3814.17
738.375	3693.34
738.561	3683.1
738.747	3636
738.932	3599.13
739.118	3656.48
739.303	3664.67
739.489	3607.33
739.674	3605.28
739.859	3705.63
740.045	3498.78
740.23	3750.68
740.416	3701.53
740.601	3683.1
740.786	3466.02
740.972	3597.09
741.157	3560.22
741.342	3496.74
741.528	3549.98
741.713	3640.09
741.898	3572.51
742.084	3525.41
742.269	3619.61
742.454	3582.75
742.639	3685.15
742.824	3562.27
743.01	3605.28
743.195	3652.38
743.38	3459.87
743.565	3502.88
743.75	3543.84
743.935	3410.72
744.12	3549.98
744.305	3384.1
744.49	3384.1
744.675	3470.11
744.86	3373.86
745.045	3472.16
745.23	3316.51
745.415	3431.2
745.6	3318.56
745.785	3423.01
745.97	3396.39
746.155	3380
746.34	3392.29
746.525	3326.75
746.71	3549.98
746.895	3298.08
747.079	3232.55
747.264	3246.88
747.449	3394.34
747.634	3138.34
747.819	3136.29
748.003	3146.53
748.188	2974.5
748.373	3115.81
748.557	3154.73
748.742	3015.46
748.927	3089.19
749.111	3087.14
749.296	3005.22
749.481	3142.44
749.665	2951.98
749.85	2958.12
750.034	3058.47
750.219	2943.78
750.404	2956.07
750.588	2847.53
750.773	2878.25
750.957	2994.98
751.141	2884.39
751.326	2839.34
751.51	2849.58
751.695	2949.93
751.879	2878.25
752.064	2714.41
752.248	2794.28
752.432	2763.56
752.617	2706.22
752.801	2659.12
752.985	2624.3
753.17	2583.34
753.354	2632.49
753.538	2560.81
753.722	2540.33
753.907	2605.87
754.091	2548.53
754.275	2542.38
754.459	2526
754.643	2456.37
754.828	2515.76
755.012	2435.89
755.196	2435.89
755.38	2386.74
755.564	2386.74
755.748	2392.88
755.932	2411.31
756.116	2419.5
756.3	2419.5
756.484	2327.35
756.668	2437.94
756.852	2200.37
757.036	2323.25
757.22	2276.15
757.404	2233.14
757.588	2175.8
757.772	2360.11
757.956	2298.67
758.14	2282.29
758.323	2265.91
758.507	2319.15
758.691	2208.56
758.875	2122.55
759.059	2194.23
759.242	2046.77
759.426	2003.77
759.61	2147.12
759.794	2163.51
759.977	2087.73
760.161	2229.04
760.345	2028.34
760.528	2134.84
760.712	2138.93
760.895	2036.53
761.079	2091.83
761.263	2069.3
761.446	1971
761.63	1952.57
761.813	1903.42
761.997	1850.17
762.18	1995.57
762.364	1893.18
762.547	1946.42
762.731	1903.42
762.914	1925.94
763.098	1817.4
763.281	1934.14
763.464	1901.37
763.648	1938.23
763.831	1893.18
764.015	1780.54
764.198	1805.11
764.381	1907.51
764.564	1803.07
764.748	1872.7
764.931	1755.96
765.114	1702.72
765.297	1825.59
765.481	1760.06
765.664	1766.2
765.847	1659.71
766.03	1749.82
766.213	1708.86
766.397	1643.32
766.58	1657.66
766.763	1690.43
766.946	1645.37
767.129	1633.08
767.312	1729.34
767.495	1600.32
767.678	1647.42
767.861	1706.81
768.044	1719.1
768.227	1694.52
768.41	1751.87
768.593	1641.28
768.776	1663.8
768.959	1596.22
769.142	1641.28
769.324	1557.31
769.507	1585.98
769.69	1512.25
769.873	1479.49
770.056	1641.28
770.239	1624.89
770.421	1495.87
770.604	1612.6
770.787	1540.93
770.97	1547.07
771.152	1538.88
771.335	1524.54
771.518	1581.89
771.7	1542.97
771.883	1569.6
772.066	1440.58
772.248	1536.83
772.431	1508.16
772.613	1385.28
772.796	1463.1
772.978	1444.67
773.161	1518.4
773.343	1323.84
773.526	1399.62
773.708	1309.51
773.891	1340.22
774.073	1342.27
774.256	1356.61
774.438	1409.86
774.621	1225.54
774.803	1231.68
774.985	1268.55
775.168	1166.15
775.35	1338.18
775.532	1184.58
775.715	1362.75
775.897	1235.78
776.079	1270.59
776.261	1299.27
776.444	1184.58
776.626	1166.15
776.808	1135.43
776.99	1221.44
777.173	1209.15
777.355	1157.96
777.537	1127.24
777.719	1241.92
777.901	1172.29
778.083	1033.03
778.265	1151.81
778.447	1139.52
778.629	1063.75
778.811	1106.76
778.993	1180.48
779.175	1076.04
779.357	1026.89
779.539	1012.55
779.721	1049.41
779.903	1053.51
780.085	1071.94
780.267	1028.93
780.449	1028.93
780.631	961.35
780.812	1035.08
780.994	967.49
781.176	1022.79
781.358	934.73
781.54	934.73
781.721	994.12
781.903	944.97
782.085	817.99
782.267	975.69
782.448	908.1
782.63	973.64
782.812	985.93
782.993	949.06
783.175	920.39
783.357	920.39
783.538	908.1
783.72	856.9
783.901	817.99
784.083	936.78
784.264	840.52
784.446	779.08
784.627	865.1
784.809	867.14
784.99	766.79
785.172	869.19
785.353	828.23
785.535	762.7
785.716	811.85
785.897	695.11
786.079	701.26
786.26	731.98
786.441	871.24
786.623	645.96
786.804	719.69
786.985	803.66
787.167	731.98
787.348	727.88
787.529	795.47
787.71	783.18
787.891	779.08
788.073	641.87
788.254	715.59
788.435	684.87
788.616	686.92
788.797	613.2
788.978	619.34
789.159	709.45
789.34	652.11
789.522	695.11
789.703	709.45
789.884	658.25
790.065	652.11
790.246	594.76
790.427	650.06
790.607	633.68
790.788	645.96
790.969	590.67
791.15	580.43
791.331	510.8
791.512	596.81
791.693	613.2
791.874	557.9
792.054	643.92
792.235	555.85
792.416	584.52
792.597	590.67
792.778	566.09
792.958	488.27
793.139	504.65
793.32	572.24
793.5	516.94
793.681	504.65
793.862	574.28
794.042	582.48
794.223	555.85
794.404	500.56
794.584	447.31
794.765	498.51
794.945	512.85
795.126	541.52
795.306	578.38
795.487	525.13
795.667	527.18
795.848	512.85
796.028	459.6
796.209	584.52
796.389	543.57
796.57	557.9
796.75	449.36
796.93	559.95
797.111	482.13
797.291	441.17
797.471	471.89
797.652	453.45
797.832	398.16
798.012	471.89
798.192	447.31
798.373	369.49
798.553	441.17
798.733	447.31
798.913	424.78
799.093	435.02
799.274	451.41
799.454	467.79
799.634	443.21
799.814	510.8
799.994	396.11
800.174	428.88
800.354	469.84
800.534	365.39
800.714	387.92
800.894	494.41
801.074	402.26
801.254	432.97
801.434	473.93
801.614	357.2
801.794	379.73
801.974	1096.52
802.154	426.83
802.334	392.02
802.514	379.73
802.693	392.02
802.873	373.58
803.053	453.45
803.233	402.26
803.413	389.97
803.592	406.35
803.772	381.78
803.952	353.1
804.131	492.37
804.311	324.43
804.491	426.83
804.67	369.49
804.85	424.78
805.03	469.84
805.209	389.97
805.389	301.9
805.568	299.86
805.748	318.29
805.928	369.49
806.107	367.44
806.287	346.96
806.466	326.48
806.646	312.14
806.825	310.1
807.004	306
807.184	222.03
807.363	332.62
807.543	338.77
807.722	277.33
807.901	365.39
808.081	346.96
808.26	320.34
808.439	346.96
808.619	324.43
808.798	340.82
808.977	283.47
809.156	324.43
809.336	219.99
809.515	330.58
809.694	369.49
809.873	258.9
810.052	297.81
810.231	318.29
810.411	359.25
810.59	291.66
810.769	316.24
810.948	287.57
811.127	213.84
811.306	275.28
811.485	230.23
811.664	289.62
811.843	340.82
812.022	295.76
812.201	228.18
812.38	283.47
812.559	377.68
812.737	287.57
812.916	252.75
813.095	236.37
813.274	324.43
813.453	281.43
813.632	215.89
813.811	328.53
813.989	189.27
814.168	338.77
814.347	244.56
814.526	236.37
814.704	324.43
814.883	273.23
815.062	330.58
815.24	267.09
815.419	205.65
815.598	297.81
815.776	226.13
815.955	308.05
816.133	301.9
816.312	248.66
816.49	209.75
816.669	185.17
816.847	172.88
817.026	258.9
817.204	197.46
817.383	246.61
817.561	303.95
817.74	275.28
817.918	215.89
818.097	179.03
818.275	179.03
818.453	273.23
818.632	244.56
818.81	215.89
818.988	207.7
819.167	224.08
819.345	162.64
819.523	158.55
819.701	203.6
819.879	226.13
820.058	226.13
820.236	170.83
820.414	205.65
820.592	170.83
820.77	101.2
820.948	203.6
821.127	166.74
821.305	168.79
821.483	193.36
821.661	174.93
821.839	131.92
822.017	205.65
822.195	179.03
822.373	181.07
822.551	246.61
822.729	152.4
822.907	193.36
823.085	203.6
823.262	224.08
823.44	232.27
823.618	136.02
823.796	170.83
823.974	146.26
824.152	101.2
824.329	119.64
824.507	191.31
824.685	209.75
824.863	146.26
825.04	166.74
825.218	252.75
825.396	154.45
825.574	160.59
825.751	260.95
825.929	254.8
826.107	211.79
826.284	197.46
826.462	183.12
826.639	183.12
826.817	191.31
826.994	189.27
827.172	158.55
827.349	205.65
827.527	148.31
827.704	250.71
827.882	183.12
828.059	209.75
828.237	189.27
828.414	179.03
828.591	109.4
828.769	140.12
828.946	127.83
829.124	201.55
829.301	179.03
829.478	160.59
829.655	183.12
829.833	107.35
830.01	97.11
830.187	97.11
830.364	168.79
830.542	164.69
830.719	215.89
830.896	179.03
831.073	156.5
831.25	205.65
831.427	168.79
831.604	203.6
831.782	119.64
831.959	164.69
832.136	117.59
832.313	166.74
832.49	64.34
832.667	146.26
832.844	164.69
833.021	170.83
833.198	109.4
833.374	123.73
833.551	242.51
833.728	136.02
833.905	170.83
834.082	129.88
834.259	150.36
834.436	140.12
834.612	86.87
834.789	72.53
834.966	97.11
835.143	125.78
835.319	150.36
835.496	240.47
835.673	148.31
835.85	170.83
836.026	176.98
836.203	164.69
836.38	129.88
836.556	74.58
836.733	170.83
836.909	152.4
837.086	125.78
837.262	158.55
837.439	90.96
837.616	37.72
837.792	144.21
837.968	224.08
838.145	84.82
838.321	168.79
838.498	148.31
838.674	154.45
838.851	154.45
839.027	37.72
839.203	52.05
839.38	88.92
839.556	95.06
839.732	127.83
839.909	90.96
840.085	80.72
840.261	95.06
840.437	248.66
840.614	97.11
840.79	146.26
840.966	127.83
841.142	160.59
841.318	21.33
841.494	136.02
841.671	97.11
841.847	56.15
842.023	56.15
842.199	97.11
842.375	129.88
842.551	72.53
842.727	60.24
842.903	125.78
843.079	-36.01
843.255	93.01
843.431	50
843.607	62.29
843.783	76.63
843.959	144.21
844.134	21.33
844.31	166.74
844.486	56.15
844.662	103.25
844.838	103.25
845.013	129.88
845.189	101.2
845.365	129.88
845.541	86.87
845.716	90.96
845.892	33.62
846.068	113.49
846.244	113.49
846.419	158.55
846.595	41.81
846.77	88.92
846.946	119.64
847.122	101.2
847.297	74.58
847.473	109.4
847.648	25.43
847.824	60.24
847.999	25.43
848.175	47.96
848.35	121.68
848.526	144.21
848.701	95.06
848.876	113.49
849.052	74.58
849.227	39.76
849.403	37.72
849.578	41.81
849.753	33.62
849.929	62.29
850.104	82.77
850.279	68.44
850.454	93.01
850.63	58.2
850.805	88.92
850.98	60.24
851.155	84.82
851.33	88.92
851.505	41.81
851.681	125.78
851.856	101.2
852.031	152.4
852.206	54.1
852.381	2.9
852.556	62.29
852.731	62.29
852.906	125.78
853.081	74.58
853.256	113.49
853.431	93.01
853.606	86.87
853.781	21.33
853.956	-85.16
854.131	103.25
854.305	17.24
854.48	27.48
854.655	70.48
854.83	66.39
855.005	105.3
855.18	109.4
855.354	31.57
855.529	150.36
855.704	11.09
855.879	27.48
856.053	11.09
856.228	84.82
856.403	82.77
856.577	56.15
856.752	27.48
856.926	-3.24
857.101	62.29
857.276	97.11
857.45	133.97
857.625	86.87
857.799	90.96
857.974	2.9
858.148	21.33
858.323	109.4
858.497	52.05
858.672	-1.19
858.846	43.86
859.02	93.01
859.195	11.09
859.369	62.29
859.543	76.63
859.718	95.06
859.892	21.33
860.066	66.39
860.241	-21.67
860.415	-40.11
860.589	31.57
860.763	17.24
860.938	19.29
861.112	101.2
861.286	101.2
861.46	123.73
861.634	76.63
861.808	70.48
861.982	76.63
862.157	-15.53
862.331	129.88
862.505	-36.01
862.679	62.29
862.853	82.77
863.027	-11.43
863.201	62.29
863.375	37.72
863.549	60.24
863.722	64.34
863.896	105.3
864.07	-50.35
864.244	19.29
864.418	-15.53
864.592	35.67
864.766	84.82
864.939	129.88
865.113	68.44
865.287	158.55
865.461	31.57
865.634	64.34
865.808	31.57
865.982	-19.63
866.156	29.52
866.329	43.86
866.503	39.76
866.676	-3.24
866.85	31.57
867.024	-33.96
867.197	76.63
867.371	-15.53
867.544	43.86
867.718	4.95
867.891	47.96
868.065	2.9
868.238	27.48
868.412	103.25
868.585	54.1
868.759	103.25
868.932	27.48
869.105	66.39
869.279	-19.63
869.452	-60.59
869.625	-50.35
869.799	41.81
869.972	23.38
870.145	2.9
870.319	33.62
870.492	41.81
870.665	-54.44
870.838	-3.24
871.011	15.19
871.185	-27.82
871.358	-7.34
871.531	13.14
871.704	66.39
871.877	33.62
872.05	64.34
872.223	-31.91
872.396	64.34
872.569	25.43
872.742	13.14
872.915	88.92
873.088	-15.53
873.261	7
873.434	70.48
873.607	33.62
873.78	66.39
873.953	-27.82
874.126	-36.01
874.299	47.96
874.471	-5.29
874.644	-23.72
874.817	88.92
874.99	117.59
875.163	54.1
875.335	39.76
875.508	66.39
875.681	50
875.853	-25.77
876.026	11.09
876.199	58.2
876.371	25.43
876.544	-7.34
876.717	2.9
876.889	-1.19
877.062	45.91
877.234	-7.34
877.407	4.95
877.579	76.63
877.752	21.33
877.924	-23.72
878.097	0.85
878.269	76.63
878.442	-9.39
878.614	31.57
878.786	47.96
878.959	0.85
879.131	82.77
879.303	13.14
879.476	27.48
879.648	17.24
879.82	33.62
879.993	4.95
880.165	17.24
880.337	-15.53
880.509	7
880.681	15.19
880.854	21.33
881.026	78.68
881.198	131.92
881.37	19.29
881.542	33.62
881.714	93.01
881.886	-23.72
882.058	-7.34
882.23	54.1
882.402	11.09
882.574	7
882.746	-5.29
882.918	103.25
883.09	27.48
883.262	13.14
883.434	62.29
883.606	27.48
883.778	58.2
883.95	90.96
884.122	9.05
884.293	88.92
884.465	-48.3
884.637	21.33
884.809	-33.96
884.98	27.48
885.152	82.77
885.324	-21.67
885.496	-31.91
885.667	47.96
885.839	-3.24
886.011	80.72
886.182	-52.39
886.354	64.34
886.525	-11.43
886.697	-23.72
886.869	-36.01
887.04	17.24
887.212	-9.39
887.383	21.33
887.555	31.57
887.726	-36.01
887.897	62.29
888.069	19.29
888.24	29.52
888.412	95.06
888.583	-42.15
888.754	29.52
888.926	-40.11
889.097	-72.87
889.268	15.19
889.44	7
889.611	4.95
889.782	-11.43
889.953	-50.35
890.125	99.16
890.296	4.95
890.467	27.48
890.638	-5.29
890.809	-9.39
890.98	64.34
891.151	82.77
891.323	50
891.494	27.48
891.665	-76.97
891.836	33.62
892.007	-36.01
892.178	52.05
892.349	2.9
892.52	-79.02
892.691	43.86
892.862	-5.29
893.032	-25.77
893.203	7
893.374	-29.87
893.545	31.57
893.716	7
893.887	17.24
894.057	84.82
894.228	29.52
894.399	-21.67
894.57	-29.87
894.74	19.29
894.911	-36.01
895.082	33.62
895.253	-40.11
895.423	33.62
895.594	19.29
895.764	-9.39
895.935	29.52
896.106	29.52
896.276	50
896.447	9.05
896.617	9.05
896.788	35.67
896.958	4.95
897.129	-29.87
897.299	41.81
897.47	109.4
897.64	97.11
897.81	-5.29
897.981	0.85
898.151	-81.07
898.322	21.33
898.492	60.24
898.662	17.24
898.832	-54.44
899.003	-46.25
899.173	9.05
899.343	-17.58
899.513	-97.45
