Data from USB4F104151__49__12-24-00-453.txt Node

Date: Fri Mar 14 12:24:00 EDT 2025
User: louis
Spectrometer: USB4F10415
Trigger mode: 4
Integration Time (sec): 3.500000E-2
Scans to average: 1
Electric dark correction enabled: true
Nonlinearity correction enabled: false
Boxcar width: 0
XAxis mode: Wavelengths
Number of Pixels in Spectrum: 3648
>>>>>Begin Spectral Data<<<<<
178.204	-134.82
178.424	-134.82
178.644	-134.82
178.864	-85.67
179.084	-190.12
179.304	2.39
179.524	-28.33
179.744	0.34
179.964	39.25
180.184	-40.62
180.404	6.49
180.624	-3.75
180.844	-32.43
181.064	-40.62
181.283	49.49
181.503	-26.28
181.723	74.07
181.943	-89.77
182.163	141.65
182.383	63.83
182.602	76.12
182.822	-22.19
183.042	37.2
183.262	37.2
183.482	33.11
183.701	-3.75
183.921	-20.14
184.141	24.92
184.361	106.84
184.58	98.64
184.8	-18.09
185.02	20.82
185.239	67.92
185.459	4.44
185.679	-28.33
185.898	-63.15
186.118	88.4
186.338	80.21
186.557	57.68
186.777	16.73
186.997	-38.57
187.216	-24.23
187.436	65.88
187.655	55.64
187.875	39.25
188.095	80.21
188.314	26.96
188.534	65.88
188.753	-54.95
188.973	24.92
189.192	63.83
189.412	-28.33
189.631	41.3
189.851	26.96
190.07	53.59
190.29	10.58
190.509	76.12
190.729	2.39
190.948	102.74
191.168	186.71
191.387	133.46
191.607	57.68
191.826	57.68
192.045	55.64
192.265	49.49
192.484	33.11
192.704	16.73
192.923	53.59
193.142	141.65
193.362	72.02
193.581	102.74
193.8	80.21
194.02	57.68
194.239	24.92
194.458	76.12
194.678	10.58
194.897	78.16
195.116	76.12
195.335	6.49
195.555	6.49
195.774	26.96
195.993	0.34
196.212	37.2
196.432	8.53
196.651	51.54
196.87	78.16
197.089	125.27
197.308	90.45
197.528	131.41
197.747	4.44
197.966	10.58
198.185	6.49
198.404	41.3
198.623	45.4
198.842	6.49
199.062	96.6
199.281	14.68
199.5	49.49
199.719	4.44
199.938	55.64
200.157	74.07
200.376	45.4
200.595	35.16
200.814	35.16
201.033	-20.14
201.252	37.2
201.471	57.68
201.69	98.64
201.909	102.74
202.128	-50.86
202.347	55.64
202.566	16.73
202.785	53.59
203.004	53.59
203.223	123.22
203.442	37.2
203.661	20.82
203.879	-3.75
204.098	90.45
204.317	16.73
204.536	41.3
204.755	74.07
204.974	55.64
205.193	82.26
205.411	110.93
205.63	12.63
205.849	-3.75
206.068	100.69
206.287	88.4
206.505	129.36
206.724	96.6
206.943	-40.62
207.162	0.34
207.381	-9.9
207.599	82.26
207.818	69.97
208.037	16.73
208.255	26.96
208.474	35.16
208.693	45.4
208.911	65.88
209.13	22.87
209.349	39.25
209.567	72.02
209.786	26.96
210.005	33.11
210.223	8.53
210.442	6.49
210.661	92.5
210.879	69.97
211.098	14.68
211.316	-13.99
211.535	98.64
211.753	37.2
211.972	51.54
212.191	35.16
212.409	59.73
212.628	55.64
212.846	18.77
213.065	45.4
213.283	98.64
213.502	53.59
213.72	-52.91
213.938	-18.09
214.157	33.11
214.375	96.6
214.594	96.6
214.812	26.96
215.031	-9.9
215.249	129.36
215.467	41.3
215.686	31.06
215.904	63.83
216.122	20.82
216.341	18.77
216.559	-7.85
216.778	90.45
216.996	63.83
217.214	57.68
217.432	6.49
217.651	61.78
217.869	72.02
218.087	16.73
218.306	47.44
218.524	8.53
218.742	41.3
218.96	43.35
219.179	47.44
219.397	31.06
219.615	53.59
219.833	67.92
220.051	-50.86
220.27	47.44
220.488	6.49
220.706	39.25
220.924	-3.75
221.142	-22.19
221.36	43.35
221.578	22.87
221.796	96.6
222.015	82.26
222.233	35.16
222.451	96.6
222.669	47.44
222.887	26.96
223.105	69.97
223.323	18.77
223.541	-40.62
223.759	110.93
223.977	51.54
224.195	88.4
224.413	55.64
224.631	33.11
224.849	31.06
225.067	65.88
225.285	41.3
225.503	37.2
225.721	-28.33
225.939	47.44
226.157	53.59
226.375	162.13
226.592	10.58
226.81	-34.47
227.028	123.22
227.246	90.45
227.464	43.35
227.682	139.6
227.9	47.44
228.117	53.59
228.335	2.39
228.553	-13.99
228.771	88.4
228.989	-50.86
229.206	65.88
229.424	-38.57
229.642	45.4
229.86	67.92
230.077	94.55
230.295	53.59
230.513	69.97
230.731	65.88
230.948	31.06
231.166	10.58
231.384	-13.99
231.601	-11.95
231.819	147.8
232.037	-11.95
232.254	-9.9
232.472	78.16
232.689	80.21
232.907	35.16
233.125	102.74
233.342	29.01
233.56	65.88
233.777	26.96
233.995	51.54
234.213	80.21
234.43	96.6
234.648	112.98
234.865	20.82
235.083	18.77
235.3	61.78
235.518	65.88
235.735	51.54
235.953	117.08
236.17	123.22
236.388	45.4
236.605	39.25
236.822	104.79
237.04	96.6
237.257	41.3
237.475	29.01
237.692	98.64
237.909	115.03
238.127	-11.95
238.344	74.07
238.562	74.07
238.779	24.92
238.996	31.06
239.214	43.35
239.431	35.16
239.648	16.73
239.865	-1.71
240.083	-7.85
240.3	67.92
240.517	29.01
240.735	59.73
240.952	84.31
241.169	51.54
241.386	-22.19
241.603	4.44
241.821	0.34
242.038	106.84
242.255	88.4
242.472	10.58
242.689	-5.8
242.907	108.88
243.124	35.16
243.341	59.73
243.558	24.92
243.775	2.39
243.992	55.64
244.209	37.2
244.426	100.69
244.643	69.97
244.86	33.11
245.078	22.87
245.295	74.07
245.512	69.97
245.729	-13.99
245.946	65.88
246.163	51.54
246.38	80.21
246.597	31.06
246.814	39.25
247.031	37.2
247.248	20.82
247.464	51.54
247.681	125.27
247.898	-9.9
248.115	53.59
248.332	41.3
248.549	29.01
248.766	131.41
248.983	14.68
249.2	104.79
249.417	86.36
249.633	35.16
249.85	18.77
250.067	125.27
250.284	-24.23
250.501	55.64
250.717	65.88
250.934	26.96
251.151	31.06
251.368	4.44
251.585	112.98
251.801	92.5
252.018	-26.28
252.235	39.25
252.451	-1.71
252.668	41.3
252.885	92.5
253.102	33.11
253.318	-9.9
253.535	-24.23
253.752	90.45
253.968	-3.75
254.185	-7.85
254.401	67.92
254.618	8.53
254.835	22.87
255.051	14.68
255.268	55.64
255.484	102.74
255.701	20.82
255.917	69.97
256.134	-16.04
256.351	67.92
256.567	12.63
256.784	16.73
257	-40.62
257.217	4.44
257.433	24.92
257.65	90.45
257.866	88.4
258.082	76.12
258.299	41.3
258.515	78.16
258.732	4.44
258.948	55.64
259.165	12.63
259.381	22.87
259.597	82.26
259.814	67.92
260.03	29.01
260.246	-24.23
260.463	96.6
260.679	86.36
260.895	31.06
261.112	45.4
261.328	76.12
261.544	20.82
261.761	119.12
261.977	14.68
262.193	49.49
262.409	98.64
262.626	69.97
262.842	43.35
263.058	-36.52
263.274	20.82
263.49	24.92
263.707	90.45
263.923	82.26
264.139	-1.71
264.355	98.64
264.571	78.16
264.787	33.11
265.004	61.78
265.22	45.4
265.436	-50.86
265.652	39.25
265.868	84.31
266.084	-7.85
266.3	76.12
266.516	24.92
266.732	129.36
266.948	43.35
267.164	49.49
267.38	63.83
267.596	51.54
267.812	76.12
268.028	43.35
268.244	33.11
268.46	20.82
268.676	10.58
268.892	104.79
269.108	-5.8
269.324	31.06
269.54	98.64
269.756	43.35
269.972	-11.95
270.188	53.59
270.403	-63.15
270.619	65.88
270.835	96.6
271.051	2.39
271.267	-46.76
271.483	31.06
271.698	31.06
271.914	94.55
272.13	151.89
272.346	0.34
272.562	10.58
272.777	78.16
272.993	59.73
273.209	61.78
273.425	92.5
273.64	20.82
273.856	90.45
274.072	61.78
274.287	-24.23
274.503	61.78
274.719	37.2
274.934	47.44
275.15	-22.19
275.366	94.55
275.581	96.6
275.797	0.34
276.012	10.58
276.228	96.6
276.444	57.68
276.659	96.6
276.875	57.68
277.09	6.49
277.306	84.31
277.521	112.98
277.737	55.64
277.952	12.63
278.168	41.3
278.383	14.68
278.599	51.54
278.814	39.25
279.03	100.69
279.245	12.63
279.461	4.44
279.676	92.5
279.892	82.26
280.107	-34.47
280.322	16.73
280.538	59.73
280.753	41.3
280.969	39.25
281.184	98.64
281.399	76.12
281.615	6.49
281.83	47.44
282.045	6.49
282.26	33.11
282.476	31.06
282.691	31.06
282.906	29.01
283.122	41.3
283.337	82.26
283.552	57.68
283.767	129.36
283.983	164.18
284.198	47.44
284.413	125.27
284.628	-3.75
284.843	67.92
285.058	61.78
285.274	117.08
285.489	-26.28
285.704	63.83
285.919	92.5
286.134	-5.8
286.349	29.01
286.564	86.36
286.779	72.02
286.995	69.97
287.21	8.53
287.425	51.54
287.64	49.49
287.855	29.01
288.07	29.01
288.285	110.93
288.5	65.88
288.715	67.92
288.93	41.3
289.145	39.25
289.36	125.27
289.575	43.35
289.79	74.07
290.004	-9.9
290.219	22.87
290.434	59.73
290.649	33.11
290.864	14.68
291.079	80.21
291.294	86.36
291.509	45.4
291.724	51.54
291.938	41.3
292.153	22.87
292.368	-1.71
292.583	37.2
292.798	12.63
293.012	84.31
293.227	26.96
293.442	18.77
293.657	67.92
293.871	121.17
294.086	22.87
294.301	22.87
294.516	-18.09
294.73	10.58
294.945	0.34
295.16	33.11
295.374	47.44
295.589	90.45
295.804	26.96
296.018	74.07
296.233	92.5
296.447	45.4
296.662	-13.99
296.877	86.36
297.091	104.79
297.306	26.96
297.52	24.92
297.735	125.27
297.949	35.16
298.164	57.68
298.378	41.3
298.593	49.49
298.807	49.49
299.022	76.12
299.236	82.26
299.451	72.02
299.665	88.4
299.88	-3.75
300.094	137.56
300.309	43.35
300.523	53.59
300.737	57.68
300.952	37.2
301.166	129.36
301.381	45.4
301.595	20.82
301.809	61.78
302.024	29.01
302.238	-20.14
302.452	100.69
302.667	96.6
302.881	76.12
303.095	31.06
303.309	74.07
303.524	65.88
303.738	141.65
303.952	65.88
304.166	31.06
304.381	26.96
304.595	133.46
304.809	0.34
305.023	39.25
305.237	90.45
305.452	22.87
305.666	16.73
305.88	76.12
306.094	72.02
306.308	76.12
306.522	147.8
306.736	12.63
306.95	69.97
307.164	29.01
307.379	18.77
307.593	39.25
307.807	72.02
308.021	61.78
308.235	59.73
308.449	-73.39
308.663	112.98
308.877	127.32
309.091	55.64
309.305	72.02
309.519	57.68
309.733	35.16
309.947	-20.14
310.161	67.92
310.374	72.02
310.588	69.97
310.802	8.53
311.016	67.92
311.23	51.54
311.444	0.34
311.658	-16.04
311.872	121.17
312.085	43.35
312.299	69.97
312.513	135.51
312.727	63.83
312.941	14.68
313.154	39.25
313.368	24.92
313.582	4.44
313.796	76.12
314.009	16.73
314.223	153.94
314.437	59.73
314.651	-7.85
314.864	22.87
315.078	61.78
315.292	33.11
315.505	41.3
315.719	-5.8
315.933	69.97
316.146	61.78
316.36	-5.8
316.573	190.8
316.787	29.01
317.001	2.39
317.214	0.34
317.428	63.83
317.641	35.16
317.855	-28.33
318.068	12.63
318.282	43.35
318.495	47.44
318.709	29.01
318.922	-1.71
319.136	94.55
319.349	74.07
319.563	80.21
319.776	86.36
319.99	16.73
320.203	74.07
320.417	-9.9
320.63	63.83
320.843	94.55
321.057	72.02
321.27	47.44
321.483	86.36
321.697	106.84
321.91	92.5
322.124	45.4
322.337	147.8
322.55	6.49
322.763	86.36
322.977	35.16
323.19	53.59
323.403	100.69
323.617	33.11
323.83	106.84
324.043	37.2
324.256	74.07
324.469	37.2
324.683	112.98
324.896	57.68
325.109	63.83
325.322	-11.95
325.535	35.16
325.748	63.83
325.962	57.68
326.175	90.45
326.388	112.98
326.601	108.88
326.814	67.92
327.027	16.73
327.24	119.12
327.453	-20.14
327.666	39.25
327.879	86.36
328.092	153.94
328.305	90.45
328.518	65.88
328.731	-7.85
328.944	39.25
329.157	14.68
329.37	49.49
329.583	84.31
329.796	110.93
330.009	-16.04
330.222	164.18
330.435	102.74
330.648	76.12
330.861	53.59
331.073	59.73
331.286	65.88
331.499	102.74
331.712	-1.71
331.925	112.98
332.138	-7.85
332.35	59.73
332.563	76.12
332.776	86.36
332.989	33.11
333.202	49.49
333.414	26.96
333.627	86.36
333.84	20.82
334.053	63.83
334.265	69.97
334.478	14.68
334.691	24.92
334.903	-42.67
335.116	-5.8
335.329	102.74
335.541	67.92
335.754	106.84
335.966	33.11
336.179	102.74
336.392	76.12
336.604	90.45
336.817	53.59
337.029	61.78
337.242	22.87
337.454	125.27
337.667	14.68
337.88	43.35
338.092	24.92
338.305	35.16
338.517	12.63
338.729	98.64
338.942	94.55
339.154	110.93
339.367	-22.19
339.579	88.4
339.792	-5.8
340.004	65.88
340.217	82.26
340.429	84.31
340.641	6.49
340.854	141.65
341.066	59.73
341.278	82.26
341.491	112.98
341.703	16.73
341.915	53.59
342.128	69.97
342.34	86.36
342.552	80.21
342.764	80.21
342.977	72.02
343.189	74.07
343.401	22.87
343.613	57.68
343.826	53.59
344.038	35.16
344.25	139.6
344.462	53.59
344.674	86.36
344.886	-13.99
345.099	100.69
345.311	63.83
345.523	59.73
345.735	72.02
345.947	33.11
346.159	29.01
346.371	80.21
346.583	135.51
346.795	119.12
347.007	-1.71
347.219	104.79
347.431	65.88
347.643	117.08
347.855	86.36
348.067	65.88
348.279	14.68
348.491	125.27
348.703	88.4
348.915	61.78
349.127	61.78
349.339	92.5
349.551	45.4
349.763	31.06
349.975	94.55
350.187	47.44
350.399	53.59
350.61	92.5
350.822	-9.9
351.034	104.79
351.246	112.98
351.458	72.02
351.669	37.2
351.881	102.74
352.093	59.73
352.305	106.84
352.517	39.25
352.728	94.55
352.94	61.78
353.152	41.3
353.363	129.36
353.575	47.44
353.787	96.6
353.999	69.97
354.21	119.12
354.422	61.78
354.633	61.78
354.845	82.26
355.057	88.4
355.268	78.16
355.48	45.4
355.692	121.17
355.903	80.21
356.115	80.21
356.326	49.49
356.538	147.8
356.749	80.21
356.961	65.88
357.172	-11.95
357.384	43.35
357.595	59.73
357.807	125.27
358.018	51.54
358.23	63.83
358.441	57.68
358.653	41.3
358.864	43.35
359.075	18.77
359.287	43.35
359.498	61.78
359.709	125.27
359.921	90.45
360.132	129.36
360.344	94.55
360.555	57.68
360.766	47.44
360.977	45.4
361.189	74.07
361.4	129.36
361.611	129.36
361.823	123.22
362.034	67.92
362.245	51.54
362.456	96.6
362.667	65.88
362.879	67.92
363.09	61.78
363.301	115.03
363.512	55.64
363.723	69.97
363.935	2.39
364.146	47.44
364.357	55.64
364.568	55.64
364.779	-34.47
364.99	168.27
365.201	90.45
365.412	63.83
365.623	-38.57
365.834	96.6
366.045	67.92
366.256	82.26
366.467	37.2
366.678	10.58
366.889	41.3
367.1	69.97
367.311	80.21
367.522	98.64
367.733	90.45
367.944	90.45
368.155	106.84
368.366	76.12
368.577	112.98
368.788	115.03
368.999	74.07
369.209	139.6
369.42	121.17
369.631	176.47
369.842	26.96
370.053	12.63
370.264	98.64
370.474	20.82
370.685	55.64
370.896	102.74
371.107	80.21
371.317	63.83
371.528	16.73
371.739	69.97
371.95	69.97
372.16	155.99
372.371	22.87
372.582	86.36
372.792	29.01
373.003	125.27
373.214	37.2
373.424	117.08
373.635	43.35
373.846	125.27
374.056	78.16
374.267	94.55
374.477	96.6
374.688	45.4
374.898	39.25
375.109	149.84
375.319	100.69
375.53	53.59
375.74	121.17
375.951	47.44
376.161	133.46
376.372	112.98
376.582	2.39
376.793	74.07
377.003	-18.09
377.214	39.25
377.424	6.49
377.635	37.2
377.845	78.16
378.055	92.5
378.266	78.16
378.476	51.54
378.686	121.17
378.897	145.75
379.107	96.6
379.317	76.12
379.528	37.2
379.738	86.36
379.948	24.92
380.158	100.69
380.369	82.26
380.579	112.98
380.789	92.5
380.999	123.22
381.21	67.92
381.42	59.73
381.63	-3.75
381.84	41.3
382.05	123.22
382.261	65.88
382.471	57.68
382.681	24.92
382.891	119.12
383.101	121.17
383.311	29.01
383.521	4.44
383.731	69.97
383.941	98.64
384.151	92.5
384.361	59.73
384.571	31.06
384.781	96.6
384.991	115.03
385.201	110.93
385.411	92.5
385.621	76.12
385.831	-13.99
386.041	139.6
386.251	80.21
386.461	129.36
386.671	55.64
386.881	57.68
387.091	110.93
387.301	55.64
387.511	137.56
387.72	55.64
387.93	92.5
388.14	78.16
388.35	108.88
388.56	139.6
388.769	133.46
388.979	45.4
389.189	121.17
389.399	67.92
389.609	51.54
389.818	74.07
390.028	90.45
390.238	69.97
390.447	88.4
390.657	82.26
390.867	76.12
391.076	65.88
391.286	67.92
391.496	-16.04
391.705	84.31
391.915	92.5
392.125	147.8
392.334	158.03
392.544	205.14
392.753	57.68
392.963	61.78
393.172	37.2
393.382	41.3
393.591	166.23
393.801	43.35
394.01	176.47
394.22	92.5
394.429	115.03
394.639	106.84
394.848	176.47
395.058	145.75
395.267	104.79
395.477	211.28
395.686	121.17
395.895	178.51
396.105	194.9
396.314	129.36
396.524	151.89
396.733	135.51
396.942	137.56
397.152	151.89
397.361	221.52
397.57	123.22
397.78	37.2
397.989	123.22
398.198	217.43
398.407	170.32
398.617	182.61
398.826	129.36
399.035	182.61
399.244	149.84
399.453	143.7
399.663	127.32
399.872	149.84
400.081	205.14
400.29	143.7
400.499	100.69
400.708	133.46
400.917	94.55
401.127	121.17
401.336	176.47
401.545	237.91
401.754	268.63
401.963	186.71
402.172	164.18
402.381	129.36
402.59	110.93
402.799	166.23
403.008	231.76
403.217	155.99
403.426	153.94
403.635	110.93
403.844	160.08
404.053	151.89
404.262	217.43
404.471	223.57
404.68	192.85
404.888	305.49
405.097	184.66
405.306	217.43
405.515	198.99
405.724	196.95
405.933	237.91
406.142	201.04
406.35	166.23
406.559	192.85
406.768	248.15
406.977	211.28
407.185	297.3
407.394	297.3
407.603	262.48
407.812	297.3
408.02	362.83
408.229	301.39
408.438	393.55
408.646	346.45
408.855	350.54
409.064	309.58
409.272	332.11
409.481	444.75
409.69	377.17
409.898	414.03
410.107	524.62
410.315	500.05
410.524	483.66
410.733	454.99
410.941	391.5
411.15	485.71
411.358	481.61
411.567	641.36
411.775	465.23
411.984	569.68
412.192	684.36
412.401	575.82
412.609	706.89
412.818	745.8
413.026	686.41
413.234	768.33
413.443	696.65
413.651	751.95
413.86	788.81
414.068	790.86
414.276	792.91
414.485	856.39
414.693	962.89
414.901	923.98
415.11	923.98
415.318	977.22
415.526	1077.57
415.734	1032.52
415.943	1116.48
416.151	1204.55
416.359	1136.96
416.567	1194.31
416.776	1284.42
416.984	1308.99
417.192	1411.39
417.4	1313.09
417.608	1249.6
417.817	1411.39
418.025	1526.08
418.233	1724.73
418.441	1589.57
418.649	1628.48
418.857	1808.7
419.065	1757.5
419.273	1782.07
419.481	1909.05
419.689	1982.78
419.897	2056.5
420.105	2048.31
420.313	2220.34
420.521	2257.2
420.729	2076.98
420.937	2353.46
421.145	2335.03
421.353	2443.57
421.561	2582.83
421.769	2808.11
421.977	2912.55
422.185	2937.13
422.393	2961.7
422.601	3199.27
422.809	3225.89
423.017	3158.31
423.224	3352.87
423.432	3412.26
423.64	3389.73
423.848	3782.94
424.056	3637.53
424.263	3928.35
424.471	3942.68
424.679	4086.04
424.887	4198.68
425.094	4448.53
425.302	4520.21
425.51	4608.27
425.718	4778.25
425.925	4847.88
426.133	4962.57
426.341	5181.7
426.548	5290.24
426.756	5425.41
426.964	5558.53
427.171	5878.01
427.379	6082.81
427.586	6093.05
427.794	6338.8
428.001	6615.28
428.209	6969.58
428.417	6635.76
428.624	7262.44
428.832	7291.11
429.039	7188.71
429.247	7188.71
429.454	8001.76
429.662	8464.6
429.869	8018.14
430.076	8403.16
430.284	8167.64
430.491	8564.95
430.699	8929.49
430.906	9062.6
431.114	9248.97
431.321	9511.11
431.528	9777.34
431.736	10291.38
431.943	10631.35
432.15	10555.57
432.358	10574
432.565	11309.22
432.772	11210.92
432.979	11888.8
433.187	11882.66
433.394	11978.91
433.601	12976.27
433.808	12798.1
434.016	12804.24
434.223	13377.67
434.43	14127.23
434.637	13891.71
434.844	14719.09
435.052	14923.89
435.259	14930.03
435.466	15116.4
435.673	15071.34
435.88	15986.79
436.087	16861.27
436.294	16726.1
436.501	16517.21
436.708	16697.43
436.915	17221.71
437.122	17942.6
437.329	18085.95
437.537	18362.43
437.743	19005.49
437.95	18753.59
438.157	19515.44
438.364	20314.14
438.571	20498.46
438.778	20461.6
438.985	22507.52
439.192	21436.43
439.399	22202.37
439.606	21809.16
439.813	22915.06
440.02	24244.2
440.227	23767.02
440.433	24020.97
440.64	24430.56
440.847	24287.2
441.054	25204.69
441.261	26390.47
441.467	26466.24
441.674	26828.73
441.881	27817.9
442.088	27731.89
442.294	27578.29
442.501	28524.45
442.708	28882.84
442.914	30154.63
443.121	31031.16
443.328	30523.27
443.534	32382.82
443.741	31694.71
443.948	31391.61
444.154	33714
444.361	32843.62
444.568	33396.57
444.774	33412.95
444.981	33783.63
445.187	34772.8
445.394	36171.57
445.6	35653.43
445.807	38995.71
446.013	37955.35
446.22	37996.31
446.426	39968.5
446.633	40158.96
446.839	41623.26
447.046	39569.15
447.252	42188.5
447.459	41649.88
447.665	41541.34
447.871	43566.78
448.078	45797.02
448.284	43058.88
448.491	44807.85
448.697	46356.11
448.903	47435.39
449.11	47142.53
449.316	46452.37
449.522	47150.73
449.728	48529.01
449.935	48975.47
450.141	48551.54
450.347	49593.95
450.553	48455.28
450.76	49016.43
450.966	50660.94
451.172	50024.03
451.378	50806.35
451.584	50132.57
451.791	51308.1
451.997	51156.55
452.203	52045.37
452.409	51979.84
452.615	51080.78
452.821	49759.84
453.027	49423.97
453.233	51535.43
453.44	50202.2
453.646	50515.54
453.852	50503.25
454.058	51664.45
454.264	49981.02
454.47	50851.41
454.676	49509.99
454.882	51088.97
455.088	46753.42
455.294	47588.99
455.5	48201.33
455.705	48823.92
455.911	46888.59
456.117	45942.42
456.323	45151.91
456.529	42931.91
456.735	44992.17
456.941	43781.82
457.147	42716.87
457.352	41735.9
457.558	41068.26
457.764	41055.97
457.97	40228.59
458.176	39362.3
458.381	39481.08
458.587	37523.22
458.793	37476.12
458.999	35649.33
459.204	38270.73
459.41	37115.68
459.616	34756.42
459.821	35008.32
460.027	34377.54
460.233	34043.73
460.438	32108.4
460.644	32431.97
460.85	31362.93
461.055	30640
461.261	30633.86
461.466	28340.13
461.672	27555.76
461.878	29398.93
462.083	27428.79
462.289	27013.05
462.494	26595.26
462.7	25458.64
462.905	24852.44
463.111	25536.46
463.316	25941.96
463.522	25456.59
463.727	25298.9
463.932	25384.91
464.138	24905.69
464.343	25214.93
464.549	24207.33
464.754	24868.83
464.959	24928.22
465.165	24948.7
465.37	23556.08
465.575	22929.4
465.781	23807.98
465.986	24412.13
466.191	23496.69
466.397	22554.62
466.602	21489.68
466.807	22331.39
467.012	22671.36
467.218	22394.88
467.423	22093.83
467.628	22446.08
467.833	23175.16
468.038	22290.43
468.244	21784.58
468.449	22308.86
468.654	22020.1
468.859	21608.46
469.064	21796.87
469.269	20776.98
469.474	20981.78
469.679	21438.48
469.885	20443.17
470.09	20711.45
470.295	20817.94
470.5	20344.86
470.705	20488.22
470.91	19968.04
471.115	19734.57
471.32	20324.38
471.525	20135.97
471.73	19621.93
471.935	19310.64
472.139	18534.46
472.344	19154.99
472.549	18491.45
472.754	18597.95
472.959	18147.39
473.164	17832.01
473.369	17635.4
473.574	18290.75
473.778	17811.53
473.983	17832.01
474.188	17930.31
474.393	17061.97
474.598	16894.04
474.802	16879.7
475.007	16965.71
475.212	17016.91
475.417	16244.83
475.621	16412.76
475.826	16427.1
476.031	15845.48
476.235	15908.96
476.44	15884.39
476.645	15536.23
476.849	15966.31
477.054	15233.13
477.259	15372.39
477.463	15200.37
477.668	14717.04
477.872	15296.62
478.077	14690.42
478.282	14198.91
478.486	14262.4
478.691	14139.52
478.895	14332.03
479.1	13854.85
479.304	14057.6
479.509	13631.62
479.713	14094.46
479.918	13553.8
480.122	13500.55
480.326	13717.64
480.531	13459.59
480.735	13482.12
480.94	13226.12
481.144	13865.09
481.348	13203.6
481.553	13199.5
481.757	12978.32
481.961	13064.33
482.166	13494.41
482.37	13172.88
482.574	13136.01
482.778	13191.31
482.983	13510.79
483.187	13234.32
483.391	13185.16
483.595	13088.91
483.8	12824.72
484.004	13088.91
484.208	13084.81
484.412	13056.14
484.616	13314.19
484.821	13170.83
485.025	12855.44
485.229	13009.04
485.433	12826.77
485.637	13090.96
485.841	12894.35
486.045	12900.5
486.249	13314.19
486.453	12853.39
486.657	13131.92
486.861	13244.56
487.065	12789.91
487.269	13050
487.473	12789.91
487.677	12918.93
487.881	13246.6
488.085	12992.66
488.289	13050
488.493	13047.95
488.697	12863.63
488.901	13162.64
489.105	13103.25
489.309	13011.09
489.512	13389.96
489.716	13103.25
489.92	13199.5
490.124	13183.12
490.328	13281.42
490.531	13351.05
490.735	13205.64
490.939	13441.16
491.143	13209.74
491.346	13516.94
491.55	13533.32
491.754	13670.53
491.958	13512.84
492.161	13600.9
492.365	13947.01
492.569	13822.08
492.772	13817.99
492.976	13877.38
493.18	13977.73
493.383	14223.48
493.587	14323.83
493.79	14561.4
493.994	14145.66
494.197	14235.77
494.401	14379.13
494.605	14366.84
494.808	14936.18
495.012	14643.32
495.215	14844.02
495.419	14903.41
495.622	14780.53
495.825	15110.25
496.029	15143.02
496.232	15579.24
496.436	15226.99
496.639	15892.58
496.843	15741.03
497.046	16177.25
497.249	16296.03
497.453	16349.28
497.656	16654.42
497.859	16466.01
498.063	16754.77
498.266	16939.09
498.469	16820.31
498.673	17150.03
498.876	17449.04
499.079	17543.24
499.282	17602.63
499.485	18116.67
499.689	18057.28
499.892	18382.91
500.095	18333.76
500.298	18847.8
500.501	18896.95
500.705	19152.95
500.908	19470.38
501.111	19705.9
501.314	19660.84
501.517	19894.31
501.72	20269.09
501.923	20082.72
502.126	20516.89
502.329	20863
502.532	20985.88
502.735	21090.32
502.938	21372.94
503.141	21628.94
503.344	22038.53
503.547	21954.57
503.75	22786.04
503.953	22501.37
504.156	22904.82
504.359	23017.46
504.562	23382
504.765	23478.26
504.968	24031.21
505.17	24051.69
505.373	24092.65
505.576	24606.69
505.779	24965.08
505.982	24926.17
506.185	25475.02
506.387	25397.2
506.59	25894.86
506.793	26267.59
506.996	26306.5
507.198	26986.43
507.401	27049.91
507.604	27236.28
507.807	27836.33
508.009	28024.75
508.212	28297.13
508.415	28458.92
508.617	28800.93
508.82	29333.4
509.022	28784.54
509.225	29902.73
509.428	29857.68
509.63	30140.3
509.833	30300.04
510.035	30975.87
510.238	30801.79
510.44	31389.56
510.643	31358.84
510.845	31614.83
511.048	31991.66
511.25	32372.58
511.453	32642.92
511.655	33490.77
511.858	33263.45
512.06	34017.1
512.262	33912.66
512.465	34248.52
512.667	34498.37
512.87	34977.6
513.072	34619.21
513.274	35977.01
513.477	36032.3
513.679	36515.62
513.881	36765.48
514.084	37254.94
514.286	37068.58
514.488	37586.71
514.69	38510.35
514.893	38453
515.095	38682.38
515.297	38971.14
515.499	39591.67
515.701	39722.74
515.904	40218.35
516.106	40445.68
516.308	40808.17
516.51	41318.11
516.712	41387.74
516.914	42088.15
517.116	42573.52
517.318	42299.09
517.52	42718.92
517.722	42905.29
517.925	43435.71
518.127	43996.85
518.329	44009.14
518.531	44459.69
518.733	44945.06
518.935	45551.26
519.136	45174.44
519.338	45973.14
519.54	46257.81
519.742	46610.06
519.944	46995.08
520.146	48043.64
520.348	48043.64
520.55	47836.8
520.752	47965.82
520.954	49247.85
521.155	49133.16
521.357	49694.3
521.559	49858.14
521.761	50386.52
521.963	50464.34
522.164	50669.14
522.366	51058.25
522.568	51488.32
522.77	51447.36
522.971	52569.65
523.173	51738.18
523.375	52590.13
523.576	52403.77
523.778	52842.03
523.98	53476.9
524.181	53829.15
524.383	53587.49
524.584	54390.3
524.786	54165.02
524.988	54654.48
525.189	54797.84
525.391	55571.97
525.592	55397.9
525.794	55758.34
525.995	55717.38
526.197	55813.63
526.398	56129.02
526.6	56462.84
526.801	56841.71
527.003	56894.96
527.204	57497.06
527.406	57468.39
527.607	57640.42
527.808	57845.22
528.01	57060.85
528.211	57877.99
528.412	58906.07
528.614	57947.62
528.815	58336.73
529.016	58836.44
529.218	58154.46
529.419	58803.67
529.62	58957.27
529.822	59080.14
530.023	59127.25
530.224	59190.73
530.425	59151.82
530.626	58871.25
530.828	58865.11
531.029	59676.1
531.23	59293.13
531.431	59278.8
531.632	59499.98
531.833	60151.23
532.035	59622.86
532.236	59614.66
532.437	59999.68
532.638	59688.39
532.839	60306.88
533.04	60632.5
533.241	59465.16
533.442	60884.4
533.643	60106.18
533.844	60208.57
534.045	60347.84
534.246	60159.42
534.447	60659.13
534.648	60556.73
534.849	60753.33
535.05	60007.87
535.251	60358.08
535.451	60411.32
535.652	60440
535.853	60243.39
536.054	60679.61
536.255	60593.59
536.456	60030.4
536.657	61203.89
536.857	60511.67
537.058	60153.28
537.259	60978.61
537.46	61056.43
537.66	60468.67
537.861	60650.94
538.062	60372.41
538.263	60994.99
538.463	60313.02
538.664	60511.67
538.865	60343.74
539.065	61031.86
539.266	60075.46
539.466	61005.23
539.667	59991.49
539.868	60978.61
540.068	60503.48
540.269	60483
540.469	60679.61
540.67	60253.63
540.87	60599.74
541.071	60284.35
541.271	60270.01
541.472	60732.85
541.672	60392.89
541.873	60374.46
542.073	59608.52
542.274	60810.68
542.474	60450.23
542.675	60022.21
542.875	60661.18
543.075	60163.52
543.276	59579.85
543.476	60556.73
543.676	59831.75
543.877	60571.07
544.077	60372.41
544.277	60466.62
544.478	59956.67
544.678	60321.21
544.878	60478.91
545.078	59952.58
545.279	60016.07
545.479	59643.34
545.679	60016.07
545.879	60179.9
546.079	59889.09
546.28	59913.67
546.48	59432.39
546.68	60067.26
546.88	60247.49
547.08	60239.29
547.28	59751.88
547.48	59350.48
547.68	60308.93
547.88	59260.37
548.081	60014.02
548.281	60057.02
548.481	59870.66
548.681	60007.87
548.881	59979.2
549.081	59758.02
549.28	59725.25
549.48	60321.21
549.68	59739.59
549.88	60587.45
550.08	59379.15
550.28	59950.53
550.48	59604.42
550.68	59696.58
550.88	59239.89
551.08	59334.09
551.279	59827.65
551.479	58944.98
551.679	59514.31
551.879	59520.46
552.079	59917.76
552.278	59461.07
552.478	59229.65
552.678	59743.69
552.878	59655.62
553.077	59381.2
553.277	58965.46
553.477	60028.35
553.676	59008.46
553.876	59330
554.076	59096.53
554.275	59155.92
554.475	58570.2
554.674	59538.89
554.874	59286.99
555.074	59186.64
555.273	59672.01
555.473	59043.28
555.672	58537.43
555.872	58731.99
556.071	58758.61
556.271	59315.66
556.47	58705.37
556.67	58189.28
556.869	58369.5
557.068	58437.08
557.268	58303.96
557.467	58465.75
557.667	58519
557.866	57839.07
558.065	58291.68
558.265	57943.52
558.464	57996.77
558.663	58553.82
558.863	57822.69
559.062	58865.11
559.261	57439.72
559.461	58308.06
559.66	57427.43
559.859	57599.46
560.058	56878.58
560.258	57556.46
560.457	57279.98
560.656	57873.89
560.855	57089.52
561.054	57431.53
561.253	57052.65
561.453	57091.57
561.652	57279.98
561.851	57253.36
562.05	57107.95
562.249	56372.73
562.448	57171.44
562.647	56649.2
562.846	56135.16
563.045	55954.94
563.244	55854.59
563.443	56088.06
563.642	55574.02
563.841	56317.43
564.04	56227.32
564.239	56264.19
564.438	55782.91
564.637	56124.92
564.836	55655.94
565.035	55209.48
565.234	55739.91
565.432	55186.96
565.631	55129.61
565.83	54978.06
566.029	55146
566.228	54306.33
566.427	54525.46
566.625	54156.83
566.824	54208.03
567.023	54445.59
567.222	54027.8
567.42	54586.9
567.619	53894.69
567.818	54040.09
568.016	53839.39
568.215	54011.42
568.414	53626.4
568.612	54003.23
568.811	53468.71
569.01	53161.51
569.208	52698.67
569.407	53270.06
569.605	53046.83
569.804	52868.65
570.002	52373.05
570.201	52960.81
570.4	52457.01
570.598	52190.78
570.797	51807.81
570.995	51801.66
571.193	51539.52
571.392	52069.95
571.59	51578.43
571.789	51400.26
571.987	51828.29
572.186	51029.58
572.384	51162.7
572.582	51451.46
572.781	51131.98
572.979	50447.96
573.177	50789.97
573.376	50695.76
573.574	50157.14
573.772	50302.55
573.971	50253.4
574.169	49849.95
574.367	49907.29
574.565	50159.19
574.763	49856.09
574.962	49329.76
575.16	48856.68
575.358	49911.39
575.556	48856.68
575.754	49901.15
575.952	48815.72
576.151	49112.68
576.349	48518.77
576.547	48617.07
576.745	48397.94
576.943	48967.27
577.141	48713.33
577.339	48299.64
577.537	48418.42
577.735	48348.79
577.933	47945.34
578.131	47875.71
578.329	47574.66
578.527	47261.32
578.725	47486.59
578.923	47296.13
579.121	47287.94
579.319	46765.71
579.516	46972.55
579.714	46884.49
579.912	46614.16
580.11	46665.36
580.308	46528.14
580.506	46567.05
580.704	46022.3
580.901	46642.83
581.099	46614.16
581.297	45909.66
581.495	45872.79
581.692	46175.89
581.89	45485.73
582.088	45893.27
582.285	45383.33
582.483	45541.02
582.681	45373.09
582.878	45205.16
583.076	44760.75
583.274	45012.65
583.471	44234.42
583.669	44947.11
583.866	44582.57
584.064	44558
584.262	43656.89
584.459	44263.09
584.657	44197.55
584.854	44121.78
585.052	43198.15
585.249	43669.18
585.447	43636.41
585.644	42917.57
585.841	43108.04
586.039	43781.82
586.236	42864.33
586.434	43017.92
586.631	42491.6
586.828	42546.89
587.026	42532.56
587.223	42700.49
587.42	42219.22
587.618	42137.3
587.815	42184.4
588.012	41707.22
588.21	41527
588.407	42274.51
588.604	41502.43
588.801	41420.51
588.999	41301.73
589.196	41244.38
589.393	41162.47
589.59	41105.12
589.787	40865.51
589.984	40611.56
590.182	40447.72
590.379	41019.11
590.576	40457.96
590.773	40281.84
590.97	40224.5
591.167	40339.18
591.364	39853.81
591.561	39677.69
591.758	39268.09
591.955	39317.25
592.152	39415.55
592.349	39456.51
592.546	39313.15
592.743	39753.46
592.94	38768.39
593.137	39556.86
593.334	39200.51
593.531	38643.46
593.727	38987.52
593.924	39094.02
594.121	38471.43
594.318	38553.35
594.515	38188.81
594.712	38377.23
594.908	37887.76
595.105	38297.36
595.302	37510.94
595.499	38119.18
595.696	37658.39
595.892	37582.62
596.089	37898
596.286	37459.74
596.482	37693.21
596.679	37261.08
596.876	37228.32
597.072	36695.85
597.269	36892.45
597.466	36923.17
597.662	36400.94
597.859	36710.18
598.055	36747.04
598.252	36341.55
598.448	36308.78
598.645	36183.85
598.841	35890.99
599.038	35942.19
599.234	35688.24
599.431	35491.64
599.627	35944.24
599.824	35866.42
600.02	35608.37
600.217	35188.54
600.413	35211.07
600.609	34965.31
600.806	34627.4
601.002	34914.11
601.198	34361.16
601.395	34563.91
601.591	34692.93
601.787	34551.62
601.984	34113.36
602.18	34295.63
602.376	34230.09
602.572	33904.46
602.769	34019.15
602.965	33750.87
603.161	34180.94
603.357	33623.89
603.553	33206.11
603.75	33660.76
603.946	33421.14
604.142	32989.02
604.338	32966.49
604.534	33355.61
604.73	32966.49
604.926	32749.41
605.122	32442.21
605.318	32511.85
605.514	32601.96
605.71	32329.58
605.906	32593.76
606.102	32221.03
606.298	32163.69
606.494	32137.07
606.69	32092.01
606.886	31991.66
607.082	31608.69
607.278	32055.15
607.474	31264.63
607.67	31442.81
607.866	30908.29
608.062	31876.97
608.257	31270.78
608.453	31453.05
608.649	31418.23
608.845	31072.12
609.041	30918.53
609.236	31321.98
609.432	31160.19
609.628	30973.82
609.824	30719.87
610.019	30742.4
610.215	30502.79
610.411	30748.54
610.606	30474.12
610.802	30703.49
610.998	30277.51
611.193	30539.65
611.389	30541.7
611.584	30080.91
611.78	29890.45
611.976	29960.08
612.171	30201.74
612.367	29988.75
612.562	29849.49
612.758	29546.39
612.953	29894.54
613.149	30150.54
613.344	29472.66
613.539	30062.47
613.735	29527.95
613.93	29851.53
614.126	29321.11
614.321	29478.8
614.517	29419.41
614.712	29357.97
614.907	29497.24
615.103	29525.91
615.298	29235.1
615.493	29663.12
615.688	28770.21
615.884	29257.62
616.079	28481.44
616.274	29032.35
616.47	29147.03
616.665	28678.05
616.86	28563.36
617.055	28647.33
617.25	28342.18
617.445	28706.72
617.641	27953.07
617.836	28585.89
618.031	28047.27
618.226	28356.52
618.421	28202.92
618.616	28301.22
618.811	27615.15
619.006	28104.62
619.201	27369.4
619.396	28059.56
619.591	27185.08
619.786	27533.23
619.981	26961.85
620.176	27549.62
620.371	27045.82
620.566	27137.98
620.761	26787.77
620.956	26881.98
621.151	26525.63
621.346	26476.48
621.541	26068.94
621.735	26539.97
621.93	25888.71
622.125	25950.15
622.32	25444.31
622.515	25853.9
622.709	25276.37
622.904	25151.45
623.099	25513.94
623.294	25329.62
623.488	25001.94
623.683	25092.05
623.878	24485.86
624.072	24893.4
624.267	24666.08
624.462	24420.32
624.656	24041.45
624.851	24379.36
625.046	23793.64
625.24	24109.03
625.435	23922.66
625.629	23787.5
625.824	23470.06
626.018	23822.31
626.213	22855.67
626.407	23603.18
626.602	22804.47
626.796	22972.41
626.991	23029.75
627.185	22677.5
627.38	22505.47
627.574	22245.38
627.768	22046.72
627.963	22372.35
628.157	21825.54
628.352	22155.27
628.546	21495.82
628.74	22056.96
628.935	21430.29
629.129	21602.32
629.323	21184.53
629.517	21368.85
629.712	21164.05
629.906	21188.63
630.1	20811.8
630.294	21182.48
630.489	20668.44
630.683	20783.13
630.877	20379.68
631.071	20332.58
631.265	20385.82
631.459	20445.21
631.653	20135.97
631.848	20088.87
632.042	19671.08
632.236	20011.04
632.43	19675.18
632.624	19759.14
632.818	19683.37
633.012	19396.65
633.206	19394.61
633.4	19288.11
633.594	19040.31
633.788	18890.81
633.982	18862.13
634.176	18671.67
634.369	18712.63
634.563	18753.59
634.757	18370.62
634.951	18411.58
635.145	18366.53
635.339	18571.32
635.533	18131.01
635.726	18126.91
635.92	17731.65
636.114	17676.36
636.308	17643.59
636.501	17639.5
636.695	18135.1
636.889	17360.97
637.083	17367.12
637.276	17440.84
637.47	17117.26
637.664	17193.04
637.857	17080.4
638.051	17084.5
638.244	16926.8
638.438	16664.66
638.632	16695.38
638.825	16599.13
639.019	16365.66
639.212	16154.72
639.406	16410.71
639.599	16064.61
639.793	16308.32
639.986	15954.02
640.18	15808.61
640.373	15857.76
640.567	15638.63
640.76	15882.34
640.954	15587.43
641.147	15517.8
641.34	15487.08
641.534	15474.79
641.727	15265.9
641.92	15313
642.114	15220.85
642.307	15130.73
642.5	15122.54
642.694	14760.05
642.887	14913.65
643.08	14903.41
643.273	14729.33
643.467	14499.96
643.66	14655.61
643.853	14297.21
644.046	14272.64
644.239	14272.64
644.432	14037.12
644.626	14098.56
644.819	14088.32
645.012	14094.46
645.205	13940.86
645.398	13758.6
645.591	13672.58
645.784	13686.92
645.977	13428.87
646.17	13531.27
646.363	13494.41
646.556	13336.71
646.749	13285.51
646.942	13463.69
647.135	13090.96
647.328	12841.11
647.521	13262.99
647.714	12961.94
647.907	13080.72
648.099	13013.13
648.292	13025.42
648.485	12470.42
648.678	12626.07
648.871	12734.61
649.064	12548.25
649.256	12476.57
649.449	12325.02
649.642	12466.33
649.835	12167.32
650.027	12046.49
650.22	11845.79
650.413	11954.33
650.605	11962.53
650.798	11905.18
650.991	11651.24
651.183	11888.8
651.376	11741.35
651.568	11600.04
651.761	11739.3
651.954	11593.89
652.146	11571.36
652.339	11450.53
652.531	11477.16
652.724	11393.19
652.916	11034.8
653.109	11227.31
653.301	11231.4
653.494	11053.23
653.686	10942.64
653.879	11100.33
654.071	10752.18
654.263	10723.51
654.456	10815.66
654.648	10803.38
654.84	10705.07
655.033	10741.94
655.225	10436.79
655.417	10496.18
655.61	10551.48
655.802	10254.52
655.994	10416.31
656.186	10408.12
656.379	10266.81
656.571	10160.31
656.763	10178.75
656.955	10041.53
657.148	10123.45
657.34	10215.61
657.532	9656.51
657.724	9857.21
657.916	10027.2
658.108	9793.73
658.3	9832.64
658.492	9734.34
658.684	9562.31
658.876	9769.15
659.068	9488.58
659.26	9468.1
659.452	9289.93
659.644	9377.99
659.836	9281.74
660.028	9468.1
660.22	9265.35
660.412	9263.3
660.604	9033.93
660.796	9277.64
660.988	9275.59
661.18	9087.18
661.372	9076.94
661.563	9058.51
661.755	9056.46
661.947	8835.28
662.139	8845.52
662.331	8751.31
662.522	8642.77
662.714	8771.79
662.906	8630.48
663.097	8671.44
663.289	8337.62
663.481	8274.14
663.673	8702.16
663.864	8257.75
664.056	8356.05
664.247	8302.81
664.439	8179.93
664.631	8317.14
664.822	8251.61
665.014	8313.05
665.205	8001.76
665.397	8100.06
665.588	8192.22
665.78	7862.49
665.971	7942.36
666.163	7913.69
666.354	8077.53
666.546	7960.8
666.737	7778.53
666.929	7989.47
667.12	7741.66
667.311	7813.34
667.503	7555.3
667.694	7725.28
667.885	7616.74
668.077	7594.21
668.268	7624.93
668.459	7626.98
668.651	7346.41
668.842	7409.89
669.033	7375.08
669.224	7588.07
669.416	7469.28
669.607	7272.68
669.798	7438.56
669.989	7379.17
670.18	7256.29
670.371	7217.38
670.563	7129.32
670.754	7155.94
670.945	7221.48
671.136	7078.12
671.327	7082.22
671.518	7088.36
671.709	7092.46
671.9	6971.63
672.091	7004.39
672.282	6906.09
672.473	7020.78
672.664	6994.15
672.855	6955.24
673.046	6873.32
673.237	7084.27
673.428	6799.6
673.619	6969.58
673.809	6721.77
674	6826.22
674.191	6748.4
674.382	6752.49
674.573	6858.99
674.764	6701.3
674.954	6820.08
675.145	6738.16
675.336	6629.62
675.527	6707.44
675.717	6654.19
675.908	6424.82
676.099	6562.03
676.289	6602.99
676.48	6615.28
676.671	6435.06
676.861	6529.27
677.052	6480.11
677.243	6658.29
677.433	6340.85
677.624	6484.21
677.814	6394.1
678.005	6338.8
678.195	6445.3
678.386	6322.42
678.576	6181.11
678.767	6510.83
678.957	6322.42
679.148	6433.01
679.338	6318.32
679.529	6136.06
679.719	6279.41
679.909	6308.09
680.1	6437.11
680.29	6289.65
680.481	6168.82
680.671	6250.74
680.861	6287.61
681.052	6148.34
681.242	6258.93
681.432	5980.41
681.622	6000.89
681.813	6101.24
682.003	6015.23
682.193	6101.24
682.383	6101.24
682.573	6047.99
682.764	5835
682.954	6148.34
683.144	6074.62
683.334	5980.41
683.524	6131.96
683.714	6023.42
683.904	5923.07
684.094	5837.05
684.284	6136.06
684.474	6093.05
684.664	6115.58
684.854	5765.37
685.044	5921.02
685.234	5828.86
685.424	5859.58
685.614	5818.62
685.804	5599.49
685.994	5847.29
686.184	5736.7
686.374	5789.95
686.564	5656.83
686.753	5771.52
686.943	5775.61
687.133	5523.71
687.323	5441.79
687.513	5636.35
687.702	5509.38
687.892	5302.53
688.082	5439.75
688.272	5667.07
688.461	5431.55
688.651	5439.75
688.841	5462.27
689.03	5155.08
689.22	5441.79
689.41	5251.33
689.599	5310.72
689.789	5284.1
689.979	5163.27
690.168	5112.07
690.358	5167.37
690.547	5075.21
690.737	5294.34
690.926	5058.82
691.116	4933.9
691.305	5118.22
691.495	5148.93
691.684	4976.91
691.874	5093.64
692.063	4960.52
692.252	5136.65
692.442	4991.24
692.631	4860.17
692.82	4829.45
693.01	4808.97
693.199	4821.26
693.388	4718.86
693.578	4915.47
693.767	4862.22
693.956	4702.48
694.146	4686.09
694.335	4636.94
694.524	4725.01
694.713	4684.05
694.902	4614.41
695.092	4669.71
695.281	4577.55
695.47	4573.46
695.659	4645.13
695.848	4677.9
696.037	4489.49
696.226	4514.06
696.415	4430.1
696.604	4536.59
696.793	4475.15
696.982	4303.12
697.171	4518.16
697.36	4448.53
697.549	4452.63
697.738	4194.58
697.927	4358.42
698.116	4438.29
698.305	4382.99
698.494	4454.67
698.683	4423.95
698.872	4450.58
699.061	4358.42
699.25	4335.89
699.438	4466.96
699.627	4305.17
699.816	4380.95
700.005	4329.75
700.193	4229.4
700.382	4184.34
700.571	4241.68
700.76	4331.8
700.948	4342.04
701.137	4180.25
701.326	4176.15
701.514	4198.68
701.703	4077.85
701.892	4114.71
702.08	4243.73
702.269	4118.81
702.457	4182.29
702.646	4180.25
702.834	4153.62
703.023	4149.53
703.212	4190.49
703.4	4342.04
703.589	4120.85
703.777	4139.29
703.965	4104.47
704.154	4133.14
704.342	4079.9
704.531	4237.59
704.719	4124.95
704.907	4198.68
705.096	4053.27
705.284	4104.47
705.472	4133.14
705.661	4075.8
705.849	4159.77
706.037	4075.8
706.226	4088.09
706.414	4194.58
706.602	4016.41
706.79	4190.49
706.979	3969.3
707.167	4071.7
707.355	4100.37
707.543	4057.37
707.731	4104.47
707.919	4063.51
708.107	4182.29
708.296	4028.7
708.484	4079.9
708.672	4147.48
708.86	4024.6
709.048	4118.81
709.236	4110.61
709.424	4061.46
709.612	3985.69
709.8	4055.32
709.988	4088.09
710.176	4024.6
710.364	4002.07
710.551	4079.9
710.739	4079.9
710.927	3924.25
711.115	3954.97
711.303	4133.14
711.491	4040.98
711.679	4065.56
711.866	4055.32
712.054	4096.28
712.242	3942.68
712.43	4120.85
712.617	4083.99
712.805	4018.46
712.993	4000.02
713.181	4118.81
713.368	4018.46
713.556	4069.66
713.744	4008.22
713.931	4102.42
714.119	4127
714.306	4008.22
714.494	4034.84
714.682	4047.13
714.869	3914.01
715.057	4127
715.244	4016.41
715.432	4213.01
715.619	4055.32
715.807	4094.23
715.994	4090.13
716.182	4055.32
716.369	4110.61
716.556	4026.65
716.744	4090.13
716.931	4221.2
717.119	4116.76
717.306	4059.42
717.493	4036.89
717.681	4040.98
717.868	3991.83
718.055	4036.89
718.242	4069.66
718.43	3969.3
718.617	3997.98
718.804	4133.14
718.991	4030.74
719.179	3975.45
719.366	4100.37
719.553	4114.71
719.74	4045.08
719.927	4133.14
720.114	4043.03
720.301	4145.43
720.488	4047.13
720.676	4110.61
720.863	4118.81
721.05	4086.04
721.237	4311.32
721.424	4184.34
721.611	4110.61
721.798	4022.55
721.985	4155.67
722.172	3971.35
722.358	4374.8
722.545	4057.37
722.732	4145.43
722.919	4139.29
723.106	4030.74
723.293	4120.85
723.48	4210.97
723.667	4151.57
723.853	4055.32
724.04	4217.11
724.227	4190.49
724.414	4163.86
724.6	4204.82
724.787	4200.73
724.974	4108.57
725.161	4028.7
725.347	4112.66
725.534	4110.61
725.72	4049.18
725.907	4098.33
726.094	4110.61
726.28	4147.48
726.467	3959.06
726.653	4096.28
726.84	4157.72
727.027	4247.83
727.213	4155.67
727.4	4122.9
727.586	4227.35
727.773	4083.99
727.959	4192.53
728.145	4186.39
728.332	4161.81
728.518	4067.61
728.705	4215.06
728.891	4108.57
729.077	4045.08
729.264	4157.72
729.45	4170.01
729.636	4276.5
729.823	4186.39
730.009	4213.01
730.195	4266.26
730.382	4198.68
730.568	4262.16
730.754	4223.25
730.94	4243.73
731.126	4260.12
731.313	4239.64
731.499	4120.85
731.685	4221.2
731.871	4213.01
732.057	4221.2
732.243	4217.11
732.429	4131.09
732.615	4229.4
732.801	4213.01
732.987	4186.39
733.173	4278.55
733.359	4192.53
733.545	4120.85
733.731	4114.71
733.917	4104.47
734.103	4380.95
734.289	4366.61
734.475	4112.66
734.661	4133.14
734.847	4194.58
735.033	4270.36
735.219	4200.73
735.404	4198.68
735.59	4323.6
735.776	4215.06
735.962	4290.84
736.148	4245.78
736.333	4151.57
736.519	4229.4
736.705	4188.44
736.89	4215.06
737.076	4124.95
737.262	4083.99
737.447	4196.63
737.633	4004.12
737.819	4321.56
738.004	4129.05
738.19	4227.35
738.375	4030.74
738.561	4237.59
738.747	4086.04
738.932	4147.48
739.118	4307.22
739.303	4069.66
739.489	4245.78
739.674	4065.56
739.859	4018.46
740.045	4118.81
740.23	4135.19
740.416	3997.98
740.601	4028.7
740.786	3864.86
740.972	3993.88
741.157	3938.59
741.342	3961.11
741.528	3918.11
741.713	3928.35
741.898	3987.74
742.084	4139.29
742.269	4012.31
742.454	3987.74
742.639	4036.89
742.824	3905.82
743.01	3916.06
743.195	3981.59
743.38	3825.95
743.565	3772.7
743.75	3885.34
743.935	3911.96
744.12	3977.5
744.305	3795.23
744.49	3815.71
744.675	3809.56
744.86	3813.66
745.045	3832.09
745.23	3762.46
745.415	3723.55
745.6	3877.15
745.785	3774.75
745.97	3787.04
746.155	3647.77
746.34	3766.56
746.525	3633.44
746.71	3729.69
746.895	3541.28
747.079	3664.16
747.264	3488.03
747.449	3574.05
747.634	3576.09
747.819	3434.78
748.003	3475.74
748.188	3359.01
748.373	3492.13
748.557	3514.66
748.742	3442.98
748.927	3352.87
749.111	3395.87
749.296	3410.21
749.481	3324.19
749.665	3391.78
749.85	3156.26
750.034	3426.59
750.219	3146.02
750.404	3297.57
750.588	3098.92
750.773	3045.67
750.957	3207.46
751.141	3162.41
751.326	3062.05
751.51	3273
751.695	3197.22
751.879	3080.49
752.064	3232.04
752.248	3105.06
752.432	3139.88
752.617	3111.21
752.801	3055.91
752.985	3010.86
753.17	3037.48
753.354	2959.66
753.538	2918.7
753.722	2896.17
753.907	2867.5
754.091	2820.39
754.275	2830.63
754.459	2738.48
754.643	2853.16
754.828	2718
755.012	2861.35
755.196	2713.9
755.38	2683.18
755.564	2578.73
755.748	2687.28
755.932	2597.17
756.116	2668.84
756.3	2517.29
756.484	2597.17
756.668	2658.6
756.852	2568.49
757.036	2447.66
757.22	2496.82
757.404	2570.54
757.588	2507.06
757.772	2642.22
757.956	2402.61
758.14	2529.58
758.323	2375.99
758.507	2500.91
758.691	2382.13
758.875	2396.46
759.059	2447.66
759.242	2341.17
759.426	2339.12
759.61	2367.79
759.794	2265.39
759.977	2380.08
760.161	2396.46
760.345	2373.94
760.528	2267.44
760.712	2257.2
760.895	2216.24
761.079	2203.96
761.263	2187.57
761.446	2122.04
761.63	2203.96
761.813	2203.96
761.997	2146.61
762.18	2126.13
762.364	2158.9
762.547	2156.85
762.731	2140.47
762.914	2175.28
763.098	2052.41
763.281	2085.17
763.464	2001.21
763.648	2060.6
763.831	2019.64
764.015	2044.21
764.198	2085.17
764.381	2072.89
764.564	2074.93
764.748	1976.63
764.931	1929.53
765.114	1931.58
765.297	1974.58
765.481	1866.04
765.664	1947.96
765.847	1904.95
766.03	1980.73
766.213	1966.39
766.397	1941.82
766.58	1837.37
766.763	2009.4
766.946	1980.73
767.129	1878.33
767.312	1839.42
767.495	1825.08
767.678	1825.08
767.861	1898.81
768.044	1866.04
768.227	1931.58
768.41	1861.94
768.593	1872.18
768.776	1939.77
768.959	1814.84
769.142	1767.74
769.324	1679.68
769.507	1800.51
769.69	1804.6
769.873	1833.27
770.056	1775.93
770.239	1831.23
770.421	1915.19
770.604	1687.87
770.787	1726.78
770.97	1720.64
771.152	1597.76
771.335	1700.16
771.518	1722.68
771.7	1706.3
771.883	1722.68
772.066	1634.62
772.248	1716.54
772.431	1704.25
772.613	1665.34
772.796	1665.34
772.978	1632.57
773.161	1612.09
773.343	1458.5
773.526	1667.39
773.708	1562.94
773.891	1501.5
774.073	1571.13
774.256	1624.38
774.438	1489.21
774.621	1511.74
774.803	1528.13
774.985	1415.49
775.168	1485.12
775.35	1534.27
775.532	1431.87
775.715	1440.06
775.897	1335.62
776.079	1497.41
776.261	1376.58
776.444	1337.66
776.626	1331.52
776.808	1354.05
776.99	1407.3
777.173	1294.66
777.355	1390.91
777.537	1323.33
777.719	1317.19
777.901	1343.81
778.083	1288.51
778.265	1182.02
778.447	1337.66
778.629	1265.99
778.811	1294.66
778.993	1255.75
779.175	1233.22
779.357	1343.81
779.539	1235.27
779.721	1206.59
779.903	1274.18
780.085	1165.64
780.267	1157.44
780.449	1204.55
780.631	1231.17
780.812	1118.53
780.994	1153.35
781.176	1157.44
781.358	1098.05
781.54	1130.82
781.721	1245.51
781.903	1155.4
782.085	1110.34
782.267	1132.87
782.448	1089.86
782.63	1005.89
782.812	1012.04
782.993	995.65
783.175	1048.9
783.357	1067.33
783.538	1044.81
783.72	944.45
783.901	950.6
784.083	993.61
784.264	948.55
784.446	1018.18
784.627	917.83
784.809	1018.18
784.99	921.93
785.172	932.17
785.353	958.79
785.535	946.5
785.716	1005.89
785.897	848.2
786.079	815.43
786.26	856.39
786.441	878.92
786.623	790.86
786.804	821.58
786.985	823.62
787.167	860.49
787.348	842.06
787.529	794.95
787.71	903.5
787.891	958.79
788.073	817.48
788.254	874.82
788.435	731.47
788.616	936.26
788.797	651.6
788.978	768.33
789.159	753.99
789.34	753.99
789.522	776.52
789.703	719.18
789.884	756.04
790.065	821.58
790.246	799.05
790.427	749.9
790.607	727.37
790.788	708.94
790.969	688.46
791.15	764.23
791.331	682.31
791.512	676.17
791.693	680.27
791.874	659.79
792.054	713.03
792.235	690.51
792.416	608.59
792.597	743.75
792.778	643.4
792.958	653.64
793.139	637.26
793.32	694.6
793.5	561.48
793.681	725.32
793.862	604.49
794.042	655.69
794.223	594.25
794.404	610.64
794.584	545.1
794.765	633.16
794.945	600.4
795.126	620.88
795.306	659.79
795.487	643.4
795.667	627.02
795.848	653.64
796.028	586.06
796.209	612.68
796.389	643.4
796.57	559.44
796.75	545.1
796.93	612.68
797.111	573.77
797.291	627.02
797.471	610.64
797.652	489.81
797.832	489.81
798.012	573.77
798.192	495.95
798.373	471.37
798.553	473.42
798.733	584.01
798.913	463.18
799.093	516.43
799.274	506.19
799.454	444.75
799.634	469.33
799.814	559.44
799.994	624.97
800.174	538.96
800.354	487.76
800.534	452.94
800.714	467.28
800.894	454.99
801.074	491.85
801.254	397.65
801.434	504.14
801.614	446.8
801.794	471.37
801.974	1143.11
802.154	424.27
802.334	489.81
802.514	381.26
802.693	409.94
802.873	485.71
803.053	493.9
803.233	510.29
803.413	358.74
803.592	448.85
803.772	442.7
803.952	407.89
804.131	401.74
804.311	379.22
804.491	403.79
804.67	358.74
804.85	393.55
805.03	385.36
805.209	551.24
805.389	319.82
805.568	428.37
805.748	422.22
805.928	383.31
806.107	377.17
806.287	362.83
806.466	393.55
806.646	319.82
806.825	368.98
807.004	379.22
807.184	371.02
807.363	461.13
807.543	354.64
807.722	411.98
807.901	430.41
808.081	383.31
808.26	338.26
808.439	409.94
808.619	323.92
808.798	422.22
808.977	368.98
809.156	368.98
809.336	321.87
809.515	362.83
809.694	311.63
809.873	368.98
810.052	383.31
810.231	317.78
810.411	377.17
810.59	432.46
810.769	295.25
810.948	379.22
811.127	332.11
811.306	270.67
811.485	319.82
811.664	364.88
811.843	360.78
812.022	350.54
812.201	387.41
812.38	303.44
812.559	217.43
812.737	399.7
812.916	336.21
813.095	260.43
813.274	272.72
813.453	264.53
813.632	344.4
813.811	362.83
813.989	239.95
814.168	293.2
814.347	260.43
814.526	280.91
814.704	276.82
814.883	340.3
815.062	250.19
815.24	282.96
815.419	211.28
815.598	295.25
815.776	293.2
815.955	307.54
816.133	178.51
816.312	299.34
816.49	217.43
816.669	225.62
816.847	178.51
817.026	252.24
817.204	289.1
817.383	176.47
817.561	235.86
817.74	264.53
817.918	342.35
818.097	264.53
818.275	246.1
818.453	313.68
818.632	221.52
818.81	248.15
818.988	280.91
819.167	250.19
819.345	297.3
819.523	217.43
819.701	280.91
819.879	260.43
820.058	217.43
820.236	229.71
820.414	311.63
820.592	289.1
820.77	219.47
820.948	244.05
821.127	227.67
821.305	231.76
821.483	155.99
821.661	219.47
821.839	270.67
822.017	184.66
822.195	248.15
822.373	231.76
822.551	229.71
822.729	336.21
822.907	223.57
823.085	295.25
823.262	250.19
823.44	151.89
823.618	250.19
823.796	215.38
823.974	239.95
824.152	184.66
824.329	223.57
824.507	186.71
824.685	237.91
824.863	227.67
825.04	121.17
825.218	256.34
825.396	155.99
825.574	180.56
825.751	170.32
825.929	272.72
826.107	153.94
826.284	215.38
826.462	215.38
826.639	233.81
826.817	190.8
826.994	266.58
827.172	96.6
827.349	184.66
827.527	201.04
827.704	190.8
827.882	291.15
828.059	166.23
828.237	203.09
828.414	205.14
828.591	117.08
828.769	223.57
828.946	174.42
829.124	198.99
829.301	198.99
829.478	184.66
829.655	158.03
829.833	160.08
830.01	117.08
830.187	205.14
830.364	201.04
830.542	184.66
830.719	278.87
830.896	190.8
831.073	201.04
831.25	268.63
831.427	205.14
831.604	186.71
831.782	108.88
831.959	135.51
832.136	149.84
832.313	88.4
832.49	153.94
832.667	166.23
832.844	174.42
833.021	139.6
833.198	98.64
833.374	92.5
833.551	72.02
833.728	182.61
833.905	219.47
834.082	123.22
834.259	100.69
834.436	213.33
834.612	110.93
834.789	178.51
834.966	74.07
835.143	96.6
835.319	104.79
835.496	123.22
835.673	205.14
835.85	213.33
836.026	192.85
836.203	127.32
836.38	147.8
836.556	168.27
836.733	121.17
836.909	201.04
837.086	131.41
837.262	119.12
837.439	98.64
837.616	135.51
837.792	135.51
837.968	76.12
838.145	117.08
838.321	158.03
838.498	39.25
838.674	112.98
838.851	117.08
839.027	125.27
839.203	110.93
839.38	63.83
839.556	86.36
839.732	149.84
839.909	135.51
840.085	65.88
840.261	112.98
840.437	55.64
840.614	147.8
840.79	209.23
840.966	96.6
841.142	69.97
841.318	31.06
841.494	180.56
841.671	125.27
841.847	100.69
842.023	84.31
842.199	137.56
842.375	92.5
842.551	26.96
842.727	110.93
842.903	162.13
843.079	-24.23
843.255	121.17
843.431	125.27
843.607	106.84
843.783	94.55
843.959	135.51
844.134	123.22
844.31	182.61
844.486	133.46
844.662	98.64
844.838	53.59
845.013	139.6
845.189	102.74
845.365	76.12
845.541	137.56
845.716	160.08
845.892	92.5
846.068	102.74
846.244	94.55
846.419	145.75
846.595	63.83
846.77	104.79
846.946	123.22
847.122	63.83
847.297	69.97
847.473	127.32
847.648	84.31
847.824	123.22
847.999	24.92
848.175	18.77
848.35	88.4
848.526	164.18
848.701	76.12
848.876	84.31
849.052	49.49
849.227	51.54
849.403	88.4
849.578	127.32
849.753	16.73
849.929	65.88
850.104	102.74
850.279	29.01
850.454	82.26
850.63	129.36
850.805	131.41
850.98	24.92
851.155	82.26
851.33	117.08
851.505	14.68
851.681	151.89
851.856	67.92
852.031	106.84
852.206	43.35
852.381	119.12
852.556	6.49
852.731	6.49
852.906	69.97
853.081	92.5
853.256	127.32
853.431	88.4
853.606	135.51
853.781	92.5
853.956	59.73
854.131	86.36
854.305	67.92
854.48	96.6
854.655	102.74
854.83	20.82
855.005	43.35
855.18	108.88
855.354	0.34
855.529	41.3
855.704	61.78
855.879	96.6
856.053	29.01
856.228	102.74
856.403	86.36
856.577	104.79
856.752	55.64
856.926	88.4
857.101	74.07
857.276	37.2
857.45	104.79
857.625	69.97
857.799	82.26
857.974	98.64
858.148	-22.19
858.323	86.36
858.497	22.87
858.672	8.53
858.846	8.53
859.02	110.93
859.195	41.3
859.369	74.07
859.543	-11.95
859.718	106.84
859.892	49.49
860.066	82.26
860.241	39.25
860.415	29.01
860.589	53.59
860.763	22.87
860.938	-5.8
861.112	82.26
861.286	43.35
861.46	65.88
861.634	2.39
861.808	141.65
861.982	37.2
862.157	133.46
862.331	18.77
862.505	-36.52
862.679	-18.09
862.853	22.87
863.027	141.65
863.201	172.37
863.375	41.3
863.549	88.4
863.722	-11.95
863.896	39.25
864.07	65.88
864.244	2.39
864.418	53.59
864.592	26.96
864.766	55.64
864.939	45.4
865.113	22.87
865.287	6.49
865.461	43.35
865.634	37.2
865.808	47.44
865.982	26.96
866.156	-52.91
866.329	12.63
866.503	33.11
866.676	43.35
866.85	45.4
867.024	74.07
867.197	41.3
867.371	63.83
867.544	-28.33
867.718	31.06
867.891	67.92
868.065	29.01
868.238	94.55
868.412	104.79
868.585	0.34
868.759	-26.28
868.932	10.58
869.105	6.49
869.279	12.63
869.452	45.4
869.625	4.44
869.799	18.77
869.972	-9.9
870.145	86.36
870.319	65.88
870.492	80.21
870.665	16.73
870.838	2.39
871.011	51.54
871.185	80.21
871.358	67.92
871.531	67.92
871.704	102.74
871.877	80.21
872.05	-11.95
872.223	6.49
872.396	90.45
872.569	61.78
872.742	43.35
872.915	26.96
873.088	51.54
873.261	-16.04
873.434	49.49
873.607	24.92
873.78	18.77
873.953	-9.9
874.126	49.49
874.299	72.02
874.471	20.82
874.644	49.49
874.817	45.4
874.99	92.5
875.163	39.25
875.335	63.83
875.508	-22.19
875.681	145.75
875.853	51.54
876.026	55.64
876.199	94.55
876.371	102.74
876.544	24.92
876.717	100.69
876.889	47.44
877.062	47.44
877.234	14.68
877.407	35.16
877.579	-36.52
877.752	47.44
877.924	22.87
878.097	26.96
878.269	10.58
878.442	8.53
878.614	72.02
878.786	45.4
878.959	63.83
879.131	-9.9
879.303	-24.23
879.476	-5.8
879.648	51.54
879.82	61.78
879.993	10.58
880.165	53.59
880.337	29.01
880.509	2.39
880.681	14.68
880.854	12.63
881.026	88.4
881.198	96.6
881.37	33.11
881.542	88.4
881.714	-36.52
881.886	-28.33
882.058	102.74
882.23	16.73
882.402	41.3
882.574	-63.15
882.746	-1.71
882.918	31.06
883.09	67.92
883.262	6.49
883.434	31.06
883.606	0.34
883.778	49.49
883.95	55.64
884.122	43.35
884.293	84.31
884.465	4.44
884.637	47.44
884.809	16.73
884.98	20.82
885.152	41.3
885.324	-24.23
885.496	-3.75
885.667	82.26
885.839	10.58
886.011	51.54
886.182	26.96
886.354	90.45
886.525	37.2
886.697	43.35
886.869	-11.95
887.04	22.87
887.212	55.64
887.383	69.97
887.555	-30.38
887.726	20.82
887.897	41.3
888.069	53.59
888.24	22.87
888.412	26.96
888.583	-69.29
888.754	45.4
888.926	-61.1
889.097	51.54
889.268	12.63
889.44	-9.9
889.611	-110.25
889.782	-11.95
889.953	8.53
890.125	57.68
890.296	-50.86
890.467	-54.95
890.638	-13.99
890.809	35.16
890.98	20.82
891.151	26.96
891.323	-22.19
891.494	47.44
891.665	-24.23
891.836	49.49
892.007	-18.09
892.178	6.49
892.349	-11.95
892.52	20.82
892.691	49.49
892.862	-16.04
893.032	26.96
893.203	16.73
893.374	22.87
893.545	92.5
893.716	53.59
893.887	59.73
894.057	0.34
894.228	63.83
894.399	-7.85
894.57	82.26
894.74	-20.14
894.911	24.92
895.082	-44.71
895.253	-5.8
895.423	31.06
895.594	65.88
895.764	29.01
895.935	37.2
896.106	-22.19
896.276	4.44
896.447	24.92
896.617	41.3
896.788	53.59
896.958	8.53
897.129	-7.85
897.299	-24.23
897.47	108.88
897.64	33.11
897.81	-22.19
897.981	6.49
898.151	74.07
898.322	22.87
898.492	-11.95
898.662	-65.19
898.832	-26.28
899.003	24.92
899.173	12.63
899.343	-26.28
899.513	37.2
