Data from USB4F104151__13__12-23-23-778.txt Node

Date: Fri Mar 14 12:23:23 EDT 2025
User: louis
Spectrometer: USB4F10415
Trigger mode: 4
Integration Time (sec): 3.500000E-2
Scans to average: 1
Electric dark correction enabled: true
Nonlinearity correction enabled: false
Boxcar width: 0
XAxis mode: Wavelengths
Number of Pixels in Spectrum: 3648
>>>>>Begin Spectral Data<<<<<
178.204	-169.13
178.424	-169.13
178.644	-169.13
178.864	-171.18
179.084	-177.32
179.304	-31.91
179.524	17.24
179.744	58.2
179.964	37.72
180.184	13.14
180.404	2.9
180.624	-40.11
180.844	33.62
181.064	-42.15
181.283	-66.73
181.503	13.14
181.723	4.95
181.943	-29.87
182.163	150.36
182.383	43.86
182.602	-40.11
182.822	-17.58
183.042	68.44
183.262	0.85
183.482	-3.24
183.701	25.43
183.921	0.85
184.141	19.29
184.361	50
184.58	13.14
184.8	72.53
185.02	-7.34
185.239	9.05
185.459	-3.24
185.679	-1.19
185.898	-83.11
186.118	0.85
186.338	56.15
186.557	29.52
186.777	-17.58
186.997	11.09
187.216	7
187.436	156.5
187.655	29.52
187.875	29.52
188.095	-19.63
188.314	0.85
188.534	90.96
188.753	29.52
188.973	7
189.192	25.43
189.412	-7.34
189.631	-46.25
189.851	-5.29
190.07	11.09
190.29	-38.06
190.509	-21.67
190.729	11.09
190.948	37.72
191.168	105.3
191.387	-9.39
191.607	45.91
191.826	27.48
192.045	-23.72
192.265	-3.24
192.484	7
192.704	-33.96
192.923	-11.43
193.142	78.68
193.362	125.78
193.581	68.44
193.8	66.39
194.02	-9.39
194.239	-33.96
194.458	4.95
194.678	-40.11
194.897	13.14
195.116	-33.96
195.335	-56.49
195.555	47.96
195.774	-25.77
195.993	-62.63
196.212	39.76
196.432	11.09
196.651	17.24
196.87	35.67
197.089	84.82
197.308	-13.48
197.528	107.35
197.747	-93.35
197.966	-13.48
198.185	7
198.404	0.85
198.623	54.1
198.842	54.1
199.062	19.29
199.281	-19.63
199.5	0.85
199.719	54.1
199.938	25.43
200.157	109.4
200.376	74.58
200.595	37.72
200.814	47.96
201.033	66.39
201.252	19.29
201.471	-29.87
201.69	95.06
201.909	-38.06
202.128	39.76
202.347	-48.3
202.566	19.29
202.785	-11.43
203.004	-25.77
203.223	82.77
203.442	58.2
203.661	-9.39
203.879	25.43
204.098	33.62
204.317	-3.24
204.536	62.29
204.755	54.1
204.974	25.43
205.193	76.63
205.411	43.86
205.63	45.91
205.849	52.05
206.068	56.15
206.287	43.86
206.505	15.19
206.724	47.96
206.943	33.62
207.162	-38.06
207.381	76.63
207.599	-9.39
207.818	74.58
208.037	70.48
208.255	-42.15
208.474	-40.11
208.693	54.1
208.911	39.76
209.13	-21.67
209.349	21.33
209.567	-29.87
209.786	86.87
210.005	64.34
210.223	70.48
210.442	-5.29
210.661	60.24
210.879	-21.67
211.098	66.39
211.316	41.81
211.535	25.43
211.753	-11.43
211.972	17.24
212.191	31.57
212.409	84.82
212.628	39.76
212.846	19.29
213.065	7
213.283	140.12
213.502	35.67
213.72	82.77
213.938	50
214.157	82.77
214.375	31.57
214.594	-7.34
214.812	78.68
215.031	19.29
215.249	4.95
215.467	-11.43
215.686	23.38
215.904	111.44
216.122	7
216.341	33.62
216.559	93.01
216.778	41.81
216.996	82.77
217.214	9.05
217.432	-40.11
217.651	-7.34
217.869	66.39
218.087	43.86
218.306	-7.34
218.524	66.39
218.742	-62.63
218.96	-5.29
219.179	52.05
219.397	56.15
219.615	129.88
219.833	17.24
220.051	-9.39
220.27	-13.48
220.488	-7.34
220.706	52.05
220.924	-21.67
221.142	117.59
221.36	68.44
221.578	45.91
221.796	58.2
222.015	13.14
222.233	27.48
222.451	60.24
222.669	-54.44
222.887	31.57
223.105	-25.77
223.323	39.76
223.541	21.33
223.759	60.24
223.977	-5.29
224.195	56.15
224.413	-1.19
224.631	140.12
224.849	11.09
225.067	78.68
225.285	-38.06
225.503	23.38
225.721	-66.73
225.939	76.63
226.157	-5.29
226.375	37.72
226.592	7
226.81	27.48
227.028	21.33
227.246	86.87
227.464	-5.29
227.682	52.05
227.9	23.38
228.117	21.33
228.335	27.48
228.553	-13.48
228.771	0.85
228.989	29.52
229.206	25.43
229.424	39.76
229.642	-9.39
229.86	50
230.077	37.72
230.295	72.53
230.513	103.25
230.731	2.9
230.948	93.01
231.166	37.72
231.384	-62.63
231.601	-3.24
231.819	41.81
232.037	-15.53
232.254	-21.67
232.472	-3.24
232.689	-40.11
232.907	60.24
233.125	9.05
233.342	-48.3
233.56	-66.73
233.777	60.24
233.995	-7.34
234.213	66.39
234.43	-1.19
234.648	13.14
234.865	76.63
235.083	-19.63
235.3	109.4
235.518	13.14
235.735	39.76
235.953	45.91
236.17	0.85
236.388	84.82
236.605	-23.72
236.822	0.85
237.04	25.43
237.257	17.24
237.475	27.48
237.692	-5.29
237.909	45.91
238.127	-33.96
238.344	9.05
238.562	0.85
238.779	-27.82
238.996	-31.91
239.214	-36.01
239.431	64.34
239.648	-52.39
239.865	23.38
240.083	4.95
240.3	19.29
240.517	-21.67
240.735	-15.53
240.952	64.34
241.169	-31.91
241.386	-42.15
241.603	66.39
241.821	23.38
242.038	43.86
242.255	-21.67
242.472	-89.26
242.689	39.76
242.907	107.35
243.124	66.39
243.341	62.29
243.558	-56.49
243.775	-81.07
243.992	-54.44
244.209	2.9
244.426	70.48
244.643	13.14
244.86	88.92
245.078	52.05
245.295	56.15
245.512	66.39
245.729	31.57
245.946	-7.34
246.163	15.19
246.38	72.53
246.597	-9.39
246.814	17.24
247.031	47.96
247.248	43.86
247.464	13.14
247.681	37.72
247.898	31.57
248.115	45.91
248.332	-38.06
248.549	72.53
248.766	50
248.983	45.91
249.2	31.57
249.417	41.81
249.633	-72.87
249.85	-17.58
250.067	25.43
250.284	45.91
250.501	0.85
250.717	52.05
250.934	19.29
251.151	62.29
251.368	-52.39
251.585	43.86
251.801	-1.19
252.018	-40.11
252.235	33.62
252.451	56.15
252.668	19.29
252.885	-5.29
253.102	56.15
253.318	50
253.535	-5.29
253.752	-13.48
253.968	4.95
254.185	41.81
254.401	4.95
254.618	72.53
254.835	27.48
255.051	50
255.268	17.24
255.484	13.14
255.701	-15.53
255.917	68.44
256.134	-29.87
256.351	23.38
256.567	-19.63
256.784	4.95
257	66.39
257.217	52.05
257.433	76.63
257.65	62.29
257.866	43.86
258.082	-89.26
258.299	70.48
258.515	19.29
258.732	47.96
258.948	2.9
259.165	31.57
259.381	-17.58
259.597	41.81
259.814	-5.29
260.03	60.24
260.246	76.63
260.463	-3.24
260.679	27.48
260.895	19.29
261.112	21.33
261.328	25.43
261.544	-5.29
261.761	115.54
261.977	-33.96
262.193	39.76
262.409	-19.63
262.626	113.49
262.842	43.86
263.058	4.95
263.274	54.1
263.49	15.19
263.707	60.24
263.923	-11.43
264.139	-23.72
264.355	7
264.571	15.19
264.787	37.72
265.004	111.44
265.22	-52.39
265.436	-60.59
265.652	7
265.868	113.49
266.084	-1.19
266.3	-13.48
266.516	-5.29
266.732	-56.49
266.948	17.24
267.164	-36.01
267.38	23.38
267.596	0.85
267.812	11.09
268.028	-5.29
268.244	64.34
268.46	23.38
268.676	17.24
268.892	62.29
269.108	7
269.324	50
269.54	-38.06
269.756	25.43
269.972	50
270.188	17.24
270.403	56.15
270.619	-3.24
270.835	-29.87
271.051	15.19
271.267	58.2
271.483	9.05
271.698	29.52
271.914	68.44
272.13	-13.48
272.346	-3.24
272.562	23.38
272.777	62.29
272.993	-21.67
273.209	39.76
273.425	11.09
273.64	-42.15
273.856	45.91
274.072	-40.11
274.287	-48.3
274.503	13.14
274.719	62.29
274.934	-33.96
275.15	4.95
275.366	101.2
275.581	15.19
275.797	45.91
276.012	-25.77
276.228	0.85
276.444	9.05
276.659	52.05
276.875	-42.15
277.09	-9.39
277.306	4.95
277.521	90.96
277.737	-56.49
277.952	-25.77
278.168	15.19
278.383	68.44
278.599	25.43
278.814	66.39
279.03	-91.31
279.245	29.52
279.461	-13.48
279.676	27.48
279.892	43.86
280.107	-1.19
280.322	-31.91
280.538	33.62
280.753	0.85
280.969	43.86
281.184	21.33
281.399	148.31
281.615	19.29
281.83	-11.43
282.045	11.09
282.26	-19.63
282.476	-3.24
282.691	7
282.906	2.9
283.122	127.83
283.337	72.53
283.552	50
283.767	-29.87
283.983	17.24
284.198	138.07
284.413	35.67
284.628	-68.78
284.843	15.19
285.058	25.43
285.274	-40.11
285.489	17.24
285.704	11.09
285.919	15.19
286.134	43.86
286.349	-38.06
286.564	4.95
286.779	41.81
286.995	-62.63
287.21	-122.02
287.425	-33.96
287.64	-66.73
287.855	13.14
288.07	-33.96
288.285	80.72
288.5	111.44
288.715	72.53
288.93	-21.67
289.145	7
289.36	64.34
289.575	19.29
289.79	0.85
290.004	25.43
290.219	15.19
290.434	-13.48
290.649	76.63
290.864	35.67
291.079	-7.34
291.294	82.77
291.509	50
291.724	4.95
291.938	9.05
292.153	60.24
292.368	19.29
292.583	66.39
292.798	115.54
293.012	-19.63
293.227	23.38
293.442	11.09
293.657	86.87
293.871	64.34
294.086	107.35
294.301	54.1
294.516	39.76
294.73	39.76
294.945	-40.11
295.16	17.24
295.374	66.39
295.589	9.05
295.804	-60.59
296.018	35.67
296.233	74.58
296.447	17.24
296.662	43.86
296.877	39.76
297.091	109.4
297.306	19.29
297.52	29.52
297.735	72.53
297.949	13.14
298.164	-15.53
298.378	33.62
298.593	-103.59
298.807	-52.39
299.022	58.2
299.236	52.05
299.451	11.09
299.665	19.29
299.88	31.57
300.094	64.34
300.309	4.95
300.523	64.34
300.737	-42.15
300.952	9.05
301.166	41.81
301.381	43.86
301.595	52.05
301.809	-44.2
302.024	-64.68
302.238	33.62
302.452	68.44
302.667	-19.63
302.881	25.43
303.095	52.05
303.309	74.58
303.524	-21.67
303.738	-68.78
303.952	-52.39
304.166	-1.19
304.381	-72.87
304.595	72.53
304.809	23.38
305.023	31.57
305.237	35.67
305.452	-11.43
305.666	29.52
305.88	-19.63
306.094	-25.77
306.308	41.81
306.522	35.67
306.736	19.29
306.95	54.1
307.164	72.53
307.379	-15.53
307.593	35.67
307.807	35.67
308.021	9.05
308.235	23.38
308.449	7
308.663	9.05
308.877	164.69
309.091	58.2
309.305	13.14
309.519	-52.39
309.733	60.24
309.947	-31.91
310.161	107.35
310.374	33.62
310.588	107.35
310.802	-7.34
311.016	60.24
311.23	25.43
311.444	17.24
311.658	43.86
311.872	66.39
312.085	4.95
312.299	125.78
312.513	23.38
312.727	37.72
312.941	11.09
313.154	66.39
313.368	13.14
313.582	9.05
313.796	-17.58
314.009	-46.25
314.223	105.3
314.437	13.14
314.651	-21.67
314.864	-31.91
315.078	88.92
315.292	37.72
315.505	-5.29
315.719	-27.82
315.933	60.24
316.146	-58.54
316.36	-1.19
316.573	15.19
316.787	9.05
317.001	84.82
317.214	15.19
317.428	105.3
317.641	45.91
317.855	93.01
318.068	21.33
318.282	41.81
318.495	56.15
318.709	70.48
318.922	-23.72
319.136	88.92
319.349	64.34
319.563	43.86
319.776	-27.82
319.99	-58.54
320.203	-19.63
320.417	-9.39
320.63	-3.24
320.843	129.88
321.057	17.24
321.27	-21.67
321.483	-5.29
321.697	72.53
321.91	23.38
322.124	4.95
322.337	19.29
322.55	-1.19
322.763	50
322.977	72.53
323.19	-17.58
323.403	66.39
323.617	37.72
323.83	60.24
324.043	64.34
324.256	19.29
324.469	9.05
324.683	56.15
324.896	0.85
325.109	31.57
325.322	-70.83
325.535	70.48
325.748	27.48
325.962	-29.87
326.175	56.15
326.388	50
326.601	-11.43
326.814	-11.43
327.027	7
327.24	103.25
327.453	-33.96
327.666	66.39
327.879	13.14
328.092	64.34
328.305	19.29
328.518	66.39
328.731	-31.91
328.944	-19.63
329.157	19.29
329.37	52.05
329.583	72.53
329.796	78.68
330.009	37.72
330.222	17.24
330.435	66.39
330.648	37.72
330.861	90.96
331.073	15.19
331.286	-13.48
331.499	19.29
331.712	-13.48
331.925	21.33
332.138	17.24
332.35	133.97
332.563	23.38
332.776	-11.43
332.989	-50.35
333.202	-31.91
333.414	-1.19
333.627	60.24
333.84	39.76
334.053	4.95
334.265	2.9
334.478	47.96
334.691	82.77
334.903	41.81
335.116	9.05
335.329	25.43
335.541	74.58
335.754	68.44
335.966	-21.67
336.179	-3.24
336.392	-17.58
336.604	27.48
336.817	31.57
337.029	13.14
337.242	19.29
337.454	74.58
337.667	47.96
337.88	82.77
338.092	-13.48
338.305	66.39
338.517	-38.06
338.729	-3.24
338.942	95.06
339.154	-27.82
339.367	0.85
339.579	39.76
339.792	-27.82
340.004	70.48
340.217	68.44
340.429	21.33
340.641	-29.87
340.854	52.05
341.066	19.29
341.278	66.39
341.491	23.38
341.703	-9.39
341.915	-7.34
342.128	-29.87
342.34	60.24
342.552	-19.63
342.764	-117.93
342.977	-7.34
343.189	-1.19
343.401	54.1
343.613	-19.63
343.826	37.72
344.038	27.48
344.25	4.95
344.462	-1.19
344.674	60.24
344.886	47.96
345.099	31.57
345.311	52.05
345.523	27.48
345.735	-40.11
345.947	50
346.159	64.34
346.371	86.87
346.583	2.9
346.795	103.25
347.007	19.29
347.219	31.57
347.431	-27.82
347.643	9.05
347.855	-11.43
348.067	50
348.279	0.85
348.491	39.76
348.703	52.05
348.915	45.91
349.127	37.72
349.339	-15.53
349.551	11.09
349.763	109.4
349.975	7
350.187	88.92
350.399	95.06
350.61	17.24
350.822	13.14
351.034	-1.19
351.246	35.67
351.458	80.72
351.669	37.72
351.881	93.01
352.093	84.82
352.305	56.15
352.517	54.1
352.728	41.81
352.94	-83.11
353.152	21.33
353.363	-33.96
353.575	52.05
353.787	60.24
353.999	66.39
354.21	54.1
354.422	25.43
354.633	52.05
354.845	27.48
355.057	47.96
355.268	84.82
355.48	41.81
355.692	-70.83
355.903	23.38
356.115	-9.39
356.326	2.9
356.538	103.25
356.749	50
356.961	129.88
357.172	74.58
357.384	-21.67
357.595	25.43
357.807	23.38
358.018	23.38
358.23	33.62
358.441	60.24
358.653	4.95
358.864	-11.43
359.075	-31.91
359.287	70.48
359.498	39.76
359.709	11.09
359.921	50
360.132	11.09
360.344	50
360.555	15.19
360.766	33.62
360.977	60.24
361.189	52.05
361.4	68.44
361.611	50
361.823	84.82
362.034	68.44
362.245	-38.06
362.456	43.86
362.667	11.09
362.879	23.38
363.09	-11.43
363.301	-5.29
363.512	99.16
363.723	101.2
363.935	0.85
364.146	78.68
364.357	29.52
364.568	25.43
364.779	-58.54
364.99	35.67
365.201	-7.34
365.412	33.62
365.623	-46.25
365.834	21.33
366.045	21.33
366.256	0.85
366.467	113.49
366.678	52.05
366.889	47.96
367.1	-7.34
367.311	15.19
367.522	25.43
367.733	56.15
367.944	86.87
368.155	19.29
368.366	58.2
368.577	103.25
368.788	146.26
368.999	-44.2
369.209	25.43
369.42	121.68
369.631	66.39
369.842	33.62
370.053	9.05
370.264	45.91
370.474	11.09
370.685	47.96
370.896	56.15
371.107	68.44
371.317	-21.67
371.528	25.43
371.739	9.05
371.95	54.1
372.16	25.43
372.371	-1.19
372.582	33.62
372.792	52.05
373.003	68.44
373.214	23.38
373.424	2.9
373.635	29.52
373.846	113.49
374.056	54.1
374.267	113.49
374.477	19.29
374.688	2.9
374.898	9.05
375.109	50
375.319	93.01
375.53	-1.19
375.74	25.43
375.951	25.43
376.161	35.67
376.372	52.05
376.582	-3.24
376.793	11.09
377.003	-33.96
377.214	-40.11
377.424	80.72
377.635	50
377.845	-38.06
378.055	88.92
378.266	-7.34
378.476	33.62
378.686	74.58
378.897	78.68
379.107	0.85
379.317	64.34
379.528	11.09
379.738	43.86
379.948	-3.24
380.158	60.24
380.369	-31.91
380.579	35.67
380.789	41.81
380.999	78.68
381.21	52.05
381.42	82.77
381.63	-27.82
381.84	101.2
382.05	95.06
382.261	68.44
382.471	47.96
382.681	68.44
382.891	101.2
383.101	19.29
383.311	9.05
383.521	43.86
383.731	41.81
383.941	72.53
384.151	27.48
384.361	-31.91
384.571	56.15
384.781	101.2
384.991	107.35
385.201	105.3
385.411	29.52
385.621	72.53
385.831	58.2
386.041	21.33
386.251	29.52
386.461	103.25
386.671	47.96
386.881	76.63
387.091	19.29
387.301	54.1
387.511	-7.34
387.72	82.77
387.93	50
388.14	13.14
388.35	54.1
388.56	37.72
388.769	50
388.979	13.14
389.189	-29.87
389.399	7
389.609	33.62
389.818	9.05
390.028	43.86
390.238	39.76
390.447	-38.06
390.657	101.2
390.867	84.82
391.076	9.05
391.286	78.68
391.496	66.39
391.705	43.86
391.915	80.72
392.125	97.11
392.334	62.29
392.544	50
392.753	-23.72
392.963	-42.15
393.172	45.91
393.382	-7.34
393.591	11.09
393.801	45.91
394.01	45.91
394.22	97.11
394.429	54.1
394.639	66.39
394.848	62.29
395.058	27.48
395.267	52.05
395.477	72.53
395.686	41.81
395.895	117.59
396.105	160.59
396.314	129.88
396.524	7
396.733	72.53
396.942	142.16
397.152	56.15
397.361	15.19
397.57	7
397.78	58.2
397.989	117.59
398.198	193.36
398.407	50
398.617	66.39
398.826	4.95
399.035	82.77
399.244	56.15
399.453	129.88
399.663	17.24
399.872	138.07
400.081	64.34
400.29	76.63
400.499	82.77
400.708	133.97
400.917	70.48
401.127	29.52
401.336	90.96
401.545	127.83
401.754	80.72
401.963	133.97
402.172	76.63
402.381	43.86
402.59	35.67
402.799	54.1
403.008	74.58
403.217	80.72
403.426	64.34
403.635	78.68
403.844	166.74
404.053	111.44
404.262	23.38
404.471	125.78
404.68	76.63
404.888	123.73
405.097	138.07
405.306	127.83
405.515	152.4
405.724	80.72
405.933	179.03
406.142	148.31
406.35	138.07
406.559	109.4
406.768	232.27
406.977	172.88
407.185	185.17
407.394	152.4
407.603	162.64
407.812	219.99
408.02	154.45
408.229	219.99
408.438	187.22
408.646	172.88
408.855	189.27
409.064	291.66
409.272	185.17
409.481	248.66
409.69	236.37
409.898	160.59
410.107	310.1
410.315	299.86
410.524	271.19
410.733	324.43
410.941	287.57
411.15	275.28
411.358	283.47
411.567	373.58
411.775	256.85
411.984	256.85
412.192	291.66
412.401	338.77
412.609	303.95
412.818	471.89
413.026	396.11
413.234	320.34
413.443	359.25
413.651	439.12
413.86	408.4
414.068	562
414.276	486.22
414.485	543.57
414.693	533.33
414.901	559.95
415.11	629.58
415.318	553.8
415.526	572.24
415.734	623.44
415.943	553.8
416.151	654.16
416.359	590.67
416.567	607.05
416.776	731.98
416.984	801.61
417.192	820.04
417.4	654.16
417.608	795.47
417.817	836.42
418.025	811.85
418.233	965.45
418.441	817.99
418.649	930.63
418.857	953.16
419.065	1123.14
419.273	996.17
419.481	1092.42
419.689	1160
419.897	1192.77
420.105	1194.82
420.313	1213.25
420.521	1223.49
420.729	1336.13
420.937	1329.99
421.145	1348.42
421.353	1520.45
421.561	1465.15
421.769	1620.8
421.977	1448.77
422.185	1672
422.393	1766.2
422.601	1735.48
422.809	1809.21
423.017	1856.31
423.224	1987.38
423.432	2009.91
423.64	1958.71
423.848	2124.6
424.056	2120.5
424.263	2358.07
424.471	2296.63
424.679	2280.24
424.887	2339.63
425.094	2534.19
425.302	2491.18
425.51	2620.21
425.718	2763.56
425.925	2741.04
426.133	2904.87
426.341	2964.26
426.548	3081
426.756	3003.18
426.964	3269.41
427.171	3277.6
427.379	3363.62
427.586	3595.04
427.794	3533.6
428.001	3777.31
428.209	4059.93
428.417	3826.46
428.624	4008.73
428.832	4123.41
429.039	4014.87
429.247	4147.99
429.454	4467.47
429.662	4889.35
429.869	4586.26
430.076	4711.18
430.284	4545.3
430.491	4799.24
430.699	5161.73
430.906	5106.44
431.114	5243.65
431.321	5489.41
431.528	5364.48
431.736	5817.08
431.943	6200.05
432.15	5972.73
432.358	6052.6
432.565	6490.87
432.772	6202.1
432.979	6697.71
433.187	6769.39
433.394	6761.2
433.601	7273.19
433.808	7187.18
434.016	7183.08
434.223	7754.46
434.43	8088.28
434.637	7891.68
434.844	8514.26
435.052	8657.62
435.259	8358.61
435.466	8524.5
435.673	8747.73
435.88	9061.07
436.087	9407.17
436.294	9716.42
436.501	9370.31
436.708	9517.76
436.915	10013.37
437.122	10316.47
437.329	10353.34
437.537	10607.28
437.743	10820.27
437.95	10603.19
438.157	11256.49
438.364	11655.84
438.571	11455.14
438.778	11643.56
438.985	12962.45
439.192	12389.02
439.399	12909.2
439.606	12522.13
439.813	13034.13
440.02	13867.65
440.227	13419.14
440.433	13515.4
440.64	14148.22
440.847	13564.55
441.054	14115.45
441.261	14963.31
441.467	14916.21
441.674	15379.05
441.881	15960.67
442.088	15872.61
442.294	15893.09
442.501	16257.63
442.708	16243.29
442.914	17033.81
443.121	17865.28
443.328	17162.83
443.534	18717.24
443.741	17889.86
443.948	17826.37
444.154	19192.37
444.361	19001.91
444.568	18956.85
444.774	19253.81
444.981	19442.22
445.187	19903.01
445.394	20826.65
445.6	20273.7
445.807	22530.56
446.013	21545.48
446.22	22170.12
446.426	22985.21
446.633	23165.43
446.839	23966.18
447.046	22968.82
447.252	24228.32
447.459	24242.66
447.665	23988.71
447.871	24891.87
448.078	26479.04
448.284	24787.42
448.491	25711.05
448.697	26837.44
448.903	27017.66
449.11	27240.89
449.316	26999.23
449.522	27433.39
449.728	28012.97
449.935	28068.27
450.141	28436.9
450.347	28983.71
450.553	27834.8
450.76	28103.08
450.966	29092.25
451.172	28838.3
451.378	29665.68
451.584	29100.44
451.791	29614.48
451.997	29753.74
452.203	29821.33
452.409	30165.39
452.615	29974.92
452.821	28711.33
453.027	28223.91
453.233	30044.55
453.44	29145.5
453.646	29432.21
453.852	29311.38
454.058	29852.05
454.264	29100.44
454.47	29661.58
454.676	28731.81
454.882	29610.39
455.088	27378.1
455.294	27158.97
455.5	27777.45
455.705	27957.67
455.911	27062.71
456.117	27038.14
456.323	26071.5
456.529	24744.41
456.735	25854.41
456.941	25166.29
457.147	24754.65
457.352	24138.21
457.558	23826.92
457.764	23902.7
457.97	23026.17
458.176	23017.97
458.381	22811.13
458.587	21787.14
458.793	21776.91
458.999	20554.27
459.204	22032.9
459.41	21420.56
459.616	20017.7
459.821	19997.22
460.027	19368.49
460.233	19544.62
460.438	18481.72
460.644	18868.79
460.85	17807.94
461.055	17562.19
461.261	17400.4
461.466	16259.68
461.672	15733.35
461.878	16810.58
462.083	15772.26
462.289	15483.5
462.494	15383.15
462.7	14664.31
462.905	14056.06
463.111	14783.09
463.316	14858.87
463.522	14545.53
463.727	14469.75
463.932	14600.82
464.138	14015.1
464.343	14482.04
464.549	13664.9
464.754	14398.07
464.959	14201.47
465.165	14213.76
465.37	13533.83
465.575	13257.36
465.781	13656.71
465.986	13771.4
466.191	13015.69
466.397	12866.19
466.602	12556.95
466.807	12681.88
467.012	13011.6
467.218	12829.33
467.423	12683.92
467.628	12827.28
467.833	13355.66
468.038	12761.75
468.244	12362.39
468.449	12778.13
468.654	12495.51
468.859	12133.02
469.064	12438.17
469.269	11915.94
469.474	11960.99
469.679	12171.93
469.885	11801.25
470.09	12069.53
470.295	11854.5
470.5	11676.32
470.705	11530.92
470.91	11494.05
471.115	11317.93
471.32	11557.54
471.525	11428.52
471.73	11268.78
471.935	11152.04
472.139	10713.78
472.344	10764.98
472.549	10850.99
472.754	10621.62
472.959	10527.41
473.164	10222.27
473.369	9929.41
473.574	10453.69
473.778	10508.98
473.983	10248.89
474.188	10166.97
474.393	9853.63
474.598	9824.96
474.802	9747.14
475.007	9341.64
475.212	9691.84
475.417	9382.6
475.621	9370.31
475.826	9458.37
476.031	9061.07
476.235	9032.4
476.44	9067.21
476.645	8948.43
476.849	9145.03
477.054	8882.89
477.259	8528.6
477.463	8737.49
477.668	8385.24
477.872	8522.45
478.077	8487.64
478.282	8284.89
478.486	8098.52
478.691	8067.8
478.895	8166.1
479.1	8035.03
479.304	8121.05
479.509	7842.53
479.713	7834.33
479.918	7781.09
480.122	7607.01
480.326	7803.61
480.531	7791.33
480.735	7723.74
480.94	7617.25
481.144	7826.14
481.348	7475.94
481.553	7496.42
481.757	7285.48
481.961	7537.38
482.166	7826.14
482.37	7578.34
482.574	7506.66
482.778	7420.64
482.983	7654.11
483.187	7574.24
483.391	7654.11
483.595	7531.23
483.8	7475.94
484.004	7467.75
484.208	7463.65
484.412	7377.64
484.616	7404.26
484.821	7414.5
485.025	7396.07
485.229	7484.13
485.433	7379.68
485.637	7557.86
485.841	7564
486.045	7520.99
486.249	7377.64
486.453	7394.02
486.657	7451.36
486.861	7588.58
487.065	7418.6
487.269	7541.47
487.473	7418.6
487.677	7633.63
487.881	7578.34
488.085	7492.32
488.289	7623.39
488.493	7385.83
488.697	7555.81
488.901	7445.22
489.105	7525.09
489.309	7500.51
489.512	7697.12
489.716	7541.47
489.92	7635.68
490.124	7529.19
490.328	7817.95
490.531	7621.35
490.735	7625.44
490.939	7676.64
491.143	7615.2
491.346	7740.13
491.55	7791.33
491.754	7826.14
491.958	7889.63
492.161	7768.8
492.365	8102.62
492.569	7887.58
492.772	7881.44
492.976	8010.46
493.18	7949.02
493.383	8084.19
493.587	8069.85
493.79	8293.08
493.994	8168.15
494.197	8225.5
494.401	8413.91
494.605	8190.68
494.808	8418
495.012	8426.2
495.215	8561.36
495.419	8706.77
495.622	8493.78
495.825	8817.36
496.029	8825.55
496.232	8854.22
496.436	8882.89
496.639	9104.07
496.843	9009.87
497.046	9179.85
497.249	9304.78
497.453	9405.13
497.656	9573.06
497.859	9562.82
498.063	9642.69
498.266	9736.9
498.469	9988.8
498.673	10074.81
498.876	10130.11
499.079	10111.68
499.282	10164.92
499.485	10535.6
499.689	10449.59
499.892	10605.24
500.095	10717.87
500.298	10939.05
500.501	10752.69
500.705	11102.89
500.908	11276.97
501.111	11311.78
501.314	11512.49
501.517	11643.56
501.72	11854.5
501.923	11805.35
502.126	12122.78
502.329	12143.26
502.532	12253.85
502.735	12569.24
502.938	12470.94
503.141	12438.17
503.344	12661.4
503.547	12702.36
503.75	12933.78
503.953	13267.59
504.156	13521.54
504.359	13466.25
504.562	13582.98
504.765	14049.92
504.968	13965.95
505.17	14189.18
505.373	14256.76
505.576	14549.62
505.779	14699.13
505.982	14600.82
506.185	14926.45
506.387	15022.7
506.59	15393.39
506.793	15567.46
506.996	15583.85
507.198	16171.61
507.401	16046.69
507.604	16173.66
507.807	16368.22
508.009	16609.88
508.212	16583.26
508.415	17125.97
508.617	16986.71
508.82	17367.63
509.022	17252.94
509.225	17699.4
509.428	17857.09
509.63	17914.44
509.833	17826.37
510.035	18563.64
510.238	18377.28
510.44	18725.43
510.643	19057.2
510.845	19251.76
511.048	19092.02
511.25	19419.69
511.453	19288.62
511.655	20451.87
511.858	20032.04
512.06	20308.51
512.262	20580.89
512.465	20578.84
512.667	20627.99
512.87	21283.34
513.072	21262.86
513.274	21930.5
513.477	22000.13
513.679	21924.36
513.881	22518.27
514.084	22538.75
514.286	22379.01
514.488	22841.85
514.69	23458.29
514.893	23722.48
515.095	23693.8
515.297	23706.09
515.499	24345.06
515.701	24599.01
515.904	24789.47
516.106	24709.6
516.308	25563.6
516.51	25422.29
516.712	25438.67
516.914	25811.4
517.116	26182.09
517.318	26352.07
517.52	26460.61
517.722	26653.12
517.925	26933.69
518.127	27795.89
518.329	27486.64
518.531	27550.13
518.733	28385.7
518.935	28500.39
519.136	28797.34
519.338	29176.22
519.54	28957.08
519.742	29614.48
519.944	29548.95
520.146	30192.01
520.348	30124.43
520.55	30497.16
520.752	30849.41
520.954	30976.38
521.155	31175.03
521.357	31601.01
521.559	31707.51
521.761	32485.73
521.963	32399.72
522.164	32756.07
522.366	32549.22
522.568	32794.98
522.77	33266.01
522.971	33556.82
523.173	33571.16
523.375	34044.24
523.576	34226.51
523.778	34492.74
523.98	34806.08
524.181	34617.67
524.383	34857.28
524.584	35453.24
524.786	35615.03
524.988	35363.13
525.189	35922.23
525.391	36000.05
525.592	36192.56
525.794	36649.25
525.995	36862.24
526.197	36649.25
526.398	37220.64
526.6	37228.83
526.801	37359.9
527.003	37654.81
527.204	37527.83
527.406	38361.36
527.607	38428.94
527.808	38318.35
528.01	38129.94
528.211	38410.51
528.412	39162.11
528.614	38572.3
528.815	38809.86
529.016	39090.43
529.218	38809.86
529.419	38637.83
529.62	39428.35
529.822	39346.43
530.023	39076.1
530.224	39360.76
530.425	39545.08
530.626	39500.03
530.828	39565.56
531.029	40304.88
531.23	40091.89
531.431	40122.61
531.632	40278.25
531.833	40321.26
532.035	40114.42
532.236	40550.63
532.437	40579.31
532.638	40620.27
532.839	40517.87
533.04	40497.39
533.241	40538.35
533.442	41050.34
533.643	41068.77
533.844	40710.38
534.045	41025.76
534.246	40030.45
534.447	41275.62
534.648	40874.21
534.849	40966.37
535.05	40610.03
535.251	40689.9
535.451	40552.68
535.652	40884.45
535.853	40861.93
536.054	40882.41
536.255	41513.18
536.456	40575.21
536.657	41519.32
536.857	41224.42
537.058	41439.45
537.259	41466.08
537.46	40999.14
537.66	41001.19
537.861	41593.05
538.062	41130.21
538.263	41257.18
538.463	40786.15
538.664	40886.5
538.865	41423.07
539.065	41410.78
539.266	41107.68
539.466	41464.03
539.667	40747.24
539.868	41783.51
540.068	41496.8
540.269	41275.62
540.469	41427.17
540.67	40904.93
540.87	41275.62
541.071	41246.94
541.271	41300.19
541.472	41429.21
541.672	41095.39
541.873	41011.43
542.073	40749.29
542.274	41275.62
542.474	41038.05
542.675	40868.07
542.875	40896.74
543.075	41216.22
543.276	40495.34
543.476	41339.1
543.676	41085.15
543.877	41148.64
544.077	41294.05
544.277	40923.36
544.478	40931.56
544.678	40954.08
544.878	41267.42
545.078	40915.17
545.279	40962.28
545.479	40571.11
545.679	40743.14
545.879	41081.06
546.079	41310.43
546.28	40929.51
546.48	41038.05
546.68	41537.76
546.88	41097.44
547.08	41199.84
547.28	40763.62
547.48	40347.89
547.68	40915.17
547.88	40489.2
548.081	41105.63
548.281	40820.97
548.481	40696.04
548.681	40890.6
548.881	41044.2
549.081	40898.79
549.28	40786.15
549.48	40968.42
549.68	40745.19
549.88	40878.31
550.08	40687.85
550.28	40579.31
550.48	40677.61
550.68	40982.76
550.88	40431.85
551.08	40720.62
551.279	40775.91
551.479	40489.2
551.679	40612.07
551.879	40829.16
552.079	40808.68
552.278	40747.24
552.478	40532.2
552.678	40472.81
552.878	41079.01
553.077	40542.44
553.277	40003.83
553.477	40888.55
553.676	40280.3
553.876	40278.25
554.076	40431.85
554.275	40657.13
554.475	40100.08
554.674	40214.77
554.874	40323.31
555.074	40329.45
555.273	40100.08
555.473	40538.35
555.672	40044.79
555.872	40567.02
556.071	40161.52
556.271	39987.44
556.47	39811.32
556.67	39586.04
556.869	39583.99
557.068	40122.61
557.268	39641.34
557.467	39852.28
557.667	39403.77
557.866	39522.55
558.065	39448.83
558.265	39342.33
558.464	38996.23
558.663	39944.44
558.863	38926.6
559.062	39528.7
559.261	39440.64
559.461	39411.96
559.66	39051.52
559.859	39006.47
560.058	38703.37
560.258	38938.88
560.457	38461.71
560.656	38914.31
560.855	38744.33
561.054	38658.31
561.253	38371.6
561.453	38490.38
561.652	38555.91
561.851	38396.17
562.05	38361.36
562.249	37861.65
562.448	38265.1
562.647	38068.5
562.846	38066.45
563.045	37691.67
563.244	37634.33
563.443	38158.61
563.642	37237.02
563.841	37404.95
564.04	37284.12
564.239	37607.7
564.438	36976.93
564.637	37224.73
564.836	37187.87
565.035	36817.19
565.234	37042.46
565.432	36581.67
565.631	36741.41
565.83	36733.22
566.029	36583.72
566.228	36221.23
566.427	36163.89
566.625	36133.17
566.824	35823.92
567.023	36307.24
567.222	35324.22
567.42	36120.88
567.619	35807.54
567.818	35600.69
568.016	35455.29
568.215	35551.54
568.414	35340.6
568.612	35219.77
568.811	34967.87
569.01	35248.44
569.208	34842.95
569.407	35045.69
569.605	34584.9
569.804	34670.92
570.002	34398.54
570.201	34335.05
570.4	34136.4
570.598	34310.47
570.797	33913.17
570.995	34066.77
571.193	33206.62
571.392	34122.06
571.59	33628.5
571.789	33597.78
571.987	33601.88
572.186	33653.08
572.384	33251.67
572.582	33309.02
572.781	33020.25
572.979	32983.39
573.177	32739.68
573.376	32967.01
573.574	32330.09
573.772	32518.5
573.971	31922.54
574.169	32256.36
574.367	31988.08
574.565	32430.44
574.763	31803.76
574.962	31938.93
575.16	31351.16
575.358	31777.14
575.556	31328.63
575.754	31951.21
575.952	31082.88
576.151	31783.28
576.349	30916.99
576.547	30994.81
576.745	31304.06
576.943	31134.07
577.141	30873.98
577.339	30835.07
577.537	30763.39
577.735	30579.07
577.933	30071.18
578.131	30683.52
578.329	30237.06
578.527	30185.86
578.725	29847.95
578.923	30130.57
579.121	29817.23
579.319	29561.23
579.516	29882.77
579.714	29751.7
579.912	29458.84
580.11	29391.25
580.308	29739.41
580.506	29301.14
580.704	29110.68
580.901	29307.29
581.099	29354.39
581.297	29225.37
581.495	28746.14
581.692	29098.39
581.89	28236.2
582.088	28791.2
582.285	28604.83
582.483	28600.74
582.681	28389.8
582.878	28606.88
583.076	28371.36
583.274	28238.25
583.471	27988.39
583.669	28023.21
583.866	28004.78
584.064	28029.35
584.262	27279.8
584.459	27824.56
584.657	27486.64
584.854	27703.73
585.052	26714.56
585.249	27695.53
585.447	27529.65
585.644	27060.66
585.841	27341.24
586.039	27138.49
586.236	27167.16
586.434	26698.17
586.631	26603.97
586.828	26794.43
587.026	26536.38
587.223	26683.84
587.42	26253.76
587.618	26509.76
587.815	26089.93
588.012	26032.58
588.21	25999.82
588.407	26079.69
588.604	26083.78
588.801	25688.53
588.999	25696.72
589.196	25659.85
589.393	25778.64
589.59	25174.49
589.787	25485.78
589.984	25477.58
590.182	25203.16
590.379	25309.65
590.576	25151.96
590.773	25280.98
590.97	24924.63
591.167	24773.08
591.364	24560.09
591.561	24658.4
591.758	24361.44
591.955	24467.94
592.152	24801.75
592.349	24424.93
592.546	24625.63
592.743	24472.03
592.94	24097.25
593.137	24240.61
593.334	24388.07
593.531	23689.71
593.727	24175.08
593.924	23765.48
594.121	23618.03
594.318	23845.35
594.515	23433.71
594.712	23581.17
594.908	23575.02
595.105	23532.01
595.302	23122.42
595.499	23755.24
595.696	23226.87
595.892	23063.03
596.089	23007.73
596.286	23063.03
596.482	22839.8
596.679	22893.05
596.876	23114.23
597.072	22784.51
597.269	22643.2
597.466	22510.08
597.662	22368.77
597.859	22471.17
598.055	22366.72
598.252	22585.85
598.448	22178.31
598.645	22352.38
598.841	22120.96
599.038	21969.41
599.234	22092.29
599.431	21821.96
599.627	21471.76
599.824	21852.68
600.02	21623.31
600.217	21486.09
600.413	21391.89
600.609	21459.47
600.806	21504.53
601.002	21285.39
601.198	21064.21
601.395	20996.63
601.591	20978.2
601.787	21068.31
601.984	21090.84
602.18	21291.54
602.376	20834.84
602.572	20998.68
602.769	20826.65
602.965	20603.42
603.161	20812.31
603.357	20634.14
603.553	20437.53
603.75	20546.08
603.946	20372
604.142	20515.36
604.338	20007.46
604.534	20339.23
604.73	20029.99
604.926	20111.91
605.122	20064.8
605.318	19798.57
605.514	19900.97
605.71	19849.77
605.906	19497.52
606.102	19751.46
606.298	19581.48
606.494	19452.46
606.69	19282.48
606.886	19622.44
607.082	19323.44
607.278	19550.76
607.474	18932.28
607.67	19262
607.866	18907.7
608.062	19411.5
608.257	19075.63
608.453	19145.27
608.649	19190.32
608.845	19143.22
609.041	18692.66
609.236	19186.22
609.432	18639.42
609.628	19012.15
609.824	18688.57
610.019	18606.65
610.215	18756.15
610.411	18584.12
610.606	18395.71
610.802	18346.56
610.998	18424.38
611.193	18575.93
611.389	18336.32
611.584	18143.81
611.78	18178.62
611.976	18080.32
612.171	18018.88
612.367	18190.91
612.562	17949.25
612.758	17896
612.953	17873.48
613.149	17846.85
613.344	17318.48
613.539	18268.73
613.735	18012.74
613.93	18070.08
614.126	17703.5
614.321	17640.01
614.517	17781.32
614.712	17601.1
614.907	17586.76
615.103	17711.69
615.298	17242.7
615.493	17740.36
615.688	17222.22
615.884	17775.17
616.079	17214.03
616.274	17275.47
616.47	17343.05
616.665	17320.53
616.86	17308.24
617.055	17351.24
617.25	17197.65
617.445	17236.56
617.641	16802.39
617.836	17119.82
618.031	16687.7
618.226	16790.1
618.421	16945.75
618.616	16802.39
618.811	16351.84
619.006	16575.06
619.201	16579.16
619.396	16872.02
619.591	16226.91
619.786	16507.48
619.981	16151.13
620.176	16251.49
620.371	15970.91
620.566	16200.29
620.761	16048.74
620.956	16075.36
621.151	15762.02
621.346	15958.63
621.541	15704.68
621.735	15833.7
621.93	15438.44
622.125	15512.17
622.32	15233.64
622.515	15344.24
622.709	15211.12
622.904	15280.75
623.099	15180.4
623.294	15227.5
623.488	14942.83
623.683	15063.66
623.878	14668.41
624.072	14948.98
624.267	14824.05
624.462	14686.84
624.656	14510.71
624.851	14510.71
625.046	14269.05
625.24	14334.59
625.435	14082.69
625.629	14365.31
625.824	14242.43
626.018	14174.85
626.213	13630.09
626.407	13800.07
626.602	13757.06
626.796	13802.11
626.991	13623.94
627.185	13517.45
627.38	13451.91
627.574	13263.5
627.768	13013.65
627.963	13148.81
628.157	12970.64
628.352	13310.6
628.546	12944.02
628.74	13021.84
628.935	12726.93
629.129	12839.57
629.323	12782.23
629.517	12831.38
629.712	12622.48
629.906	12733.08
630.1	12370.58
630.294	12335.77
630.489	12243.61
630.683	12376.73
630.877	12278.43
631.071	12219.03
631.265	12024.48
631.459	11965.09
631.653	11754.15
631.848	11659.94
632.042	11850.4
632.236	11926.18
632.43	11649.7
632.624	11653.8
632.818	11444.9
633.012	11487.91
633.206	11322.02
633.4	11494.05
633.594	11362.98
633.788	11135.66
633.982	11172.52
634.176	11229.87
634.369	11090.6
634.563	10853.04
634.757	10812.08
634.951	11072.17
635.145	11061.93
635.339	10838.7
635.533	10654.39
635.726	10551.99
635.92	10353.34
636.114	10609.33
636.308	10504.89
636.501	10615.48
636.695	10488.5
636.889	10173.11
637.083	10347.19
637.276	10248.89
637.47	10166.97
637.664	10162.87
637.857	10103.48
638.051	9966.27
638.244	9996.99
638.438	10046.14
638.632	9939.65
638.825	9845.44
639.019	9585.35
639.212	9571.01
639.406	9603.78
639.599	9575.11
639.793	9525.96
639.986	9458.37
640.18	9390.79
640.373	9499.33
640.567	9280.2
640.76	9390.79
640.954	9095.88
641.147	8977.1
641.34	9028.3
641.534	9052.88
641.727	9093.83
641.92	8794.83
642.114	9003.72
642.307	8872.65
642.5	8745.68
642.694	8635.09
642.887	8549.07
643.08	8827.6
643.273	8796.88
643.467	8555.22
643.66	8463.06
643.853	8194.78
644.046	8499.92
644.239	8583.89
644.432	8233.69
644.626	8106.71
644.819	8116.95
645.012	8260.31
645.205	8184.54
645.398	8274.65
645.591	8004.32
645.784	8065.75
645.977	8041.18
646.17	7832.29
646.363	7807.71
646.556	7641.82
646.749	7877.34
646.942	7746.27
647.135	7674.59
647.328	7520.99
647.521	7621.35
647.714	7664.35
647.907	7502.56
648.099	7676.64
648.292	7482.08
648.485	7531.23
648.678	7281.38
648.871	7398.12
649.064	7385.83
649.256	7201.51
649.449	7281.38
649.642	7152.36
649.835	7058.15
650.027	7037.67
650.22	7076.59
650.413	6935.28
650.605	6998.76
650.798	6875.88
650.991	6845.16
651.183	7041.77
651.376	6697.71
651.568	6912.75
651.761	6746.86
651.954	6847.21
652.146	6759.15
652.339	6605.55
652.531	6681.33
652.724	6470.39
652.916	6550.26
653.109	6525.68
653.301	6492.91
653.494	6492.91
653.686	6513.39
653.879	6531.83
654.071	6406.9
654.263	6511.35
654.456	6365.94
654.648	6312.69
654.84	6165.24
655.033	6226.68
655.225	6386.42
655.417	5946.11
655.61	6177.53
655.802	6085.37
655.994	6222.58
656.186	5964.54
656.379	6062.84
656.571	5989.11
656.763	6060.79
656.955	5970.68
657.148	5845.76
657.34	5876.48
657.532	5632.77
657.724	5802.75
657.916	5686.01
658.108	5839.61
658.3	5769.98
658.492	5716.73
658.684	5649.15
658.876	5710.59
659.068	5634.82
659.26	5524.23
659.452	5436.16
659.644	5532.42
659.836	5536.51
660.028	5344
660.22	5331.72
660.412	5358.34
660.604	5266.18
660.796	5344
660.988	5360.39
661.18	5214.98
661.372	5313.28
661.563	5380.87
661.755	5153.54
661.947	5253.89
662.139	5096.2
662.331	5167.88
662.522	5026.57
662.714	4987.66
662.906	5012.23
663.097	4954.89
663.289	5065.48
663.481	4944.65
663.673	5122.82
663.864	4973.32
664.056	4709.13
664.247	4940.55
664.439	4983.56
664.631	4915.98
664.822	4768.52
665.014	4883.21
665.205	4723.47
665.397	4801.29
665.588	4784.91
665.78	4776.72
665.971	4578.06
666.163	4782.86
666.354	4702.99
666.546	4664.08
666.737	4592.4
666.929	4707.09
667.12	4563.73
667.311	4612.88
667.503	4463.38
667.694	4674.32
667.885	4592.4
668.077	4522.77
668.268	4514.58
668.459	4555.54
668.651	4514.58
668.842	4420.37
669.033	4399.89
669.224	4408.08
669.416	4463.38
669.607	4367.12
669.798	4453.14
669.989	4455.19
670.18	4406.03
670.371	4264.72
670.563	4344.6
670.754	4301.59
670.945	4344.6
671.136	4315.92
671.327	4225.81
671.518	4270.87
671.709	4309.78
671.9	4354.83
672.091	4139.8
672.282	4172.57
672.473	4285.2
672.664	4250.39
672.855	4240.15
673.046	4320.02
673.237	4141.85
673.428	4229.91
673.619	4135.7
673.809	4246.29
674	4121.37
674.191	4213.53
674.382	4143.89
674.573	4180.76
674.764	4137.75
674.954	4141.85
675.145	4035.35
675.336	4147.99
675.527	4129.56
675.717	4166.42
675.908	4115.22
676.099	4035.35
676.289	4139.8
676.48	4043.54
676.671	3996.44
676.861	4168.47
677.052	4147.99
677.243	4027.16
677.433	4234
677.624	4111.13
677.814	4137.75
678.005	4340.5
678.195	4102.93
678.386	4012.82
678.576	4082.46
678.767	4041.5
678.957	4186.9
679.148	4291.35
679.338	4160.28
679.529	4055.83
679.719	4064.02
679.909	4119.32
680.1	4133.65
680.29	4068.12
680.481	3908.38
680.671	4029.21
680.861	4133.65
681.052	4012.82
681.242	4078.36
681.432	4229.91
681.622	4213.53
681.813	4211.48
682.003	4172.57
682.193	4117.27
682.383	4057.88
682.573	3840.79
682.764	3965.72
682.954	3957.53
683.144	4047.64
683.334	4031.26
683.524	3986.2
683.714	4215.57
683.904	4045.59
684.094	4125.46
684.284	4174.61
684.474	4164.37
684.664	4080.41
684.854	4147.99
685.044	3951.39
685.234	3953.43
685.424	3963.67
685.614	3951.39
685.804	3996.44
685.994	4018.97
686.184	4035.35
686.374	4023.06
686.564	3904.28
686.753	4047.64
686.943	3918.62
687.133	3900.19
687.323	3953.43
687.513	3916.57
687.702	3894.04
687.892	3992.34
688.082	3830.55
688.272	3912.47
688.461	3752.73
688.651	3873.56
688.841	3853.08
689.03	3781.4
689.22	3705.63
689.41	3769.12
689.599	3758.88
689.789	3756.83
689.979	3777.31
690.168	3812.12
690.358	3625.76
690.547	3748.64
690.737	3644.19
690.926	3726.11
691.116	3611.42
691.305	3623.71
691.495	3576.61
691.684	3586.85
691.874	3511.07
692.063	3480.35
692.252	3576.61
692.442	3621.66
692.631	3392.29
692.82	3511.07
693.01	3435.3
693.199	3392.29
693.388	3439.39
693.578	3455.78
693.767	3449.63
693.956	3359.52
694.146	3431.2
694.335	3400.48
694.524	3418.91
694.713	3263.27
694.902	3433.25
695.092	3328.8
695.281	3392.29
695.47	3367.71
695.659	3255.08
695.848	3222.31
696.037	3302.18
696.226	3310.37
696.415	3248.93
696.604	3257.12
696.793	3304.23
696.982	3248.93
697.171	3216.16
697.36	3263.27
697.549	3224.36
697.738	3216.16
697.927	3349.28
698.116	3277.6
698.305	3164.97
698.494	3105.57
698.683	3078.95
698.872	3250.98
699.061	3109.67
699.25	3052.33
699.438	3222.31
699.627	3253.03
699.816	3312.42
700.005	3253.03
700.193	3162.92
700.382	3283.75
700.571	3224.36
700.76	3281.7
700.948	3226.4
701.137	3242.79
701.326	3253.03
701.514	3173.16
701.703	3306.27
701.892	3175.2
702.08	3285.8
702.269	3232.55
702.457	3081
702.646	3144.49
702.834	3134.25
703.023	3164.97
703.212	3287.84
703.4	3253.03
703.589	3205.92
703.777	3214.12
703.965	3083.05
704.154	3130.15
704.342	3183.4
704.531	3056.42
704.719	3210.02
704.907	3302.18
705.096	3136.29
705.284	3308.32
705.472	3207.97
705.661	3107.62
705.849	3275.56
706.037	3267.36
706.226	3214.12
706.414	3156.77
706.602	3279.65
706.79	3308.32
706.979	3212.07
707.167	3320.61
707.355	3269.41
707.543	3226.4
707.731	3341.09
707.919	3285.8
708.107	3187.49
708.296	3222.31
708.484	3191.59
708.672	3193.64
708.86	3326.75
709.048	3250.98
709.236	3296.04
709.424	3347.23
709.612	3339.04
709.8	3222.31
709.988	3396.39
710.176	3425.06
710.364	3392.29
710.551	3220.26
710.739	3279.65
710.927	3279.65
711.115	3351.33
711.303	3398.43
711.491	3427.11
711.679	3349.28
711.866	3351.33
712.054	3439.39
712.242	3328.8
712.43	3519.26
712.617	3281.7
712.805	3304.23
712.993	3326.75
713.181	3269.41
713.368	3404.58
713.556	3447.58
713.744	3326.75
713.931	3429.15
714.119	3443.49
714.306	3373.86
714.494	3351.33
714.682	3222.31
714.869	3400.48
715.057	3392.29
715.244	3377.95
715.432	3463.97
715.619	3486.5
715.807	3486.5
715.994	3449.63
716.182	3455.78
716.369	3498.78
716.556	3543.84
716.744	3304.23
716.931	3463.97
717.119	3549.98
717.306	3484.45
717.493	3361.57
717.681	3552.03
717.868	3511.07
718.055	3488.54
718.242	3552.03
718.43	3566.37
718.617	3654.43
718.804	3529.5
718.991	3539.74
719.179	3515.17
719.366	3466.02
719.553	3642.14
719.74	3623.71
719.927	3566.37
720.114	3539.74
720.301	3627.81
720.488	3554.08
720.676	3558.18
720.863	3607.33
721.05	3605.28
721.237	3568.41
721.424	3601.18
721.611	3539.74
721.798	3529.5
721.985	3506.98
722.172	3498.78
722.358	3679.01
722.545	3638.05
722.732	3595.04
722.919	3654.43
723.106	3681.05
723.293	3611.42
723.48	3685.15
723.667	3701.53
723.853	3699.48
724.04	3744.54
724.227	3822.36
724.414	3724.06
724.6	3658.53
724.787	3701.53
724.974	3781.4
725.161	3824.41
725.347	3660.57
725.534	3656.48
725.72	3705.63
725.907	3638.05
726.094	3781.4
726.28	3795.74
726.467	3724.06
726.653	3740.44
726.84	3746.59
727.027	3928.86
727.213	3765.02
727.4	3707.68
727.586	3785.5
727.773	3865.37
727.959	3783.45
728.145	3734.3
728.332	3738.4
728.518	3781.4
728.705	3722.01
728.891	3910.43
729.077	3742.49
729.264	3801.88
729.45	3752.73
729.636	3978.01
729.823	3736.35
730.009	3853.08
730.195	3750.68
730.382	3740.44
730.568	3851.03
730.754	3832.6
730.94	3873.56
731.126	3889.95
731.313	3937.05
731.499	3932.95
731.685	3957.53
731.871	3877.66
732.057	3885.85
732.243	3947.29
732.429	3861.27
732.615	3996.44
732.801	3975.96
732.987	3955.48
733.173	3887.9
733.359	4076.31
733.545	3894.04
733.731	3810.08
733.917	3986.2
734.103	3922.71
734.289	4043.54
734.475	3920.67
734.661	3951.39
734.847	3937.05
735.033	3908.38
735.219	3941.15
735.404	4014.87
735.59	3949.34
735.776	3818.27
735.962	3996.44
736.148	4027.16
736.333	3988.25
736.519	3955.48
736.705	3984.15
736.89	3982.1
737.076	3951.39
737.262	3928.86
737.447	3898.14
737.633	3941.15
737.819	3894.04
738.004	3840.79
738.19	3941.15
738.375	3935
738.561	3877.66
738.747	3916.57
738.932	3928.86
739.118	4102.93
739.303	4021.02
739.489	3877.66
739.674	3793.69
739.859	3822.36
740.045	3875.61
740.23	3918.62
740.416	3803.93
740.601	3967.77
740.786	3894.04
740.972	3844.89
741.157	3967.77
741.342	3793.69
741.528	3765.02
741.713	3810.08
741.898	3820.32
742.084	3717.92
742.269	3838.75
742.454	3781.4
742.639	3808.03
742.824	3695.39
743.01	3787.55
743.195	3875.61
743.38	3752.73
743.565	3672.86
743.75	3681.05
743.935	3623.71
744.12	3937.05
744.305	3597.09
744.49	3689.25
744.675	3603.23
744.86	3486.5
745.045	3623.71
745.23	3566.37
745.415	3572.51
745.6	3416.87
745.785	3478.3
745.97	3709.72
746.155	3521.31
746.34	3588.89
746.525	3597.09
746.71	3525.41
746.895	3367.71
747.079	3539.74
747.264	3388.19
747.449	3420.96
747.634	3367.71
747.819	3472.16
748.003	3349.28
748.188	3336.99
748.373	3224.36
748.557	3273.51
748.742	3187.49
748.927	3334.95
749.111	3173.16
749.296	3339.04
749.481	3269.41
749.665	3089.19
749.85	3175.2
750.034	3158.82
750.219	3050.28
750.404	2976.55
750.588	3058.47
750.773	3089.19
750.957	3074.85
751.141	3040.04
751.326	3054.37
751.51	3085.09
751.695	3015.46
751.879	3068.71
752.064	3031.85
752.248	3046.18
752.432	3019.56
752.617	2902.83
752.801	2882.35
752.985	2812.71
753.17	2908.97
753.354	2816.81
753.538	2800.43
753.722	2798.38
753.907	2759.47
754.091	2698.03
754.275	2878.25
754.459	2796.33
754.643	2665.26
754.828	2667.31
755.012	2632.49
755.196	2691.88
755.38	2665.26
755.564	2620.21
755.748	2593.58
755.932	2554.67
756.116	2642.73
756.3	2534.19
756.484	2497.33
756.668	2550.57
756.852	2409.26
757.036	2571.05
757.22	2394.93
757.404	2388.78
757.588	2356.02
757.772	2411.31
757.956	2356.02
758.14	2388.78
758.323	2286.39
758.507	2403.12
758.691	2333.49
758.875	2243.38
759.059	2468.66
759.242	2372.4
759.426	2278.19
759.61	2157.36
759.794	2161.46
759.977	2265.91
760.161	2243.38
760.345	2190.13
760.528	2165.56
760.712	2089.78
760.895	2216.76
761.079	2257.71
761.263	2106.17
761.446	2188.08
761.63	2038.58
761.813	2028.34
761.997	2069.3
762.18	2054.97
762.364	2026.29
762.547	2011.96
762.731	2038.58
762.914	1987.38
763.098	2005.81
763.281	1921.85
763.464	1981.24
763.648	1946.42
763.831	1889.08
764.015	1954.62
764.198	1997.62
764.381	1948.47
764.564	1901.37
764.748	1862.46
764.931	1901.37
765.114	1903.42
765.297	1913.66
765.481	1942.33
765.664	1903.42
765.847	1934.14
766.03	1936.18
766.213	1839.93
766.397	1850.17
766.58	1749.82
766.763	1962.81
766.946	1758.01
767.129	1844.03
767.312	1803.07
767.495	1829.69
767.678	1712.96
767.861	1798.97
768.044	1768.25
768.227	1768.25
768.41	1817.4
768.593	1846.07
768.776	1581.89
768.959	1723.2
769.142	1817.4
769.324	1606.46
769.507	1745.72
769.69	1661.76
769.873	1721.15
770.056	1616.7
770.239	1801.02
770.421	1704.76
770.604	1628.99
770.787	1590.08
770.97	1553.21
771.152	1608.51
771.335	1614.65
771.518	1616.7
771.7	1563.45
771.883	1575.74
772.066	1542.97
772.248	1569.6
772.431	1588.03
772.613	1600.32
772.796	1381.18
772.978	1432.38
773.161	1459.01
773.343	1475.39
773.526	1491.77
773.708	1510.21
773.891	1454.91
774.073	1401.66
774.256	1479.49
774.438	1495.87
774.621	1348.42
774.803	1313.6
774.985	1436.48
775.168	1499.97
775.35	1329.99
775.532	1440.58
775.715	1389.38
775.897	1250.11
776.079	1286.98
776.261	1313.6
776.444	1297.22
776.626	1329.99
776.808	1264.45
776.99	1188.68
777.173	1272.64
777.355	1352.51
777.537	1262.4
777.719	1221.44
777.901	1157.96
778.083	1229.63
778.265	1207.11
778.447	1215.3
778.629	1248.07
778.811	1213.25
778.993	1117
779.175	1211.2
779.357	1254.21
779.539	1020.74
779.721	1043.27
779.903	1102.66
780.085	1018.69
780.267	1178.44
780.449	1063.75
780.631	1084.23
780.812	1035.08
780.994	1114.95
781.176	1073.99
781.358	1039.17
781.54	1157.96
781.721	1008.45
781.903	887.62
782.085	1000.26
782.267	953.16
782.448	959.3
782.63	932.68
782.812	928.58
782.993	985.93
783.175	863.05
783.357	979.78
783.538	932.68
783.72	895.82
783.901	899.91
784.083	977.73
784.264	828.23
784.446	861
784.627	891.72
784.809	918.34
784.99	865.1
785.172	889.67
785.353	830.28
785.535	854.86
785.716	826.18
785.897	785.23
786.079	781.13
786.26	742.22
786.441	805.71
786.623	746.31
786.804	795.47
786.985	848.71
787.167	789.32
787.348	805.71
787.529	783.18
787.71	777.03
787.891	705.35
788.073	686.92
788.254	658.25
788.435	766.79
788.616	729.93
788.797	705.35
788.978	717.64
789.159	713.55
789.34	727.88
789.522	680.78
789.703	731.98
789.884	703.31
790.065	701.26
790.246	742.22
790.427	680.78
790.607	719.69
790.788	713.55
790.969	641.87
791.15	691.02
791.331	611.15
791.512	641.87
791.693	615.24
791.874	605
792.054	770.89
792.235	643.92
792.416	568.14
792.597	619.34
792.778	668.49
792.958	578.38
793.139	652.11
793.32	576.33
793.5	525.13
793.681	588.62
793.862	557.9
794.042	623.44
794.223	562
794.404	586.57
794.584	543.57
794.765	537.42
794.945	566.09
795.126	514.89
795.306	586.57
795.487	430.93
795.667	516.94
795.848	545.61
796.028	543.57
796.209	459.6
796.389	508.75
796.57	492.37
796.75	488.27
796.93	531.28
797.111	496.46
797.291	437.07
797.471	508.75
797.652	443.21
797.832	373.58
798.012	553.8
798.192	398.16
798.373	475.98
798.553	404.3
798.733	500.56
798.913	455.5
799.093	447.31
799.274	408.4
799.454	473.93
799.634	473.93
799.814	418.64
799.994	402.26
800.174	416.59
800.354	457.55
800.534	392.02
800.714	441.17
800.894	371.54
801.074	389.97
801.254	443.21
801.434	457.55
801.614	316.24
801.794	435.02
801.974	1180.48
802.154	336.72
802.334	486.22
802.514	394.06
802.693	367.44
802.873	326.48
803.053	455.5
803.233	377.68
803.413	387.92
803.592	377.68
803.772	371.54
803.952	406.35
804.131	410.45
804.311	385.87
804.491	463.69
804.67	402.26
804.85	320.34
805.03	414.54
805.209	377.68
805.389	379.73
805.568	349.01
805.748	271.19
805.928	346.96
806.107	432.97
806.287	392.02
806.466	301.9
806.646	361.3
806.825	318.29
807.004	344.91
807.184	402.26
807.363	338.77
807.543	287.57
807.722	414.54
807.901	316.24
808.081	273.23
808.26	291.66
808.439	359.25
808.619	326.48
808.798	346.96
808.977	344.91
809.156	328.53
809.336	340.82
809.515	283.47
809.694	240.47
809.873	250.71
810.052	289.62
810.231	310.1
810.411	340.82
810.59	340.82
810.769	287.57
810.948	351.06
811.127	240.47
811.306	291.66
811.485	269.14
811.664	318.29
811.843	238.42
812.022	242.51
812.201	219.99
812.38	193.36
812.559	322.38
812.737	301.9
812.916	207.7
813.095	289.62
813.274	289.62
813.453	299.86
813.632	260.95
813.811	340.82
813.989	273.23
814.168	291.66
814.347	330.58
814.526	238.42
814.704	301.9
814.883	248.66
815.062	314.19
815.24	232.27
815.419	230.23
815.598	312.14
815.776	211.79
815.955	281.43
816.133	248.66
816.312	248.66
816.49	154.45
816.669	275.28
816.847	277.33
817.026	267.09
817.204	244.56
817.383	258.9
817.561	199.51
817.74	230.23
817.918	191.31
818.097	273.23
818.275	158.55
818.453	232.27
818.632	252.75
818.81	230.23
818.988	144.21
819.167	228.18
819.345	244.56
819.523	236.37
819.701	136.02
819.879	158.55
820.058	140.12
820.236	224.08
820.414	205.65
820.592	215.89
820.77	199.51
820.948	228.18
821.127	103.25
821.305	176.98
821.483	215.89
821.661	244.56
821.839	185.17
822.017	193.36
822.195	191.31
822.373	293.71
822.551	222.03
822.729	238.42
822.907	219.99
823.085	262.99
823.262	117.59
823.44	140.12
823.618	170.83
823.796	142.16
823.974	189.27
824.152	236.37
824.329	158.55
824.507	213.84
824.685	224.08
824.863	156.5
825.04	179.03
825.218	183.12
825.396	181.07
825.574	185.17
825.751	156.5
825.929	179.03
826.107	164.69
826.284	199.51
826.462	160.59
826.639	201.55
826.817	217.94
826.994	162.64
827.172	168.79
827.349	211.79
827.527	179.03
827.704	140.12
827.882	224.08
828.059	174.93
828.237	187.22
828.414	203.6
828.591	107.35
828.769	88.92
828.946	97.11
829.124	203.6
829.301	256.85
829.478	138.07
829.655	138.07
829.833	181.07
830.01	93.01
830.187	140.12
830.364	166.74
830.542	140.12
830.719	219.99
830.896	82.77
831.073	166.74
831.25	111.44
831.427	144.21
831.604	117.59
831.782	133.97
831.959	101.2
832.136	115.54
832.313	115.54
832.49	84.82
832.667	215.89
832.844	93.01
833.021	172.88
833.198	185.17
833.374	148.31
833.551	76.63
833.728	90.96
833.905	199.51
834.082	121.68
834.259	113.49
834.436	158.55
834.612	58.2
834.789	131.92
834.966	109.4
835.143	62.29
835.319	90.96
835.496	123.73
835.673	121.68
835.85	131.92
836.026	113.49
836.203	142.16
836.38	133.97
836.556	107.35
836.733	62.29
836.909	205.65
837.086	78.68
837.262	107.35
837.439	119.64
837.616	107.35
837.792	56.15
837.968	154.45
838.145	41.81
838.321	125.78
838.498	146.26
838.674	121.68
838.851	82.77
839.027	131.92
839.203	80.72
839.38	117.59
839.556	136.02
839.732	136.02
839.909	121.68
840.085	123.73
840.261	35.67
840.437	123.73
840.614	39.76
840.79	74.58
840.966	162.64
841.142	101.2
841.318	86.87
841.494	158.55
841.671	45.91
841.847	23.38
842.023	74.58
842.199	119.64
842.375	99.16
842.551	-13.48
842.727	74.58
842.903	76.63
843.079	11.09
843.255	129.88
843.431	115.54
843.607	39.76
843.783	7
843.959	162.64
844.134	15.19
844.31	74.58
844.486	47.96
844.662	64.34
844.838	72.53
845.013	90.96
845.189	86.87
845.365	105.3
845.541	115.54
845.716	66.39
845.892	90.96
846.068	9.05
846.244	41.81
846.419	58.2
846.595	31.57
846.77	37.72
846.946	129.88
847.122	-25.77
847.297	41.81
847.473	121.68
847.648	-11.43
847.824	60.24
847.999	-38.06
848.175	0.85
848.35	80.72
848.526	39.76
848.701	0.85
848.876	35.67
849.052	170.83
849.227	109.4
849.403	17.24
849.578	64.34
849.753	-7.34
849.929	101.2
850.104	68.44
850.279	27.48
850.454	64.34
850.63	97.11
850.805	101.2
850.98	99.16
851.155	11.09
851.33	58.2
851.505	-7.34
851.681	156.5
851.856	-19.63
852.031	70.48
852.206	41.81
852.381	-13.48
852.556	-11.43
852.731	29.52
852.906	88.92
853.081	129.88
853.256	144.21
853.431	90.96
853.606	86.87
853.781	2.9
853.956	13.14
854.131	82.77
854.305	21.33
854.48	-29.87
854.655	-1.19
854.83	80.72
855.005	66.39
855.18	76.63
855.354	50
855.529	-23.72
855.704	56.15
855.879	52.05
856.053	21.33
856.228	119.64
856.403	58.2
856.577	82.77
856.752	25.43
856.926	17.24
857.101	95.06
857.276	82.77
857.45	78.68
857.625	131.92
857.799	25.43
857.974	56.15
858.148	-64.68
858.323	43.86
858.497	31.57
858.672	33.62
858.846	74.58
859.02	66.39
859.195	33.62
859.369	52.05
859.543	9.05
859.718	66.39
859.892	80.72
860.066	35.67
860.241	-1.19
860.415	7
860.589	17.24
860.763	7
860.938	15.19
861.112	64.34
861.286	-19.63
861.46	64.34
861.634	21.33
861.808	-5.29
861.982	-9.39
862.157	21.33
862.331	19.29
862.505	-1.19
862.679	-40.11
862.853	-74.92
863.027	-48.3
863.201	93.01
863.375	35.67
863.549	66.39
863.722	95.06
863.896	-7.34
864.07	37.72
864.244	23.38
864.418	68.44
864.592	88.92
864.766	74.58
864.939	7
865.113	25.43
865.287	37.72
865.461	-56.49
865.634	47.96
865.808	-31.91
865.982	-44.2
866.156	29.52
866.329	-31.91
866.503	-25.77
866.676	95.06
866.85	9.05
867.024	-23.72
867.197	47.96
867.371	25.43
867.544	82.77
867.718	-21.67
867.891	-9.39
868.065	-25.77
868.238	-9.39
868.412	90.96
868.585	-23.72
868.759	-7.34
868.932	-15.53
869.105	-36.01
869.279	37.72
869.452	7
869.625	23.38
869.799	-7.34
869.972	-3.24
870.145	-9.39
870.319	58.2
870.492	-40.11
870.665	9.05
870.838	-5.29
871.011	0.85
871.185	-29.87
871.358	4.95
871.531	45.91
871.704	-17.58
871.877	9.05
872.05	-7.34
872.223	78.68
872.396	33.62
872.569	-13.48
872.742	7
872.915	68.44
873.088	-64.68
873.261	-15.53
873.434	39.76
873.607	17.24
873.78	68.44
873.953	19.29
874.126	-54.44
874.299	52.05
874.471	-50.35
874.644	15.19
874.817	41.81
874.99	82.77
875.163	31.57
875.335	33.62
875.508	101.2
875.681	-19.63
875.853	35.67
876.026	56.15
876.199	52.05
876.371	-44.2
876.544	80.72
876.717	23.38
876.889	15.19
877.062	-11.43
877.234	-9.39
877.407	-66.73
877.579	15.19
877.752	0.85
877.924	33.62
878.097	-9.39
878.269	-27.82
878.442	56.15
878.614	23.38
878.786	9.05
878.959	45.91
879.131	-29.87
879.303	-3.24
879.476	58.2
879.648	17.24
879.82	-3.24
879.993	-74.92
880.165	-27.82
880.337	-36.01
880.509	45.91
880.681	19.29
880.854	-68.78
881.026	-23.72
881.198	-7.34
881.37	33.62
881.542	-13.48
881.714	-42.15
881.886	50
882.058	31.57
882.23	-25.77
882.402	13.14
882.574	2.9
882.746	58.2
882.918	35.67
883.09	72.53
883.262	23.38
883.434	11.09
883.606	-93.35
883.778	-19.63
883.95	25.43
884.122	43.86
884.293	-9.39
884.465	31.57
884.637	62.29
884.809	-1.19
884.98	11.09
885.152	109.4
885.324	35.67
885.496	-33.96
885.667	4.95
885.839	-36.01
886.011	54.1
886.182	-27.82
886.354	47.96
886.525	-9.39
886.697	50
886.869	0.85
887.04	-38.06
887.212	0.85
887.383	21.33
887.555	39.76
887.726	21.33
887.897	-33.96
888.069	-21.67
888.24	-21.67
888.412	47.96
888.583	72.53
888.754	13.14
888.926	-136.36
889.097	-13.48
889.268	11.09
889.44	-27.82
889.611	39.76
889.782	-5.29
889.953	-68.78
890.125	-1.19
890.296	13.14
890.467	-25.77
890.638	43.86
890.809	-5.29
890.98	17.24
891.151	23.38
891.323	23.38
891.494	27.48
891.665	-33.96
891.836	-40.11
892.007	4.95
892.178	19.29
892.349	-17.58
892.52	-13.48
892.691	-27.82
892.862	-11.43
893.032	13.14
893.203	-5.29
893.374	-3.24
893.545	66.39
893.716	-58.54
893.887	43.86
894.057	41.81
894.228	-38.06
894.399	-27.82
894.57	66.39
894.74	7
894.911	64.34
895.082	7
895.253	-33.96
895.423	0.85
895.594	-13.48
895.764	-25.77
895.935	7
896.106	-9.39
896.276	62.29
896.447	-87.21
896.617	35.67
896.788	4.95
896.958	17.24
897.129	-50.35
897.299	-93.35
897.47	82.77
897.64	99.16
897.81	9.05
897.981	15.19
898.151	-29.87
898.322	47.96
898.492	-15.53
898.662	0.85
898.832	-38.06
899.003	19.29
899.173	-48.3
899.343	-89.26
899.513	-17.58
