Data from USB4F104151__41__12-23-52-810.txt Node

Date: Fri Mar 14 12:23:52 EDT 2025
User: louis
Spectrometer: USB4F10415
Trigger mode: 4
Integration Time (sec): 3.500000E-2
Scans to average: 1
Electric dark correction enabled: true
Nonlinearity correction enabled: false
Boxcar width: 0
XAxis mode: Wavelengths
Number of Pixels in Spectrum: 3648
>>>>>Begin Spectral Data<<<<<
178.204	-106.67
178.424	-106.67
178.644	-106.67
178.864	-190.63
179.084	-174.25
179.304	-2.22
179.524	10.07
179.744	-37.03
179.964	16.21
180.184	-28.84
180.404	-8.36
180.624	48.98
180.844	-16.55
181.064	40.79
181.283	5.97
181.503	-84.14
181.723	55.12
181.943	-112.81
182.163	-4.27
182.383	3.93
182.602	87.89
182.822	-37.03
183.042	3.93
183.262	8.02
183.482	28.5
183.701	75.6
183.921	8.02
184.141	83.8
184.361	65.36
184.58	65.36
184.8	44.88
185.02	-41.13
185.239	40.79
185.459	-8.36
185.679	40.79
185.898	-4.27
186.118	65.36
186.338	65.36
186.557	-0.17
186.777	12.12
186.997	-22.7
187.216	-94.38
187.436	73.56
187.655	-2.22
187.875	32.6
188.095	12.12
188.314	116.56
188.534	40.79
188.753	75.6
188.973	34.64
189.192	36.69
189.412	8.02
189.631	-2.22
189.851	16.21
190.07	87.89
190.29	-59.56
190.509	18.26
190.729	-2.22
190.948	48.98
191.168	163.67
191.387	44.88
191.607	44.88
191.826	14.17
192.045	26.45
192.265	32.6
192.484	65.36
192.704	79.7
192.923	75.6
193.142	180.05
193.362	-55.47
193.581	106.32
193.8	42.84
194.02	79.7
194.239	73.56
194.458	46.93
194.678	8.02
194.897	18.26
195.116	55.12
195.335	32.6
195.555	-10.41
195.774	57.17
195.993	77.65
196.212	20.31
196.432	-6.31
196.651	26.45
196.87	-41.13
197.089	147.28
197.308	120.66
197.528	57.17
197.747	-26.79
197.966	42.84
198.185	40.79
198.404	-6.31
198.623	36.69
198.842	61.27
199.062	94.04
199.281	55.12
199.5	1.88
199.719	24.4
199.938	87.89
200.157	96.08
200.376	22.36
200.595	16.21
200.814	22.36
201.033	-43.18
201.252	-4.27
201.471	34.64
201.69	59.22
201.909	38.74
202.128	38.74
202.347	46.93
202.566	87.89
202.785	59.22
203.004	-26.79
203.223	132.95
203.442	48.98
203.661	32.6
203.879	106.32
204.098	24.4
204.317	-53.42
204.536	81.75
204.755	14.17
204.974	10.07
205.193	38.74
205.411	122.71
205.63	14.17
205.849	69.46
206.068	1.88
206.287	57.17
206.505	98.13
206.724	51.03
206.943	-14.51
207.162	-47.27
207.381	32.6
207.599	28.5
207.818	48.98
208.037	8.02
208.255	-18.6
208.474	-30.89
208.693	18.26
208.911	12.12
209.13	-0.17
209.349	51.03
209.567	28.5
209.786	55.12
210.005	79.7
210.223	1.88
210.442	18.26
210.661	36.69
210.879	12.12
211.098	3.93
211.316	61.27
211.535	20.31
211.753	-20.65
211.972	38.74
212.191	14.17
212.409	26.45
212.628	20.31
212.846	-34.99
213.065	-8.36
213.283	73.56
213.502	69.46
213.72	-2.22
213.938	61.27
214.157	-0.17
214.375	36.69
214.594	36.69
214.812	55.12
215.031	67.41
215.249	8.02
215.467	24.4
215.686	-10.41
215.904	124.76
216.122	28.5
216.341	65.36
216.559	-8.36
216.778	135
216.996	63.32
217.214	-26.79
217.432	-20.65
217.651	10.07
217.869	12.12
218.087	-77.99
218.306	22.36
218.524	46.93
218.742	53.08
218.96	55.12
219.179	14.17
219.397	61.27
219.615	42.84
219.833	-67.75
220.051	-24.75
220.27	51.03
220.488	83.8
220.706	28.5
220.924	10.07
221.142	44.88
221.36	46.93
221.578	36.69
221.796	3.93
222.015	30.55
222.233	-37.03
222.451	28.5
222.669	-18.6
222.887	100.18
223.105	14.17
223.323	42.84
223.541	-82.09
223.759	26.45
223.977	42.84
224.195	63.32
224.413	118.61
224.631	81.75
224.849	1.88
225.067	57.17
225.285	-4.27
225.503	-2.22
225.721	-2.22
225.939	-20.65
226.157	46.93
226.375	171.86
226.592	8.02
226.81	3.93
227.028	3.93
227.246	20.31
227.464	-18.6
227.682	40.79
227.9	46.93
228.117	102.23
228.335	61.27
228.553	-71.85
228.771	14.17
228.989	-10.41
229.206	14.17
229.424	28.5
229.642	-37.03
229.86	22.36
230.077	53.08
230.295	1.88
230.513	61.27
230.731	38.74
230.948	46.93
231.166	-0.17
231.384	30.55
231.601	53.08
231.819	83.8
232.037	-8.36
232.254	32.6
232.472	26.45
232.689	3.93
232.907	-41.13
233.125	32.6
233.342	30.55
233.56	26.45
233.777	22.36
233.995	8.02
234.213	48.98
234.43	51.03
234.648	28.5
234.865	-24.75
235.083	3.93
235.3	34.64
235.518	-8.36
235.735	81.75
235.953	137.04
236.17	18.26
236.388	55.12
236.605	-6.31
236.822	46.93
237.04	53.08
237.257	51.03
237.475	63.32
237.692	18.26
237.909	26.45
238.127	44.88
238.344	-26.79
238.562	-18.6
238.779	-49.32
238.996	53.08
239.214	46.93
239.431	14.17
239.648	16.21
239.865	10.07
240.083	81.75
240.3	40.79
240.517	42.84
240.735	-6.31
240.952	137.04
241.169	57.17
241.386	57.17
241.603	44.88
241.821	-47.27
242.038	-22.7
242.255	57.17
242.472	-28.84
242.689	59.22
242.907	48.98
243.124	-8.36
243.341	10.07
243.558	-24.75
243.775	-39.08
243.992	12.12
244.209	36.69
244.426	120.66
244.643	94.04
244.86	1.88
245.078	42.84
245.295	77.65
245.512	-24.75
245.729	-14.51
245.946	-16.55
246.163	67.41
246.38	67.41
246.597	-53.42
246.814	10.07
247.031	91.99
247.248	3.93
247.464	57.17
247.681	-20.65
247.898	28.5
248.115	38.74
248.332	30.55
248.549	59.22
248.766	112.47
248.983	81.75
249.2	10.07
249.417	14.17
249.633	5.97
249.85	28.5
250.067	-80.04
250.284	20.31
250.501	40.79
250.717	30.55
250.934	-16.55
251.151	40.79
251.368	83.8
251.585	63.32
251.801	38.74
252.018	-30.89
252.235	149.33
252.451	-26.79
252.668	22.36
252.885	48.98
253.102	30.55
253.318	12.12
253.535	18.26
253.752	34.64
253.968	18.26
254.185	44.88
254.401	46.93
254.618	67.41
254.835	-47.27
255.051	73.56
255.268	-18.6
255.484	-18.6
255.701	28.5
255.917	73.56
256.134	38.74
256.351	28.5
256.567	26.45
256.784	-26.79
257	-77.99
257.217	8.02
257.433	26.45
257.65	69.46
257.866	40.79
258.082	16.21
258.299	-41.13
258.515	57.17
258.732	32.6
258.948	20.31
259.165	14.17
259.381	28.5
259.597	67.41
259.814	1.88
260.03	-39.08
260.246	16.21
260.463	36.69
260.679	34.64
260.895	-14.51
261.112	69.46
261.328	28.5
261.544	16.21
261.761	81.75
261.977	30.55
262.193	-41.13
262.409	-0.17
262.626	51.03
262.842	-30.89
263.058	26.45
263.274	112.47
263.49	69.46
263.707	1.88
263.923	73.56
264.139	-43.18
264.355	36.69
264.571	3.93
264.787	69.46
265.004	65.36
265.22	24.4
265.436	63.32
265.652	46.93
265.868	16.21
266.084	-59.56
266.3	5.97
266.516	-14.51
266.732	32.6
266.948	73.56
267.164	22.36
267.38	1.88
267.596	30.55
267.812	114.52
268.028	46.93
268.244	-22.7
268.46	34.64
268.676	51.03
268.892	79.7
269.108	-43.18
269.324	-8.36
269.54	8.02
269.756	36.69
269.972	-0.17
270.188	-26.79
270.403	22.36
270.619	12.12
270.835	63.32
271.051	28.5
271.267	-32.94
271.483	-8.36
271.698	10.07
271.914	55.12
272.13	44.88
272.346	20.31
272.562	-8.36
272.777	44.88
272.993	-8.36
273.209	-8.36
273.425	75.6
273.64	-37.03
273.856	44.88
274.072	18.26
274.287	-26.79
274.503	48.98
274.719	1.88
274.934	65.36
275.15	1.88
275.366	5.97
275.581	14.17
275.797	36.69
276.012	51.03
276.228	8.02
276.444	53.08
276.659	18.26
276.875	18.26
277.09	30.55
277.306	-4.27
277.521	-12.46
277.737	-18.6
277.952	40.79
278.168	32.6
278.383	36.69
278.599	16.21
278.814	-18.6
279.03	83.8
279.245	44.88
279.461	12.12
279.676	85.84
279.892	-30.89
280.107	5.97
280.322	-8.36
280.538	3.93
280.753	-43.18
280.969	28.5
281.184	100.18
281.399	94.04
281.615	36.69
281.83	14.17
282.045	10.07
282.26	8.02
282.476	-59.56
282.691	59.22
282.906	-0.17
283.122	91.99
283.337	-34.99
283.552	69.46
283.767	42.84
283.983	59.22
284.198	5.97
284.413	32.6
284.628	12.12
284.843	-10.41
285.058	16.21
285.274	110.42
285.489	-0.17
285.704	28.5
285.919	-4.27
286.134	-39.08
286.349	108.37
286.564	10.07
286.779	28.5
286.995	12.12
287.21	63.32
287.425	57.17
287.64	3.93
287.855	55.12
288.07	5.97
288.285	87.89
288.5	75.6
288.715	20.31
288.93	55.12
289.145	10.07
289.36	12.12
289.575	-6.31
289.79	65.36
290.004	-10.41
290.219	75.6
290.434	51.03
290.649	-2.22
290.864	44.88
291.079	32.6
291.294	57.17
291.509	1.88
291.724	53.08
291.938	18.26
292.153	22.36
292.368	-20.65
292.583	38.74
292.798	1.88
293.012	63.32
293.227	61.27
293.442	-0.17
293.657	-45.23
293.871	55.12
294.086	63.32
294.301	40.79
294.516	126.8
294.73	16.21
294.945	-2.22
295.16	44.88
295.374	5.97
295.589	42.84
295.804	75.6
296.018	3.93
296.233	104.28
296.447	73.56
296.662	30.55
296.877	20.31
297.091	53.08
297.306	98.13
297.52	-4.27
297.735	42.84
297.949	55.12
298.164	73.56
298.378	44.88
298.593	16.21
298.807	14.17
299.022	-0.17
299.236	-28.84
299.451	12.12
299.665	-28.84
299.88	20.31
300.094	-16.55
300.309	36.69
300.523	51.03
300.737	-6.31
300.952	-84.14
301.166	44.88
301.381	-84.14
301.595	-4.27
301.809	98.13
302.024	-4.27
302.238	-37.03
302.452	16.21
302.667	22.36
302.881	61.27
303.095	71.51
303.309	34.64
303.524	-8.36
303.738	16.21
303.952	20.31
304.166	77.65
304.381	36.69
304.595	69.46
304.809	-2.22
305.023	67.41
305.237	-20.65
305.452	48.98
305.666	75.6
305.88	3.93
306.094	46.93
306.308	-8.36
306.522	61.27
306.736	53.08
306.95	42.84
307.164	-12.46
307.379	55.12
307.593	67.41
307.807	65.36
308.021	89.94
308.235	30.55
308.449	-41.13
308.663	67.41
308.877	77.65
309.091	20.31
309.305	83.8
309.519	-49.32
309.733	57.17
309.947	57.17
310.161	30.55
310.374	-12.46
310.588	-0.17
310.802	-26.79
311.016	22.36
311.23	-8.36
311.444	-24.75
311.658	51.03
311.872	69.46
312.085	40.79
312.299	73.56
312.513	42.84
312.727	48.98
312.941	81.75
313.154	22.36
313.368	-8.36
313.582	63.32
313.796	53.08
314.009	22.36
314.223	48.98
314.437	83.8
314.651	69.46
314.864	34.64
315.078	26.45
315.292	-10.41
315.505	-88.23
315.719	-20.65
315.933	61.27
316.146	24.4
316.36	-16.55
316.573	67.41
316.787	57.17
317.001	24.4
317.214	16.21
317.428	20.31
317.641	12.12
317.855	26.45
318.068	28.5
318.282	-12.46
318.495	81.75
318.709	96.08
318.922	32.6
319.136	65.36
319.349	-34.99
319.563	-2.22
319.776	18.26
319.99	18.26
320.203	75.6
320.417	59.22
320.63	34.64
320.843	85.84
321.057	5.97
321.27	87.89
321.483	40.79
321.697	110.42
321.91	48.98
322.124	106.32
322.337	5.97
322.55	8.02
322.763	59.22
322.977	145.24
323.19	106.32
323.403	51.03
323.617	1.88
323.83	114.52
324.043	3.93
324.256	38.74
324.469	-4.27
324.683	55.12
324.896	42.84
325.109	73.56
325.322	-10.41
325.535	106.32
325.748	55.12
325.962	8.02
326.175	59.22
326.388	5.97
326.601	32.6
326.814	44.88
327.027	14.17
327.24	87.89
327.453	-45.23
327.666	-24.75
327.879	83.8
328.092	85.84
328.305	3.93
328.518	14.17
328.731	-14.51
328.944	132.95
329.157	24.4
329.37	-8.36
329.583	89.94
329.796	100.18
330.009	-8.36
330.222	10.07
330.435	-22.7
330.648	-22.7
330.861	118.61
331.073	102.23
331.286	53.08
331.499	57.17
331.712	18.26
331.925	-43.18
332.138	24.4
332.35	30.55
332.563	30.55
332.776	57.17
332.989	-57.51
333.202	14.17
333.414	30.55
333.627	26.45
333.84	44.88
334.053	22.36
334.265	-41.13
334.478	14.17
334.691	83.8
334.903	5.97
335.116	32.6
335.329	16.21
335.541	38.74
335.754	61.27
335.966	8.02
336.179	67.41
336.392	8.02
336.604	73.56
336.817	38.74
337.029	22.36
337.242	20.31
337.454	18.26
337.667	-16.55
337.88	53.08
338.092	-30.89
338.305	22.36
338.517	10.07
338.729	24.4
338.942	18.26
339.154	3.93
339.367	1.88
339.579	71.51
339.792	-32.94
340.004	65.36
340.217	22.36
340.429	-12.46
340.641	14.17
340.854	-10.41
341.066	98.13
341.278	63.32
341.491	102.23
341.703	20.31
341.915	-14.51
342.128	51.03
342.34	-16.55
342.552	71.51
342.764	65.36
342.977	96.08
343.189	124.76
343.401	-22.7
343.613	-14.51
343.826	3.93
344.038	-0.17
344.25	53.08
344.462	34.64
344.674	42.84
344.886	-16.55
345.099	51.03
345.311	-26.79
345.523	3.93
345.735	-16.55
345.947	91.99
346.159	-104.62
346.371	63.32
346.583	3.93
346.795	112.47
347.007	32.6
347.219	-8.36
347.431	96.08
347.643	55.12
347.855	48.98
348.067	94.04
348.279	-43.18
348.491	36.69
348.703	-4.27
348.915	28.5
349.127	22.36
349.339	51.03
349.551	63.32
349.763	85.84
349.975	-4.27
350.187	65.36
350.399	114.52
350.61	44.88
350.822	48.98
351.034	102.23
351.246	16.21
351.458	-22.7
351.669	81.75
351.881	18.26
352.093	59.22
352.305	163.67
352.517	91.99
352.728	61.27
352.94	63.32
353.152	28.5
353.363	16.21
353.575	57.17
353.787	83.8
353.999	-59.56
354.21	44.88
354.422	77.65
354.633	20.31
354.845	12.12
355.057	28.5
355.268	57.17
355.48	38.74
355.692	5.97
355.903	-4.27
356.115	28.5
356.326	3.93
356.538	91.99
356.749	53.08
356.961	77.65
357.172	55.12
357.384	46.93
357.595	106.32
357.807	36.69
358.018	42.84
358.23	1.88
358.441	28.5
358.653	8.02
358.864	40.79
359.075	-24.75
359.287	-2.22
359.498	75.6
359.709	26.45
359.921	55.12
360.132	55.12
360.344	61.27
360.555	32.6
360.766	34.64
360.977	67.41
361.189	61.27
361.4	87.89
361.611	77.65
361.823	87.89
362.034	-18.6
362.245	63.32
362.456	51.03
362.667	20.31
362.879	3.93
363.09	38.74
363.301	3.93
363.512	53.08
363.723	-28.84
363.935	96.08
364.146	44.88
364.357	73.56
364.568	8.02
364.779	-34.99
364.99	69.46
365.201	-32.94
365.412	81.75
365.623	-34.99
365.834	51.03
366.045	34.64
366.256	89.94
366.467	42.84
366.678	12.12
366.889	36.69
367.1	57.17
367.311	67.41
367.522	108.37
367.733	85.84
367.944	110.42
368.155	-18.6
368.366	24.4
368.577	44.88
368.788	106.32
368.999	12.12
369.209	-18.6
369.42	112.47
369.631	124.76
369.842	89.94
370.053	-4.27
370.264	59.22
370.474	-20.65
370.685	69.46
370.896	51.03
371.107	102.23
371.317	122.71
371.528	38.74
371.739	108.37
371.95	104.28
372.16	61.27
372.371	-24.75
372.582	5.97
372.792	46.93
373.003	55.12
373.214	81.75
373.424	69.46
373.635	30.55
373.846	96.08
374.056	24.4
374.267	42.84
374.477	98.13
374.688	-18.6
374.898	87.89
375.109	3.93
375.319	71.51
375.53	116.56
375.74	10.07
375.951	55.12
376.161	28.5
376.372	83.8
376.582	48.98
376.793	59.22
377.003	10.07
377.214	57.17
377.424	59.22
377.635	69.46
377.845	12.12
378.055	40.79
378.266	5.97
378.476	-4.27
378.686	44.88
378.897	44.88
379.107	153.43
379.317	71.51
379.528	5.97
379.738	65.36
379.948	5.97
380.158	137.04
380.369	-88.23
380.579	67.41
380.789	42.84
380.999	36.69
381.21	42.84
381.42	94.04
381.63	22.36
381.84	32.6
382.05	87.89
382.261	130.9
382.471	77.65
382.681	112.47
382.891	159.57
383.101	57.17
383.311	-51.37
383.521	12.12
383.731	112.47
383.941	30.55
384.151	46.93
384.361	89.94
384.571	112.47
384.781	83.8
384.991	10.07
385.201	130.9
385.411	69.46
385.621	104.28
385.831	-34.99
386.041	-28.84
386.251	55.12
386.461	38.74
386.671	67.41
386.881	79.7
387.091	83.8
387.301	1.88
387.511	42.84
387.72	108.37
387.93	40.79
388.14	-28.84
388.35	32.6
388.56	38.74
388.769	46.93
388.979	63.32
389.189	12.12
389.399	114.52
389.609	110.42
389.818	106.32
390.028	42.84
390.238	79.7
390.447	-0.17
390.657	48.98
390.867	89.94
391.076	-43.18
391.286	46.93
391.496	147.28
391.705	42.84
391.915	67.41
392.125	165.71
392.334	10.07
392.544	118.61
392.753	1.88
392.963	77.65
393.172	61.27
393.382	75.6
393.591	81.75
393.801	87.89
394.01	135
394.22	122.71
394.429	100.18
394.639	-32.94
394.848	110.42
395.058	20.31
395.267	34.64
395.477	14.17
395.686	63.32
395.895	149.33
396.105	163.67
396.314	63.32
396.524	75.6
396.733	24.4
396.942	143.19
397.152	46.93
397.361	155.47
397.57	126.8
397.78	75.6
397.989	110.42
398.198	89.94
398.407	-8.36
398.617	167.76
398.826	147.28
399.035	110.42
399.244	53.08
399.453	63.32
399.663	112.47
399.872	85.84
400.081	71.51
400.29	94.04
400.499	67.41
400.708	102.23
400.917	180.05
401.127	83.8
401.336	94.04
401.545	249.68
401.754	96.08
401.963	143.19
402.172	153.43
402.381	96.08
402.59	87.89
402.799	69.46
403.008	218.96
403.217	112.47
403.426	165.71
403.635	44.88
403.844	73.56
404.053	67.41
404.262	85.84
404.471	196.43
404.68	69.46
404.888	159.57
405.097	118.61
405.306	102.23
405.515	128.85
405.724	184.15
405.933	202.58
406.142	161.62
406.35	202.58
406.559	175.95
406.768	155.47
406.977	188.24
407.185	202.58
407.394	210.77
407.603	132.95
407.812	221.01
408.02	223.06
408.229	98.13
408.438	208.72
408.646	212.82
408.855	225.11
409.064	229.2
409.272	173.91
409.481	249.68
409.69	196.43
409.898	251.73
410.107	268.11
410.315	278.35
410.524	327.5
410.733	366.42
410.941	315.22
411.15	380.75
411.358	294.74
411.567	423.76
411.775	288.59
411.984	374.61
412.192	409.42
412.401	393.04
412.609	390.99
412.818	474.96
413.026	462.67
413.234	481.1
413.443	477.01
413.651	477.01
413.86	501.58
414.068	530.25
414.276	628.56
414.485	532.3
414.693	687.95
414.901	655.18
415.11	601.93
415.318	665.42
415.526	610.12
415.734	657.23
415.943	749.39
416.151	759.63
416.359	794.44
416.567	800.59
416.776	845.64
416.984	857.93
417.192	907.08
417.4	972.61
417.608	792.39
417.817	964.42
418.025	980.81
418.233	1158.98
418.441	1005.38
418.649	1111.88
418.857	1204.03
419.065	1193.8
419.273	1150.79
419.481	1306.43
419.689	1306.43
419.897	1335.1
420.105	1304.39
420.313	1367.87
420.521	1505.09
420.729	1554.24
420.937	1525.57
421.145	1627.96
421.353	1830.71
421.561	1765.18
421.769	1767.23
421.977	1847.1
422.185	1947.45
422.393	1959.74
422.601	2115.38
422.809	2090.81
423.017	2199.35
423.224	2174.77
423.432	2357.04
423.64	2418.48
423.848	2455.34
424.056	2471.73
424.263	2627.37
424.471	2621.23
424.679	2637.61
424.887	2830.12
425.094	2860.84
425.302	2969.38
425.51	3049.25
425.718	3094.31
425.925	3129.13
426.133	3172.13
426.341	3366.69
426.548	3677.98
426.756	3669.79
426.964	3665.69
427.171	3882.78
427.379	4097.81
427.586	4169.49
427.794	4108.05
428.001	4308.76
428.209	4376.34
428.417	4548.37
428.624	4890.38
428.832	4882.19
429.039	4792.08
429.247	4853.52
429.454	5142.28
429.662	5758.72
429.869	5154.57
430.076	5678.85
430.284	5472
430.491	5660.41
430.699	5906.17
430.906	6057.72
431.114	6070.01
431.321	6471.41
431.528	6522.61
431.736	6741.74
431.943	7020.27
432.15	6995.69
432.358	6983.4
432.565	7487.2
432.772	7380.71
432.979	7671.52
433.187	7923.42
433.394	7988.96
433.601	8634.07
433.808	8441.56
434.016	8568.53
434.223	9019.08
434.43	9488.07
434.637	9395.91
434.844	9916.09
435.052	10100.41
435.259	9920.19
435.466	10084.03
435.673	9875.13
435.88	10688.18
436.087	10989.23
436.294	11058.86
436.501	10858.16
436.708	10888.88
436.915	11445.93
437.122	12005.02
437.329	11931.3
437.537	12142.24
437.743	12547.73
437.95	12443.29
438.157	13094.54
438.364	13680.26
438.571	13534.85
438.778	13547.14
438.985	14827.12
439.192	14182.01
439.399	14814.84
439.606	14399.1
439.813	15326.83
440.02	16150.11
440.227	15668.84
440.433	15707.75
440.64	16227.93
440.847	16199.26
441.054	16422.49
441.261	17776.2
441.467	17497.67
441.674	17897.03
441.881	18447.93
442.088	18388.54
442.294	18150.98
442.501	18859.57
442.708	19095.09
442.914	19682.86
443.121	20571.68
443.328	20004.39
443.534	21337.62
443.741	20981.27
443.948	20557.34
444.154	22212.1
444.361	22277.63
444.568	22427.14
444.774	22492.67
444.981	22304.26
445.187	23264.75
445.394	24274.4
445.6	23764.46
445.807	25863.63
446.013	24786.4
446.22	25277.91
446.426	26676.67
446.633	26842.56
446.839	27409.84
447.046	26496.45
447.252	27872.68
447.459	28034.47
447.665	27927.98
447.871	29281.69
448.078	30399.88
448.284	28734.88
448.491	29783.44
448.697	30702.98
448.903	31614.32
449.11	31464.82
449.316	30903.68
449.522	31497.59
449.728	32445.8
449.935	32472.42
450.141	32507.24
450.347	33543.51
450.553	32093.55
450.76	32544.1
450.966	33590.61
451.172	33207.64
451.378	34397.51
451.584	33680.72
451.791	33944.91
451.997	34151.76
452.203	34657.6
452.409	34776.39
452.615	34596.17
452.821	33144.16
453.027	33244.51
453.233	34770.24
453.44	33887.57
453.646	33748.31
453.852	34010.45
454.058	34628.93
454.264	33621.33
454.47	34176.33
454.676	33187.16
454.882	34508.1
455.088	31135.1
455.294	31837.55
455.5	32480.61
455.705	32494.95
455.911	31262.07
456.117	30553.48
456.323	30256.52
456.529	28786.08
456.735	29386.13
456.941	29029.79
457.147	28677.54
457.352	27911.6
457.558	27319.73
457.764	27639.22
457.97	27145.66
458.176	26445.25
458.381	26795.45
458.587	24831.45
458.793	24954.33
458.999	24141.28
459.204	25212.37
459.41	24888.79
459.616	22726.14
459.821	23141.88
460.027	22760.95
460.233	22521.34
460.438	21487.12
460.644	21667.34
460.85	20549.15
461.055	20334.11
461.261	20098.59
461.466	18751.03
461.672	18232.9
461.878	19404.33
462.083	18277.95
462.289	17825.35
462.494	17626.7
462.7	16893.52
462.905	16303.71
463.111	17208.91
463.316	17208.91
463.522	16688.73
463.727	16877.14
463.932	16678.49
464.138	16557.66
464.343	16469.59
464.549	16156.25
464.754	16393.82
464.959	16535.13
465.165	16309.85
465.37	15535.72
465.575	15496.81
465.781	15922.79
465.986	16117.34
466.191	15337.07
466.397	15081.07
466.602	14481.02
466.807	14902.9
467.012	14972.53
467.218	14863.99
467.423	14360.19
467.628	14728.82
467.833	15437.42
468.038	14626.42
468.244	14268.03
468.449	14902.9
468.654	14333.56
468.859	14360.19
469.064	14296.7
469.269	13735.56
469.474	13866.63
469.679	14413.43
469.885	13954.69
470.09	13725.32
470.295	13825.67
470.5	13418.12
470.705	13510.28
470.91	13211.28
471.115	13201.04
471.32	13336.2
471.525	13223.56
471.73	12830.35
471.935	12717.72
472.139	12299.93
472.344	12369.56
472.549	12691.09
472.754	12289.69
472.959	12222.11
473.164	11699.87
473.369	11634.34
473.574	12070.56
473.778	11814.56
473.983	11798.18
474.188	11863.71
474.393	11019.95
474.598	11259.56
474.802	11331.24
475.007	11222.7
475.212	11114.16
475.417	10735.28
475.621	10714.8
475.826	10747.57
476.031	10622.64
476.235	10448.57
476.44	10507.96
476.645	10063.55
476.849	10133.18
477.054	10159.8
477.259	10182.33
477.463	10309.3
477.668	9762.5
477.872	9723.58
478.077	9672.39
478.282	9418.44
478.486	9608.9
478.691	9309.9
478.895	9293.51
479.1	9402.05
479.304	9375.43
479.509	8931.02
479.713	9150.15
479.918	9006.8
480.122	9017.04
480.326	8988.36
480.531	9086.67
480.735	8840.91
480.94	8775.38
481.144	9234.12
481.348	8548.05
481.553	8713.94
481.757	8300.25
481.961	8775.38
482.166	8834.77
482.37	8654.55
482.574	8773.33
482.778	8732.37
482.983	8750.8
483.187	8584.91
483.391	8752.85
483.595	8658.64
483.8	8425.17
484.004	8629.97
484.208	8877.77
484.412	8748.75
484.616	8642.26
484.821	8648.4
485.025	8566.48
485.229	8632.02
485.433	8662.74
485.637	8568.53
485.841	8339.16
486.045	8675.02
486.249	8601.3
486.453	8425.17
486.657	8728.27
486.861	8562.39
487.065	8439.51
487.269	8707.79
487.473	8396.5
487.677	8668.88
487.881	8990.41
488.085	8625.87
488.289	8566.48
488.493	8629.97
488.697	8619.73
488.901	8730.32
489.105	8666.83
489.309	8550.1
489.512	8666.83
489.716	8693.46
489.92	8777.42
490.124	8672.98
490.328	8859.34
490.531	8617.68
490.735	8967.88
490.939	8920.78
491.143	8781.52
491.346	8779.47
491.55	8918.73
491.754	9012.94
491.958	9156.3
492.161	9072.33
492.365	9010.89
492.569	9227.98
492.772	9113.29
492.976	8988.36
493.18	8963.79
493.383	9256.65
493.587	9277.13
493.79	9379.53
493.994	9311.94
494.197	9440.97
494.401	9574.08
494.605	9428.68
494.808	9645.76
495.012	9842.37
495.215	9948.86
495.419	9971.39
495.622	10028.73
495.825	10049.21
496.029	9961.15
496.232	10098.36
496.436	10112.7
496.639	10366.65
496.843	10436.28
497.046	10741.43
497.249	10575.54
497.453	10698.42
497.656	11015.85
497.859	10718.9
498.063	11179.69
498.266	11288.23
498.469	11349.67
498.673	11402.92
498.876	11660.96
499.079	11714.21
499.282	11652.77
499.485	12052.13
499.689	12017.31
499.892	12091.04
500.095	12402.33
500.298	12467.86
500.501	12531.35
500.705	12793.49
500.908	12848.79
501.111	13168.27
501.314	13287.05
501.517	13227.66
501.72	13518.47
501.923	13545.09
502.126	13639.3
502.329	14036.61
502.532	13981.31
502.735	14157.44
502.938	14534.26
503.141	14548.6
503.344	14708.34
503.547	14732.92
503.75	14837.36
503.953	15130.22
504.156	15285.87
504.359	15568.49
504.562	15289.96
504.765	15980.13
504.968	15834.72
505.17	16195.17
505.373	16387.68
505.576	16647.77
505.779	16619.1
505.982	16946.77
506.185	17262.16
506.387	17286.73
506.59	17378.89
506.793	17675.85
506.996	17671.75
507.198	18390.59
507.401	18376.25
507.604	18490.94
507.807	18773.56
508.009	18865.72
508.212	19074.61
508.415	19293.74
508.617	19482.16
508.82	19670.57
509.022	19514.92
509.225	20160.03
509.428	20264.48
509.63	20330.02
509.833	20604.44
510.035	21163.54
510.238	20833.82
510.44	21503.5
510.643	21630.48
510.845	21972.49
511.048	21814.79
511.25	21992.97
511.453	22474.24
511.655	23213.56
511.858	22701.56
512.06	23150.07
512.262	23416.3
512.465	23473.65
512.667	23809.51
512.87	24104.42
513.072	24217.06
513.274	24776.16
513.477	24917.47
513.679	25134.55
513.881	25656.78
514.084	25581.01
514.286	25902.54
514.488	26068.42
514.69	26906.04
514.893	26633.66
515.095	26654.14
515.297	26811.84
515.499	27116.98
515.701	27622.83
515.904	27868.59
516.106	28128.68
516.308	28734.88
516.51	28837.28
516.712	29052.31
516.914	29308.31
517.116	29975.95
517.318	29756.82
517.52	29875.6
517.722	30315.91
517.925	30682.5
518.127	31126.91
518.329	31364.47
518.531	31065.47
518.733	31815.02
518.935	32144.75
519.136	32005.48
519.338	32691.55
519.54	32982.37
519.742	33140.06
519.944	33279.32
520.146	34010.45
520.348	34092.37
520.55	34315.59
520.752	34544.97
520.954	35001.66
521.155	34774.34
521.357	35654.97
521.559	36003.12
521.761	36451.63
521.963	36433.19
522.164	36431.15
522.366	36820.26
522.568	37491.99
522.77	37365.02
522.971	37803.28
523.173	37117.21
523.375	37877.01
523.576	38006.03
523.778	38475.02
523.98	38878.47
524.181	39202.05
524.383	39625.98
524.584	39859.45
524.786	39738.61
524.988	39544.06
525.189	39902.45
525.391	40389.87
525.592	40740.07
525.794	40879.33
525.995	41198.82
526.197	40908.01
526.398	41186.53
526.6	41571.55
526.801	41862.36
527.003	42095.83
527.204	41952.47
527.406	42554.57
527.607	42288.34
527.808	42771.66
528.01	42226.9
528.211	42968.26
528.412	43324.61
528.614	42982.6
528.815	43275.46
529.016	44098.74
529.218	43447.49
529.419	43769.02
529.62	43566.27
529.822	43627.71
530.023	43918.52
530.224	44338.35
530.425	43934.9
530.626	43969.72
530.828	43705.53
531.029	44668.08
531.23	44557.49
531.431	44278.96
531.632	44655.79
531.833	44559.53
532.035	45126.82
532.236	44504.24
532.437	45028.52
532.638	44840.11
532.839	44954.79
533.04	45210.79
533.241	44848.3
533.442	45968.54
533.643	45331.62
533.844	45149.35
534.045	45679.77
534.246	45106.34
534.447	45241.51
534.648	45235.36
534.849	45362.34
535.05	45300.9
535.251	45493.41
535.451	45333.67
535.652	45655.2
535.853	45692.06
536.054	45585.57
536.255	45915.29
536.456	45425.82
536.657	46011.54
536.857	45704.35
537.058	45204.64
537.259	45798.55
537.46	45948.06
537.66	45178.02
537.861	45438.11
538.062	45456.54
538.263	45425.82
538.463	45819.03
538.664	45618.33
538.865	45429.92
539.065	46023.83
539.266	45190.31
539.466	46027.93
539.667	45501.6
539.868	45479.07
540.068	45331.62
540.269	45784.22
540.469	45931.67
540.67	45446.3
540.87	45477.02
541.071	45532.32
541.271	45579.42
541.472	45227.17
541.672	45702.3
541.873	45370.53
542.073	45286.56
542.274	45888.67
542.474	45307.04
542.675	45169.83
542.875	45925.53
543.075	45343.91
543.276	44713.13
543.476	45550.75
543.676	45001.89
543.877	45679.77
544.077	45558.94
544.277	45325.47
544.478	45241.51
544.678	45552.8
544.878	45278.37
545.078	45186.21
545.279	45261.99
545.479	44926.12
545.679	45601.95
545.879	44866.73
546.079	45108.39
546.28	44958.89
546.48	44975.27
546.68	45270.18
546.88	45503.65
547.08	45061.29
547.28	45692.06
547.48	44541.1
547.68	45563.04
547.88	44930.22
548.081	45233.32
548.281	45012.13
548.481	44958.89
548.681	45434.02
548.881	45126.82
549.081	44833.96
549.28	45376.67
549.48	45163.68
549.68	44946.6
549.88	45497.5
550.08	44758.19
550.28	44973.22
550.48	44715.18
550.68	45345.95
550.88	44549.29
551.08	44729.51
551.279	45294.75
551.479	44688.56
551.679	44475.57
551.879	44866.73
552.079	45216.93
552.278	44840.11
552.478	45038.76
552.678	44833.96
552.878	45079.72
553.077	44983.46
553.277	44668.08
553.477	45251.75
553.676	44883.11
553.876	44692.65
554.076	44840.11
554.275	44362.93
554.475	44203.19
554.674	44723.37
554.874	44674.22
555.074	44356.78
555.273	44356.78
555.473	44840.11
555.672	44487.85
555.872	44577.97
556.071	44123.32
556.271	44588.2
556.47	44113.08
556.67	43812.02
556.869	43898.04
557.068	44258.48
557.268	43840.7
557.467	43852.98
557.667	43900.09
557.866	43830.46
558.065	43605.18
558.265	43742.39
558.464	43195.59
558.663	44309.68
558.863	43431.1
559.062	43961.53
559.261	43052.23
559.461	43701.43
559.66	42779.85
559.859	43304.13
560.058	42685.64
560.258	43142.34
560.457	42648.78
560.656	42992.84
560.855	42804.42
561.054	42841.29
561.253	42589.39
561.453	42575.05
561.652	42570.96
561.851	42607.82
562.05	42249.42
562.249	41829.59
562.448	42443.98
562.647	42087.64
562.846	41940.18
563.045	42136.79
563.244	41596.12
563.443	42124.5
563.642	41469.15
563.841	41104.61
564.04	41315.55
564.239	41886.93
564.438	41043.17
564.637	41102.56
564.836	41143.52
565.035	40985.83
565.234	41120.99
565.432	40785.13
565.631	40389.87
565.83	40660.2
566.029	40328.43
566.228	40197.36
566.427	40441.07
566.625	40133.87
566.824	39908.6
567.023	40226.03
567.222	39154.94
567.42	40178.93
567.619	39494.91
567.818	39312.64
568.016	39709.94
568.215	39793.91
568.414	39220.48
568.612	39380.22
568.811	38571.27
569.01	39212.29
569.208	38237.45
569.407	38931.72
569.605	38335.76
569.804	38698.25
570.002	38053.14
570.201	38315.28
570.4	37952.79
570.598	37807.38
570.797	37717.27
570.995	37995.79
571.193	37377.31
571.392	37709.08
571.59	37410.07
571.789	37340.44
571.987	37057.82
572.186	37000.48
572.384	36984.1
572.582	37008.67
572.781	37219.61
572.979	36504.87
573.177	36486.44
573.376	36912.42
573.574	36179.25
573.772	36353.32
573.971	36197.68
574.169	35700.02
574.367	35589.43
574.565	35994.93
574.763	35566.9
574.962	35165.5
575.16	35179.84
575.358	35593.53
575.556	35120.45
575.754	35648.82
575.952	34966.85
576.151	35192.12
576.349	34495.81
576.547	34673.99
576.745	34766.15
576.943	34788.67
577.141	34461
577.339	34839.87
577.537	34209.1
577.735	34389.32
577.933	33785.17
578.131	34030.93
578.329	33705.3
578.527	33680.72
578.725	33508.69
578.923	33437.02
579.121	33510.74
579.319	33432.92
579.516	33514.84
579.714	33391.96
579.912	32826.72
580.11	32839.01
580.308	32814.43
580.506	32904.54
580.704	32165.23
580.901	32634.21
581.099	33115.48
581.297	32175.47
581.495	32134.51
581.692	32132.46
581.89	32208.23
582.088	32275.82
582.285	31696.24
582.483	31716.72
582.681	31780.21
582.878	31890.8
583.076	31559.03
583.274	31651.19
583.471	31059.32
583.669	31083.9
583.866	31098.23
584.064	30754.18
584.262	30649.73
584.459	31288.7
584.657	30936.45
584.854	30797.18
585.052	30788.99
585.249	30356.87
585.447	30399.88
585.644	30176.65
585.841	30219.66
586.039	30686.59
586.236	29908.36
586.434	29832.59
586.631	29539.73
586.828	29853.07
587.026	29875.6
587.223	29691.28
587.42	29607.31
587.618	29732.24
587.815	29113.75
588.012	29357.46
588.21	29320.6
588.407	29246.87
588.604	29003.16
588.801	28730.78
588.999	28841.37
589.196	28657.06
589.393	28581.28
589.59	28421.54
589.787	28200.36
589.984	28155.3
590.182	28206.5
590.379	28267.94
590.576	27942.31
590.773	28032.43
590.97	27614.64
591.167	27987.37
591.364	27532.72
591.561	27614.64
591.758	27504.05
591.955	27913.64
592.152	27633.07
592.349	27168.18
592.546	27135.42
592.743	27225.53
592.94	26787.26
593.137	27200.95
593.334	27170.23
593.531	26602.94
593.727	26971.58
593.924	26817.98
594.121	26398.15
594.318	26912.19
594.515	26361.28
594.712	26717.63
594.908	26146.25
595.105	26424.77
595.302	26154.44
595.499	26316.23
595.696	25748.94
595.892	25445.84
596.089	26088.9
596.286	25822.67
596.482	25517.52
596.679	25660.88
596.876	25607.63
597.072	25378.26
597.269	25259.48
597.466	25173.46
597.662	25148.89
597.859	24888.79
598.055	25095.64
598.252	24806.87
598.448	24944.09
598.645	25101.78
598.841	24651.23
599.038	24450.53
599.234	24610.27
599.431	24542.69
599.627	24393.19
599.824	24589.79
600.02	24489.44
600.217	24374.75
600.413	24182.24
600.609	24221.16
600.806	24112.61
601.002	24065.51
601.198	23770.6
601.395	23651.82
601.591	23678.44
601.787	23764.46
601.984	23430.64
602.18	23780.84
602.376	23176.69
602.572	23637.48
602.769	23281.14
602.965	22695.42
603.161	23143.92
603.357	23170.55
603.553	22793.72
603.75	23293.43
603.946	22877.69
604.142	22533.63
604.338	22224.39
604.534	22609.4
604.73	22375.94
604.926	22279.68
605.122	22699.51
605.318	22146.56
605.514	22418.94
605.71	22197.76
605.906	22105.6
606.102	22066.69
606.298	22154.76
606.494	22076.93
606.69	21968.39
606.886	22097.41
607.082	21906.95
607.278	21663.24
607.474	21497.36
607.67	21718.54
607.866	21089.81
608.062	21655.05
608.257	21120.53
608.453	21513.74
608.649	21229.07
608.845	21368.34
609.041	20948.5
609.236	21329.42
609.432	21059.09
609.628	21362.19
609.824	21071.38
610.019	20704.79
610.215	20860.44
610.411	20962.84
610.606	20725.27
610.802	20659.74
610.998	20745.75
611.193	20821.53
611.389	20565.53
611.584	20282.91
611.78	20364.83
611.976	20534.81
612.171	20727.32
612.367	20315.68
612.562	20180.51
612.758	19934.76
612.953	19904.04
613.149	20311.58
613.344	20031.01
613.539	20403.74
613.735	20174.37
613.93	20250.14
614.126	20061.73
614.321	20133.41
614.517	19922.47
614.712	19729.96
614.907	19777.06
615.103	19645.99
615.298	19768.87
615.493	19875.37
615.688	19152.43
615.884	19852.84
616.079	19373.61
616.274	19402.29
616.47	19234.35
616.665	19504.68
616.86	19484.2
617.055	19402.29
617.25	19136.05
617.445	19240.5
617.641	18832.95
617.836	19056.18
618.031	18697.78
618.226	19181.1
618.421	18667.06
618.616	18937.4
618.811	18695.74
619.006	19140.15
619.201	18363.97
619.396	18460.22
619.591	18161.22
619.786	18288.19
619.981	18191.94
620.176	18257.47
620.371	17815.11
620.566	18095.68
620.761	18013.76
620.956	18095.68
621.151	17974.85
621.346	17929.8
621.541	17403.47
621.735	17565.26
621.93	17462.86
622.125	17479.24
622.32	17071.7
622.515	17247.82
622.709	17153.62
622.904	17149.52
623.099	17008.21
623.294	17071.7
623.488	16705.11
623.683	16817.75
623.878	16604.76
624.072	16612.95
624.267	16469.59
624.462	16223.84
624.656	16158.3
624.851	16227.93
625.046	15945.31
625.24	15994.47
625.435	15709.8
625.629	15822.44
625.824	15658.6
626.018	15691.37
626.213	15216.24
626.407	15326.83
626.602	15369.83
626.796	15275.63
626.991	15480.43
627.185	15185.52
627.38	15107.69
627.574	14886.51
627.768	14845.55
627.963	14753.4
628.157	14704.24
628.352	14777.97
628.546	14481.02
628.74	14478.97
628.935	14366.33
629.129	14184.06
629.323	14306.94
629.517	14083.71
629.712	14120.57
629.906	14184.06
630.1	13852.29
630.294	13819.52
630.489	13756.04
630.683	13811.33
630.877	13665.92
631.071	13586.05
631.265	13641.35
631.459	13254.28
631.653	13532.81
631.848	13334.15
632.042	13231.76
632.236	13223.56
632.43	13115.02
632.624	13115.02
632.818	12924.56
633.012	12777.11
633.206	12805.78
633.4	12807.83
633.594	12570.26
633.788	12715.67
633.982	12621.46
634.176	12449.43
634.369	12416.66
634.563	12218.01
634.757	12338.84
634.951	12322.46
635.145	11886.24
635.339	12291.74
635.533	11789.99
635.726	11988.64
635.92	11751.07
636.114	11652.77
636.308	11691.68
636.501	11804.32
636.695	11599.52
636.889	11679.4
637.083	11357.86
637.276	11443.88
637.47	11366.06
637.664	11241.13
637.857	11321
638.051	11382.44
638.244	11341.48
638.438	11210.41
638.632	11058.86
638.825	10942.13
639.019	10804.91
639.212	10708.66
639.406	10735.28
639.599	10706.61
639.793	10702.51
639.986	10563.25
640.18	10563.25
640.373	10471.09
640.567	10299.06
640.76	10309.3
640.954	10430.13
641.147	10176.19
641.34	10266.3
641.534	10110.65
641.727	9946.81
641.92	10131.13
642.114	9961.15
642.307	9967.29
642.5	9770.69
642.694	9795.26
642.887	9909.95
643.08	9752.26
643.273	9555.65
643.467	9588.42
643.66	9516.74
643.853	9379.53
644.046	9305.8
644.239	9432.77
644.432	9326.28
644.626	9152.2
644.819	9162.44
645.012	9201.35
645.205	9090.76
645.398	8959.69
645.591	9025.23
645.784	8961.74
645.977	8793.81
646.17	8935.12
646.363	8804.05
646.556	8691.41
646.749	8818.38
646.942	8959.69
647.135	8648.4
647.328	8658.64
647.521	8533.72
647.714	8296.15
647.907	8414.93
648.099	8414.93
648.292	8548.05
648.485	8359.64
648.678	8220.38
648.871	8230.62
649.064	8220.38
649.256	8259.29
649.449	7872.22
649.642	8052.44
649.835	7898.84
650.027	7925.47
650.22	7964.38
650.413	7896.8
650.605	7849.69
650.798	7737.06
650.991	7714.53
651.183	7810.78
651.376	7579.36
651.568	7790.3
651.761	7657.18
651.954	7466.72
652.146	7481.06
652.339	7421.67
652.531	7261.93
652.724	7491.3
652.916	7210.73
653.109	7431.91
653.301	7290.6
653.494	7491.3
653.686	7057.13
653.879	7268.07
654.071	7110.38
654.263	7087.85
654.456	6782.7
654.648	7081.71
654.84	6911.72
655.033	6823.66
655.225	6844.14
655.417	6688.5
655.61	6878.96
655.802	7034.6
655.994	6713.07
656.186	6608.62
656.379	6780.65
656.571	6672.11
656.763	6655.73
656.955	6665.97
657.148	6547.19
657.34	6420.21
657.532	6469.36
657.724	6430.45
657.916	6385.4
658.108	6520.56
658.3	6340.34
658.492	6360.82
658.684	6276.85
658.876	6239.99
659.068	6246.13
659.26	5961.47
659.452	6237.94
659.644	6123.26
659.836	6082.3
660.028	6168.31
660.22	5889.79
660.412	6022.91
660.604	5951.23
660.796	5967.61
660.988	6053.62
661.18	5961.47
661.372	5840.64
661.563	5787.39
661.755	5682.94
661.947	5553.92
662.139	5820.16
662.331	5795.58
662.522	5719.81
662.714	5703.42
662.906	5648.13
663.097	5680.89
663.289	5641.98
663.481	5361.41
663.673	5476.1
663.864	5476.1
664.056	5445.38
664.247	5457.67
664.439	5502.72
664.631	5408.51
664.822	5482.24
665.014	5295.88
665.205	5328.64
665.397	5504.77
665.588	5105.42
665.78	5308.16
665.971	5236.49
666.163	5218.05
666.354	5191.43
666.546	5312.26
666.737	5062.41
666.929	4945.67
667.12	5121.8
667.311	5168.9
667.503	5000.97
667.694	5181.19
667.885	5072.65
668.077	5164.81
668.268	4992.78
668.459	5033.74
668.651	5019.4
668.842	4929.29
669.033	4826.89
669.224	4828.94
669.416	4851.47
669.607	5046.02
669.798	4863.76
669.989	4869.9
670.18	4849.42
670.371	4710.16
670.563	4849.42
670.754	4808.46
670.945	4695.82
671.136	4714.25
671.327	4822.8
671.518	4710.16
671.709	4894.47
671.9	4822.8
672.091	4699.92
672.282	4710.16
672.473	4687.63
672.664	4697.87
672.855	4587.28
673.046	4706.06
673.237	4650.77
673.428	4658.96
673.619	4685.58
673.809	4673.29
674	4675.34
674.191	4540.18
674.382	4753.16
674.573	4562.7
674.764	4425.49
674.954	4476.69
675.145	4603.66
675.336	4564.75
675.527	4566.8
675.717	4480.78
675.908	4527.89
676.099	4632.33
676.289	4618
676.48	4470.55
676.671	4409.11
676.861	4411.15
677.052	4534.03
677.243	4435.73
677.433	4441.87
677.624	4607.76
677.814	4583.18
678.005	4613.9
678.195	4398.87
678.386	4382.48
678.576	4376.34
678.767	4609.81
678.957	4568.85
679.148	4513.55
679.338	4607.76
679.529	4603.66
679.719	4419.35
679.909	4501.26
680.1	4534.03
680.29	4497.17
680.481	4491.02
680.671	4521.74
680.861	4509.46
681.052	4431.63
681.242	4323.09
681.432	4437.78
681.622	4439.83
681.813	4439.83
682.003	4368.15
682.193	4437.78
682.383	4415.25
682.573	4394.77
682.764	4466.45
682.954	4355.86
683.144	4353.81
683.334	4648.72
683.524	4433.68
683.714	4321.04
683.904	4355.86
684.094	4484.88
684.284	4382.48
684.474	4523.79
684.664	4429.59
684.854	4384.53
685.044	4325.14
685.234	4216.6
685.424	4423.44
685.614	4300.56
685.804	4372.24
685.994	4302.61
686.184	4409.11
686.374	4273.94
686.564	4208.41
686.753	4212.5
686.943	4212.5
687.133	4302.61
687.323	4222.74
687.513	4146.97
687.702	4232.98
687.892	4247.32
688.082	4144.92
688.272	4353.81
688.461	4013.85
688.651	4226.84
688.841	4106.01
689.03	4048.66
689.22	4040.47
689.41	4060.95
689.599	4187.93
689.789	4022.04
689.979	3993.37
690.168	3964.7
690.358	3833.63
690.547	3893.02
690.737	3929.88
690.926	3792.67
691.116	3809.05
691.305	3837.72
691.495	3720.99
691.684	3825.43
691.874	3831.58
692.063	3751.71
692.252	3841.82
692.442	3780.38
692.631	3753.76
692.82	3675.93
693.01	3645.21
693.199	3698.46
693.388	3602.21
693.578	3716.89
693.767	3684.13
693.956	3673.89
694.146	3600.16
694.335	3524.38
694.524	3479.33
694.713	3620.64
694.902	3585.82
695.092	3589.92
695.281	3448.61
695.47	3608.35
695.659	3462.94
695.848	3391.27
696.037	3438.37
696.226	3557.15
696.415	3481.38
696.604	3477.28
696.793	3536.67
696.982	3499.81
697.171	3569.44
697.36	3671.84
697.549	3479.33
697.738	3417.89
697.927	3536.67
698.116	3458.85
698.305	3464.99
698.494	3434.27
698.683	3421.99
698.872	3407.65
699.061	3399.46
699.25	3352.35
699.438	3335.97
699.627	3399.46
699.816	3413.79
700.005	3436.32
700.193	3389.22
700.382	3499.81
700.571	3417.89
700.76	3409.7
700.948	3354.4
701.137	3385.12
701.326	3452.7
701.514	3495.71
701.703	3432.22
701.892	3426.08
702.08	3475.23
702.269	3432.22
702.457	3401.51
702.646	3280.68
702.834	3489.57
703.023	3594.01
703.212	3508
703.4	3452.7
703.589	3292.96
703.777	3508
703.965	3424.03
704.154	3360.55
704.342	3372.83
704.531	3344.16
704.719	3413.79
704.907	3479.33
705.096	3346.21
705.284	3426.08
705.472	3391.27
705.661	3436.32
705.849	3479.33
706.037	3442.46
706.226	3544.86
706.414	3467.04
706.602	3372.83
706.79	3530.53
706.979	3368.74
707.167	3319.59
707.355	3409.7
707.543	3440.42
707.731	3596.06
707.919	3473.18
708.107	3393.31
708.296	3430.18
708.484	3383.07
708.672	3522.34
708.86	3464.99
709.048	3495.71
709.236	3456.8
709.424	3518.24
709.612	3440.42
709.8	3477.28
709.988	3456.8
710.176	3499.81
710.364	3585.82
710.551	3446.56
710.739	3477.28
710.927	3342.11
711.115	3454.75
711.303	3440.42
711.491	3456.8
711.679	3530.53
711.866	3508
712.054	3505.95
712.242	3536.67
712.43	3708.7
712.617	3489.57
712.805	3415.84
712.993	3473.18
713.181	3454.75
713.368	3485.47
713.556	3571.49
713.744	3491.62
713.931	3669.79
714.119	3532.58
714.306	3587.87
714.494	3403.55
714.682	3477.28
714.869	3501.86
715.057	3665.69
715.244	3475.23
715.432	3606.3
715.619	3528.48
715.807	3575.58
715.994	3473.18
716.182	3559.2
716.369	3567.39
716.556	3485.47
716.744	3546.91
716.931	3493.66
717.119	3628.83
717.306	3536.67
717.493	3567.39
717.681	3692.32
717.868	3680.03
718.055	3565.34
718.242	3665.69
718.43	3616.54
718.617	3540.77
718.804	3655.45
718.991	3702.56
719.179	3725.08
719.366	3753.76
719.553	3673.89
719.74	3735.32
719.927	3657.5
720.114	3686.17
720.301	3684.13
720.488	3614.49
720.676	3729.18
720.863	3749.66
721.05	3845.91
721.237	3782.43
721.424	3804.96
721.611	3665.69
721.798	3665.69
721.985	3716.89
722.172	3671.84
722.358	3788.57
722.545	3720.99
722.732	3784.48
722.919	3880.73
723.106	3876.63
723.293	3854.11
723.48	3813.15
723.667	3657.5
723.853	3596.06
724.04	3802.91
724.227	3833.63
724.414	3782.43
724.6	3774.24
724.787	3915.55
724.974	3917.59
725.161	3880.73
725.347	3813.15
725.534	3753.76
725.72	3972.89
725.907	3909.4
726.094	3757.85
726.28	3774.24
726.467	3845.91
726.653	3845.91
726.84	3856.15
727.027	3946.27
727.213	3710.75
727.4	3915.55
727.586	3823.39
727.773	3854.11
727.959	3827.48
728.145	3940.12
728.332	3839.77
728.518	3776.28
728.705	3993.37
728.891	3905.31
729.077	3929.88
729.264	3751.71
729.45	3845.91
729.636	4052.76
729.823	3938.07
730.009	4003.61
730.195	4044.57
730.382	4024.09
730.568	3888.92
730.754	3850.01
730.94	3913.5
731.126	4028.18
731.313	3999.51
731.499	3868.44
731.685	3809.05
731.871	3888.92
732.057	3995.42
732.243	4058.9
732.429	4063
732.615	4091.67
732.801	3964.7
732.987	4112.15
733.173	4024.09
733.359	4091.67
733.545	4005.66
733.731	3985.18
733.917	4124.44
734.103	4071.19
734.289	3989.27
734.475	3972.89
734.661	4196.12
734.847	4005.66
735.033	3991.32
735.219	4118.29
735.404	3940.12
735.59	4036.38
735.776	3968.79
735.962	4151.06
736.148	4028.18
736.333	3991.32
736.519	3950.36
736.705	4054.81
736.89	4126.49
737.076	3940.12
737.262	4005.66
737.447	4022.04
737.633	4091.67
737.819	4101.91
738.004	4032.28
738.19	4060.95
738.375	3987.22
738.561	3960.6
738.747	3905.31
738.932	3966.74
739.118	4007.7
739.303	3981.08
739.489	3839.77
739.674	3954.46
739.859	3890.97
740.045	3948.31
740.23	3917.59
740.416	3792.67
740.601	4001.56
740.786	3872.54
740.972	3888.92
741.157	3948.31
741.342	3915.55
741.528	3976.98
741.713	3950.36
741.898	3768.09
742.084	3729.18
742.269	3747.61
742.454	3901.21
742.639	3968.79
742.824	3886.87
743.01	3821.34
743.195	3890.97
743.38	3796.76
743.565	3809.05
743.75	3804.96
743.935	3651.36
744.12	3895.07
744.305	3712.8
744.49	3800.86
744.675	3645.21
744.86	3585.82
745.045	3632.93
745.23	3671.84
745.415	3659.55
745.6	3557.15
745.785	3704.6
745.97	3680.03
746.155	3544.86
746.34	3663.65
746.525	3421.99
746.71	3651.36
746.895	3489.57
747.079	3499.81
747.264	3405.6
747.449	3510.05
747.634	3454.75
747.819	3366.69
748.003	3424.03
748.188	3395.36
748.373	3370.79
748.557	3274.53
748.742	3342.11
748.927	3262.24
749.111	3172.13
749.296	3157.8
749.481	3333.92
749.665	3331.87
749.85	3096.36
750.034	3286.82
750.219	3178.28
750.404	3174.18
750.588	3082.02
750.773	3188.52
750.957	3200.8
751.141	3174.18
751.326	3055.4
751.51	3002.15
751.695	2977.58
751.879	2955.05
752.064	3102.5
752.248	2957.1
752.432	3075.88
752.617	3008.3
752.801	2944.81
752.985	2905.9
753.17	2860.84
753.354	3006.25
753.538	2826.03
753.722	2762.54
753.907	2705.2
754.091	2715.44
754.275	2709.29
754.459	2740.01
754.643	2705.2
754.828	2789.16
755.012	2725.68
755.196	2684.72
755.38	2651.95
755.564	2629.42
755.748	2727.72
755.932	2588.46
756.116	2711.34
756.3	2635.57
756.484	2654
756.668	2543.41
756.852	2512.69
757.036	2553.65
757.22	2416.43
757.404	2387.76
757.588	2322.23
757.772	2430.77
757.956	2473.78
758.14	2369.33
758.323	2322.23
758.507	2387.76
758.691	2373.43
758.875	2436.91
759.059	2336.56
759.242	2240.31
759.426	2273.07
759.61	2193.2
759.794	2205.49
759.977	2197.3
760.161	2299.7
760.345	2252.59
760.528	2142
760.712	2127.67
760.895	2172.72
761.079	2166.58
761.263	2123.57
761.446	2074.42
761.63	2137.91
761.813	2125.62
761.997	2187.06
762.18	2096.95
762.364	2152.24
762.547	2121.52
762.731	2109.24
762.914	2070.33
763.098	1957.69
763.281	1906.49
763.464	1963.83
763.648	2002.74
763.831	1961.78
764.015	1961.78
764.198	1937.21
764.381	2017.08
764.564	2043.7
764.748	1943.35
764.931	1963.83
765.114	1965.88
765.297	1892.15
765.481	1894.2
765.664	1859.38
765.847	1859.38
766.03	1959.74
766.213	1836.86
766.397	1838.91
766.58	1818.43
766.763	1857.34
766.946	1761.08
767.129	1797.95
767.312	1761.08
767.495	1775.42
767.678	1822.52
767.861	1808.19
768.044	1744.7
768.227	1881.91
768.41	1838.91
768.593	1685.31
768.776	1759.03
768.959	1883.96
769.142	1834.81
769.324	1732.41
769.507	1777.47
769.69	1711.93
769.873	1703.74
770.056	1759.03
770.239	1709.88
770.421	1685.31
770.604	1623.87
770.787	1580.86
770.97	1564.48
771.152	1619.77
771.335	1625.92
771.518	1615.68
771.7	1664.83
771.883	1625.92
772.066	1578.81
772.248	1527.61
772.431	1591.1
772.613	1556.29
772.796	1564.48
772.978	1498.94
773.161	1509.18
773.343	1482.56
773.526	1517.37
773.708	1480.51
773.891	1417.02
774.073	1474.37
774.256	1394.5
774.438	1535.81
774.621	1453.89
774.803	1488.7
774.985	1408.83
775.168	1523.52
775.35	1384.26
775.532	1462.08
775.715	1406.78
775.897	1470.27
776.079	1279.81
776.261	1337.15
776.444	1345.34
776.626	1365.82
776.808	1369.92
776.99	1302.34
777.173	1304.39
777.355	1283.91
777.537	1285.95
777.719	1189.7
777.901	1103.68
778.083	1242.95
778.265	1136.45
778.447	1218.37
778.629	1156.93
778.811	1197.89
778.993	1171.27
779.175	1175.36
779.357	1081.16
779.539	1173.32
779.721	1189.7
779.903	1165.12
780.085	1101.64
780.267	1171.27
780.449	1101.64
780.631	1103.68
780.812	1062.73
780.994	1120.07
781.176	1062.73
781.358	1009.48
781.54	986.95
781.721	1040.2
781.903	1097.54
782.085	1003.33
782.267	993.09
782.448	925.51
782.63	894.79
782.812	1058.63
782.993	1048.39
783.175	1025.86
783.357	970.57
783.538	929.61
783.72	995.14
783.901	902.98
784.083	872.26
784.264	948.04
784.446	962.37
784.627	945.99
784.809	884.55
784.99	882.5
785.172	927.56
785.353	874.31
785.535	925.51
785.716	911.18
785.897	898.89
786.079	800.59
786.26	765.77
786.441	857.93
786.623	739.15
786.804	759.63
786.985	794.44
787.167	898.89
787.348	745.29
787.529	751.43
787.71	831.3
787.891	743.24
788.073	735.05
788.254	683.85
788.435	773.96
788.616	808.78
788.797	651.08
788.978	718.67
789.159	640.84
789.34	739.15
789.522	749.39
789.703	696.14
789.884	665.42
790.065	601.93
790.246	737.1
790.427	761.67
790.607	700.23
790.788	689.99
790.969	587.6
791.15	755.53
791.331	651.08
791.512	761.67
791.693	663.37
791.874	620.36
792.054	679.75
792.235	733
792.416	571.21
792.597	565.07
792.778	579.4
792.958	657.23
793.139	608.08
793.32	511.82
793.5	599.88
793.681	653.13
793.862	616.27
794.042	583.5
794.223	505.68
794.404	563.02
794.584	520.01
794.765	579.4
794.945	556.88
795.126	636.75
795.306	595.79
795.487	558.92
795.667	563.02
795.848	567.12
796.028	550.73
796.209	526.16
796.389	524.11
796.57	526.16
796.75	509.77
796.93	540.49
797.111	532.3
797.291	448.33
797.471	483.15
797.652	458.57
797.832	462.67
798.012	505.68
798.192	446.29
798.373	390.99
798.553	501.58
798.733	466.77
798.913	485.2
799.093	517.97
799.274	474.96
799.454	431.95
799.634	499.53
799.814	472.91
799.994	503.63
800.174	427.85
800.354	456.53
800.534	489.29
800.714	464.72
800.894	390.99
801.074	407.38
801.254	477.01
801.434	491.34
801.614	483.15
801.794	483.15
801.974	1152.84
802.154	405.33
802.334	421.71
802.514	368.46
802.693	436.05
802.873	446.29
803.053	456.53
803.233	401.23
803.413	405.33
803.592	372.56
803.772	407.38
803.952	419.66
804.131	429.9
804.311	405.33
804.491	419.66
804.67	307.02
804.85	388.94
805.03	413.52
805.209	378.7
805.389	329.55
805.568	384.85
805.748	333.65
805.928	339.79
806.107	360.27
806.287	395.09
806.466	325.46
806.646	307.02
806.825	286.54
807.004	358.22
807.184	456.53
807.363	446.29
807.543	327.5
807.722	333.65
807.901	368.46
808.081	356.18
808.26	278.35
808.439	352.08
808.619	323.41
808.798	337.74
808.977	321.36
809.156	384.85
809.336	343.89
809.515	317.26
809.694	434
809.873	292.69
810.052	345.94
810.231	407.38
810.411	276.31
810.59	335.7
810.769	276.31
810.948	270.16
811.127	243.54
811.306	251.73
811.485	290.64
811.664	368.46
811.843	255.83
812.022	247.63
812.201	307.02
812.38	352.08
812.559	354.13
812.737	296.78
812.916	245.59
813.095	165.71
813.274	233.3
813.453	270.16
813.632	329.55
813.811	341.84
813.989	223.06
814.168	286.54
814.347	206.67
814.526	276.31
814.704	343.89
814.883	339.79
815.062	290.64
815.24	251.73
815.419	210.77
815.598	212.82
815.776	163.67
815.955	251.73
816.133	298.83
816.312	319.31
816.49	204.63
816.669	272.21
816.847	268.11
817.026	319.31
817.204	165.71
817.383	229.2
817.561	204.63
817.74	261.97
817.918	206.67
818.097	249.68
818.275	198.48
818.453	241.49
818.632	165.71
818.81	212.82
818.988	151.38
819.167	282.45
819.345	184.15
819.523	196.43
819.701	225.11
819.879	255.83
820.058	233.3
820.236	339.79
820.414	206.67
820.592	175.95
820.77	221.01
820.948	147.28
821.127	210.77
821.305	196.43
821.483	188.24
821.661	227.15
821.839	149.33
822.017	163.67
822.195	192.34
822.373	206.67
822.551	147.28
822.729	194.39
822.907	173.91
823.085	204.63
823.262	132.95
823.44	175.95
823.618	186.19
823.796	239.44
823.974	194.39
824.152	192.34
824.329	184.15
824.507	188.24
824.685	243.54
824.863	190.29
825.04	210.77
825.218	132.95
825.396	141.14
825.574	159.57
825.751	141.14
825.929	106.32
826.107	81.75
826.284	237.39
826.462	175.95
826.639	112.47
826.817	130.9
826.994	106.32
827.172	114.52
827.349	259.92
827.527	229.2
827.704	155.47
827.882	202.58
828.059	114.52
828.237	116.56
828.414	212.82
828.591	96.08
828.769	184.15
828.946	157.52
829.124	145.24
829.301	167.76
829.478	182.1
829.655	235.35
829.833	139.09
830.01	178
830.187	135
830.364	165.71
830.542	118.61
830.719	233.3
830.896	216.91
831.073	153.43
831.25	204.63
831.427	190.29
831.604	102.23
831.782	155.47
831.959	165.71
832.136	141.14
832.313	155.47
832.49	153.43
832.667	128.85
832.844	28.5
833.021	141.14
833.198	143.19
833.374	204.63
833.551	91.99
833.728	124.76
833.905	106.32
834.082	126.8
834.259	151.38
834.436	104.28
834.612	169.81
834.789	169.81
834.966	89.94
835.143	182.1
835.319	42.84
835.496	186.19
835.673	98.13
835.85	147.28
836.026	155.47
836.203	110.42
836.38	89.94
836.556	153.43
836.733	106.32
836.909	313.17
837.086	94.04
837.262	145.24
837.439	57.17
837.616	126.8
837.792	198.48
837.968	100.18
838.145	67.41
838.321	112.47
838.498	141.14
838.674	122.71
838.851	91.99
839.027	96.08
839.203	124.76
839.38	63.32
839.556	116.56
839.732	87.89
839.909	110.42
840.085	89.94
840.261	184.15
840.437	106.32
840.614	51.03
840.79	112.47
840.966	71.51
841.142	89.94
841.318	139.09
841.494	98.13
841.671	130.9
841.847	83.8
842.023	26.45
842.199	26.45
842.375	81.75
842.551	16.21
842.727	75.6
842.903	87.89
843.079	8.02
843.255	79.7
843.431	89.94
843.607	180.05
843.783	34.64
843.959	100.18
844.134	18.26
844.31	73.56
844.486	18.26
844.662	67.41
844.838	40.79
845.013	163.67
845.189	102.23
845.365	51.03
845.541	120.66
845.716	96.08
845.892	77.65
846.068	18.26
846.244	22.36
846.419	98.13
846.595	22.36
846.77	32.6
846.946	208.72
847.122	98.13
847.297	85.84
847.473	20.31
847.648	12.12
847.824	34.64
847.999	18.26
848.175	130.9
848.35	81.75
848.526	130.9
848.701	81.75
848.876	12.12
849.052	104.28
849.227	96.08
849.403	14.17
849.578	46.93
849.753	-55.47
849.929	79.7
850.104	32.6
850.279	96.08
850.454	106.32
850.63	36.69
850.805	116.56
850.98	-0.17
851.155	48.98
851.33	106.32
851.505	-8.36
851.681	55.12
851.856	48.98
852.031	106.32
852.206	26.45
852.381	61.27
852.556	-12.46
852.731	96.08
852.906	73.56
853.081	46.93
853.256	112.47
853.431	114.52
853.606	-69.8
853.781	-6.31
853.956	-10.41
854.131	106.32
854.305	14.17
854.48	12.12
854.655	-55.47
854.83	65.36
855.005	51.03
855.18	98.13
855.354	40.79
855.529	8.02
855.704	51.03
855.879	81.75
856.053	20.31
856.228	28.5
856.403	32.6
856.577	20.31
856.752	24.4
856.926	73.56
857.101	61.27
857.276	10.07
857.45	-30.89
857.625	-22.7
857.799	-53.42
857.974	38.74
858.148	-24.75
858.323	122.71
858.497	32.6
858.672	1.88
858.846	14.17
859.02	36.69
859.195	14.17
859.369	34.64
859.543	24.4
859.718	57.17
859.892	38.74
860.066	38.74
860.241	-0.17
860.415	30.55
860.589	10.07
860.763	-18.6
860.938	40.79
861.112	139.09
861.286	-2.22
861.46	69.46
861.634	32.6
861.808	34.64
861.982	8.02
862.157	16.21
862.331	22.36
862.505	24.4
862.679	-0.17
862.853	1.88
863.027	81.75
863.201	110.42
863.375	75.6
863.549	18.26
863.722	-37.03
863.896	75.6
864.07	106.32
864.244	53.08
864.418	91.99
864.592	44.88
864.766	48.98
864.939	42.84
865.113	20.31
865.287	83.8
865.461	-65.71
865.634	-12.46
865.808	83.8
865.982	-14.51
866.156	-12.46
866.329	-49.32
866.503	12.12
866.676	10.07
866.85	-14.51
867.024	-47.27
867.197	69.46
867.371	-34.99
867.544	5.97
867.718	63.32
867.891	75.6
868.065	-34.99
868.238	-14.51
868.412	1.88
868.585	83.8
868.759	-18.6
868.932	-39.08
869.105	-30.89
869.279	-0.17
869.452	-26.79
869.625	38.74
869.799	18.26
869.972	-28.84
870.145	16.21
870.319	57.17
870.492	-73.9
870.665	22.36
870.838	36.69
871.011	-20.65
871.185	-2.22
871.358	-37.03
871.531	34.64
871.704	53.08
871.877	83.8
872.05	36.69
872.223	-8.36
872.396	26.45
872.569	12.12
872.742	44.88
872.915	-10.41
873.088	8.02
873.261	-14.51
873.434	94.04
873.607	-10.41
873.78	16.21
873.953	-43.18
874.126	79.7
874.299	67.41
874.471	28.5
874.644	10.07
874.817	36.69
874.99	44.88
875.163	-118.95
875.335	108.37
875.508	3.93
875.681	53.08
875.853	10.07
876.026	12.12
876.199	42.84
876.371	51.03
876.544	75.6
876.717	42.84
876.889	-2.22
877.062	91.99
877.234	-18.6
877.407	-12.46
877.579	12.12
877.752	38.74
877.924	5.97
878.097	116.56
878.269	36.69
878.442	-26.79
878.614	34.64
878.786	-73.9
878.959	-0.17
879.131	53.08
879.303	18.26
879.476	94.04
879.648	28.5
879.82	61.27
879.993	-30.89
880.165	12.12
880.337	-10.41
880.509	79.7
880.681	-10.41
880.854	57.17
881.026	48.98
881.198	1.88
881.37	22.36
881.542	3.93
881.714	-45.23
881.886	-26.79
882.058	38.74
882.23	-47.27
882.402	-6.31
882.574	65.36
882.746	48.98
882.918	18.26
883.09	-16.55
883.262	-20.65
883.434	-20.65
883.606	-6.31
883.778	-18.6
883.95	77.65
884.122	-43.18
884.293	100.18
884.465	-12.46
884.637	89.94
884.809	-39.08
884.98	38.74
885.152	14.17
885.324	-10.41
885.496	73.56
885.667	-30.89
885.839	16.21
886.011	89.94
886.182	-8.36
886.354	-49.32
886.525	38.74
886.697	-0.17
886.869	14.17
887.04	-10.41
887.212	94.04
887.383	79.7
887.555	38.74
887.726	8.02
887.897	-37.03
888.069	63.32
888.24	22.36
888.412	40.79
888.583	-12.46
888.754	-14.51
888.926	-18.6
889.097	12.12
889.268	-34.99
889.44	-61.61
889.611	5.97
889.782	-6.31
889.953	-43.18
890.125	40.79
890.296	30.55
890.467	5.97
890.638	-28.84
890.809	22.36
890.98	-57.51
891.151	20.31
891.323	-75.95
891.494	-45.23
891.665	34.64
891.836	-63.66
892.007	55.12
892.178	5.97
892.349	20.31
892.52	-37.03
892.691	-30.89
892.862	44.88
893.032	-32.94
893.203	-8.36
893.374	26.45
893.545	22.36
893.716	-28.84
893.887	28.5
894.057	36.69
894.228	-20.65
894.399	-57.51
894.57	-8.36
894.74	42.84
894.911	8.02
895.082	-12.46
895.253	-14.51
895.423	-2.22
895.594	34.64
895.764	-30.89
895.935	-30.89
896.106	-96.43
896.276	-41.13
896.447	-32.94
896.617	53.08
896.788	-73.9
896.958	-63.66
897.129	-71.85
897.299	-12.46
897.47	104.28
897.64	38.74
897.81	8.02
897.981	-20.65
898.151	-26.79
898.322	-24.75
898.492	63.32
898.662	-0.17
898.832	24.4
899.003	-10.41
899.173	38.74
899.343	38.74
899.513	61.27
