Data from USB4F104151__89__12-24-51-511.txt Node

Date: Fri Mar 14 12:24:51 EDT 2025
User: louis
Spectrometer: USB4F10415
Trigger mode: 4
Integration Time (sec): 3.500000E-2
Scans to average: 1
Electric dark correction enabled: true
Nonlinearity correction enabled: false
Boxcar width: 0
XAxis mode: Wavelengths
Number of Pixels in Spectrum: 3648
>>>>>Begin Spectral Data<<<<<
178.204	-150.01
178.424	-150.01
178.644	-150.01
178.864	-174.59
179.084	-107.01
179.304	-86.53
179.524	-4.61
179.744	-10.75
179.964	52.74
180.184	42.5
180.404	26.11
180.624	-8.7
180.844	1.54
181.064	-0.51
181.283	-29.18
181.503	24.06
181.723	-6.66
181.943	-57.86
182.163	9.73
182.383	-20.99
182.602	26.11
182.822	93.69
183.042	58.88
183.262	-41.47
183.482	7.68
183.701	-2.56
183.921	38.4
184.141	-49.66
184.361	44.54
184.58	-16.9
184.8	67.07
185.02	-70.14
185.239	13.82
185.459	30.21
185.679	36.35
185.898	-92.67
186.118	13.82
186.338	-4.61
186.557	65.02
186.777	-0.51
186.997	26.11
187.216	7.68
187.436	48.64
187.655	9.73
187.875	42.5
188.095	87.55
188.314	11.78
188.534	58.88
188.753	-45.57
188.973	22.02
189.192	87.55
189.412	3.58
189.631	7.68
189.851	32.26
190.07	50.69
190.29	9.73
190.509	-59.9
190.729	15.87
190.948	1.54
191.168	130.56
191.387	-2.56
191.607	15.87
191.826	69.12
192.045	9.73
192.265	26.11
192.484	-8.7
192.704	48.64
192.923	-39.42
193.142	155.13
193.362	-25.09
193.581	67.07
193.8	7.68
194.02	40.45
194.239	42.5
194.458	3.58
194.678	3.58
194.897	-4.61
195.116	32.26
195.335	-35.33
195.555	40.45
195.774	-29.18
195.993	71.17
196.212	-6.66
196.432	24.06
196.651	30.21
196.87	-57.86
197.089	122.37
197.308	60.93
197.528	73.21
197.747	15.87
197.966	38.4
198.185	157.18
198.404	-18.94
198.623	36.35
198.842	7.68
199.062	-33.28
199.281	40.45
199.5	-14.85
199.719	26.11
199.938	-2.56
200.157	58.88
200.376	54.78
200.595	62.98
200.814	3.58
201.033	7.68
201.252	11.78
201.471	101.89
201.69	34.3
201.909	36.35
202.128	58.88
202.347	5.63
202.566	62.98
202.785	26.11
203.004	-8.7
203.223	108.03
203.442	38.4
203.661	13.82
203.879	67.07
204.098	81.41
204.317	-104.96
204.536	1.54
204.755	19.97
204.974	9.73
205.193	42.5
205.411	48.64
205.63	81.41
205.849	42.5
206.068	-29.18
206.287	60.93
206.505	1.54
206.724	42.5
206.943	-8.7
207.162	-4.61
207.381	-25.09
207.599	73.21
207.818	79.36
208.037	-12.8
208.255	11.78
208.474	15.87
208.693	73.21
208.911	69.12
209.13	15.87
209.349	50.69
209.567	22.02
209.786	40.45
210.005	28.16
210.223	40.45
210.442	7.68
210.661	-27.14
210.879	62.98
211.098	36.35
211.316	-6.66
211.535	50.69
211.753	28.16
211.972	60.93
212.191	13.82
212.409	28.16
212.628	22.02
212.846	-25.09
213.065	-10.75
213.283	87.55
213.502	7.68
213.72	5.63
213.938	19.97
214.157	-14.85
214.375	28.16
214.594	11.78
214.812	-29.18
215.031	-78.33
215.249	-4.61
215.467	-25.09
215.686	9.73
215.904	52.74
216.122	-20.99
216.341	105.98
216.559	24.06
216.778	69.12
216.996	36.35
217.214	81.41
217.432	42.5
217.651	-8.7
217.869	71.17
218.087	11.78
218.306	-23.04
218.524	-6.66
218.742	-57.86
218.96	7.68
219.179	-29.18
219.397	-8.7
219.615	58.88
219.833	112.13
220.051	-16.9
220.27	62.98
220.488	24.06
220.706	48.64
220.924	-8.7
221.142	9.73
221.36	65.02
221.578	-16.9
221.796	7.68
222.015	7.68
222.233	26.11
222.451	19.97
222.669	-4.61
222.887	-49.66
223.105	-45.57
223.323	34.3
223.541	-35.33
223.759	22.02
223.977	1.54
224.195	52.74
224.413	-2.56
224.631	-12.8
224.849	40.45
225.067	128.51
225.285	17.92
225.503	15.87
225.721	-80.38
225.939	42.5
226.157	13.82
226.375	77.31
226.592	54.78
226.81	22.02
227.028	11.78
227.246	79.36
227.464	-43.52
227.682	58.88
227.9	-29.18
228.117	24.06
228.335	-4.61
228.553	-33.28
228.771	77.31
228.989	69.12
229.206	11.78
229.424	44.54
229.642	-4.61
229.86	-33.28
230.077	28.16
230.295	93.69
230.513	38.4
230.731	13.82
230.948	77.31
231.166	17.92
231.384	-6.66
231.601	40.45
231.819	50.69
232.037	-35.33
232.254	-29.18
232.472	-12.8
232.689	67.07
232.907	38.4
233.125	-51.71
233.342	-45.57
233.56	3.58
233.777	-10.75
233.995	-16.9
234.213	99.84
234.43	-18.94
234.648	24.06
234.865	-33.28
235.083	11.78
235.3	46.59
235.518	40.45
235.735	56.83
235.953	11.78
236.17	-12.8
236.388	-55.81
236.605	24.06
236.822	85.5
237.04	36.35
237.257	-47.62
237.475	36.35
237.692	38.4
237.909	36.35
238.127	-45.57
238.344	79.36
238.562	-51.71
238.779	28.16
238.996	-10.75
239.214	22.02
239.431	-29.18
239.648	-10.75
239.865	9.73
240.083	7.68
240.3	36.35
240.517	24.06
240.735	75.26
240.952	56.83
241.169	-37.38
241.386	65.02
241.603	60.93
241.821	-20.99
242.038	24.06
242.255	-2.56
242.472	19.97
242.689	15.87
242.907	48.64
243.124	48.64
243.341	-14.85
243.558	-37.38
243.775	-47.62
243.992	-37.38
244.209	38.4
244.426	124.41
244.643	-14.85
244.86	24.06
245.078	5.63
245.295	44.54
245.512	87.55
245.729	-16.9
245.946	62.98
246.163	-4.61
246.38	-33.28
246.597	-16.9
246.814	30.21
247.031	-12.8
247.248	13.82
247.464	3.58
247.681	-31.23
247.898	60.93
248.115	36.35
248.332	19.97
248.549	67.07
248.766	77.31
248.983	81.41
249.2	52.74
249.417	36.35
249.633	42.5
249.85	-20.99
250.067	5.63
250.284	22.02
250.501	-51.71
250.717	7.68
250.934	-35.33
251.151	38.4
251.368	-10.75
251.585	-57.86
251.801	30.21
252.018	-8.7
252.235	75.26
252.451	-59.9
252.668	7.68
252.885	36.35
253.102	91.65
253.318	40.45
253.535	-37.38
253.752	75.26
253.968	-29.18
254.185	-35.33
254.401	65.02
254.618	91.65
254.835	-55.81
255.051	91.65
255.268	38.4
255.484	44.54
255.701	13.82
255.917	30.21
256.134	-2.56
256.351	15.87
256.567	-51.71
256.784	9.73
257	-68.09
257.217	112.13
257.433	38.4
257.65	-57.86
257.866	50.69
258.082	-78.33
258.299	44.54
258.515	32.26
258.732	-76.29
258.948	-66.05
259.165	46.59
259.381	62.98
259.597	3.58
259.814	1.54
260.03	40.45
260.246	36.35
260.463	-43.52
260.679	48.64
260.895	50.69
261.112	26.11
261.328	22.02
261.544	-18.94
261.761	91.65
261.977	17.92
262.193	-33.28
262.409	36.35
262.626	9.73
262.842	36.35
263.058	3.58
263.274	48.64
263.49	36.35
263.707	48.64
263.923	7.68
264.139	38.4
264.355	-12.8
264.571	105.98
264.787	89.6
265.004	83.45
265.22	50.69
265.436	40.45
265.652	-64
265.868	44.54
266.084	-6.66
266.3	17.92
266.516	-61.95
266.732	26.11
266.948	-107.01
267.164	-29.18
267.38	30.21
267.596	-12.8
267.812	38.4
268.028	-72.19
268.244	1.54
268.46	9.73
268.676	50.69
268.892	7.68
269.108	-2.56
269.324	-29.18
269.54	-33.28
269.756	34.3
269.972	11.78
270.188	52.74
270.403	-72.19
270.619	-18.94
270.835	-6.66
271.051	36.35
271.267	42.5
271.483	-2.56
271.698	62.98
271.914	-16.9
272.13	-47.62
272.346	24.06
272.562	26.11
272.777	48.64
272.993	-53.76
273.209	-6.66
273.425	-2.56
273.64	30.21
273.856	60.93
274.072	13.82
274.287	13.82
274.503	58.88
274.719	-47.62
274.934	34.3
275.15	-29.18
275.366	56.83
275.581	24.06
275.797	1.54
276.012	-16.9
276.228	77.31
276.444	-51.71
276.659	73.21
276.875	9.73
277.09	26.11
277.306	40.45
277.521	40.45
277.737	19.97
277.952	46.59
278.168	1.54
278.383	28.16
278.599	85.5
278.814	9.73
279.03	-8.7
279.245	36.35
279.461	-14.85
279.676	50.69
279.892	-18.94
280.107	-35.33
280.322	-8.7
280.538	52.74
280.753	7.68
280.969	30.21
281.184	89.6
281.399	58.88
281.615	7.68
281.83	19.97
282.045	11.78
282.26	11.78
282.476	-25.09
282.691	62.98
282.906	5.63
283.122	5.63
283.337	-25.09
283.552	28.16
283.767	-20.99
283.983	108.03
284.198	65.02
284.413	38.4
284.628	-8.7
284.843	-31.23
285.058	40.45
285.274	-20.99
285.489	24.06
285.704	11.78
285.919	-6.66
286.134	-4.61
286.349	9.73
286.564	71.17
286.779	75.26
286.995	-0.51
287.21	9.73
287.425	60.93
287.64	85.5
287.855	73.21
288.07	-20.99
288.285	-18.94
288.5	-57.86
288.715	50.69
288.93	-2.56
289.145	-64
289.36	48.64
289.575	28.16
289.79	48.64
290.004	-53.76
290.219	26.11
290.434	-14.85
290.649	36.35
290.864	13.82
291.079	56.83
291.294	112.13
291.509	38.4
291.724	-0.51
291.938	5.63
292.153	13.82
292.368	3.58
292.583	28.16
292.798	7.68
293.012	15.87
293.227	17.92
293.442	-14.85
293.657	42.5
293.871	93.69
294.086	32.26
294.301	52.74
294.516	15.87
294.73	54.78
294.945	9.73
295.16	26.11
295.374	5.63
295.589	99.84
295.804	-4.61
296.018	34.3
296.233	81.41
296.447	13.82
296.662	-74.24
296.877	32.26
297.091	65.02
297.306	56.83
297.52	24.06
297.735	101.89
297.949	73.21
298.164	-41.47
298.378	7.68
298.593	-4.61
298.807	-37.38
299.022	65.02
299.236	30.21
299.451	-4.61
299.665	7.68
299.88	-8.7
300.094	13.82
300.309	32.26
300.523	-16.9
300.737	13.82
300.952	-2.56
301.166	60.93
301.381	-37.38
301.595	38.4
301.809	19.97
302.024	89.6
302.238	-10.75
302.452	46.59
302.667	-25.09
302.881	132.61
303.095	40.45
303.309	11.78
303.524	-39.42
303.738	89.6
303.952	54.78
304.166	-16.9
304.381	-16.9
304.595	54.78
304.809	32.26
305.023	-2.56
305.237	5.63
305.452	3.58
305.666	17.92
305.88	99.84
306.094	93.69
306.308	67.07
306.522	81.41
306.736	62.98
306.95	-27.14
307.164	24.06
307.379	-39.42
307.593	75.26
307.807	-4.61
308.021	44.54
308.235	50.69
308.449	-49.66
308.663	81.41
308.877	89.6
309.091	7.68
309.305	118.27
309.519	-47.62
309.733	22.02
309.947	11.78
310.161	42.5
310.374	13.82
310.588	71.17
310.802	30.21
311.016	-35.33
311.23	71.17
311.444	7.68
311.658	-14.85
311.872	69.12
312.085	26.11
312.299	85.5
312.513	54.78
312.727	71.17
312.941	15.87
313.154	60.93
313.368	15.87
313.582	1.54
313.796	-8.7
314.009	-18.94
314.223	134.65
314.437	-4.61
314.651	-27.14
314.864	-31.23
315.078	-47.62
315.292	13.82
315.505	9.73
315.719	50.69
315.933	5.63
316.146	-37.38
316.36	-57.86
316.573	95.74
316.787	19.97
317.001	9.73
317.214	-2.56
317.428	9.73
317.641	50.69
317.855	-51.71
318.068	-12.8
318.282	15.87
318.495	83.45
318.709	58.88
318.922	13.82
319.136	58.88
319.349	-6.66
319.563	11.78
319.776	73.21
319.99	-31.23
320.203	62.98
320.417	-6.66
320.63	50.69
320.843	114.17
321.057	15.87
321.27	-23.04
321.483	34.3
321.697	120.32
321.91	3.58
322.124	19.97
322.337	46.59
322.55	36.35
322.763	19.97
322.977	-10.75
323.19	32.26
323.403	34.3
323.617	28.16
323.83	54.78
324.043	-23.04
324.256	44.54
324.469	-25.09
324.683	87.55
324.896	46.59
325.109	-16.9
325.322	15.87
325.535	83.45
325.748	26.11
325.962	5.63
326.175	28.16
326.388	15.87
326.601	73.21
326.814	46.59
327.027	32.26
327.24	52.74
327.453	-6.66
327.666	15.87
327.879	26.11
328.092	112.13
328.305	17.92
328.518	62.98
328.731	48.64
328.944	95.74
329.157	26.11
329.37	40.45
329.583	9.73
329.796	-33.28
330.009	7.68
330.222	26.11
330.435	11.78
330.648	19.97
330.861	13.82
331.073	71.17
331.286	79.36
331.499	65.02
331.712	19.97
331.925	81.41
332.138	-27.14
332.35	3.58
332.563	-20.99
332.776	26.11
332.989	19.97
333.202	34.3
333.414	1.54
333.627	-10.75
333.84	19.97
334.053	-35.33
334.265	-25.09
334.478	60.93
334.691	19.97
334.903	-39.42
335.116	-20.99
335.329	36.35
335.541	-4.61
335.754	73.21
335.966	3.58
336.179	-14.85
336.392	-27.14
336.604	40.45
336.817	67.07
337.029	69.12
337.242	42.5
337.454	116.22
337.667	36.35
337.88	9.73
338.092	30.21
338.305	79.36
338.517	9.73
338.729	22.02
338.942	97.79
339.154	40.45
339.367	-64
339.579	-2.56
339.792	11.78
340.004	32.26
340.217	1.54
340.429	17.92
340.641	-88.57
340.854	-0.51
341.066	32.26
341.278	13.82
341.491	40.45
341.703	83.45
341.915	1.54
342.128	77.31
342.34	95.74
342.552	-2.56
342.764	-6.66
342.977	36.35
343.189	95.74
343.401	75.26
343.613	-33.28
343.826	17.92
344.038	-35.33
344.25	15.87
344.462	-35.33
344.674	38.4
344.886	-12.8
345.099	69.12
345.311	48.64
345.523	3.58
345.735	-31.23
345.947	32.26
346.159	-53.76
346.371	26.11
346.583	9.73
346.795	157.18
347.007	30.21
347.219	-8.7
347.431	-16.9
347.643	128.51
347.855	13.82
348.067	44.54
348.279	3.58
348.491	46.59
348.703	36.35
348.915	24.06
349.127	24.06
349.339	19.97
349.551	-0.51
349.763	114.17
349.975	69.12
350.187	32.26
350.399	-2.56
350.61	-4.61
350.822	-27.14
351.034	28.16
351.246	19.97
351.458	151.04
351.669	50.69
351.881	46.59
352.093	26.11
352.305	30.21
352.517	56.83
352.728	62.98
352.94	9.73
353.152	7.68
353.363	103.93
353.575	30.21
353.787	75.26
353.999	-4.61
354.21	71.17
354.422	22.02
354.633	11.78
354.845	-20.99
355.057	17.92
355.268	71.17
355.48	34.3
355.692	19.97
355.903	81.41
356.115	42.5
356.326	22.02
356.538	13.82
356.749	42.5
356.961	79.36
357.172	36.35
357.384	7.68
357.595	95.74
357.807	-39.42
358.018	36.35
358.23	11.78
358.441	132.61
358.653	118.27
358.864	-33.28
359.075	26.11
359.287	26.11
359.498	38.4
359.709	108.03
359.921	42.5
360.132	5.63
360.344	13.82
360.555	50.69
360.766	46.59
360.977	-16.9
361.189	67.07
361.4	44.54
361.611	89.6
361.823	99.84
362.034	130.56
362.245	-59.9
362.456	-10.75
362.667	95.74
362.879	-2.56
363.09	62.98
363.301	26.11
363.512	42.5
363.723	24.06
363.935	-43.52
364.146	62.98
364.357	17.92
364.568	138.75
364.779	-31.23
364.99	52.74
365.201	32.26
365.412	77.31
365.623	5.63
365.834	17.92
366.045	-0.51
366.256	44.54
366.467	75.26
366.678	13.82
366.889	40.45
367.1	26.11
367.311	-20.99
367.522	15.87
367.733	26.11
367.944	38.4
368.155	22.02
368.366	83.45
368.577	95.74
368.788	22.02
368.999	44.54
369.209	28.16
369.42	93.69
369.631	122.37
369.842	40.45
370.053	19.97
370.264	110.08
370.474	3.58
370.685	65.02
370.896	7.68
371.107	116.22
371.317	87.55
371.528	22.02
371.739	99.84
371.95	52.74
372.16	-6.66
372.371	44.54
372.582	46.59
372.792	87.55
373.003	48.64
373.214	34.3
373.424	120.32
373.635	22.02
373.846	46.59
374.056	13.82
374.267	38.4
374.477	73.21
374.688	7.68
374.898	15.87
375.109	17.92
375.319	5.63
375.53	11.78
375.74	34.3
375.951	34.3
376.161	44.54
376.372	1.54
376.582	19.97
376.793	67.07
377.003	-20.99
377.214	-29.18
377.424	54.78
377.635	-18.94
377.845	19.97
378.055	32.26
378.266	34.3
378.476	38.4
378.686	9.73
378.897	52.74
379.107	89.6
379.317	22.02
379.528	-16.9
379.738	34.3
379.948	-23.04
380.158	34.3
380.369	67.07
380.579	26.11
380.789	46.59
380.999	19.97
381.21	81.41
381.42	112.13
381.63	-80.38
381.84	48.64
382.05	11.78
382.261	19.97
382.471	28.16
382.681	34.3
382.891	67.07
383.101	13.82
383.311	-43.52
383.521	44.54
383.731	19.97
383.941	44.54
384.151	46.59
384.361	32.26
384.571	69.12
384.781	67.07
384.991	91.65
385.201	83.45
385.411	65.02
385.621	50.69
385.831	28.16
386.041	93.69
386.251	-18.94
386.461	110.08
386.671	87.55
386.881	73.21
387.091	-6.66
387.301	60.93
387.511	-55.81
387.72	-18.94
387.93	30.21
388.14	-31.23
388.35	110.08
388.56	34.3
388.769	24.06
388.979	132.61
389.189	-43.52
389.399	5.63
389.609	105.98
389.818	44.54
390.028	77.31
390.238	48.64
390.447	-6.66
390.657	83.45
390.867	13.82
391.076	108.03
391.286	48.64
391.496	22.02
391.705	56.83
391.915	134.65
392.125	26.11
392.334	-0.51
392.544	126.46
392.753	73.21
392.963	11.78
393.172	146.94
393.382	5.63
393.591	95.74
393.801	112.13
394.01	126.46
394.22	38.4
394.429	26.11
394.639	69.12
394.848	89.6
395.058	38.4
395.267	65.02
395.477	73.21
395.686	89.6
395.895	91.65
396.105	99.84
396.314	46.59
396.524	30.21
396.733	40.45
396.942	93.69
397.152	69.12
397.361	87.55
397.57	79.36
397.78	85.5
397.989	202.24
398.198	206.33
398.407	95.74
398.617	130.56
398.826	38.4
399.035	85.5
399.244	22.02
399.453	75.26
399.663	71.17
399.872	136.7
400.081	-6.66
400.29	153.09
400.499	89.6
400.708	97.79
400.917	67.07
401.127	38.4
401.336	65.02
401.545	120.32
401.754	62.98
401.963	116.22
402.172	-8.7
402.381	44.54
402.59	69.12
402.799	38.4
403.008	114.17
403.217	116.22
403.426	108.03
403.635	56.83
403.844	155.13
404.053	60.93
404.262	128.51
404.471	189.95
404.68	175.61
404.888	105.98
405.097	73.21
405.306	128.51
405.515	146.94
405.724	79.36
405.933	157.18
406.142	93.69
406.35	83.45
406.559	157.18
406.768	144.89
406.977	146.94
407.185	224.76
407.394	124.41
407.603	116.22
407.812	151.04
408.02	153.09
408.229	132.61
408.438	175.61
408.646	153.09
408.855	148.99
409.064	294.4
409.272	173.57
409.481	140.8
409.69	239.1
409.898	148.99
410.107	226.81
410.315	232.96
410.524	290.3
410.733	388.6
410.941	247.29
411.15	271.87
411.358	298.49
411.567	294.4
411.775	280.06
411.984	355.83
412.192	302.59
412.401	353.79
412.609	396.79
412.818	433.66
413.026	337.4
413.234	267.77
413.443	415.23
413.651	347.64
413.86	431.61
414.068	470.52
414.276	466.42
414.485	445.95
414.693	550.39
414.901	611.83
415.11	443.9
415.318	486.9
415.526	568.82
415.734	652.79
415.943	581.11
416.151	683.51
416.359	636.41
416.567	769.52
416.776	749.04
416.984	796.15
417.192	775.67
417.4	648.69
417.608	720.37
417.817	808.44
418.025	837.11
418.233	962.03
418.441	849.4
418.649	894.45
418.857	978.42
419.065	941.55
419.273	992.75
419.481	1054.19
419.689	1160.69
419.897	1170.93
420.105	1285.61
420.313	1281.52
420.521	1199.6
420.729	1330.67
420.937	1310.19
421.145	1347.05
421.353	1353.2
421.561	1568.23
421.769	1437.16
421.977	1611.24
422.185	1584.62
422.393	1674.73
422.601	1850.85
422.809	1785.32
423.017	1805.8
423.224	1846.76
423.432	1910.24
423.64	1971.68
423.848	2088.42
424.056	2020.83
424.263	2244.06
424.471	2147.81
424.679	2272.73
424.887	2438.62
425.094	2444.76
425.302	2395.61
425.51	2639.32
425.718	2567.64
425.925	2741.72
426.133	2749.91
426.341	2872.79
426.548	3026.39
426.756	3018.19
426.964	3122.64
427.171	3159.5
427.379	3491.27
427.586	3409.36
427.794	3483.08
428.001	3646.92
428.209	3818.95
428.417	3638.73
428.624	4122.05
428.832	4201.92
429.039	3808.71
429.247	3921.35
429.454	4396.48
429.662	4832.69
429.869	4478.4
430.076	4728.25
430.284	4615.61
430.491	4838.84
430.699	5064.11
430.906	5053.87
431.114	5195.18
431.321	5424.56
431.528	5494.19
431.736	5698.99
431.943	6038.95
432.15	5791.14
432.358	6053.28
432.565	6372.77
432.772	6137.25
432.979	6561.18
433.187	6509.98
433.394	6649.24
433.601	7163.28
433.808	7222.67
434.016	7275.92
434.223	7333.26
434.43	7826.82
434.637	7720.33
434.844	8105.35
435.052	8240.51
435.259	8287.62
435.466	8410.5
435.673	8236.42
435.88	8684.92
436.087	9307.51
436.294	9395.57
436.501	9182.58
436.708	9198.96
436.915	9663.85
437.122	10057.06
437.329	10034.53
437.537	10399.07
437.743	10399.07
437.95	10499.42
438.157	10923.35
438.364	11461.97
438.571	11251.03
438.778	11537.74
438.985	12528.96
439.192	11967.82
439.399	12414.27
439.606	11889.99
439.813	12879.16
440.02	13604.14
440.227	13258.04
440.433	13151.54
440.64	13436.21
440.847	13368.63
441.054	14038.31
441.261	14923.04
441.467	14650.66
441.674	15125.79
441.881	15211.8
442.088	15263
442.294	15164.7
442.501	15469.84
442.708	16110.86
442.914	16657.67
443.121	17198.33
443.328	16817.41
443.534	18271.47
443.741	17657.07
443.948	17671.41
444.154	18664.68
444.361	18353.38
444.568	18672.87
444.774	18576.61
444.981	18711.78
445.187	19350.74
445.394	20548.81
445.6	20331.72
445.807	21925.04
446.013	20954.3
446.22	21214.4
446.426	21908.66
446.633	22553.77
446.839	23272.6
447.046	22334.64
447.252	23520.41
447.459	23602.33
447.665	23456.92
447.871	24482.95
448.078	25410.68
448.284	24329.36
448.491	25130.11
448.697	25672.82
448.903	26272.88
449.11	26498.16
449.316	25855.09
449.522	26514.54
449.728	27341.92
449.935	27581.53
450.141	27501.66
450.347	28034.13
450.553	27395.17
450.76	27655.26
450.966	28378.19
451.172	28253.26
451.378	28808.26
451.584	28501.07
451.791	29477.95
451.997	29025.35
452.203	29244.48
452.409	29416.51
452.615	29389.89
452.821	28593.23
453.027	27915.35
453.233	29471.81
453.44	28345.42
453.646	28746.83
453.852	28695.63
454.058	29183.04
454.264	28165.2
454.47	29058.12
454.676	28093.52
454.882	29449.28
455.088	26924.13
455.294	27159.65
455.5	27536.48
455.705	27710.55
455.911	26678.38
456.117	26516.59
456.323	25887.86
456.529	24370.32
456.735	25484.41
456.941	24970.37
457.147	24339.6
457.352	23712.92
457.558	23225.5
457.764	23737.49
457.97	22918.31
458.176	22389.93
458.381	22684.84
458.587	21214.4
458.793	21218.49
458.999	20352.2
459.204	21662.9
459.41	21025.98
459.616	19340.5
459.821	19741.91
460.027	19643.6
460.233	19301.59
460.438	18435.3
460.644	18490.6
460.85	17607.92
461.055	17347.83
461.261	17483
461.466	16073.99
461.672	15656.21
461.878	16860.41
462.083	15703.31
462.289	15355.16
462.494	15226.14
462.7	14425.38
462.905	14003.5
463.111	14595.36
463.316	14611.75
463.522	14501.15
463.727	14445.86
463.932	14191.91
464.138	14234.92
464.343	14021.93
464.549	13735.21
464.754	14286.12
464.959	13989.16
465.165	14058.79
465.37	13481.27
465.575	13120.82
465.781	13546.8
465.986	13892.91
466.191	13155.64
466.397	12864.83
466.602	12272.96
466.807	12731.71
467.012	12852.54
467.218	12707.13
467.423	12739.9
467.628	12674.37
467.833	13198.65
468.038	12741.95
468.244	12148.04
468.449	12832.06
468.654	12438.85
468.859	12459.33
469.064	12172.61
469.269	11760.97
469.474	11855.18
469.679	12205.38
469.885	11666.77
470.09	11859.28
470.295	11791.69
470.5	11521.36
470.705	11517.26
470.91	11418.96
471.115	11388.24
471.32	11398.48
471.525	11328.85
471.73	11160.92
471.935	10962.26
472.139	10548.58
472.344	10622.3
472.549	10597.73
472.754	10630.49
472.959	10460.51
473.164	10167.65
473.369	10114.41
473.574	10409.31
473.778	10292.58
473.983	10100.07
474.188	10282.34
474.393	9702.76
474.598	9735.53
474.802	9538.93
475.007	9403.76
475.212	9659.76
475.417	9180.53
475.621	9258.35
475.826	9446.77
476.031	9295.22
476.235	8910.2
476.44	9164.15
476.645	8748.41
476.849	9035.13
477.054	8856.95
477.259	8801.66
477.463	8574.33
477.668	8496.51
477.872	8564.09
478.077	8361.34
478.282	8197.51
478.486	8078.72
478.691	8027.53
478.895	8025.48
479.1	8074.63
479.304	8107.4
479.509	7601.55
479.713	7933.32
479.918	7792.01
480.122	7595.4
480.326	7757.19
480.531	7761.29
480.735	7593.36
480.94	7615.88
481.144	7816.58
481.348	7470.48
481.553	7642.51
481.757	7312.78
481.961	7536.01
482.166	7648.65
482.37	7669.13
482.574	7421.33
482.778	7349.65
482.983	7548.3
483.187	7433.61
483.391	7439.76
483.595	7687.56
483.8	7349.65
484.004	7490.96
484.208	7638.41
484.412	7493.01
484.616	7376.27
484.821	7507.34
485.025	7445.9
485.229	7437.71
485.433	7380.37
485.637	7294.35
485.841	7310.74
486.045	7583.12
486.249	7316.88
486.453	7370.13
486.657	7511.44
486.861	7280.02
487.065	7198.1
487.269	7429.52
487.473	7179.67
487.677	7450
487.881	7556.49
488.085	7427.47
488.289	7605.64
488.493	7228.82
488.697	7583.12
488.901	7701.9
489.105	7312.78
489.309	7617.93
489.512	7611.79
489.716	7447.95
489.92	7611.79
490.124	7562.64
490.328	7634.32
490.531	7685.51
490.735	7644.56
490.939	7673.23
491.143	7540.11
491.346	7542.16
491.55	7644.56
491.754	7560.59
491.958	7742.86
492.161	7568.78
492.365	7966.09
492.569	7789.96
492.772	7808.39
492.976	7796.11
493.18	8107.4
493.383	8170.88
493.587	8015.24
493.79	8228.23
493.994	7921.03
494.197	8213.89
494.401	8328.58
494.605	8078.72
494.808	8480.13
495.012	8435.07
495.215	8596.86
495.419	8785.27
495.622	8430.98
495.825	8672.64
496.029	8572.29
496.232	8906.1
496.436	8678.78
496.639	9035.13
496.843	8990.07
497.046	9047.41
497.249	9166.2
497.453	9174.39
497.656	9465.2
497.859	9366.9
498.063	9311.6
498.266	9682.28
498.469	9457.01
498.673	9639.28
498.876	9917.8
499.079	10032.49
499.282	10061.16
499.485	10257.76
499.689	10327.39
499.892	10624.35
500.095	10509.66
500.298	10718.56
500.501	10634.59
500.705	11124.05
500.908	10970.46
501.111	11201.88
501.314	11130.2
501.517	11597.14
501.72	11625.81
501.923	11392.34
502.126	11650.38
502.329	11951.43
502.532	11928.91
502.735	12236.1
502.938	12377.41
503.141	12377.41
503.344	12588.35
503.547	12719.42
503.75	12819.77
503.953	13198.65
504.156	13501.75
504.359	13358.39
504.562	13243.7
504.765	13860.14
504.968	13931.82
505.17	14099.75
505.373	13780.27
505.576	14306.6
505.779	14316.84
505.982	14386.47
506.185	14859.55
506.387	14759.2
506.59	15119.64
506.793	15176.98
506.996	15234.33
507.198	15629.59
507.401	15615.25
507.604	15799.57
507.807	16297.22
508.009	16442.63
508.212	16477.44
508.415	16571.65
508.617	16819.46
508.82	16954.62
509.022	16930.05
509.225	17495.29
509.428	17405.17
509.63	17745.14
509.833	17687.79
510.035	18240.75
510.238	18160.87
510.44	18281.71
510.643	18382.06
510.845	18662.63
511.048	18652.39
511.25	19150.04
511.453	19141.85
511.655	19973.33
511.858	19739.86
512.06	20114.64
512.262	20085.97
512.465	19944.66
512.667	20499.66
512.87	20667.59
513.072	20874.43
513.274	20913.34
513.477	21435.58
513.679	21687.48
513.881	21820.6
514.084	22150.32
514.286	22039.73
514.488	22619.3
514.69	22955.17
514.893	22881.44
515.095	23227.55
515.297	23549.08
515.499	23436.44
515.701	24077.46
515.904	23938.19
516.106	24298.64
516.308	24718.47
516.51	24835.21
516.712	24695.94
516.914	25445.5
517.116	25615.48
517.318	25719.93
517.52	25842.81
517.722	26119.28
517.925	26195.06
518.127	26858.6
518.329	26850.41
518.531	27044.96
518.733	27786.33
518.935	27520.09
519.136	27815
519.338	28243.03
519.54	28404.81
519.742	28861.51
519.944	28910.66
520.146	29647.93
520.348	29369.41
520.55	29764.67
520.752	29942.84
520.954	30229.55
521.155	30321.71
521.357	30899.24
521.559	31132.71
521.761	31267.87
521.963	31400.99
522.164	31845.4
522.366	31960.09
522.568	32447.5
522.77	32306.2
522.971	33018.89
523.173	32320.53
523.375	33082.38
523.576	33043.46
523.778	33160.2
523.98	33608.7
524.181	33735.68
524.383	34057.21
524.584	34481.14
524.786	34540.53
524.988	34425.84
525.189	34886.64
525.391	35402.72
525.592	35107.82
525.794	35548.13
525.995	35392.48
526.197	35734.49
526.398	35754.97
526.6	36021.21
526.801	36162.52
527.003	36180.95
527.204	36860.88
527.406	36543.44
527.607	36580.31
527.808	36897.74
528.01	36848.59
528.211	37512.13
528.412	37684.16
528.614	38060.99
528.815	38013.88
529.016	38095.8
529.218	37950.4
529.419	38056.89
529.62	37989.31
529.822	38245.3
530.023	38394.81
530.224	38048.7
530.425	38378.42
530.626	38036.41
530.828	38079.42
531.029	38994.86
531.23	38378.42
531.431	38525.88
531.632	38933.42
531.833	38941.61
532.035	39087.02
532.236	39240.62
532.437	39529.38
532.638	38986.67
532.839	39486.37
533.04	39805.86
533.241	38806.45
533.442	39707.55
533.643	39302.06
533.844	39480.23
534.045	39556
534.246	39011.24
534.447	39443.37
534.648	39773.09
534.849	39758.75
535.05	39435.17
535.251	39404.45
535.451	39490.47
535.652	39478.18
535.853	39357.35
536.054	39986.08
536.255	39693.22
536.456	39158.7
536.657	39871.39
536.857	39281.58
537.058	39642.02
537.259	40049.56
537.46	40082.33
537.66	39629.73
537.861	39756.71
538.062	39846.82
538.263	40125.34
538.463	39513
538.664	39938.97
538.865	39834.53
539.065	40377.24
539.266	39637.92
539.466	40129.44
539.667	39418.79
539.868	40031.13
540.068	40145.82
540.269	39347.11
540.469	40373.14
540.67	39531.43
540.87	40160.16
541.071	40096.67
541.271	40027.04
541.472	39607.2
541.672	39300.01
541.873	39789.47
542.073	39156.65
542.274	40299.42
542.474	39576.48
542.675	39519.14
542.875	40068
543.075	39674.79
543.276	39756.71
543.476	39936.93
543.676	39670.69
543.877	39601.06
544.077	39709.6
544.277	39566.24
544.478	39666.59
544.678	39814.05
544.878	39863.2
545.078	39861.15
545.279	39498.66
545.479	39349.16
545.679	39533.48
545.879	39879.58
546.079	39818.14
546.28	39715.75
546.48	39936.93
546.68	39824.29
546.88	39740.32
547.08	39570.34
547.28	39652.26
547.48	39199.66
547.68	39795.62
547.88	39383.98
548.081	39730.08
548.281	39625.64
548.481	39150.51
548.681	40041.37
548.881	39226.28
549.081	39871.39
549.28	39537.57
549.48	39353.26
549.68	39056.3
549.88	39824.29
550.08	39625.64
550.28	39535.52
550.48	38892.46
550.68	39715.75
550.88	39160.75
551.08	39760.8
551.279	39289.77
551.479	38962.09
551.679	39584.68
551.879	39365.54
552.079	39465.89
552.278	39328.68
552.478	39273.38
552.678	39336.87
552.878	39605.16
553.077	39437.22
553.277	39240.62
553.477	39707.55
553.676	38988.72
553.876	39113.64
554.076	38804.4
554.275	38613.94
554.475	38679.47
554.674	39117.74
554.874	39150.51
555.074	38904.75
555.273	38900.65
555.473	39134.12
555.672	38546.36
555.872	38675.38
556.071	38583.22
556.271	39203.75
556.47	38503.35
556.67	38687.67
556.869	38247.35
557.068	38405.05
557.268	38030.27
557.467	38413.24
557.667	38548.4
557.866	38501.3
558.065	38190.01
558.265	38200.25
558.464	37983.16
558.663	38489.01
558.863	37835.71
559.062	38452.15
559.261	37872.57
559.461	38466.49
559.66	37549
559.859	37571.52
560.058	37499.84
560.258	37663.68
560.457	37729.22
560.656	37671.87
560.855	37495.75
561.054	37659.59
561.253	36881.36
561.453	37534.66
561.652	37307.33
561.851	37782.46
562.05	36596.69
562.249	36668.37
562.448	37159.88
562.647	37127.11
562.846	36467.67
563.045	36991.95
563.244	36486.1
563.443	36824.01
563.642	36201.43
563.841	36611.03
564.04	36252.63
564.239	36826.06
564.438	35818.46
564.637	36219.86
564.836	36215.77
565.035	35531.75
565.234	35845.09
565.432	35714.02
565.631	35662.82
565.83	35580.9
566.029	35705.82
566.228	35083.24
566.427	35279.85
566.625	35437.54
566.824	34784.24
567.023	34800.62
567.222	34644.98
567.42	34962.41
567.619	34589.68
567.818	34503.67
568.016	34485.23
568.215	34606.06
568.414	34518
568.612	34544.62
568.811	34198.52
569.01	34419.7
569.208	34016.25
569.407	33938.43
569.605	33496.06
569.804	34397.17
570.002	33399.81
570.201	33733.63
570.4	33211.4
570.598	33485.83
570.797	33104.9
570.995	33379.33
571.193	32752.65
571.392	33252.36
571.59	32467.98
571.789	32818.19
571.987	32697.36
572.186	32750.6
572.384	32293.91
572.582	32574.48
572.781	32117.78
572.979	31786.01
573.177	32228.37
573.376	32003.1
573.574	31900.7
573.772	31908.89
573.971	31695.9
574.169	31767.58
574.367	31417.38
574.565	31573.02
574.763	31083.56
574.962	30972.97
575.16	31163.43
575.358	31188
575.556	30845.99
575.754	31044.65
575.952	30635.05
576.151	30860.33
576.349	30252.08
576.547	30268.47
576.745	30391.34
576.943	30485.55
577.141	30100.53
577.339	30164.02
577.537	29989.94
577.735	29948.98
577.933	29711.42
578.131	29946.94
578.329	29484.09
578.527	29490.24
578.725	29518.91
578.923	29709.37
579.121	29383.74
579.319	29330.5
579.516	29295.68
579.714	28859.46
579.912	28931.14
580.11	28965.96
580.308	28824.65
580.506	29234.24
580.704	28425.29
580.901	28615.76
581.099	28701.77
581.297	28390.48
581.495	28529.74
581.692	28427.34
581.89	27958.36
582.088	28341.33
582.285	27935.83
582.483	28507.21
582.681	28447.82
582.878	27659.35
583.076	27638.87
583.274	27987.03
583.471	27229.28
583.669	27358.3
583.866	27616.35
584.064	27346.01
584.262	27077.73
584.459	27376.73
584.657	27296.86
584.854	27284.58
585.052	26602.6
585.249	26862.69
585.447	26760.3
585.644	26745.96
585.841	26471.53
586.039	26870.89
586.236	26438.76
586.434	26307.69
586.631	26360.94
586.828	26496.11
587.026	26281.07
587.223	26008.69
587.42	25885.81
587.618	25910.39
587.815	25760.89
588.012	25339.01
588.21	25289.85
588.407	25822.33
588.604	25558.14
588.801	25322.62
588.999	25715.83
589.196	25054.34
589.393	24892.55
589.59	25201.79
589.787	25400.44
589.984	25015.43
590.182	25152.64
590.379	24933.51
590.576	24544.39
590.773	24841.35
590.97	24429.71
591.167	24669.32
591.364	23962.77
591.561	24519.82
591.758	24513.67
591.955	24059.02
592.152	24562.83
592.349	24016.02
592.546	24063.12
592.743	24206.48
592.94	23508.12
593.137	23829.65
593.334	23946.39
593.531	23499.93
593.727	23587.99
593.924	23741.59
594.121	23485.59
594.318	23434.39
594.515	23276.7
594.712	23731.35
594.908	23096.48
595.105	23239.84
595.302	23008.42
595.499	23114.91
595.696	22805.67
595.892	22777
596.089	22787.24
596.286	22936.74
596.482	22586.54
596.679	22811.81
596.876	23022.75
597.072	22598.82
597.269	22334.64
597.466	22471.85
597.662	22209.71
597.859	22043.82
598.055	22348.97
598.252	21789.88
598.448	22035.63
598.645	22052.02
598.841	21628.09
599.038	21832.88
599.234	21841.07
599.431	21849.27
599.627	21515.45
599.824	21753.01
600.02	21380.28
600.217	21423.29
600.413	21392.57
600.609	21427.39
600.806	21269.69
601.002	21140.67
601.198	21085.37
601.395	20968.64
601.591	20829.38
601.787	20909.25
601.984	20696.26
602.18	21163.2
602.376	20808.9
602.572	20544.71
602.769	20661.44
602.965	20331.72
603.161	20606.15
603.357	20442.31
603.553	20298.95
603.75	20520.13
603.946	20362.44
604.142	20139.21
604.338	19897.55
604.534	20255.95
604.73	19735.76
604.926	19715.28
605.122	19965.14
605.318	19709.14
605.514	19264.73
605.71	19604.69
605.906	19412.18
606.102	19358.94
606.298	19584.21
606.494	19543.25
606.69	19412.18
606.886	19383.51
607.082	19104.99
607.278	19195.1
607.474	18996.45
607.67	19084.51
607.866	18676.96
608.062	19207.39
608.257	18703.59
608.453	18658.53
608.649	18939.1
608.845	18742.5
609.041	18760.93
609.236	18722.02
609.432	18377.96
609.628	18724.07
609.824	18531.56
610.019	18492.65
610.215	18484.45
610.411	18539.75
610.606	18205.93
610.802	18425.06
610.998	18418.92
611.193	18492.65
611.389	18205.93
611.584	18269.42
611.78	18072.81
611.976	17960.17
612.171	17943.79
612.367	18042.09
612.562	17919.21
612.758	17837.3
612.953	17648.88
613.149	17911.02
613.344	17753.33
613.539	17951.98
613.735	18027.76
613.93	17745.14
614.126	17661.17
614.321	17831.15
614.517	17900.78
614.712	17624.31
614.907	17540.34
615.103	17685.75
615.298	17734.9
615.493	17880.3
615.688	17220.86
615.884	17714.42
616.079	17294.58
616.274	17276.15
616.47	17143.03
616.665	17210.62
616.86	17190.14
617.055	17263.86
617.25	16987.39
617.445	17243.38
617.641	16776.45
617.836	16923.9
618.031	16702.72
618.226	17110.27
618.421	16389.38
618.616	16930.05
618.811	16563.46
619.006	16715.01
619.201	16510.21
619.396	16633.09
619.591	16336.13
619.786	16766.21
619.981	16227.59
620.176	16266.5
620.371	16049.42
620.566	16131.34
620.761	15885.58
620.956	16069.9
621.151	15850.77
621.346	16033.04
621.541	15781.14
621.735	15875.34
621.93	15430.93
622.125	15654.16
622.32	15285.53
622.515	15586.58
622.709	15086.87
622.904	15324.44
623.099	15260.95
623.294	15299.86
623.488	14978.33
623.683	15068.44
623.878	14583.07
624.072	14746.91
624.267	14761.25
624.462	14626.08
624.656	14513.44
624.851	14628.13
625.046	14357.8
625.24	14376.23
625.435	14363.94
625.629	14097.7
625.824	14167.34
626.018	14073.13
626.213	13761.84
626.407	13860.14
626.602	13874.48
626.796	13770.03
626.991	13624.62
627.185	13624.62
627.38	13395.25
627.574	13468.98
627.768	13530.42
627.963	13425.97
628.157	13223.22
628.352	13264.18
628.546	12971.32
628.74	12963.13
628.935	12975.42
629.129	13065.53
629.323	12850.49
629.517	12703.04
629.712	12662.08
629.906	12707.13
630.1	12451.14
630.294	12492.1
630.489	12516.67
630.683	12514.63
630.877	12182.85
631.071	12154.18
631.265	11892.04
631.459	12256.58
631.653	11871.56
631.848	11965.77
632.042	11638.09
632.236	11908.43
632.43	11763.02
632.624	11814.22
632.818	11625.81
633.012	11437.39
633.206	11437.39
633.4	11476.3
633.594	11445.59
633.788	11412.82
633.982	11158.87
634.176	11220.31
634.369	10974.55
634.563	11064.66
634.757	10937.69
634.951	10927.45
635.145	11009.37
635.339	10915.16
635.533	10728.8
635.726	10798.43
635.92	10665.31
636.114	10747.23
636.308	10646.88
636.501	10440.03
636.695	10687.84
636.889	10241.38
637.083	10337.63
637.276	10358.11
637.47	10106.21
637.664	10294.63
637.857	10112.36
638.051	9923.94
638.244	9903.46
638.438	9934.18
638.632	9799.02
638.825	9923.94
639.019	9801.07
639.212	9649.52
639.406	9694.57
639.599	9657.71
639.793	9725.29
639.986	9387.38
640.18	9524.59
640.373	9454.96
640.567	9362.8
640.76	9350.51
640.954	9356.66
641.147	9201.01
641.34	9028.98
641.534	9071.99
641.727	9155.96
641.92	9194.87
642.114	8975.74
642.307	8834.43
642.5	8738.17
642.694	8689.02
642.887	8760.7
643.08	8885.62
643.273	8551.81
643.467	8582.53
643.66	8682.88
643.853	8449.41
644.046	8383.87
644.239	8437.12
644.432	8367.49
644.626	8211.84
644.819	8242.56
645.012	8267.14
645.205	8424.83
645.398	8285.57
645.591	8117.64
645.784	8131.97
645.977	7994.76
646.17	8125.83
646.363	7884.17
646.556	7787.91
646.749	7898.5
646.942	7953.8
647.135	7900.55
647.328	7835.02
647.521	7697.8
647.714	7400.85
647.907	7570.83
648.099	7613.84
648.292	7703.95
648.485	7581.07
648.678	7509.39
648.871	7353.74
649.064	7386.51
649.256	7331.22
649.449	7431.57
649.642	7306.64
649.835	7118.23
650.027	7273.87
650.22	7267.73
650.413	7099.8
650.605	7202.19
650.798	6925.72
650.991	6999.45
651.183	6751.64
651.376	6823.32
651.568	6917.53
651.761	6765.98
651.954	6739.35
652.146	6817.18
652.339	6718.87
652.531	6778.26
652.724	6749.59
652.916	6712.73
653.109	6671.77
653.301	6583.71
653.494	6497.69
653.686	6575.52
653.879	6503.84
654.071	6423.97
654.263	6495.64
654.456	6491.55
654.648	6417.82
654.84	6391.2
655.033	6368.67
655.225	6409.63
655.417	6194.59
655.61	6270.37
655.802	6276.51
655.994	6096.29
656.186	6014.37
656.379	6053.28
656.571	6106.53
656.763	6024.61
656.955	6067.62
657.148	6026.66
657.34	5940.65
657.532	5797.29
657.724	5893.54
657.916	5965.22
658.108	5785
658.3	5680.55
658.492	5744.04
658.684	5512.62
658.876	5764.52
659.068	5680.55
659.26	5582.25
659.452	5637.55
659.644	5615.02
659.836	5451.18
660.028	5524.91
660.22	5268.91
660.412	5481.9
660.604	5645.74
660.796	5318.06
660.988	5305.78
661.18	5465.52
661.372	5215.66
661.563	5342.64
661.755	5418.41
661.947	5193.14
662.139	5103.03
662.331	5203.38
662.522	5127.6
662.714	5156.27
662.906	5043.64
663.097	4998.58
663.289	5006.77
663.481	4898.23
663.673	5131.7
663.864	4922.8
664.056	4912.57
664.247	4861.37
664.439	4881.85
664.631	4849.08
664.822	4941.24
665.014	4834.74
665.205	4810.17
665.397	4758.97
665.588	4974
665.78	4781.5
665.971	4840.89
666.163	4642.23
666.354	4715.96
666.546	4654.52
666.737	4621.75
666.929	4580.79
667.12	4683.19
667.311	4527.55
667.503	4490.68
667.694	4728.25
667.885	4564.41
668.077	4527.55
668.268	4564.41
668.459	4398.52
668.651	4439.48
668.842	4564.41
669.033	4490.68
669.224	4462.01
669.416	4482.49
669.607	4328.89
669.798	4447.68
669.989	4492.73
670.18	4437.44
670.371	4423.1
670.563	4222.4
670.754	4232.64
670.945	4382.14
671.136	4343.23
671.327	4277.69
671.518	4308.41
671.709	4273.6
671.9	4380.09
672.091	4292.03
672.282	4275.65
672.473	4294.08
672.664	4130.24
672.855	4292.03
673.046	4175.3
673.237	4289.98
673.428	4302.27
673.619	4208.06
673.809	4148.67
674	4312.51
674.191	4287.93
674.382	4107.71
674.573	4228.54
674.764	4146.62
674.954	4117.95
675.145	4128.19
675.336	4072.9
675.527	4128.19
675.717	4167.1
675.908	4208.06
676.099	4048.32
676.289	4091.33
676.48	3958.21
676.671	4124.1
676.861	4031.94
677.052	4152.77
677.243	4074.95
677.433	4054.47
677.624	4003.27
677.814	3984.84
678.005	4099.52
678.195	3982.79
678.386	3978.69
678.576	4025.79
678.767	4072.9
678.957	4029.89
679.148	3993.03
679.338	3921.35
679.529	3909.06
679.719	3904.96
679.909	3950.02
680.1	3990.98
680.29	3993.03
680.481	3788.23
680.671	3954.12
680.861	4044.23
681.052	3972.55
681.242	3974.6
681.432	4009.41
681.622	3943.88
681.813	3982.79
682.003	3929.54
682.193	4027.84
682.383	4033.99
682.573	3851.72
682.764	4056.51
682.954	4021.7
683.144	3868.1
683.334	3929.54
683.524	4070.85
683.714	4072.9
683.904	3886.53
684.094	4064.71
684.284	3884.48
684.474	3913.16
684.664	3849.67
684.854	3943.88
685.044	3896.77
685.234	3726.79
685.424	3941.83
685.614	3691.98
685.804	3837.38
685.994	3757.51
686.184	3876.29
686.374	3810.76
686.564	3911.11
686.753	3790.28
686.943	3753.41
687.133	3722.7
687.323	3698.12
687.513	3855.81
687.702	3741.13
687.892	3636.68
688.082	3681.74
688.272	3585.48
688.461	3777.99
688.651	3743.17
688.841	3716.55
689.03	3632.58
689.22	3581.39
689.41	3655.11
689.599	3513.8
689.789	3679.69
689.979	3552.71
690.168	3546.57
690.358	3429.84
690.547	3458.51
690.737	3491.27
690.926	3403.21
691.116	3419.6
691.305	3524.04
691.495	3403.21
691.684	3440.08
691.874	3478.99
692.063	3253.71
692.252	3380.68
692.442	3395.02
692.631	3384.78
692.82	3366.35
693.01	3206.61
693.199	3401.16
693.388	3266
693.578	3208.66
693.767	3231.18
693.956	3153.36
694.146	3136.98
694.335	3186.13
694.524	3132.88
694.713	3233.23
694.902	3171.79
695.092	3200.46
695.281	3161.55
695.47	3118.54
695.659	3036.63
695.848	3069.39
696.037	3071.44
696.226	3153.36
696.415	3130.83
696.604	3130.83
696.793	3145.17
696.982	3085.78
697.171	3100.11
697.36	3032.53
697.549	3050.96
697.738	3024.34
697.927	3093.97
698.116	3003.86
698.305	3079.63
698.494	3065.3
698.683	3014.1
698.872	3071.44
699.061	3114.45
699.25	3040.72
699.438	3096.02
699.627	3020.24
699.816	3044.82
700.005	3034.58
700.193	3044.82
700.382	2966.99
700.571	2932.18
700.76	2983.38
700.948	3110.35
701.137	3001.81
701.326	3079.63
701.514	3042.77
701.703	2938.32
701.892	2917.84
702.08	3073.49
702.269	2878.93
702.457	2993.62
702.646	2950.61
702.834	2917.84
703.023	3077.59
703.212	2903.51
703.4	2991.57
703.589	3003.86
703.777	2917.84
703.965	2989.52
704.154	3048.91
704.342	3032.53
704.531	3083.73
704.719	2848.21
704.907	3026.39
705.096	2883.03
705.284	2991.57
705.472	2997.71
705.661	3053.01
705.849	3075.54
706.037	3018.19
706.226	2942.42
706.414	2919.89
706.602	2928.08
706.79	3089.87
706.979	2977.23
707.167	3026.39
707.355	2829.78
707.543	3053.01
707.731	3075.54
707.919	2993.62
708.107	3065.3
708.296	3077.59
708.484	2926.04
708.672	2999.76
708.86	3042.77
709.048	3096.02
709.236	2985.43
709.424	3038.67
709.612	3167.7
709.8	3091.92
709.988	3048.91
710.176	3014.1
710.364	3007.95
710.551	2985.43
710.739	3038.67
710.927	2958.8
711.115	3102.16
711.303	3222.99
711.491	2971.09
711.679	3059.15
711.866	3134.93
712.054	3155.41
712.242	3089.87
712.43	3143.12
712.617	3083.73
712.805	3200.46
712.993	2973.14
713.181	3046.87
713.368	3139.02
713.556	3257.81
713.744	3048.91
713.931	3147.22
714.119	3136.98
714.306	3089.87
714.494	3087.82
714.682	3093.97
714.869	3073.49
715.057	3079.63
715.244	3016.15
715.432	3057.11
715.619	3110.35
715.807	3046.87
715.994	3179.98
716.182	3120.59
716.369	3087.82
716.556	3294.67
716.744	2997.71
716.931	3153.36
717.119	3249.61
717.306	3179.98
717.493	3214.8
717.681	3145.17
717.868	3153.36
718.055	3210.7
718.242	3317.2
718.43	3157.46
718.617	3358.16
718.804	3202.51
718.991	3157.46
719.179	3153.36
719.366	3231.18
719.553	3085.78
719.74	3300.81
719.927	3136.98
720.114	3239.37
720.301	3192.27
720.488	3091.92
720.676	3347.92
720.863	3343.82
721.05	3204.56
721.237	3284.43
721.424	3241.42
721.611	3253.71
721.798	3257.81
721.985	3149.26
722.172	3263.95
722.358	3198.42
722.545	3292.62
722.732	3196.37
722.919	3442.12
723.106	3360.2
723.293	3261.9
723.48	3220.94
723.667	3200.46
723.853	3270.09
724.04	3282.38
724.227	3296.72
724.414	3345.87
724.6	3239.37
724.787	3274.19
724.974	3311.05
725.161	3257.81
725.347	3286.48
725.534	3444.17
725.72	3333.58
725.907	3317.2
726.094	3278.29
726.28	3468.75
726.467	3290.57
726.653	3251.66
726.84	3378.64
727.027	3444.17
727.213	3331.53
727.4	3450.32
727.586	3429.84
727.773	3288.53
727.959	3425.74
728.145	3309.01
728.332	3415.5
728.518	3444.17
728.705	3589.58
728.891	3376.59
729.077	3405.26
729.264	3444.17
729.45	3435.98
729.636	3460.56
729.823	3444.17
730.009	3347.92
730.195	3474.89
730.382	3474.89
730.568	3429.84
730.754	3438.03
730.94	3409.36
731.126	3517.9
731.313	3519.95
731.499	3333.58
731.685	3515.85
731.871	3413.45
732.057	3435.98
732.243	3642.82
732.429	3429.84
732.615	3458.51
732.801	3458.51
732.987	3413.45
733.173	3444.17
733.359	3577.29
733.545	3421.64
733.731	3360.2
733.917	3481.03
734.103	3507.66
734.289	3562.95
734.475	3487.18
734.661	3528.14
734.847	3440.08
735.033	3630.54
735.219	3538.38
735.404	3440.08
735.59	3450.32
735.776	3542.47
735.962	3429.84
736.148	3380.68
736.333	3616.2
736.519	3413.45
736.705	3476.94
736.89	3472.84
737.076	3431.88
737.262	3337.68
737.447	3421.64
737.633	3431.88
737.819	3509.71
738.004	3550.67
738.19	3450.32
738.375	3534.28
738.561	3521.99
738.747	3417.55
738.932	3368.4
739.118	3509.71
739.303	3548.62
739.489	3337.68
739.674	3435.98
739.859	3468.75
740.045	3370.44
740.23	3292.62
740.416	3352.01
740.601	3362.25
740.786	3423.69
740.972	3425.74
741.157	3403.21
741.342	3315.15
741.528	3405.26
741.713	3388.88
741.898	3397.07
742.084	3325.39
742.269	3270.09
742.454	3345.87
742.639	3352.01
742.824	3311.05
743.01	3368.4
743.195	3339.73
743.38	3253.71
743.565	3349.96
743.75	3169.74
743.935	3106.26
744.12	3202.51
744.305	3065.3
744.49	3143.12
744.675	3108.3
744.86	3079.63
745.045	3161.55
745.23	3108.3
745.415	3225.04
745.6	3143.12
745.785	3118.54
745.97	3136.98
746.155	3268.05
746.34	3128.78
746.525	3042.77
746.71	3151.31
746.895	2883.03
747.079	3040.72
747.264	3055.06
747.449	3001.81
747.634	2942.42
747.819	2891.22
748.003	3016.15
748.188	2895.32
748.373	2903.51
748.557	2848.21
748.742	2876.88
748.927	2936.28
749.111	2811.35
749.296	2813.4
749.481	2768.34
749.665	2823.64
749.85	2688.47
750.034	2794.97
750.219	2700.76
750.404	2760.15
750.588	2745.81
750.773	2571.74
750.957	2686.42
751.141	2604.5
751.326	2534.87
751.51	2618.84
751.695	2618.84
751.879	2604.5
752.064	2565.59
752.248	2581.98
752.432	2573.78
752.617	2528.73
752.801	2696.66
752.985	2518.49
753.17	2346.46
753.354	2567.64
753.538	2430.43
753.722	2545.11
753.907	2420.19
754.091	2280.93
754.275	2448.86
754.459	2272.73
754.643	2319.84
754.828	2334.17
755.012	2319.84
755.196	2252.25
755.38	2301.4
755.564	2256.35
755.748	2244.06
755.932	2215.39
756.116	2223.58
756.3	2205.15
756.484	2139.62
756.668	2309.6
756.852	2002.4
757.036	2131.42
757.22	2127.33
757.404	2180.57
757.588	2192.86
757.772	2127.33
757.956	2029.03
758.14	2158.05
758.323	1943.01
758.507	2143.71
758.691	2065.89
758.875	2031.07
759.059	2006.5
759.242	1840.61
759.426	1922.53
759.61	2039.26
759.794	1924.58
759.977	1881.57
760.161	1916.39
760.345	2006.5
760.528	1969.63
760.712	1846.76
760.895	1734.12
761.079	1834.47
761.263	1838.56
761.446	1801.7
761.63	1908.19
761.813	1893.86
761.997	1713.64
762.18	1822.18
762.364	1832.42
762.547	1824.23
762.731	1756.65
762.914	1721.83
763.098	1748.45
763.281	1711.59
763.464	1701.35
763.648	1807.84
763.831	1693.16
764.015	1777.12
764.198	1723.88
764.381	1709.54
764.564	1646.05
764.748	1545.7
764.931	1680.87
765.114	1730.02
765.297	1637.86
765.481	1623.53
765.664	1682.92
765.847	1588.71
766.03	1578.47
766.213	1572.33
766.397	1605.1
766.58	1512.94
766.763	1670.63
766.946	1596.9
767.129	1476.07
767.312	1631.72
767.495	1574.38
767.678	1521.13
767.861	1553.9
768.044	1465.83
768.227	1564.14
768.41	1480.17
768.593	1590.76
768.776	1463.79
768.959	1557.99
769.142	1537.51
769.324	1428.97
769.507	1568.23
769.69	1512.94
769.873	1426.92
770.056	1447.4
770.239	1494.51
770.421	1457.64
770.604	1545.7
770.787	1275.37
770.97	1455.59
771.152	1426.92
771.335	1455.59
771.518	1406.44
771.7	1377.77
771.883	1404.39
772.066	1357.29
772.248	1345
772.431	1310.19
772.613	1338.86
772.796	1349.1
772.978	1322.48
773.161	1330.67
773.343	1291.76
773.526	1261.04
773.708	1224.17
773.891	1269.23
774.073	1224.17
774.256	1330.67
774.438	1312.24
774.621	1336.81
774.803	1334.76
774.985	1254.89
775.168	1185.26
775.35	1244.65
775.532	1140.21
775.715	1205.74
775.897	1287.66
776.079	1242.61
776.261	1201.65
776.444	1070.58
776.626	1099.25
776.808	1146.35
776.99	1117.68
777.173	1070.58
777.355	1039.86
777.537	1091.06
777.719	1162.73
777.901	1140.21
778.083	1015.28
778.265	1011.18
778.447	1046
778.629	1062.38
778.811	1084.91
778.993	1056.24
779.175	1095.15
779.357	1021.42
779.539	929.27
779.721	972.27
779.903	1050.1
780.085	914.93
780.267	970.23
780.449	949.75
780.631	943.6
780.812	972.27
780.994	845.3
781.176	865.78
781.358	888.31
781.54	994.8
781.721	898.55
781.903	865.78
782.085	919.03
782.267	865.78
782.448	900.59
782.63	884.21
782.812	765.43
782.993	781.81
783.175	851.44
783.357	769.52
783.538	777.72
783.72	804.34
783.901	785.91
784.083	785.91
784.264	783.86
784.446	710.13
784.627	816.63
784.809	714.23
784.99	763.38
785.172	734.71
785.353	763.38
785.535	830.96
785.716	777.72
785.897	673.27
786.079	767.48
786.26	753.14
786.441	726.52
786.623	689.65
786.804	640.5
786.985	742.9
787.167	722.42
787.348	646.65
787.529	624.12
787.71	742.9
787.891	620.02
788.073	652.79
788.254	521.72
788.435	749.04
788.616	646.65
788.797	624.12
788.978	599.54
789.159	613.88
789.34	652.79
789.522	595.45
789.703	636.41
789.884	577.02
790.065	601.59
790.246	640.5
790.427	507.38
790.607	486.9
790.788	560.63
790.969	577.02
791.15	660.98
791.331	585.21
791.512	591.35
791.693	550.39
791.874	521.72
792.054	570.87
792.235	564.73
792.416	503.29
792.597	452.09
792.778	450.04
792.958	531.96
793.139	570.87
793.32	484.86
793.5	501.24
793.681	603.64
793.862	540.15
794.042	558.58
794.223	544.25
794.404	472.57
794.584	439.8
794.765	509.43
794.945	454.14
795.126	417.27
795.306	476.66
795.487	476.66
795.667	491
795.848	491
796.028	411.13
796.209	460.28
796.389	478.71
796.57	441.85
796.75	437.75
796.93	484.86
797.111	415.23
797.291	472.57
797.471	450.04
797.652	450.04
797.832	388.6
798.012	417.27
798.192	384.51
798.373	415.23
798.553	474.62
798.733	419.32
798.913	409.08
799.093	384.51
799.274	486.9
799.454	333.31
799.634	407.03
799.814	480.76
799.994	456.19
800.174	378.36
800.354	421.37
800.534	378.36
800.714	425.47
800.894	388.6
801.074	353.79
801.254	308.73
801.434	462.33
801.614	335.35
801.794	325.12
801.974	1048.05
802.154	308.73
802.334	374.27
802.514	386.55
802.693	378.36
802.873	343.55
803.053	370.17
803.233	343.55
803.413	282.11
803.592	323.07
803.772	280.06
803.952	382.46
804.131	302.59
804.311	355.83
804.491	359.93
804.67	318.97
804.85	284.16
805.03	306.68
805.209	292.35
805.389	364.03
805.568	255.48
805.748	312.83
805.928	355.83
806.107	413.18
806.287	302.59
806.466	355.83
806.646	294.4
806.825	269.82
807.004	265.72
807.184	376.31
807.363	275.96
807.543	286.2
807.722	353.79
807.901	333.31
808.081	284.16
808.26	192
808.439	280.06
808.619	251.39
808.798	241.15
808.977	239.1
809.156	255.48
809.336	241.15
809.515	327.16
809.694	210.43
809.873	310.78
810.052	253.44
810.231	212.48
810.411	269.82
810.59	282.11
810.769	196.09
810.948	300.54
811.127	224.76
811.306	239.1
811.485	257.53
811.664	292.35
811.843	316.92
812.022	183.81
812.201	294.4
812.38	247.29
812.559	237.05
812.737	257.53
812.916	198.14
813.095	220.67
813.274	284.16
813.453	198.14
813.632	237.05
813.811	228.86
813.989	185.85
814.168	253.44
814.347	204.28
814.526	165.37
814.704	228.86
814.883	206.33
815.062	232.96
815.24	212.48
815.419	222.72
815.598	259.58
815.776	132.61
815.955	273.92
816.133	196.09
816.312	202.24
816.49	243.2
816.669	235
816.847	200.19
817.026	159.23
817.204	132.61
817.383	230.91
817.561	210.43
817.74	175.61
817.918	235
818.097	181.76
818.275	189.95
818.453	214.52
818.632	208.38
818.81	206.33
818.988	157.18
819.167	167.42
819.345	167.42
819.523	216.57
819.701	204.28
819.879	140.8
820.058	105.98
820.236	230.91
820.414	148.99
820.592	194.05
820.77	120.32
820.948	163.33
821.127	155.13
821.305	157.18
821.483	67.07
821.661	196.09
821.839	171.52
822.017	120.32
822.195	153.09
822.373	155.13
822.551	136.7
822.729	142.85
822.907	157.18
823.085	140.8
823.262	134.65
823.44	69.12
823.618	114.17
823.796	144.89
823.974	173.57
824.152	93.69
824.329	167.42
824.507	167.42
824.685	183.81
824.863	161.28
825.04	118.27
825.218	179.71
825.396	132.61
825.574	153.09
825.751	136.7
825.929	220.67
826.107	120.32
826.284	134.65
826.462	103.93
826.639	105.98
826.817	122.37
826.994	165.37
827.172	91.65
827.349	230.91
827.527	138.75
827.704	187.9
827.882	142.85
828.059	153.09
828.237	140.8
828.414	62.98
828.591	58.88
828.769	200.19
828.946	95.74
829.124	112.13
829.301	132.61
829.478	142.85
829.655	140.8
829.833	173.57
830.01	71.17
830.187	140.8
830.364	151.04
830.542	93.69
830.719	153.09
830.896	99.84
831.073	144.89
831.25	232.96
831.427	163.33
831.604	151.04
831.782	208.38
831.959	136.7
832.136	99.84
832.313	169.47
832.49	73.21
832.667	73.21
832.844	130.56
833.021	138.75
833.198	91.65
833.374	155.13
833.551	58.88
833.728	138.75
833.905	112.13
834.082	99.84
834.259	71.17
834.436	173.57
834.612	36.35
834.789	169.47
834.966	130.56
835.143	95.74
835.319	110.08
835.496	44.54
835.673	99.84
835.85	89.6
836.026	93.69
836.203	175.61
836.38	17.92
836.556	73.21
836.733	69.12
836.909	144.89
837.086	130.56
837.262	85.5
837.439	69.12
837.616	62.98
837.792	120.32
837.968	120.32
838.145	17.92
838.321	134.65
838.498	56.83
838.674	108.03
838.851	62.98
839.027	50.69
839.203	58.88
839.38	108.03
839.556	40.45
839.732	75.26
839.909	95.74
840.085	87.55
840.261	-10.75
840.437	24.06
840.614	83.45
840.79	151.04
840.966	77.31
841.142	1.54
841.318	3.58
841.494	28.16
841.671	114.17
841.847	46.59
842.023	83.45
842.199	103.93
842.375	71.17
842.551	118.27
842.727	87.55
842.903	175.61
843.079	19.97
843.255	134.65
843.431	97.79
843.607	48.64
843.783	-37.38
843.959	22.02
844.134	48.64
844.31	54.78
844.486	73.21
844.662	83.45
844.838	15.87
845.013	69.12
845.189	132.61
845.365	81.41
845.541	71.17
845.716	116.22
845.892	73.21
846.068	13.82
846.244	79.36
846.419	128.51
846.595	60.93
846.77	105.98
846.946	120.32
847.122	7.68
847.297	42.5
847.473	69.12
847.648	13.82
847.824	95.74
847.999	44.54
848.175	75.26
848.35	85.5
848.526	124.41
848.701	58.88
848.876	120.32
849.052	77.31
849.227	7.68
849.403	62.98
849.578	44.54
849.753	44.54
849.929	89.6
850.104	-45.57
850.279	26.11
850.454	65.02
850.63	91.65
850.805	71.17
850.98	34.3
851.155	-16.9
851.33	11.78
851.505	-0.51
851.681	118.27
851.856	52.74
852.031	110.08
852.206	48.64
852.381	46.59
852.556	-49.66
852.731	122.37
852.906	-18.94
853.081	30.21
853.256	89.6
853.431	54.78
853.606	58.88
853.781	50.69
853.956	-2.56
854.131	85.5
854.305	87.55
854.48	7.68
854.655	3.58
854.83	-8.7
855.005	11.78
855.18	38.4
855.354	-29.18
855.529	52.74
855.704	28.16
855.879	36.35
856.053	7.68
856.228	65.02
856.403	11.78
856.577	40.45
856.752	40.45
856.926	32.26
857.101	62.98
857.276	-8.7
857.45	7.68
857.625	-2.56
857.799	-27.14
857.974	65.02
858.148	-25.09
858.323	42.5
858.497	28.16
858.672	40.45
858.846	71.17
859.02	56.83
859.195	15.87
859.369	-14.85
859.543	87.55
859.718	46.59
859.892	17.92
860.066	116.22
860.241	34.3
860.415	30.21
860.589	11.78
860.763	28.16
860.938	67.07
861.112	130.56
861.286	54.78
861.46	108.03
861.634	24.06
861.808	28.16
861.982	-55.81
862.157	32.26
862.331	9.73
862.505	36.35
862.679	-47.62
862.853	-16.9
863.027	-4.61
863.201	42.5
863.375	42.5
863.549	40.45
863.722	58.88
863.896	95.74
864.07	5.63
864.244	-0.51
864.418	15.87
864.592	40.45
864.766	3.58
864.939	60.93
865.113	17.92
865.287	97.79
865.461	28.16
865.634	-12.8
865.808	-23.04
865.982	50.69
866.156	58.88
866.329	19.97
866.503	17.92
866.676	19.97
866.85	32.26
867.024	-37.38
867.197	146.94
867.371	85.5
867.544	46.59
867.718	-33.28
867.891	58.88
868.065	-74.24
868.238	24.06
868.412	91.65
868.585	48.64
868.759	-43.52
868.932	38.4
869.105	73.21
869.279	1.54
869.452	30.21
869.625	7.68
869.799	-12.8
869.972	-18.94
870.145	-53.76
870.319	24.06
870.492	-29.18
870.665	42.5
870.838	-12.8
871.011	13.82
871.185	-59.9
871.358	-55.81
871.531	62.98
871.704	73.21
871.877	-59.9
872.05	32.26
872.223	-61.95
872.396	15.87
872.569	73.21
872.742	38.4
872.915	-55.81
873.088	-51.71
873.261	19.97
873.434	48.64
873.607	-6.66
873.78	97.79
873.953	-0.51
874.126	-59.9
874.299	9.73
874.471	54.78
874.644	-20.99
874.817	34.3
874.99	77.31
875.163	-66.05
875.335	22.02
875.508	-0.51
875.681	-14.85
875.853	-12.8
876.026	7.68
876.199	34.3
876.371	-61.95
876.544	7.68
876.717	-39.42
876.889	32.26
877.062	-25.09
877.234	-53.76
877.407	-25.09
877.579	-59.9
877.752	17.92
877.924	26.11
878.097	19.97
878.269	24.06
878.442	-39.42
878.614	22.02
878.786	75.26
878.959	-31.23
879.131	-8.7
879.303	7.68
879.476	26.11
879.648	17.92
879.82	-16.9
879.993	69.12
880.165	-72.19
880.337	-20.99
880.509	60.93
880.681	-37.38
880.854	-6.66
881.026	13.82
881.198	81.41
881.37	52.74
881.542	1.54
881.714	-43.52
881.886	5.63
882.058	5.63
882.23	58.88
882.402	-16.9
882.574	36.35
882.746	-20.99
882.918	83.45
883.09	50.69
883.262	15.87
883.434	42.5
883.606	-20.99
883.778	-0.51
883.95	83.45
884.122	-20.99
884.293	42.5
884.465	-55.81
884.637	91.65
884.809	5.63
884.98	-27.14
885.152	-55.81
885.324	-23.04
885.496	13.82
885.667	-47.62
885.839	-29.18
886.011	60.93
886.182	9.73
886.354	73.21
886.525	-33.28
886.697	-12.8
886.869	-8.7
887.04	40.45
887.212	42.5
887.383	-23.04
887.555	3.58
887.726	9.73
887.897	-0.51
888.069	24.06
888.24	44.54
888.412	32.26
888.583	-39.42
888.754	-35.33
888.926	-31.23
889.097	11.78
889.268	7.68
889.44	67.07
889.611	1.54
889.782	-18.94
889.953	28.16
890.125	34.3
890.296	-121.34
890.467	-16.9
890.638	40.45
890.809	17.92
890.98	13.82
891.151	34.3
891.323	-8.7
891.494	69.12
891.665	60.93
891.836	-12.8
892.007	-90.62
892.178	-16.9
892.349	-31.23
892.52	-45.57
892.691	58.88
892.862	-0.51
893.032	5.63
893.203	-37.38
893.374	-53.76
893.545	-6.66
893.716	-6.66
893.887	42.5
894.057	-16.9
894.228	-55.81
894.399	-51.71
894.57	-31.23
894.74	50.69
894.911	73.21
895.082	-12.8
895.253	13.82
895.423	56.83
895.594	24.06
895.764	26.11
895.935	-78.33
896.106	-59.9
896.276	-27.14
896.447	48.64
896.617	-94.72
896.788	13.82
896.958	19.97
897.129	-0.51
897.299	-82.43
897.47	93.69
897.64	58.88
897.81	-33.28
897.981	-53.76
898.151	-41.47
898.322	19.97
898.492	56.83
898.662	-33.28
898.832	50.69
899.003	-37.38
899.173	5.63
899.343	11.78
899.513	-29.18
