Data from USB4F104151__80__12-24-26-140.txt Node

Date: Fri Mar 14 12:24:26 EDT 2025
User: louis
Spectrometer: USB4F10415
Trigger mode: 4
Integration Time (sec): 3.500000E-2
Scans to average: 1
Electric dark correction enabled: true
Nonlinearity correction enabled: false
Boxcar width: 0
XAxis mode: Wavelengths
Number of Pixels in Spectrum: 3648
>>>>>Begin Spectral Data<<<<<
178.204	-163.67
178.424	-163.67
178.644	-163.67
178.864	-116.56
179.084	-120.66
179.304	-20.31
179.524	-48.98
179.744	6.31
179.964	-1.88
180.184	18.6
180.404	18.6
180.624	-24.4
180.844	-12.12
181.064	0.17
181.283	12.46
181.503	-24.4
181.723	75.95
181.943	12.46
182.163	145.58
182.383	57.51
182.602	90.28
182.822	129.19
183.042	100.52
183.262	-16.21
183.482	18.6
183.701	18.6
183.921	75.95
184.141	-1.88
184.361	47.27
184.58	114.86
184.8	43.18
185.02	34.99
185.239	41.13
185.459	-1.88
185.679	100.52
185.898	-34.64
186.118	49.32
186.338	34.99
186.557	41.13
186.777	-5.97
186.997	98.47
187.216	47.27
187.436	108.71
187.655	100.52
187.875	59.56
188.095	65.71
188.314	84.14
188.534	204.97
188.753	-3.93
188.973	55.47
189.192	22.7
189.412	-8.02
189.631	16.55
189.851	86.19
190.07	104.62
190.29	47.27
190.509	-14.17
190.729	73.9
190.948	110.76
191.168	166.06
191.387	20.65
191.607	-12.12
191.826	47.27
192.045	82.09
192.265	37.03
192.484	-38.74
192.704	37.03
192.923	92.33
193.142	106.67
193.362	59.56
193.581	157.86
193.8	137.38
194.02	151.72
194.239	22.7
194.458	20.65
194.678	73.9
194.897	59.56
195.116	59.56
195.335	39.08
195.555	57.51
195.774	26.79
195.993	73.9
196.212	49.32
196.432	88.23
196.651	-42.84
196.87	100.52
197.089	147.62
197.308	37.03
197.528	73.9
197.747	39.08
197.966	59.56
198.185	84.14
198.404	-42.84
198.623	-55.12
198.842	47.27
199.062	92.33
199.281	98.47
199.5	18.6
199.719	96.43
199.938	59.56
200.157	133.29
200.376	30.89
200.595	-12.12
200.814	32.94
201.033	6.31
201.252	14.51
201.471	34.99
201.69	104.62
201.909	16.55
202.128	22.7
202.347	22.7
202.566	94.38
202.785	43.18
203.004	-28.5
203.223	106.67
203.442	-34.64
203.661	51.37
203.879	-28.5
204.098	123.05
204.317	8.36
204.536	10.41
204.755	110.76
204.974	32.94
205.193	69.8
205.411	157.86
205.63	123.05
205.849	51.37
206.068	8.36
206.287	32.94
206.505	59.56
206.724	32.94
206.943	-34.64
207.162	-1.88
207.381	32.94
207.599	-26.45
207.818	41.13
208.037	114.86
208.255	98.47
208.474	-14.17
208.693	98.47
208.911	26.79
209.13	47.27
209.349	37.03
209.567	24.75
209.786	77.99
210.005	49.32
210.223	45.23
210.442	-14.17
210.661	39.08
210.879	129.19
211.098	-14.17
211.316	4.27
211.535	112.81
211.753	75.95
211.972	53.42
212.191	41.13
212.409	-22.36
212.628	47.27
212.846	47.27
213.065	104.62
213.283	100.52
213.502	4.27
213.72	57.51
213.938	49.32
214.157	30.89
214.375	157.86
214.594	10.41
214.812	41.13
215.031	2.22
215.249	41.13
215.467	6.31
215.686	20.65
215.904	49.32
216.122	59.56
216.341	131.24
216.559	65.71
216.778	90.28
216.996	84.14
217.214	24.75
217.432	55.47
217.651	14.51
217.869	80.04
218.087	82.09
218.306	98.47
218.524	53.42
218.742	39.08
218.96	71.85
219.179	94.38
219.397	63.66
219.615	69.8
219.833	61.61
220.051	14.51
220.27	112.81
220.488	80.04
220.706	73.9
220.924	77.99
221.142	22.7
221.36	102.57
221.578	53.42
221.796	8.36
222.015	98.47
222.233	-1.88
222.451	51.37
222.669	114.86
222.887	92.33
223.105	26.79
223.323	57.51
223.541	69.8
223.759	121
223.977	24.75
224.195	69.8
224.413	75.95
224.631	73.9
224.849	39.08
225.067	77.99
225.285	-22.36
225.503	71.85
225.721	-3.93
225.939	84.14
226.157	37.03
226.375	92.33
226.592	28.84
226.81	12.46
227.028	49.32
227.246	86.19
227.464	-5.97
227.682	-10.07
227.9	131.24
228.117	59.56
228.335	47.27
228.553	-30.55
228.771	24.75
228.989	86.19
229.206	22.7
229.424	41.13
229.642	55.47
229.86	55.47
230.077	63.66
230.295	80.04
230.513	80.04
230.731	28.84
230.948	41.13
231.166	53.42
231.384	-5.97
231.601	92.33
231.819	61.61
232.037	51.37
232.254	-36.69
232.472	41.13
232.689	100.52
232.907	37.03
233.125	41.13
233.342	49.32
233.56	-10.07
233.777	49.32
233.995	28.84
234.213	51.37
234.43	63.66
234.648	30.89
234.865	39.08
235.083	12.46
235.3	104.62
235.518	26.79
235.735	133.29
235.953	106.67
236.17	24.75
236.388	57.51
236.605	41.13
236.822	143.53
237.04	55.47
237.257	114.86
237.475	12.46
237.692	34.99
237.909	41.13
238.127	8.36
238.344	84.14
238.562	98.47
238.779	0.17
238.996	32.94
239.214	45.23
239.431	65.71
239.648	51.37
239.865	73.9
240.083	34.99
240.3	12.46
240.517	77.99
240.735	16.55
240.952	143.53
241.169	96.43
241.386	77.99
241.603	16.55
241.821	14.51
242.038	127.14
242.255	102.57
242.472	30.89
242.689	61.61
242.907	94.38
243.124	102.57
243.341	-12.12
243.558	-65.36
243.775	53.42
243.992	12.46
244.209	75.95
244.426	137.38
244.643	94.38
244.86	55.47
245.078	24.75
245.295	53.42
245.512	63.66
245.729	32.94
245.946	61.61
246.163	108.71
246.38	28.84
246.597	110.76
246.814	88.23
247.031	37.03
247.248	61.61
247.464	51.37
247.681	34.99
247.898	94.38
248.115	47.27
248.332	26.79
248.549	176.3
248.766	151.72
248.983	112.81
249.2	63.66
249.417	96.43
249.633	73.9
249.85	-8.02
250.067	82.09
250.284	26.79
250.501	30.89
250.717	110.76
250.934	57.51
251.151	106.67
251.368	77.99
251.585	34.99
251.801	96.43
252.018	20.65
252.235	-1.88
252.451	24.75
252.668	63.66
252.885	2.22
253.102	71.85
253.318	20.65
253.535	24.75
253.752	55.47
253.968	26.79
254.185	49.32
254.401	55.47
254.618	188.58
254.835	47.27
255.051	82.09
255.268	63.66
255.484	16.55
255.701	96.43
255.917	49.32
256.134	45.23
256.351	121
256.567	51.37
256.784	18.6
257	-34.64
257.217	26.79
257.433	110.76
257.65	26.79
257.866	98.47
258.082	-30.55
258.299	73.9
258.515	41.13
258.732	41.13
258.948	41.13
259.165	22.7
259.381	43.18
259.597	104.62
259.814	-20.31
260.03	0.17
260.246	-57.17
260.463	63.66
260.679	137.38
260.895	106.67
261.112	22.7
261.328	-12.12
261.544	90.28
261.761	108.71
261.977	59.56
262.193	-24.4
262.409	73.9
262.626	63.66
262.842	98.47
263.058	71.85
263.274	77.99
263.49	45.23
263.707	51.37
263.923	145.58
264.139	-30.55
264.355	67.75
264.571	106.67
264.787	22.7
265.004	90.28
265.22	75.95
265.436	71.85
265.652	32.94
265.868	71.85
266.084	-79.7
266.3	43.18
266.516	6.31
266.732	39.08
266.948	80.04
267.164	51.37
267.38	77.99
267.596	116.9
267.812	143.53
268.028	77.99
268.244	63.66
268.46	18.6
268.676	77.99
268.892	129.19
269.108	32.94
269.324	20.65
269.54	-30.55
269.756	80.04
269.972	0.17
270.188	8.36
270.403	-24.4
270.619	34.99
270.835	65.71
271.051	86.19
271.267	53.42
271.483	14.51
271.698	45.23
271.914	75.95
272.13	-20.31
272.346	18.6
272.562	86.19
272.777	71.85
272.993	75.95
273.209	49.32
273.425	94.38
273.64	39.08
273.856	84.14
274.072	59.56
274.287	32.94
274.503	10.41
274.719	75.95
274.934	8.36
275.15	34.99
275.366	43.18
275.581	151.72
275.797	137.38
276.012	57.51
276.228	102.57
276.444	-16.21
276.659	84.14
276.875	10.41
277.09	88.23
277.306	30.89
277.521	88.23
277.737	75.95
277.952	73.9
278.168	71.85
278.383	92.33
278.599	80.04
278.814	96.43
279.03	20.65
279.245	92.33
279.461	47.27
279.676	32.94
279.892	49.32
280.107	47.27
280.322	16.55
280.538	45.23
280.753	-20.31
280.969	34.99
281.184	96.43
281.399	2.22
281.615	0.17
281.83	51.37
282.045	24.75
282.26	73.9
282.476	61.61
282.691	80.04
282.906	65.71
283.122	37.03
283.337	121
283.552	45.23
283.767	118.95
283.983	8.36
284.198	37.03
284.413	-28.5
284.628	32.94
284.843	61.61
285.058	39.08
285.274	84.14
285.489	61.61
285.704	43.18
285.919	59.56
286.134	49.32
286.349	80.04
286.564	75.95
286.779	14.51
286.995	18.6
287.21	-3.93
287.425	82.09
287.64	75.95
287.855	-8.02
288.07	45.23
288.285	84.14
288.5	114.86
288.715	63.66
288.93	65.71
289.145	10.41
289.36	57.51
289.575	-67.41
289.79	98.47
290.004	37.03
290.219	88.23
290.434	12.46
290.649	-8.02
290.864	41.13
291.079	28.84
291.294	26.79
291.509	30.89
291.724	98.47
291.938	0.17
292.153	43.18
292.368	51.37
292.583	30.89
292.798	82.09
293.012	100.52
293.227	139.43
293.442	-10.07
293.657	137.38
293.871	65.71
294.086	127.14
294.301	125.1
294.516	106.67
294.73	39.08
294.945	-98.13
295.16	94.38
295.374	20.65
295.589	84.14
295.804	-16.21
296.018	24.75
296.233	88.23
296.447	14.51
296.662	90.28
296.877	88.23
297.091	118.95
297.306	57.51
297.52	18.6
297.735	49.32
297.949	-5.97
298.164	104.62
298.378	69.8
298.593	67.75
298.807	-1.88
299.022	71.85
299.236	45.23
299.451	71.85
299.665	34.99
299.88	43.18
300.094	90.28
300.309	67.75
300.523	84.14
300.737	2.22
300.952	28.84
301.166	92.33
301.381	59.56
301.595	-1.88
301.809	-59.22
302.024	-16.21
302.238	65.71
302.452	47.27
302.667	-12.12
302.881	65.71
303.095	24.75
303.309	10.41
303.524	49.32
303.738	57.51
303.952	63.66
304.166	110.76
304.381	16.55
304.595	63.66
304.809	-24.4
305.023	51.37
305.237	18.6
305.452	43.18
305.666	80.04
305.88	75.95
306.094	96.43
306.308	32.94
306.522	69.8
306.736	47.27
306.95	69.8
307.164	37.03
307.379	86.19
307.593	59.56
307.807	67.75
308.021	100.52
308.235	86.19
308.449	24.75
308.663	32.94
308.877	129.19
309.091	121
309.305	71.85
309.519	22.7
309.733	37.03
309.947	-18.26
310.161	77.99
310.374	114.86
310.588	133.29
310.802	-5.97
311.016	49.32
311.23	112.81
311.444	2.22
311.658	69.8
311.872	55.47
312.085	118.95
312.299	147.62
312.513	106.67
312.727	71.85
312.941	20.65
313.154	73.9
313.368	65.71
313.582	2.22
313.796	131.24
314.009	14.51
314.223	71.85
314.437	67.75
314.651	65.71
314.864	24.75
315.078	18.6
315.292	10.41
315.505	63.66
315.719	137.38
315.933	96.43
316.146	45.23
316.36	2.22
316.573	43.18
316.787	149.67
317.001	75.95
317.214	59.56
317.428	30.89
317.641	41.13
317.855	-3.93
318.068	71.85
318.282	84.14
318.495	75.95
318.709	77.99
318.922	-36.69
319.136	139.43
319.349	164.01
319.563	45.23
319.776	94.38
319.99	55.47
320.203	112.81
320.417	39.08
320.63	80.04
320.843	90.28
321.057	114.86
321.27	73.9
321.483	157.86
321.697	96.43
321.91	30.89
322.124	139.43
322.337	-14.17
322.55	73.9
322.763	-8.02
322.977	47.27
323.19	22.7
323.403	18.6
323.617	98.47
323.83	77.99
324.043	26.79
324.256	34.99
324.469	49.32
324.683	102.57
324.896	55.47
325.109	24.75
325.322	-38.74
325.535	108.71
325.748	77.99
325.962	-20.31
326.175	49.32
326.388	110.76
326.601	82.09
326.814	14.51
327.027	26.79
327.24	82.09
327.453	49.32
327.666	94.38
327.879	90.28
328.092	75.95
328.305	47.27
328.518	34.99
328.731	26.79
328.944	22.7
329.157	16.55
329.37	45.23
329.583	141.48
329.796	32.94
330.009	61.61
330.222	24.75
330.435	116.9
330.648	37.03
330.861	39.08
331.073	73.9
331.286	98.47
331.499	41.13
331.712	4.27
331.925	63.66
332.138	51.37
332.35	55.47
332.563	-1.88
332.776	82.09
332.989	20.65
333.202	24.75
333.414	112.81
333.627	106.67
333.84	67.75
334.053	30.89
334.265	88.23
334.478	114.86
334.691	18.6
334.903	24.75
335.116	34.99
335.329	96.43
335.541	49.32
335.754	63.66
335.966	-1.88
336.179	8.36
336.392	39.08
336.604	26.79
336.817	61.61
337.029	123.05
337.242	57.51
337.454	37.03
337.667	84.14
337.88	110.76
338.092	10.41
338.305	84.14
338.517	43.18
338.729	2.22
338.942	161.96
339.154	-8.02
339.367	41.13
339.579	116.9
339.792	100.52
340.004	75.95
340.217	53.42
340.429	39.08
340.641	10.41
340.854	63.66
341.066	39.08
341.278	63.66
341.491	59.56
341.703	8.36
341.915	24.75
342.128	41.13
342.34	34.99
342.552	37.03
342.764	-3.93
342.977	84.14
343.189	80.04
343.401	118.95
343.613	47.27
343.826	-14.17
344.038	-5.97
344.25	96.43
344.462	39.08
344.674	22.7
344.886	22.7
345.099	32.94
345.311	96.43
345.523	141.48
345.735	37.03
345.947	71.85
346.159	94.38
346.371	-18.26
346.583	-3.93
346.795	55.47
347.007	90.28
347.219	88.23
347.431	90.28
347.643	110.76
347.855	47.27
348.067	125.1
348.279	43.18
348.491	57.51
348.703	39.08
348.915	86.19
349.127	69.8
349.339	80.04
349.551	-12.12
349.763	8.36
349.975	45.23
350.187	80.04
350.399	75.95
350.61	59.56
350.822	41.13
351.034	-16.21
351.246	65.71
351.458	69.8
351.669	34.99
351.881	118.95
352.093	86.19
352.305	90.28
352.517	123.05
352.728	94.38
352.94	43.18
353.152	127.14
353.363	28.84
353.575	84.14
353.787	77.99
353.999	4.27
354.21	168.1
354.422	55.47
354.633	49.32
354.845	49.32
355.057	96.43
355.268	57.51
355.48	96.43
355.692	47.27
355.903	116.9
356.115	100.52
356.326	0.17
356.538	49.32
356.749	129.19
356.961	129.19
357.172	-5.97
357.384	6.31
357.595	170.15
357.807	90.28
358.018	51.37
358.23	96.43
358.441	88.23
358.653	45.23
358.864	90.28
359.075	45.23
359.287	6.31
359.498	102.57
359.709	0.17
359.921	131.24
360.132	20.65
360.344	71.85
360.555	100.52
360.766	30.89
360.977	0.17
361.189	149.67
361.4	94.38
361.611	123.05
361.823	170.15
362.034	22.7
362.245	-3.93
362.456	41.13
362.667	39.08
362.879	26.79
363.09	26.79
363.301	57.51
363.512	49.32
363.723	65.71
363.935	88.23
364.146	102.57
364.357	59.56
364.568	34.99
364.779	-36.69
364.99	139.43
365.201	57.51
365.412	123.05
365.623	2.22
365.834	20.65
366.045	86.19
366.256	59.56
366.467	90.28
366.678	55.47
366.889	61.61
367.1	59.56
367.311	22.7
367.522	69.8
367.733	63.66
367.944	88.23
368.155	55.47
368.366	92.33
368.577	73.9
368.788	84.14
368.999	12.46
369.209	141.48
369.42	190.63
369.631	164.01
369.842	53.42
370.053	37.03
370.264	82.09
370.474	22.7
370.685	82.09
370.896	2.22
371.107	77.99
371.317	114.86
371.528	94.38
371.739	145.58
371.95	77.99
372.16	69.8
372.371	69.8
372.582	-28.5
372.792	82.09
373.003	59.56
373.214	98.47
373.424	65.71
373.635	53.42
373.846	180.39
374.056	37.03
374.267	108.71
374.477	100.52
374.688	77.99
374.898	30.89
375.109	55.47
375.319	92.33
375.53	71.85
375.74	65.71
375.951	65.71
376.161	108.71
376.372	77.99
376.582	24.75
376.793	121
377.003	41.13
377.214	86.19
377.424	59.56
377.635	129.19
377.845	43.18
378.055	147.62
378.266	-38.74
378.476	145.58
378.686	84.14
378.897	57.51
379.107	65.71
379.317	170.15
379.528	26.79
379.738	69.8
379.948	61.61
380.158	84.14
380.369	84.14
380.579	114.86
380.789	71.85
380.999	131.24
381.21	65.71
381.42	88.23
381.63	82.09
381.84	45.23
382.05	26.79
382.261	80.04
382.471	121
382.681	102.57
382.891	153.77
383.101	43.18
383.311	14.51
383.521	24.75
383.731	65.71
383.941	114.86
384.151	82.09
384.361	92.33
384.571	12.46
384.781	69.8
384.991	114.86
385.201	153.77
385.411	108.71
385.621	149.67
385.831	6.31
386.041	28.84
386.251	61.61
386.461	53.42
386.671	12.46
386.881	80.04
387.091	51.37
387.301	106.67
387.511	69.8
387.72	63.66
387.93	55.47
388.14	61.61
388.35	84.14
388.56	41.13
388.769	94.38
388.979	98.47
389.189	92.33
389.399	59.56
389.609	59.56
389.818	59.56
390.028	71.85
390.238	86.19
390.447	80.04
390.657	100.52
390.867	131.24
391.076	24.75
391.286	94.38
391.496	116.9
391.705	59.56
391.915	149.67
392.125	145.58
392.334	147.62
392.544	137.38
392.753	110.76
392.963	63.66
393.172	61.61
393.382	90.28
393.591	100.52
393.801	86.19
394.01	65.71
394.22	108.71
394.429	65.71
394.639	61.61
394.848	77.99
395.058	69.8
395.267	39.08
395.477	135.34
395.686	84.14
395.895	110.76
396.105	176.3
396.314	55.47
396.524	112.81
396.733	63.66
396.942	168.1
397.152	137.38
397.361	149.67
397.57	129.19
397.78	123.05
397.989	82.09
398.198	166.06
398.407	73.9
398.617	69.8
398.826	151.72
399.035	98.47
399.244	147.62
399.453	51.37
399.663	90.28
399.872	123.05
400.081	86.19
400.29	143.53
400.499	98.47
400.708	84.14
400.917	176.3
401.127	98.47
401.336	104.62
401.545	200.87
401.754	182.44
401.963	133.29
402.172	67.75
402.381	131.24
402.59	153.77
402.799	139.43
403.008	67.75
403.217	135.34
403.426	84.14
403.635	121
403.844	53.42
404.053	106.67
404.262	135.34
404.471	168.1
404.68	151.72
404.888	127.14
405.097	170.15
405.306	184.49
405.515	176.3
405.724	172.2
405.933	184.49
406.142	196.78
406.35	198.82
406.559	186.54
406.768	188.58
406.977	217.26
407.185	170.15
407.394	198.82
407.603	118.95
407.812	256.17
408.02	225.45
408.229	266.41
408.438	213.16
408.646	215.21
408.855	149.67
409.064	200.87
409.272	176.3
409.481	270.5
409.69	227.5
409.898	329.89
410.107	274.6
410.315	280.74
410.524	223.4
410.733	340.13
410.941	329.89
411.15	260.26
411.358	319.65
411.567	430.24
411.775	366.76
411.984	438.44
412.192	377
412.401	372.9
412.609	499.88
412.818	471.2
413.026	430.24
413.234	454.82
413.443	395.43
413.651	540.83
413.86	516.26
414.068	508.07
414.276	632.99
414.485	569.51
414.693	569.51
414.901	657.57
415.11	598.18
415.318	536.74
415.526	600.23
415.734	696.48
415.943	657.57
416.151	774.3
416.359	702.62
416.567	815.26
416.776	676
416.984	762.02
417.192	915.61
417.4	710.82
417.608	747.68
417.817	919.71
418.025	901.28
418.233	954.52
418.441	921.76
418.649	1007.77
418.857	1108.12
419.065	1061.02
419.273	977.05
419.481	1167.51
419.689	1317.01
419.897	1292.44
420.105	1292.44
420.313	1353.88
420.521	1362.07
420.729	1448.08
420.937	1421.46
421.145	1546.39
421.353	1489.04
421.561	1681.55
421.769	1675.41
421.977	1853.58
422.185	1738.9
422.393	1820.81
422.601	1949.84
422.809	2019.47
423.017	1990.8
423.224	1910.93
423.432	2078.86
423.64	2009.23
423.848	2228.36
424.056	2175.11
424.263	2416.77
424.471	2515.08
424.679	2392.2
424.887	2619.52
425.094	2631.81
425.302	2609.28
425.51	2793.6
425.718	2803.84
425.925	2959.49
426.133	2930.81
426.341	3156.09
426.548	3147.9
426.756	3207.29
426.964	3358.84
427.171	3487.86
427.379	3590.26
427.586	3801.2
427.794	3776.63
428.001	3965.04
428.209	4057.2
428.417	4018.29
428.624	4259.95
428.832	4180.07
429.039	4114.54
429.247	4243.56
429.454	4812.9
429.662	5156.96
429.869	4683.88
430.076	5099.61
430.284	4950.11
430.491	4964.45
430.699	5652.56
430.906	5462.1
431.114	5455.96
431.321	5642.32
431.528	5892.18
431.736	6045.77
431.943	6516.81
432.15	6025.29
432.358	6381.64
432.565	6656.07
432.772	6654.02
432.979	6922.31
433.187	7043.14
433.394	7131.2
433.601	7596.09
433.808	7780.4
434.016	7575.61
434.223	7911.47
434.43	8198.19
434.637	8247.34
434.844	8691.75
435.052	8761.38
435.259	8857.64
435.466	8992.8
435.673	8982.56
435.88	9594.9
436.087	9863.19
436.294	9838.61
436.501	9656.34
436.708	9844.76
436.915	10330.13
437.122	10713.1
437.329	10649.61
437.537	11153.41
437.743	11202.56
437.95	11268.09
438.157	11696.12
438.364	12074.99
438.571	11821.05
438.778	11964.4
438.985	13340.64
439.192	12625.9
439.399	13076.45
439.606	12748.78
439.813	13623.26
440.02	14356.43
440.227	13916.12
440.433	13914.07
440.64	14663.63
440.847	14198.74
441.054	14985.16
441.261	15687.61
441.467	15396.8
441.674	15726.52
441.881	16383.92
442.088	16226.23
442.294	16279.47
442.501	16805.8
442.708	16936.87
442.914	17758.11
443.121	18282.39
443.328	18010.01
443.534	19341.19
443.741	18700.17
443.948	18452.37
444.154	20031.35
444.361	19595.14
444.568	20326.26
444.774	19666.81
444.981	20043.64
445.187	20733.81
445.394	21614.43
445.6	21190.5
445.807	23351.11
446.013	22284.12
446.22	22673.23
446.426	23598.91
446.633	23416.65
446.839	24676.15
447.046	23666.5
447.252	24973.1
447.459	24952.62
447.665	24878.9
447.871	26070.81
448.078	27119.37
448.284	25696.03
448.491	26550.04
448.697	27537.16
448.903	28169.98
449.11	28276.48
449.316	27057.93
449.522	28249.85
449.728	29206.25
449.935	29370.09
450.141	29036.27
450.347	30017.25
450.553	28913.39
450.76	29337.32
450.966	30295.77
451.172	29898.47
451.378	30691.03
451.584	30170.85
451.791	31080.14
451.997	30588.63
452.203	31637.19
452.409	31272.65
452.615	31123.15
452.821	29865.7
453.027	29728.49
453.233	31557.32
453.44	29794.02
453.646	30740.18
453.852	30547.67
454.058	30660.31
454.264	29949.67
454.47	30582.49
454.676	29654.76
454.882	30971.6
455.088	28155.65
455.294	28595.96
455.5	28708.6
455.705	29421.29
455.911	28241.66
456.117	27682.56
456.323	26984.21
456.529	25849.63
456.735	26896.14
456.941	26248.99
457.147	26011.42
457.352	25012.01
457.558	24651.57
457.764	24835.89
457.97	24362.81
458.176	23699.27
458.381	23961.41
458.587	22474.58
458.793	22255.45
458.999	21391.2
459.204	22835.02
459.41	22003.55
459.616	21067.63
459.821	20881.26
460.027	20731.76
460.233	20211.57
460.438	19351.43
460.644	19677.05
460.85	18683.79
461.055	18290.58
461.261	18442.13
461.466	16932.78
461.672	16519.09
461.878	17663.9
462.083	16723.88
462.289	16256.95
462.494	15959.99
462.7	15081.41
462.905	14888.9
463.111	15300.55
463.316	15667.13
463.522	15112.13
463.727	15161.28
463.932	15275.97
464.138	14813.13
464.343	15273.92
464.549	14602.19
464.754	14958.53
464.959	14763.98
465.165	14819.27
465.37	14319.57
465.575	13848.54
465.781	14270.42
465.986	14338
466.191	13924.31
466.397	13615.07
466.602	13109.22
466.807	13453.28
467.012	13631.45
467.218	13506.52
467.423	13318.11
467.628	13281.25
467.833	14106.58
468.038	13320.16
468.244	13135.84
468.449	13494.24
468.654	13307.87
468.859	12709.86
469.064	12892.13
469.269	12640.23
469.474	12629.99
469.679	12939.24
469.885	12369.9
470.09	12599.27
470.295	12279.79
470.5	12263.41
470.705	12175.34
470.91	11982.84
471.115	12095.47
471.32	12220.4
471.525	12204.02
471.73	11792.37
471.935	11595.77
472.139	11096.07
472.344	11276.29
472.549	11462.65
472.754	11051.01
472.959	10946.56
473.164	10762.25
473.369	10762.25
473.574	10895.36
473.778	10907.65
473.983	10700.81
474.188	10788.87
474.393	9969.68
474.598	10350.6
474.802	10096.66
475.007	10035.22
475.212	10172.43
475.417	9691.16
475.621	9852.95
475.826	9855
476.031	9785.37
476.235	9336.86
476.44	9642.01
476.645	9361.44
476.849	9320.48
477.054	9105.44
477.259	9003.04
477.463	9152.54
477.668	8972.32
477.872	8892.45
478.077	8880.16
478.282	8540.2
478.486	8544.3
478.691	8308.78
478.895	8380.46
479.1	8632.36
479.304	8546.34
479.509	8357.93
479.713	8624.17
479.918	8341.55
480.122	8065.07
480.326	8075.31
480.531	8136.75
480.735	7890.99
480.94	8011.82
481.144	8267.82
481.348	7995.44
481.553	8020.02
481.757	7753.78
481.961	7936.05
482.166	8165.42
482.37	7917.62
482.574	7968.82
482.778	7651.38
482.983	7997.49
483.187	7981.1
483.391	7837.75
483.595	7817.27
483.8	7929.91
484.004	8001.58
484.208	7905.33
484.412	7610.42
484.616	7907.38
484.821	7827.51
485.025	7884.85
485.229	7893.04
485.433	7774.26
485.637	7917.62
485.841	7923.76
486.045	7809.08
486.249	7764.02
486.453	7778.36
486.657	7766.07
486.861	7800.88
487.065	7661.62
487.269	7796.79
487.473	7678.01
487.677	7813.17
487.881	7895.09
488.085	7917.62
488.289	7882.8
488.493	7792.69
488.697	7946.29
488.901	7761.97
489.105	7911.47
489.309	8048.69
489.512	7977.01
489.716	7950.39
489.92	7909.43
490.124	7839.8
490.328	8065.07
490.531	8024.11
490.735	7979.06
490.939	8108.08
491.143	8028.21
491.346	8054.83
491.55	8353.84
491.754	8048.69
491.958	8308.78
492.161	8323.12
492.365	8294.44
492.569	8157.23
492.772	8308.78
492.976	8564.78
493.18	8370.22
493.383	8751.14
493.587	8646.69
493.79	8529.96
493.994	8319.02
494.197	8669.22
494.401	8509.48
494.605	8767.52
494.808	8693.8
495.012	9019.43
495.215	8820.77
495.419	9158.69
495.622	8984.61
495.825	9148.45
496.029	9150.5
496.232	9373.72
496.436	9408.54
496.639	9404.44
496.843	9340.96
497.046	9736.21
497.249	9625.62
497.453	9791.51
497.656	9865.24
497.859	9826.32
498.063	10031.12
498.266	10383.37
498.469	10235.92
498.673	10235.92
498.876	10432.52
499.079	10643.46
499.282	10706.95
499.485	10833.93
499.689	10965
499.892	10954.76
500.095	11061.25
500.298	11368.45
500.501	11321.34
500.705	11442.17
500.908	11782.13
501.111	11997.17
501.314	11929.59
501.517	12083.19
501.72	12337.13
501.923	12208.11
502.126	12607.47
502.329	12474.35
502.532	12769.26
502.735	12849.13
502.938	13303.78
503.141	12842.98
503.344	13166.56
503.547	13486.04
503.75	13619.16
503.953	13680.6
504.156	13737.95
504.359	13979.61
504.562	14086.1
504.765	14368.72
504.968	14481.36
505.17	14737.35
505.373	14751.69
505.576	15040.45
505.779	15208.39
505.982	15361.98
506.185	15361.98
506.387	15599.55
506.59	15738.81
506.793	16304.05
506.996	16062.39
507.198	16506.8
507.401	16342.96
507.604	16674.73
507.807	16822.19
508.009	16928.68
508.212	17108.9
508.415	17211.3
508.617	17612.7
508.82	17692.57
509.022	17872.79
509.225	18466.7
509.428	18366.35
509.63	18452.37
509.833	18814.86
510.035	18907.02
510.238	19136.39
510.44	19179.4
510.643	19281.8
510.845	19654.53
511.048	19910.52
511.25	20074.36
511.453	20096.89
511.655	20850.54
511.858	20449.14
512.06	20875.12
512.262	21481.31
512.465	20930.41
512.667	21372.77
512.87	21829.47
513.072	21645.15
513.274	22030.17
513.477	22566.74
513.679	22646.61
513.881	23015.24
514.084	23228.23
514.286	23033.68
514.488	23361.35
514.69	24088.38
514.893	23789.38
515.095	24022.84
515.297	24557.36
515.499	24348.47
515.701	24821.55
515.904	25134.89
516.106	25268.01
516.308	25556.77
516.51	25855.78
516.712	26128.16
516.914	26423.06
517.116	26658.58
517.318	26429.21
517.52	26949.39
517.722	26971.92
517.925	27713.28
518.127	27889.41
518.329	28239.61
518.531	28124.93
518.733	28737.27
518.935	28641.01
519.136	29054.7
519.338	29380.33
519.54	29388.52
519.742	29908.71
519.944	30205.66
520.146	30648.02
520.348	31069.9
520.55	30877.4
520.752	31074
520.954	31688.39
521.155	31762.12
521.357	31846.08
521.559	32485.05
521.761	32573.11
521.963	32476.86
522.164	32951.99
522.366	32812.73
522.568	33263.28
522.77	33314.48
522.971	34125.47
523.173	33785.51
523.375	34098.85
523.576	34455.2
523.778	34465.44
523.98	35149.46
524.181	34907.8
524.383	34850.45
524.584	35741.32
524.786	35708.55
524.988	35802.76
525.189	35880.58
525.391	36150.92
525.592	36568.7
525.794	36890.23
525.995	36603.52
526.197	37013.11
526.398	36798.07
526.6	37779.05
526.801	37160.56
527.003	37723.76
527.204	37690.99
527.406	38037.09
527.607	38170.21
527.808	38651.48
528.01	37682.8
528.211	38274.66
528.412	39192.15
528.614	39005.78
528.815	38891.1
529.016	39351.89
529.218	39272.02
529.419	39368.27
529.62	39124.57
529.822	39386.71
530.023	39179.86
530.224	39913.03
530.425	39964.23
530.626	39384.66
530.828	39190.1
531.029	40099.4
531.23	40019.53
531.431	40162.89
531.632	40283.72
531.833	39923.27
532.035	40420.93
532.236	40089.16
532.437	40545.86
532.638	39951.95
532.839	40764.99
533.04	40691.26
533.241	39902.79
533.442	40986.17
533.643	40302.15
533.844	40672.83
534.045	40541.76
534.246	40484.42
534.447	40863.29
534.648	40427.07
534.849	41111.1
535.05	40699.45
535.251	40808
535.451	40812.09
535.652	41195.06
535.853	41104.95
536.054	40810.04
536.255	41092.66
536.456	40672.83
536.657	41389.62
536.857	40750.65
537.058	40463.94
537.259	41211.45
537.46	40990.27
537.66	40592.96
537.861	41322.04
538.062	40924.73
538.263	41049.66
538.463	40617.53
538.664	40920.63
538.865	40947.26
539.065	41231.93
539.266	40793.66
539.466	41453.11
539.667	40783.42
539.868	41072.18
540.068	41070.14
540.269	41172.53
540.469	41457.2
540.67	40711.74
540.87	40869.44
541.071	40957.5
541.271	41180.73
541.472	40988.22
541.672	40889.91
541.873	40879.67
542.073	40126.02
542.274	41143.86
542.474	40939.07
542.675	40361.54
542.875	41070.14
543.075	40824.38
543.276	40279.62
543.476	41233.97
543.676	40795.71
543.877	40824.38
544.077	41043.51
544.277	40787.52
544.478	40533.57
544.678	41043.51
544.878	40840.76
545.078	40676.93
545.279	40554.05
545.479	40394.31
545.679	40707.65
545.879	40767.04
546.079	40611.39
546.28	40699.45
546.48	39929.42
546.68	40803.9
546.88	40576.58
547.08	40971.83
547.28	40582.72
547.48	40351.3
547.68	40668.73
547.88	40490.56
548.081	41076.28
548.281	40934.97
548.481	40775.23
548.681	41094.71
548.881	40465.99
549.081	40492.61
549.28	40291.91
549.48	40730.17
549.68	40312.39
549.88	40996.41
550.08	40318.53
550.28	40719.93
550.48	40461.89
550.68	40775.23
550.88	40205.89
551.08	40543.81
551.279	40441.41
551.479	40214.09
551.679	40373.83
551.879	40488.51
552.079	40470.08
552.278	40234.56
552.478	40435.27
552.678	40394.31
552.878	40216.13
553.077	40193.61
553.277	40189.51
553.477	41170.49
553.676	40308.29
553.876	40087.11
554.076	40189.51
554.275	40316.48
554.475	39849.55
554.674	40126.02
554.874	40220.23
555.074	39972.42
555.273	40044.1
555.473	39900.75
555.672	39525.97
555.872	40310.34
556.071	39702.09
556.271	39997
556.47	39812.68
556.67	39177.81
556.869	39732.81
557.068	39607.89
557.268	39421.52
557.467	39358.03
557.667	39691.85
557.866	39458.38
558.065	39200.34
558.265	39204.44
558.464	38946.39
558.663	39382.61
558.863	38753.88
559.062	39775.82
559.261	38743.64
559.461	38604.38
559.66	38588
559.859	38837.85
560.058	38360.67
560.258	38665.82
560.457	38162.02
560.656	38710.88
560.855	38442.59
561.054	38645.34
561.253	37977.7
561.453	38471.26
561.652	38143.59
561.851	38592.09
562.05	37985.9
562.249	37840.49
562.448	38215.27
562.647	37887.59
562.846	37719.66
563.045	38004.33
563.244	37430.9
563.443	37981.8
563.642	37496.43
563.841	37480.05
564.04	37318.26
564.239	37643.88
564.438	37039.73
564.637	37215.86
564.836	37158.52
565.035	36886.14
565.234	37037.69
565.432	36779.64
565.631	36605.56
565.83	37183.09
566.029	36677.24
566.228	36288.13
566.427	36419.2
566.625	36126.34
566.824	35921.54
567.023	35948.17
567.222	35634.83
567.42	36005.51
567.619	36109.96
567.818	35939.97
568.016	35841.67
568.215	35655.31
568.414	35341.97
568.612	35278.48
568.811	35327.63
569.01	35206.8
569.208	34850.45
569.407	35303.06
569.605	34723.48
569.804	34899.61
570.002	34565.79
570.201	34791.06
570.4	34498.2
570.598	34104.99
570.797	34000.55
570.995	34516.64
571.193	33769.13
571.392	34584.22
571.59	33609.39
571.789	34070.18
571.987	33869.48
572.186	33582.76
572.384	33445.55
572.582	33619.63
572.781	33447.6
572.979	32968.37
573.177	33310.38
573.376	32896.69
573.574	32652.98
573.772	33068.72
573.971	32712.38
574.169	32274.11
574.367	32302.78
574.565	32386.75
574.763	32186.05
574.962	32132.8
575.16	31821.51
575.358	32261.82
575.556	31594.18
575.754	31944.39
575.952	31436.49
576.151	32036.55
576.349	31403.72
576.547	31573.7
576.745	31743.69
576.943	31387.34
577.141	31135.44
577.339	31307.47
577.537	31004.37
577.735	30883.54
577.933	31080.14
578.131	30705.37
578.329	30727.89
578.527	30361.31
578.725	30471.9
578.923	30635.74
579.121	30670.55
579.319	30189.28
579.516	30478.04
579.714	30013.15
579.912	30314.2
580.11	29636.33
580.308	29691.62
580.506	30201.57
580.704	29294.32
580.901	29548.26
581.099	29736.68
581.297	29624.04
581.495	29529.83
581.692	29409
581.89	29470.44
582.088	29259.5
582.285	28958.45
582.483	29273.84
582.681	29075.18
582.878	28780.28
583.076	28450.55
583.274	28860.15
583.471	28301.05
583.669	28704.5
583.866	28462.84
584.064	28530.42
584.262	28159.74
584.459	28491.51
584.657	27895.55
584.854	28417.79
585.052	27860.74
585.249	27660.04
585.447	28006.14
585.644	27674.37
585.841	27758.34
586.039	27576.07
586.236	27639.56
586.434	27406.09
586.631	27238.16
586.828	27176.72
587.026	27019.02
587.223	27006.73
587.42	26844.95
587.618	26863.38
587.815	26394.39
588.012	26681.11
588.21	26361.62
588.407	26373.91
588.604	26482.45
588.801	26095.39
588.999	26240.79
589.196	26390.3
589.393	26005.28
589.59	26181.4
589.787	25845.54
589.984	25943.84
590.182	25982.75
590.379	26013.47
590.576	25673.51
590.773	25775.91
590.97	25415.46
591.167	25186.09
591.364	24827.7
591.561	25366.31
591.758	25032.49
591.955	25044.78
592.152	25169.71
592.349	25358.12
592.546	24827.7
592.743	24995.63
592.94	24571.7
593.137	24948.53
593.334	24608.56
593.531	24170.3
593.727	24926
593.924	24567.6
594.121	24115
594.318	24373.05
594.515	24043.32
594.712	24303.42
594.908	23719.74
595.105	24119.1
595.302	23537.48
595.499	24076.09
595.696	23664.45
595.892	24033.08
596.089	23811.9
596.286	23490.37
596.482	23254.86
596.679	23553.86
596.876	23279.43
597.072	23191.37
597.269	22863.69
597.466	22830.93
597.662	23199.56
597.859	22949.71
598.055	22982.48
598.252	23048.01
598.448	22706
598.645	22646.61
598.841	22376.28
599.038	22703.95
599.234	22632.27
599.431	22335.32
599.627	21985.12
599.824	22632.27
600.02	22120.28
600.217	22298.45
600.413	22030.17
600.609	22120.28
600.806	21880.67
601.002	22042.46
601.198	21741.41
601.395	21653.34
601.591	21694.3
601.787	21636.96
601.984	21639.01
602.18	21411.68
602.376	21192.55
602.572	21313.38
602.769	21253.99
602.965	21127.02
603.161	21376.87
603.357	21426.02
603.553	21053.29
603.75	20954.99
603.946	20954.99
604.142	20891.5
604.338	20748.14
604.534	20731.76
604.73	20688.75
604.926	20729.71
605.122	20660.08
605.318	20268.92
605.514	20148.09
605.71	20197.24
605.906	20551.54
606.102	20041.59
606.298	20432.75
606.494	20125.56
606.69	20086.65
606.886	19992.44
607.082	19820.41
607.278	19818.36
607.474	19720.06
607.67	20234.1
607.866	19591.04
608.062	19851.13
608.257	19591.04
608.453	19533.7
608.649	19607.42
608.845	19238.79
609.041	19396.48
609.236	19404.67
609.432	18941.83
609.628	19222.41
609.824	19113.86
610.019	19048.33
610.215	19089.29
610.411	19158.92
610.606	18984.84
610.802	19093.38
610.998	19029.9
611.193	19025.8
611.389	18927.5
611.584	18644.88
611.78	18894.73
611.976	18722.7
612.171	18757.52
612.367	18628.49
612.562	18392.98
612.758	18528.14
612.953	18491.28
613.149	18429.84
613.344	18139.03
613.539	18669.45
613.735	18360.21
613.93	18331.54
614.126	18171.8
614.321	18270.1
614.517	18210.71
614.712	18259.86
614.907	18069.4
615.103	17903.51
615.298	17907.61
615.493	17852.31
615.688	17940.38
615.884	18284.44
616.079	17891.23
616.274	17852.31
616.47	17680.28
616.665	17825.69
616.86	17737.63
617.055	17610.65
617.25	17672.09
617.445	17799.07
617.641	17452.96
617.836	17719.2
618.031	17360.8
618.226	17442.72
618.421	17340.32
618.616	17620.89
618.811	17006.5
619.006	17319.84
619.201	16926.63
619.396	17035.17
619.591	17000.36
619.786	17235.88
619.981	16869.29
620.176	16920.49
620.371	16631.72
620.566	16760.75
620.761	16619.44
620.956	16508.85
621.151	16328.63
621.346	16420.78
621.541	16273.33
621.735	16304.05
621.93	15906.74
622.125	16187.32
622.32	15964.09
622.515	15927.22
622.709	15863.74
622.904	15865.78
623.099	15687.61
623.294	15787.96
623.488	15183.81
623.683	15654.84
623.878	15200.19
624.072	15480.77
624.267	15206.34
624.462	15065.03
624.656	14837.7
624.851	14655.44
625.046	14886.86
625.24	14733.26
625.435	14634.96
625.629	14575.56
625.824	14712.78
626.018	14720.97
626.213	14208.98
626.407	14577.61
626.602	14282.7
626.796	14356.43
626.991	14247.89
627.185	13981.65
627.38	13746.14
627.574	13787.1
627.768	13529.05
627.963	13666.27
628.157	13604.83
628.352	13504.48
628.546	13311.97
628.74	13574.11
628.935	13252.58
629.129	13361.12
629.323	13072.36
629.517	13021.16
629.712	13064.16
629.906	12943.33
630.1	13098.98
630.294	12953.57
630.489	12877.8
630.683	12650.47
630.877	12451.82
631.071	12748.78
631.265	12281.84
631.459	12347.37
631.653	12443.63
631.848	12298.22
632.042	12197.87
632.236	12394.48
632.43	12158.96
632.624	11974.64
632.818	12060.66
633.012	11837.43
633.206	11839.48
633.4	11855.86
633.594	11483.13
633.788	11761.66
633.982	11624.44
634.176	11667.45
634.369	11372.54
634.563	11315.2
634.757	11208.7
634.951	11294.72
635.145	11431.93
635.339	11251.71
635.533	11048.96
635.726	11112.45
635.92	11046.91
636.114	11184.13
636.308	10823.69
636.501	10989.57
636.695	10969.09
636.889	10872.84
637.083	10657.8
637.276	10629.13
637.47	10459.15
637.664	10371.08
637.857	10610.7
638.051	10432.52
638.244	10434.57
638.438	10457.1
638.632	10133.52
638.825	10209.29
639.019	10252.3
639.212	10041.36
639.406	10127.38
639.599	10012.69
639.793	9924.63
639.986	9789.46
640.18	9719.83
640.373	9717.78
640.567	9648.15
640.76	9754.65
640.954	9496.6
641.147	9566.23
641.34	9375.77
641.534	9330.72
641.727	9484.31
641.92	9494.55
642.114	9134.11
642.307	9205.79
642.5	9138.21
642.694	9107.49
642.887	9025.57
643.08	9041.95
643.273	8986.66
643.467	8894.5
643.66	8831.01
643.853	8949.79
644.046	8714.28
644.239	8695.85
644.432	8568.87
644.626	8609.83
644.819	8681.51
645.012	8536.1
645.205	8648.74
645.398	8392.75
645.591	8400.94
645.784	8310.83
645.977	8400.94
646.17	8228.91
646.363	8142.89
646.556	8083.5
646.749	8087.6
646.942	8030.26
647.135	8005.68
647.328	7950.39
647.521	7972.91
647.714	7755.83
647.907	7940.15
648.099	7882.8
648.292	7921.71
648.485	7798.84
648.678	7587.89
648.871	7786.55
649.064	7557.18
649.256	7659.57
649.449	7694.39
649.642	7495.74
649.835	7489.59
650.027	7364.67
650.22	7448.63
650.413	7299.13
650.605	7270.46
650.798	7184.45
650.991	7209.02
651.183	7247.93
651.376	7090.24
651.568	7237.69
651.761	7024.7
651.954	7137.34
652.146	6963.26
652.339	7020.61
652.531	7065.66
652.724	6926.4
652.916	6654.02
653.109	6805.57
653.301	6797.38
653.494	6809.67
653.686	6481.99
653.879	6565.96
654.071	6645.83
654.263	6502.47
654.456	6414.41
654.648	6613.06
654.84	6502.47
655.033	6408.26
655.225	6531.14
655.417	6375.5
655.61	6471.75
655.802	6402.12
655.994	6336.59
656.186	6115.41
656.379	6330.44
656.571	6344.78
656.763	6203.47
656.955	6340.68
657.148	6228.04
657.34	6160.46
657.532	5963.86
657.724	6021.2
657.916	6129.74
658.108	5918.8
658.3	5875.79
658.492	5933.14
658.684	5683.28
658.876	5828.69
659.068	5873.75
659.26	5666.9
659.452	5761.11
659.644	5883.98
659.836	5699.67
660.028	5681.24
660.22	5621.84
660.412	5648.47
660.604	5584.98
660.796	5589.08
660.988	5789.78
661.18	5337.18
661.372	5429.34
661.563	5527.64
661.755	5355.61
661.947	5478.49
662.139	5511.25
662.331	5341.27
662.522	5259.35
662.714	5314.65
662.906	5269.59
663.097	5242.97
663.289	5238.87
663.481	5089.37
663.673	5312.6
663.864	5136.48
664.056	5058.65
664.247	5181.53
664.439	5099.61
664.631	5193.82
664.822	4956.26
665.014	5062.75
665.205	4956.26
665.397	4982.88
665.588	4886.62
665.78	4962.4
665.971	4950.11
666.163	5011.55
666.354	4862.05
666.546	4903.01
666.737	4687.97
666.929	4755.55
667.12	4804.71
667.311	4827.23
667.503	4573.28
667.694	4769.89
667.885	4741.22
668.077	4767.84
668.268	4687.97
668.459	4614.24
668.651	4771.94
668.842	4741.22
669.033	4577.38
669.224	4608.1
669.416	4632.68
669.607	4599.91
669.798	4665.44
669.989	4702.31
670.18	4489.32
670.371	4536.42
670.563	4427.88
670.754	4517.99
670.945	4493.41
671.136	4507.75
671.327	4278.38
671.518	4300.91
671.709	4464.74
671.9	4436.07
672.091	4456.55
672.282	4399.21
672.473	4302.95
672.664	4466.79
672.855	4208.75
673.046	4247.66
673.237	4294.76
673.428	4255.85
673.619	4305
673.809	4190.31
674	4333.67
674.191	4319.34
674.382	4208.75
674.573	4114.54
674.764	4186.22
674.954	4218.99
675.145	4173.93
675.336	4151.4
675.527	4143.21
675.717	4198.51
675.908	4089.96
676.099	4116.59
676.289	4212.84
676.48	4159.6
676.671	4063.34
676.861	4116.59
677.052	4141.16
677.243	4155.5
677.433	4128.88
677.624	4339.82
677.814	4003.95
678.005	4155.5
678.195	4055.15
678.386	4132.97
678.576	4016.24
678.767	4051.05
678.957	4139.12
679.148	4171.88
679.338	4233.32
679.529	4141.16
679.719	4053.1
679.909	4022.38
680.1	3944.56
680.29	4145.26
680.481	4077.68
680.671	4149.36
680.861	3940.46
681.052	3983.47
681.242	4102.25
681.432	4180.07
681.622	3940.46
681.813	3981.42
682.003	4102.25
682.193	4026.48
682.383	3993.71
682.573	4022.38
682.764	4042.86
682.954	4106.35
683.144	3967.09
683.334	3917.93
683.524	3903.6
683.714	4180.07
683.904	3942.51
684.094	3940.46
684.284	3985.52
684.474	4124.78
684.664	3985.52
684.854	3807.34
685.044	4032.62
685.234	3813.49
685.424	3956.85
685.614	3901.55
685.804	3919.98
685.994	3922.03
686.184	4003.95
686.374	3930.22
686.564	3727.47
686.753	3813.49
686.943	3750
687.133	3879.02
687.323	3811.44
687.513	3795.06
687.702	3799.15
687.892	3657.84
688.082	3711.09
688.272	3799.15
688.461	3661.94
688.651	3727.47
688.841	3633.27
689.03	3672.18
689.22	3565.68
689.41	3629.17
689.599	3502.2
689.789	3549.3
689.979	3573.88
690.168	3541.11
690.358	3524.72
690.547	3489.91
690.737	3580.02
690.926	3616.88
691.116	3498.1
691.305	3543.16
691.495	3405.94
691.684	3340.41
691.874	3301.5
692.063	3414.13
692.252	3387.51
692.442	3379.32
692.631	3250.3
692.82	3364.98
693.01	3360.89
693.199	3172.47
693.388	3149.95
693.578	3313.78
693.767	3299.45
693.956	3233.91
694.146	3291.26
694.335	3305.59
694.524	3358.84
694.713	3221.63
694.902	3143.8
695.092	3233.91
695.281	3063.93
695.47	3240.06
695.659	3125.37
695.848	3211.39
696.037	3076.22
696.226	3113.08
696.415	3094.65
696.604	3162.23
696.793	3063.93
696.982	3086.46
697.171	3231.87
697.36	3014.78
697.549	3033.21
697.738	3119.23
697.927	3065.98
698.116	3106.94
698.305	3090.56
698.494	3168.38
698.683	3037.31
698.872	3035.26
699.061	3131.51
699.25	3111.04
699.438	3020.92
699.627	3051.64
699.816	3131.51
700.005	2953.34
700.193	3074.17
700.382	3051.64
700.571	3117.18
700.76	3068.03
700.948	3027.07
701.137	3002.49
701.326	3070.08
701.514	3008.64
701.703	3057.79
701.892	2955.39
702.08	3020.92
702.269	2994.3
702.457	3006.59
702.646	3074.17
702.834	2973.82
703.023	2988.16
703.212	2975.87
703.4	2982.01
703.589	2963.58
703.777	3020.92
703.965	3035.26
704.154	3029.12
704.342	3049.6
704.531	2951.29
704.719	3053.69
704.907	3041.4
705.096	3031.16
705.284	3027.07
705.472	2916.48
705.661	3020.92
705.849	3049.6
706.037	3111.04
706.226	2982.01
706.414	2994.3
706.602	2930.81
706.79	3065.98
706.979	2877.57
707.167	3057.79
707.355	2912.38
707.543	3031.16
707.731	3108.99
707.919	3133.56
708.107	3016.83
708.296	2945.15
708.484	3082.36
708.672	3010.68
708.86	2973.82
709.048	3051.64
709.236	3010.68
709.424	3180.67
709.612	3098.75
709.8	3127.42
709.988	3006.59
710.176	3094.65
710.364	3092.6
710.551	3108.99
710.739	3119.23
710.927	3145.85
711.115	3172.47
711.303	3131.51
711.491	3065.98
711.679	3059.84
711.866	3076.22
712.054	3049.6
712.242	3004.54
712.43	3158.14
712.617	3072.12
712.805	3070.08
712.993	3260.54
713.181	3117.18
713.368	3102.84
713.556	3252.35
713.744	2994.3
713.931	3373.18
714.119	3086.46
714.306	3012.73
714.494	3145.85
714.682	3108.99
714.869	3047.55
715.057	3162.23
715.244	3115.13
715.432	3098.75
715.619	3125.37
715.807	3053.69
715.994	2971.77
716.182	2977.92
716.369	3201.15
716.556	3151.99
716.744	3053.69
716.931	3108.99
717.119	3258.49
717.306	3188.86
717.493	3080.32
717.681	3135.61
717.868	3166.33
718.055	3213.43
718.242	3190.91
718.43	3176.57
718.617	3174.52
718.804	3199.1
718.991	3278.97
719.179	3227.77
719.366	3246.2
719.553	3254.39
719.74	3276.92
719.927	3182.71
720.114	3125.37
720.301	3317.88
720.488	3139.71
720.676	3123.32
720.863	3231.87
721.05	3278.97
721.237	3211.39
721.424	3246.2
721.611	3268.73
721.798	3190.91
721.985	3145.85
722.172	3235.96
722.358	3346.55
722.545	3137.66
722.732	3186.81
722.919	3301.5
723.106	3283.06
723.293	3362.94
723.48	3199.1
723.667	3246.2
723.853	3356.79
724.04	3278.97
724.227	3387.51
724.414	3115.13
724.6	3184.76
724.787	3221.63
724.974	3328.12
725.161	3260.54
725.347	3174.52
725.534	3377.27
725.72	3283.06
725.907	3143.8
726.094	3414.13
726.28	3356.79
726.467	3287.16
726.653	3301.5
726.84	3543.16
727.027	3453.05
727.213	3207.29
727.4	3350.65
727.586	3260.54
727.773	3336.31
727.959	3289.21
728.145	3491.96
728.332	3360.89
728.518	3301.5
728.705	3397.75
728.891	3389.56
729.077	3508.34
729.264	3299.45
729.45	3410.04
729.636	3543.16
729.823	3453.05
730.009	3383.42
730.195	3291.26
730.382	3432.57
730.568	3350.65
730.754	3360.89
730.94	3416.18
731.126	3489.91
731.313	3594.36
731.499	3446.9
731.685	3465.33
731.871	3379.32
732.057	3559.54
732.243	3375.22
732.429	3424.37
732.615	3518.58
732.801	3387.51
732.987	3375.22
733.173	3473.53
733.359	3338.36
733.545	3463.29
733.731	3317.88
733.917	3549.3
734.103	3528.82
734.289	3469.43
734.475	3498.1
734.661	3563.64
734.847	3459.19
735.033	3387.51
735.219	3448.95
735.404	3407.99
735.59	3297.4
735.776	3377.27
735.962	3573.88
736.148	3385.46
736.333	3496.05
736.519	3338.36
736.705	3389.56
736.89	3438.71
737.076	3491.96
737.262	3373.18
737.447	3385.46
737.633	3391.61
737.819	3420.28
738.004	3438.71
738.19	3520.63
738.375	3395.7
738.561	3491.96
738.747	3459.19
738.932	3414.13
739.118	3383.42
739.303	3518.58
739.489	3416.18
739.674	3324.02
739.859	3346.55
740.045	3278.97
740.23	3391.61
740.416	3407.99
740.601	3541.11
740.786	3258.49
740.972	3375.22
741.157	3424.37
741.342	3195
741.528	3281.02
741.713	3420.28
741.898	3430.52
742.084	3281.02
742.269	3311.74
742.454	3272.82
742.639	3360.89
742.824	3205.24
743.01	3342.46
743.195	3369.08
743.38	3201.15
743.565	3274.87
743.75	3278.97
743.935	3166.33
744.12	3213.43
744.305	3082.36
744.49	3135.61
744.675	3246.2
744.86	3070.08
745.045	3063.93
745.23	3121.28
745.415	3070.08
745.6	3084.41
745.785	3197.05
745.97	3108.99
746.155	3051.64
746.34	3229.82
746.525	3072.12
746.71	2975.87
746.895	3022.97
747.079	3057.79
747.264	3006.59
747.449	2930.81
747.634	2965.63
747.819	3020.92
748.003	2789.5
748.188	3022.97
748.373	3047.55
748.557	2807.94
748.742	2812.03
748.927	2875.52
749.111	2789.5
749.296	2795.65
749.481	2873.47
749.665	2762.88
749.85	2789.5
750.034	2621.57
750.219	2773.12
750.404	2728.07
750.588	2754.69
750.773	2746.5
750.957	2642.05
751.141	2644.1
751.326	2590.85
751.51	2654.34
751.695	2711.68
751.879	2558.08
752.064	2578.56
752.248	2637.95
752.432	2603.14
752.617	2492.55
752.801	2496.64
752.985	2457.73
753.17	2371.72
753.354	2418.82
753.538	2420.87
753.722	2521.22
753.907	2480.26
754.091	2312.33
754.275	2306.18
754.459	2459.78
754.643	2236.55
754.828	2267.27
755.012	2267.27
755.196	2244.74
755.38	2304.14
755.564	2152.59
755.748	2099.34
755.932	2285.7
756.116	2199.69
756.3	2244.74
756.484	2252.94
756.668	2230.41
756.852	2097.29
757.036	2085
757.22	2150.54
757.404	2031.76
757.588	2109.58
757.772	2044.04
757.956	1962.12
758.14	2066.57
758.323	2044.04
758.507	2117.77
758.691	1974.41
758.875	2052.24
759.059	2091.15
759.242	2003.08
759.426	1933.45
759.61	1880.21
759.794	1960.08
759.977	1998.99
760.161	2060.43
760.345	1898.64
760.528	1888.4
760.712	1796.24
760.895	1869.97
761.079	1941.65
761.263	1925.26
761.446	1841.29
761.63	1884.3
761.813	1824.91
761.997	1742.99
762.18	1833.1
762.364	1710.22
762.547	1802.38
762.731	1816.72
762.914	1814.67
763.098	1667.22
763.281	1738.9
763.464	1714.32
763.648	1708.18
763.831	1745.04
764.015	1775.76
764.198	1689.74
764.381	1675.41
764.564	1659.03
764.748	1663.12
764.931	1609.87
765.114	1642.64
765.297	1716.37
765.481	1671.31
765.664	1605.78
765.847	1530
766.03	1613.97
766.213	1548.44
766.397	1646.74
766.58	1556.63
766.763	1556.63
766.946	1601.68
767.129	1554.58
767.312	1509.52
767.495	1599.63
767.678	1532.05
767.861	1511.57
768.044	1505.43
768.227	1607.83
768.41	1552.53
768.593	1554.58
768.776	1421.46
768.959	1515.67
769.142	1462.42
769.324	1400.98
769.507	1407.13
769.69	1413.27
769.873	1515.67
770.056	1380.5
770.239	1454.23
770.421	1558.67
770.604	1472.66
770.787	1400.98
770.97	1484.95
771.152	1360.02
771.335	1439.89
771.518	1288.34
771.7	1452.18
771.883	1380.5
772.066	1321.11
772.248	1355.93
772.431	1403.03
772.613	1390.74
772.796	1280.15
772.978	1441.94
773.161	1347.73
773.343	1280.15
773.526	1292.44
773.708	1335.45
773.891	1319.06
774.073	1263.77
774.256	1247.38
774.438	1251.48
774.621	1319.06
774.803	1267.86
774.985	1253.53
775.168	1218.71
775.35	1284.25
775.532	1196.18
775.715	1228.95
775.897	1200.28
776.079	1208.47
776.261	1208.47
776.444	1153.18
776.626	1042.59
776.808	1175.7
776.99	1106.07
777.173	1144.99
777.355	1126.55
777.537	1112.22
777.719	1140.89
777.901	1067.16
778.083	1126.55
778.265	989.34
778.447	1099.93
778.629	1120.41
778.811	1061.02
778.993	1097.88
779.175	1005.72
779.357	1048.73
779.539	1007.77
779.721	1063.07
779.903	1085.59
780.085	958.62
780.267	993.44
780.449	960.67
780.631	960.67
780.812	1032.35
780.994	860.32
781.176	927.9
781.358	932
781.54	940.19
781.721	981.15
781.903	966.81
782.085	874.65
782.267	843.93
782.448	880.8
782.63	852.13
782.812	841.89
782.993	835.74
783.175	841.89
783.357	907.42
783.538	850.08
783.72	757.92
783.901	735.39
784.083	843.93
784.264	903.32
784.446	739.49
784.627	772.25
784.809	835.74
784.99	776.35
785.172	759.97
785.353	704.67
785.535	784.54
785.716	716.96
785.897	780.45
786.079	714.91
786.26	817.31
786.441	747.68
786.623	739.49
786.804	733.34
786.985	686.24
787.167	700.58
787.348	663.71
787.529	577.7
787.71	741.54
787.891	653.47
788.073	700.58
788.254	719.01
788.435	620.71
788.616	712.86
788.797	628.9
788.978	661.66
789.159	708.77
789.34	684.19
789.522	604.32
789.703	553.12
789.884	628.9
790.065	653.47
790.246	667.81
790.427	649.38
790.607	538.79
790.788	643.23
790.969	600.23
791.15	608.42
791.331	628.9
791.512	510.11
791.693	516.26
791.874	581.79
792.054	604.32
792.235	714.91
792.416	471.2
792.597	626.85
792.778	528.55
792.958	524.45
793.139	618.66
793.32	553.12
793.5	534.69
793.681	647.33
793.862	497.83
794.042	508.07
794.223	432.29
794.404	549.03
794.584	469.16
794.765	458.92
794.945	575.65
795.126	540.83
795.306	538.79
795.487	520.35
795.667	512.16
795.848	450.72
796.028	381.09
796.209	489.64
796.389	559.27
796.57	456.87
796.75	463.01
796.93	530.59
797.111	473.25
797.291	454.82
797.471	463.01
797.652	463.01
797.832	395.43
798.012	485.54
798.192	409.76
798.373	346.28
798.553	458.92
798.733	516.26
798.913	395.43
799.093	487.59
799.274	506.02
799.454	370.85
799.634	424.1
799.814	467.11
799.994	411.81
800.174	456.87
800.354	354.47
800.534	321.7
800.714	411.81
800.894	352.42
801.074	450.72
801.254	448.68
801.434	393.38
801.614	383.14
801.794	379.04
801.974	1147.03
802.154	385.19
802.334	327.85
802.514	399.52
802.693	364.71
802.873	272.55
803.053	456.87
803.233	403.62
803.413	393.38
803.592	325.8
803.772	426.15
803.952	399.52
804.131	293.03
804.311	321.7
804.491	391.33
804.67	387.24
804.85	288.93
805.03	342.18
805.209	413.86
805.389	397.48
805.568	370.85
805.748	350.37
805.928	305.32
806.107	409.76
806.287	286.89
806.466	239.78
806.646	395.43
806.825	307.37
807.004	305.32
807.184	297.13
807.363	385.19
807.543	327.85
807.722	280.74
807.901	438.44
808.081	346.28
808.26	264.36
808.439	276.65
808.619	323.75
808.798	260.26
808.977	278.69
809.156	360.61
809.336	225.45
809.515	344.23
809.694	268.45
809.873	290.98
810.052	362.66
810.231	323.75
810.411	270.5
810.59	305.32
810.769	356.52
810.948	307.37
811.127	264.36
811.306	264.36
811.485	301.22
811.664	295.08
811.843	360.61
812.022	288.93
812.201	305.32
812.38	180.39
812.559	305.32
812.737	321.7
812.916	223.4
813.095	198.82
813.274	260.26
813.453	303.27
813.632	237.74
813.811	272.55
813.989	194.73
814.168	305.32
814.347	309.41
814.526	237.74
814.704	237.74
814.883	295.08
815.062	170.15
815.24	303.27
815.419	247.97
815.598	254.12
815.776	161.96
815.955	270.5
816.133	213.16
816.312	180.39
816.49	264.36
816.669	280.74
816.847	221.35
817.026	229.54
817.204	319.65
817.383	280.74
817.561	200.87
817.74	290.98
817.918	196.78
818.097	211.11
818.275	157.86
818.453	258.21
818.632	274.6
818.81	262.31
818.988	211.11
819.167	157.86
819.345	180.39
819.523	213.16
819.701	186.54
819.879	268.45
820.058	176.3
820.236	250.02
820.414	192.68
820.592	280.74
820.77	127.14
820.948	215.21
821.127	141.48
821.305	215.21
821.483	133.29
821.661	227.5
821.839	204.97
822.017	172.2
822.195	151.72
822.373	184.49
822.551	252.07
822.729	239.78
822.907	188.58
823.085	254.12
823.262	129.19
823.44	239.78
823.618	196.78
823.796	186.54
823.974	219.3
824.152	168.1
824.329	184.49
824.507	204.97
824.685	305.32
824.863	129.19
825.04	204.97
825.218	215.21
825.396	106.67
825.574	125.1
825.751	61.61
825.929	204.97
826.107	114.86
826.284	194.73
826.462	143.53
826.639	170.15
826.817	88.23
826.994	186.54
827.172	149.67
827.349	127.14
827.527	94.38
827.704	149.67
827.882	188.58
828.059	204.97
828.237	118.95
828.414	256.17
828.591	123.05
828.769	194.73
828.946	131.24
829.124	174.25
829.301	108.71
829.478	123.05
829.655	159.91
829.833	137.38
830.01	118.95
830.187	188.58
830.364	198.82
830.542	184.49
830.719	202.92
830.896	159.91
831.073	129.19
831.25	174.25
831.427	145.58
831.604	155.82
831.782	133.29
831.959	184.49
832.136	82.09
832.313	123.05
832.49	190.63
832.667	110.76
832.844	127.14
833.021	172.2
833.198	127.14
833.374	180.39
833.551	104.62
833.728	121
833.905	225.45
834.082	88.23
834.259	69.8
834.436	123.05
834.612	32.94
834.789	80.04
834.966	112.81
835.143	153.77
835.319	106.67
835.496	164.01
835.673	118.95
835.85	221.35
836.026	141.48
836.203	141.48
836.38	145.58
836.556	69.8
836.733	168.1
836.909	151.72
837.086	188.58
837.262	51.37
837.439	196.78
837.616	112.81
837.792	102.57
837.968	110.76
838.145	116.9
838.321	145.58
838.498	174.25
838.674	225.45
838.851	174.25
839.027	133.29
839.203	112.81
839.38	207.02
839.556	26.79
839.732	114.86
839.909	57.51
840.085	112.81
840.261	73.9
840.437	190.63
840.614	98.47
840.79	135.34
840.966	174.25
841.142	159.91
841.318	96.43
841.494	88.23
841.671	73.9
841.847	168.1
842.023	118.95
842.199	77.99
842.375	116.9
842.551	131.24
842.727	135.34
842.903	184.49
843.079	77.99
843.255	147.62
843.431	94.38
843.607	92.33
843.783	90.28
843.959	104.62
844.134	49.32
844.31	125.1
844.486	139.43
844.662	67.75
844.838	28.84
845.013	98.47
845.189	127.14
845.365	110.76
845.541	114.86
845.716	63.66
845.892	80.04
846.068	84.14
846.244	98.47
846.419	123.05
846.595	135.34
846.77	26.79
846.946	129.19
847.122	90.28
847.297	84.14
847.473	219.3
847.648	22.7
847.824	47.27
847.999	75.95
848.175	37.03
848.35	67.75
848.526	63.66
848.701	137.38
848.876	98.47
849.052	118.95
849.227	65.71
849.403	84.14
849.578	96.43
849.753	0.17
849.929	96.43
850.104	63.66
850.279	77.99
850.454	75.95
850.63	63.66
850.805	61.61
850.98	121
851.155	59.56
851.33	75.95
851.505	73.9
851.681	135.34
851.856	14.51
852.031	80.04
852.206	51.37
852.381	49.32
852.556	75.95
852.731	71.85
852.906	-8.02
853.081	100.52
853.256	116.9
853.431	55.47
853.606	-8.02
853.781	73.9
853.956	-20.31
854.131	114.86
854.305	34.99
854.48	80.04
854.655	18.6
854.83	8.36
855.005	49.32
855.18	155.82
855.354	102.57
855.529	133.29
855.704	69.8
855.879	67.75
856.053	4.27
856.228	127.14
856.403	59.56
856.577	137.38
856.752	24.75
856.926	-12.12
857.101	82.09
857.276	127.14
857.45	96.43
857.625	174.25
857.799	114.86
857.974	104.62
858.148	14.51
858.323	26.79
858.497	57.51
858.672	112.81
858.846	61.61
859.02	73.9
859.195	49.32
859.369	86.19
859.543	63.66
859.718	112.81
859.892	47.27
860.066	-24.4
860.241	4.27
860.415	123.05
860.589	18.6
860.763	47.27
860.938	82.09
861.112	47.27
861.286	12.46
861.46	37.03
861.634	4.27
861.808	108.71
861.982	55.47
862.157	14.51
862.331	51.37
862.505	6.31
862.679	-14.17
862.853	75.95
863.027	92.33
863.201	98.47
863.375	18.6
863.549	57.51
863.722	47.27
863.896	59.56
864.07	100.52
864.244	65.71
864.418	96.43
864.592	75.95
864.766	80.04
864.939	6.31
865.113	96.43
865.287	108.71
865.461	67.75
865.634	18.6
865.808	65.71
865.982	67.75
866.156	-1.88
866.329	69.8
866.503	10.41
866.676	39.08
866.85	49.32
867.024	8.36
867.197	67.75
867.371	61.61
867.544	100.52
867.718	45.23
867.891	69.8
868.065	26.79
868.238	63.66
868.412	77.99
868.585	41.13
868.759	-3.93
868.932	53.42
869.105	71.85
869.279	86.19
869.452	-48.98
869.625	73.9
869.799	10.41
869.972	28.84
870.145	37.03
870.319	84.14
870.492	18.6
870.665	106.67
870.838	6.31
871.011	-16.21
871.185	67.75
871.358	-65.36
871.531	-22.36
871.704	12.46
871.877	55.47
872.05	-36.69
872.223	43.18
872.396	28.84
872.569	112.81
872.742	-44.88
872.915	51.37
873.088	8.36
873.261	49.32
873.434	71.85
873.607	61.61
873.78	65.71
873.953	51.37
874.126	6.31
874.299	-14.17
874.471	-28.5
874.644	24.75
874.817	18.6
874.99	151.72
875.163	2.22
875.335	-1.88
875.508	53.42
875.681	88.23
875.853	41.13
876.026	39.08
876.199	49.32
876.371	41.13
876.544	4.27
876.717	100.52
876.889	28.84
877.062	116.9
877.234	-75.6
877.407	2.22
877.579	51.37
877.752	67.75
877.924	4.27
878.097	24.75
878.269	18.6
878.442	-71.51
878.614	6.31
878.786	8.36
878.959	80.04
879.131	82.09
879.303	-16.21
879.476	77.99
879.648	24.75
879.82	14.51
879.993	20.65
880.165	57.51
880.337	-28.5
880.509	14.51
880.681	14.51
880.854	12.46
881.026	63.66
881.198	34.99
881.37	8.36
881.542	8.36
881.714	-5.97
881.886	4.27
882.058	24.75
882.23	45.23
882.402	61.61
882.574	20.65
882.746	-3.93
882.918	61.61
883.09	84.14
883.262	20.65
883.434	55.47
883.606	-18.26
883.778	16.55
883.95	10.41
884.122	-22.36
884.293	37.03
884.465	34.99
884.637	106.67
884.809	16.55
884.98	14.51
885.152	26.79
885.324	-18.26
885.496	-1.88
885.667	14.51
885.839	30.89
886.011	-18.26
886.182	32.94
886.354	22.7
886.525	18.6
886.697	86.19
886.869	20.65
887.04	71.85
887.212	104.62
887.383	77.99
887.555	4.27
887.726	51.37
887.897	-5.97
888.069	43.18
888.24	26.79
888.412	39.08
888.583	77.99
888.754	0.17
888.926	-53.08
889.097	14.51
889.268	14.51
889.44	26.79
889.611	12.46
889.782	34.99
889.953	-20.31
890.125	129.19
890.296	12.46
890.467	45.23
890.638	39.08
890.809	22.7
890.98	75.95
891.151	26.79
891.323	34.99
891.494	49.32
891.665	-38.74
891.836	34.99
892.007	6.31
892.178	-10.07
892.349	-44.88
892.52	0.17
892.691	45.23
892.862	34.99
893.032	77.99
893.203	24.75
893.374	22.7
893.545	0.17
893.716	-18.26
893.887	20.65
894.057	-30.55
894.228	14.51
894.399	14.51
894.57	-3.93
894.74	34.99
894.911	53.42
895.082	18.6
895.253	-16.21
895.423	-100.18
895.594	71.85
895.764	41.13
895.935	10.41
896.106	34.99
896.276	57.51
896.447	57.51
896.617	-3.93
896.788	-10.07
896.958	55.47
897.129	92.33
897.299	24.75
897.47	100.52
897.64	77.99
897.81	49.32
897.981	18.6
898.151	0.17
898.322	34.99
898.492	90.28
898.662	-65.36
898.832	30.89
899.003	100.52
899.173	57.51
899.343	2.22
899.513	32.94
