Data from USB4F104151__94__12-24-55-572.txt Node

Date: Fri Mar 14 12:24:55 EDT 2025
User: louis
Spectrometer: USB4F10415
Trigger mode: 4
Integration Time (sec): 3.500000E-2
Scans to average: 1
Electric dark correction enabled: true
Nonlinearity correction enabled: false
Boxcar width: 0
XAxis mode: Wavelengths
Number of Pixels in Spectrum: 3648
>>>>>Begin Spectral Data<<<<<
178.204	-79.36
178.424	-79.36
178.644	-79.36
178.864	-189.95
179.084	-65.02
179.304	-46.59
179.524	-79.36
179.744	-26.11
179.964	166.4
180.184	-9.73
180.404	70.14
180.624	-5.63
180.844	-32.26
181.064	-36.35
181.283	39.42
181.503	-38.4
181.723	-1.54
181.943	43.52
182.163	92.67
182.383	27.14
182.602	78.33
182.822	47.62
183.042	68.09
183.262	-1.54
183.482	55.81
183.701	41.47
183.921	47.62
184.141	-101.89
184.361	70.14
184.58	-7.68
184.8	141.82
185.02	59.9
185.239	6.66
185.459	57.86
185.679	33.28
185.898	23.04
186.118	49.66
186.338	88.57
186.557	18.94
186.777	45.57
186.997	23.04
187.216	16.9
187.436	123.39
187.655	102.91
187.875	84.48
188.095	-28.16
188.314	61.95
188.534	25.09
188.753	39.42
188.973	78.33
189.192	25.09
189.412	12.8
189.631	86.53
189.851	57.86
190.07	49.66
190.29	20.99
190.509	57.86
190.729	107.01
190.948	68.09
191.168	207.36
191.387	51.71
191.607	-69.12
191.826	57.86
192.045	2.56
192.265	-11.78
192.484	-46.59
192.704	20.99
192.923	-30.21
193.142	164.35
193.362	76.29
193.581	131.58
193.8	150.01
194.02	70.14
194.239	-7.68
194.458	20.99
194.678	55.81
194.897	37.38
195.116	-13.82
195.335	16.9
195.555	39.42
195.774	25.09
195.993	51.71
196.212	-9.73
196.432	18.94
196.651	0.51
196.87	47.62
197.089	72.19
197.308	72.19
197.528	104.96
197.747	88.57
197.966	70.14
198.185	64
198.404	-30.21
198.623	76.29
198.842	64
199.062	82.43
199.281	64
199.5	43.52
199.719	82.43
199.938	156.16
200.157	92.67
200.376	18.94
200.595	78.33
200.814	45.57
201.033	47.62
201.252	68.09
201.471	20.99
201.69	98.81
201.909	2.56
202.128	86.53
202.347	6.66
202.566	59.9
202.785	35.33
203.004	43.52
203.223	166.4
203.442	66.05
203.661	49.66
203.879	-38.4
204.098	64
204.317	-46.59
204.536	125.44
204.755	59.9
204.974	29.18
205.193	107.01
205.411	131.58
205.63	18.94
205.849	39.42
206.068	25.09
206.287	53.76
206.505	72.19
206.724	37.38
206.943	-17.92
207.162	-42.5
207.381	-7.68
207.599	53.76
207.818	4.61
208.037	70.14
208.255	43.52
208.474	53.76
208.693	8.7
208.911	-5.63
209.13	8.7
209.349	-17.92
209.567	154.11
209.786	90.62
210.005	57.86
210.223	31.23
210.442	53.76
210.661	33.28
210.879	59.9
211.098	2.56
211.316	80.38
211.535	51.71
211.753	78.33
211.972	-5.63
212.191	6.66
212.409	18.94
212.628	86.53
212.846	25.09
213.065	72.19
213.283	127.49
213.502	68.09
213.72	-69.12
213.938	41.47
214.157	25.09
214.375	37.38
214.594	35.33
214.812	64
215.031	100.86
215.249	41.47
215.467	49.66
215.686	104.96
215.904	55.81
216.122	84.48
216.341	68.09
216.559	96.77
216.778	104.96
216.996	43.52
217.214	-30.21
217.432	27.14
217.651	16.9
217.869	55.81
218.087	55.81
218.306	-26.11
218.524	47.62
218.742	8.7
218.96	-9.73
219.179	33.28
219.397	25.09
219.615	92.67
219.833	43.52
220.051	-54.78
220.27	113.15
220.488	47.62
220.706	74.24
220.924	-13.82
221.142	55.81
221.36	-3.58
221.578	37.38
221.796	51.71
222.015	76.29
222.233	6.66
222.451	59.9
222.669	68.09
222.887	-1.54
223.105	-11.78
223.323	8.7
223.541	27.14
223.759	-24.06
223.977	37.38
224.195	78.33
224.413	51.71
224.631	39.42
224.849	35.33
225.067	43.52
225.285	-56.83
225.503	35.33
225.721	-19.97
225.939	74.24
226.157	-5.63
226.375	113.15
226.592	-1.54
226.81	64
227.028	135.68
227.246	98.81
227.464	53.76
227.682	66.05
227.9	8.7
228.117	-32.26
228.335	25.09
228.553	39.42
228.771	37.38
228.989	8.7
229.206	59.9
229.424	33.28
229.642	72.19
229.86	20.99
230.077	39.42
230.295	64
230.513	86.53
230.731	66.05
230.948	35.33
231.166	86.53
231.384	29.18
231.601	39.42
231.819	78.33
232.037	57.86
232.254	18.94
232.472	100.86
232.689	-9.73
232.907	139.77
233.125	-7.68
233.342	-22.02
233.56	86.53
233.777	-7.68
233.995	113.15
234.213	41.47
234.43	90.62
234.648	41.47
234.865	47.62
235.083	47.62
235.3	6.66
235.518	64
235.735	123.39
235.953	68.09
236.17	23.04
236.388	-44.54
236.605	100.86
236.822	145.92
237.04	37.38
237.257	31.23
237.475	6.66
237.692	70.14
237.909	23.04
238.127	74.24
238.344	51.71
238.562	37.38
238.779	-36.35
238.996	10.75
239.214	14.85
239.431	57.86
239.648	43.52
239.865	68.09
240.083	59.9
240.3	59.9
240.517	37.38
240.735	20.99
240.952	47.62
241.169	74.24
241.386	59.9
241.603	76.29
241.821	0.51
242.038	127.49
242.255	70.14
242.472	-22.02
242.689	96.77
242.907	12.8
243.124	4.61
243.341	8.7
243.558	-3.58
243.775	12.8
243.992	-36.35
244.209	37.38
244.426	76.29
244.643	-3.58
244.86	-1.54
245.078	64
245.295	43.52
245.512	74.24
245.729	-15.87
245.946	39.42
246.163	23.04
246.38	43.52
246.597	25.09
246.814	43.52
247.031	59.9
247.248	35.33
247.464	41.47
247.681	35.33
247.898	12.8
248.115	20.99
248.332	-24.06
248.549	102.91
248.766	72.19
248.983	78.33
249.2	31.23
249.417	66.05
249.633	10.75
249.85	6.66
250.067	90.62
250.284	49.66
250.501	-17.92
250.717	57.86
250.934	-17.92
251.151	41.47
251.368	14.85
251.585	14.85
251.801	-13.82
252.018	-22.02
252.235	29.18
252.451	16.9
252.668	39.42
252.885	29.18
253.102	47.62
253.318	-22.02
253.535	39.42
253.752	27.14
253.968	-3.58
254.185	4.61
254.401	27.14
254.618	92.67
254.835	-15.87
255.051	68.09
255.268	16.9
255.484	31.23
255.701	68.09
255.917	162.3
256.134	45.57
256.351	27.14
256.567	-13.82
256.784	35.33
257	14.85
257.217	82.43
257.433	53.76
257.65	66.05
257.866	82.43
258.082	57.86
258.299	12.8
258.515	35.33
258.732	37.38
258.948	39.42
259.165	74.24
259.381	-15.87
259.597	4.61
259.814	47.62
260.03	25.09
260.246	16.9
260.463	-36.35
260.679	51.71
260.895	-5.63
261.112	82.43
261.328	123.39
261.544	-11.78
261.761	109.05
261.977	41.47
262.193	-24.06
262.409	119.29
262.626	-15.87
262.842	-26.11
263.058	70.14
263.274	139.77
263.49	35.33
263.707	27.14
263.923	16.9
264.139	-5.63
264.355	23.04
264.571	-1.54
264.787	61.95
265.004	125.44
265.22	-11.78
265.436	64
265.652	74.24
265.868	27.14
266.084	115.2
266.3	-22.02
266.516	33.28
266.732	14.85
266.948	98.81
267.164	111.1
267.38	96.77
267.596	55.81
267.812	80.38
268.028	-36.35
268.244	35.33
268.46	39.42
268.676	29.18
268.892	51.71
269.108	-17.92
269.324	82.43
269.54	12.8
269.756	78.33
269.972	12.8
270.188	127.49
270.403	47.62
270.619	-17.92
270.835	-26.11
271.051	25.09
271.267	0.51
271.483	39.42
271.698	12.8
271.914	29.18
272.13	29.18
272.346	84.48
272.562	8.7
272.777	90.62
272.993	47.62
273.209	20.99
273.425	66.05
273.64	43.52
273.856	113.15
274.072	2.56
274.287	35.33
274.503	90.62
274.719	82.43
274.934	35.33
275.15	-1.54
275.366	25.09
275.581	27.14
275.797	59.9
276.012	14.85
276.228	51.71
276.444	23.04
276.659	57.86
276.875	-58.88
277.09	86.53
277.306	37.38
277.521	57.86
277.737	29.18
277.952	53.76
278.168	18.94
278.383	74.24
278.599	23.04
278.814	111.1
279.03	74.24
279.245	82.43
279.461	-13.82
279.676	53.76
279.892	-142.85
280.107	-3.58
280.322	33.28
280.538	78.33
280.753	-9.73
280.969	25.09
281.184	98.81
281.399	115.2
281.615	39.42
281.83	74.24
282.045	-24.06
282.26	45.57
282.476	39.42
282.691	92.67
282.906	82.43
283.122	94.72
283.337	4.61
283.552	82.43
283.767	-9.73
283.983	10.75
284.198	59.9
284.413	4.61
284.628	-28.16
284.843	66.05
285.058	47.62
285.274	8.7
285.489	68.09
285.704	117.25
285.919	94.72
286.134	74.24
286.349	76.29
286.564	51.71
286.779	61.95
286.995	61.95
287.21	80.38
287.425	107.01
287.64	37.38
287.855	31.23
288.07	-69.12
288.285	96.77
288.5	104.96
288.715	100.86
288.93	-7.68
289.145	37.38
289.36	86.53
289.575	18.94
289.79	82.43
290.004	74.24
290.219	66.05
290.434	72.19
290.649	-34.3
290.864	16.9
291.079	37.38
291.294	64
291.509	104.96
291.724	35.33
291.938	49.66
292.153	125.44
292.368	25.09
292.583	43.52
292.798	127.49
293.012	16.9
293.227	-3.58
293.442	72.19
293.657	147.97
293.871	43.52
294.086	14.85
294.301	94.72
294.516	14.85
294.73	33.28
294.945	-34.3
295.16	55.81
295.374	160.25
295.589	96.77
295.804	18.94
296.018	16.9
296.233	14.85
296.447	57.86
296.662	10.75
296.877	98.81
297.091	61.95
297.306	51.71
297.52	-22.02
297.735	100.86
297.949	20.99
298.164	121.34
298.378	51.71
298.593	68.09
298.807	-9.73
299.022	57.86
299.236	111.1
299.451	41.47
299.665	39.42
299.88	100.86
300.094	72.19
300.309	90.62
300.523	76.29
300.737	76.29
300.952	107.01
301.166	12.8
301.381	55.81
301.595	35.33
301.809	72.19
302.024	51.71
302.238	45.57
302.452	12.8
302.667	20.99
302.881	64
303.095	41.47
303.309	0.51
303.524	-1.54
303.738	-13.82
303.952	55.81
304.166	47.62
304.381	0.51
304.595	61.95
304.809	41.47
305.023	100.86
305.237	41.47
305.452	90.62
305.666	61.95
305.88	74.24
306.094	78.33
306.308	94.72
306.522	92.67
306.736	92.67
306.95	66.05
307.164	64
307.379	2.56
307.593	88.57
307.807	119.29
308.021	4.61
308.235	84.48
308.449	-30.21
308.663	-9.73
308.877	90.62
309.091	76.29
309.305	129.53
309.519	12.8
309.733	53.76
309.947	12.8
310.161	70.14
310.374	109.05
310.588	119.29
310.802	39.42
311.016	92.67
311.23	107.01
311.444	23.04
311.658	20.99
311.872	39.42
312.085	115.2
312.299	82.43
312.513	39.42
312.727	74.24
312.941	51.71
313.154	61.95
313.368	57.86
313.582	90.62
313.796	-7.68
314.009	55.81
314.223	29.18
314.437	49.66
314.651	49.66
314.864	90.62
315.078	107.01
315.292	25.09
315.505	70.14
315.719	12.8
315.933	64
316.146	2.56
316.36	59.9
316.573	57.86
316.787	53.76
317.001	27.14
317.214	20.99
317.428	74.24
317.641	25.09
317.855	12.8
318.068	29.18
318.282	-11.78
318.495	104.96
318.709	8.7
318.922	31.23
319.136	78.33
319.349	129.53
319.563	-22.02
319.776	66.05
319.99	29.18
320.203	57.86
320.417	86.53
320.63	84.48
320.843	104.96
321.057	47.62
321.27	72.19
321.483	137.73
321.697	98.81
321.91	84.48
322.124	29.18
322.337	55.81
322.55	8.7
322.763	-15.87
322.977	39.42
323.19	82.43
323.403	10.75
323.617	86.53
323.83	115.2
324.043	-9.73
324.256	66.05
324.469	-15.87
324.683	72.19
324.896	47.62
325.109	57.86
325.322	-17.92
325.535	33.28
325.748	27.14
325.962	-26.11
326.175	59.9
326.388	72.19
326.601	12.8
326.814	-24.06
327.027	-5.63
327.24	141.82
327.453	10.75
327.666	84.48
327.879	-9.73
328.092	133.63
328.305	55.81
328.518	90.62
328.731	6.66
328.944	-9.73
329.157	33.28
329.37	70.14
329.583	33.28
329.796	90.62
330.009	-9.73
330.222	45.57
330.435	55.81
330.648	94.72
330.861	-26.11
331.073	55.81
331.286	33.28
331.499	49.66
331.712	-15.87
331.925	31.23
332.138	57.86
332.35	84.48
332.563	45.57
332.776	70.14
332.989	-3.58
333.202	27.14
333.414	35.33
333.627	35.33
333.84	76.29
334.053	98.81
334.265	-38.4
334.478	-1.54
334.691	113.15
334.903	76.29
335.116	61.95
335.329	33.28
335.541	119.29
335.754	90.62
335.966	70.14
336.179	29.18
336.392	12.8
336.604	-5.63
336.817	68.09
337.029	59.9
337.242	68.09
337.454	72.19
337.667	80.38
337.88	76.29
338.092	18.94
338.305	70.14
338.517	12.8
338.729	84.48
338.942	88.57
339.154	115.2
339.367	-50.69
339.579	121.34
339.792	-3.58
340.004	117.25
340.217	31.23
340.429	47.62
340.641	14.85
340.854	74.24
341.066	27.14
341.278	117.25
341.491	96.77
341.703	39.42
341.915	20.99
342.128	49.66
342.34	78.33
342.552	59.9
342.764	53.76
342.977	127.49
343.189	33.28
343.401	23.04
343.613	33.28
343.826	59.9
344.038	47.62
344.25	66.05
344.462	64
344.674	6.66
344.886	-11.78
345.099	45.57
345.311	43.52
345.523	31.23
345.735	43.52
345.947	-26.11
346.159	64
346.371	51.71
346.583	23.04
346.795	57.86
347.007	100.86
347.219	70.14
347.431	41.47
347.643	-19.97
347.855	-26.11
348.067	55.81
348.279	45.57
348.491	53.76
348.703	86.53
348.915	84.48
349.127	55.81
349.339	59.9
349.551	51.71
349.763	90.62
349.975	125.44
350.187	33.28
350.399	72.19
350.61	55.81
350.822	84.48
351.034	33.28
351.246	80.38
351.458	53.76
351.669	53.76
351.881	25.09
352.093	72.19
352.305	76.29
352.517	35.33
352.728	59.9
352.94	-26.11
353.152	102.91
353.363	84.48
353.575	104.96
353.787	98.81
353.999	20.99
354.21	59.9
354.422	-11.78
354.633	-1.54
354.845	70.14
355.057	55.81
355.268	119.29
355.48	39.42
355.692	4.61
355.903	33.28
356.115	90.62
356.326	-22.02
356.538	107.01
356.749	39.42
356.961	27.14
357.172	82.43
357.384	10.75
357.595	84.48
357.807	31.23
358.018	-1.54
358.23	41.47
358.441	133.63
358.653	78.33
358.864	37.38
359.075	-7.68
359.287	74.24
359.498	57.86
359.709	27.14
359.921	59.9
360.132	92.67
360.344	70.14
360.555	84.48
360.766	43.52
360.977	14.85
361.189	109.05
361.4	16.9
361.611	45.57
361.823	172.54
362.034	-13.82
362.245	25.09
362.456	76.29
362.667	96.77
362.879	57.86
363.09	53.76
363.301	10.75
363.512	37.38
363.723	25.09
363.935	39.42
364.146	59.9
364.357	66.05
364.568	41.47
364.779	-15.87
364.99	137.73
365.201	33.28
365.412	76.29
365.623	-34.3
365.834	66.05
366.045	-3.58
366.256	59.9
366.467	82.43
366.678	12.8
366.889	90.62
367.1	8.7
367.311	25.09
367.522	37.38
367.733	53.76
367.944	113.15
368.155	4.61
368.366	76.29
368.577	27.14
368.788	25.09
368.999	8.7
369.209	96.77
369.42	207.36
369.631	150.01
369.842	29.18
370.053	64
370.264	100.86
370.474	115.2
370.685	64
370.896	70.14
371.107	10.75
371.317	74.24
371.528	25.09
371.739	53.76
371.95	88.57
372.16	139.77
372.371	-30.21
372.582	57.86
372.792	78.33
373.003	8.7
373.214	98.81
373.424	18.94
373.635	94.72
373.846	107.01
374.056	-3.58
374.267	80.38
374.477	25.09
374.688	78.33
374.898	12.8
375.109	76.29
375.319	23.04
375.53	-26.11
375.74	111.1
375.951	33.28
376.161	25.09
376.372	129.53
376.582	-9.73
376.793	-1.54
377.003	109.05
377.214	8.7
377.424	100.86
377.635	53.76
377.845	104.96
378.055	117.25
378.266	4.61
378.476	23.04
378.686	135.68
378.897	96.77
379.107	55.81
379.317	100.86
379.528	49.66
379.738	90.62
379.948	27.14
380.158	55.81
380.369	-38.4
380.579	-15.87
380.789	33.28
380.999	100.86
381.21	137.73
381.42	102.91
381.63	55.81
381.84	88.57
382.05	107.01
382.261	53.76
382.471	80.38
382.681	57.86
382.891	135.68
383.101	61.95
383.311	-13.82
383.521	25.09
383.731	156.16
383.941	131.58
384.151	64
384.361	74.24
384.571	8.7
384.781	133.63
384.991	100.86
385.201	78.33
385.411	64
385.621	84.48
385.831	107.01
386.041	66.05
386.251	41.47
386.461	25.09
386.671	25.09
386.881	102.91
387.091	53.76
387.301	33.28
387.511	23.04
387.72	82.43
387.93	27.14
388.14	70.14
388.35	100.86
388.56	104.96
388.769	64
388.979	135.68
389.189	107.01
389.399	45.57
389.609	64
389.818	53.76
390.028	96.77
390.238	49.66
390.447	96.77
390.657	47.62
390.867	80.38
391.076	-1.54
391.286	84.48
391.496	39.42
391.705	66.05
391.915	121.34
392.125	70.14
392.334	68.09
392.544	145.92
392.753	31.23
392.963	16.9
393.172	104.96
393.382	92.67
393.591	186.88
393.801	29.18
394.01	190.97
394.22	68.09
394.429	-38.4
394.639	18.94
394.848	49.66
395.058	131.58
395.267	68.09
395.477	72.19
395.686	96.77
395.895	117.25
396.105	162.3
396.314	178.69
396.524	82.43
396.733	86.53
396.942	213.5
397.152	92.67
397.361	117.25
397.57	127.49
397.78	82.43
397.989	104.96
398.198	125.44
398.407	45.57
398.617	96.77
398.826	102.91
399.035	92.67
399.244	162.3
399.453	127.49
399.663	109.05
399.872	147.97
400.081	39.42
400.29	78.33
400.499	86.53
400.708	100.86
400.917	12.8
401.127	139.77
401.336	102.91
401.545	90.62
401.754	107.01
401.963	172.54
402.172	80.38
402.381	78.33
402.59	143.87
402.799	131.58
403.008	150.01
403.217	131.58
403.426	117.25
403.635	96.77
403.844	90.62
404.053	141.82
404.262	107.01
404.471	217.6
404.68	160.25
404.888	170.49
405.097	64
405.306	145.92
405.515	143.87
405.724	90.62
405.933	139.77
406.142	135.68
406.35	174.59
406.559	172.54
406.768	115.2
406.977	254.46
407.185	184.83
407.394	143.87
407.603	223.74
407.812	207.36
408.02	215.55
408.229	156.16
408.438	176.64
408.646	180.73
408.855	195.07
409.064	190.97
409.272	209.4
409.481	195.07
409.69	197.12
409.898	293.37
410.107	287.23
410.315	272.89
410.524	225.79
410.733	313.85
410.941	297.47
411.15	274.94
411.358	285.18
411.567	465.4
411.775	338.43
411.984	307.71
412.192	322.04
412.401	295.42
412.609	365.05
412.818	451.07
413.026	420.35
413.234	412.15
413.443	342.52
413.651	428.54
413.86	436.73
414.068	524.79
414.276	524.79
414.485	412.15
414.693	539.13
414.901	424.44
415.11	551.42
415.318	565.75
415.526	559.61
415.734	619
415.943	575.99
416.151	633.33
416.359	573.94
416.567	676.34
416.776	758.26
416.984	756.21
417.192	696.82
417.4	715.25
417.608	670.2
417.817	725.49
418.025	801.27
418.233	891.38
418.441	836.08
418.649	944.63
418.857	901.62
419.065	1063.41
419.273	891.38
419.481	1038.83
419.689	1081.84
419.897	1075.7
420.105	1004.02
420.313	1208.81
420.521	1241.58
420.729	1266.16
420.937	1235.44
421.145	1245.68
421.353	1356.27
421.561	1460.71
421.769	1440.23
421.977	1458.67
422.185	1505.77
422.393	1556.97
422.601	1634.79
422.809	1685.99
423.017	1694.18
423.224	1767.91
423.432	1839.59
423.64	1823.2
423.848	2101.73
424.056	1972.71
424.263	2109.92
424.471	2142.69
424.679	2097.63
424.887	2128.35
425.094	2408.92
425.302	2218.46
425.51	2261.47
425.718	2535.9
425.925	2560.47
426.133	2539.99
426.341	2812.37
426.548	2941.4
426.756	2992.59
426.964	2851.28
427.171	3215.82
427.379	3226.06
427.586	3256.78
427.794	3289.55
428.001	3477.96
428.209	3793.35
428.417	3623.37
428.624	3914.18
428.832	3776.97
429.039	3897.8
429.247	3754.44
429.454	4245.95
429.662	4426.17
429.869	4127.17
430.076	4383.17
430.284	4385.21
430.491	4557.24
430.699	4768.18
430.906	4714.94
431.114	4868.53
431.321	5036.47
431.528	5302.7
431.736	5499.31
431.943	5675.43
432.15	5358
432.358	5622.19
432.565	5964.2
432.772	5767.59
432.979	6244.77
433.187	6345.12
433.394	6416.8
433.601	6771.1
433.808	6689.18
434.016	6838.68
434.223	6926.74
434.43	7377.3
434.637	7281.04
434.844	7643.53
435.052	8003.97
435.259	7879.05
435.466	8061.32
435.673	7872.9
435.88	8296.83
436.087	8993.14
436.294	8831.35
436.501	8573.31
436.708	8667.52
436.915	8831.35
437.122	9560.43
437.329	9501.04
437.537	9832.81
437.743	9824.62
437.95	9863.53
438.157	10262.88
438.364	10692.96
438.571	10803.55
438.778	10783.07
438.985	11882.83
439.192	11276.63
439.399	11577.68
439.606	11211.09
439.813	11999.56
440.02	12814.65
440.227	12329.28
440.433	12284.23
440.64	12818.75
440.847	12767.55
441.054	12994.87
441.261	13984.04
441.467	13850.92
441.674	13904.17
441.881	14651.68
442.088	14526.75
442.294	14326.05
442.501	14858.53
442.708	15098.14
442.914	15724.82
443.121	16558.34
443.328	15935.76
443.534	17031.42
443.741	16677.12
443.948	16294.15
444.154	17586.42
444.361	17486.07
444.568	17531.12
444.774	17570.04
444.981	17807.6
445.187	18194.67
445.394	19007.71
445.6	18946.27
445.807	20717.76
446.013	19773.65
446.22	20134.09
446.426	20877.51
446.633	21104.83
446.839	21612.73
447.046	20984
447.252	22466.73
447.459	22270.12
447.665	22241.45
447.871	23111.84
448.078	24072.34
448.284	23044.26
448.491	23322.78
448.697	24498.31
448.903	24813.7
449.11	25090.18
449.316	24445.07
449.522	25176.19
449.728	25581.69
449.935	25919.6
450.141	25671.8
450.347	26585.19
450.553	25524.35
450.76	26134.64
450.966	26925.16
451.172	26607.72
451.378	27287.65
451.584	26667.11
451.791	27101.28
451.997	27129.95
452.203	27529.31
452.409	27611.23
452.615	27838.55
452.821	26376.3
453.027	26214.51
453.233	27756.63
453.44	26753.13
453.646	26980.45
453.852	27107.43
454.058	27549.79
454.264	26538.09
454.47	27146.34
454.676	26423.4
454.882	27404.38
455.088	25208.96
455.294	25573.5
455.5	25772.15
455.705	26151.02
455.911	25131.14
456.117	24688.78
456.323	24254.61
456.529	22945.95
456.735	23738.52
456.941	23193.76
457.147	23023.78
457.352	22378.67
457.558	21967.02
457.764	22200.49
457.97	21991.6
458.176	21383.35
458.381	21031.1
458.587	20119.76
458.793	20201.68
458.999	18884.83
459.204	20635.85
459.41	19869.9
459.616	18657.51
459.821	18446.57
460.027	18344.17
460.233	18321.64
460.438	17199.35
460.644	17627.38
460.85	16548.1
461.055	16464.13
461.261	16275.72
461.466	15180.06
461.672	14635.3
461.878	15462.68
462.083	14493.99
462.289	14536.99
462.494	14338.34
462.7	13556.02
462.905	13349.17
463.111	13541.68
463.316	13846.83
463.522	13502.77
463.727	13414.71
463.932	13240.63
464.138	13125.94
464.343	13308.21
464.549	13084.98
464.754	13519.15
464.959	13488.43
465.165	13189.43
465.37	12667.2
465.575	12413.25
465.781	12880.19
465.986	12818.75
466.191	12411.2
466.397	12319.04
466.602	11686.22
466.807	12196.17
467.012	11913.55
467.218	11989.32
467.423	11708.75
467.628	11837.77
467.833	12323.14
468.038	11829.58
468.244	11561.3
468.449	12046.66
468.654	11577.68
468.859	11358.55
469.064	11491.66
469.269	10934.62
469.474	11239.76
469.679	11313.49
469.885	10963.29
470.09	11241.81
470.295	11178.33
470.5	10922.33
470.705	10981.72
470.91	10754.4
471.115	10580.32
471.32	10811.74
471.525	10506.59
471.73	10482.02
471.935	10463.58
472.139	9916.78
472.344	10211.68
472.549	10203.49
472.754	9961.83
472.959	9927.02
473.164	9517.42
473.369	9548.14
473.574	9746.8
473.778	9689.45
473.983	9548.14
474.188	9621.87
474.393	9101.69
474.598	9060.73
474.802	9111.92
475.007	8989.05
475.212	9077.11
475.417	8614.27
475.621	8726.91
475.826	8696.19
476.031	8522.11
476.235	8579.45
476.44	8587.64
476.645	8368.51
476.849	8436.1
477.054	8206.72
477.259	8188.29
477.463	8112.52
477.668	7981.45
477.872	8147.33
478.077	7891.34
478.282	7723.4
478.486	7596.43
478.691	7596.43
478.895	7633.29
479.1	7608.72
479.304	7438.73
479.509	7354.77
479.713	7563.66
479.918	7459.21
480.122	7309.71
480.326	7430.54
480.531	7338.38
480.735	6955.41
480.94	7143.83
481.144	7405.97
481.348	7055.76
481.553	7184.79
481.757	6998.42
481.961	6977.94
482.166	7246.23
482.37	7088.53
482.574	7012.76
482.778	7109.01
482.983	7147.92
483.187	7149.97
483.391	7098.77
483.595	7023
483.8	7115.16
484.004	7031.19
484.208	6990.23
484.412	7070.1
484.616	7004.57
484.821	7272.85
485.025	6900.12
485.229	7057.81
485.433	6949.27
485.637	7008.66
485.841	6879.64
486.045	6910.36
486.249	6953.37
486.453	7000.47
486.657	7199.12
486.861	7002.52
487.065	6883.73
487.269	7061.91
487.473	6855.06
487.677	6996.37
487.881	7127.44
488.085	6912.41
488.289	6967.7
488.493	6939.03
488.697	7076.24
488.901	7045.52
489.105	7061.91
489.309	7070.1
489.512	7297.42
489.716	7121.3
489.92	7227.79
490.124	7043.48
490.328	7131.54
490.531	7115.16
490.735	7127.44
490.939	7219.6
491.143	7127.44
491.346	7223.7
491.55	7283.09
491.754	7383.44
491.958	7326.1
492.161	7375.25
492.365	7430.54
492.569	7498.13
492.772	7379.34
492.976	7453.07
493.18	7645.58
493.383	7684.49
493.587	7735.69
493.79	7801.22
493.994	7598.48
494.197	7723.4
494.401	7741.83
494.605	7788.94
494.808	8028.55
495.012	7981.45
495.215	8194.43
495.419	8135.04
495.622	7928.2
495.825	8130.95
496.029	8135.04
496.232	8411.52
496.436	8391.04
496.639	8665.47
496.843	8446.34
497.046	8636.8
497.249	8554.88
497.453	8819.07
497.656	8841.59
497.859	8786.3
498.063	9023.86
498.266	9177.46
498.469	9089.4
498.673	9347.44
498.876	9308.53
499.079	9595.25
499.282	9443.7
499.485	9820.52
499.689	9916.78
499.892	10021.22
500.095	10041.7
500.298	10240.36
500.501	10066.28
500.705	10330.47
500.908	10484.06
501.111	10434.91
501.314	10559.84
501.517	10848.6
501.72	11166.04
501.923	10955.1
502.126	11184.47
502.329	11362.64
502.532	11483.47
502.735	11524.43
502.938	11841.87
503.141	11796.81
503.344	12093.77
503.547	11934.03
503.75	12374.34
503.953	12271.94
504.156	12433.73
504.359	12622.14
504.562	12441.92
504.765	13146.42
504.968	13324.6
505.17	13250.87
505.373	13408.56
505.576	13295.93
505.779	13537.59
505.982	13668.66
506.185	14068.01
506.387	14092.58
506.59	14084.39
506.793	14367.01
506.996	14539.04
507.198	14874.91
507.401	14876.96
507.604	15051.03
507.807	15397.14
508.009	15573.27
508.212	15427.86
508.415	15653.14
508.617	15960.33
508.82	16027.92
509.022	16044.3
509.225	16392.45
509.428	16443.65
509.63	16513.28
509.833	16654.59
510.035	17510.64
510.238	17164.54
510.44	17529.08
510.643	17934.57
510.845	17735.92
511.048	17760.5
511.25	18112.75
511.453	17969.39
511.655	18991.33
511.858	18761.95
512.06	18999.52
512.262	18911.46
512.465	19091.68
512.667	19421.4
512.87	19521.75
513.072	19853.52
513.274	20281.55
513.477	20289.74
513.679	20560.07
513.881	20830.4
514.084	20936.9
514.286	20756.68
514.488	21186.75
514.69	21573.81
514.893	21571.77
515.095	22003.89
515.297	22255.79
515.499	22337.71
515.701	22466.73
515.904	22913.19
516.106	23052.45
516.308	23345.31
516.51	23357.6
516.712	23564.44
516.914	23941.27
517.116	24488.07
517.318	24590.47
517.52	24447.11
517.722	24721.54
517.925	25157.76
518.127	25434.24
518.329	25692.28
518.531	25634.94
518.733	26341.49
518.935	26339.44
519.136	26531.95
519.338	27107.43
519.54	27199.58
519.742	27459.68
519.944	27746.39
520.146	27961.43
520.348	28033.11
520.55	28125.27
520.752	28297.3
520.954	28876.87
521.155	28794.95
521.357	29503.55
521.559	29657.15
521.761	29925.43
521.963	29976.63
522.164	30126.13
522.366	30253.11
522.568	30404.66
522.77	30566.45
522.971	31311.91
523.173	31184.93
523.375	31516.7
523.576	31633.44
523.778	31651.87
523.98	32299.03
524.181	32294.93
524.383	32264.21
524.584	32935.95
524.786	33112.07
524.988	32811.02
525.189	33503.23
525.391	33468.42
525.592	33814.52
525.794	33720.32
525.995	34193.4
526.197	33906.68
526.398	34373.62
526.6	34777.07
526.801	34463.73
527.003	34826.22
527.204	35127.27
527.406	35090.41
527.607	35385.32
527.808	35612.64
528.01	35307.49
528.211	35327.97
528.412	36106.2
528.614	35842.01
528.815	36102.11
529.016	36659.15
529.218	36265.94
529.419	36294.61
529.62	36679.63
529.822	36493.27
530.023	36321.24
530.224	36663.25
530.425	36626.39
530.626	36423.64
530.828	36587.47
531.029	37197.77
531.23	37234.63
531.431	36745.17
531.632	36792.27
531.833	37138.38
532.035	37582.79
532.236	37289.93
532.437	37636.03
532.638	37191.62
532.839	37846.97
533.04	37793.73
533.241	37074.89
533.442	38328.25
533.643	37939.13
533.844	37765.06
534.045	38057.92
534.246	37523.4
534.447	38027.2
534.648	37660.61
534.849	38127.55
535.05	37715.9
535.251	38182.84
535.451	37830.59
535.652	38193.08
535.853	37920.7
536.054	38363.06
536.255	38068.16
536.456	37992.38
536.657	38250.42
536.857	37679.04
537.058	37892.03
537.259	37879.74
537.46	38242.23
537.66	37900.22
537.861	38231.99
538.062	38268.86
538.263	38432.69
538.463	37912.51
538.664	38010.81
538.865	38422.45
539.065	38465.46
539.266	38100.92
539.466	38541.24
539.667	37935.04
539.868	38166.46
540.068	38170.55
540.269	38053.82
540.469	38539.19
540.67	37801.92
540.87	38135.74
541.071	37863.36
541.271	38440.89
541.472	37930.94
541.672	38047.68
541.873	38045.63
542.073	37726.14
542.274	38594.48
542.474	38143.93
542.675	37986.24
542.875	38041.53
543.075	37982.14
543.276	37896.13
543.476	38393.78
543.676	37812.16
543.877	37998.52
544.077	37828.54
544.277	37941.18
544.478	38062.01
544.678	38145.98
544.878	38188.99
545.078	37875.65
545.279	37982.14
545.479	37849.02
545.679	38287.29
545.879	37949.37
546.079	38027.2
546.28	38021.05
546.48	37674.95
546.68	37900.22
546.88	38207.42
547.08	38031.29
547.28	37636.03
547.48	37541.83
547.68	38139.83
547.88	37703.62
548.081	38031.29
548.281	38207.42
548.481	37515.2
548.681	37799.87
548.881	37771.2
549.081	37775.3
549.28	37504.96
549.48	38068.16
549.68	37994.43
549.88	38361.01
550.08	37568.45
550.28	38127.55
550.48	37920.7
550.68	38035.39
550.88	37529.54
551.08	37816.25
551.279	37676.99
551.479	37556.16
551.679	37732.29
551.879	37398.47
552.079	37846.97
552.278	37683.14
552.478	37754.82
552.678	37533.64
552.878	37803.97
553.077	37689.28
553.277	37359.56
553.477	37738.43
553.676	37701.57
553.876	37306.31
554.076	37617.6
554.275	37208.01
554.475	36816.85
554.674	37605.31
554.874	37330.89
555.074	37165
555.273	37640.13
555.473	37412.81
555.672	37003.21
555.872	37066.7
556.071	36741.07
556.271	37474.24
556.47	36929.48
556.67	37007.31
556.869	36804.56
557.068	37183.43
557.268	36782.03
557.467	36868.05
557.667	36675.54
557.866	36736.98
558.065	36589.52
558.265	36868.05
558.464	36331.48
558.663	36614.1
558.863	36138.97
559.062	36456.4
559.261	36261.85
559.461	36929.48
559.66	35962.84
559.859	36147.16
560.058	35520.48
560.258	35885.02
560.457	35880.92
560.656	35930.08
560.855	35887.07
561.054	36075.48
561.253	35397.6
561.453	35723.23
561.652	35688.42
561.851	35483.62
562.05	35538.91
562.249	35180.52
562.448	35633.12
562.647	35522.53
562.846	35157.99
563.045	35389.41
563.244	34693.1
563.443	35373.03
563.642	34617.33
563.841	34854.89
564.04	34861.04
564.239	35149.8
564.438	34531.31
564.637	34412.53
564.836	34506.74
565.035	33779.71
565.234	34535.41
565.432	33837.05
565.631	33990.65
565.83	33953.79
566.029	34109.43
566.228	33769.47
566.427	33642.49
566.625	33443.84
566.824	33292.29
567.023	33316.87
567.222	32905.23
567.42	33452.03
567.619	33247.24
567.818	33378.31
568.016	32923.66
568.215	33208.33
568.414	32815.12
568.612	32909.32
568.811	32602.13
569.01	32710.67
569.208	32137.24
569.407	32575.5
569.605	32047.13
569.804	32518.16
570.002	31928.34
570.201	32194.58
570.4	31610.91
570.598	31768.6
570.797	31320.1
570.995	31784.99
571.193	31178.79
571.392	31967.26
571.59	31180.84
571.789	31164.45
571.987	30873.64
572.186	30840.87
572.384	30574.64
572.582	30976.04
572.781	31141.92
572.979	30441.52
573.177	30521.39
573.376	30593.07
573.574	30269.49
573.772	30150.71
573.971	29941.82
574.169	29954.1
574.367	30142.52
574.565	30070.84
574.763	30038.07
574.962	29968.44
575.16	29591.61
575.358	29689.91
575.556	29028.42
575.754	29911.1
575.952	29005.89
576.151	29468.73
576.349	28725.32
576.547	29083.72
576.745	29063.24
576.943	29114.44
577.141	28749.9
577.339	28934.21
577.537	28454.99
577.735	28641.35
577.933	28264.53
578.131	28665.93
578.329	28192.85
578.527	27975.77
578.725	27912.28
578.923	28254.29
579.121	28233.81
579.319	27590.75
579.516	27709.53
579.714	27592.79
579.912	27592.79
580.11	27746.39
580.308	27537.5
580.506	27293.79
580.704	27134.05
580.901	27037.8
581.099	27342.94
581.297	27031.65
581.495	27097.19
581.692	27142.24
581.89	26708.07
582.088	26955.88
582.285	26607.72
582.483	26916.97
582.681	26245.23
582.878	26216.56
583.076	26302.57
583.274	26642.54
583.471	26331.25
583.669	25841.78
583.866	25849.97
584.064	25960.56
584.262	25981.04
584.459	25634.94
584.657	25702.52
584.854	26103.92
585.052	25473.15
585.249	25565.31
585.447	25426.04
585.644	25151.62
585.841	25538.68
586.039	25419.9
586.236	24873.09
586.434	25034.88
586.631	25002.11
586.828	25063.55
587.026	24793.22
587.223	24823.94
587.42	24537.23
587.618	24567.95
587.815	24207.5
588.012	24490.12
588.21	24668.3
588.407	24705.16
588.604	24195.21
588.801	23627.93
588.999	24209.55
589.196	23939.22
589.393	24043.67
589.59	23646.36
589.787	23888.02
589.984	23603.35
590.182	23357.6
590.379	23404.7
590.576	23435.42
590.773	23308.44
590.97	23464.09
591.167	23308.44
591.364	23117.98
591.561	23310.49
591.758	22892.71
591.955	23034.02
592.152	23261.34
592.349	22671.53
592.546	22855.84
592.743	22612.13
592.94	22474.92
593.137	22610.09
593.334	22679.72
593.531	22315.18
593.727	22605.99
593.924	22198.45
594.121	22278.32
594.318	22253.74
594.515	21962.93
594.712	22454.44
594.908	21915.83
595.105	22112.43
595.302	21745.84
595.499	22059.18
595.696	21756.08
595.892	21672.12
596.089	21696.69
596.286	21162.17
596.482	21569.72
596.679	21442.74
596.876	20986.05
597.072	21186.75
597.269	21450.94
597.466	21016.77
597.662	21125.31
597.859	20814.02
598.055	20957.38
598.252	20877.51
598.448	20838.59
598.645	20568.26
598.841	20603.08
599.038	20779.2
599.234	20635.85
599.431	19998.93
599.627	20318.41
599.824	20297.93
600.02	20394.18
600.217	20265.16
600.413	20463.82
600.609	20230.35
600.806	20388.04
601.002	20396.23
601.198	20050.13
601.395	20097.23
601.591	19701.97
601.787	19749.07
601.984	19548.37
602.18	20070.61
602.376	19615.96
602.572	19560.66
602.769	19744.98
602.965	19331.29
603.161	19441.88
603.357	19325.15
603.553	18976.99
603.75	19601.62
603.946	19075.29
604.142	19089.63
604.338	18954.46
604.534	18837.73
604.73	18913.5
604.926	18741.47
605.122	18819.3
605.318	18698.47
605.514	18735.33
605.71	18452.71
605.906	18653.41
606.102	18667.75
606.298	18559.2
606.494	18495.72
606.69	18374.89
606.886	18491.62
607.082	18073.84
607.278	18434.28
607.474	17875.18
607.67	17918.19
607.866	17858.8
608.062	18135.28
608.257	17955.05
608.453	17838.32
608.649	18049.26
608.845	17744.11
609.041	17742.07
609.236	17690.87
609.432	17608.95
609.628	17674.48
609.824	17701.11
610.019	17541.36
610.215	17451.25
610.411	17719.54
610.606	17635.57
610.802	17299.7
610.998	17436.92
611.193	17273.08
611.389	17361.14
611.584	17279.22
611.78	16943.36
611.976	17066.24
612.171	17266.94
612.367	17201.4
612.562	17135.87
612.758	16634.11
612.953	16632.07
613.149	17180.92
613.344	16789.76
613.539	17053.95
613.735	16765.18
613.93	16810.24
614.126	16812.29
614.321	16683.27
614.517	16634.11
614.712	16560.39
614.907	16574.72
615.103	16576.77
615.298	16722.18
615.493	16576.77
615.688	16281.86
615.884	16718.08
616.079	16503.04
616.274	16279.82
616.47	16347.4
616.665	16363.78
616.86	16224.52
617.055	16163.08
617.25	16056.59
617.445	16185.61
617.641	15743.25
617.836	16072.97
618.031	15853.84
618.226	15905.04
618.421	15792.4
618.616	15950.09
618.811	15802.64
619.006	15802.64
619.201	15649.04
619.396	15479.06
619.591	15440.15
619.786	15507.73
619.981	15370.52
620.176	15413.52
620.371	15239.45
620.566	15098.14
620.761	15259.93
620.956	14958.88
621.151	14913.82
621.346	14995.74
621.541	14721.31
621.735	14930.2
621.93	14637.34
622.125	14860.57
622.32	14407.97
622.515	14627.1
622.709	14319.91
622.904	14295.33
623.099	14074.15
623.294	14262.57
623.488	14016.81
623.683	14000.43
623.878	14162.22
624.072	13975.85
624.267	14076.2
624.462	13746.48
624.656	13502.77
624.851	13672.75
625.046	13615.41
625.24	13437.23
625.435	13209.91
625.629	13396.28
625.824	13498.67
626.018	13228.34
626.213	13232.44
626.407	13091.13
626.602	12763.45
626.796	13136.18
626.991	12628.29
627.185	12783.93
627.38	12605.76
627.574	12671.29
627.768	12603.71
627.963	12661.05
628.157	12441.92
628.352	12460.35
628.546	12357.96
628.74	12128.58
628.935	12159.3
629.129	12097.86
629.323	11981.13
629.517	12032.33
629.712	12069.19
629.906	11899.21
630.1	11721.04
630.294	11839.82
630.489	11594.06
630.683	11831.63
630.877	11454.8
631.071	11428.18
631.265	11407.7
631.459	11391.31
631.653	11243.86
631.848	11135.32
632.042	11407.7
632.236	11217.24
632.43	10963.29
632.624	11051.35
632.818	10907.99
633.012	11108.69
633.206	10867.03
633.4	10877.27
633.594	10680.67
633.788	10424.67
633.982	10856.79
634.176	10723.68
634.369	10488.16
634.563	10418.53
634.757	10285.41
634.951	10283.36
635.145	10324.32
635.339	10166.63
635.533	10148.2
635.726	10228.07
635.92	10201.44
636.114	9847.15
636.308	9986.41
636.501	9814.38
636.695	10015.08
636.889	9679.21
637.083	9791.85
637.276	9630.06
637.47	9697.64
637.664	9603.44
637.857	9464.18
638.051	9464.18
638.244	9443.7
638.438	9279.86
638.632	9333.11
638.825	9230.71
639.019	9212.28
639.212	9181.56
639.406	9197.94
639.599	9193.84
639.793	9058.68
639.986	8712.57
640.18	9042.29
640.373	8929.66
640.567	8702.33
640.76	8798.59
640.954	8757.63
641.147	8483.2
641.34	8728.95
641.534	8593.79
641.727	8618.36
641.92	8581.5
642.114	8489.34
642.307	8366.46
642.5	8442.24
642.694	8180.1
642.887	8292.74
643.08	8249.73
643.273	8085.89
643.467	7969.16
643.66	8196.48
643.853	8040.84
644.046	7889.29
644.239	8139.14
644.432	7942.53
644.626	7901.58
644.819	7922.06
645.012	7893.38
645.205	7797.13
645.398	7762.31
645.591	7623.05
645.784	7661.96
645.977	7618.96
646.17	7565.71
646.363	7557.52
646.556	7491.98
646.749	7344.53
646.942	7410.06
647.135	7362.96
647.328	7141.78
647.521	7227.79
647.714	7227.79
647.907	7156.11
648.099	7014.8
648.292	7076.24
648.485	7149.97
648.678	7063.96
648.871	6889.88
649.064	6893.97
649.256	6945.17
649.449	6732.19
649.642	6674.84
649.835	6891.93
650.027	6726.04
650.22	6726.04
650.413	6642.07
650.605	6592.92
650.798	6660.51
650.991	6449.57
651.183	6640.03
651.376	6502.81
651.568	6427.04
651.761	6511
651.954	6439.33
652.146	6338.98
652.339	6365.6
652.531	6312.35
652.724	6007.2
652.916	6132.13
653.109	6300.06
653.301	6179.23
653.494	6119.84
653.686	6123.94
653.879	6179.23
654.071	6105.51
654.263	6021.54
654.456	5908.9
654.648	6025.64
654.84	6056.36
655.033	5749.16
655.225	5999.01
655.417	5740.97
655.61	5769.64
655.802	5990.82
655.994	5706.15
656.186	5781.93
656.379	5671.34
656.571	5740.97
656.763	5632.43
656.955	5630.38
657.148	5542.32
657.34	5556.65
657.532	5550.51
657.724	5573.03
657.916	5630.38
658.108	5358
658.3	5441.96
658.492	5452.2
658.684	5280.18
658.876	5177.78
659.068	5226.93
659.26	5302.7
659.452	5226.93
659.644	5439.92
659.836	5247.41
660.028	5259.7
660.22	5110.19
660.412	5300.66
660.604	5114.29
660.796	5110.19
660.988	5024.18
661.18	5208.5
661.372	4915.64
661.563	4964.79
661.755	4964.79
661.947	4991.41
662.139	4839.86
662.331	4895.16
662.522	4819.38
662.714	4880.82
662.906	4772.28
663.097	4960.69
663.289	4721.08
663.481	4694.46
663.673	4762.04
663.864	4626.87
664.056	4762.04
664.247	4676.02
664.439	4485.56
664.631	4610.49
664.822	4696.5
665.014	4598.2
665.205	4555.19
665.397	4604.35
665.588	4549.05
665.78	4477.37
665.971	4551.1
666.163	4514.24
666.354	4413.88
666.546	4342.21
666.737	4508.09
666.929	4440.51
667.12	4358.59
667.311	4577.72
667.503	4424.12
667.694	4420.03
667.885	4254.14
668.077	4299.2
668.268	4284.86
668.459	4235.71
668.651	4180.42
668.842	4143.55
669.033	4223.42
669.224	4211.14
669.416	4374.97
669.607	4114.88
669.798	4096.45
669.989	4288.96
670.18	4188.61
670.371	4141.5
670.563	4088.26
670.754	4200.9
670.945	4020.67
671.136	4104.64
671.327	3971.52
671.518	3971.52
671.709	4053.44
671.9	4198.85
672.091	3983.81
672.282	3910.08
672.473	3959.24
672.664	3891.65
672.855	4012.48
673.046	3930.56
673.237	4102.59
673.428	3924.42
673.619	3987.91
673.809	3928.52
674	3979.72
674.191	4069.83
674.382	3895.75
674.573	3873.22
674.764	3867.08
674.954	3969.48
675.145	3879.36
675.336	3899.84
675.527	3854.79
675.717	3822.02
675.908	3875.27
676.099	3908.04
676.289	3834.31
676.48	3965.38
676.671	3742.15
676.861	3955.14
677.052	3643.85
677.243	3721.67
677.433	3955.14
677.624	3781.06
677.814	3928.52
678.005	3705.29
678.195	3801.54
678.386	3797.45
678.576	3783.11
678.767	3666.38
678.957	3895.75
679.148	3944.9
679.338	3932.61
679.529	3830.21
679.719	3834.31
679.909	3856.84
680.1	3746.25
680.29	3742.15
680.481	3856.84
680.671	3848.65
680.861	3819.97
681.052	3805.64
681.242	3805.64
681.432	3805.64
681.622	3740.1
681.813	3807.69
682.003	3807.69
682.193	3680.71
682.383	3750.34
682.573	3705.29
682.764	3695.05
682.954	3731.91
683.144	3670.47
683.334	3649.99
683.524	3731.91
683.714	3695.05
683.904	3742.15
684.094	3666.38
684.284	3750.34
684.474	3779.01
684.664	3846.6
684.854	3795.4
685.044	3678.66
685.234	3600.84
685.424	3647.94
685.614	3566.03
685.804	3670.47
685.994	3701.19
686.184	3811.78
686.374	3582.41
686.564	3666.38
686.753	3535.31
686.943	3660.23
687.133	3486.15
687.323	3516.87
687.513	3711.43
687.702	3576.27
687.892	3398.09
688.082	3441.1
688.272	3486.15
688.461	3547.59
688.651	3543.5
688.841	3394
689.03	3498.44
689.22	3422.67
689.41	3439.05
689.599	3324.37
689.789	3328.46
689.979	3426.76
690.168	3285.45
690.358	3406.28
690.547	3314.13
690.737	3420.62
690.926	3170.77
691.116	3201.49
691.305	3275.21
691.495	3205.58
691.684	3211.73
691.874	3260.88
692.063	3242.45
692.252	3353.04
692.442	3094.99
692.631	3144.14
692.82	3127.76
693.01	3062.23
693.199	3076.56
693.388	3088.85
693.578	3006.93
693.767	3011.03
693.956	3119.57
694.146	3117.52
694.335	3004.88
694.524	3094.99
694.713	2978.26
694.902	3035.6
695.092	3013.07
695.281	2904.53
695.47	3002.83
695.659	2890.2
695.848	2955.73
696.037	2931.16
696.226	2873.81
696.415	2945.49
696.604	3002.83
696.793	2839
696.982	2982.35
697.171	2996.69
697.36	2871.76
697.549	2953.68
697.738	2906.58
697.927	2943.44
698.116	2871.76
698.305	2914.77
698.494	2869.72
698.683	2884.05
698.872	2884.05
699.061	2804.18
699.25	2865.62
699.438	2886.1
699.627	2781.65
699.816	3064.27
700.005	2947.54
700.193	2841.04
700.382	2920.92
700.571	3023.31
700.76	2798.04
700.948	2908.63
701.137	2886.1
701.326	2810.33
701.514	2929.11
701.703	2890.2
701.892	2824.66
702.08	2941.4
702.269	2957.78
702.457	2851.28
702.646	2732.5
702.834	2900.44
703.023	2806.23
703.212	2812.37
703.4	2865.62
703.589	2996.69
703.777	2869.72
703.965	2875.86
704.154	2955.73
704.342	2707.93
704.531	2832.85
704.719	2841.04
704.907	2935.25
705.096	2851.28
705.284	2714.07
705.472	2927.06
705.661	2832.85
705.849	2925.01
706.037	3029.46
706.226	2933.2
706.414	3025.36
706.602	2867.67
706.79	2943.44
706.979	2916.82
707.167	3039.7
707.355	2933.2
707.543	2845.14
707.731	2949.59
707.919	2922.96
708.107	2871.76
708.296	2888.15
708.484	2841.04
708.672	2941.4
708.86	2970.07
709.048	2906.58
709.236	2851.28
709.424	3013.07
709.612	3023.31
709.8	2847.19
709.988	2974.16
710.176	2906.58
710.364	2990.55
710.551	2943.44
710.739	2955.73
710.927	2990.55
711.115	2863.57
711.303	2931.16
711.491	3097.04
711.679	2824.66
711.866	3088.85
712.054	3004.88
712.242	2910.68
712.43	3031.51
712.617	2943.44
712.805	2910.68
712.993	2943.44
713.181	2927.06
713.368	2957.78
713.556	2998.74
713.744	2910.68
713.931	3119.57
714.119	3047.89
714.306	3084.75
714.494	3107.28
714.682	2943.44
714.869	3013.07
715.057	3033.55
715.244	2951.63
715.432	3086.8
715.619	2992.59
715.807	3076.56
715.994	3039.7
716.182	3056.08
716.369	3181.01
716.556	3092.94
716.744	3082.7
716.931	3027.41
717.119	3203.54
717.306	3150.29
717.493	3168.72
717.681	3127.76
717.868	3097.04
718.055	3129.81
718.242	3226.06
718.43	3111.38
718.617	3056.08
718.804	3168.72
718.991	3062.23
719.179	3123.66
719.366	3107.28
719.553	3154.38
719.74	3129.81
719.927	3103.18
720.114	3176.91
720.301	3105.23
720.488	3099.09
720.676	3152.34
720.863	3279.31
721.05	3248.59
721.237	3172.82
721.424	3383.76
721.611	3178.96
721.798	3172.82
721.985	3215.82
722.172	3310.03
722.358	3197.39
722.545	3207.63
722.732	3307.98
722.919	3359.18
723.106	3291.6
723.293	3183.06
723.48	3228.11
723.667	3213.77
723.853	3314.13
724.04	3320.27
724.227	3221.97
724.414	3242.45
724.6	3307.98
724.787	3361.23
724.974	3328.46
725.161	3291.6
725.347	3224.01
725.534	3291.6
725.72	3103.18
725.907	3248.59
726.094	3271.12
726.28	3189.2
726.467	3271.12
726.653	3434.96
726.84	3410.38
727.027	3420.62
727.213	3160.53
727.4	3375.56
727.586	3303.89
727.773	3353.04
727.959	3371.47
728.145	3353.04
728.332	3328.46
728.518	3226.06
728.705	3414.48
728.891	3285.45
729.077	3387.85
729.264	3408.33
729.45	3379.66
729.636	3310.03
729.823	3377.61
730.009	3469.77
730.195	3469.77
730.382	3523.02
730.568	3424.72
730.754	3439.05
730.94	3406.28
731.126	3434.96
731.313	3434.96
731.499	3482.06
731.685	3506.63
731.871	3463.63
732.057	3482.06
732.243	3375.56
732.429	3443.15
732.615	3570.12
732.801	3314.13
732.987	3508.68
733.173	3426.76
733.359	3559.88
733.545	3529.16
733.731	3422.67
733.917	3418.57
734.103	3623.37
734.289	3568.07
734.475	3383.76
734.661	3645.9
734.847	3482.06
735.033	3461.58
735.219	3527.11
735.404	3492.3
735.59	3367.37
735.776	3338.7
735.962	3430.86
736.148	3437
736.333	3451.34
736.519	3543.5
736.705	3490.25
736.89	3455.44
737.076	3430.86
737.262	3359.18
737.447	3402.19
737.633	3439.05
737.819	3430.86
738.004	3502.54
738.19	3455.44
738.375	3287.5
738.561	3492.3
738.747	3463.63
738.932	3363.28
739.118	3336.65
739.303	3353.04
739.489	3480.01
739.674	3334.61
739.859	3525.07
740.045	3463.63
740.23	3488.2
740.416	3389.9
740.601	3348.94
740.786	3416.52
740.972	3326.41
741.157	3420.62
741.342	3406.28
741.528	3391.95
741.713	3318.22
741.898	3408.33
742.084	3334.61
742.269	3189.2
742.454	3324.37
742.639	3332.56
742.824	3238.35
743.01	3277.26
743.195	3373.52
743.38	3254.73
743.565	3369.42
743.75	3172.82
743.935	3310.03
744.12	3260.88
744.305	3164.62
744.49	3107.28
744.675	3107.28
744.86	3166.67
745.045	3185.1
745.23	3101.14
745.415	3172.82
745.6	3203.54
745.785	3254.73
745.97	3131.86
746.155	3082.7
746.34	3168.72
746.525	3080.66
746.71	3070.42
746.895	2918.87
747.079	3051.99
747.264	3080.66
747.449	2947.54
747.634	3017.17
747.819	3004.88
748.003	2965.97
748.188	2959.83
748.373	2982.35
748.557	2927.06
748.742	2873.81
748.927	2970.07
749.111	2773.46
749.296	2798.04
749.481	2800.09
749.665	2810.33
749.85	2759.13
750.034	2867.67
750.219	2752.98
750.404	2693.59
750.588	2822.61
750.773	2681.3
750.957	2623.96
751.141	2533.85
751.326	2671.06
751.51	2578.9
751.695	2712.02
751.879	2601.43
752.064	2558.42
752.248	2507.23
752.432	2650.58
752.617	2566.62
752.801	2503.13
752.985	2562.52
753.17	2470.36
753.354	2460.12
753.538	2480.6
753.722	2425.31
753.907	2396.64
754.091	2327
754.275	2310.62
754.459	2443.74
754.643	2249.18
754.828	2304.48
755.012	2374.11
755.196	2316.76
755.38	2271.71
755.564	2191.84
755.748	2302.43
755.932	2271.71
756.116	2224.61
756.3	2163.17
756.484	2314.72
756.668	2212.32
756.852	2181.6
757.036	2138.59
757.22	2052.58
757.404	2089.44
757.588	2175.45
757.772	2111.97
757.956	1956.32
758.14	2208.22
758.323	2003.43
758.507	2062.82
758.691	2046.43
758.875	2044.38
759.059	2146.78
759.242	1958.37
759.426	1950.18
759.61	1964.51
759.794	2068.96
759.977	1999.33
760.161	2025.95
760.345	2017.76
760.528	1903.07
760.712	1847.78
760.895	1909.22
761.079	1876.45
761.263	1831.4
761.446	1729
761.63	1763.81
761.813	1923.55
761.997	1851.88
762.18	1812.96
762.364	1645.03
762.547	1722.85
762.731	1718.76
762.914	1761.77
763.098	1706.47
763.281	1735.14
763.464	1733.09
763.648	1729
763.831	1663.46
764.015	1675.75
764.198	1636.84
764.381	1665.51
764.564	1751.53
764.748	1632.74
764.931	1694.18
765.114	1665.51
765.297	1700.33
765.481	1530.34
765.664	1663.46
765.847	1552.87
766.03	1718.76
766.213	1530.34
766.397	1503.72
766.58	1554.92
766.763	1464.81
766.946	1587.69
767.129	1550.82
767.312	1513.96
767.495	1587.69
767.678	1524.2
767.861	1530.34
768.044	1524.2
768.227	1491.43
768.41	1489.39
768.593	1579.5
768.776	1520.1
768.959	1481.19
769.142	1516.01
769.324	1511.91
769.507	1575.4
769.69	1565.16
769.873	1493.48
770.056	1393.13
770.239	1337.84
770.421	1405.42
770.604	1479.15
770.787	1427.95
770.97	1407.47
771.152	1509.86
771.335	1485.29
771.518	1429.99
771.7	1477.1
771.883	1520.1
772.066	1321.45
772.248	1370.6
772.431	1421.8
772.613	1327.6
772.796	1419.75
772.978	1262.06
773.161	1374.7
773.343	1278.44
773.526	1401.32
773.708	1319.4
773.891	1171.95
774.073	1343.98
774.256	1231.34
774.438	1374.7
774.621	1251.82
774.803	1227.25
774.985	1208.81
775.168	1245.68
775.35	1145.33
775.532	1260.01
775.715	1190.38
775.897	1217.01
776.079	1116.65
776.261	1147.37
776.444	1196.53
776.626	1104.37
776.808	1130.99
776.99	1114.61
777.173	1059.31
777.355	1104.37
777.537	1161.71
777.719	1079.79
777.901	1071.6
778.083	997.87
778.265	1075.7
778.447	1032.69
778.629	993.78
778.811	1030.64
778.993	1018.35
779.175	1022.45
779.357	985.58
779.539	958.96
779.721	1094.13
779.903	1067.5
780.085	975.35
780.267	940.53
780.449	942.58
780.631	872.95
780.812	940.53
780.994	930.29
781.176	1001.97
781.358	983.54
781.54	922.1
781.721	946.67
781.903	979.44
782.085	848.37
782.267	897.52
782.448	805.36
782.63	930.29
782.812	827.89
782.993	874.99
783.175	940.53
783.357	872.95
783.538	846.32
783.72	745.97
783.901	760.31
784.083	850.42
784.264	731.64
784.446	784.88
784.627	752.12
784.809	801.27
784.99	743.92
785.172	766.45
785.353	817.65
785.535	817.65
785.716	690.68
785.897	764.4
786.079	731.64
786.26	788.98
786.441	659.96
786.623	731.64
786.804	659.96
786.985	649.72
787.167	778.74
787.348	739.83
787.529	713.21
787.71	721.4
787.891	666.1
788.073	692.73
788.254	612.85
788.435	690.68
788.616	729.59
788.797	594.42
788.978	610.81
789.159	709.11
789.34	702.97
789.522	682.49
789.703	590.33
789.884	557.56
790.065	649.72
790.246	784.88
790.427	623.09
790.607	709.11
790.788	639.48
790.969	575.99
791.15	580.09
791.331	545.27
791.512	555.51
791.693	602.61
791.874	573.94
792.054	621.05
792.235	551.42
792.416	532.98
792.597	496.12
792.778	606.71
792.958	565.75
793.139	475.64
793.32	537.08
793.5	582.14
793.681	606.71
793.862	537.08
794.042	440.83
794.223	475.64
794.404	590.33
794.584	483.83
794.765	397.82
794.945	473.59
795.126	537.08
795.306	584.18
795.487	465.4
795.667	483.83
795.848	555.51
796.028	479.74
796.209	444.92
796.389	535.03
796.57	528.89
796.75	412.15
796.93	465.4
797.111	444.92
797.291	496.12
797.471	532.98
797.652	477.69
797.832	438.78
798.012	457.21
798.192	363
798.373	377.34
798.553	422.39
798.733	434.68
798.913	422.39
799.093	401.91
799.274	467.45
799.454	434.68
799.634	397.82
799.814	502.26
799.994	420.35
800.174	453.11
800.354	469.5
800.534	369.15
800.714	465.4
800.894	356.86
801.074	371.19
801.254	408.06
801.434	420.35
801.614	320
801.794	373.24
801.974	1139.18
802.154	360.95
802.334	412.15
802.514	363
802.693	444.92
802.873	432.63
803.053	518.65
803.233	416.25
803.413	367.1
803.592	444.92
803.772	348.67
803.952	317.95
804.131	332.28
804.311	360.95
804.491	348.67
804.67	287.23
804.85	358.91
805.03	332.28
805.209	414.2
805.389	311.8
805.568	287.23
805.748	301.56
805.928	328.19
806.107	354.81
806.287	391.67
806.466	332.28
806.646	324.09
806.825	303.61
807.004	334.33
807.184	346.62
807.363	227.84
807.543	354.81
807.722	313.85
807.901	363
808.081	332.28
808.26	250.36
808.439	389.63
808.619	276.99
808.798	354.81
808.977	330.23
809.156	268.8
809.336	344.57
809.515	289.28
809.694	281.08
809.873	330.23
810.052	373.24
810.231	350.71
810.411	268.8
810.59	287.23
810.769	217.6
810.948	266.75
811.127	266.75
811.306	207.36
811.485	182.78
811.664	350.71
811.843	246.27
812.022	291.32
812.201	274.94
812.38	344.57
812.559	227.84
812.737	272.89
812.916	334.33
813.095	176.64
813.274	244.22
813.453	320
813.632	281.08
813.811	262.65
813.989	141.82
814.168	270.84
814.347	231.93
814.526	221.69
814.704	133.63
814.883	233.98
815.062	256.51
815.24	238.08
815.419	168.45
815.598	264.7
815.776	238.08
815.955	264.7
816.133	162.3
816.312	156.16
816.49	215.55
816.669	240.12
816.847	281.08
817.026	332.28
817.204	248.32
817.383	254.46
817.561	168.45
817.74	268.8
817.918	238.08
818.097	203.26
818.275	238.08
818.453	215.55
818.632	356.86
818.81	150.01
818.988	115.2
819.167	158.21
819.345	168.45
819.523	217.6
819.701	203.26
819.879	174.59
820.058	238.08
820.236	176.64
820.414	139.77
820.592	250.36
820.77	162.3
820.948	211.45
821.127	104.96
821.305	156.16
821.483	240.12
821.661	276.99
821.839	186.88
822.017	164.35
822.195	115.2
822.373	260.6
822.551	133.63
822.729	223.74
822.907	174.59
823.085	250.36
823.262	150.01
823.44	227.84
823.618	170.49
823.796	246.27
823.974	170.49
824.152	223.74
824.329	129.53
824.507	158.21
824.685	147.97
824.863	131.58
825.04	197.12
825.218	272.89
825.396	188.93
825.574	147.97
825.751	139.77
825.929	213.5
826.107	190.97
826.284	109.05
826.462	178.69
826.639	156.16
826.817	76.29
826.994	123.39
827.172	117.25
827.349	213.5
827.527	121.34
827.704	227.84
827.882	137.73
828.059	115.2
828.237	180.73
828.414	131.58
828.591	111.1
828.769	139.77
828.946	117.25
829.124	150.01
829.301	154.11
829.478	231.93
829.655	74.24
829.833	107.01
830.01	104.96
830.187	162.3
830.364	150.01
830.542	137.73
830.719	135.68
830.896	88.57
831.073	188.93
831.25	168.45
831.427	217.6
831.604	150.01
831.782	125.44
831.959	145.92
832.136	139.77
832.313	82.43
832.49	88.57
832.667	127.49
832.844	102.91
833.021	233.98
833.198	137.73
833.374	197.12
833.551	104.96
833.728	51.71
833.905	139.77
834.082	135.68
834.259	201.21
834.436	166.4
834.612	143.87
834.789	102.91
834.966	160.25
835.143	123.39
835.319	90.62
835.496	145.92
835.673	78.33
835.85	137.73
836.026	100.86
836.203	145.92
836.38	154.11
836.556	74.24
836.733	31.23
836.909	137.73
837.086	82.43
837.262	35.33
837.439	94.72
837.616	66.05
837.792	121.34
837.968	154.11
838.145	33.28
838.321	98.81
838.498	37.38
838.674	227.84
838.851	104.96
839.027	49.66
839.203	129.53
839.38	166.4
839.556	127.49
839.732	133.63
839.909	39.42
840.085	94.72
840.261	131.58
840.437	147.97
840.614	43.52
840.79	123.39
840.966	145.92
841.142	133.63
841.318	18.94
841.494	152.06
841.671	61.95
841.847	135.68
842.023	57.86
842.199	68.09
842.375	139.77
842.551	135.68
842.727	43.52
842.903	166.4
843.079	115.2
843.255	100.86
843.431	100.86
843.607	74.24
843.783	70.14
843.959	74.24
844.134	31.23
844.31	64
844.486	123.39
844.662	117.25
844.838	100.86
845.013	154.11
845.189	117.25
845.365	127.49
845.541	76.29
845.716	137.73
845.892	111.1
846.068	121.34
846.244	104.96
846.419	129.53
846.595	16.9
846.77	51.71
846.946	129.53
847.122	72.19
847.297	35.33
847.473	111.1
847.648	16.9
847.824	154.11
847.999	61.95
848.175	39.42
848.35	84.48
848.526	137.73
848.701	74.24
848.876	117.25
849.052	107.01
849.227	31.23
849.403	102.91
849.578	80.38
849.753	115.2
849.929	121.34
850.104	33.28
850.279	109.05
850.454	72.19
850.63	162.3
850.805	55.81
850.98	74.24
851.155	70.14
851.33	100.86
851.505	84.48
851.681	107.01
851.856	74.24
852.031	111.1
852.206	78.33
852.381	109.05
852.556	43.52
852.731	59.9
852.906	47.62
853.081	84.48
853.256	47.62
853.431	39.42
853.606	104.96
853.781	33.28
853.956	45.57
854.131	143.87
854.305	-1.54
854.48	4.61
854.655	61.95
854.83	43.52
855.005	88.57
855.18	-24.06
855.354	25.09
855.529	45.57
855.704	35.33
855.879	143.87
856.053	86.53
856.228	49.66
856.403	-15.87
856.577	12.8
856.752	37.38
856.926	70.14
857.101	135.68
857.276	59.9
857.45	88.57
857.625	125.44
857.799	121.34
857.974	70.14
858.148	14.85
858.323	90.62
858.497	20.99
858.672	59.9
858.846	4.61
859.02	16.9
859.195	33.28
859.369	78.33
859.543	51.71
859.718	57.86
859.892	45.57
860.066	47.62
860.241	66.05
860.415	70.14
860.589	16.9
860.763	57.86
860.938	-48.64
861.112	94.72
861.286	70.14
861.46	66.05
861.634	61.95
861.808	90.62
861.982	0.51
862.157	-30.21
862.331	74.24
862.505	64
862.679	-9.73
862.853	94.72
863.027	16.9
863.201	76.29
863.375	43.52
863.549	66.05
863.722	39.42
863.896	98.81
864.07	53.76
864.244	64
864.418	27.14
864.592	72.19
864.766	78.33
864.939	23.04
865.113	64
865.287	18.94
865.461	12.8
865.634	90.62
865.808	18.94
865.982	27.14
866.156	0.51
866.329	51.71
866.503	49.66
866.676	51.71
866.85	-7.68
867.024	76.29
867.197	29.18
867.371	33.28
867.544	55.81
867.718	78.33
867.891	135.68
868.065	29.18
868.238	-24.06
868.412	61.95
868.585	0.51
868.759	88.57
868.932	29.18
869.105	-5.63
869.279	-46.59
869.452	59.9
869.625	78.33
869.799	-3.58
869.972	-5.63
870.145	-17.92
870.319	14.85
870.492	88.57
870.665	35.33
870.838	-32.26
871.011	-13.82
871.185	102.91
871.358	14.85
871.531	49.66
871.704	29.18
871.877	76.29
872.05	94.72
872.223	41.47
872.396	37.38
872.569	96.77
872.742	-17.92
872.915	100.86
873.088	4.61
873.261	4.61
873.434	51.71
873.607	107.01
873.78	113.15
873.953	57.86
874.126	16.9
874.299	64
874.471	12.8
874.644	25.09
874.817	20.99
874.99	82.43
875.163	-22.02
875.335	25.09
875.508	29.18
875.681	-15.87
875.853	-44.54
876.026	29.18
876.199	43.52
876.371	57.86
876.544	78.33
876.717	-3.58
876.889	41.47
877.062	59.9
877.234	43.52
877.407	88.57
877.579	12.8
877.752	20.99
877.924	25.09
878.097	-7.68
878.269	64
878.442	31.23
878.614	61.95
878.786	78.33
878.959	53.76
879.131	2.56
879.303	18.94
879.476	20.99
879.648	139.77
879.82	-19.97
879.993	-28.16
880.165	31.23
880.337	-62.98
880.509	18.94
880.681	25.09
880.854	18.94
881.026	59.9
881.198	53.76
881.37	-11.78
881.542	-30.21
881.714	-75.26
881.886	6.66
882.058	31.23
882.23	57.86
882.402	94.72
882.574	80.38
882.746	14.85
882.918	74.24
883.09	49.66
883.262	-13.82
883.434	39.42
883.606	-71.17
883.778	20.99
883.95	59.9
884.122	82.43
884.293	117.25
884.465	39.42
884.637	70.14
884.809	-15.87
884.98	33.28
885.152	27.14
885.324	-26.11
885.496	-36.35
885.667	94.72
885.839	49.66
886.011	64
886.182	66.05
886.354	-1.54
886.525	55.81
886.697	76.29
886.869	14.85
887.04	51.71
887.212	64
887.383	72.19
887.555	76.29
887.726	41.47
887.897	33.28
888.069	70.14
888.24	-5.63
888.412	16.9
888.583	-15.87
888.754	84.48
888.926	-17.92
889.097	23.04
889.268	-52.74
889.44	18.94
889.611	-11.78
889.782	90.62
889.953	45.57
890.125	49.66
890.296	-15.87
890.467	-36.35
890.638	23.04
890.809	37.38
890.98	27.14
891.151	8.7
891.323	72.19
891.494	27.14
891.665	-36.35
891.836	-26.11
892.007	14.85
892.178	27.14
892.349	12.8
892.52	-13.82
892.691	39.42
892.862	31.23
893.032	-75.26
893.203	6.66
893.374	33.28
893.545	23.04
893.716	27.14
893.887	64
894.057	-3.58
894.228	-36.35
894.399	39.42
894.57	74.24
894.74	39.42
894.911	127.49
895.082	55.81
895.253	33.28
895.423	14.85
895.594	41.47
895.764	29.18
895.935	-24.06
896.106	12.8
896.276	-40.45
896.447	61.95
896.617	47.62
896.788	35.33
896.958	39.42
897.129	-38.4
897.299	-28.16
897.47	107.01
897.64	23.04
897.81	41.47
897.981	121.34
898.151	-3.58
898.322	-5.63
898.492	-22.02
898.662	109.05
898.832	10.75
899.003	100.86
899.173	59.9
899.343	-38.4
899.513	12.8
