Data from USB4F104151__68__12-24-14-277.txt Node

Date: Fri Mar 14 12:24:14 EDT 2025
User: louis
Spectrometer: USB4F10415
Trigger mode: 4
Integration Time (sec): 3.500000E-2
Scans to average: 1
Electric dark correction enabled: true
Nonlinearity correction enabled: false
Boxcar width: 0
XAxis mode: Wavelengths
Number of Pixels in Spectrum: 3648
>>>>>Begin Spectral Data<<<<<
178.204	-84.99
178.424	-84.99
178.644	-84.99
178.864	-214.01
179.084	-78.85
179.304	19.46
179.524	-54.27
179.744	-29.7
179.964	23.55
180.184	-25.6
180.404	21.5
180.624	13.31
180.844	21.5
181.064	-64.51
181.283	-13.31
181.503	3.07
181.723	84.99
181.943	-17.41
182.163	35.84
182.383	21.5
182.602	60.42
182.822	136.19
183.042	-11.26
183.262	-33.79
183.482	23.55
183.701	-74.75
183.921	7.17
184.141	1.02
184.361	5.12
184.58	76.8
184.8	21.5
185.02	-5.12
185.239	62.46
185.459	21.5
185.679	5.12
185.898	23.55
186.118	-21.5
186.338	3.07
186.557	37.89
186.777	-84.99
186.997	1.02
187.216	101.37
187.436	56.32
187.655	29.7
187.875	58.37
188.095	56.32
188.314	17.41
188.534	44.03
188.753	-23.55
188.973	60.42
189.192	35.84
189.412	-48.13
189.631	-23.55
189.851	56.32
190.07	35.84
190.29	48.13
190.509	27.65
190.729	-29.7
190.948	82.94
191.168	224.25
191.387	111.61
191.607	54.27
191.826	52.22
192.045	58.37
192.265	-27.65
192.484	37.89
192.704	-13.31
192.923	-52.22
193.142	105.47
193.362	41.98
193.581	13.31
193.8	21.5
194.02	-11.26
194.239	54.27
194.458	35.84
194.678	29.7
194.897	-13.31
195.116	-11.26
195.335	-5.12
195.555	7.17
195.774	52.22
195.993	33.79
196.212	9.22
196.432	44.03
196.651	5.12
196.87	5.12
197.089	140.29
197.308	13.31
197.528	54.27
197.747	9.22
197.966	1.02
198.185	52.22
198.404	23.55
198.623	29.7
198.842	9.22
199.062	66.56
199.281	15.36
199.5	9.22
199.719	17.41
199.938	84.99
200.157	48.13
200.376	-3.07
200.595	58.37
200.814	-1.02
201.033	15.36
201.252	17.41
201.471	29.7
201.69	52.22
201.909	-3.07
202.128	84.99
202.347	21.5
202.566	-5.12
202.785	-50.18
203.004	-50.18
203.223	48.13
203.442	25.6
203.661	27.65
203.879	37.89
204.098	54.27
204.317	9.22
204.536	70.65
204.755	11.26
204.974	23.55
205.193	46.08
205.411	87.04
205.63	11.26
205.849	3.07
206.068	31.74
206.287	-44.03
206.505	46.08
206.724	-11.26
206.943	-48.13
207.162	5.12
207.381	68.61
207.599	-19.46
207.818	9.22
208.037	-3.07
208.255	37.89
208.474	19.46
208.693	82.94
208.911	-25.6
209.13	82.94
209.349	5.12
209.567	-27.65
209.786	48.13
210.005	60.42
210.223	-1.02
210.442	-97.28
210.661	60.42
210.879	29.7
211.098	44.03
211.316	11.26
211.535	29.7
211.753	66.56
211.972	15.36
212.191	23.55
212.409	-33.79
212.628	15.36
212.846	-13.31
213.065	60.42
213.283	82.94
213.502	-35.84
213.72	-7.17
213.938	29.7
214.157	46.08
214.375	1.02
214.594	-44.03
214.812	-15.36
215.031	76.8
215.249	33.79
215.467	76.8
215.686	54.27
215.904	54.27
216.122	35.84
216.341	-37.89
216.559	37.89
216.778	76.8
216.996	15.36
217.214	19.46
217.432	-19.46
217.651	82.94
217.869	-35.84
218.087	35.84
218.306	-1.02
218.524	33.79
218.742	7.17
218.96	48.13
219.179	-7.17
219.397	39.94
219.615	37.89
219.833	13.31
220.051	-17.41
220.27	56.32
220.488	9.22
220.706	37.89
220.924	-87.04
221.142	-9.22
221.36	-21.5
221.578	11.26
221.796	-7.17
222.015	19.46
222.233	-37.89
222.451	87.04
222.669	37.89
222.887	93.18
223.105	-1.02
223.323	50.18
223.541	31.74
223.759	46.08
223.977	31.74
224.195	23.55
224.413	68.61
224.631	39.94
224.849	31.74
225.067	56.32
225.285	-37.89
225.503	48.13
225.721	-76.8
225.939	17.41
226.157	84.99
226.375	109.57
226.592	-15.36
226.81	62.46
227.028	35.84
227.246	39.94
227.464	29.7
227.682	64.51
227.9	21.5
228.117	19.46
228.335	23.55
228.553	-9.22
228.771	1.02
228.989	-64.51
229.206	48.13
229.424	-31.74
229.642	-27.65
229.86	-5.12
230.077	74.75
230.295	9.22
230.513	44.03
230.731	5.12
230.948	125.95
231.166	-7.17
231.384	9.22
231.601	5.12
231.819	50.18
232.037	-3.07
232.254	-19.46
232.472	13.31
232.689	-5.12
232.907	-62.46
233.125	89.09
233.342	-35.84
233.56	15.36
233.777	74.75
233.995	31.74
234.213	95.23
234.43	21.5
234.648	-17.41
234.865	107.52
235.083	37.89
235.3	-62.46
235.518	82.94
235.735	87.04
235.953	78.85
236.17	11.26
236.388	-54.27
236.605	33.79
236.822	62.46
237.04	-7.17
237.257	52.22
237.475	-46.08
237.692	70.65
237.909	3.07
238.127	66.56
238.344	-19.46
238.562	-23.55
238.779	-19.46
238.996	-25.6
239.214	52.22
239.431	37.89
239.648	33.79
239.865	21.5
240.083	39.94
240.3	128
240.517	56.32
240.735	5.12
240.952	68.61
241.169	46.08
241.386	5.12
241.603	13.31
241.821	21.5
242.038	7.17
242.255	-68.61
242.472	-7.17
242.689	58.37
242.907	39.94
243.124	-31.74
243.341	-25.6
243.558	31.74
243.775	-9.22
243.992	3.07
244.209	76.8
244.426	111.61
244.643	-21.5
244.86	21.5
245.078	25.6
245.295	-9.22
245.512	-11.26
245.729	15.36
245.946	52.22
246.163	29.7
246.38	-29.7
246.597	31.74
246.814	33.79
247.031	-27.65
247.248	80.89
247.464	52.22
247.681	1.02
247.898	-21.5
248.115	66.56
248.332	-25.6
248.549	33.79
248.766	80.89
248.983	17.41
249.2	17.41
249.417	76.8
249.633	-5.12
249.85	-15.36
250.067	9.22
250.284	27.65
250.501	-25.6
250.717	7.17
250.934	-66.56
251.151	15.36
251.368	44.03
251.585	52.22
251.801	-1.02
252.018	-15.36
252.235	-23.55
252.451	52.22
252.668	-17.41
252.885	66.56
253.102	-44.03
253.318	7.17
253.535	17.41
253.752	-15.36
253.968	33.79
254.185	-11.26
254.401	11.26
254.618	11.26
254.835	-9.22
255.051	68.61
255.268	17.41
255.484	25.6
255.701	-19.46
255.917	37.89
256.134	-3.07
256.351	46.08
256.567	74.75
256.784	66.56
257	-39.94
257.217	33.79
257.433	64.51
257.65	7.17
257.866	52.22
258.082	-76.8
258.299	37.89
258.515	13.31
258.732	-29.7
258.948	-68.61
259.165	-76.8
259.381	-41.98
259.597	89.09
259.814	5.12
260.03	68.61
260.246	68.61
260.463	56.32
260.679	33.79
260.895	15.36
261.112	58.37
261.328	9.22
261.544	-19.46
261.761	117.76
261.977	-27.65
262.193	-66.56
262.409	136.19
262.626	29.7
262.842	-7.17
263.058	23.55
263.274	9.22
263.49	31.74
263.707	48.13
263.923	54.27
264.139	66.56
264.355	-29.7
264.571	68.61
264.787	66.56
265.004	84.99
265.22	-21.5
265.436	58.37
265.652	-5.12
265.868	25.6
266.084	-1.02
266.3	-5.12
266.516	-17.41
266.732	11.26
266.948	15.36
267.164	33.79
267.38	27.65
267.596	-7.17
267.812	89.09
268.028	44.03
268.244	33.79
268.46	-17.41
268.676	-27.65
268.892	52.22
269.108	-27.65
269.324	5.12
269.54	37.89
269.756	64.51
269.972	-29.7
270.188	78.85
270.403	-52.22
270.619	9.22
270.835	31.74
271.051	7.17
271.267	-29.7
271.483	-35.84
271.698	25.6
271.914	-35.84
272.13	-7.17
272.346	-44.03
272.562	1.02
272.777	-9.22
272.993	15.36
273.209	39.94
273.425	-11.26
273.64	-33.79
273.856	-23.55
274.072	-33.79
274.287	52.22
274.503	5.12
274.719	-41.98
274.934	-31.74
275.15	-1.02
275.366	64.51
275.581	-31.74
275.797	44.03
276.012	56.32
276.228	-21.5
276.444	44.03
276.659	27.65
276.875	-7.17
277.09	35.84
277.306	29.7
277.521	48.13
277.737	-17.41
277.952	-15.36
278.168	103.42
278.383	101.37
278.599	5.12
278.814	-5.12
279.03	62.46
279.245	54.27
279.461	25.6
279.676	64.51
279.892	50.18
280.107	19.46
280.322	11.26
280.538	23.55
280.753	31.74
280.969	105.47
281.184	1.02
281.399	107.52
281.615	78.85
281.83	-58.37
282.045	-23.55
282.26	-21.5
282.476	11.26
282.691	-1.02
282.906	62.46
283.122	9.22
283.337	-21.5
283.552	50.18
283.767	37.89
283.983	23.55
284.198	21.5
284.413	-3.07
284.628	-56.32
284.843	-9.22
285.058	72.7
285.274	25.6
285.489	-21.5
285.704	21.5
285.919	-13.31
286.134	21.5
286.349	-5.12
286.564	84.99
286.779	21.5
286.995	33.79
287.21	-1.02
287.425	84.99
287.64	-3.07
287.855	9.22
288.07	-44.03
288.285	68.61
288.5	74.75
288.715	48.13
288.93	-74.75
289.145	-29.7
289.36	15.36
289.575	13.31
289.79	70.65
290.004	58.37
290.219	101.37
290.434	-41.98
290.649	9.22
290.864	27.65
291.079	17.41
291.294	23.55
291.509	35.84
291.724	31.74
291.938	58.37
292.153	3.07
292.368	-5.12
292.583	13.31
292.798	52.22
293.012	23.55
293.227	64.51
293.442	29.7
293.657	21.5
293.871	117.76
294.086	19.46
294.301	70.65
294.516	29.7
294.73	117.76
294.945	52.22
295.16	-3.07
295.374	23.55
295.589	50.18
295.804	25.6
296.018	31.74
296.233	27.65
296.447	109.57
296.662	9.22
296.877	33.79
297.091	46.08
297.306	52.22
297.52	17.41
297.735	48.13
297.949	15.36
298.164	31.74
298.378	29.7
298.593	13.31
298.807	-13.31
299.022	39.94
299.236	50.18
299.451	44.03
299.665	44.03
299.88	5.12
300.094	19.46
300.309	54.27
300.523	-11.26
300.737	1.02
300.952	50.18
301.166	39.94
301.381	-50.18
301.595	21.5
301.809	31.74
302.024	-23.55
302.238	21.5
302.452	78.85
302.667	-25.6
302.881	41.98
303.095	35.84
303.309	60.42
303.524	31.74
303.738	-44.03
303.952	-19.46
304.166	37.89
304.381	5.12
304.595	93.18
304.809	9.22
305.023	35.84
305.237	17.41
305.452	-19.46
305.666	82.94
305.88	-11.26
306.094	50.18
306.308	21.5
306.522	-9.22
306.736	11.26
306.95	44.03
307.164	-11.26
307.379	50.18
307.593	109.57
307.807	78.85
308.021	84.99
308.235	-5.12
308.449	-46.08
308.663	1.02
308.877	52.22
309.091	84.99
309.305	111.61
309.519	-29.7
309.733	107.52
309.947	27.65
310.161	82.94
310.374	-5.12
310.588	50.18
310.802	-39.94
311.016	25.6
311.23	-7.17
311.444	-60.42
311.658	50.18
311.872	117.76
312.085	7.17
312.299	72.7
312.513	23.55
312.727	84.99
312.941	11.26
313.154	76.8
313.368	58.37
313.582	56.32
313.796	76.8
314.009	-1.02
314.223	72.7
314.437	1.02
314.651	-3.07
314.864	-50.18
315.078	15.36
315.292	17.41
315.505	31.74
315.719	-19.46
315.933	31.74
316.146	37.89
316.36	15.36
316.573	87.04
316.787	76.8
317.001	58.37
317.214	17.41
317.428	-44.03
317.641	-19.46
317.855	19.46
318.068	-5.12
318.282	-17.41
318.495	89.09
318.709	44.03
318.922	-3.07
319.136	15.36
319.349	15.36
319.563	44.03
319.776	-17.41
319.99	13.31
320.203	41.98
320.417	-11.26
320.63	50.18
320.843	130.05
321.057	-33.79
321.27	-35.84
321.483	19.46
321.697	99.33
321.91	19.46
322.124	33.79
322.337	37.89
322.55	17.41
322.763	-41.98
322.977	25.6
323.19	-11.26
323.403	-3.07
323.617	-31.74
323.83	84.99
324.043	5.12
324.256	29.7
324.469	-17.41
324.683	35.84
324.896	-15.36
325.109	54.27
325.322	13.31
325.535	-5.12
325.748	17.41
325.962	56.32
326.175	72.7
326.388	101.37
326.601	78.85
326.814	80.89
327.027	35.84
327.24	64.51
327.453	-19.46
327.666	11.26
327.879	29.7
328.092	54.27
328.305	-35.84
328.518	64.51
328.731	31.74
328.944	5.12
329.157	-1.02
329.37	21.5
329.583	37.89
329.796	87.04
330.009	-60.42
330.222	-7.17
330.435	25.6
330.648	-9.22
330.861	44.03
331.073	-37.89
331.286	11.26
331.499	-37.89
331.712	-1.02
331.925	-39.94
332.138	23.55
332.35	50.18
332.563	3.07
332.776	-48.13
332.989	17.41
333.202	5.12
333.414	7.17
333.627	27.65
333.84	48.13
334.053	31.74
334.265	37.89
334.478	46.08
334.691	7.17
334.903	-11.26
335.116	-13.31
335.329	25.6
335.541	-11.26
335.754	78.85
335.966	17.41
336.179	13.31
336.392	1.02
336.604	91.13
336.817	46.08
337.029	35.84
337.242	17.41
337.454	60.42
337.667	7.17
337.88	93.18
338.092	-19.46
338.305	17.41
338.517	25.6
338.729	113.66
338.942	29.7
339.154	58.37
339.367	-44.03
339.579	13.31
339.792	-37.89
340.004	39.94
340.217	80.89
340.429	68.61
340.641	-68.61
340.854	-35.84
341.066	41.98
341.278	52.22
341.491	70.65
341.703	19.46
341.915	58.37
342.128	97.28
342.34	21.5
342.552	-7.17
342.764	-13.31
342.977	-5.12
343.189	89.09
343.401	62.46
343.613	3.07
343.826	29.7
344.038	-50.18
344.25	46.08
344.462	25.6
344.674	37.89
344.886	25.6
345.099	46.08
345.311	44.03
345.523	48.13
345.735	-33.79
345.947	70.65
346.159	-15.36
346.371	-27.65
346.583	37.89
346.795	99.33
347.007	27.65
347.219	25.6
347.431	3.07
347.643	11.26
347.855	-11.26
348.067	52.22
348.279	-1.02
348.491	50.18
348.703	25.6
348.915	35.84
349.127	56.32
349.339	89.09
349.551	19.46
349.763	11.26
349.975	19.46
350.187	74.75
350.399	80.89
350.61	80.89
350.822	25.6
351.034	29.7
351.246	17.41
351.458	80.89
351.669	58.37
351.881	48.13
352.093	87.04
352.305	56.32
352.517	50.18
352.728	44.03
352.94	70.65
353.152	50.18
353.363	-1.02
353.575	41.98
353.787	-1.02
353.999	41.98
354.21	39.94
354.422	54.27
354.633	23.55
354.845	33.79
355.057	35.84
355.268	17.41
355.48	78.85
355.692	-66.56
355.903	3.07
356.115	-44.03
356.326	17.41
356.538	44.03
356.749	29.7
356.961	84.99
357.172	142.33
357.384	-9.22
357.595	41.98
357.807	13.31
358.018	-39.94
358.23	72.7
358.441	89.09
358.653	95.23
358.864	64.51
359.075	-11.26
359.287	-31.74
359.498	41.98
359.709	-19.46
359.921	64.51
360.132	50.18
360.344	95.23
360.555	1.02
360.766	39.94
360.977	-17.41
361.189	11.26
361.4	68.61
361.611	46.08
361.823	66.56
362.034	-15.36
362.245	-21.5
362.456	56.32
362.667	111.61
362.879	1.02
363.09	25.6
363.301	-7.17
363.512	99.33
363.723	17.41
363.935	-3.07
364.146	109.57
364.357	17.41
364.568	68.61
364.779	-3.07
364.99	9.22
365.201	-37.89
365.412	56.32
365.623	-29.7
365.834	121.85
366.045	-1.02
366.256	93.18
366.467	33.79
366.678	19.46
366.889	-3.07
367.1	68.61
367.311	31.74
367.522	37.89
367.733	31.74
367.944	82.94
368.155	103.42
368.366	-29.7
368.577	-23.55
368.788	130.05
368.999	39.94
369.209	56.32
369.42	101.37
369.631	136.19
369.842	23.55
370.053	46.08
370.264	46.08
370.474	29.7
370.685	11.26
370.896	68.61
371.107	31.74
371.317	-52.22
371.528	7.17
371.739	7.17
371.95	21.5
372.16	27.65
372.371	17.41
372.582	-7.17
372.792	72.7
373.003	19.46
373.214	-23.55
373.424	97.28
373.635	56.32
373.846	64.51
374.056	44.03
374.267	91.13
374.477	99.33
374.688	-44.03
374.898	23.55
375.109	84.99
375.319	76.8
375.53	80.89
375.74	132.09
375.951	56.32
376.161	27.65
376.372	70.65
376.582	5.12
376.793	-21.5
377.003	-33.79
377.214	82.94
377.424	44.03
377.635	103.42
377.845	-82.94
378.055	-33.79
378.266	-99.33
378.476	1.02
378.686	31.74
378.897	89.09
379.107	144.38
379.317	78.85
379.528	-29.7
379.738	39.94
379.948	-58.37
380.158	101.37
380.369	39.94
380.579	15.36
380.789	72.7
380.999	76.8
381.21	125.95
381.42	50.18
381.63	-15.36
381.84	76.8
382.05	9.22
382.261	50.18
382.471	-41.98
382.681	29.7
382.891	66.56
383.101	31.74
383.311	39.94
383.521	37.89
383.731	21.5
383.941	17.41
384.151	46.08
384.361	11.26
384.571	-31.74
384.781	109.57
384.991	130.05
385.201	130.05
385.411	84.99
385.621	52.22
385.831	9.22
386.041	93.18
386.251	74.75
386.461	23.55
386.671	101.37
386.881	-17.41
387.091	46.08
387.301	11.26
387.511	-1.02
387.72	82.94
387.93	25.6
388.14	37.89
388.35	19.46
388.56	31.74
388.769	113.66
388.979	64.51
389.189	9.22
389.399	50.18
389.609	33.79
389.818	64.51
390.028	13.31
390.238	74.75
390.447	50.18
390.657	52.22
390.867	113.66
391.076	7.17
391.286	44.03
391.496	37.89
391.705	138.24
391.915	46.08
392.125	111.61
392.334	-27.65
392.544	119.81
392.753	23.55
392.963	29.7
393.172	46.08
393.382	27.65
393.591	119.81
393.801	29.7
394.01	91.13
394.22	128
394.429	125.95
394.639	107.52
394.848	132.09
395.058	13.31
395.267	121.85
395.477	74.75
395.686	74.75
395.895	72.7
396.105	125.95
396.314	84.99
396.524	66.56
396.733	115.71
396.942	89.09
397.152	76.8
397.361	138.24
397.57	84.99
397.78	91.13
397.989	97.28
398.198	207.87
398.407	113.66
398.617	78.85
398.826	84.99
399.035	115.71
399.244	48.13
399.453	97.28
399.663	7.17
399.872	93.18
400.081	78.85
400.29	113.66
400.499	76.8
400.708	117.76
400.917	113.66
401.127	1.02
401.336	130.05
401.545	168.96
401.754	117.76
401.963	105.47
402.172	87.04
402.381	136.19
402.59	132.09
402.799	41.98
403.008	103.42
403.217	101.37
403.426	60.42
403.635	35.84
403.844	115.71
404.053	117.76
404.262	72.7
404.471	177.15
404.68	109.57
404.888	136.19
405.097	84.99
405.306	144.38
405.515	121.85
405.724	109.57
405.933	109.57
406.142	162.81
406.35	138.24
406.559	179.2
406.768	132.09
406.977	160.77
407.185	156.67
407.394	148.48
407.603	41.98
407.812	226.3
408.02	209.92
408.229	191.49
408.438	205.82
408.646	226.3
408.855	293.88
409.064	248.83
409.272	222.2
409.481	250.88
409.69	201.72
409.898	230.4
410.107	230.4
410.315	297.98
410.524	226.3
410.733	332.79
410.941	291.84
411.15	277.5
411.358	326.65
411.567	377.85
411.775	377.85
411.984	398.33
412.192	369.66
412.401	424.95
412.609	404.47
412.818	424.95
413.026	416.76
413.234	480.25
413.443	439.29
413.651	447.48
413.86	549.88
414.068	519.16
414.276	586.74
414.485	578.55
414.693	635.89
414.901	652.28
415.11	678.9
415.318	560.12
415.526	717.81
415.734	721.91
415.943	689.14
416.151	771.06
416.359	758.77
416.567	766.96
416.776	699.38
416.984	816.12
417.192	846.84
417.4	938.99
417.608	914.42
417.817	932.85
418.025	977.91
418.233	1119.21
418.441	1043.44
418.649	1070.06
418.857	1143.79
419.065	1213.42
419.273	1063.92
419.481	1227.76
419.689	1272.81
419.897	1313.77
420.105	1358.83
420.313	1367.02
420.521	1455.08
420.729	1493.99
420.937	1608.68
421.145	1506.28
421.353	1657.83
421.561	1672.17
421.769	1731.56
421.977	1868.77
422.185	1858.53
422.393	1942.5
422.601	1922.02
422.809	2036.7
423.017	2153.44
423.224	2167.77
423.432	2098.14
423.64	2149.34
423.848	2290.65
424.056	2286.56
424.263	2601.94
424.471	2472.92
424.679	2587.61
424.887	2657.24
425.094	2913.24
425.302	2866.13
425.51	2823.12
425.718	3036.11
425.925	2929.62
426.133	3115.98
426.341	3257.29
426.548	3494.86
426.756	3398.6
426.964	3419.08
427.171	3742.66
427.379	3785.67
427.586	3775.43
427.794	4092.87
428.001	4031.43
428.209	4309.95
428.417	4309.95
428.624	4535.23
428.832	4576.19
429.039	4656.06
429.247	4654.01
429.454	5020.6
429.662	5329.84
429.869	4887.48
430.076	5333.93
430.284	5084.08
430.491	5434.29
430.699	5761.96
430.906	5884.84
431.114	5882.79
431.321	6089.64
431.528	6063.01
431.736	6607.77
431.943	6902.68
432.15	6679.45
432.358	6667.16
432.565	6972.31
432.772	6980.5
432.979	7449.49
433.187	7398.29
433.394	7736.2
433.601	8147.84
433.808	8061.83
434.016	8158.08
434.223	8334.21
434.43	8983.41
434.637	8782.71
434.844	9313.14
435.052	9585.52
435.259	9464.69
435.466	9399.15
435.673	9577.33
435.88	9829.23
436.087	10453.86
436.294	10457.95
436.501	10646.37
436.708	10578.78
436.915	10853.21
437.122	11567.95
437.329	11215.7
437.537	11340.63
437.743	12079.94
437.95	11623.25
438.157	12442.43
438.364	12714.81
438.571	12630.85
438.778	12663.61
438.985	14076.71
439.192	13513.52
439.399	13812.53
439.606	13556.53
439.813	14324.52
440.02	15231.77
440.227	14938.91
440.433	14986.01
440.64	15319.83
440.847	15438.61
441.054	15518.48
441.261	16753.41
441.467	16341.77
441.674	16767.74
441.881	17488.63
442.088	17298.17
442.294	17304.31
442.501	17824.5
442.708	18346.73
442.914	18830.05
443.121	19413.72
443.328	18932.45
443.534	20642.5
443.741	19894.99
443.948	19737.3
444.154	21226.17
444.361	21086.91
444.568	21158.59
444.774	21146.3
444.981	21619.38
445.187	22188.72
445.394	22983.33
445.6	22608.55
445.807	24826.5
446.013	23728.79
446.22	24009.36
446.426	25246.33
446.633	25221.76
446.839	25997.94
447.046	25162.37
447.252	26641
447.459	26503.79
447.665	26239.6
447.871	27574.88
448.078	29069.89
448.284	27634.27
448.491	28275.28
448.697	29170.24
448.903	29905.46
449.11	29739.58
449.316	29246.02
449.522	29852.22
449.728	30638.64
449.935	30982.7
450.141	30951.98
450.347	31670.81
450.553	30734.89
450.76	31205.92
450.966	32006.68
451.172	31750.68
451.378	32686.61
451.584	32051.73
451.791	32553.49
451.997	32549.39
452.203	32813.58
452.409	33296.9
452.615	33047.05
452.821	31848.99
453.027	31199.78
453.233	32938.51
453.44	31480.35
453.646	31808.03
453.852	32365.07
454.058	32752.14
454.264	31322.66
454.47	32446.99
454.676	31844.89
454.882	32565.78
455.088	29700.67
455.294	30222.9
455.5	30986.79
455.705	31261.22
455.911	29710.91
456.117	29370.94
456.323	28889.67
456.529	27245.15
456.735	28846.66
456.941	27927.13
457.147	27284.06
457.352	26622.57
457.558	26143.35
457.764	26546.79
457.97	25748.09
458.176	25059.97
458.381	25084.55
458.587	23935.63
458.793	23704.21
458.999	22504.1
459.204	24171.15
459.41	23612.06
459.616	22211.25
459.821	21836.47
460.027	21852.85
460.233	21512.89
460.438	20306.63
460.644	20589.25
460.85	19591.89
461.055	19319.51
461.261	19372.76
461.466	17982.19
461.672	17455.86
461.878	18793.19
462.083	17349.37
462.289	17167.1
462.494	16888.57
462.7	15948.56
462.905	15786.77
463.111	16108.3
463.316	16309
463.522	15946.51
463.727	15706.9
463.932	16120.59
464.138	15665.94
464.343	15870.73
464.549	15375.13
464.754	15919.89
464.959	15661.84
465.165	15721.23
465.37	15147.8
465.575	14670.62
465.781	14947.1
465.986	15235.86
466.191	14740.26
466.397	14385.96
466.602	13790
466.807	14117.67
467.012	14355.24
467.218	14164.78
467.423	14107.43
467.628	13906.73
467.833	14736.16
468.038	14000.94
468.244	13749.04
468.449	14342.95
468.654	13794.09
468.859	13640.5
469.064	13730.61
469.269	13056.82
469.474	13206.33
469.679	13407.03
469.885	13028.15
470.09	13232.95
470.295	13077.3
470.5	12632.9
470.705	13071.16
470.91	12616.51
471.115	12653.37
471.32	12591.94
471.525	12692.29
471.73	12464.96
471.935	12321.6
472.139	11729.74
472.344	11832.14
472.549	12006.22
472.754	11809.61
472.959	11563.86
473.164	11107.16
473.369	11107.16
473.574	11391.83
473.778	11488.08
473.983	11135.83
474.188	11232.08
474.393	10812.25
474.598	10763.1
474.802	10656.61
475.007	10830.68
475.212	10646.37
475.417	10208.1
475.621	10068.84
475.826	10150.76
476.031	9958.25
476.235	10031.97
476.44	9800.55
476.645	9896.81
476.849	9888.62
477.054	9728.88
477.259	9681.77
477.463	9614.19
477.668	9444.21
477.872	9569.13
478.077	9302.9
478.282	9108.34
478.486	9114.48
478.691	8948.6
478.895	9030.52
479.1	8721.27
479.304	8938.36
479.509	8668.03
479.713	8917.88
479.918	8373.12
480.122	8530.81
480.326	8491.9
480.531	8713.08
480.735	8409.98
480.94	8321.92
481.144	8792.95
481.348	8162.18
481.553	8473.47
481.757	8211.33
481.961	8420.22
482.166	8326.02
482.37	8260.48
482.574	8231.81
482.778	8399.74
482.983	8520.57
483.187	8389.5
483.391	8385.41
483.595	8254.34
483.8	8070.02
484.004	8213.38
484.208	8342.4
484.412	8291.2
484.616	8305.54
484.821	8356.74
485.025	8186.76
485.229	8196.99
485.433	8199.04
485.637	8360.83
485.841	8024.97
486.045	8227.71
486.249	8213.38
486.453	8237.95
486.657	8330.11
486.861	8014.73
487.065	8078.21
487.269	8223.62
487.473	8037.25
487.677	8221.57
487.881	8266.63
488.085	8117.12
488.289	8473.47
488.493	7990.15
488.697	8414.08
488.901	8407.94
489.105	8053.64
489.309	8203.14
489.512	8381.31
489.716	8428.42
489.92	8237.95
490.124	8397.7
490.328	8606.59
490.531	8383.36
490.735	8475.52
490.939	8336.26
491.143	8536.96
491.346	8248.19
491.55	8665.98
491.754	8481.66
491.958	8573.82
492.161	8534.91
492.365	8864.63
492.569	8582.01
492.772	8584.06
492.976	8776.57
493.18	8725.37
493.383	8727.42
493.587	8981.37
493.79	8997.75
493.994	8911.74
494.197	8969.08
494.401	9120.63
494.605	9167.73
494.808	9304.95
495.012	9261.94
495.215	9274.23
495.419	9370.48
495.622	9472.88
495.825	9438.06
496.029	9495.41
496.232	9663.34
496.436	9659.24
496.639	10218.34
496.843	9814.89
497.046	10271.59
497.249	10328.93
497.453	10290.02
497.656	10310.5
497.859	10435.42
498.063	10703.71
498.266	10687.32
498.469	10494.82
498.673	10847.07
498.876	10894.17
499.079	11092.82
499.282	11158.36
499.485	11447.12
499.689	11338.58
499.892	11490.13
500.095	11580.24
500.298	11903.82
500.501	11608.91
500.705	11963.21
500.908	12206.92
501.111	12383.04
501.314	12589.89
501.517	12366.66
501.72	12831.55
501.923	12495.68
502.126	13013.82
502.329	13146.94
502.532	13364.02
502.735	13591.34
502.938	13579.06
503.141	13783.85
503.344	13951.79
503.547	13970.22
503.75	14160.68
503.953	14351.14
504.156	14492.45
504.359	14654.24
504.562	14783.26
504.765	15076.12
504.968	15377.17
505.17	15393.56
505.373	15481.62
505.576	15629.07
505.779	15936.27
505.982	16003.85
506.185	16270.09
506.387	16349.96
506.59	16565
506.793	16835.33
506.996	16749.31
507.198	17443.57
507.401	17341.18
507.604	17500.92
507.807	17763.06
508.009	17701.62
508.212	18002.67
508.415	18193.13
508.617	18469.61
508.82	18664.16
509.022	18463.46
509.225	18893.54
509.428	19155.68
509.63	19487.45
509.833	19227.35
510.035	20054.73
510.238	19829.46
510.44	20077.26
510.643	20648.64
510.845	20488.9
511.048	20351.69
511.25	20730.56
511.453	21254.84
511.655	21770.93
511.858	21592.76
512.06	21701.3
512.262	22131.37
512.465	22014.64
512.667	22221.48
512.87	22717.09
513.072	22756
513.274	22973.09
513.477	23589.53
513.679	24001.17
513.881	23952.02
514.084	24232.59
514.286	24128.14
514.488	24349.32
514.69	25440.89
514.893	25248.38
515.095	25401.98
515.297	25582.2
515.499	25547.39
515.701	26042.99
515.904	26266.22
516.106	26434.16
516.308	26456.68
516.51	27132.51
516.712	26884.71
516.914	27427.42
517.116	28129.87
517.318	27863.64
517.52	28344.91
517.722	28113.49
517.925	28826.18
518.127	29262.4
518.329	29192.77
518.531	29254.21
518.733	29737.53
518.935	30183.99
519.136	30155.32
519.338	30765.61
519.54	31060.52
519.742	31326.75
519.944	31240.74
520.146	31949.34
520.348	31848.99
520.55	32027.16
520.752	32360.98
520.954	33163.78
521.155	32737.8
521.357	33321.48
521.559	33612.29
521.761	34032.12
521.963	33774.08
522.164	34075.13
522.366	34673.13
522.568	34531.83
522.77	35138.02
522.971	35400.16
523.173	35236.33
523.375	35604.96
523.576	35609.06
523.778	35717.6
523.98	36123.1
524.181	36288.98
524.383	36635.09
524.584	36968.91
524.786	37235.14
524.988	37085.64
525.189	37421.51
525.391	37607.87
525.592	38154.68
525.794	38199.74
525.995	38269.37
526.197	38742.45
526.398	38584.76
526.6	39014.83
526.801	38934.96
527.003	39029.16
527.204	39131.56
527.406	39520.68
527.607	39721.38
527.808	39874.98
528.01	39334.31
528.211	40135.07
528.412	40298.91
528.614	39973.28
528.815	40391.06
529.016	40645.01
529.218	40165.79
529.419	40583.57
529.62	40636.82
529.822	40626.58
530.023	40782.23
530.224	41132.43
530.425	40917.39
530.626	40688.02
530.828	40583.57
531.029	41435.53
531.23	41161.1
531.431	41243.02
531.632	41413
531.833	41638.28
532.035	41617.8
532.236	41875.84
532.437	42123.65
532.638	41537.93
532.839	41957.76
533.04	42070.4
533.241	41714.05
533.442	42289.53
533.643	42117.5
533.844	42178.94
534.045	42113.41
534.246	41798.02
534.447	42025.34
534.648	41699.72
534.849	42410.36
535.05	42113.41
535.251	42248.57
535.451	42242.43
535.652	42496.38
535.853	42348.92
536.054	42326.39
536.255	42725.75
536.456	42365.31
536.657	42858.87
536.857	42344.83
537.058	42238.33
537.259	42314.11
537.46	42643.83
537.66	42500.47
537.861	42330.49
538.062	42264.96
538.263	42822
538.463	42084.73
538.664	42371.45
538.865	42449.27
539.065	42494.33
539.266	42318.2
539.466	42592.63
539.667	41849.22
539.868	43014.51
540.068	42482.04
540.269	42289.53
540.469	42488.18
540.67	42238.33
540.87	42008.96
541.071	41881.98
541.271	42082.69
541.472	42312.06
541.672	42011.01
541.873	42375.55
542.073	41564.55
542.274	42774.9
542.474	41963.9
542.675	41996.67
542.875	42344.83
543.075	42508.66
543.276	41986.43
543.476	42353.02
543.676	42176.89
543.877	42211.71
544.077	42006.91
544.277	42166.65
544.478	41716.1
544.678	42144.12
544.878	42285.43
545.078	41564.55
545.279	41658.76
545.479	41879.94
545.679	42324.35
545.879	41970.05
546.079	42123.65
546.28	41898.37
546.48	41740.68
546.68	42129.79
546.88	42183.04
547.08	41857.41
547.28	41996.67
547.48	41568.65
547.68	41953.66
547.88	41410.95
548.081	41978.24
548.281	41982.34
548.481	41644.42
548.681	42017.15
548.881	41984.38
549.081	41818.5
549.28	41433.48
549.48	41671.04
549.68	41546.12
549.88	42328.44
550.08	41638.28
550.28	41634.18
550.48	41718.15
550.68	42039.68
550.88	41259.4
551.08	41431.43
551.279	41793.92
551.479	41431.43
551.679	41273.74
551.879	41570.69
552.079	41916.8
552.278	41630.08
552.478	41429.38
552.678	41619.84
552.878	41437.58
553.077	41660.8
553.277	41189.77
553.477	41898.37
553.676	41611.65
553.876	41613.7
554.076	41013.65
554.275	41032.08
554.475	41048.46
554.674	41148.81
554.874	41150.86
555.074	41322.89
555.273	41183.63
555.473	40884.62
555.672	40667.54
555.872	41070.99
556.071	41445.77
556.271	41157
556.47	40876.43
556.67	40597.91
556.869	40962.45
557.068	40919.44
557.268	40602
557.467	40679.83
557.667	40776.08
557.866	40407.45
558.065	40350.1
558.265	40597.91
558.464	40124.83
558.663	40675.73
558.863	39635.36
559.062	40659.35
559.261	40065.44
559.461	40401.3
559.66	39889.31
559.859	39881.12
560.058	39725.47
560.258	39809.44
560.457	39193
560.656	39674.27
560.855	39276.97
561.054	39608.74
561.253	39330.22
561.453	39418.28
561.652	39625.12
561.851	39604.64
562.05	39389.61
562.249	38824.37
562.448	39365.03
562.647	39276.97
562.846	38988.21
563.045	39037.36
563.244	38607.28
563.443	38611.38
563.642	38228.41
563.841	38855.09
564.04	38402.49
564.239	38789.55
564.438	37915.07
564.637	38384.05
564.836	38312.38
565.035	37693.89
565.234	37886.4
565.432	37702.08
565.631	37427.65
565.83	38048.19
566.029	37450.18
566.228	37142.99
566.427	37294.53
566.625	37306.82
566.824	36964.81
567.023	37296.58
567.222	36510.16
567.42	36921.8
567.619	37185.99
567.818	37206.47
568.016	36870.61
568.215	36760.02
568.414	36102.62
568.612	36311.51
568.811	36131.29
569.01	36235.74
569.208	35901.92
569.407	36258.26
569.605	35439.08
569.804	36055.51
570.002	35391.97
570.201	35826.14
570.4	35477.99
570.598	35457.51
570.797	35447.27
570.995	35437.03
571.193	34712.05
571.392	35299.81
571.59	34738.67
571.789	35064.3
571.987	34619.89
572.186	34396.66
572.384	34265.59
572.582	34167.29
572.781	34421.23
572.979	34050.55
573.177	34071.03
573.376	34337.27
573.574	33765.88
573.772	33853.95
573.971	33616.38
574.169	33458.69
574.367	33262.08
574.565	33849.85
574.763	33333.76
574.962	33190.41
575.16	32872.97
575.358	32975.37
575.556	32762.38
575.754	33225.22
575.952	32524.82
576.151	33139.21
576.349	32543.25
576.547	32340.5
576.745	32420.37
576.943	32127.51
577.141	31937.05
577.339	32102.93
577.537	31781.4
577.735	31961.62
577.933	31556.13
578.131	31785.5
578.329	31511.07
578.527	31636
578.725	31474.21
578.923	31384.1
579.121	31201.83
579.319	31373.86
579.516	31334.95
579.714	31072.81
579.912	30845.48
580.11	30695.98
580.308	30822.95
580.506	30583.34
580.704	30267.95
580.901	30679.6
581.099	31054.37
581.297	30061.11
581.495	30270
581.692	30095.92
581.89	29899.32
582.088	29954.61
582.285	29661.76
582.483	29803.07
582.681	29870.65
582.878	29710.91
583.076	29207.11
583.274	29622.84
583.471	29305.41
583.669	29270.59
583.866	28844.62
584.064	29352.51
584.262	28607.05
584.459	29057.6
584.657	29090.37
584.854	29012.55
585.052	28416.59
585.249	28654.15
585.447	28418.64
585.644	28572.24
585.841	28525.13
586.039	28518.99
586.236	28131.92
586.434	28387.92
586.631	27736.66
586.828	28052.05
587.026	27904.6
587.223	27765.34
587.42	27695.71
587.618	27818.58
587.815	27185.76
588.012	27380.32
588.21	27241.06
588.407	27646.55
588.604	27400.8
588.801	27437.66
588.999	27066.98
589.196	27140.71
589.393	26944.1
589.59	27066.98
589.787	26853.99
589.984	26710.63
590.182	26524.27
590.379	26579.56
590.576	26454.64
590.773	26133.11
590.97	26077.81
591.167	26124.91
591.364	25885.3
591.561	26122.87
591.758	25735.8
591.955	26008.18
592.152	25827.96
592.349	25635.45
592.546	25631.35
592.743	25750.14
592.94	25098.88
593.137	25625.21
593.334	25381.5
593.531	24928.9
593.727	25272.96
593.924	24926.85
594.121	25000.58
594.318	25229.95
594.515	24685.19
594.712	24857.22
594.908	24767.11
595.105	24926.85
595.302	24253.07
595.499	24636.04
595.696	24382.09
595.892	24060.56
596.089	24373.9
596.286	24351.37
596.482	24224.4
596.679	24142.48
596.876	24140.43
597.072	23542.42
597.269	23990.93
597.466	23812.76
597.662	23526.04
597.859	23595.67
598.055	23736.98
598.252	23239.33
598.448	23673.49
598.645	22946.47
598.841	23192.22
599.038	23302.81
599.234	23063.2
599.431	23016.1
599.627	23112.35
599.824	22895.27
600.02	22659.75
600.217	22817.44
600.413	22573.74
600.609	22297.26
600.806	22301.36
601.002	22475.43
601.198	22547.11
601.395	22477.48
601.591	22160.05
601.787	22201.01
601.984	22125.23
602.18	22143.66
602.376	22088.37
602.572	22104.75
602.769	21760.69
602.965	21623.48
603.161	21924.53
603.357	21676.73
603.553	21666.49
603.75	21564.09
603.946	21203.64
604.142	21166.78
604.338	21054.14
604.534	21334.71
604.73	21035.71
604.926	20900.55
605.122	21158.59
605.318	20976.32
605.514	20538.05
605.71	20792
605.906	20548.29
606.102	20652.74
606.298	20830.91
606.494	20587.21
606.69	20804.29
606.886	20722.37
607.082	20124.36
607.278	20325.07
607.474	19917.52
607.67	20419.27
607.866	19833.55
608.062	20130.51
608.257	19981.01
608.453	19991.25
608.649	19919.57
608.845	19688.15
609.041	19770.07
609.236	19938
609.432	19722.96
609.628	19847.89
609.824	19868.37
610.019	19757.78
610.215	19436.25
610.411	19827.41
610.606	19423.96
610.802	19661.52
610.998	19317.47
611.193	19751.63
611.389	19356.38
611.584	19409.62
611.78	19327.71
611.976	19243.74
612.171	19010.27
612.367	19045.09
612.562	18959.07
612.758	18854.62
612.953	18772.71
613.149	19102.43
613.344	18770.66
613.539	19221.21
613.735	18856.67
613.93	18969.31
614.126	19047.13
614.321	18885.34
614.517	18471.65
614.712	18727.65
614.907	18641.64
615.103	18629.35
615.298	18440.93
615.493	18524.9
615.688	18475.75
615.884	18668.26
616.079	18135.79
616.274	18150.12
616.47	18148.08
616.665	18170.6
616.86	18115.31
617.055	18023.15
617.25	17900.27
617.445	18244.33
617.641	17588.98
617.836	18148.08
618.031	17525.49
618.226	17697.52
618.421	17896.17
618.616	17879.79
618.811	17574.64
619.006	17765.1
619.201	17533.68
619.396	17310.46
619.591	17115.9
619.786	17511.16
619.981	17087.23
620.176	17154.81
620.371	17064.7
620.566	16800.51
620.761	17019.64
620.956	17066.75
621.151	16528.13
621.346	17005.31
621.541	16591.62
621.735	16853.76
621.93	16290.57
622.125	16329.48
622.32	16145.16
622.515	16425.73
622.709	15997.71
622.904	16284.42
623.099	15770.38
623.294	15905.55
623.488	15756.05
623.683	15739.66
623.878	15590.16
624.072	15573.78
624.267	15403.8
624.462	15551.25
624.656	15276.82
624.851	15403.8
625.046	15276.82
625.24	15100.7
625.435	14912.28
625.629	15029.02
625.824	14820.13
626.018	14930.72
626.213	14730.02
626.407	14801.69
626.602	14674.72
626.796	14723.87
626.991	14426.92
627.185	14146.34
627.38	14328.61
627.574	14117.67
627.768	13906.73
627.963	13833
628.157	13820.72
628.352	13929.26
628.546	13480.75
628.74	13605.68
628.935	13521.71
629.129	13720.37
629.323	13331.25
629.517	13296.44
629.712	13353.78
629.906	13259.57
630.1	13075.26
630.294	13359.92
630.489	12956.47
630.683	13060.92
630.877	12845.88
631.071	12745.53
631.265	12970.81
631.459	12501.83
631.653	12600.13
631.848	12661.57
632.042	12540.74
632.236	12360.52
632.43	12389.19
632.624	12292.93
632.818	12501.83
633.012	12131.14
633.206	12135.24
633.4	11969.35
633.594	11965.26
633.788	11897.67
633.982	11957.07
634.176	11889.48
634.369	11760.46
634.563	11719.5
634.757	11760.46
634.951	11764.56
635.145	11547.47
635.339	11512.66
635.533	11512.66
635.726	11453.27
635.92	11074.39
636.114	11176.79
636.308	11146.07
636.501	11103.06
636.695	11092.82
636.889	10926.94
637.083	10861.4
637.276	10875.74
637.47	10836.83
637.664	10670.94
637.857	10457.95
638.051	10744.67
638.244	10615.65
638.438	10500.96
638.632	10451.81
638.825	10343.27
639.019	10427.23
639.212	10349.41
639.406	10158.95
639.599	10161
639.793	9993.06
639.986	9761.64
640.18	9954.15
640.373	9900.9
640.567	9847.66
640.76	9843.56
640.954	9837.42
641.147	9606
641.34	9485.17
641.534	9569.13
641.727	9692.01
641.92	9499.5
642.114	9599.85
642.307	9468.78
642.5	9288.56
642.694	9145.2
642.887	9292.66
643.08	9323.38
643.273	9235.32
643.467	9208.69
643.66	9003.89
643.853	8983.41
644.046	9102.2
644.239	8885.11
644.432	9069.43
644.626	8565.63
644.819	8655.74
645.012	8706.94
645.205	8614.78
645.398	8842.11
645.591	8418.18
645.784	8137.6
645.977	8532.86
646.17	8557.44
646.363	8418.18
646.556	8313.73
646.749	8373.12
646.942	8153.99
647.135	8215.43
647.328	8029.06
647.521	7994.25
647.714	7979.91
647.907	8170.37
648.099	8024.97
648.292	7918.47
648.485	7848.84
648.678	7609.23
648.871	7777.16
649.064	7824.26
649.256	7854.98
649.449	7670.67
649.642	7644.04
649.835	7564.17
650.027	7650.19
650.22	7533.45
650.413	7365.52
650.605	7515.02
650.798	7408.53
650.991	7345.04
651.183	7394.19
651.376	7199.63
651.568	7267.22
651.761	7293.84
651.954	7197.59
652.146	7232.4
652.339	7078.8
652.531	7197.59
652.724	7093.14
652.916	7003.03
653.109	6894.49
653.301	6943.64
653.494	6824.86
653.686	6753.18
653.879	6863.77
654.071	6771.61
654.263	6646.68
654.456	6837.14
654.648	6761.37
654.84	6583.2
655.033	6585.24
655.225	6550.43
655.417	6546.33
655.61	6542.24
655.802	6546.33
655.994	6515.61
656.186	6335.39
656.379	6372.25
656.571	6333.34
656.763	6239.14
656.955	6226.85
657.148	6300.58
657.34	6126.5
657.532	6106.02
657.724	6138.79
657.916	6142.88
658.108	6212.51
658.3	5983.14
658.492	6192.03
658.684	5866.41
658.876	6060.96
659.068	5942.18
659.26	5759.91
659.452	5909.41
659.644	5929.89
659.836	6009.76
660.028	5749.67
660.22	5757.86
660.412	5704.62
660.604	5575.59
660.796	5718.95
660.988	5766.06
661.18	5677.99
661.372	5569.45
661.563	5565.36
661.755	5512.11
661.947	5614.51
662.139	5313.45
662.331	5405.61
662.522	5456.81
662.714	5350.32
662.906	5362.61
663.097	5393.33
663.289	5348.27
663.481	5211.06
663.673	5163.95
663.864	5125.04
664.056	5215.15
664.247	5258.16
664.439	5163.95
664.631	5243.82
664.822	5125.04
665.014	5143.47
665.205	5204.91
665.397	4975.54
665.588	5151.67
665.78	5039.03
665.971	4993.97
666.163	5022.64
666.354	4975.54
666.546	5018.55
666.737	4887.48
666.929	4879.29
667.12	4967.35
667.311	4795.32
667.503	4830.13
667.694	4647.87
667.885	4871.09
668.077	4793.27
668.268	4721.59
668.459	4750.26
668.651	4815.8
668.842	4654.01
669.033	4596.67
669.224	4688.82
669.416	4707.26
669.607	4561.85
669.798	4531.13
669.989	4619.19
670.18	4545.47
670.371	4617.15
670.563	4565.95
670.754	4733.88
670.945	4565.95
671.136	4596.67
671.327	4604.86
671.518	4594.62
671.709	4443.07
671.9	4518.84
672.091	4518.84
672.282	4506.56
672.473	4348.86
672.664	4387.77
672.855	4443.07
673.046	4565.95
673.237	4486.08
673.428	4410.3
673.619	4441.02
673.809	4461.5
674	4295.61
674.191	4471.74
674.382	4373.44
674.573	4334.53
674.764	4312
674.954	4363.2
675.145	4381.63
675.336	4400.06
675.527	4297.66
675.717	4320.19
675.908	4273.09
676.099	4303.81
676.289	4148.16
676.48	4344.77
676.671	4189.12
676.861	4344.77
677.052	4330.43
677.243	4195.26
677.433	4189.12
677.624	4244.42
677.814	4344.77
678.005	4125.63
678.195	4266.94
678.386	4271.04
678.576	4119.49
678.767	4187.07
678.957	4135.87
679.148	4197.31
679.338	4336.57
679.529	4213.7
679.719	4162.5
679.909	4250.56
680.1	4185.02
680.29	4318.14
680.481	4191.17
680.671	4223.94
680.861	4207.55
681.052	4328.38
681.242	4109.25
681.432	4252.61
681.622	4166.59
681.813	4217.79
682.003	4154.3
682.193	4176.83
682.383	4107.2
682.573	4242.37
682.764	4129.73
682.954	4221.89
683.144	4201.41
683.334	4045.76
683.524	4211.65
683.714	4279.23
683.904	4078.53
684.094	4213.7
684.284	3963.84
684.474	4211.65
684.664	3922.88
684.854	4301.76
685.044	4084.67
685.234	4045.76
685.424	4240.32
685.614	4105.15
685.804	4099.01
685.994	3994.56
686.184	4223.94
686.374	4035.52
686.564	3914.69
686.753	3986.37
686.943	4000.71
687.133	3943.36
687.323	3961.8
687.513	3785.67
687.702	3855.3
687.892	3879.88
688.082	3933.12
688.272	3941.32
688.461	3765.19
688.651	3855.3
688.841	3748.81
689.03	3785.67
689.22	3863.49
689.41	3888.07
689.599	3726.28
689.789	3851.21
689.979	3666.89
690.168	3675.08
690.358	3605.45
690.547	3707.85
690.737	3834.82
690.926	3662.79
691.116	3589.07
691.305	3707.85
691.495	3601.35
691.684	3468.24
691.874	3662.79
692.063	3621.83
692.252	3533.77
692.442	3468.24
692.631	3347.4
692.82	3466.19
693.01	3417.04
693.199	3462.09
693.388	3441.61
693.578	3419.08
693.767	3265.49
693.956	3406.8
694.146	3216.33
694.335	3335.12
694.524	3347.4
694.713	3294.16
694.902	3343.31
695.092	3171.28
695.281	3245.01
695.47	3199.95
695.659	3128.27
695.848	3240.91
696.037	3193.81
696.226	3261.39
696.415	3271.63
696.604	3335.12
696.793	3224.53
696.982	3281.87
697.171	3113.94
697.36	3216.33
697.549	3167.18
697.738	3103.7
697.927	3185.62
698.116	3238.86
698.305	3140.56
698.494	3091.41
698.683	3224.53
698.872	3255.25
699.061	3050.45
699.25	3079.12
699.438	3259.34
699.627	3091.41
699.816	3165.14
700.005	3103.7
700.193	3046.35
700.382	3156.94
700.571	3087.31
700.76	3083.22
700.948	3093.46
701.137	3087.31
701.326	3154.9
701.514	3023.83
701.703	3091.41
701.892	3093.46
702.08	3197.9
702.269	2978.77
702.457	3040.21
702.646	3183.57
702.834	3165.14
703.023	3017.68
703.212	2978.77
703.4	3072.98
703.589	3060.69
703.777	3077.07
703.965	2976.72
704.154	3015.63
704.342	3015.63
704.531	2974.67
704.719	3111.89
704.907	3058.64
705.096	2972.63
705.284	3113.94
705.472	3001.3
705.661	3167.18
705.849	3095.5
706.037	3044.31
706.226	3034.07
706.414	3079.12
706.602	2978.77
706.79	3011.54
706.979	3019.73
707.167	3052.5
707.355	3056.59
707.543	3212.24
707.731	2954.19
707.919	3056.59
708.107	3060.69
708.296	2927.57
708.484	2894.8
708.672	3142.61
708.86	3058.64
709.048	3052.5
709.236	3093.46
709.424	3234.77
709.612	2966.48
709.8	2980.82
709.988	3068.88
710.176	3154.9
710.364	3148.75
710.551	3034.07
710.739	3052.5
710.927	3079.12
711.115	3023.83
711.303	3171.28
711.491	3068.88
711.679	2954.19
711.866	3122.13
712.054	3169.23
712.242	3060.69
712.43	3245.01
712.617	3095.5
712.805	3097.55
712.993	3204.05
713.181	3118.03
713.368	3138.51
713.556	3089.36
713.744	3064.79
713.931	3236.81
714.119	3181.52
714.306	3181.52
714.494	3066.83
714.682	3167.18
714.869	3054.55
715.057	3093.46
715.244	3138.51
715.432	3212.24
715.619	3150.8
715.807	3294.16
715.994	3183.57
716.182	3140.56
716.369	3218.38
716.556	3171.28
716.744	3132.37
716.931	3142.61
717.119	3267.53
717.306	3087.31
717.493	3296.21
717.681	3195.86
717.868	3263.44
718.055	3349.45
718.242	3222.48
718.43	3240.91
718.617	3249.1
718.804	3183.57
718.991	3083.22
719.179	3249.1
719.366	3275.73
719.553	3210.19
719.74	3238.86
719.927	3400.65
720.114	3175.38
720.301	3249.1
720.488	3261.39
720.676	3179.47
720.863	3363.79
721.05	3349.45
721.237	3240.91
721.424	3367.88
721.611	3349.45
721.798	3208.14
721.985	3316.69
722.172	3214.29
722.358	3261.39
722.545	3322.83
722.732	3269.58
722.919	3316.69
723.106	3257.29
723.293	3212.24
723.48	3242.96
723.667	3367.88
723.853	3369.93
724.04	3382.22
724.227	3320.78
724.414	3333.07
724.6	3345.36
724.787	3333.07
724.974	3382.22
725.161	3294.16
725.347	3273.68
725.534	3441.61
725.72	3412.94
725.907	3394.51
726.094	3484.62
726.28	3439.56
726.467	3378.12
726.653	3390.41
726.84	3511.24
727.027	3490.76
727.213	3374.03
727.4	3599.31
727.586	3314.64
727.773	3439.56
727.959	3390.41
728.145	3466.19
728.332	3339.21
728.518	3335.12
728.705	3558.35
728.891	3396.56
729.077	3482.57
729.264	3367.88
729.45	3472.33
729.636	3529.67
729.823	3484.62
730.009	3564.49
730.195	3359.69
730.382	3507.15
730.568	3509.19
730.754	3406.8
730.94	3513.29
731.126	3470.28
731.313	3433.42
731.499	3509.19
731.685	3492.81
731.871	3554.25
732.057	3570.63
732.243	3541.96
732.429	3572.68
732.615	3615.69
732.801	3458
732.987	3527.63
733.173	3312.59
733.359	3656.65
733.545	3515.34
733.731	3380.17
733.917	3652.55
734.103	3599.31
734.289	3599.31
734.475	3513.29
734.661	3603.4
734.847	3670.98
735.033	3408.84
735.219	3490.76
735.404	3546.06
735.59	3544.01
735.776	3529.67
735.962	3498.95
736.148	3550.15
736.333	3466.19
736.519	3548.11
736.705	3623.88
736.89	3423.18
737.076	3480.52
737.262	3550.15
737.447	3435.47
737.633	3439.56
737.819	3609.54
738.004	3445.71
738.19	3603.4
738.375	3449.8
738.561	3576.78
738.747	3574.73
738.932	3363.79
739.118	3632.07
739.303	3652.55
739.489	3412.94
739.674	3511.24
739.859	3394.51
740.045	3470.28
740.23	3505.1
740.416	3482.57
740.601	3406.8
740.786	3464.14
740.972	3363.79
741.157	3521.48
741.342	3404.75
741.528	3515.34
741.713	3380.17
741.898	3351.5
742.084	3400.65
742.269	3449.8
742.454	3275.73
742.639	3398.6
742.824	3277.77
743.01	3314.64
743.195	3382.22
743.38	3290.06
743.565	3255.25
743.75	3353.55
743.935	3240.91
744.12	3376.08
744.305	3175.38
744.49	3236.81
744.675	3275.73
744.86	3126.22
745.045	3228.62
745.23	3306.45
745.415	3191.76
745.6	3245.01
745.785	3148.75
745.97	3310.54
746.155	3181.52
746.34	3193.81
746.525	3179.47
746.71	3236.81
746.895	3040.21
747.079	2935.76
747.264	3197.9
747.449	3042.26
747.634	3034.07
747.819	3023.83
748.003	3087.31
748.188	2943.96
748.373	3072.98
748.557	3058.64
748.742	2935.76
748.927	2972.63
749.111	2872.28
749.296	2892.76
749.481	2843.6
749.665	2911.19
749.85	2737.11
750.034	2868.18
750.219	2835.41
750.404	2837.46
750.588	2804.69
750.773	2632.66
750.957	2804.69
751.141	2696.15
751.326	2655.19
751.51	2575.32
751.695	2524.12
751.879	2653.14
752.064	2538.46
752.248	2653.14
752.432	2606.04
752.617	2712.53
752.801	2554.84
752.985	2556.89
753.17	2597.85
753.354	2597.85
753.538	2393.05
753.722	2411.48
753.907	2526.17
754.091	2458.59
754.275	2405.34
754.459	2335.71
754.643	2399.2
754.828	2384.86
755.012	2399.2
755.196	2255.84
755.38	2370.52
755.564	2421.72
755.748	2302.94
755.932	2212.83
756.116	2274.27
756.3	2182.11
756.484	2311.13
756.668	2229.21
756.852	2106.34
757.036	2143.2
757.22	2178.01
757.404	2153.44
757.588	2110.43
757.772	2094.05
757.956	2083.81
758.14	2137.06
758.323	2030.56
758.507	2048.99
758.691	2012.13
758.875	2098.14
759.059	1893.35
759.242	1987.55
759.426	2008.03
759.61	1985.51
759.794	1932.26
759.977	1981.41
760.161	1981.41
760.345	1981.41
760.528	2005.99
760.712	1885.16
760.895	1909.73
761.079	1924.07
761.263	1948.64
761.446	1872.87
761.63	1872.87
761.813	1807.33
761.997	1889.25
762.18	1874.92
762.364	1860.58
762.547	1797.09
762.731	1801.19
762.914	1876.96
763.098	1782.76
763.281	1690.6
763.464	1756.13
763.648	1793
763.831	1696.74
764.015	1827.81
764.198	1747.94
764.381	1692.65
764.564	1688.55
764.748	1766.37
764.931	1803.24
765.114	1688.55
765.297	1731.56
765.481	1577.96
765.664	1639.4
765.847	1645.54
766.03	1635.3
766.213	1522.66
766.397	1700.84
766.58	1588.2
766.763	1641.45
766.946	1596.39
767.129	1604.58
767.312	1555.43
767.495	1553.38
767.678	1631.21
767.861	1588.2
768.044	1489.9
768.227	1625.06
768.41	1489.9
768.593	1655.78
768.776	1580.01
768.959	1590.25
769.142	1551.34
769.324	1461.23
769.507	1541.1
769.69	1434.6
769.873	1391.59
770.056	1526.76
770.239	1469.42
770.421	1498.09
770.604	1422.31
770.787	1573.86
770.97	1491.95
771.152	1354.73
771.335	1481.71
771.518	1338.35
771.7	1416.17
771.883	1393.64
772.066	1403.88
772.248	1389.55
772.431	1432.55
772.613	1367.02
772.796	1428.46
772.978	1326.06
773.161	1438.7
773.343	1256.43
773.526	1233.9
773.708	1258.48
773.891	1315.82
774.073	1233.9
774.256	1240.05
774.438	1401.83
774.621	1201.13
774.803	1250.28
774.985	1221.61
775.168	1166.32
775.35	1192.94
775.532	1289.2
775.715	1242.09
775.897	1207.28
776.079	1221.61
776.261	1186.8
776.444	1238
776.626	1002.48
776.808	1192.94
776.99	1164.27
777.173	1166.32
777.355	1143.79
777.537	1086.45
777.719	1135.6
777.901	1072.11
778.083	1049.58
778.265	1018.86
778.447	1070.06
778.629	1020.91
778.811	1053.68
778.993	1164.27
779.175	1022.96
779.357	1010.67
779.539	963.57
779.721	951.28
779.903	957.43
780.085	986.1
780.267	922.61
780.449	1078.26
780.631	922.61
780.812	1031.15
780.994	963.57
781.176	922.61
781.358	906.23
781.54	857.07
781.721	986.1
781.903	943.09
782.085	898.03
782.267	906.23
782.448	922.61
782.63	900.08
782.812	924.66
782.993	814.07
783.175	818.16
783.357	744.44
783.538	836.6
783.72	859.12
783.901	861.17
784.083	855.03
784.264	758.77
784.446	728.05
784.627	816.12
784.809	707.57
784.99	791.54
785.172	738.29
785.353	762.87
785.535	801.78
785.716	711.67
785.897	639.99
786.079	758.77
786.26	809.97
786.441	730.1
786.623	703.48
786.804	691.19
786.985	742.39
787.167	664.57
787.348	656.37
787.529	678.9
787.71	748.53
787.891	592.89
788.073	664.57
788.254	609.27
788.435	740.34
788.616	728.05
788.797	666.61
788.978	574.46
789.159	633.85
789.34	689.14
789.522	553.98
789.703	629.75
789.884	611.32
790.065	549.88
790.246	689.14
790.427	523.26
790.607	678.9
790.788	601.08
790.969	588.79
791.15	664.57
791.331	650.23
791.512	549.88
791.693	586.74
791.874	537.59
792.054	639.99
792.235	551.93
792.416	519.16
792.597	441.34
792.778	535.54
792.958	541.69
793.139	523.26
793.32	566.26
793.5	445.43
793.681	533.5
793.862	603.13
794.042	525.3
794.223	424.95
794.404	523.26
794.584	455.67
794.765	486.39
794.945	459.77
795.126	578.55
795.306	490.49
795.487	490.49
795.667	400.38
795.848	508.92
796.028	451.58
796.209	476.15
796.389	543.74
796.57	527.35
796.75	451.58
796.93	562.17
797.111	431.1
797.291	408.57
797.471	504.82
797.652	484.34
797.832	383.99
798.012	467.96
798.192	402.43
798.373	386.04
798.553	334.84
798.733	410.62
798.913	351.23
799.093	400.38
799.274	533.5
799.454	480.25
799.634	427
799.814	427
799.994	414.71
800.174	379.9
800.354	314.36
800.534	359.42
800.714	422.91
800.894	355.32
801.074	349.18
801.254	363.51
801.434	336.89
801.614	359.42
801.794	375.8
801.974	1096.69
802.154	302.08
802.334	406.52
802.514	283.64
802.693	422.91
802.873	363.51
803.053	318.46
803.233	332.79
803.413	433.15
803.592	361.47
803.772	314.36
803.952	347.13
804.131	332.79
804.311	361.47
804.491	359.42
804.67	328.7
804.85	263.16
805.03	445.43
805.209	394.23
805.389	281.6
805.568	324.6
805.748	404.47
805.928	302.08
806.107	347.13
806.287	369.66
806.466	257.02
806.646	261.12
806.825	242.68
807.004	287.74
807.184	388.09
807.363	349.18
807.543	277.5
807.722	273.4
807.901	291.84
808.081	338.94
808.26	240.64
808.439	242.68
808.619	271.36
808.798	220.16
808.977	257.02
809.156	306.17
809.336	332.79
809.515	351.23
809.694	297.98
809.873	263.16
810.052	277.5
810.231	285.69
810.411	281.6
810.59	295.93
810.769	291.84
810.948	289.79
811.127	269.31
811.306	287.74
811.485	279.55
811.664	310.27
811.843	218.11
812.022	273.4
812.201	246.78
812.38	336.89
812.559	295.93
812.737	320.51
812.916	254.97
813.095	220.16
813.274	222.2
813.453	220.16
813.632	279.55
813.811	257.02
813.989	166.91
814.168	201.72
814.347	224.25
814.526	179.2
814.704	275.45
814.883	252.92
815.062	228.35
815.24	273.4
815.419	150.53
815.598	246.78
815.776	195.58
815.955	207.87
816.133	191.49
816.312	220.16
816.49	216.06
816.669	293.88
816.847	277.5
817.026	271.36
817.204	146.43
817.383	179.2
817.561	187.39
817.74	158.72
817.918	246.78
818.097	185.34
818.275	156.67
818.453	257.02
818.632	257.02
818.81	205.82
818.988	222.2
819.167	181.25
819.345	191.49
819.523	205.82
819.701	183.29
819.879	181.25
820.058	244.73
820.236	201.72
820.414	189.44
820.592	103.42
820.77	160.77
820.948	181.25
821.127	187.39
821.305	132.09
821.483	175.1
821.661	193.53
821.839	183.29
822.017	164.86
822.195	177.15
822.373	214.01
822.551	195.58
822.729	218.11
822.907	115.71
823.085	146.43
823.262	125.95
823.44	123.9
823.618	171.01
823.796	193.53
823.974	199.68
824.152	138.24
824.329	103.42
824.507	89.09
824.685	177.15
824.863	144.38
825.04	277.5
825.218	148.48
825.396	164.86
825.574	171.01
825.751	154.62
825.929	171.01
826.107	179.2
826.284	136.19
826.462	234.49
826.639	152.57
826.817	130.05
826.994	117.76
827.172	144.38
827.349	166.91
827.527	148.48
827.704	111.61
827.882	173.05
828.059	111.61
828.237	154.62
828.414	144.38
828.591	93.18
828.769	160.77
828.946	109.57
829.124	162.81
829.301	214.01
829.478	132.09
829.655	128
829.833	125.95
830.01	82.94
830.187	87.04
830.364	152.57
830.542	107.52
830.719	244.73
830.896	166.91
831.073	175.1
831.25	109.57
831.427	148.48
831.604	152.57
831.782	105.47
831.959	136.19
832.136	74.75
832.313	158.72
832.49	138.24
832.667	82.94
832.844	93.18
833.021	171.01
833.198	191.49
833.374	134.14
833.551	123.9
833.728	138.24
833.905	156.67
834.082	62.46
834.259	207.87
834.436	87.04
834.612	146.43
834.789	125.95
834.966	115.71
835.143	91.13
835.319	117.76
835.496	119.81
835.673	128
835.85	144.38
836.026	162.81
836.203	115.71
836.38	99.33
836.556	25.6
836.733	68.61
836.909	160.77
837.086	105.47
837.262	21.5
837.439	93.18
837.616	68.61
837.792	84.99
837.968	68.61
838.145	23.55
838.321	39.94
838.498	27.65
838.674	93.18
838.851	121.85
839.027	60.42
839.203	58.37
839.38	93.18
839.556	84.99
839.732	82.94
839.909	107.52
840.085	103.42
840.261	105.47
840.437	140.29
840.614	76.8
840.79	76.8
840.966	128
841.142	125.95
841.318	84.99
841.494	115.71
841.671	152.57
841.847	115.71
842.023	17.41
842.199	181.25
842.375	173.05
842.551	125.95
842.727	-17.41
842.903	109.57
843.079	74.75
843.255	101.37
843.431	70.65
843.607	21.5
843.783	-7.17
843.959	68.61
844.134	78.85
844.31	58.37
844.486	37.89
844.662	9.22
844.838	84.99
845.013	97.28
845.189	93.18
845.365	103.42
845.541	70.65
845.716	46.08
845.892	11.26
846.068	105.47
846.244	-7.17
846.419	97.28
846.595	39.94
846.77	48.13
846.946	87.04
847.122	138.24
847.297	56.32
847.473	111.61
847.648	-11.26
847.824	117.76
847.999	-17.41
848.175	87.04
848.35	9.22
848.526	41.98
848.701	142.33
848.876	66.56
849.052	111.61
849.227	74.75
849.403	87.04
849.578	76.8
849.753	62.46
849.929	64.51
850.104	-29.7
850.279	29.7
850.454	60.42
850.63	60.42
850.805	48.13
850.98	60.42
851.155	72.7
851.33	70.65
851.505	7.17
851.681	58.37
851.856	15.36
852.031	23.55
852.206	54.27
852.381	19.46
852.556	99.33
852.731	115.71
852.906	3.07
853.081	3.07
853.256	87.04
853.431	50.18
853.606	70.65
853.781	-27.65
853.956	-29.7
854.131	76.8
854.305	31.74
854.48	72.7
854.655	70.65
854.83	111.61
855.005	11.26
855.18	101.37
855.354	23.55
855.529	19.46
855.704	5.12
855.879	74.75
856.053	21.5
856.228	87.04
856.403	103.42
856.577	44.03
856.752	-11.26
856.926	60.42
857.101	103.42
857.276	25.6
857.45	21.5
857.625	17.41
857.799	29.7
857.974	95.23
858.148	11.26
858.323	82.94
858.497	33.79
858.672	21.5
858.846	-11.26
859.02	84.99
859.195	-1.02
859.369	52.22
859.543	29.7
859.718	91.13
859.892	11.26
860.066	-3.07
860.241	7.17
860.415	33.79
860.589	15.36
860.763	105.47
860.938	62.46
861.112	17.41
861.286	-74.75
861.46	35.84
861.634	35.84
861.808	44.03
861.982	82.94
862.157	68.61
862.331	35.84
862.505	11.26
862.679	-15.36
862.853	41.98
863.027	35.84
863.201	144.38
863.375	15.36
863.549	-3.07
863.722	27.65
863.896	123.9
864.07	3.07
864.244	54.27
864.418	37.89
864.592	7.17
864.766	46.08
864.939	23.55
865.113	-31.74
865.287	95.23
865.461	68.61
865.634	-11.26
865.808	-35.84
865.982	-37.89
866.156	-15.36
866.329	84.99
866.503	15.36
866.676	31.74
866.85	37.89
867.024	-9.22
867.197	128
867.371	64.51
867.544	25.6
867.718	-19.46
867.891	21.5
868.065	78.85
868.238	-46.08
868.412	54.27
868.585	-23.55
868.759	19.46
868.932	54.27
869.105	-7.17
869.279	-3.07
869.452	-7.17
869.625	27.65
869.799	46.08
869.972	-37.89
870.145	23.55
870.319	-13.31
870.492	-1.02
870.665	15.36
870.838	1.02
871.011	-7.17
871.185	82.94
871.358	-35.84
871.531	19.46
871.704	21.5
871.877	68.61
872.05	13.31
872.223	-44.03
872.396	35.84
872.569	1.02
872.742	-41.98
872.915	31.74
873.088	-27.65
873.261	13.31
873.434	48.13
873.607	60.42
873.78	15.36
873.953	27.65
874.126	3.07
874.299	1.02
874.471	-11.26
874.644	48.13
874.817	27.65
874.99	101.37
875.163	-84.99
875.335	76.8
875.508	-1.02
875.681	91.13
875.853	-1.02
876.026	11.26
876.199	17.41
876.371	27.65
876.544	25.6
876.717	15.36
876.889	3.07
877.062	60.42
877.234	-68.61
877.407	52.22
877.579	35.84
877.752	37.89
877.924	54.27
878.097	-25.6
878.269	48.13
878.442	15.36
878.614	54.27
878.786	1.02
878.959	-5.12
879.131	5.12
879.303	-89.09
879.476	33.79
879.648	76.8
879.82	13.31
879.993	-13.31
880.165	35.84
880.337	1.02
880.509	-11.26
880.681	19.46
880.854	1.02
881.026	46.08
881.198	54.27
881.37	39.94
881.542	-7.17
881.714	15.36
881.886	-15.36
882.058	-17.41
882.23	31.74
882.402	-39.94
882.574	50.18
882.746	103.42
882.918	101.37
883.09	-35.84
883.262	-15.36
883.434	-27.65
883.606	-13.31
883.778	11.26
883.95	68.61
884.122	-41.98
884.293	82.94
884.465	99.33
884.637	105.47
884.809	17.41
884.98	64.51
885.152	41.98
885.324	-70.65
885.496	-23.55
885.667	70.65
885.839	13.31
886.011	78.85
886.182	11.26
886.354	80.89
886.525	21.5
886.697	-44.03
886.869	-19.46
887.04	-39.94
887.212	21.5
887.383	31.74
887.555	54.27
887.726	13.31
887.897	31.74
888.069	54.27
888.24	13.31
888.412	11.26
888.583	-15.36
888.754	-37.89
888.926	-17.41
889.097	27.65
889.268	-125.95
889.44	11.26
889.611	-99.33
889.782	-9.22
889.953	-3.07
890.125	1.02
890.296	-33.79
890.467	-29.7
890.638	-39.94
890.809	-11.26
890.98	25.6
891.151	37.89
891.323	-13.31
891.494	56.32
891.665	-37.89
891.836	-23.55
892.007	-7.17
892.178	95.23
892.349	-7.17
892.52	-29.7
892.691	-58.37
892.862	37.89
893.032	-21.5
893.203	-72.7
893.374	60.42
893.545	-27.65
893.716	-39.94
893.887	5.12
894.057	-31.74
894.228	50.18
894.399	-60.42
894.57	-1.02
894.74	-19.46
894.911	17.41
895.082	13.31
895.253	-74.75
895.423	5.12
895.594	58.37
895.764	27.65
895.935	41.98
896.106	66.56
896.276	-21.5
896.447	-21.5
896.617	-19.46
896.788	-37.89
896.958	19.46
897.129	-35.84
897.299	-7.17
897.47	111.61
897.64	46.08
897.81	-1.02
897.981	35.84
898.151	-7.17
898.322	-3.07
898.492	1.02
898.662	-7.17
898.832	1.02
899.003	48.13
899.173	-48.13
899.343	-29.7
899.513	-3.07
