Data from USB4F104151__79__12-24-25-790.txt Node

Date: Fri Mar 14 12:24:25 EDT 2025
User: louis
Spectrometer: USB4F10415
Trigger mode: 4
Integration Time (sec): 3.500000E-2
Scans to average: 1
Electric dark correction enabled: true
Nonlinearity correction enabled: false
Boxcar width: 0
XAxis mode: Wavelengths
Number of Pixels in Spectrum: 3648
>>>>>Begin Spectral Data<<<<<
178.204	-96.77
178.424	-96.77
178.644	-96.77
178.864	-129.53
179.084	-61.95
179.304	-16.9
179.524	-16.9
179.744	-41.47
179.964	62.98
180.184	-25.09
180.404	22.02
180.624	-20.99
180.844	24.06
181.064	-107.01
181.283	28.16
181.503	19.97
181.723	71.17
181.943	-29.18
182.163	116.22
182.383	-20.99
182.602	79.36
182.822	22.02
183.042	-6.66
183.262	5.63
183.482	30.21
183.701	42.5
183.921	36.35
184.141	-20.99
184.361	79.36
184.58	19.97
184.8	50.69
185.02	22.02
185.239	81.41
185.459	116.22
185.679	50.69
185.898	5.63
186.118	-27.14
186.338	1.54
186.557	34.3
186.777	9.73
186.997	-4.61
187.216	-27.14
187.436	60.93
187.655	-18.94
187.875	46.59
188.095	-14.85
188.314	54.78
188.534	24.06
188.753	77.31
188.973	54.78
189.192	54.78
189.412	77.31
189.631	34.3
189.851	71.17
190.07	19.97
190.29	42.5
190.509	46.59
190.729	-20.99
190.948	44.54
191.168	110.08
191.387	65.02
191.607	30.21
191.826	46.59
192.045	-25.09
192.265	-31.23
192.484	114.17
192.704	32.26
192.923	30.21
193.142	99.84
193.362	24.06
193.581	42.5
193.8	105.98
194.02	26.11
194.239	-18.94
194.458	15.87
194.678	38.4
194.897	87.55
195.116	60.93
195.335	26.11
195.555	103.93
195.774	58.88
195.993	-4.61
196.212	58.88
196.432	26.11
196.651	83.45
196.87	40.45
197.089	116.22
197.308	118.27
197.528	26.11
197.747	54.78
197.966	58.88
198.185	24.06
198.404	56.83
198.623	65.02
198.842	75.26
199.062	93.69
199.281	144.89
199.5	-25.09
199.719	48.64
199.938	-4.61
200.157	19.97
200.376	101.89
200.595	36.35
200.814	65.02
201.033	15.87
201.252	65.02
201.471	-10.75
201.69	32.26
201.909	60.93
202.128	-10.75
202.347	65.02
202.566	34.3
202.785	-37.38
203.004	30.21
203.223	128.51
203.442	7.68
203.661	-8.7
203.879	-25.09
204.098	157.18
204.317	-12.8
204.536	28.16
204.755	50.69
204.974	83.45
205.193	140.8
205.411	65.02
205.63	77.31
205.849	46.59
206.068	-27.14
206.287	13.82
206.505	48.64
206.724	-6.66
206.943	50.69
207.162	-0.51
207.381	24.06
207.599	71.17
207.818	114.17
208.037	52.74
208.255	-68.09
208.474	60.93
208.693	77.31
208.911	99.84
209.13	91.65
209.349	-20.99
209.567	44.54
209.786	44.54
210.005	93.69
210.223	22.02
210.442	56.83
210.661	26.11
210.879	-25.09
211.098	28.16
211.316	17.92
211.535	140.8
211.753	56.83
211.972	114.17
212.191	81.41
212.409	7.68
212.628	91.65
212.846	24.06
213.065	122.37
213.283	67.07
213.502	-10.75
213.72	40.45
213.938	62.98
214.157	38.4
214.375	-2.56
214.594	32.26
214.812	130.56
215.031	46.59
215.249	-14.85
215.467	13.82
215.686	15.87
215.904	40.45
216.122	11.78
216.341	73.21
216.559	3.58
216.778	1.54
216.996	79.36
217.214	-0.51
217.432	108.03
217.651	-10.75
217.869	-2.56
218.087	-16.9
218.306	-23.04
218.524	50.69
218.742	22.02
218.96	65.02
219.179	15.87
219.397	60.93
219.615	126.46
219.833	58.88
220.051	-20.99
220.27	89.6
220.488	-29.18
220.706	89.6
220.924	65.02
221.142	120.32
221.36	89.6
221.578	30.21
221.796	40.45
222.015	105.98
222.233	28.16
222.451	71.17
222.669	-12.8
222.887	91.65
223.105	11.78
223.323	11.78
223.541	-2.56
223.759	50.69
223.977	120.32
224.195	110.08
224.413	122.37
224.631	38.4
224.849	-23.04
225.067	52.74
225.285	42.5
225.503	42.5
225.721	-10.75
225.939	22.02
226.157	-14.85
226.375	34.3
226.592	58.88
226.81	116.22
227.028	105.98
227.246	87.55
227.464	30.21
227.682	71.17
227.9	-33.28
228.117	26.11
228.335	62.98
228.553	54.78
228.771	32.26
228.989	36.35
229.206	13.82
229.424	62.98
229.642	44.54
229.86	17.92
230.077	-29.18
230.295	48.64
230.513	67.07
230.731	13.82
230.948	101.89
231.166	132.61
231.384	24.06
231.601	1.54
231.819	71.17
232.037	5.63
232.254	-35.33
232.472	89.6
232.689	17.92
232.907	124.41
233.125	52.74
233.342	-6.66
233.56	-41.47
233.777	13.82
233.995	93.69
234.213	159.23
234.43	73.21
234.648	97.79
234.865	67.07
235.083	60.93
235.3	34.3
235.518	146.94
235.735	44.54
235.953	40.45
236.17	26.11
236.388	-25.09
236.605	44.54
236.822	28.16
237.04	7.68
237.257	7.68
237.475	32.26
237.692	65.02
237.909	-10.75
238.127	81.41
238.344	-12.8
238.562	9.73
238.779	-37.38
238.996	-25.09
239.214	-14.85
239.431	73.21
239.648	32.26
239.865	69.12
240.083	136.7
240.3	3.58
240.517	40.45
240.735	36.35
240.952	91.65
241.169	77.31
241.386	36.35
241.603	54.78
241.821	1.54
242.038	52.74
242.255	52.74
242.472	1.54
242.689	62.98
242.907	83.45
243.124	50.69
243.341	79.36
243.558	-2.56
243.775	-74.24
243.992	44.54
244.209	36.35
244.426	99.84
244.643	60.93
244.86	32.26
245.078	67.07
245.295	89.6
245.512	38.4
245.729	-23.04
245.946	28.16
246.163	-2.56
246.38	46.59
246.597	30.21
246.814	42.5
247.031	3.58
247.248	69.12
247.464	112.13
247.681	40.45
247.898	93.69
248.115	52.74
248.332	69.12
248.549	15.87
248.766	93.69
248.983	42.5
249.2	11.78
249.417	103.93
249.633	7.68
249.85	48.64
250.067	26.11
250.284	54.78
250.501	83.45
250.717	91.65
250.934	46.59
251.151	95.74
251.368	-12.8
251.585	87.55
251.801	30.21
252.018	26.11
252.235	126.46
252.451	9.73
252.668	-10.75
252.885	13.82
253.102	87.55
253.318	-47.62
253.535	-55.81
253.752	9.73
253.968	46.59
254.185	1.54
254.401	24.06
254.618	40.45
254.835	56.83
255.051	112.13
255.268	114.17
255.484	9.73
255.701	65.02
255.917	48.64
256.134	89.6
256.351	-6.66
256.567	24.06
256.784	73.21
257	-49.66
257.217	71.17
257.433	46.59
257.65	30.21
257.866	50.69
258.082	19.97
258.299	-8.7
258.515	17.92
258.732	26.11
258.948	89.6
259.165	91.65
259.381	34.3
259.597	3.58
259.814	65.02
260.03	-14.85
260.246	17.92
260.463	17.92
260.679	136.7
260.895	5.63
261.112	22.02
261.328	9.73
261.544	26.11
261.761	134.65
261.977	-4.61
262.193	-70.14
262.409	13.82
262.626	118.27
262.842	75.26
263.058	89.6
263.274	50.69
263.49	34.3
263.707	85.5
263.923	44.54
264.139	34.3
264.355	36.35
264.571	91.65
264.787	15.87
265.004	99.84
265.22	34.3
265.436	79.36
265.652	-8.7
265.868	120.32
266.084	-0.51
266.3	73.21
266.516	42.5
266.732	69.12
266.948	52.74
267.164	77.31
267.38	114.17
267.596	42.5
267.812	56.83
268.028	87.55
268.244	3.58
268.46	32.26
268.676	30.21
268.892	48.64
269.108	13.82
269.324	-23.04
269.54	15.87
269.756	62.98
269.972	71.17
270.188	-16.9
270.403	32.26
270.619	9.73
270.835	-25.09
271.051	44.54
271.267	1.54
271.483	36.35
271.698	85.5
271.914	-37.38
272.13	48.64
272.346	24.06
272.562	19.97
272.777	58.88
272.993	-41.47
273.209	103.93
273.425	24.06
273.64	19.97
273.856	-6.66
274.072	38.4
274.287	69.12
274.503	95.74
274.719	99.84
274.934	22.02
275.15	9.73
275.366	34.3
275.581	46.59
275.797	-47.62
276.012	26.11
276.228	3.58
276.444	103.93
276.659	95.74
276.875	13.82
277.09	99.84
277.306	50.69
277.521	134.65
277.737	22.02
277.952	50.69
278.168	48.64
278.383	32.26
278.599	-35.33
278.814	22.02
279.03	-0.51
279.245	103.93
279.461	19.97
279.676	69.12
279.892	-16.9
280.107	36.35
280.322	3.58
280.538	54.78
280.753	11.78
280.969	-14.85
281.184	103.93
281.399	126.46
281.615	54.78
281.83	22.02
282.045	34.3
282.26	-6.66
282.476	26.11
282.691	71.17
282.906	79.36
283.122	22.02
283.337	-10.75
283.552	34.3
283.767	7.68
283.983	30.21
284.198	87.55
284.413	42.5
284.628	-10.75
284.843	5.63
285.058	17.92
285.274	9.73
285.489	40.45
285.704	116.22
285.919	93.69
286.134	-18.94
286.349	36.35
286.564	36.35
286.779	-18.94
286.995	32.26
287.21	24.06
287.425	60.93
287.64	-12.8
287.855	58.88
288.07	-4.61
288.285	58.88
288.5	48.64
288.715	26.11
288.93	36.35
289.145	-31.23
289.36	146.94
289.575	3.58
289.79	85.5
290.004	30.21
290.219	56.83
290.434	7.68
290.649	-10.75
290.864	60.93
291.079	24.06
291.294	44.54
291.509	151.04
291.724	58.88
291.938	71.17
292.153	-14.85
292.368	95.74
292.583	22.02
292.798	34.3
293.012	-16.9
293.227	-66.05
293.442	99.84
293.657	24.06
293.871	73.21
294.086	-45.57
294.301	62.98
294.516	79.36
294.73	15.87
294.945	11.78
295.16	7.68
295.374	99.84
295.589	-43.52
295.804	46.59
296.018	50.69
296.233	69.12
296.447	60.93
296.662	-20.99
296.877	-6.66
297.091	54.78
297.306	81.41
297.52	67.07
297.735	65.02
297.949	17.92
298.164	28.16
298.378	-20.99
298.593	50.69
298.807	9.73
299.022	65.02
299.236	65.02
299.451	65.02
299.665	67.07
299.88	30.21
300.094	32.26
300.309	60.93
300.523	32.26
300.737	36.35
300.952	75.26
301.166	89.6
301.381	19.97
301.595	65.02
301.809	13.82
302.024	67.07
302.238	24.06
302.452	83.45
302.667	67.07
302.881	103.93
303.095	71.17
303.309	105.98
303.524	-47.62
303.738	-10.75
303.952	40.45
304.166	67.07
304.381	5.63
304.595	-33.28
304.809	-23.04
305.023	22.02
305.237	-37.38
305.452	-0.51
305.666	-8.7
305.88	101.89
306.094	58.88
306.308	62.98
306.522	48.64
306.736	30.21
306.95	71.17
307.164	52.74
307.379	11.78
307.593	103.93
307.807	44.54
308.021	38.4
308.235	24.06
308.449	-4.61
308.663	-0.51
308.877	138.75
309.091	3.58
309.305	56.83
309.519	-8.7
309.733	67.07
309.947	15.87
310.161	30.21
310.374	114.17
310.588	28.16
310.802	-12.8
311.016	11.78
311.23	77.31
311.444	44.54
311.658	13.82
311.872	71.17
312.085	52.74
312.299	40.45
312.513	112.13
312.727	28.16
312.941	52.74
313.154	73.21
313.368	-6.66
313.582	1.54
313.796	112.13
314.009	128.51
314.223	67.07
314.437	22.02
314.651	95.74
314.864	-49.66
315.078	32.26
315.292	-16.9
315.505	52.74
315.719	77.31
315.933	46.59
316.146	56.83
316.36	65.02
316.573	97.79
316.787	62.98
317.001	26.11
317.214	-2.56
317.428	69.12
317.641	5.63
317.855	75.26
318.068	138.75
318.282	75.26
318.495	50.69
318.709	26.11
318.922	67.07
319.136	58.88
319.349	91.65
319.563	62.98
319.776	77.31
319.99	79.36
320.203	38.4
320.417	13.82
320.63	83.45
320.843	17.92
321.057	85.5
321.27	13.82
321.483	134.65
321.697	81.41
321.91	79.36
322.124	13.82
322.337	28.16
322.55	24.06
322.763	65.02
322.977	73.21
323.19	34.3
323.403	83.45
323.617	54.78
323.83	79.36
324.043	108.03
324.256	54.78
324.469	-43.52
324.683	79.36
324.896	30.21
325.109	46.59
325.322	-61.95
325.535	163.33
325.748	48.64
325.962	60.93
326.175	13.82
326.388	48.64
326.601	95.74
326.814	50.69
327.027	65.02
327.24	108.03
327.453	13.82
327.666	56.83
327.879	108.03
328.092	134.65
328.305	56.83
328.518	50.69
328.731	42.5
328.944	99.84
329.157	38.4
329.37	22.02
329.583	112.13
329.796	58.88
330.009	24.06
330.222	44.54
330.435	75.26
330.648	32.26
330.861	62.98
331.073	75.26
331.286	93.69
331.499	-4.61
331.712	67.07
331.925	81.41
332.138	69.12
332.35	87.55
332.563	5.63
332.776	120.32
332.989	91.65
333.202	112.13
333.414	142.85
333.627	7.68
333.84	-20.99
334.053	38.4
334.265	7.68
334.478	54.78
334.691	85.5
334.903	24.06
335.116	38.4
335.329	38.4
335.541	73.21
335.754	120.32
335.966	30.21
336.179	9.73
336.392	46.59
336.604	97.79
336.817	1.54
337.029	-2.56
337.242	44.54
337.454	46.59
337.667	5.63
337.88	40.45
338.092	36.35
338.305	-35.33
338.517	15.87
338.729	91.65
338.942	77.31
339.154	36.35
339.367	48.64
339.579	32.26
339.792	19.97
340.004	77.31
340.217	50.69
340.429	79.36
340.641	5.63
340.854	-2.56
341.066	42.5
341.278	46.59
341.491	26.11
341.703	48.64
341.915	-27.14
342.128	69.12
342.34	73.21
342.552	44.54
342.764	42.5
342.977	58.88
343.189	9.73
343.401	46.59
343.613	54.78
343.826	73.21
344.038	34.3
344.25	93.69
344.462	-10.75
344.674	60.93
344.886	40.45
345.099	26.11
345.311	54.78
345.523	26.11
345.735	-2.56
345.947	71.17
346.159	56.83
346.371	36.35
346.583	77.31
346.795	95.74
347.007	52.74
347.219	114.17
347.431	40.45
347.643	120.32
347.855	120.32
348.067	118.27
348.279	-8.7
348.491	1.54
348.703	-53.76
348.915	48.64
349.127	73.21
349.339	-0.51
349.551	28.16
349.763	-20.99
349.975	-12.8
350.187	91.65
350.399	108.03
350.61	58.88
350.822	26.11
351.034	83.45
351.246	15.87
351.458	83.45
351.669	75.26
351.881	110.08
352.093	85.5
352.305	126.46
352.517	75.26
352.728	120.32
352.94	36.35
353.152	44.54
353.363	26.11
353.575	62.98
353.787	134.65
353.999	79.36
354.21	91.65
354.422	50.69
354.633	36.35
354.845	79.36
355.057	95.74
355.268	32.26
355.48	42.5
355.692	-14.85
355.903	5.63
356.115	91.65
356.326	30.21
356.538	58.88
356.749	71.17
356.961	91.65
357.172	24.06
357.384	69.12
357.595	75.26
357.807	28.16
358.018	52.74
358.23	56.83
358.441	101.89
358.653	114.17
358.864	79.36
359.075	83.45
359.287	-6.66
359.498	91.65
359.709	48.64
359.921	40.45
360.132	91.65
360.344	22.02
360.555	183.81
360.766	62.98
360.977	24.06
361.189	99.84
361.4	-14.85
361.611	9.73
361.823	91.65
362.034	73.21
362.245	34.3
362.456	30.21
362.667	124.41
362.879	87.55
363.09	79.36
363.301	67.07
363.512	62.98
363.723	58.88
363.935	11.78
364.146	40.45
364.357	77.31
364.568	48.64
364.779	7.68
364.99	32.26
365.201	7.68
365.412	101.89
365.623	40.45
365.834	48.64
366.045	71.17
366.256	112.13
366.467	71.17
366.678	30.21
366.889	89.6
367.1	56.83
367.311	69.12
367.522	46.59
367.733	5.63
367.944	67.07
368.155	93.69
368.366	99.84
368.577	65.02
368.788	67.07
368.999	11.78
369.209	34.3
369.42	89.6
369.631	118.27
369.842	108.03
370.053	42.5
370.264	54.78
370.474	71.17
370.685	77.31
370.896	87.55
371.107	108.03
371.317	87.55
371.528	40.45
371.739	85.5
371.95	77.31
372.16	40.45
372.371	50.69
372.582	11.78
372.792	67.07
373.003	38.4
373.214	-12.8
373.424	65.02
373.635	42.5
373.846	95.74
374.056	62.98
374.267	54.78
374.477	81.41
374.688	30.21
374.898	34.3
375.109	79.36
375.319	44.54
375.53	112.13
375.74	83.45
375.951	19.97
376.161	79.36
376.372	103.93
376.582	36.35
376.793	148.99
377.003	17.92
377.214	128.51
377.424	69.12
377.635	44.54
377.845	5.63
378.055	73.21
378.266	3.58
378.476	91.65
378.686	-0.51
378.897	60.93
379.107	148.99
379.317	22.02
379.528	126.46
379.738	75.26
379.948	19.97
380.158	79.36
380.369	110.08
380.579	163.33
380.789	50.69
380.999	124.41
381.21	-49.66
381.42	157.18
381.63	-0.51
381.84	54.78
382.05	24.06
382.261	93.69
382.471	44.54
382.681	30.21
382.891	120.32
383.101	50.69
383.311	38.4
383.521	65.02
383.731	26.11
383.941	71.17
384.151	87.55
384.361	-66.05
384.571	48.64
384.781	-16.9
384.991	75.26
385.201	132.61
385.411	36.35
385.621	77.31
385.831	101.89
386.041	15.87
386.251	60.93
386.461	97.79
386.671	65.02
386.881	144.89
387.091	30.21
387.301	97.79
387.511	71.17
387.72	32.26
387.93	52.74
388.14	22.02
388.35	36.35
388.56	71.17
388.769	148.99
388.979	71.17
389.189	15.87
389.399	28.16
389.609	62.98
389.818	48.64
390.028	-4.61
390.238	9.73
390.447	89.6
390.657	77.31
390.867	46.59
391.076	-41.47
391.286	101.89
391.496	56.83
391.705	85.5
391.915	91.65
392.125	101.89
392.334	28.16
392.544	116.22
392.753	120.32
392.963	9.73
393.172	103.93
393.382	36.35
393.591	79.36
393.801	-25.09
394.01	142.85
394.22	124.41
394.429	136.7
394.639	126.46
394.848	101.89
395.058	36.35
395.267	56.83
395.477	50.69
395.686	136.7
395.895	151.04
396.105	222.72
396.314	101.89
396.524	103.93
396.733	130.56
396.942	81.41
397.152	99.84
397.361	132.61
397.57	81.41
397.78	128.51
397.989	124.41
398.198	159.23
398.407	79.36
398.617	42.5
398.826	38.4
399.035	46.59
399.244	151.04
399.453	112.13
399.663	163.33
399.872	220.67
400.081	124.41
400.29	118.27
400.499	44.54
400.708	62.98
400.917	132.61
401.127	44.54
401.336	151.04
401.545	169.47
401.754	32.26
401.963	177.66
402.172	134.65
402.381	97.79
402.59	38.4
402.799	122.37
403.008	75.26
403.217	118.27
403.426	103.93
403.635	118.27
403.844	95.74
404.053	151.04
404.262	153.09
404.471	245.24
404.68	146.94
404.888	122.37
405.097	140.8
405.306	165.37
405.515	177.66
405.724	103.93
405.933	140.8
406.142	116.22
406.35	218.62
406.559	163.33
406.768	177.66
406.977	187.9
407.185	222.72
407.394	134.65
407.603	155.13
407.812	228.86
408.02	228.86
408.229	218.62
408.438	151.04
408.646	247.29
408.855	204.28
409.064	235
409.272	204.28
409.481	302.59
409.69	204.28
409.898	232.96
410.107	280.06
410.315	310.78
410.524	300.54
410.733	237.05
410.941	261.63
411.15	376.31
411.358	357.88
411.567	361.98
411.775	286.2
411.984	316.92
412.192	333.31
412.401	370.17
412.609	445.95
412.818	415.23
413.026	474.62
413.234	427.51
413.443	435.71
413.651	394.75
413.86	466.42
414.068	550.39
414.276	585.21
414.485	474.62
414.693	577.02
414.901	648.69
415.11	611.83
415.318	665.08
415.526	599.54
415.734	718.33
415.943	689.65
416.151	663.03
416.359	638.45
416.567	736.76
416.776	828.92
416.984	767.48
417.192	861.68
417.4	878.07
417.608	787.96
417.817	826.87
418.025	904.69
418.233	867.83
418.441	927.22
418.649	1000.94
418.857	949.75
419.065	1164.78
419.273	1046
419.481	1117.68
419.689	1158.64
419.897	1279.47
420.105	1265.13
420.313	1273.32
420.521	1428.97
420.729	1396.2
420.937	1478.12
421.145	1398.25
421.353	1582.57
421.561	1541.61
421.769	1637.86
421.977	1711.59
422.185	1666.53
422.393	1906.15
422.601	1996.26
422.809	2002.4
423.017	1871.33
423.224	2006.5
423.432	2047.46
423.64	2104.8
423.848	2170.33
424.056	2170.33
424.263	2373.08
424.471	2332.12
424.679	2467.29
424.887	2528.73
425.094	2624.98
425.302	2627.03
425.51	2708.95
425.718	2776.53
425.925	2825.68
426.133	2940.37
426.341	3143.12
426.548	3255.76
426.756	3352.01
426.964	3134.93
427.171	3435.98
427.379	3579.34
427.586	3565
427.794	3673.54
428.001	3872.2
428.209	4261.31
428.417	3962.31
428.624	4373.95
428.832	4498.88
429.039	4330.94
429.247	4173.25
429.454	4595.13
429.662	5025.2
429.869	4623.8
430.076	4992.44
430.284	4867.51
430.491	5117.36
430.699	5332.4
430.906	5207.47
431.114	5442.99
431.321	5668.27
431.528	5635.5
431.736	6127.01
431.943	6383.01
432.15	6264.22
432.358	6264.22
432.565	6542.75
432.772	6528.41
432.979	7087.51
433.187	7103.89
433.394	7097.75
433.601	7572.88
433.808	7609.74
434.016	7564.68
434.223	7906.7
434.43	8308.1
434.637	8211.84
434.844	8854.9
435.052	8871.29
435.259	8844.67
435.466	9102.71
435.673	8811.9
435.88	9520.49
436.087	10022.25
436.294	9860.46
436.501	9749.87
436.708	9917.8
436.915	10257.76
437.122	10804.57
437.329	10612.06
437.537	10992.98
437.743	11457.87
437.95	11208.02
438.157	11666.77
438.364	12070.22
438.571	12143.94
438.778	12027.21
438.985	13425.97
439.192	12870.97
439.399	13260.09
439.606	12803.39
439.813	13575.47
440.02	14404.9
440.227	14138.66
440.433	14083.37
440.64	14685.47
440.847	14495.01
441.054	14837.02
441.261	15566.1
441.467	15639.83
441.674	16098.57
441.881	16473.35
442.088	16499.97
442.294	16628.99
442.501	17038.59
442.708	17212.67
442.914	17634.55
443.121	18666.72
443.328	18035.95
443.534	18996.45
443.741	18625.76
443.948	18310.38
444.154	19893.46
444.361	19715.28
444.568	19811.54
444.774	19862.74
444.981	20251.85
445.187	20841.67
445.394	21476.54
445.6	21064.89
445.807	23227.55
446.013	22377.64
446.22	22842.53
446.426	23698.58
446.633	23784.6
446.839	24996.99
447.046	23614.62
447.252	25150.59
447.459	25017.47
447.665	25076.87
447.871	26096.75
448.078	27434.08
448.284	25846.9
448.491	26256.5
448.697	27552.86
448.903	28179.54
449.11	28275.79
449.316	27954.26
449.522	28261.46
449.728	29152.32
449.935	29355.07
450.141	29092.93
450.347	30010.42
450.553	28974.15
450.76	29066.31
450.966	30544.94
451.172	29828.15
451.378	30616.62
451.584	30055.48
451.791	30819.37
451.997	30905.38
452.203	31323.17
452.409	31626.27
452.615	31030.31
452.821	30008.37
453.027	29637.69
453.233	31409.18
453.44	30225.46
453.646	30282.8
453.852	30442.54
454.058	31278.11
454.264	29948.98
454.47	30669.87
454.676	29811.77
454.882	30733.36
455.088	28300.37
455.294	28863.56
455.5	29197.38
455.705	29318.21
455.911	28079.19
456.117	27870.29
456.323	27452.51
456.529	25906.29
456.735	27118.69
456.941	26397.81
457.147	25939.06
457.352	25103.49
457.558	24628.36
457.764	24786.05
457.97	24423.56
458.176	23653.53
458.381	23784.6
458.587	22598.82
458.793	22445.23
458.999	21673.14
459.204	22951.07
459.41	22312.11
459.616	21021.89
459.821	20700.36
460.027	20790.47
460.233	20747.46
460.438	19496.15
460.644	19723.48
460.85	18398.44
461.055	18386.15
461.261	18312.42
461.466	16850.17
461.672	16606.47
461.878	17683.7
462.083	16661.76
462.289	16106.76
462.494	16153.87
462.7	15365.4
462.905	14847.26
463.111	15365.4
463.316	15224.09
463.522	15349.01
463.727	15099.16
463.932	15084.83
464.138	14667.04
464.343	15109.4
464.549	14701.86
464.754	15152.41
464.959	15011.1
465.165	14847.26
465.37	14017.83
465.575	13751.6
465.781	14413.09
465.986	14398.76
466.191	14144.81
466.397	13851.95
466.602	13036.86
466.807	13475.12
467.012	13540.66
467.218	13442.35
467.423	13319.48
467.628	13137.21
467.833	13999.4
468.038	13403.44
468.244	13002.04
468.449	13577.52
468.654	13096.25
468.859	13045.05
469.064	12870.97
469.269	12498.24
469.474	12463.43
469.679	12731.71
469.885	12311.88
470.09	12690.75
470.295	12606.78
470.5	12275.01
470.705	12199.24
470.91	11875.66
471.115	11863.37
471.32	12162.37
471.525	12141.89
471.73	11609.42
471.935	11599.18
472.139	11310.42
472.344	11513.17
472.549	11384.15
472.754	11201.88
472.959	10909.02
473.164	10796.38
473.369	10823
473.574	10978.65
473.778	10747.23
473.983	10767.71
474.188	10636.64
474.393	10308.96
474.598	10290.53
474.802	10208.61
475.007	10204.52
475.212	10057.06
475.417	10034.53
475.621	9784.68
475.826	9837.93
476.031	9563.5
476.235	9567.6
476.44	9620.85
476.645	9403.76
476.849	9500.02
477.054	9178.48
477.259	9041.27
477.463	9254.26
477.668	8828.28
477.872	8949.11
478.077	8811.9
478.282	8578.43
478.486	8775.03
478.691	8615.29
478.895	8701.31
479.1	8519.04
479.304	8629.63
479.509	8154.5
479.713	8314.24
479.918	8064.39
480.122	7996.81
480.326	8185.22
480.531	8187.27
480.735	7916.94
480.94	8166.79
481.144	8328.58
481.348	8025.48
481.553	7828.87
481.757	7710.09
481.961	8103.3
482.166	8140.16
482.37	7972.23
482.574	7814.54
482.778	7798.15
482.983	8166.79
483.187	7812.49
483.391	7937.41
483.595	7890.31
483.8	7796.11
484.004	7902.6
484.208	7873.93
484.412	7888.26
484.616	7785.87
484.821	7773.58
485.025	7576.97
485.229	7935.37
485.433	7992.71
485.637	7882.12
485.841	7777.67
486.045	7806.34
486.249	7744.91
486.453	7597.45
486.657	7959.94
486.861	7814.54
487.065	7681.42
487.269	7841.16
487.473	7716.23
487.677	7685.51
487.881	7888.26
488.085	7792.01
488.289	7961.99
488.493	7705.99
488.697	7970.18
488.901	7976.33
489.105	7767.43
489.309	8074.63
489.512	8021.38
489.716	7724.43
489.92	7835.02
490.124	7974.28
490.328	8150.4
490.531	8064.39
490.735	8029.57
490.939	7976.33
491.143	8041.86
491.346	7966.09
491.55	8207.75
491.754	8273.28
491.958	8275.33
492.161	8174.98
492.365	8205.7
492.569	8230.27
492.772	8260.99
492.976	8496.51
493.18	8279.43
493.383	8445.31
493.587	8484.22
493.79	8727.93
493.994	8605.05
494.197	8613.24
494.401	8654.2
494.605	8678.78
494.808	8803.71
495.012	8992.12
495.215	8975.74
495.419	8938.87
495.622	9049.46
495.825	8979.83
496.029	9045.37
496.232	9475.44
496.436	9274.74
496.639	9370.99
496.843	9383.28
497.046	9749.87
497.249	9897.32
497.453	9891.18
497.656	9940.33
497.859	10018.15
498.063	9995.62
498.266	10329.44
498.469	10237.28
498.673	10528.1
498.876	10493.28
499.079	10507.62
499.282	10599.77
499.485	10839.39
499.689	10804.57
499.892	11021.66
500.095	11029.85
500.298	11337.04
500.501	11130.2
500.705	11697.49
500.908	11732.3
501.111	11695.44
501.314	11967.82
501.517	11994.44
501.72	12301.64
501.923	12211.53
502.126	12539.2
502.329	12846.4
502.532	12766.53
502.735	12883.26
502.938	12893.5
503.141	13329.72
503.344	13403.44
503.547	13296.95
503.75	13477.17
503.953	13946.16
504.156	13944.11
504.359	14128.42
504.562	13989.16
504.765	14472.48
504.968	14619.94
505.17	14544.16
505.373	14595.36
505.576	15375.64
505.779	15256.86
505.982	15199.51
506.185	15299.86
506.387	15508.76
506.59	15680.78
506.793	16008.46
506.996	16162.06
507.198	16514.31
507.401	16516.36
507.604	16557.32
507.807	16946.43
508.009	17124.6
508.212	17257.72
508.415	17450.23
508.617	17593.59
508.82	17634.55
509.022	17859.82
509.225	18148.59
509.428	18425.06
509.63	18457.83
509.833	18615.52
510.035	18760.93
510.238	19027.17
510.44	19293.4
510.643	19279.07
510.845	19410.14
511.048	19739.86
511.25	19915.98
511.453	20081.87
511.655	20892.87
511.858	20729.03
512.06	20587.72
512.262	21230.78
512.465	20907.2
512.667	21654.71
512.87	21814.45
513.072	22049.97
513.274	22078.64
513.477	22437.03
513.679	22690.98
513.881	22867.11
514.084	23372.96
514.286	23375
514.488	23321.76
514.69	24083.6
514.893	24036.5
515.095	24018.07
515.297	24466.57
515.499	24753.29
515.701	24939.65
515.904	25195.65
516.106	25203.84
516.308	25437.31
516.51	25992.31
516.712	25848.95
516.914	26424.43
517.116	26856.55
517.318	26813.54
517.52	27294.82
517.722	27335.77
517.925	27911.25
518.127	28062.8
518.329	28189.78
518.531	28130.39
518.733	28382.29
518.935	28886.09
519.136	29172.8
519.338	29500.48
519.54	29520.96
519.742	30022.71
519.944	30043.19
520.146	30401.58
520.348	30964.78
520.55	30780.46
520.752	30911.53
520.954	31554.59
521.155	31693.85
521.357	31949.85
521.559	32289.81
521.761	32609.29
521.963	32971.78
522.164	33016.84
522.366	33022.98
522.568	33534.98
522.77	33389.57
522.971	34180.09
523.173	33715.2
523.375	34386.93
523.576	34249.72
523.778	34341.88
523.98	34954.22
524.181	35206.12
524.383	35177.45
524.584	35525.6
524.786	35740.64
524.988	35701.73
525.189	36041.69
525.391	36279.25
525.592	36455.38
525.794	36488.15
525.995	36772.81
526.197	37012.43
526.398	37235.66
526.6	37344.2
526.801	37583.81
527.003	37653.44
527.204	37563.33
527.406	38359.99
527.607	38464.44
527.808	38497.2
528.01	37757.89
528.211	38833.07
528.412	39121.84
528.614	38962.09
528.815	39109.55
529.016	39609.25
529.218	39232.43
529.419	39443.37
529.62	39525.28
529.822	39205.8
530.023	39773.09
530.224	39584.68
530.425	39893.92
530.626	39740.32
530.828	39504.81
531.029	40600.47
531.23	39871.39
531.431	39504.81
531.632	40375.19
531.833	40166.3
532.035	40330.14
532.236	40328.09
532.437	40878.99
532.638	40461.21
532.839	40661.91
533.04	40301.47
533.241	39945.12
533.442	40846.22
533.643	40696.72
533.844	40573.84
534.045	41165.71
534.246	40297.37
534.447	41200.52
534.648	41063.31
534.849	40510.36
535.05	40577.94
535.251	40979.34
535.451	40815.51
535.652	40770.45
535.853	40926.1
536.054	41098.12
536.255	41190.28
536.456	40854.42
536.657	41534.34
536.857	40940.43
537.058	40600.47
537.259	41100.17
537.46	41261.96
537.66	40883.09
537.861	41081.74
538.062	40999.82
538.263	41132.94
538.463	41171.85
538.664	40924.05
538.865	41036.69
539.065	41001.87
539.266	40776.59
539.466	41532.29
539.667	40094.62
539.868	41245.58
540.068	40829.84
540.269	40969.1
540.469	41233.29
540.67	40762.26
540.87	40973.2
541.071	41159.56
541.271	41194.38
541.472	40952.72
541.672	40856.46
541.873	40690.58
542.073	40559.51
542.274	41186.19
542.474	41081.74
542.675	40606.61
542.875	41429.9
543.075	40676.24
543.276	40493.97
543.476	41448.33
543.676	41329.55
543.877	40909.71
544.077	40940.43
544.277	40903.57
544.478	41059.21
544.678	41370.5
544.878	40647.57
545.078	41120.65
545.279	40608.66
545.479	40584.08
545.679	40950.67
545.879	40899.47
546.079	40633.24
546.28	40629.14
546.48	40459.16
546.68	40915.86
546.88	40803.22
547.08	40938.38
547.28	40551.32
547.48	40450.97
547.68	40752.02
547.88	40639.38
548.081	40629.14
548.281	40799.12
548.481	40799.12
548.681	40999.82
548.881	40653.72
549.081	40334.23
549.28	40680.34
549.48	40838.03
549.68	40758.16
549.88	40641.43
550.08	40285.08
550.28	40786.83
550.48	40856.46
550.68	40651.67
550.88	40246.17
551.08	40348.57
551.279	40852.37
551.479	40352.66
551.679	40569.75
551.879	40500.12
552.079	40829.84
552.278	40364.95
552.478	40532.89
552.678	40113.05
552.878	40594.32
553.077	40045.47
553.277	40348.57
553.477	40502.17
553.676	40235.93
553.876	40342.42
554.076	40375.19
554.275	40207.26
554.475	39703.46
554.674	40364.95
554.874	40309.66
555.074	39818.14
555.273	40579.99
555.473	40129.44
555.672	39895.97
555.872	39787.42
556.071	40100.76
556.271	39994.27
556.47	39781.28
556.67	39369.64
556.869	39707.55
557.068	40000.41
557.268	39242.67
557.467	39424.93
557.667	39654.31
557.866	39361.45
558.065	39340.97
558.265	39115.69
558.464	39142.31
558.663	39619.49
558.863	38734.77
559.062	39373.74
559.261	38925.23
559.461	39283.62
559.66	38525.88
559.859	38890.41
560.058	39019.44
560.258	38671.28
560.457	38134.71
560.656	39179.18
560.855	38413.24
561.054	38753.2
561.253	37798.85
561.453	38325.18
561.652	38562.74
561.851	38226.87
562.05	38335.42
562.249	37718.98
562.448	38384.57
562.647	38032.32
562.846	37942.21
563.045	37884.86
563.244	37671.87
563.443	37977.02
563.642	37186.5
563.841	37399.49
564.04	37436.36
564.239	37549
564.438	37184.46
564.637	37571.52
564.836	37532.61
565.035	36336.6
565.234	37147.59
565.432	37114.83
565.631	36557.78
565.83	36807.63
566.029	36557.78
566.228	36559.83
566.427	36201.43
566.625	36152.28
566.824	36080.6
567.023	36369.37
567.222	35716.06
567.42	36199.38
567.619	35963.87
567.818	35673.06
568.016	35431.4
568.215	35795.93
568.414	35406.82
568.612	35578.85
568.811	35279.85
569.01	35214.31
569.208	34986.99
569.407	35298.28
569.605	35138.54
569.804	35122.15
570.002	34505.71
570.201	34411.51
570.4	34034.68
570.598	34272.25
570.797	34317.3
570.995	34591.73
571.193	33647.61
571.392	34196.47
571.59	33760.25
571.789	34264.05
571.987	33893.37
572.186	33637.37
572.384	33709.05
572.582	33620.99
572.781	33805.31
572.979	32881.67
573.177	33498.11
573.376	32805.9
573.574	32838.67
573.772	33117.19
573.971	32744.46
574.169	32369.68
574.367	32431.12
574.565	32756.75
574.763	32357.39
574.962	31933.46
575.16	31984.66
575.358	32146.45
575.556	31865.88
575.754	32392.21
575.952	31626.27
576.151	31962.14
576.349	31720.48
576.547	31403.04
576.745	31611.93
576.943	31548.45
577.141	31423.52
577.339	31593.5
577.537	31192.1
577.735	30876.71
577.933	30970.92
578.131	30768.17
578.329	30680.11
578.527	30614.57
578.725	30520.37
578.923	30759.98
579.121	30755.88
579.319	30250.03
579.516	30710.83
579.714	30489.65
579.912	30188.6
580.11	29809.72
580.308	30039.09
580.506	29828.15
580.704	29453.37
580.901	30024.76
581.099	29834.3
581.297	29670.46
581.495	29338.69
581.692	29430.85
581.89	29279.3
582.088	29586.49
582.285	29193.28
582.483	29236.29
582.681	28904.52
582.878	28990.53
583.076	28746.83
583.274	28939.33
583.471	28208.21
583.669	28687.43
583.866	28294.22
584.064	28509.26
584.262	28130.39
584.459	28570.7
584.657	28101.72
584.854	28593.23
585.052	27688.03
585.249	28105.81
585.447	27728.98
585.644	27651.16
585.841	27389.02
586.039	27706.46
586.236	27022.44
586.434	27028.58
586.631	27450.46
586.828	27339.87
587.026	27098.21
587.223	27284.58
587.42	26846.31
587.618	26958.95
587.815	26618.99
588.012	26768.49
588.21	26342.51
588.407	26657.9
588.604	26475.63
588.801	26373.23
588.999	26604.65
589.196	26186.86
589.393	26334.32
589.59	26154.1
589.787	25871.48
589.984	25793.65
590.182	25937.01
590.379	25865.33
590.576	25504.89
590.773	25834.61
590.97	25562.23
591.167	25474.17
591.364	24968.32
591.561	25494.65
591.758	25185.41
591.955	25052.29
592.152	25287.81
592.349	25044.1
592.546	25080.96
592.743	25111.68
592.94	24646.79
593.137	24734.85
593.334	24958.08
593.531	24431.76
593.727	24380.56
593.924	24519.82
594.121	23973.01
594.318	24482.95
594.515	23833.75
594.712	24413.32
594.908	23983.25
595.105	24118.42
595.302	23692.44
595.499	24032.4
595.696	23946.39
595.892	23620.76
596.089	24079.5
596.286	23647.38
596.482	23659.67
596.679	23647.38
596.876	23544.98
597.072	23514.27
597.269	23671.96
597.466	23166.11
597.662	23245.98
597.859	23233.69
598.055	22979.75
598.252	22793.38
598.448	22660.26
598.645	22623.4
598.841	22443.18
599.038	22387.88
599.234	22781.09
599.431	22385.83
599.627	22445.23
599.824	22326.44
600.02	22078.64
600.217	22252.72
600.413	22045.87
600.609	21898.42
600.806	21918.9
601.002	21982.38
601.198	21771.44
601.395	21705.91
601.591	21664.95
601.787	21607.61
601.984	21566.65
602.18	21705.91
602.376	21435.58
602.572	21013.7
602.769	21226.68
602.965	21208.25
603.161	21073.09
603.357	21255.36
603.553	20958.4
603.75	21148.86
603.946	20636.87
604.142	21028.03
604.338	20470.98
604.534	20845.76
604.73	20479.18
604.926	20608.2
605.122	20477.13
605.318	20481.22
605.514	20124.88
605.71	20436.17
605.906	20421.83
606.102	20311.24
606.298	20301
606.494	20313.29
606.69	20223.18
606.886	20100.3
607.082	19977.42
607.278	19944.66
607.474	19635.41
607.67	19901.65
607.866	19430.62
608.062	19840.21
608.257	19492.05
608.453	19567.83
608.649	19805.39
608.845	19629.27
609.041	19535.06
609.236	19207.39
609.432	19506.39
609.628	19459.29
609.824	19299.55
610.019	18992.35
610.215	19145.95
610.411	19225.82
610.606	19240.15
610.802	19012.83
610.998	19031.26
611.193	19074.27
611.389	18924.77
611.584	18818.27
611.78	19078.36
611.976	18810.08
612.171	18781.41
612.367	18722.02
612.562	18468.07
612.758	18347.24
612.953	18302.18
613.149	18543.85
613.344	18388.2
613.539	18765.03
613.735	18261.23
613.93	18525.41
614.126	18355.43
614.321	18572.52
614.517	18203.88
614.712	18269.42
614.907	18212.07
615.103	18025.71
615.298	17966.32
615.493	18484.45
615.688	17767.66
615.884	18328.81
616.079	17804.53
616.274	18097.39
616.47	17917.17
616.665	17755.38
616.86	17671.41
617.055	17472.76
617.25	17665.27
617.445	17757.43
617.641	17130.75
617.836	17499.38
618.031	17077.5
618.226	17493.24
618.421	17251.58
618.616	17372.41
618.811	17259.77
619.006	17386.74
619.201	16975.1
619.396	17362.17
619.591	16747.78
619.786	17067.26
619.981	16725.25
620.176	16768.26
620.371	16688.39
620.566	16575.75
620.761	16379.14
620.956	16573.7
621.151	16340.23
621.346	16479.49
621.541	16221.45
621.735	16375.05
621.93	16151.82
622.125	16088.33
622.32	16028.94
622.515	16106.76
622.709	15858.96
622.904	15699.22
623.099	15795.47
623.294	15531.28
623.488	15369.49
623.683	15504.66
623.878	15138.07
624.072	15244.57
624.267	15385.88
624.462	14980.38
624.656	15084.83
624.851	14959.9
625.046	15066.39
625.24	14863.65
625.435	14507.3
625.629	14892.32
625.824	14652.7
626.018	14564.64
626.213	14177.58
626.407	14517.54
626.602	14097.7
626.796	14161.19
626.991	13931.82
627.185	13931.82
627.38	13909.29
627.574	13794.61
627.768	13692.21
627.963	13561.14
628.157	13524.27
628.352	13643.06
628.546	13507.89
628.74	13530.42
628.935	13546.8
629.129	13262.13
629.323	13188.41
629.517	12977.47
629.712	13104.44
629.906	12987.71
630.1	12891.45
630.294	12956.99
630.489	12881.21
630.683	12979.51
630.877	12483.91
631.071	12627.26
631.265	12764.48
631.459	12330.31
631.653	12465.47
631.848	12391.75
632.042	12410.18
632.236	12432.71
632.43	12156.23
632.624	12045.64
632.818	11945.29
633.012	11996.49
633.206	11900.23
633.4	11945.29
633.594	11537.74
633.788	11607.37
633.982	11535.7
634.176	11556.18
634.369	11466.07
634.563	11582.8
634.757	11302.23
634.951	11074.9
635.145	11113.81
635.339	11296.08
635.533	10966.36
635.726	11058.52
635.92	10935.64
636.114	10997.08
636.308	10941.79
636.501	10978.65
636.695	10599.77
636.889	10894.68
637.083	10569.05
637.276	10669.41
637.47	10409.31
637.664	10524
637.857	10681.69
638.051	10366.31
638.244	10270.05
638.438	10235.24
638.632	10315.11
638.825	10071.4
639.019	10175.84
639.212	9907.56
639.406	9950.57
639.599	9985.38
639.793	10038.63
639.986	9835.88
640.18	9854.31
640.373	9721.2
640.567	9588.08
640.76	9600.37
640.954	9604.46
641.147	9459.06
641.34	9479.54
641.534	9399.66
641.727	9545.07
641.92	9321.84
642.114	9272.69
642.307	9172.34
642.5	9110.9
642.694	9129.33
642.887	9047.41
643.08	9037.17
643.273	9063.8
643.467	9123.19
643.66	8715.64
643.853	8818.04
644.046	8725.88
644.239	8682.88
644.432	8709.5
644.626	8680.83
644.819	8504.7
645.012	8555.9
645.205	8525.18
645.398	8586.62
645.591	8525.18
645.784	8457.6
645.977	8168.84
646.17	8250.75
646.363	8215.94
646.556	8037.77
646.749	7994.76
646.942	8197.51
647.135	8074.63
647.328	8031.62
647.521	8056.2
647.714	7902.6
647.907	7724.43
648.099	7894.41
648.292	7849.35
648.485	7703.95
648.678	7740.81
648.871	7830.92
649.064	7587.21
649.256	7665.04
649.449	7525.77
649.642	7357.84
649.835	7376.27
650.027	7501.2
650.22	7318.93
650.413	7470.48
650.605	7335.31
650.798	7359.89
650.991	7263.63
651.183	7132.56
651.376	7046.55
651.568	7116.18
651.761	6987.16
651.954	7042.45
652.146	7114.13
652.339	7060.88
652.531	6866.33
652.724	6874.52
652.916	6587.8
653.109	6798.74
653.301	6811.03
653.494	6895
653.686	6639
653.879	6845.85
654.071	6573.47
654.263	6491.55
654.456	6524.32
654.648	6587.8
654.84	6522.27
655.033	6469.02
655.225	6649.24
655.417	6454.69
655.61	6374.81
655.802	6444.45
655.994	6403.49
656.186	6364.57
656.379	6317.47
656.571	6436.25
656.763	6346.14
656.955	6014.37
657.148	6129.06
657.34	6045.09
657.532	5981.6
657.724	6010.28
657.916	6059.43
658.108	6157.73
658.3	6012.32
658.492	5985.7
658.684	5850.53
658.876	5983.65
659.068	5885.35
659.26	5694.89
659.452	5711.27
659.644	5709.22
659.836	5737.9
660.028	5858.73
660.22	5688.75
660.412	5692.84
660.604	5565.87
660.796	5569.96
660.988	5641.64
661.18	5555.63
661.372	5498.28
661.563	5617.07
661.755	5522.86
661.947	5479.85
662.139	5576.11
662.331	5434.8
662.522	5340.59
662.714	5379.5
662.906	5295.54
663.097	5303.73
663.289	5260.72
663.481	5184.94
663.673	5176.75
663.864	5047.73
664.056	5137.84
664.247	5025.2
664.439	5039.54
664.631	5117.36
664.822	5017.01
665.014	5068.21
665.205	5021.11
665.397	5109.17
665.588	4910.52
665.78	5029.3
665.971	5004.72
666.163	4847.03
666.354	4869.56
666.546	4828.6
666.737	4677.05
666.929	4699.58
667.12	4748.73
667.311	4664.76
667.503	4677.05
667.694	4756.92
667.885	4615.61
668.077	4826.55
668.268	4730.3
668.459	4654.52
668.651	4595.13
668.842	4758.97
669.033	4681.14
669.224	4468.16
669.416	4572.6
669.607	4588.99
669.798	4435.39
669.989	4580.79
670.18	4726.2
670.371	4468.16
670.563	4464.06
670.754	4558.27
670.945	4406.72
671.136	4480.44
671.327	4441.53
671.518	4404.67
671.709	4298.17
671.9	4365.76
672.091	4441.53
672.282	4363.71
672.473	4361.66
672.664	4330.94
672.855	4447.68
673.046	4339.13
673.237	4437.44
673.428	4296.13
673.619	4263.36
673.809	4304.32
674	4312.51
674.191	4332.99
674.382	4208.06
674.573	4310.46
674.764	4185.54
674.954	4255.17
675.145	4222.4
675.336	4244.93
675.527	4199.87
675.717	4068.8
675.908	4144.58
676.099	4234.69
676.289	4089.28
676.48	4142.53
676.671	4132.29
676.861	4195.78
677.052	4126.15
677.243	4023.75
677.433	4027.84
677.624	4152.77
677.814	3988.93
678.005	3933.64
678.195	4117.95
678.386	4109.76
678.576	4152.77
678.767	4033.99
678.957	4011.46
679.148	4105.67
679.338	4134.34
679.529	4113.86
679.719	4076.99
679.909	4128.19
680.1	4009.41
680.29	4066.75
680.481	4040.13
680.671	4062.66
680.861	4095.43
681.052	3980.74
681.242	4005.31
681.432	4033.99
681.622	4040.13
681.813	4005.31
682.003	4036.03
682.193	4025.79
682.383	3845.57
682.573	4171.2
682.764	3962.31
682.954	4070.85
683.144	3896.77
683.334	3956.16
683.524	4019.65
683.714	4062.66
683.904	4033.99
684.094	3976.64
684.284	3818.95
684.474	3997.12
684.664	3882.44
684.854	3986.88
685.044	3767.75
685.234	3798.47
685.424	3950.02
685.614	3868.1
685.804	3872.2
685.994	3849.67
686.184	3874.24
686.374	3886.53
686.564	3818.95
686.753	3872.2
686.943	3933.64
687.133	3847.62
687.323	3868.1
687.513	3788.23
687.702	3616.2
687.892	3855.81
688.082	3704.26
688.272	3687.88
688.461	3636.68
688.651	3759.56
688.841	3630.54
689.03	3577.29
689.22	3591.63
689.41	3513.8
689.599	3667.4
689.789	3540.43
689.979	3554.76
690.168	3573.19
690.358	3481.03
690.547	3438.03
690.737	3595.72
690.926	3487.18
691.116	3468.75
691.305	3452.36
691.495	3384.78
691.684	3274.19
691.874	3390.92
692.063	3315.15
692.252	3364.3
692.442	3392.97
692.631	3274.19
692.82	3409.36
693.01	3300.81
693.199	3300.81
693.388	3218.89
693.578	3290.57
693.767	3257.81
693.956	3220.94
694.146	3237.33
694.335	3134.93
694.524	3296.72
694.713	3241.42
694.902	3122.64
695.092	3134.93
695.281	3085.78
695.47	3136.98
695.659	3202.51
695.848	3069.39
696.037	3171.79
696.226	2958.8
696.415	3012.05
696.604	3261.9
696.793	3081.68
696.982	3003.86
697.171	3124.69
697.36	3126.74
697.549	3124.69
697.738	3059.15
697.927	3120.59
698.116	3167.7
698.305	3034.58
698.494	3042.77
698.683	3091.92
698.872	3063.25
699.061	3114.45
699.25	2991.57
699.438	3005.91
699.627	3007.95
699.816	2975.19
700.005	2956.75
700.193	3018.19
700.382	2983.38
700.571	3034.58
700.76	3036.63
700.948	3085.78
701.137	3096.02
701.326	3114.45
701.514	2979.28
701.703	3030.48
701.892	2948.56
702.08	3048.91
702.269	3063.25
702.457	2948.56
702.646	3001.81
702.834	2903.51
703.023	2969.04
703.212	2862.55
703.4	2891.22
703.589	2985.43
703.777	3028.43
703.965	2971.09
704.154	3026.39
704.342	3073.49
704.531	2989.52
704.719	3048.91
704.907	3120.59
705.096	2944.47
705.284	3050.96
705.472	3055.06
705.661	3038.67
705.849	3036.63
706.037	3022.29
706.226	2991.57
706.414	3118.54
706.602	2940.37
706.79	3010
706.979	2979.28
707.167	2973.14
707.355	2932.18
707.543	3192.27
707.731	2975.19
707.919	2923.99
708.107	3069.39
708.296	3020.24
708.484	2883.03
708.672	3040.72
708.86	3145.17
709.048	3087.82
709.236	2977.23
709.424	2876.88
709.612	3018.19
709.8	2962.9
709.988	3010
710.176	3083.73
710.364	3141.07
710.551	3085.78
710.739	3089.87
710.927	3046.87
711.115	3026.39
711.303	2973.14
711.491	3063.25
711.679	3075.54
711.866	2991.57
712.054	3083.73
712.242	3139.02
712.43	3118.54
712.617	3079.63
712.805	2952.66
712.993	3073.49
713.181	3085.78
713.368	3048.91
713.556	3188.18
713.744	3098.06
713.931	3175.89
714.119	3159.5
714.306	3235.28
714.494	3083.73
714.682	3077.59
714.869	2983.38
715.057	3188.18
715.244	2944.47
715.432	3200.46
715.619	3010
715.807	3083.73
715.994	3034.58
716.182	3091.92
716.369	3167.7
716.556	3145.17
716.744	3149.26
716.931	3114.45
717.119	3212.75
717.306	3163.6
717.493	3096.02
717.681	3165.65
717.868	3134.93
718.055	3208.66
718.242	3214.8
718.43	3169.74
718.617	3063.25
718.804	3044.82
718.991	3184.08
719.179	3253.71
719.366	3198.42
719.553	3333.58
719.74	3198.42
719.927	3216.85
720.114	3225.04
720.301	3255.76
720.488	3149.26
720.676	3171.79
720.863	3413.45
721.05	3315.15
721.237	3354.06
721.424	3245.52
721.611	3130.83
721.798	3229.13
721.985	3198.42
722.172	3286.48
722.358	3270.09
722.545	3442.12
722.732	3325.39
722.919	3413.45
723.106	3104.21
723.293	3229.13
723.48	3173.84
723.667	3270.09
723.853	3212.75
724.04	3333.58
724.227	3331.53
724.414	3333.58
724.6	3231.18
724.787	3431.88
724.974	3274.19
725.161	3415.5
725.347	3276.24
725.534	3372.49
725.72	3409.36
725.907	3411.4
726.094	3335.63
726.28	3282.38
726.467	3167.7
726.653	3349.96
726.84	3319.25
727.027	3231.18
727.213	3339.73
727.4	3327.44
727.586	3358.16
727.773	3306.96
727.959	3583.43
728.145	3333.58
728.332	3356.11
728.518	3319.25
728.705	3329.49
728.891	3474.89
729.077	3280.33
729.264	3288.53
729.45	3272.14
729.636	3413.45
729.823	3259.85
730.009	3464.65
730.195	3200.46
730.382	3286.48
730.568	3345.87
730.754	3397.07
730.94	3452.36
731.126	3323.34
731.313	3478.99
731.499	3438.03
731.685	3276.24
731.871	3452.36
732.057	3356.11
732.243	3321.29
732.429	3556.81
732.615	3487.18
732.801	3493.32
732.987	3452.36
733.173	3409.36
733.359	3493.32
733.545	3542.47
733.731	3395.02
733.917	3317.2
734.103	3415.5
734.289	3356.11
734.475	3476.94
734.661	3569.1
734.847	3390.92
735.033	3499.47
735.219	3558.86
735.404	3489.23
735.59	3532.23
735.776	3306.96
735.962	3485.13
736.148	3395.02
736.333	3478.99
736.519	3392.97
736.705	3415.5
736.89	3388.88
737.076	3476.94
737.262	3270.09
737.447	3300.81
737.633	3374.54
737.819	3442.12
738.004	3403.21
738.19	3464.65
738.375	3319.25
738.561	3425.74
738.747	3356.11
738.932	3388.88
739.118	3333.58
739.303	3358.16
739.489	3374.54
739.674	3413.45
739.859	3282.38
740.045	3349.96
740.23	3329.49
740.416	3214.8
740.601	3534.28
740.786	3294.67
740.972	3401.16
741.157	3419.6
741.342	3235.28
741.528	3157.46
741.713	3388.88
741.898	3286.48
742.084	3325.39
742.269	3339.73
742.454	3214.8
742.639	3276.24
742.824	3171.79
743.01	3229.13
743.195	3192.27
743.38	3333.58
743.565	3245.52
743.75	3354.06
743.935	3173.84
744.12	3327.44
744.305	3173.84
744.49	3225.04
744.675	3139.02
744.86	3126.74
745.045	3130.83
745.23	3081.68
745.415	3222.99
745.6	3171.79
745.785	3124.69
745.97	3077.59
746.155	3042.77
746.34	3057.11
746.525	2913.75
746.71	2948.56
746.895	2938.32
747.079	2979.28
747.264	3007.95
747.449	3024.34
747.634	3071.44
747.819	2915.8
748.003	2817.49
748.188	2907.6
748.373	2772.44
748.557	2827.73
748.742	2850.26
748.927	2667.99
749.111	2749.91
749.296	2801.11
749.481	2856.4
749.665	2862.55
749.85	2670.04
750.034	2756.05
750.219	2723.29
750.404	2776.53
750.588	2639.32
750.773	2620.89
750.957	2688.47
751.141	2569.69
751.326	2672.09
751.51	2584.02
751.695	2610.65
751.879	2571.74
752.064	2643.42
752.248	2598.36
752.432	2465.24
752.617	2493.91
752.801	2549.21
752.985	2475.48
753.17	2498.01
753.354	2381.28
753.538	2467.29
753.722	2559.45
753.907	2360.8
754.091	2350.56
754.275	2389.47
754.459	2268.64
754.643	2432.47
754.828	2229.73
755.012	2344.41
755.196	2246.11
755.38	2194.91
755.564	2178.53
755.748	2170.33
755.932	2219.49
756.116	2145.76
756.3	2252.25
756.484	2123.23
756.668	2100.7
756.852	1986.02
757.036	2156
757.22	2156
757.404	2020.83
757.588	2065.89
757.772	2102.75
757.956	1986.02
758.14	1994.21
758.323	2031.07
758.507	2090.46
758.691	1996.26
758.875	2031.07
759.059	2074.08
759.242	2004.45
759.426	1867.24
759.61	1904.1
759.794	1895.91
759.977	2029.03
760.161	2026.98
760.345	1981.92
760.528	1887.72
760.712	1859.04
760.895	1895.91
761.079	1842.66
761.263	1838.56
761.446	1766.89
761.63	1824.23
761.813	1826.28
761.997	1828.32
762.18	1721.83
762.364	1775.08
762.547	1627.62
762.731	1777.12
762.914	1770.98
763.098	1752.55
763.281	1730.02
763.464	1697.25
763.648	1695.21
763.831	1680.87
764.015	1693.16
764.198	1662.44
764.381	1672.68
764.564	1770.98
764.748	1779.17
764.931	1687.01
765.114	1627.62
765.297	1609.19
765.481	1601
765.664	1611.24
765.847	1736.17
766.03	1672.68
766.213	1609.19
766.397	1605.1
766.58	1580.52
766.763	1617.38
766.946	1547.75
767.129	1488.36
767.312	1537.51
767.495	1494.51
767.678	1555.94
767.861	1594.86
768.044	1531.37
768.227	1467.88
768.41	1609.19
768.593	1492.46
768.776	1592.81
768.959	1549.8
769.142	1562.09
769.324	1439.21
769.507	1543.66
769.69	1480.17
769.873	1428.97
770.056	1478.12
770.239	1457.64
770.421	1474.03
770.604	1506.79
770.787	1439.21
770.97	1361.39
771.152	1398.25
771.335	1453.55
771.518	1285.61
771.7	1398.25
771.883	1392.11
772.066	1357.29
772.248	1357.29
772.431	1349.1
772.613	1398.25
772.796	1342.96
772.978	1224.17
773.161	1398.25
773.343	1240.56
773.526	1271.28
773.708	1218.03
773.891	1228.27
774.073	1304.04
774.256	1181.17
774.438	1244.65
774.621	1203.69
774.803	1160.69
774.985	1271.28
775.168	1205.74
775.35	1148.4
775.532	1250.8
775.715	1166.83
775.897	1177.07
776.079	1191.41
776.261	1127.92
776.444	1117.68
776.626	1127.92
776.808	1199.6
776.99	1129.97
777.173	1144.3
777.355	1037.81
777.537	1074.67
777.719	1050.1
777.901	1117.68
778.083	945.65
778.265	1009.14
778.447	1048.05
778.629	1029.62
778.811	994.8
778.993	1002.99
779.175	1031.66
779.357	1086.96
779.539	1005.04
779.721	1033.71
779.903	955.89
780.085	1011.18
780.267	908.79
780.449	990.7
780.631	986.61
780.812	951.79
780.994	939.51
781.176	947.7
781.358	939.51
781.54	884.21
781.721	896.5
781.903	863.73
782.085	935.41
782.267	886.26
782.448	898.55
782.63	851.44
782.812	892.4
782.993	884.21
783.175	867.83
783.357	906.74
783.538	769.52
783.72	898.55
783.901	812.53
784.083	769.52
784.264	755.19
784.446	728.56
784.627	800.24
784.809	849.4
784.99	755.19
785.172	804.34
785.353	775.67
785.535	736.76
785.716	671.22
785.897	773.62
786.079	787.96
786.26	767.48
786.441	716.28
786.623	716.28
786.804	667.13
786.985	650.74
787.167	587.26
787.348	648.69
787.529	685.56
787.71	738.8
787.891	757.24
788.073	673.27
788.254	687.61
788.435	695.8
788.616	706.04
788.797	599.54
788.978	642.55
789.159	669.17
789.34	613.88
789.522	644.6
789.703	544.25
789.884	568.82
790.065	630.26
790.246	673.27
790.427	660.98
790.607	652.79
790.788	663.03
790.969	591.35
791.15	622.07
791.331	589.3
791.512	581.11
791.693	521.72
791.874	613.88
792.054	595.45
792.235	615.93
792.416	484.86
792.597	601.59
792.778	468.47
792.958	503.29
793.139	605.69
793.32	544.25
793.5	550.39
793.681	579.06
793.862	491
794.042	556.54
794.223	478.71
794.404	542.2
794.584	491
794.765	443.9
794.945	509.43
795.126	466.42
795.306	534.01
795.487	529.91
795.667	568.82
795.848	466.42
796.028	452.09
796.209	407.03
796.389	482.81
796.57	546.3
796.75	460.28
796.93	437.75
797.111	499.19
797.291	443.9
797.471	491
797.652	423.42
797.832	423.42
798.012	419.32
798.192	468.47
798.373	429.56
798.553	450.04
798.733	458.23
798.913	413.18
799.093	384.51
799.274	499.19
799.454	423.42
799.634	388.6
799.814	464.38
799.994	384.51
800.174	476.66
800.354	423.42
800.534	370.17
800.714	380.41
800.894	331.26
801.074	366.07
801.254	353.79
801.434	460.28
801.614	357.88
801.794	359.93
801.974	1134.06
802.154	413.18
802.334	439.8
802.514	269.82
802.693	368.12
802.873	392.7
803.053	400.89
803.233	308.73
803.413	370.17
803.592	325.12
803.772	349.69
803.952	337.4
804.131	351.74
804.311	368.12
804.491	335.35
804.67	304.64
804.85	302.59
805.03	259.58
805.209	314.88
805.389	382.46
805.568	308.73
805.748	304.64
805.928	325.12
806.107	370.17
806.287	306.68
806.466	335.35
806.646	278.01
806.825	349.69
807.004	327.16
807.184	321.02
807.363	335.35
807.543	388.6
807.722	261.63
807.901	355.83
808.081	345.59
808.26	185.85
808.439	308.73
808.619	282.11
808.798	228.86
808.977	353.79
809.156	343.55
809.336	318.97
809.515	259.58
809.694	294.4
809.873	220.67
810.052	302.59
810.231	282.11
810.411	271.87
810.59	331.26
810.769	251.39
810.948	284.16
811.127	187.9
811.306	222.72
811.485	290.3
811.664	388.6
811.843	251.39
812.022	251.39
812.201	255.48
812.38	269.82
812.559	179.71
812.737	296.44
812.916	134.65
813.095	202.24
813.274	249.34
813.453	196.09
813.632	222.72
813.811	325.12
813.989	202.24
814.168	249.34
814.347	273.92
814.526	249.34
814.704	382.46
814.883	286.2
815.062	255.48
815.24	224.76
815.419	290.3
815.598	226.81
815.776	167.42
815.955	198.14
816.133	230.91
816.312	294.4
816.49	177.66
816.669	173.57
816.847	208.38
817.026	200.19
817.204	206.33
817.383	220.67
817.561	243.2
817.74	185.85
817.918	159.23
818.097	210.43
818.275	218.62
818.453	226.81
818.632	181.76
818.81	214.52
818.988	138.75
819.167	235
819.345	187.9
819.523	194.05
819.701	273.92
819.879	275.96
820.058	286.2
820.236	216.57
820.414	220.67
820.592	165.37
820.77	144.89
820.948	204.28
821.127	222.72
821.305	161.28
821.483	148.99
821.661	208.38
821.839	204.28
822.017	144.89
822.195	175.61
822.373	218.62
822.551	192
822.729	196.09
822.907	257.53
823.085	259.58
823.262	157.18
823.44	163.33
823.618	155.13
823.796	134.65
823.974	89.6
824.152	130.56
824.329	163.33
824.507	163.33
824.685	148.99
824.863	85.5
825.04	151.04
825.218	122.37
825.396	148.99
825.574	216.57
825.751	239.1
825.929	179.71
826.107	112.13
826.284	216.57
826.462	105.98
826.639	200.19
826.817	85.5
826.994	103.93
827.172	132.61
827.349	171.52
827.527	175.61
827.704	179.71
827.882	124.41
828.059	140.8
828.237	169.47
828.414	151.04
828.591	128.51
828.769	202.24
828.946	91.65
829.124	171.52
829.301	204.28
829.478	153.09
829.655	165.37
829.833	148.99
830.01	124.41
830.187	169.47
830.364	173.57
830.542	151.04
830.719	87.55
830.896	140.8
831.073	196.09
831.25	157.18
831.427	138.75
831.604	179.71
831.782	105.98
831.959	177.66
832.136	89.6
832.313	192
832.49	142.85
832.667	130.56
832.844	163.33
833.021	208.38
833.198	112.13
833.374	95.74
833.551	77.31
833.728	134.65
833.905	187.9
834.082	50.69
834.259	83.45
834.436	183.81
834.612	58.88
834.789	130.56
834.966	167.42
835.143	155.13
835.319	112.13
835.496	130.56
835.673	83.45
835.85	194.05
836.026	73.21
836.203	118.27
836.38	56.83
836.556	151.04
836.733	52.74
836.909	116.22
837.086	99.84
837.262	153.09
837.439	91.65
837.616	71.17
837.792	87.55
837.968	155.13
838.145	11.78
838.321	69.12
838.498	122.37
838.674	181.76
838.851	69.12
839.027	38.4
839.203	5.63
839.38	132.61
839.556	136.7
839.732	97.79
839.909	134.65
840.085	136.7
840.261	136.7
840.437	134.65
840.614	97.79
840.79	71.17
840.966	200.19
841.142	134.65
841.318	73.21
841.494	157.18
841.671	67.07
841.847	40.45
842.023	-4.61
842.199	124.41
842.375	73.21
842.551	65.02
842.727	114.17
842.903	130.56
843.079	42.5
843.255	138.75
843.431	75.26
843.607	108.03
843.783	54.78
843.959	148.99
844.134	89.6
844.31	118.27
844.486	46.59
844.662	87.55
844.838	87.55
845.013	142.85
845.189	163.33
845.365	65.02
845.541	112.13
845.716	153.09
845.892	132.61
846.068	60.93
846.244	46.59
846.419	89.6
846.595	44.54
846.77	34.3
846.946	44.54
847.122	40.45
847.297	1.54
847.473	122.37
847.648	26.11
847.824	105.98
847.999	67.07
848.175	71.17
848.35	67.07
848.526	126.46
848.701	65.02
848.876	140.8
849.052	91.65
849.227	67.07
849.403	108.03
849.578	42.5
849.753	93.69
849.929	93.69
850.104	7.68
850.279	-18.94
850.454	69.12
850.63	77.31
850.805	91.65
850.98	34.3
851.155	-0.51
851.33	105.98
851.505	42.5
851.681	69.12
851.856	83.45
852.031	79.36
852.206	32.26
852.381	40.45
852.556	60.93
852.731	65.02
852.906	67.07
853.081	36.35
853.256	97.79
853.431	5.63
853.606	24.06
853.781	19.97
853.956	-6.66
854.131	108.03
854.305	-37.38
854.48	22.02
854.655	38.4
854.83	65.02
855.005	54.78
855.18	-27.14
855.354	7.68
855.529	69.12
855.704	-76.29
855.879	140.8
856.053	71.17
856.228	75.26
856.403	65.02
856.577	93.69
856.752	34.3
856.926	87.55
857.101	15.87
857.276	67.07
857.45	65.02
857.625	19.97
857.799	7.68
857.974	56.83
858.148	46.59
858.323	69.12
858.497	69.12
858.672	1.54
858.846	-18.94
859.02	36.35
859.195	1.54
859.369	-4.61
859.543	-4.61
859.718	95.74
859.892	114.17
860.066	-2.56
860.241	-4.61
860.415	46.59
860.589	44.54
860.763	22.02
860.938	46.59
861.112	71.17
861.286	7.68
861.46	30.21
861.634	77.31
861.808	62.98
861.982	-18.94
862.157	32.26
862.331	42.5
862.505	24.06
862.679	28.16
862.853	9.73
863.027	54.78
863.201	22.02
863.375	19.97
863.549	38.4
863.722	15.87
863.896	24.06
864.07	44.54
864.244	46.59
864.418	48.64
864.592	65.02
864.766	-0.51
864.939	-16.9
865.113	-25.09
865.287	116.22
865.461	-27.14
865.634	69.12
865.808	77.31
865.982	-4.61
866.156	30.21
866.329	-6.66
866.503	38.4
866.676	85.5
866.85	105.98
867.024	36.35
867.197	65.02
867.371	128.51
867.544	30.21
867.718	48.64
867.891	-4.61
868.065	-51.71
868.238	85.5
868.412	73.21
868.585	42.5
868.759	-37.38
868.932	36.35
869.105	5.63
869.279	1.54
869.452	32.26
869.625	95.74
869.799	30.21
869.972	-10.75
870.145	56.83
870.319	65.02
870.492	44.54
870.665	15.87
870.838	-16.9
871.011	-47.62
871.185	44.54
871.358	-6.66
871.531	71.17
871.704	-31.23
871.877	-23.04
872.05	26.11
872.223	-45.57
872.396	-8.7
872.569	75.26
872.742	5.63
872.915	93.69
873.088	5.63
873.261	1.54
873.434	50.69
873.607	97.79
873.78	46.59
873.953	54.78
874.126	11.78
874.299	116.22
874.471	85.5
874.644	13.82
874.817	69.12
874.99	146.94
875.163	19.97
875.335	7.68
875.508	17.92
875.681	52.74
875.853	34.3
876.026	13.82
876.199	62.98
876.371	75.26
876.544	40.45
876.717	28.16
876.889	32.26
877.062	7.68
877.234	56.83
877.407	9.73
877.579	40.45
877.752	69.12
877.924	85.5
878.097	36.35
878.269	1.54
878.442	22.02
878.614	103.93
878.786	81.41
878.959	54.78
879.131	24.06
879.303	-53.76
879.476	48.64
879.648	-27.14
879.82	-16.9
879.993	-43.52
880.165	42.5
880.337	-131.58
880.509	-8.7
880.681	-0.51
880.854	85.5
881.026	54.78
881.198	71.17
881.37	65.02
881.542	36.35
881.714	-25.09
881.886	48.64
882.058	83.45
882.23	-12.8
882.402	-4.61
882.574	71.17
882.746	11.78
882.918	28.16
883.09	13.82
883.262	-16.9
883.434	114.17
883.606	19.97
883.778	9.73
883.95	81.41
884.122	-33.28
884.293	62.98
884.465	-23.04
884.637	40.45
884.809	40.45
884.98	46.59
885.152	5.63
885.324	99.84
885.496	-10.75
885.667	26.11
885.839	71.17
886.011	79.36
886.182	1.54
886.354	54.78
886.525	60.93
886.697	-23.04
886.869	-31.23
887.04	-10.75
887.212	17.92
887.383	75.26
887.555	28.16
887.726	-10.75
887.897	-6.66
888.069	15.87
888.24	32.26
888.412	103.93
888.583	-8.7
888.754	132.61
888.926	-76.29
889.097	-35.33
889.268	-29.18
889.44	81.41
889.611	-29.18
889.782	-33.28
889.953	28.16
890.125	65.02
890.296	28.16
890.467	-39.42
890.638	44.54
890.809	-51.71
890.98	-14.85
891.151	101.89
891.323	81.41
891.494	-0.51
891.665	-8.7
891.836	13.82
892.007	1.54
892.178	48.64
892.349	-16.9
892.52	34.3
892.691	40.45
892.862	58.88
893.032	-47.62
893.203	89.6
893.374	7.68
893.545	81.41
893.716	-37.38
893.887	69.12
894.057	17.92
894.228	5.63
894.399	13.82
894.57	58.88
894.74	54.78
894.911	19.97
895.082	-74.24
895.253	-0.51
895.423	11.78
895.594	50.69
895.764	24.06
895.935	-31.23
896.106	-31.23
896.276	-18.94
896.447	83.45
896.617	-4.61
896.788	-14.85
896.958	38.4
897.129	-6.66
897.299	1.54
897.47	-8.7
897.64	34.3
897.81	15.87
897.981	22.02
898.151	-39.42
898.322	75.26
898.492	-25.09
898.662	73.21
898.832	-51.71
899.003	-37.38
899.173	34.3
899.343	-2.56
899.513	-78.33
