Data from USB4F104151__11__12-23-23-148.txt Node

Date: Fri Mar 14 12:23:23 EDT 2025
User: louis
Spectrometer: USB4F10415
Trigger mode: 4
Integration Time (sec): 3.500000E-2
Scans to average: 1
Electric dark correction enabled: true
Nonlinearity correction enabled: false
Boxcar width: 0
XAxis mode: Wavelengths
Number of Pixels in Spectrum: 3648
>>>>>Begin Spectral Data<<<<<
178.204	-141.48
178.424	-141.48
178.644	-141.48
178.864	-129.19
179.084	-125.1
179.304	-16.55
179.524	-12.46
179.744	-39.08
179.964	34.64
180.184	-22.7
180.404	28.5
180.624	-16.55
180.844	8.02
181.064	3.93
181.283	-4.27
181.503	-39.08
181.723	75.6
181.943	-77.99
182.163	10.07
182.383	-0.17
182.602	26.45
182.822	18.26
183.042	20.31
183.262	20.31
183.482	38.74
183.701	28.5
183.921	-8.36
184.141	46.93
184.361	38.74
184.58	57.17
184.8	22.36
185.02	14.17
185.239	44.88
185.459	30.55
185.679	32.6
185.898	-20.65
186.118	67.41
186.338	-65.71
186.557	94.04
186.777	-16.55
186.997	42.84
187.216	75.6
187.436	16.21
187.655	24.4
187.875	98.13
188.095	-24.75
188.314	57.17
188.534	81.75
188.753	53.08
188.973	55.12
189.192	26.45
189.412	135
189.631	-0.17
189.851	67.41
190.07	98.13
190.29	-0.17
190.509	-0.17
190.729	-59.56
190.948	59.22
191.168	96.08
191.387	85.84
191.607	-20.65
191.826	48.98
192.045	112.47
192.265	40.79
192.484	32.6
192.704	-10.41
192.923	3.93
193.142	165.71
193.362	-12.46
193.581	24.4
193.8	85.84
194.02	53.08
194.239	38.74
194.458	3.93
194.678	12.12
194.897	-45.23
195.116	30.55
195.335	55.12
195.555	42.84
195.774	-28.84
195.993	63.32
196.212	-98.47
196.432	-12.46
196.651	96.08
196.87	38.74
197.089	114.52
197.308	40.79
197.528	61.27
197.747	-39.08
197.966	-20.65
198.185	120.66
198.404	112.47
198.623	69.46
198.842	139.09
199.062	180.05
199.281	44.88
199.5	44.88
199.719	59.22
199.938	8.02
200.157	98.13
200.376	-49.32
200.595	44.88
200.814	122.71
201.033	22.36
201.252	42.84
201.471	14.17
201.69	87.89
201.909	18.26
202.128	26.45
202.347	20.31
202.566	44.88
202.785	-0.17
203.004	3.93
203.223	161.62
203.442	36.69
203.661	67.41
203.879	79.7
204.098	137.04
204.317	-39.08
204.536	-18.6
204.755	46.93
204.974	91.99
205.193	-41.13
205.411	178
205.63	14.17
205.849	40.79
206.068	38.74
206.287	55.12
206.505	40.79
206.724	44.88
206.943	16.21
207.162	79.7
207.381	79.7
207.599	3.93
207.818	-69.8
208.037	-20.65
208.255	-28.84
208.474	26.45
208.693	16.21
208.911	-12.46
209.13	51.03
209.349	51.03
209.567	42.84
209.786	42.84
210.005	61.27
210.223	65.36
210.442	-14.51
210.661	12.12
210.879	67.41
211.098	96.08
211.316	42.84
211.535	61.27
211.753	-8.36
211.972	42.84
212.191	-6.31
212.409	73.56
212.628	71.51
212.846	10.07
213.065	79.7
213.283	40.79
213.502	57.17
213.72	-18.6
213.938	-2.22
214.157	22.36
214.375	-4.27
214.594	-22.7
214.812	100.18
215.031	51.03
215.249	24.4
215.467	5.97
215.686	20.31
215.904	73.56
216.122	100.18
216.341	61.27
216.559	8.02
216.778	141.14
216.996	79.7
217.214	18.26
217.432	57.17
217.651	22.36
217.869	24.4
218.087	30.55
218.306	10.07
218.524	30.55
218.742	112.47
218.96	51.03
219.179	32.6
219.397	51.03
219.615	46.93
219.833	79.7
220.051	36.69
220.27	128.85
220.488	34.64
220.706	14.17
220.924	-53.42
221.142	1.88
221.36	-24.75
221.578	71.51
221.796	48.98
222.015	3.93
222.233	-0.17
222.451	30.55
222.669	-10.41
222.887	26.45
223.105	-47.27
223.323	87.89
223.541	-8.36
223.759	75.6
223.977	-10.41
224.195	87.89
224.413	8.02
224.631	59.22
224.849	73.56
225.067	141.14
225.285	-8.36
225.503	8.02
225.721	-18.6
225.939	100.18
226.157	-10.41
226.375	106.32
226.592	-20.65
226.81	53.08
227.028	79.7
227.246	85.84
227.464	85.84
227.682	22.36
227.9	3.93
228.117	40.79
228.335	28.5
228.553	55.12
228.771	46.93
228.989	98.13
229.206	98.13
229.424	104.28
229.642	32.6
229.86	40.79
230.077	106.32
230.295	10.07
230.513	89.94
230.731	53.08
230.948	-6.31
231.166	69.46
231.384	-30.89
231.601	-2.22
231.819	53.08
232.037	51.03
232.254	38.74
232.472	32.6
232.689	75.6
232.907	48.98
233.125	5.97
233.342	-51.37
233.56	1.88
233.777	-8.36
233.995	34.64
234.213	20.31
234.43	28.5
234.648	57.17
234.865	34.64
235.083	12.12
235.3	151.38
235.518	122.71
235.735	28.5
235.953	98.13
236.17	8.02
236.388	46.93
236.605	-4.27
236.822	48.98
237.04	-26.79
237.257	116.56
237.475	-6.31
237.692	38.74
237.909	57.17
238.127	-26.79
238.344	22.36
238.562	3.93
238.779	26.45
238.996	-30.89
239.214	36.69
239.431	-14.51
239.648	1.88
239.865	22.36
240.083	79.7
240.3	1.88
240.517	38.74
240.735	-8.36
240.952	120.66
241.169	48.98
241.386	59.22
241.603	77.65
241.821	108.37
242.038	77.65
242.255	24.4
242.472	-28.84
242.689	30.55
242.907	165.71
243.124	-63.66
243.341	61.27
243.558	-16.55
243.775	30.55
243.992	8.02
244.209	51.03
244.426	55.12
244.643	10.07
244.86	59.22
245.078	77.65
245.295	36.69
245.512	48.98
245.729	-34.99
245.946	16.21
246.163	32.6
246.38	48.98
246.597	53.08
246.814	108.37
247.031	-12.46
247.248	-12.46
247.464	67.41
247.681	34.64
247.898	69.46
248.115	69.46
248.332	32.6
248.549	94.04
248.766	67.41
248.983	81.75
249.2	32.6
249.417	77.65
249.633	-43.18
249.85	83.8
250.067	71.51
250.284	63.32
250.501	57.17
250.717	18.26
250.934	22.36
251.151	-20.65
251.368	48.98
251.585	63.32
251.801	55.12
252.018	65.36
252.235	96.08
252.451	-8.36
252.668	-71.85
252.885	-6.31
253.102	65.36
253.318	126.8
253.535	-34.99
253.752	42.84
253.968	100.18
254.185	53.08
254.401	94.04
254.618	71.51
254.835	5.97
255.051	71.51
255.268	75.6
255.484	89.94
255.701	3.93
255.917	-20.65
256.134	20.31
256.351	69.46
256.567	28.5
256.784	32.6
257	-51.37
257.217	8.02
257.433	63.32
257.65	96.08
257.866	65.36
258.082	34.64
258.299	18.26
258.515	12.12
258.732	87.89
258.948	16.21
259.165	14.17
259.381	24.4
259.597	53.08
259.814	75.6
260.03	51.03
260.246	8.02
260.463	20.31
260.679	83.8
260.895	98.13
261.112	106.32
261.328	34.64
261.544	79.7
261.761	81.75
261.977	-59.56
262.193	28.5
262.409	67.41
262.626	51.03
262.842	14.17
263.058	106.32
263.274	55.12
263.49	44.88
263.707	69.46
263.923	36.69
264.139	48.98
264.355	22.36
264.571	137.04
264.787	114.52
265.004	89.94
265.22	94.04
265.436	1.88
265.652	-51.37
265.868	98.13
266.084	26.45
266.3	65.36
266.516	-6.31
266.732	-14.51
266.948	38.74
267.164	57.17
267.38	75.6
267.596	10.07
267.812	63.32
268.028	63.32
268.244	34.64
268.46	51.03
268.676	69.46
268.892	85.84
269.108	87.89
269.324	-12.46
269.54	-49.32
269.756	38.74
269.972	34.64
270.188	-8.36
270.403	-12.46
270.619	32.6
270.835	-43.18
271.051	55.12
271.267	1.88
271.483	-20.65
271.698	73.56
271.914	81.75
272.13	51.03
272.346	-16.55
272.562	114.52
272.777	28.5
272.993	44.88
273.209	38.74
273.425	26.45
273.64	48.98
273.856	65.36
274.072	10.07
274.287	26.45
274.503	79.7
274.719	40.79
274.934	114.52
275.15	12.12
275.366	83.8
275.581	32.6
275.797	24.4
276.012	85.84
276.228	-4.27
276.444	-32.94
276.659	98.13
276.875	-30.89
277.09	14.17
277.306	16.21
277.521	40.79
277.737	51.03
277.952	40.79
278.168	16.21
278.383	28.5
278.599	53.08
278.814	51.03
279.03	102.23
279.245	73.56
279.461	53.08
279.676	8.02
279.892	-22.7
280.107	12.12
280.322	-10.41
280.538	96.08
280.753	14.17
280.969	69.46
281.184	32.6
281.399	57.17
281.615	-2.22
281.83	83.8
282.045	-32.94
282.26	8.02
282.476	94.04
282.691	71.51
282.906	36.69
283.122	126.8
283.337	83.8
283.552	48.98
283.767	32.6
283.983	28.5
284.198	-24.75
284.413	108.37
284.628	-34.99
284.843	34.64
285.058	30.55
285.274	83.8
285.489	-30.89
285.704	38.74
285.919	5.97
286.134	46.93
286.349	16.21
286.564	46.93
286.779	63.32
286.995	34.64
287.21	36.69
287.425	83.8
287.64	-0.17
287.855	22.36
288.07	-30.89
288.285	38.74
288.5	94.04
288.715	141.14
288.93	5.97
289.145	1.88
289.36	61.27
289.575	1.88
289.79	130.9
290.004	18.26
290.219	53.08
290.434	-4.27
290.649	34.64
290.864	1.88
291.079	30.55
291.294	89.94
291.509	26.45
291.724	-26.79
291.938	28.5
292.153	87.89
292.368	16.21
292.583	16.21
292.798	53.08
293.012	12.12
293.227	79.7
293.442	81.75
293.657	42.84
293.871	57.17
294.086	-18.6
294.301	22.36
294.516	81.75
294.73	10.07
294.945	18.26
295.16	10.07
295.374	55.12
295.589	18.26
295.804	36.69
296.018	-24.75
296.233	102.23
296.447	30.55
296.662	-4.27
296.877	91.99
297.091	94.04
297.306	20.31
297.52	18.26
297.735	40.79
297.949	18.26
298.164	34.64
298.378	48.98
298.593	1.88
298.807	-14.51
299.022	34.64
299.236	139.09
299.451	26.45
299.665	28.5
299.88	161.62
300.094	46.93
300.309	-0.17
300.523	44.88
300.737	44.88
300.952	96.08
301.166	36.69
301.381	26.45
301.595	-34.99
301.809	110.42
302.024	-6.31
302.238	75.6
302.452	34.64
302.667	38.74
302.881	132.95
303.095	96.08
303.309	3.93
303.524	-47.27
303.738	10.07
303.952	-20.65
304.166	42.84
304.381	-49.32
304.595	104.28
304.809	-12.46
305.023	42.84
305.237	-16.55
305.452	65.36
305.666	40.79
305.88	5.97
306.094	85.84
306.308	75.6
306.522	3.93
306.736	36.69
306.95	102.23
307.164	59.22
307.379	10.07
307.593	69.46
307.807	71.51
308.021	79.7
308.235	24.4
308.449	-39.08
308.663	34.64
308.877	63.32
309.091	42.84
309.305	149.33
309.519	-20.65
309.733	87.89
309.947	-41.13
310.161	-39.08
310.374	110.42
310.588	59.22
310.802	-0.17
311.016	40.79
311.23	71.51
311.444	8.02
311.658	-6.31
311.872	46.93
312.085	77.65
312.299	73.56
312.513	-0.17
312.727	48.98
312.941	34.64
313.154	32.6
313.368	-80.04
313.582	-14.51
313.796	102.23
314.009	44.88
314.223	65.36
314.437	26.45
314.651	24.4
314.864	-22.7
315.078	34.64
315.292	8.02
315.505	-20.65
315.719	26.45
315.933	59.22
316.146	81.75
316.36	-6.31
316.573	128.85
316.787	10.07
317.001	65.36
317.214	75.6
317.428	73.56
317.641	-14.51
317.855	73.56
318.068	22.36
318.282	38.74
318.495	16.21
318.709	32.6
318.922	69.46
319.136	59.22
319.349	77.65
319.563	8.02
319.776	59.22
319.99	3.93
320.203	46.93
320.417	34.64
320.63	77.65
320.843	28.5
321.057	18.26
321.27	155.47
321.483	55.12
321.697	116.56
321.91	69.46
322.124	106.32
322.337	67.41
322.55	32.6
322.763	8.02
322.977	89.94
323.19	-20.65
323.403	106.32
323.617	63.32
323.83	91.99
324.043	1.88
324.256	34.64
324.469	-28.84
324.683	38.74
324.896	32.6
325.109	102.23
325.322	-2.22
325.535	89.94
325.748	132.95
325.962	8.02
326.175	46.93
326.388	73.56
326.601	110.42
326.814	46.93
327.027	-2.22
327.24	98.13
327.453	-51.37
327.666	38.74
327.879	32.6
328.092	20.31
328.305	14.17
328.518	12.12
328.731	61.27
328.944	16.21
329.157	65.36
329.37	71.51
329.583	120.66
329.796	28.5
330.009	44.88
330.222	116.56
330.435	55.12
330.648	128.85
330.861	46.93
331.073	139.09
331.286	24.4
331.499	-49.32
331.712	-4.27
331.925	-39.08
332.138	48.98
332.35	96.08
332.563	75.6
332.776	8.02
332.989	-10.41
333.202	-4.27
333.414	20.31
333.627	-26.79
333.84	38.74
334.053	63.32
334.265	-20.65
334.478	112.47
334.691	-4.27
334.903	81.75
335.116	44.88
335.329	18.26
335.541	102.23
335.754	73.56
335.966	53.08
336.179	30.55
336.392	51.03
336.604	51.03
336.817	46.93
337.029	34.64
337.242	-6.31
337.454	40.79
337.667	1.88
337.88	36.69
338.092	10.07
338.305	32.6
338.517	8.02
338.729	22.36
338.942	110.42
339.154	44.88
339.367	-30.89
339.579	55.12
339.792	-43.18
340.004	106.32
340.217	65.36
340.429	51.03
340.641	51.03
340.854	-12.46
341.066	14.17
341.278	63.32
341.491	94.04
341.703	3.93
341.915	59.22
342.128	94.04
342.34	36.69
342.552	-28.84
342.764	75.6
342.977	77.65
343.189	10.07
343.401	79.7
343.613	-18.6
343.826	40.79
344.038	-43.18
344.25	28.5
344.462	22.36
344.674	116.56
344.886	20.31
345.099	36.69
345.311	46.93
345.523	-10.41
345.735	1.88
345.947	40.79
346.159	-8.36
346.371	16.21
346.583	10.07
346.795	81.75
347.007	116.56
347.219	147.28
347.431	16.21
347.643	59.22
347.855	-8.36
348.067	85.84
348.279	124.76
348.491	36.69
348.703	36.69
348.915	51.03
349.127	57.17
349.339	44.88
349.551	26.45
349.763	55.12
349.975	3.93
350.187	114.52
350.399	85.84
350.61	5.97
350.822	46.93
351.034	-22.7
351.246	40.79
351.458	75.6
351.669	77.65
351.881	53.08
352.093	65.36
352.305	8.02
352.517	-24.75
352.728	132.95
352.94	-8.36
353.152	46.93
353.363	30.55
353.575	28.5
353.787	110.42
353.999	79.7
354.21	65.36
354.422	79.7
354.633	-6.31
354.845	-8.36
355.057	46.93
355.268	24.4
355.48	91.99
355.692	30.55
355.903	-14.51
356.115	34.64
356.326	-26.79
356.538	32.6
356.749	79.7
356.961	116.56
357.172	75.6
357.384	61.27
357.595	81.75
357.807	-45.23
358.018	57.17
358.23	16.21
358.441	73.56
358.653	63.32
358.864	30.55
359.075	36.69
359.287	1.88
359.498	104.28
359.709	-4.27
359.921	-10.41
360.132	73.56
360.344	40.79
360.555	91.99
360.766	79.7
360.977	-24.75
361.189	67.41
361.4	12.12
361.611	77.65
361.823	112.47
362.034	71.51
362.245	-16.55
362.456	46.93
362.667	26.45
362.879	51.03
363.09	-18.6
363.301	53.08
363.512	73.56
363.723	40.79
363.935	63.32
364.146	40.79
364.357	14.17
364.568	77.65
364.779	-0.17
364.99	57.17
365.201	14.17
365.412	98.13
365.623	-4.27
365.834	79.7
366.045	59.22
366.256	44.88
366.467	30.55
366.678	87.89
366.889	-2.22
367.1	18.26
367.311	71.51
367.522	65.36
367.733	14.17
367.944	79.7
368.155	14.17
368.366	96.08
368.577	32.6
368.788	53.08
368.999	40.79
369.209	44.88
369.42	132.95
369.631	147.28
369.842	44.88
370.053	8.02
370.264	38.74
370.474	128.85
370.685	67.41
370.896	-4.27
371.107	75.6
371.317	75.6
371.528	14.17
371.739	153.43
371.95	128.85
372.16	79.7
372.371	67.41
372.582	8.02
372.792	116.56
373.003	67.41
373.214	122.71
373.424	59.22
373.635	42.84
373.846	147.28
374.056	73.56
374.267	10.07
374.477	44.88
374.688	44.88
374.898	-8.36
375.109	81.75
375.319	53.08
375.53	98.13
375.74	53.08
375.951	5.97
376.161	38.74
376.372	141.14
376.582	59.22
376.793	132.95
377.003	87.89
377.214	44.88
377.424	5.97
377.635	91.99
377.845	-59.56
378.055	141.14
378.266	46.93
378.476	65.36
378.686	65.36
378.897	26.45
379.107	104.28
379.317	87.89
379.528	28.5
379.738	96.08
379.948	40.79
380.158	106.32
380.369	83.8
380.579	65.36
380.789	32.6
380.999	48.98
381.21	51.03
381.42	159.57
381.63	71.51
381.84	96.08
382.05	67.41
382.261	65.36
382.471	83.8
382.681	-10.41
382.891	106.32
383.101	22.36
383.311	24.4
383.521	-6.31
383.731	112.47
383.941	94.04
384.151	55.12
384.361	83.8
384.571	8.02
384.781	59.22
384.991	98.13
385.201	94.04
385.411	5.97
385.621	91.99
385.831	-26.79
386.041	73.56
386.251	40.79
386.461	122.71
386.671	32.6
386.881	14.17
387.091	32.6
387.301	71.51
387.511	36.69
387.72	114.52
387.93	83.8
388.14	-67.75
388.35	61.27
388.56	67.41
388.769	57.17
388.979	143.19
389.189	67.41
389.399	44.88
389.609	87.89
389.818	83.8
390.028	46.93
390.238	36.69
390.447	77.65
390.657	65.36
390.867	73.56
391.076	12.12
391.286	5.97
391.496	106.32
391.705	106.32
391.915	30.55
392.125	51.03
392.334	1.88
392.544	48.98
392.753	102.23
392.963	57.17
393.172	63.32
393.382	71.51
393.591	157.52
393.801	24.4
394.01	147.28
394.22	30.55
394.429	108.37
394.639	48.98
394.848	40.79
395.058	128.85
395.267	40.79
395.477	48.98
395.686	28.5
395.895	137.04
396.105	124.76
396.314	10.07
396.524	100.18
396.733	61.27
396.942	61.27
397.152	63.32
397.361	85.84
397.57	55.12
397.78	167.76
397.989	83.8
398.198	61.27
398.407	28.5
398.617	100.18
398.826	98.13
399.035	108.37
399.244	114.52
399.453	130.9
399.663	63.32
399.872	65.36
400.081	100.18
400.29	108.37
400.499	34.64
400.708	116.56
400.917	114.52
401.127	108.37
401.336	-6.31
401.545	151.38
401.754	135
401.963	114.52
402.172	34.64
402.381	108.37
402.59	73.56
402.799	108.37
403.008	155.47
403.217	38.74
403.426	130.9
403.635	67.41
403.844	98.13
404.053	55.12
404.262	91.99
404.471	208.72
404.68	112.47
404.888	151.38
405.097	112.47
405.306	130.9
405.515	178
405.724	118.61
405.933	204.63
406.142	112.47
406.35	200.53
406.559	237.39
406.768	108.37
406.977	157.52
407.185	188.24
407.394	243.54
407.603	173.91
407.812	194.39
408.02	296.78
408.229	227.15
408.438	149.33
408.646	169.81
408.855	171.86
409.064	218.96
409.272	270.16
409.481	182.1
409.69	182.1
409.898	261.97
410.107	163.67
410.315	245.59
410.524	186.19
410.733	282.45
410.941	266.07
411.15	294.74
411.358	304.98
411.567	331.6
411.775	286.54
411.984	327.5
412.192	382.8
412.401	362.32
412.609	481.1
412.818	390.99
413.026	413.52
413.234	454.48
413.443	376.66
413.651	409.42
413.86	403.28
414.068	501.58
414.276	571.21
414.485	454.48
414.693	472.91
414.901	548.68
415.11	536.4
415.318	509.77
415.526	589.64
415.734	657.23
415.943	708.43
416.151	747.34
416.359	681.8
416.567	681.8
416.776	722.76
416.984	741.19
417.192	808.78
417.4	773.96
417.608	800.59
417.817	730.95
418.025	788.3
418.233	894.79
418.441	937.8
418.649	810.82
418.857	964.42
419.065	1095.49
419.273	956.23
419.481	1105.73
419.689	1150.79
419.897	1175.36
420.105	1156.93
420.313	1296.19
420.521	1283.91
420.729	1277.76
420.937	1353.54
421.145	1429.31
421.353	1544
421.561	1558.33
421.769	1627.96
421.977	1574.72
422.185	1705.79
422.393	1593.15
422.601	1777.47
422.809	1904.44
423.017	1951.54
423.224	1775.42
423.432	1918.78
423.64	1951.54
423.848	2230.07
424.056	2088.76
424.263	2121.52
424.471	2279.22
424.679	2176.82
424.887	2447.15
425.094	2598.7
425.302	2461.49
425.51	2709.29
425.718	2668.33
425.925	2703.15
426.133	2918.18
426.341	2946.86
426.548	3116.84
426.756	3047.21
426.964	3200.8
427.171	3260.2
427.379	3421.99
427.586	3503.9
427.794	3647.26
428.001	3694.36
428.209	3905.31
428.417	3872.54
428.624	4114.2
428.832	4134.68
429.039	4136.73
429.247	4149.01
429.454	4491.02
429.662	4726.54
429.869	4505.36
430.076	4734.73
430.284	4792.08
430.491	4886.28
430.699	5156.61
430.906	5181.19
431.114	5392.13
431.321	5545.73
431.528	5621.5
431.736	5928.7
431.943	6223.61
432.15	6033.15
432.358	6002.43
432.565	6362.87
432.772	6344.44
432.979	6715.12
433.187	6850.28
433.394	6850.28
433.601	7364.32
433.808	7345.89
434.016	7321.32
434.223	7503.59
434.43	8054.49
434.637	7950.04
434.844	8429.27
435.052	8582.87
435.259	8675.02
435.466	8644.31
435.673	8478.42
435.88	9084.62
436.087	9553.6
436.294	9746.11
436.501	9504.45
436.708	9604.8
436.915	9877.18
437.122	10481.33
437.329	10211
437.537	10706.61
437.743	10878.64
437.95	10757.81
438.157	11353.77
438.364	11628.2
438.571	11443.88
438.778	11787.94
438.985	12768.91
439.192	12134.04
439.399	12783.25
439.606	12414.62
439.813	13221.52
440.02	13805.19
440.227	13719.17
440.433	13674.12
440.64	14096
440.847	14141.05
441.054	14175.87
441.261	15177.33
441.467	14966.38
441.674	15304.3
441.881	15986.27
442.088	15578.73
442.294	15599.21
442.501	16023.14
442.708	16674.39
442.914	17133.14
443.121	17710.66
443.328	17266.25
443.534	18622.01
443.741	18138.69
443.948	17729.09
444.154	19119.67
444.361	19033.65
444.568	19287.6
444.774	19039.79
444.981	19508.78
445.187	20145.7
445.394	20803.1
445.6	20577.82
445.807	22474.24
446.013	21734.92
446.22	22162.95
446.426	23115.25
446.633	23012.85
446.839	24069.61
447.046	22818.3
447.252	24339.94
447.459	24319.46
447.665	24239.59
447.871	25445.84
448.078	26258.88
448.284	25095.64
448.491	25654.73
448.697	26940.86
448.903	27278.77
449.11	27327.92
449.316	26746.3
449.522	27301.3
449.728	28059.05
449.935	28540.32
450.141	28165.54
450.347	28945.82
450.553	28366.24
450.76	28351.91
450.966	29306.26
451.172	28777.89
451.378	29572.5
451.584	29158.81
451.791	30051.72
451.997	29767.06
452.203	30287.24
452.409	29902.22
452.615	29889.93
452.821	28888.48
453.027	28427.68
453.233	29947.28
453.44	29228.44
453.646	29369.75
453.852	29248.92
454.058	29898.13
454.264	28933.53
454.47	29330.84
454.676	28919.2
454.882	29879.69
455.088	27008.44
455.294	27438.51
455.5	28071.34
455.705	28046.76
455.911	27100.6
456.117	26365.38
456.323	26463.68
456.529	24684
456.735	25882.06
456.941	25337.3
457.147	24638.94
457.352	24169.96
457.558	23789.03
457.764	23610.86
457.97	23105.01
458.176	22728.19
458.381	23125.49
458.587	21607.95
458.793	21786.12
458.999	20737.56
459.204	22058.5
459.41	21440.01
459.616	19850.79
459.821	20114.98
460.027	19924.52
460.233	19641.9
460.438	18558.52
460.644	18550.33
460.85	17772.1
461.055	17813.06
461.261	17598.02
461.466	16277.08
461.672	15722.09
461.878	16899.67
462.083	15783.52
462.289	15447.66
462.494	15451.75
462.7	14773.88
462.905	14497.4
463.111	14798.45
463.316	15044.21
463.522	14450.3
463.727	14474.87
463.932	14390.91
464.138	14360.19
464.343	14380.67
464.549	13850.24
464.754	14589.56
464.959	14245.5
465.165	14055.04
465.37	13706.88
465.575	13180.56
465.781	13696.64
465.986	13782.66
466.191	13258.38
466.397	12998.29
466.602	12410.52
466.807	12752.53
467.012	12889.74
467.218	12973.71
467.423	12648.08
467.628	12856.98
467.833	13190.8
468.038	12854.93
468.244	12525.21
468.449	12803.73
468.654	12512.92
468.859	12643.99
469.064	12103.32
469.269	11839.14
469.474	11890.34
469.679	12019.36
469.885	12029.6
470.09	12072.61
470.295	12002.97
470.5	11552.42
470.705	11497.13
470.91	11523.75
471.115	11425.45
471.32	11488.93
471.525	11384.49
471.73	11220.65
471.935	10970.8
472.139	10925.74
472.344	10944.17
472.549	10581.68
472.754	10804.91
472.959	10421.94
473.164	10155.71
473.369	10208.95
473.574	10481.33
473.778	10397.37
473.983	10153.66
474.188	10325.69
474.393	9819.84
474.598	9914.05
474.802	9739.97
475.007	9598.66
475.212	9787.07
475.417	9217.74
475.621	9424.58
475.826	9350.85
476.031	9297.61
476.235	9174.73
476.44	9115.34
476.645	8863.44
476.849	8982.22
477.054	8926.93
477.259	8558.29
477.463	8607.44
477.668	8566.48
477.872	8621.78
478.077	8539.86
478.282	8271.58
478.486	8220.38
478.691	8175.32
478.895	8134.36
479.1	8232.66
479.304	8144.6
479.509	7847.65
479.713	8169.18
479.918	7954.14
480.122	7581.41
480.326	7739.1
480.531	7806.69
480.735	7646.94
480.94	7585.51
481.144	8021.72
481.348	7642.85
481.553	7796.45
481.757	7423.72
481.961	7481.06
482.166	7788.25
482.37	7395.04
482.574	7554.79
482.778	7390.95
482.983	7632.61
483.187	7501.54
483.391	7378.66
483.595	7556.83
483.8	7366.37
484.004	7550.69
484.208	7661.28
484.412	7522.02
484.616	7540.45
484.821	7499.49
485.025	7476.96
485.229	7522.02
485.433	7472.87
485.637	7317.22
485.841	7474.92
486.045	7503.59
486.249	7519.97
486.453	7476.96
486.657	7454.44
486.861	7630.56
487.065	7331.56
487.269	7409.38
487.473	7306.98
487.677	7616.23
487.881	7499.49
488.085	7464.68
488.289	7579.36
488.493	7544.55
488.697	7526.11
488.901	7724.77
489.105	7522.02
489.309	7513.83
489.512	7425.76
489.716	7558.88
489.92	7745.25
490.124	7595.75
490.328	7612.13
490.531	7696.1
490.735	7753.44
490.939	7964.38
491.143	7718.62
491.346	7812.83
491.55	7847.65
491.754	7712.48
491.958	7907.04
492.161	7868.13
492.365	7861.98
492.569	7845.6
492.772	7849.69
492.976	7935.71
493.18	8210.14
493.383	8177.37
493.587	8099.55
493.79	8302.29
493.994	8167.13
494.197	8285.91
494.401	8490.71
494.605	8519.38
494.808	8503
495.012	8654.55
495.215	8527.57
495.419	8699.6
495.622	8468.18
495.825	8771.28
496.029	8537.81
496.232	9098.95
496.436	8761.04
496.639	9058
496.843	9133.77
497.046	9250.5
497.249	9311.94
497.453	9375.43
497.656	9553.6
497.859	9498.31
498.063	9432.77
498.266	9780.93
498.469	9887.42
498.673	9893.57
498.876	9969.34
499.079	10227.39
499.282	9903.81
499.485	10448.57
499.689	10401.46
499.892	10548.92
500.095	10858.16
500.298	11065
500.501	10892.98
500.705	11030.19
500.908	11353.77
501.111	11458.21
501.314	11515.56
501.517	11642.53
501.72	11658.92
501.923	11632.29
502.126	12056.22
502.329	12342.94
502.532	12289.69
502.735	12435.1
502.938	12381.85
503.141	12732.05
503.344	13006.48
503.547	12842.64
503.75	13139.6
503.953	13278.86
504.156	13549.19
504.359	13373.07
504.562	13461.13
504.765	14192.25
504.968	14194.3
505.17	14329.47
505.373	14276.22
505.576	14712.44
505.779	14667.38
505.982	14919.28
506.185	15074.93
506.387	15060.59
506.59	15277.68
506.793	15539.82
506.996	15674.98
507.198	16014.94
507.401	15789.67
507.604	16281.18
507.807	16182.88
508.009	16318.04
508.212	16729.69
508.415	17043.03
508.617	16690.77
508.82	17245.77
509.022	17083.98
509.225	17815.11
509.428	17962.56
509.63	17882.69
509.833	17925.7
510.035	18404.92
510.238	18515.51
510.44	18929.2
510.643	19115.57
510.845	19033.65
511.048	19090.99
511.25	19521.07
511.453	19723.82
511.655	20014.63
511.858	20006.44
512.06	20454.94
512.262	20669.98
512.465	20610.59
512.667	21173.78
512.87	21093.91
513.072	21405.2
513.274	21761.55
513.477	22134.28
513.679	22148.61
513.881	22484.48
514.084	22570.49
514.286	22758.91
514.488	22869.5
514.69	23479.79
514.893	23721.45
515.095	23709.16
515.297	23813.61
515.499	24159.72
515.701	24610.27
515.904	24704.48
516.106	24790.49
516.308	25116.12
516.51	25554.38
516.712	25576.91
516.914	26146.25
517.116	26324.42
517.318	26488.26
517.52	26496.45
517.722	26924.47
517.925	27180.47
518.127	27624.88
518.329	27737.52
518.531	27571.63
518.733	28224.93
518.935	28698.02
519.136	28626.34
519.338	29128.09
519.54	29054.36
519.742	29515.15
519.944	29769.1
520.146	30166.41
520.348	30561.67
520.55	30526.85
520.752	30590.34
520.954	31016.32
521.155	30719.36
521.357	31470.97
521.559	32073.07
521.761	32398.69
521.963	32441.7
522.164	32628.07
522.366	32765.28
522.568	32992.61
522.77	33226.07
522.971	33774.93
523.173	33701.2
523.375	34272.59
523.576	34045.26
523.778	34342.22
523.98	34723.14
524.181	34878.79
524.383	34850.11
524.584	35523.9
524.786	35226.94
524.988	35501.37
525.189	35835.19
525.391	36281.64
525.592	36535.59
525.794	36816.16
525.995	36392.23
526.197	36646.18
526.398	36601.13
526.6	37201.18
526.801	37264.67
527.003	37176.61
527.204	37520.66
527.406	38341.9
527.607	38149.39
527.808	38354.19
528.01	38214.93
528.211	38044.94
528.412	38972.67
528.614	38880.52
528.815	38927.62
529.016	39716.09
529.218	38968.58
529.419	38952.19
529.62	39562.49
529.822	39181.57
530.023	39775.48
530.224	39329.02
530.425	39443.71
530.626	39437.56
530.828	39716.09
531.029	40289.52
531.23	40213.74
531.431	39771.38
531.632	40252.66
531.833	40162.54
532.035	39959.8
532.236	40690.92
532.437	40471.79
532.638	40396.01
532.839	40473.84
533.04	40766.7
533.241	40385.77
533.442	41100.51
533.643	40824.04
533.844	40948.96
534.045	40723.69
534.246	40580.33
534.447	40744.17
534.648	41151.71
534.849	40920.29
535.05	40789.22
535.251	40979.68
535.451	40971.49
535.652	41434.33
535.853	41053.41
536.054	40811.75
536.255	41483.48
536.456	40996.07
536.657	41438.43
536.857	41153.76
537.058	41286.88
537.259	41426.14
537.46	41426.14
537.66	41329.89
537.861	41270.5
538.062	40877.29
538.263	41475.29
538.463	41127.14
538.664	41059.55
538.865	41217.25
539.065	41577.69
539.266	40758.5
539.466	41524.44
539.667	40695.02
539.868	41506.01
540.068	40965.35
540.269	41329.89
540.469	41561.31
540.67	41176.29
540.87	41157.86
541.071	41172.19
541.271	40916.2
541.472	41467.1
541.672	40991.97
541.873	40940.77
542.073	40897.77
542.274	41514.2
542.474	41129.19
542.675	40828.13
542.875	41442.52
543.075	41010.4
543.276	40801.51
543.476	41393.37
543.676	40840.42
543.877	41157.86
544.077	41145.57
544.277	41276.64
544.478	41047.27
544.678	41100.51
544.878	40850.66
545.078	41127.14
545.279	40672.49
545.479	40887.53
545.679	40830.18
545.879	40905.96
546.079	41114.85
546.28	40715.5
546.48	40482.03
546.68	41198.82
546.88	41069.79
547.08	41053.41
547.28	40957.16
547.48	40692.97
547.68	41006.31
547.88	40250.61
548.081	41075.94
548.281	40899.81
548.481	40862.95
548.681	41309.41
548.881	40592.62
549.081	41086.18
549.28	40895.72
549.48	40959.2
549.68	41063.65
549.88	41211.1
550.08	40619.24
550.28	40908.01
550.48	40899.81
550.68	41168.1
550.88	40733.93
551.08	40791.27
551.279	40977.64
551.479	40520.94
551.679	40785.13
551.879	40256.75
552.079	40664.3
552.278	40778.98
552.478	41061.6
552.678	40518.89
552.878	40762.6
553.077	40490.22
553.277	40633.58
553.477	41143.52
553.676	40695.02
553.876	40690.92
554.076	40439.02
554.275	40160.5
554.475	40244.46
554.674	40234.22
554.874	40289.52
555.074	40381.68
555.273	40479.98
555.473	40381.68
555.672	39986.42
555.872	40197.36
556.071	40492.27
556.271	39988.47
556.47	39828.73
556.67	39546.11
556.869	39879.92
557.068	39763.19
557.268	39492.86
557.467	39478.52
557.667	39189.76
557.866	39793.91
558.065	39644.41
558.265	39363.84
558.464	39075.07
558.663	39630.07
558.863	39300.35
559.062	39861.49
559.261	39054.59
559.461	39818.49
559.66	38554.89
559.859	39177.47
560.058	38894.85
560.258	38784.26
560.457	38821.12
560.656	39138.56
560.855	38694.15
561.054	39171.33
561.253	38608.14
561.453	38458.63
561.652	38520.07
561.851	38505.74
562.05	38135.06
562.249	37979.41
562.448	38423.82
562.647	37946.64
562.846	37917.97
563.045	38020.37
563.244	37621.02
563.443	37811.48
563.642	37487.9
563.841	37448.99
564.04	37412.12
564.239	37436.7
564.438	37246.24
564.637	37272.86
564.836	37250.33
565.035	36721.96
565.234	36918.56
565.432	36633.89
565.631	36799.78
565.83	36816.16
566.029	36488.49
566.228	36203.82
566.427	36420.91
566.625	36115.76
566.824	35921.2
567.023	36515.11
567.222	35525.94
567.42	36291.88
567.619	36189.49
567.818	35616.05
568.016	35347.77
568.215	35908.91
568.414	35116.35
568.612	35296.57
568.811	35022.14
569.01	35013.95
569.208	34788.67
569.407	35411.26
569.605	34495.81
569.804	34811.2
570.002	34557.25
570.201	34782.53
570.4	33946.96
570.598	34057.55
570.797	34078.03
570.995	34184.52
571.193	33656.15
571.392	34088.27
571.59	33496.41
571.789	33176.92
571.987	33443.16
572.186	33389.91
572.384	32843.1
572.582	33275.23
572.781	33031.52
572.979	32988.51
573.177	32894.3
573.376	33025.37
573.574	32652.64
573.772	32587.11
573.971	32505.19
574.169	32032.11
574.367	31946.09
574.565	32062.83
574.763	31917.42
574.962	32333.16
575.16	31999.34
575.358	31518.07
575.556	31102.33
575.754	31849.84
575.952	31526.26
576.151	31528.31
576.349	31143.29
576.547	31186.3
576.745	31262.07
576.943	31380.85
577.141	30969.21
577.339	30821.76
577.537	30619.01
577.735	30739.84
577.933	30522.76
578.131	30528.9
578.329	30178.7
578.527	29918.6
578.725	30186.89
578.923	30297.48
579.121	30057.87
579.319	29869.45
579.516	29740.43
579.714	29607.31
579.912	29732.24
580.11	29584.79
580.308	29470.1
580.506	29392.28
580.704	29167
580.901	29470.1
581.099	29253.01
581.297	28904.86
581.495	28925.34
581.692	28759.45
581.89	28722.59
582.088	28648.86
582.285	28777.89
582.483	28794.27
582.681	28689.82
582.878	28231.08
583.076	28216.74
583.274	28421.54
583.471	27786.67
583.669	28116.39
583.866	27579.82
584.064	27706.8
584.262	27565.49
584.459	27938.22
584.657	27516.34
584.854	27882.92
585.052	27340.21
585.249	27631.02
585.447	27846.06
585.644	26938.81
585.841	27252.15
586.039	27250.1
586.236	27014.59
586.434	26809.79
586.631	26734.01
586.828	26693.05
587.026	26844.6
587.223	26568.13
587.42	26693.05
587.618	26527.17
587.815	26207.69
588.012	26105.29
588.21	26033.61
588.407	26322.37
588.604	25910.73
588.801	25937.35
588.999	25794
589.196	25816.52
589.393	25787.85
589.59	25566.67
589.787	25581.01
589.984	25472.46
590.182	25099.73
590.379	25361.87
590.576	25013.72
590.773	25187.8
590.97	25198.04
591.167	24927.7
591.364	24829.4
591.561	24845.79
591.758	24446.43
591.955	24681.95
592.152	24739.29
592.349	24419.81
592.546	24649.18
592.743	24514.02
592.94	24133.09
593.137	24337.89
593.334	24274.4
593.531	24215.01
593.727	23991.78
593.924	24227.3
594.121	23829.99
594.318	24167.91
594.515	23442.93
594.712	24178.15
594.908	23768.55
595.105	23602.67
595.302	23195.12
595.499	23363.06
595.696	23070.2
595.892	23121.4
596.089	23111.16
596.286	23354.86
596.482	22910.46
596.679	22984.18
596.876	22894.07
597.072	22771.19
597.269	22492.67
597.466	22511.1
597.662	22306.3
597.859	22478.33
598.055	22584.83
598.252	22394.37
598.448	22298.11
598.645	22304.26
598.841	22068.74
599.038	22152.71
599.234	22035.97
599.431	21960.2
599.627	21642.76
599.824	22003.21
600.02	21657.1
600.217	21820.94
600.413	21685.77
600.609	21515.79
600.806	21446.16
601.002	21591.56
601.198	21382.67
601.395	21163.54
601.591	21141.01
601.787	21136.91
601.984	20925.97
602.18	21194.26
602.376	21018.13
602.572	20956.69
602.769	20835.86
602.965	20577.82
603.161	20897.3
603.357	20799
603.553	20690.46
603.75	20502.04
603.946	20274.72
604.142	20389.41
604.338	20274.72
604.534	20440.61
604.73	20297.25
604.926	20092.45
605.122	19914.28
605.318	20143.65
605.514	19854.89
605.71	19879.46
605.906	19703.34
606.102	19670.57
606.298	19689
606.494	19547.69
606.69	19664.43
606.886	19797.54
607.082	19267.12
607.278	19273.26
607.474	19129.91
607.67	19504.68
607.866	19066.42
608.062	19410.48
608.257	19285.55
608.453	19162.67
608.649	18839.09
608.845	18830.9
609.041	18789.94
609.236	19052.08
609.432	18943.54
609.628	18800.18
609.824	18964.02
610.019	18771.51
610.215	18576.95
610.411	18622.01
610.606	18652.73
610.802	18556.47
610.998	18290.24
611.193	18533.95
611.389	18253.37
611.584	18589.24
611.78	18181.7
611.976	18275.9
612.171	18458.17
612.367	18427.45
612.562	18062.91
612.758	17813.06
612.953	17952.32
613.149	18095.68
613.344	17925.7
613.539	18277.95
613.735	17952.32
613.93	18130.5
614.126	17776.2
614.321	18245.18
614.517	17825.35
614.712	17704.52
614.907	17454.67
615.103	17780.29
615.298	17432.14
615.493	17698.38
615.688	17366.6
615.884	17968.71
616.079	17174.1
616.274	17573.45
616.47	17372.75
616.665	17227.34
616.86	17258.06
617.055	17452.62
617.25	16993.87
617.445	17360.46
617.641	17075.79
617.836	17196.62
618.031	16834.13
618.226	16959.06
618.421	16547.42
618.616	17301.07
618.811	16698.97
619.006	16899.67
619.201	16559.7
619.396	16445.02
619.591	16469.59
619.786	16516.7
619.981	16303.71
620.176	16328.28
620.371	16221.79
620.566	16336.48
620.761	15945.31
620.956	16139.87
621.151	15939.17
621.346	15851.11
621.541	15709.8
621.735	15828.58
621.93	15289.96
622.125	15658.6
622.32	15214.19
622.515	15523.43
622.709	15091.31
622.904	15128.17
623.099	15138.41
623.294	15355.5
623.488	14851.7
623.683	14958.19
623.878	14843.51
624.072	14667.38
624.267	14478.97
624.462	14589.56
624.656	14392.95
624.851	14628.47
625.046	14370.43
625.24	14397.05
625.435	14208.64
625.629	14208.64
625.824	14091.9
626.018	13837.95
626.213	13792.9
626.407	13778.56
626.602	13432.46
626.796	13579.91
626.991	13622.92
627.185	13647.49
627.38	13604.49
627.574	13598.34
627.768	13497.99
627.963	13207.18
628.157	13201.04
628.352	13309.58
628.546	12895.89
628.74	13024.91
628.935	12795.54
629.129	12859.03
629.323	12818.07
629.517	12582.55
629.712	12734.1
629.906	12672.66
630.1	12590.74
630.294	12431
630.489	12349.08
630.683	12281.5
630.877	12246.68
631.071	12037.79
631.265	12265.11
631.459	12060.32
631.653	11667.11
631.848	11972.25
632.042	11679.4
632.236	11863.71
632.43	11587.24
632.624	11781.79
632.818	11706.02
633.012	11464.36
633.206	11472.55
633.4	11482.79
633.594	11388.58
633.788	11206.31
633.982	11378.34
634.176	11187.88
634.369	11081.39
634.563	10978.99
634.757	11095.72
634.951	10925.74
635.145	10768.05
635.339	10942.13
635.533	10632.88
635.726	10839.73
635.92	10665.65
636.114	10655.41
636.308	10481.33
636.501	10467
636.695	10368.7
636.889	10364.6
637.083	10411.7
637.276	10229.43
637.47	10274.49
637.664	10106.56
637.857	10208.95
638.051	10094.27
638.244	10159.8
638.438	10053.31
638.632	9909.95
638.825	9707.2
639.019	9739.97
639.212	9586.37
639.406	9682.63
639.599	9531.08
639.793	9678.53
639.986	9373.38
640.18	9567.94
640.373	9217.74
640.567	9342.66
640.76	9324.23
640.954	9060.04
641.147	9176.78
641.34	9131.72
641.534	9090.76
641.727	8945.36
641.92	9062.09
642.114	8908.49
642.307	8871.63
642.5	8949.45
642.694	8804.05
642.887	8785.62
643.08	8806.09
643.273	8797.9
643.467	8746.7
643.66	8642.26
643.853	8515.28
644.046	8290.01
644.239	8435.41
644.432	8595.15
644.626	8324.82
644.819	8191.7
645.012	8242.9
645.205	8044.25
645.398	8031.96
645.591	7954.14
645.784	8072.92
645.977	7696.1
646.17	7956.19
646.363	7700.19
646.556	7706.34
646.749	7843.55
646.942	7737.06
647.135	7829.21
647.328	7669.47
647.521	7708.38
647.714	7493.35
647.907	7534.31
648.099	7472.87
648.292	7481.06
648.485	7419.62
648.678	7300.84
648.871	7368.42
649.064	7235.3
649.256	7194.34
649.449	7243.49
649.642	6924.01
649.835	7114.47
650.027	7114.47
650.22	7157.48
650.413	7141.1
650.605	6964.97
650.798	6952.68
650.991	7061.23
651.183	6915.82
651.376	6749.93
651.568	6860.52
651.761	6739.69
651.954	6825.71
652.146	6647.54
652.339	6725.36
652.531	6743.79
652.724	6794.99
652.916	6459.12
653.109	6631.15
653.301	6405.88
653.494	6547.19
653.686	6409.97
653.879	6375.16
654.071	6405.88
654.263	6491.89
654.456	6371.06
654.648	6422.26
654.84	6156.02
655.033	6131.45
655.225	6254.33
655.417	6092.54
655.61	6270.71
655.802	6227.7
655.994	6022.91
656.186	6061.82
656.379	6055.67
656.571	5983.99
656.763	5924.6
656.955	5904.12
657.148	5986.04
657.34	5969.66
657.532	5793.53
657.724	5822.2
657.916	5832.44
658.108	5641.98
658.3	5689.09
658.492	5609.22
658.684	5615.36
658.876	5580.54
659.068	5533.44
659.26	5480.19
659.452	5508.87
659.644	5519.11
659.836	5361.41
660.028	5578.5
660.22	5594.88
660.412	5428.99
660.604	5252.87
660.796	5340.93
660.988	5445.38
661.18	5248.77
661.372	5181.19
661.563	5189.38
661.755	5185.29
661.947	5213.96
662.139	5078.79
662.331	5173
662.522	5170.95
662.714	5203.72
662.906	5179.14
663.097	5048.07
663.289	5005.06
663.481	5005.06
663.673	4962.06
663.864	4957.96
664.056	5019.4
664.247	4777.74
664.439	4837.13
664.631	4837.13
664.822	4843.28
665.014	4849.42
665.205	4867.85
665.397	4779.79
665.588	4704.01
665.78	4808.46
665.971	4663.05
666.163	4640.53
666.354	4738.83
666.546	4546.32
666.737	4562.7
666.929	4720.4
667.12	4796.17
667.311	4566.8
667.503	4523.79
667.694	4710.16
667.885	4482.83
668.077	4720.4
668.268	4562.7
668.459	4441.87
668.651	4423.44
668.842	4509.46
669.033	4390.67
669.224	4431.63
669.416	4452.11
669.607	4478.74
669.798	4458.26
669.989	4550.42
670.18	4333.33
670.371	4353.81
670.563	4345.62
670.754	4458.26
670.945	4304.66
671.136	4343.57
671.327	4366.1
671.518	4216.6
671.709	4198.17
671.9	4267.8
672.091	4316.95
672.282	4343.57
672.473	4257.56
672.664	4222.74
672.855	4155.16
673.046	4370.19
673.237	4337.43
673.428	4228.88
673.619	4222.74
673.809	4259.6
674	4142.87
674.191	4093.72
674.382	4124.44
674.573	4157.21
674.764	4085.53
674.954	4325.14
675.145	3974.94
675.336	4003.61
675.527	4194.07
675.717	4075.29
675.908	4196.12
676.099	4159.25
676.289	4079.38
676.48	4146.97
676.671	4026.14
676.861	4214.55
677.052	4177.69
677.243	3993.37
677.433	4134.68
677.624	4163.35
677.814	4169.49
678.005	4077.34
678.195	4165.4
678.386	4106.01
678.576	4110.1
678.767	4169.49
678.957	4046.62
679.148	4189.97
679.338	4114.2
679.529	4185.88
679.719	4153.11
679.909	4138.77
680.1	4032.28
680.29	4192.02
680.481	4243.22
680.671	4089.62
680.861	4214.55
681.052	4067.1
681.242	3995.42
681.432	4255.51
681.622	4058.9
681.813	4103.96
682.003	3997.46
682.193	4065.05
682.383	4089.62
682.573	3987.22
682.764	4058.9
682.954	4101.91
683.144	4028.18
683.334	4126.49
683.524	4007.7
683.714	4028.18
683.904	4112.15
684.094	4110.1
684.284	4060.95
684.474	4052.76
684.664	4095.77
684.854	4038.42
685.044	3952.41
685.234	4013.85
685.424	4007.7
685.614	4005.66
685.804	3921.69
685.994	3995.42
686.184	3997.46
686.374	3995.42
686.564	3989.27
686.753	3907.35
686.943	3862.3
687.133	4034.33
687.323	3880.73
687.513	3917.59
687.702	3870.49
687.892	3807
688.082	3911.45
688.272	3927.83
688.461	3833.63
688.651	3886.87
688.841	3698.46
689.03	3813.15
689.22	3688.22
689.41	3706.65
689.599	3809.05
689.789	3792.67
689.979	3772.19
690.168	3733.28
690.358	3557.15
690.547	3591.97
690.737	3747.61
690.926	3561.25
691.116	3614.49
691.305	3602.21
691.495	3561.25
691.684	3430.18
691.874	3555.1
692.063	3479.33
692.252	3639.07
692.442	3512.1
692.631	3397.41
692.82	3385.12
693.01	3342.11
693.199	3520.29
693.388	3393.31
693.578	3344.16
693.767	3393.31
693.956	3350.31
694.146	3391.27
694.335	3303.2
694.524	3338.02
694.713	3374.88
694.902	3393.31
695.092	3358.5
695.281	3249.96
695.47	3227.43
695.659	3313.44
695.848	3198.76
696.037	3407.65
696.226	3213.09
696.415	3323.68
696.604	3260.2
696.793	3204.9
696.982	3266.34
697.171	3129.13
697.36	3217.19
697.549	3241.76
697.738	3313.44
697.927	3190.56
698.116	3217.19
698.305	3159.85
698.494	3168.04
698.683	3196.71
698.872	3159.85
699.061	3381.03
699.25	3209
699.438	3188.52
699.627	3159.85
699.816	3221.28
700.005	3147.56
700.193	3163.94
700.382	3243.81
700.571	3211.04
700.76	3254.05
700.948	3403.55
701.137	3249.96
701.326	3122.98
701.514	3084.07
701.703	3303.2
701.892	3227.43
702.08	3305.25
702.269	3270.44
702.457	3153.7
702.646	3252
702.834	3237.67
703.023	3245.86
703.212	3264.29
703.4	3297.06
703.589	3274.53
703.777	3194.66
703.965	3338.02
704.154	3223.33
704.342	3227.43
704.531	3204.9
704.719	3256.1
704.907	3247.91
705.096	3157.8
705.284	3305.25
705.472	3131.17
705.661	3155.75
705.849	3266.34
706.037	3327.78
706.226	3270.44
706.414	3256.1
706.602	3303.2
706.79	3290.92
706.979	3239.72
707.167	3329.83
707.355	3374.88
707.543	3258.15
707.731	3333.92
707.919	3213.09
708.107	3260.2
708.296	3338.02
708.484	3223.33
708.672	3301.15
708.86	3155.75
709.048	3321.63
709.236	3288.87
709.424	3165.99
709.612	3327.78
709.8	3186.47
709.988	3219.24
710.176	3219.24
710.364	3395.36
710.551	3282.72
710.739	3458.85
710.927	3385.12
711.115	3397.41
711.303	3335.97
711.491	3430.18
711.679	3292.96
711.866	3362.59
712.054	3323.68
712.242	3344.16
712.43	3288.87
712.617	3481.38
712.805	3426.08
712.993	3376.93
713.181	3360.55
713.368	3405.6
713.556	3491.62
713.744	3354.4
713.931	3448.61
714.119	3301.15
714.306	3510.05
714.494	3450.66
714.682	3411.75
714.869	3331.87
715.057	3426.08
715.244	3329.83
715.432	3551.01
715.619	3376.93
715.807	3333.92
715.994	3323.68
716.182	3411.75
716.369	3598.11
716.556	3471.14
716.744	3362.59
716.931	3458.85
717.119	3407.65
717.306	3518.24
717.493	3503.9
717.681	3487.52
717.868	3407.65
718.055	3479.33
718.242	3481.38
718.43	3524.38
718.617	3536.67
718.804	3606.3
718.991	3577.63
719.179	3561.25
719.366	3569.44
719.553	3477.28
719.74	3598.11
719.927	3561.25
720.114	3485.47
720.301	3553.06
720.488	3501.86
720.676	3567.39
720.863	3542.82
721.05	3522.34
721.237	3626.78
721.424	3641.12
721.611	3655.45
721.798	3624.73
721.985	3587.87
722.172	3493.66
722.358	3460.9
722.545	3655.45
722.732	3645.21
722.919	3745.56
723.106	3702.56
723.293	3677.98
723.48	3602.21
723.667	3680.03
723.853	3653.41
724.04	3649.31
724.227	3764
724.414	3755.8
724.6	3540.77
724.787	3632.93
724.974	3784.48
725.161	3655.45
725.347	3725.08
725.534	3768.09
725.72	3852.06
725.907	3688.22
726.094	3772.19
726.28	3821.34
726.467	3716.89
726.653	3794.72
726.84	3813.15
727.027	3766.04
727.213	3622.69
727.4	3807
727.586	3833.63
727.773	3940.12
727.959	3778.33
728.145	3704.6
728.332	3850.01
728.518	3770.14
728.705	3933.98
728.891	3792.67
729.077	3841.82
729.264	3899.16
729.45	3723.04
729.636	3983.13
729.823	3809.05
730.009	3915.55
730.195	3913.5
730.382	4013.85
730.568	3802.91
730.754	3882.78
730.94	3807
731.126	3925.79
731.313	3847.96
731.499	3886.87
731.685	3966.74
731.871	3823.39
732.057	4024.09
732.243	3954.46
732.429	3907.35
732.615	4005.66
732.801	3876.63
732.987	3954.46
733.173	4011.8
733.359	3942.17
733.545	3886.87
733.731	3915.55
733.917	4065.05
734.103	3895.07
734.289	3874.59
734.475	4097.81
734.661	4077.34
734.847	3811.1
735.033	3933.98
735.219	3903.26
735.404	3979.03
735.59	3864.35
735.776	3790.62
735.962	3962.65
736.148	3958.55
736.333	3995.42
736.519	3981.08
736.705	4054.81
736.89	3911.45
737.076	3974.94
737.262	3817.24
737.447	4032.28
737.633	3886.87
737.819	3979.03
738.004	3880.73
738.19	3915.55
738.375	3917.59
738.561	3987.22
738.747	4040.47
738.932	3837.72
739.118	3958.55
739.303	4087.57
739.489	4003.61
739.674	3761.95
739.859	3864.35
740.045	3878.68
740.23	3989.27
740.416	3864.35
740.601	3823.39
740.786	3956.5
740.972	3749.66
741.157	3825.43
741.342	3702.56
741.528	3866.39
741.713	3835.67
741.898	3807
742.084	3782.43
742.269	3847.96
742.454	3878.68
742.639	3868.44
742.824	3831.58
743.01	3780.38
743.195	3850.01
743.38	3637.02
743.565	3723.04
743.75	3598.11
743.935	3727.13
744.12	3761.95
744.305	3602.21
744.49	3710.75
744.675	3557.15
744.86	3538.72
745.045	3594.01
745.23	3677.98
745.415	3565.34
745.6	3632.93
745.785	3565.34
745.97	3632.93
746.155	3510.05
746.34	3536.67
746.525	3446.56
746.71	3477.28
746.895	3575.58
747.079	3444.51
747.264	3405.6
747.449	3352.35
747.634	3540.77
747.819	3450.66
748.003	3221.28
748.188	3239.72
748.373	3428.13
748.557	3434.27
748.742	3247.91
748.927	3274.53
749.111	3428.13
749.296	3180.32
749.481	3315.49
749.665	3192.61
749.85	3108.65
750.034	3235.62
750.219	3165.99
750.404	3122.98
750.588	3133.22
750.773	3098.41
750.957	3036.97
751.141	3022.63
751.326	2957.1
751.51	3016.49
751.695	3063.59
751.879	2981.67
752.064	2928.42
752.248	2948.9
752.432	2877.23
752.617	2996.01
752.801	2965.29
752.985	2920.23
753.17	2899.75
753.354	2815.79
753.538	2897.71
753.722	2850.6
753.907	2776.87
754.091	2854.7
754.275	2645.8
754.459	2758.44
754.643	2676.52
754.828	2742.06
755.012	2623.28
755.196	2574.13
755.38	2541.36
755.564	2537.26
755.748	2443.06
755.932	2641.71
756.116	2438.96
756.3	2561.84
756.484	2481.97
756.668	2443.06
756.852	2463.54
757.036	2418.48
757.22	2305.84
757.404	2406.19
757.588	2342.71
757.772	2418.48
757.956	2410.29
758.14	2498.35
758.323	2354.99
758.507	2369.33
758.691	2322.23
758.875	2275.12
759.059	2320.18
759.242	2246.45
759.426	2238.26
759.61	2219.83
759.794	2127.67
759.977	2289.46
760.161	2271.03
760.345	2205.49
760.528	2189.11
760.712	2135.86
760.895	2049.85
761.079	2185.01
761.263	2119.48
761.446	2074.42
761.63	2068.28
761.813	2055.99
761.997	2084.66
762.18	2107.19
762.364	2015.03
762.547	2015.03
762.731	2041.65
762.914	1965.88
763.098	1840.95
763.281	1953.59
763.464	2031.41
763.648	1902.39
763.831	1871.67
764.015	1974.07
764.198	1978.17
764.381	1978.17
764.564	1924.92
764.748	2000.69
764.931	1933.11
765.114	1853.24
765.297	1886.01
765.481	1820.47
765.664	1875.77
765.847	1855.29
766.03	1847.1
766.213	1894.2
766.397	1814.33
766.58	1816.38
766.763	1746.75
766.946	1771.32
767.129	1843
767.312	1746.75
767.495	1779.51
767.678	1756.99
767.861	1734.46
768.044	1660.73
768.227	1711.93
768.41	1830.71
768.593	1822.52
768.776	1695.55
768.959	1656.64
769.142	1771.32
769.324	1732.41
769.507	1705.79
769.69	1617.72
769.873	1578.81
770.056	1742.65
770.239	1726.27
770.421	1644.35
770.604	1652.54
770.787	1640.25
770.97	1670.97
771.152	1701.69
771.335	1697.6
771.518	1574.72
771.7	1632.06
771.883	1593.15
772.066	1507.13
772.248	1580.86
772.431	1595.2
772.613	1558.33
772.796	1445.7
772.978	1515.33
773.161	1503.04
773.343	1539.9
773.526	1423.17
773.708	1537.85
773.891	1457.98
774.073	1460.03
774.256	1433.41
774.438	1503.04
774.621	1490.75
774.803	1431.36
774.985	1404.74
775.168	1355.58
775.35	1380.16
775.532	1328.96
775.715	1382.21
775.897	1326.91
776.079	1292.1
776.261	1333.06
776.444	1316.67
776.626	1306.43
776.808	1275.71
776.99	1222.47
777.173	1269.57
777.355	1197.89
777.537	1322.82
777.719	1158.98
777.901	1279.81
778.083	1140.55
778.265	1175.36
778.447	1273.67
778.629	1144.64
778.811	1201.99
778.993	1201.99
779.175	1212.23
779.357	1173.32
779.539	1062.73
779.721	1101.64
779.903	1181.51
780.085	1105.73
780.267	1099.59
780.449	1032.01
780.631	1064.77
780.812	1058.63
780.994	1001.29
781.176	1032.01
781.358	968.52
781.54	1062.73
781.721	1152.84
781.903	913.22
782.085	970.57
782.267	1118.02
782.448	960.33
782.63	1075.01
782.812	943.94
782.993	945.99
783.175	974.66
783.357	925.51
783.538	1040.2
783.72	872.26
783.901	976.71
784.083	892.74
784.264	827.21
784.446	907.08
784.627	853.83
784.809	839.5
784.99	827.21
785.172	935.75
785.353	831.3
785.535	810.82
785.716	790.35
785.897	802.63
786.079	788.3
786.26	800.59
786.441	773.96
786.623	710.47
786.804	763.72
786.985	782.15
787.167	788.3
787.348	726.86
787.529	802.63
787.71	833.35
787.891	857.93
788.073	814.92
788.254	706.38
788.435	696.14
788.616	786.25
788.797	788.3
788.978	712.52
789.159	792.39
789.34	665.42
789.522	667.47
789.703	708.43
789.884	730.95
790.065	784.2
790.246	665.42
790.427	616.27
790.607	683.85
790.788	644.94
790.969	677.71
791.15	698.19
791.331	577.36
791.512	622.41
791.693	642.89
791.874	644.94
792.054	632.65
792.235	634.7
792.416	636.75
792.597	618.32
792.778	579.4
792.958	712.52
793.139	550.73
793.32	653.13
793.5	556.88
793.681	575.31
793.862	606.03
794.042	569.16
794.223	587.6
794.404	474.96
794.584	517.97
794.765	515.92
794.945	620.36
795.126	587.6
795.306	581.45
795.487	487.25
795.667	526.16
795.848	513.87
796.028	542.54
796.209	593.74
796.389	444.24
796.57	536.4
796.75	507.73
796.93	499.53
797.111	509.77
797.291	454.48
797.471	571.21
797.652	581.45
797.832	468.81
798.012	606.03
798.192	517.97
798.373	395.09
798.553	415.57
798.733	489.29
798.913	487.25
799.093	474.96
799.274	491.34
799.454	483.15
799.634	454.48
799.814	434
799.994	403.28
800.174	536.4
800.354	483.15
800.534	380.75
800.714	442.19
800.894	438.09
801.074	427.85
801.254	481.1
801.434	436.05
801.614	380.75
801.794	409.42
801.974	1128.26
802.154	438.09
802.334	415.57
802.514	440.14
802.693	450.38
802.873	450.38
803.053	411.47
803.233	429.9
803.413	401.23
803.592	366.42
803.772	292.69
803.952	325.46
804.131	339.79
804.311	352.08
804.491	448.33
804.67	337.74
804.85	337.74
805.03	429.9
805.209	499.53
805.389	362.32
805.568	302.93
805.748	333.65
805.928	401.23
806.107	368.46
806.287	325.46
806.466	417.61
806.646	321.36
806.825	315.22
807.004	264.02
807.184	395.09
807.363	329.55
807.543	417.61
807.722	311.12
807.901	419.66
808.081	315.22
808.26	339.79
808.439	384.85
808.619	325.46
808.798	354.13
808.977	300.88
809.156	290.64
809.336	350.03
809.515	309.07
809.694	302.93
809.873	290.64
810.052	352.08
810.231	313.17
810.411	290.64
810.59	313.17
810.769	325.46
810.948	286.54
811.127	239.44
811.306	292.69
811.485	221.01
811.664	352.08
811.843	245.59
812.022	335.7
812.201	311.12
812.38	311.12
812.559	237.39
812.737	294.74
812.916	261.97
813.095	329.55
813.274	247.63
813.453	331.6
813.632	282.45
813.811	364.37
813.989	255.83
814.168	321.36
814.347	200.53
814.526	231.25
814.704	360.27
814.883	278.35
815.062	268.11
815.24	259.92
815.419	190.29
815.598	270.16
815.776	214.87
815.955	198.48
816.133	218.96
816.312	251.73
816.49	149.33
816.669	278.35
816.847	290.64
817.026	272.21
817.204	188.24
817.383	257.87
817.561	268.11
817.74	249.68
817.918	245.59
818.097	208.72
818.275	225.11
818.453	309.07
818.632	259.92
818.81	257.87
818.988	204.63
819.167	251.73
819.345	235.35
819.523	89.94
819.701	153.43
819.879	284.5
820.058	208.72
820.236	231.25
820.414	223.06
820.592	253.78
820.77	218.96
820.948	165.71
821.127	178
821.305	212.82
821.483	218.96
821.661	206.67
821.839	264.02
822.017	214.87
822.195	175.95
822.373	313.17
822.551	218.96
822.729	239.44
822.907	237.39
823.085	221.01
823.262	264.02
823.44	182.1
823.618	202.58
823.796	190.29
823.974	182.1
824.152	151.38
824.329	175.95
824.507	255.83
824.685	192.34
824.863	182.1
825.04	214.87
825.218	161.62
825.396	135
825.574	190.29
825.751	167.76
825.929	208.72
826.107	163.67
826.284	182.1
826.462	214.87
826.639	180.05
826.817	116.56
826.994	192.34
827.172	85.84
827.349	173.91
827.527	169.81
827.704	169.81
827.882	233.3
828.059	261.97
828.237	124.76
828.414	247.63
828.591	87.89
828.769	200.53
828.946	137.04
829.124	155.47
829.301	216.91
829.478	145.24
829.655	214.87
829.833	184.15
830.01	167.76
830.187	169.81
830.364	204.63
830.542	180.05
830.719	212.82
830.896	188.24
831.073	132.95
831.25	120.66
831.427	120.66
831.604	163.67
831.782	114.52
831.959	132.95
832.136	153.43
832.313	161.62
832.49	151.38
832.667	180.05
832.844	141.14
833.021	270.16
833.198	135
833.374	118.61
833.551	149.33
833.728	135
833.905	169.81
834.082	112.47
834.259	83.8
834.436	149.33
834.612	104.28
834.789	171.86
834.966	108.37
835.143	145.24
835.319	167.76
835.496	184.15
835.673	159.57
835.85	159.57
836.026	190.29
836.203	91.99
836.38	151.38
836.556	104.28
836.733	192.34
836.909	188.24
837.086	122.71
837.262	73.56
837.439	114.52
837.616	87.89
837.792	94.04
837.968	114.52
838.145	55.12
838.321	149.33
838.498	89.94
838.674	239.44
838.851	81.75
839.027	147.28
839.203	89.94
839.38	153.43
839.556	100.18
839.732	223.06
839.909	106.32
840.085	143.19
840.261	137.04
840.437	83.8
840.614	79.7
840.79	153.43
840.966	151.38
841.142	89.94
841.318	85.84
841.494	202.58
841.671	102.23
841.847	106.32
842.023	75.6
842.199	108.37
842.375	165.71
842.551	69.46
842.727	77.65
842.903	147.28
843.079	51.03
843.255	79.7
843.431	106.32
843.607	98.13
843.783	5.97
843.959	98.13
844.134	75.6
844.31	94.04
844.486	91.99
844.662	71.51
844.838	102.23
845.013	155.47
845.189	139.09
845.365	77.65
845.541	126.8
845.716	108.37
845.892	116.56
846.068	40.79
846.244	104.28
846.419	186.19
846.595	18.26
846.77	16.21
846.946	79.7
847.122	94.04
847.297	61.27
847.473	85.84
847.648	87.89
847.824	130.9
847.999	10.07
848.175	65.36
848.35	55.12
848.526	122.71
848.701	24.4
848.876	198.48
849.052	61.27
849.227	65.36
849.403	55.12
849.578	67.41
849.753	71.51
849.929	102.23
850.104	96.08
850.279	96.08
850.454	42.84
850.63	26.45
850.805	81.75
850.98	-4.27
851.155	36.69
851.33	67.41
851.505	112.47
851.681	91.99
851.856	79.7
852.031	69.46
852.206	77.65
852.381	34.64
852.556	34.64
852.731	16.21
852.906	100.18
853.081	48.98
853.256	153.43
853.431	75.6
853.606	100.18
853.781	22.36
853.956	-32.94
854.131	73.56
854.305	53.08
854.48	30.55
854.655	67.41
854.83	55.12
855.005	40.79
855.18	28.5
855.354	44.88
855.529	69.46
855.704	24.4
855.879	67.41
856.053	-16.55
856.228	100.18
856.403	22.36
856.577	42.84
856.752	18.26
856.926	77.65
857.101	30.55
857.276	-71.85
857.45	79.7
857.625	196.43
857.799	87.89
857.974	71.51
858.148	96.08
858.323	128.85
858.497	65.36
858.672	20.31
858.846	16.21
859.02	79.7
859.195	20.31
859.369	-6.31
859.543	1.88
859.718	75.6
859.892	5.97
860.066	28.5
860.241	-0.17
860.415	32.6
860.589	24.4
860.763	16.21
860.938	57.17
861.112	94.04
861.286	22.36
861.46	22.36
861.634	-24.75
861.808	77.65
861.982	22.36
862.157	-32.94
862.331	-24.75
862.505	-4.27
862.679	-39.08
862.853	-41.13
863.027	-80.04
863.201	171.86
863.375	22.36
863.549	83.8
863.722	63.32
863.896	122.71
864.07	-2.22
864.244	85.84
864.418	30.55
864.592	32.6
864.766	28.5
864.939	30.55
865.113	63.32
865.287	51.03
865.461	48.98
865.634	36.69
865.808	110.42
865.982	12.12
866.156	32.6
866.329	24.4
866.503	75.6
866.676	67.41
866.85	83.8
867.024	120.66
867.197	122.71
867.371	81.75
867.544	83.8
867.718	12.12
867.891	75.6
868.065	-16.55
868.238	44.88
868.412	149.33
868.585	100.18
868.759	20.31
868.932	38.74
869.105	63.32
869.279	106.32
869.452	-102.57
869.625	-22.7
869.799	34.64
869.972	-20.65
870.145	-28.84
870.319	53.08
870.492	30.55
870.665	16.21
870.838	1.88
871.011	-37.03
871.185	38.74
871.358	-4.27
871.531	26.45
871.704	-2.22
871.877	-2.22
872.05	16.21
872.223	26.45
872.396	-43.18
872.569	51.03
872.742	3.93
872.915	94.04
873.088	18.26
873.261	28.5
873.434	-26.79
873.607	24.4
873.78	14.17
873.953	32.6
874.126	18.26
874.299	-53.42
874.471	-0.17
874.644	-0.17
874.817	26.45
874.99	94.04
875.163	16.21
875.335	106.32
875.508	34.64
875.681	89.94
875.853	-30.89
876.026	55.12
876.199	53.08
876.371	-4.27
876.544	34.64
876.717	-0.17
876.889	-14.51
877.062	85.84
877.234	-92.33
877.407	14.17
877.579	75.6
877.752	-0.17
877.924	71.51
878.097	-2.22
878.269	-34.99
878.442	46.93
878.614	14.17
878.786	12.12
878.959	85.84
879.131	46.93
879.303	28.5
879.476	73.56
879.648	67.41
879.82	63.32
879.993	-16.55
880.165	5.97
880.337	-18.6
880.509	24.4
880.681	-30.89
880.854	-18.6
881.026	69.46
881.198	171.86
881.37	32.6
881.542	8.02
881.714	48.98
881.886	-59.56
882.058	-6.31
882.23	55.12
882.402	53.08
882.574	24.4
882.746	-2.22
882.918	61.27
883.09	-14.51
883.262	24.4
883.434	44.88
883.606	18.26
883.778	10.07
883.95	81.75
884.122	24.4
884.293	46.93
884.465	-0.17
884.637	3.93
884.809	28.5
884.98	8.02
885.152	-4.27
885.324	61.27
885.496	-61.61
885.667	34.64
885.839	26.45
886.011	28.5
886.182	34.64
886.354	24.4
886.525	24.4
886.697	36.69
886.869	14.17
887.04	5.97
887.212	83.8
887.383	81.75
887.555	-20.65
887.726	3.93
887.897	-34.99
888.069	100.18
888.24	85.84
888.412	-6.31
888.583	67.41
888.754	-22.7
888.926	20.31
889.097	53.08
889.268	-43.18
889.44	46.93
889.611	-45.23
889.782	-16.55
889.953	73.56
890.125	65.36
890.296	126.8
890.467	40.79
890.638	65.36
890.809	36.69
890.98	30.55
891.151	51.03
891.323	42.84
891.494	5.97
891.665	36.69
891.836	34.64
892.007	48.98
892.178	16.21
892.349	-2.22
892.52	18.26
892.691	77.65
892.862	-2.22
893.032	-16.55
893.203	65.36
893.374	87.89
893.545	10.07
893.716	73.56
893.887	79.7
894.057	-71.85
894.228	-26.79
894.399	-12.46
894.57	89.94
894.74	34.64
894.911	51.03
895.082	-30.89
895.253	-30.89
895.423	28.5
895.594	-18.6
895.764	-14.51
895.935	22.36
896.106	10.07
896.276	34.64
896.447	-51.37
896.617	-14.51
896.788	-100.52
896.958	63.32
897.129	22.36
897.299	28.5
897.47	24.4
897.64	65.36
897.81	38.74
897.981	-34.99
898.151	-4.27
898.322	18.26
898.492	22.36
898.662	-12.46
898.832	-26.79
899.003	-6.31
899.173	32.6
899.343	51.03
899.513	-24.75
