Data from USB4F104151__22__12-23-32-667.txt Node

Date: Fri Mar 14 12:23:32 EDT 2025
User: louis
Spectrometer: USB4F10415
Trigger mode: 4
Integration Time (sec): 3.500000E-2
Scans to average: 1
Electric dark correction enabled: true
Nonlinearity correction enabled: false
Boxcar width: 0
XAxis mode: Wavelengths
Number of Pixels in Spectrum: 3648
>>>>>Begin Spectral Data<<<<<
178.204	-167.42
178.424	-167.42
178.644	-167.42
178.864	-89.6
179.084	-122.37
179.304	-52.74
179.524	-36.35
179.744	20.99
179.964	23.04
180.184	43.52
180.404	-5.63
180.624	16.9
180.844	57.86
181.064	-1.54
181.283	-73.21
181.503	6.66
181.723	0.51
181.943	29.18
182.163	127.49
182.383	16.9
182.602	61.95
182.822	-24.06
183.042	41.47
183.262	84.48
183.482	82.43
183.701	4.61
183.921	70.14
184.141	27.14
184.361	53.76
184.58	4.61
184.8	74.24
185.02	31.23
185.239	82.43
185.459	35.33
185.679	111.1
185.898	-1.54
186.118	47.62
186.338	82.43
186.557	98.81
186.777	78.33
186.997	43.52
187.216	-7.68
187.436	119.29
187.655	45.57
187.875	88.57
188.095	14.85
188.314	43.52
188.534	102.91
188.753	70.14
188.973	35.33
189.192	88.57
189.412	29.18
189.631	94.72
189.851	23.04
190.07	129.53
190.29	76.29
190.509	53.76
190.729	-44.54
190.948	80.38
191.168	182.78
191.387	74.24
191.607	41.47
191.826	31.23
192.045	39.42
192.265	8.7
192.484	-1.54
192.704	-22.02
192.923	37.38
193.142	133.63
193.362	84.48
193.581	23.04
193.8	18.94
194.02	84.48
194.239	8.7
194.458	64
194.678	-3.58
194.897	123.39
195.116	80.38
195.335	16.9
195.555	0.51
195.774	45.57
195.993	35.33
196.212	45.57
196.432	47.62
196.651	55.81
196.87	20.99
197.089	107.01
197.308	27.14
197.528	82.43
197.747	-17.92
197.966	102.91
198.185	100.86
198.404	-36.35
198.623	113.15
198.842	80.38
199.062	55.81
199.281	107.01
199.5	86.53
199.719	64
199.938	43.52
200.157	8.7
200.376	14.85
200.595	12.8
200.814	68.09
201.033	61.95
201.252	117.25
201.471	59.9
201.69	76.29
201.909	41.47
202.128	84.48
202.347	6.66
202.566	37.38
202.785	55.81
203.004	18.94
203.223	158.21
203.442	76.29
203.661	-3.58
203.879	45.57
204.098	104.96
204.317	-7.68
204.536	80.38
204.755	68.09
204.974	76.29
205.193	41.47
205.411	53.76
205.63	84.48
205.849	78.33
206.068	92.67
206.287	39.42
206.505	64
206.724	64
206.943	55.81
207.162	18.94
207.381	29.18
207.599	8.7
207.818	18.94
208.037	47.62
208.255	12.8
208.474	-3.58
208.693	84.48
208.911	33.28
209.13	37.38
209.349	94.72
209.567	23.04
209.786	96.77
210.005	51.71
210.223	68.09
210.442	-32.26
210.661	14.85
210.879	92.67
211.098	35.33
211.316	49.66
211.535	51.71
211.753	39.42
211.972	72.19
212.191	20.99
212.409	64
212.628	84.48
212.846	37.38
213.065	64
213.283	45.57
213.502	104.96
213.72	12.8
213.938	51.71
214.157	49.66
214.375	49.66
214.594	27.14
214.812	57.86
215.031	111.1
215.249	25.09
215.467	27.14
215.686	-30.21
215.904	88.57
216.122	45.57
216.341	94.72
216.559	133.63
216.778	47.62
216.996	33.28
217.214	20.99
217.432	25.09
217.651	12.8
217.869	51.71
218.087	-15.87
218.306	74.24
218.524	92.67
218.742	-1.54
218.96	94.72
219.179	-9.73
219.397	29.18
219.615	150.01
219.833	55.81
220.051	70.14
220.27	76.29
220.488	37.38
220.706	53.76
220.924	61.95
221.142	-15.87
221.36	45.57
221.578	111.1
221.796	109.05
222.015	6.66
222.233	23.04
222.451	78.33
222.669	-46.59
222.887	90.62
223.105	37.38
223.323	47.62
223.541	33.28
223.759	55.81
223.977	2.56
224.195	74.24
224.413	70.14
224.631	51.71
224.849	33.28
225.067	137.73
225.285	-22.02
225.503	47.62
225.721	43.52
225.939	-36.35
226.157	31.23
226.375	154.11
226.592	29.18
226.81	64
227.028	45.57
227.246	64
227.464	70.14
227.682	80.38
227.9	43.52
228.117	59.9
228.335	104.96
228.553	125.44
228.771	57.86
228.989	72.19
229.206	125.44
229.424	23.04
229.642	-1.54
229.86	33.28
230.077	88.57
230.295	68.09
230.513	27.14
230.731	27.14
230.948	113.15
231.166	35.33
231.384	-5.63
231.601	107.01
231.819	115.2
232.037	68.09
232.254	104.96
232.472	51.71
232.689	39.42
232.907	100.86
233.125	107.01
233.342	29.18
233.56	61.95
233.777	16.9
233.995	45.57
234.213	23.04
234.43	111.1
234.648	-38.4
234.865	37.38
235.083	84.48
235.3	-17.92
235.518	37.38
235.735	143.87
235.953	80.38
236.17	78.33
236.388	41.47
236.605	74.24
236.822	90.62
237.04	127.49
237.257	27.14
237.475	64
237.692	86.53
237.909	29.18
238.127	64
238.344	61.95
238.562	10.75
238.779	31.23
238.996	33.28
239.214	41.47
239.431	117.25
239.648	43.52
239.865	51.71
240.083	61.95
240.3	96.77
240.517	-17.92
240.735	100.86
240.952	0.51
241.169	78.33
241.386	16.9
241.603	4.61
241.821	45.57
242.038	49.66
242.255	53.76
242.472	55.81
242.689	37.38
242.907	129.53
243.124	-1.54
243.341	-1.54
243.558	104.96
243.775	64
243.992	20.99
244.209	88.57
244.426	68.09
244.643	76.29
244.86	57.86
245.078	102.91
245.295	90.62
245.512	16.9
245.729	14.85
245.946	51.71
246.163	61.95
246.38	37.38
246.597	16.9
246.814	-32.26
247.031	-9.73
247.248	61.95
247.464	70.14
247.681	14.85
247.898	66.05
248.115	55.81
248.332	59.9
248.549	16.9
248.766	139.77
248.983	72.19
249.2	31.23
249.417	68.09
249.633	27.14
249.85	64
250.067	68.09
250.284	88.57
250.501	35.33
250.717	104.96
250.934	70.14
251.151	47.62
251.368	27.14
251.585	4.61
251.801	129.53
252.018	76.29
252.235	53.76
252.451	76.29
252.668	70.14
252.885	107.01
253.102	72.19
253.318	119.29
253.535	0.51
253.752	-19.97
253.968	35.33
254.185	92.67
254.401	51.71
254.618	104.96
254.835	-46.59
255.051	90.62
255.268	70.14
255.484	-40.45
255.701	72.19
255.917	98.81
256.134	70.14
256.351	39.42
256.567	64
256.784	-15.87
257	16.9
257.217	80.38
257.433	45.57
257.65	92.67
257.866	92.67
258.082	-22.02
258.299	-13.82
258.515	-3.58
258.732	-30.21
258.948	57.86
259.165	2.56
259.381	59.9
259.597	66.05
259.814	109.05
260.03	10.75
260.246	43.52
260.463	-5.63
260.679	27.14
260.895	18.94
261.112	6.66
261.328	25.09
261.544	51.71
261.761	57.86
261.977	35.33
262.193	12.8
262.409	102.91
262.626	31.23
262.842	66.05
263.058	-5.63
263.274	-7.68
263.49	61.95
263.707	-7.68
263.923	35.33
264.139	-44.54
264.355	154.11
264.571	64
264.787	37.38
265.004	113.15
265.22	-36.35
265.436	-15.87
265.652	29.18
265.868	64
266.084	41.47
266.3	41.47
266.516	-28.16
266.732	0.51
266.948	53.76
267.164	61.95
267.38	131.58
267.596	8.7
267.812	135.68
268.028	102.91
268.244	-13.82
268.46	35.33
268.676	47.62
268.892	2.56
269.108	-52.74
269.324	80.38
269.54	84.48
269.756	123.39
269.972	31.23
270.188	39.42
270.403	8.7
270.619	94.72
270.835	14.85
271.051	37.38
271.267	64
271.483	0.51
271.698	96.77
271.914	-28.16
272.13	76.29
272.346	119.29
272.562	70.14
272.777	59.9
272.993	43.52
273.209	25.09
273.425	47.62
273.64	66.05
273.856	25.09
274.072	64
274.287	39.42
274.503	53.76
274.719	68.09
274.934	92.67
275.15	31.23
275.366	14.85
275.581	82.43
275.797	135.68
276.012	35.33
276.228	27.14
276.444	20.99
276.659	88.57
276.875	-32.26
277.09	61.95
277.306	20.99
277.521	47.62
277.737	-7.68
277.952	147.97
278.168	10.75
278.383	31.23
278.599	137.73
278.814	31.23
279.03	66.05
279.245	66.05
279.461	41.47
279.676	76.29
279.892	27.14
280.107	57.86
280.322	6.66
280.538	66.05
280.753	-32.26
280.969	16.9
281.184	2.56
281.399	37.38
281.615	76.29
281.83	55.81
282.045	86.53
282.26	55.81
282.476	0.51
282.691	51.71
282.906	72.19
283.122	131.58
283.337	82.43
283.552	143.87
283.767	2.56
283.983	68.09
284.198	59.9
284.413	57.86
284.628	64
284.843	45.57
285.058	78.33
285.274	113.15
285.489	96.77
285.704	98.81
285.919	29.18
286.134	102.91
286.349	20.99
286.564	49.66
286.779	43.52
286.995	70.14
287.21	-15.87
287.425	-40.45
287.64	4.61
287.855	45.57
288.07	6.66
288.285	102.91
288.5	111.1
288.715	78.33
288.93	123.39
289.145	61.95
289.36	88.57
289.575	14.85
289.79	49.66
290.004	104.96
290.219	-1.54
290.434	39.42
290.649	49.66
290.864	66.05
291.079	14.85
291.294	35.33
291.509	88.57
291.724	51.71
291.938	18.94
292.153	51.71
292.368	35.33
292.583	59.9
292.798	49.66
293.012	113.15
293.227	14.85
293.442	70.14
293.657	68.09
293.871	78.33
294.086	129.53
294.301	143.87
294.516	59.9
294.73	78.33
294.945	80.38
295.16	35.33
295.374	113.15
295.589	131.58
295.804	72.19
296.018	154.11
296.233	121.34
296.447	111.1
296.662	-3.58
296.877	49.66
297.091	86.53
297.306	-15.87
297.52	64
297.735	94.72
297.949	2.56
298.164	90.62
298.378	55.81
298.593	14.85
298.807	6.66
299.022	29.18
299.236	4.61
299.451	45.57
299.665	72.19
299.88	86.53
300.094	-22.02
300.309	12.8
300.523	0.51
300.737	16.9
300.952	66.05
301.166	64
301.381	18.94
301.595	84.48
301.809	20.99
302.024	57.86
302.238	-24.06
302.452	55.81
302.667	51.71
302.881	113.15
303.095	55.81
303.309	76.29
303.524	53.76
303.738	41.47
303.952	-5.63
304.166	41.47
304.381	-71.17
304.595	104.96
304.809	41.47
305.023	25.09
305.237	-36.35
305.452	-42.5
305.666	86.53
305.88	68.09
306.094	84.48
306.308	84.48
306.522	74.24
306.736	47.62
306.95	43.52
307.164	84.48
307.379	-13.82
307.593	82.43
307.807	80.38
308.021	25.09
308.235	41.47
308.449	37.38
308.663	23.04
308.877	80.38
309.091	88.57
309.305	-1.54
309.519	-9.73
309.733	92.67
309.947	6.66
310.161	86.53
310.374	72.19
310.588	39.42
310.802	27.14
311.016	94.72
311.23	64
311.444	70.14
311.658	16.9
311.872	74.24
312.085	125.44
312.299	45.57
312.513	53.76
312.727	-28.16
312.941	-30.21
313.154	90.62
313.368	14.85
313.582	35.33
313.796	29.18
314.009	49.66
314.223	117.25
314.437	39.42
314.651	158.21
314.864	57.86
315.078	51.71
315.292	27.14
315.505	-15.87
315.719	139.77
315.933	45.57
316.146	31.23
316.36	2.56
316.573	53.76
316.787	-3.58
317.001	72.19
317.214	37.38
317.428	70.14
317.641	20.99
317.855	57.86
318.068	-15.87
318.282	43.52
318.495	53.76
318.709	133.63
318.922	16.9
319.136	61.95
319.349	-36.35
319.563	66.05
319.776	51.71
319.99	80.38
320.203	6.66
320.417	86.53
320.63	68.09
320.843	94.72
321.057	51.71
321.27	31.23
321.483	51.71
321.697	96.77
321.91	104.96
322.124	102.91
322.337	41.47
322.55	-1.54
322.763	-17.92
322.977	27.14
323.19	86.53
323.403	39.42
323.617	107.01
323.83	68.09
324.043	23.04
324.256	74.24
324.469	39.42
324.683	123.39
324.896	137.73
325.109	86.53
325.322	-50.69
325.535	78.33
325.748	102.91
325.962	0.51
326.175	80.38
326.388	121.34
326.601	16.9
326.814	4.61
327.027	49.66
327.24	158.21
327.453	29.18
327.666	100.86
327.879	27.14
328.092	43.52
328.305	55.81
328.518	27.14
328.731	43.52
328.944	47.62
329.157	88.57
329.37	35.33
329.583	76.29
329.796	139.77
330.009	12.8
330.222	131.58
330.435	43.52
330.648	18.94
330.861	82.43
331.073	150.01
331.286	27.14
331.499	53.76
331.712	47.62
331.925	94.72
332.138	98.81
332.35	141.82
332.563	-15.87
332.776	113.15
332.989	-7.68
333.202	55.81
333.414	6.66
333.627	74.24
333.84	-1.54
334.053	88.57
334.265	45.57
334.478	68.09
334.691	66.05
334.903	137.73
335.116	57.86
335.329	86.53
335.541	133.63
335.754	119.29
335.966	-19.97
336.179	94.72
336.392	-17.92
336.604	84.48
336.817	76.29
337.029	102.91
337.242	129.53
337.454	78.33
337.667	-36.35
337.88	137.73
338.092	31.23
338.305	64
338.517	-32.26
338.729	57.86
338.942	23.04
339.154	33.28
339.367	49.66
339.579	45.57
339.792	61.95
340.004	92.67
340.217	86.53
340.429	70.14
340.641	14.85
340.854	10.75
341.066	-34.3
341.278	66.05
341.491	107.01
341.703	86.53
341.915	47.62
342.128	80.38
342.34	53.76
342.552	-5.63
342.764	-50.69
342.977	20.99
343.189	143.87
343.401	131.58
343.613	35.33
343.826	51.71
344.038	43.52
344.25	25.09
344.462	68.09
344.674	78.33
344.886	31.23
345.099	43.52
345.311	90.62
345.523	41.47
345.735	-1.54
345.947	117.25
346.159	74.24
346.371	-1.54
346.583	41.47
346.795	98.81
347.007	12.8
347.219	129.53
347.431	20.99
347.643	109.05
347.855	109.05
348.067	96.77
348.279	37.38
348.491	-11.78
348.703	47.62
348.915	47.62
349.127	37.38
349.339	78.33
349.551	74.24
349.763	61.95
349.975	90.62
350.187	121.34
350.399	51.71
350.61	29.18
350.822	6.66
351.034	59.9
351.246	29.18
351.458	125.44
351.669	113.15
351.881	55.81
352.093	104.96
352.305	172.54
352.517	80.38
352.728	188.93
352.94	23.04
353.152	78.33
353.363	88.57
353.575	55.81
353.787	61.95
353.999	104.96
354.21	59.9
354.422	23.04
354.633	57.86
354.845	86.53
355.057	39.42
355.268	-3.58
355.48	27.14
355.692	84.48
355.903	111.1
356.115	47.62
356.326	23.04
356.538	53.76
356.749	51.71
356.961	145.92
357.172	76.29
357.384	57.86
357.595	117.25
357.807	20.99
358.018	-36.35
358.23	10.75
358.441	96.77
358.653	25.09
358.864	90.62
359.075	31.23
359.287	86.53
359.498	152.06
359.709	96.77
359.921	78.33
360.132	72.19
360.344	109.05
360.555	84.48
360.766	59.9
360.977	53.76
361.189	109.05
361.4	94.72
361.611	51.71
361.823	16.9
362.034	25.09
362.245	25.09
362.456	64
362.667	88.57
362.879	92.67
363.09	0.51
363.301	129.53
363.512	66.05
363.723	78.33
363.935	-7.68
364.146	66.05
364.357	33.28
364.568	72.19
364.779	-60.93
364.99	90.62
365.201	57.86
365.412	45.57
365.623	25.09
365.834	27.14
366.045	66.05
366.256	121.34
366.467	-5.63
366.678	35.33
366.889	31.23
367.1	18.94
367.311	18.94
367.522	12.8
367.733	111.1
367.944	96.77
368.155	82.43
368.366	55.81
368.577	109.05
368.788	76.29
368.999	72.19
369.209	127.49
369.42	88.57
369.631	147.97
369.842	61.95
370.053	45.57
370.264	61.95
370.474	-17.92
370.685	47.62
370.896	121.34
371.107	41.47
371.317	39.42
371.528	49.66
371.739	145.92
371.95	68.09
372.16	90.62
372.371	16.9
372.582	16.9
372.792	113.15
373.003	59.9
373.214	70.14
373.424	59.9
373.635	76.29
373.846	115.2
374.056	43.52
374.267	88.57
374.477	20.99
374.688	47.62
374.898	61.95
375.109	70.14
375.319	94.72
375.53	53.76
375.74	31.23
375.951	88.57
376.161	70.14
376.372	133.63
376.582	113.15
376.793	100.86
377.003	51.71
377.214	35.33
377.424	29.18
377.635	98.81
377.845	66.05
378.055	78.33
378.266	59.9
378.476	61.95
378.686	4.61
378.897	57.86
379.107	98.81
379.317	43.52
379.528	-44.54
379.738	109.05
379.948	-5.63
380.158	127.49
380.369	64
380.579	20.99
380.789	109.05
380.999	41.47
381.21	92.67
381.42	92.67
381.63	8.7
381.84	115.2
382.05	76.29
382.261	90.62
382.471	109.05
382.681	59.9
382.891	107.01
383.101	14.85
383.311	39.42
383.521	29.18
383.731	100.86
383.941	80.38
384.151	66.05
384.361	104.96
384.571	92.67
384.781	55.81
384.991	145.92
385.201	92.67
385.411	90.62
385.621	119.29
385.831	135.68
386.041	55.81
386.251	14.85
386.461	70.14
386.671	10.75
386.881	33.28
387.091	82.43
387.301	139.77
387.511	131.58
387.72	84.48
387.93	25.09
388.14	12.8
388.35	35.33
388.56	90.62
388.769	102.91
388.979	68.09
389.189	16.9
389.399	59.9
389.609	104.96
389.818	141.82
390.028	68.09
390.238	72.19
390.447	-24.06
390.657	61.95
390.867	-5.63
391.076	-3.58
391.286	72.19
391.496	119.29
391.705	121.34
391.915	172.54
392.125	109.05
392.334	66.05
392.544	115.2
392.753	92.67
392.963	57.86
393.172	33.28
393.382	-11.78
393.591	119.29
393.801	-13.82
394.01	23.04
394.22	102.91
394.429	104.96
394.639	49.66
394.848	76.29
395.058	59.9
395.267	90.62
395.477	57.86
395.686	86.53
395.895	160.25
396.105	133.63
396.314	70.14
396.524	129.53
396.733	64
396.942	115.2
397.152	131.58
397.361	145.92
397.57	139.77
397.78	57.86
397.989	98.81
398.198	184.83
398.407	104.96
398.617	104.96
398.826	78.33
399.035	129.53
399.244	141.82
399.453	129.53
399.663	145.92
399.872	205.31
400.081	100.86
400.29	170.49
400.499	78.33
400.708	180.73
400.917	115.2
401.127	125.44
401.336	131.58
401.545	145.92
401.754	111.1
401.963	61.95
402.172	57.86
402.381	139.77
402.59	94.72
402.799	86.53
403.008	98.81
403.217	129.53
403.426	127.49
403.635	45.57
403.844	113.15
404.053	125.44
404.262	117.25
404.471	94.72
404.68	131.58
404.888	107.01
405.097	201.21
405.306	117.25
405.515	100.86
405.724	131.58
405.933	166.4
406.142	160.25
406.35	182.78
406.559	195.07
406.768	176.64
406.977	213.5
407.185	129.53
407.394	184.83
407.603	127.49
407.812	211.45
408.02	246.27
408.229	172.54
408.438	199.16
408.646	205.31
408.855	209.4
409.064	240.12
409.272	201.21
409.481	262.65
409.69	223.74
409.898	197.12
410.107	326.14
410.315	250.36
410.524	188.93
410.733	320
410.941	313.85
411.15	242.17
411.358	297.47
411.567	371.19
411.775	299.52
411.984	307.71
412.192	350.71
412.401	332.28
412.609	352.76
412.818	336.38
413.026	416.25
413.234	379.39
413.443	412.15
413.651	395.77
413.86	457.21
414.068	553.46
414.276	516.6
414.485	479.74
414.693	502.26
414.901	567.8
415.11	569.85
415.318	518.65
415.526	666.1
415.734	631.29
415.943	604.66
416.151	655.86
416.359	600.57
416.567	680.44
416.776	813.56
416.984	735.73
417.192	825.84
417.4	778.74
417.608	741.88
417.817	791.03
418.025	909.81
418.233	883.19
418.441	836.08
418.649	924.15
418.857	973.3
419.065	956.91
419.273	995.82
419.481	1022.45
419.689	1065.46
419.897	1200.62
420.105	1217.01
420.313	1235.44
420.521	1253.87
420.729	1190.38
420.937	1337.84
421.145	1382.89
421.353	1446.38
421.561	1499.63
421.769	1489.39
421.977	1614.31
422.185	1507.82
422.393	1622.5
422.601	1669.61
422.809	1579.5
423.017	1749.48
423.224	1864.16
423.432	1929.7
423.64	1927.65
423.848	2083.3
424.056	1966.56
424.263	2167.26
424.471	2308.57
424.679	2195.93
424.887	2394.59
425.094	2392.54
425.302	2335.2
425.51	2552.28
425.718	2593.24
425.925	2535.9
426.133	2658.78
426.341	2988.5
426.548	2935.25
426.756	3013.07
426.964	3082.7
427.171	3078.61
427.379	3301.84
427.586	3307.98
427.794	3494.35
428.001	3592.65
428.209	3805.64
428.417	3758.53
428.624	4018.63
428.832	3944.9
429.039	3920.32
429.247	3920.32
429.454	4252.1
429.662	4520.38
429.869	4428.22
430.076	4661.69
430.284	4520.38
430.491	4557.24
430.699	4782.52
430.906	4985.27
431.114	4983.22
431.321	5317.04
431.528	5347.76
431.736	5609.9
431.943	5724.58
432.15	5820.84
432.358	5802.41
432.565	6158.75
432.772	6007.2
432.979	6287.78
433.187	6541.72
433.394	6680.99
433.601	6879.64
433.808	6984.09
434.016	7037.33
434.223	7379.34
434.43	7711.11
434.637	7442.83
434.844	7889.29
435.052	8120.71
435.259	8200.58
435.466	8284.55
435.673	8139.14
435.88	8720.76
436.087	9042.29
436.294	9064.82
436.501	8962.42
436.708	9159.03
436.915	9320.82
437.122	9789.8
437.329	9613.68
437.537	10193.25
437.743	10369.38
437.95	10125.67
438.157	10713.44
438.364	11053.4
438.571	11024.73
438.778	11184.47
438.985	12151.11
439.192	11612.49
439.399	12155.21
439.606	11854.16
439.813	12470.59
440.02	13175.09
440.227	12937.53
440.433	12831.04
440.64	13119.8
440.847	13326.64
441.054	13625.65
441.261	14547.23
441.467	14252.33
441.674	14496.03
441.881	14948.64
442.088	14948.64
442.294	15087.9
442.501	15270.17
442.708	15708.43
442.914	16068.87
443.121	16769.28
443.328	16525.57
443.534	17852.66
443.741	17404.15
443.948	17086.72
444.154	18217.19
444.361	18057.45
444.568	18305.26
444.774	18135.28
444.981	18350.31
445.187	18878.69
445.394	19706.07
445.6	19626.2
445.807	21502.14
446.013	20574.41
446.22	20875.46
446.426	21770.42
446.633	21854.39
446.839	22767.78
447.046	21913.78
447.252	22847.65
447.459	23060.64
447.665	23179.42
447.871	24072.34
448.078	25053.31
448.284	24010.9
448.491	24148.11
448.697	25393.28
448.903	26132.59
449.11	26110.07
449.316	25352.32
449.522	26050.67
449.728	26624.11
449.935	26949.73
450.141	26873.96
450.347	27195.49
450.553	26761.32
450.76	27027.56
450.966	27545.69
451.172	27281.5
451.378	28213.33
451.584	27543.64
451.791	28295.25
451.997	28174.42
452.203	28774.47
452.409	28971.08
452.615	28463.18
452.821	27213.92
453.027	27693.15
453.233	28694.6
453.44	27701.34
453.646	28057.68
453.852	27844.7
454.058	28332.11
454.264	27406.43
454.47	28137.55
454.676	27611.23
454.882	28426.32
455.088	25792.63
455.294	26439.79
455.5	26529.9
455.705	26863.72
455.911	25858.17
456.117	25366.65
456.323	25102.46
456.529	23627.93
456.735	24703.11
456.941	23908.5
457.147	23511.19
457.352	22716.58
457.558	22718.63
457.764	22511.78
457.97	22116.53
458.176	21655.73
458.381	21704.88
458.587	20584.65
458.793	20498.63
458.999	19583.19
459.204	20863.17
459.41	20195.53
459.616	18933.98
459.821	19077.34
460.027	18729.19
460.233	18219.24
460.438	17551.6
460.644	17836.27
460.85	17221.88
461.055	16767.23
461.261	16847.1
461.466	15575.31
461.672	15149.34
461.878	15968.52
462.083	15120.67
462.289	14891.29
462.494	14737.7
462.7	13928.75
462.905	13639.98
463.111	13914.41
463.316	14033.19
463.522	13801.77
463.727	13789.49
463.932	13953.32
464.138	13490.48
464.343	13668.66
464.549	13248.82
464.754	13726
464.959	13625.65
465.165	13416.76
465.37	12788.03
465.575	12431.68
465.781	13279.54
465.986	13211.96
466.191	12800.32
466.397	12548.42
466.602	11764.04
466.807	12341.57
467.012	12220.74
467.218	12261.7
467.423	11938.12
467.628	11995.46
467.833	12642.62
468.038	12323.14
468.244	11960.65
468.449	12267.84
468.654	11938.12
468.859	11874.63
469.064	11759.95
469.269	11178.33
469.474	11684.17
469.679	11661.65
469.885	11235.67
470.09	11510.1
470.295	11319.64
470.5	11041.11
470.705	11100.5
470.91	10805.6
471.115	10922.33
471.32	10951
471.525	10709.34
471.73	10658.14
471.935	10746.2
472.139	10408.29
472.344	10297.7
472.549	10529.12
472.754	10183.01
472.959	10039.65
473.164	9924.97
473.369	9621.87
473.574	9965.93
473.778	9832.81
473.983	9664.88
474.188	9673.07
474.393	9242.99
474.598	9218.42
474.802	9236.85
475.007	9056.63
475.212	9331.06
475.417	8884.6
475.621	8737.15
475.826	8757.63
476.031	8708.48
476.235	8763.77
476.44	8892.79
476.645	8505.73
476.849	8415.62
477.054	8470.91
477.259	8407.42
477.463	8393.09
477.668	8130.95
477.872	8182.15
478.077	7926.15
478.282	7901.58
478.486	7801.22
478.691	7899.53
478.895	7805.32
479.1	7524.75
479.304	7668.11
479.509	7528.85
479.713	7754.12
479.918	7397.78
480.122	7287.18
480.326	7498.13
480.531	7610.76
480.735	7461.26
480.94	7190.93
481.144	7504.27
481.348	7168.4
481.553	7315.86
481.757	7061.91
481.961	7203.22
482.166	7268.75
482.37	7223.7
482.574	7023
482.778	7027.09
482.983	7278.99
483.187	7180.69
483.391	7180.69
483.595	7086.48
483.8	7049.62
484.004	7109.01
484.208	7188.88
484.412	7086.48
484.616	7240.08
484.821	7307.66
485.025	7207.31
485.229	7176.59
485.433	7133.59
485.637	7125.4
485.841	7190.93
486.045	7158.16
486.249	7082.39
486.453	7117.2
486.657	7293.33
486.861	7119.25
487.065	7076.24
487.269	7176.59
487.473	7063.96
487.677	7080.34
487.881	7354.77
488.085	7190.93
488.289	7303.57
488.493	6918.55
488.697	7139.73
488.901	7227.79
489.105	7170.45
489.309	7272.85
489.512	7225.75
489.716	7244.18
489.92	7133.59
490.124	7197.07
490.328	7469.45
490.531	7123.35
490.735	7416.21
490.939	7336.34
491.143	7414.16
491.346	7262.61
491.55	7446.93
491.754	7332.24
491.958	7584.14
492.161	7481.74
492.365	7625.1
492.569	7522.7
492.772	7534.99
492.976	7655.82
493.18	7528.85
493.383	7702.92
493.587	7864.71
493.79	7852.42
493.994	7709.07
494.197	7938.44
494.401	7854.47
494.605	7928.2
494.808	8176
495.012	8065.41
495.215	8106.37
495.419	8171.91
495.622	8147.33
495.825	8204.67
496.029	8233.35
496.232	8620.41
496.436	8292.74
496.639	8747.39
496.843	8743.29
497.046	8839.55
497.249	9027.96
497.453	9036.15
497.656	8970.62
497.859	9253.23
498.063	9152.88
498.266	9343.35
498.469	9236.85
498.673	9433.46
498.876	9707.88
499.079	9843.05
499.282	9697.64
499.485	10072.42
499.689	10021.22
499.892	10363.23
500.095	10137.96
500.298	10465.63
500.501	10369.38
500.705	10482.02
500.908	10783.07
501.111	10867.03
501.314	10963.29
501.517	11020.63
501.72	11221.33
501.923	11256.15
502.126	11587.92
502.329	11716.94
502.532	11682.13
502.735	11530.58
502.938	11815.24
503.141	11909.45
503.344	12069.19
503.547	12144.97
503.75	12443.97
503.953	12726.59
504.156	12826.94
504.359	12890.43
504.562	13021.5
504.765	13312.31
504.968	13320.5
505.17	13541.68
505.373	13603.12
505.576	13795.63
505.779	13652.27
505.982	13998.38
506.185	14381.35
506.387	14448.93
506.59	14426.4
506.793	14403.88
506.996	14731.55
507.198	15175.96
507.401	15157.53
507.604	15417.62
507.807	15671.57
508.009	15675.66
508.212	15784.21
508.415	15986.96
508.617	16288.01
508.82	16556.29
509.022	16169.23
509.225	16453.89
509.428	16806.14
509.63	17123.58
509.833	16877.82
510.035	17795.31
510.238	17344.76
510.44	17623.28
510.643	18045.16
510.845	18090.22
511.048	17887.47
511.25	18329.83
511.453	18714.85
511.655	19224.79
511.858	19024.09
512.06	19278.04
512.262	19337.43
512.465	19413.21
512.667	19871.95
512.87	20050.13
513.072	20250.83
513.274	20445.38
513.477	20598.98
513.679	20723.91
513.881	21061.82
514.084	21254.33
514.286	21160.13
514.488	21952.69
514.69	22198.45
514.893	22046.9
515.095	22393
515.297	22651.05
515.499	22780.07
515.701	23085.22
515.904	23263.39
516.106	23591.06
516.308	23607.45
516.51	24256.65
516.712	24135.82
516.914	24344.72
517.116	24791.17
517.318	24903.81
517.52	25323.65
517.722	25022.59
517.925	25657.46
518.127	25991.28
518.329	26253.42
518.531	26022
518.733	26617.96
518.935	27088.99
519.136	27095.14
519.338	27603.03
519.54	27871.32
519.742	28061.78
519.944	28078.16
520.146	28371.02
520.348	28831.82
520.55	28844.1
520.752	29083.72
520.954	29835.32
521.155	29257.79
521.357	29679.68
521.559	30277.68
521.761	30701.61
521.963	30318.64
522.164	30894.12
522.366	31172.64
522.568	31375.39
522.77	31508.51
522.971	31846.43
523.173	31692.83
523.375	32118.81
523.576	32151.57
523.778	32235.54
523.98	32989.19
524.181	33124.36
524.383	32729.1
524.584	33597.44
524.786	33480.71
524.988	33845.24
525.189	34189.3
525.391	34355.19
525.592	34400.24
525.794	34590.7
525.995	34828.27
526.197	34916.33
526.398	34766.83
526.6	34945
526.801	35454.95
527.003	35596.26
527.204	35727.33
527.406	35887.07
527.607	35911.64
527.808	36538.32
528.01	35964.89
528.211	36593.62
528.412	37111.75
528.614	36714.45
528.815	36665.3
529.016	37441.48
529.218	37156.81
529.419	37089.23
529.62	37113.8
529.822	37326.79
530.023	37277.64
530.224	37437.38
530.425	37697.47
530.626	37478.34
530.828	37580.74
531.029	37947.32
531.23	38033.34
531.431	38025.15
531.632	37892.03
531.833	37967.8
532.035	38324.15
532.236	38465.46
532.437	38166.46
532.638	38250.42
532.839	38492.08
533.04	38555.57
533.241	38201.27
533.442	39096.24
533.643	38420.41
533.844	38803.38
534.045	38932.4
534.246	38358.97
534.447	38858.67
534.648	38860.72
534.849	39040.94
535.05	38197.18
535.251	38703.03
535.451	38862.77
535.652	39036.84
535.853	38797.23
536.054	39303.08
536.255	39262.12
536.456	38877.1
536.657	39610.28
536.857	38666.16
537.058	38950.83
537.259	39219.11
537.46	39063.47
537.66	38948.78
537.861	39655.33
538.062	39061.42
538.263	39040.94
538.463	39110.57
538.664	39034.8
538.865	39059.37
539.065	39438.25
539.266	38860.72
539.466	39487.4
539.667	38565.81
539.868	39888.8
540.068	38866.86
540.269	38995.88
540.469	39182.25
540.67	39104.43
540.87	39040.94
541.071	39161.77
541.271	39018.41
541.472	39022.51
541.672	38449.08
541.873	38655.92
542.073	38227.9
542.274	39538.6
542.474	39194.54
542.675	38772.66
542.875	39235.5
543.075	39026.6
543.276	38723.51
543.476	39133.1
543.676	39088.04
543.877	38868.91
544.077	39014.32
544.277	38993.84
544.478	38885.29
544.678	39391.14
544.878	39045.04
545.078	38791.09
545.279	38731.7
545.479	38496.18
545.679	39161.77
545.879	38999.98
546.079	38989.74
546.28	38959.02
546.48	38649.78
546.68	38916.01
546.88	38868.91
547.08	38932.4
547.28	38715.31
547.48	38637.49
547.68	38983.6
547.88	38295.48
548.081	38774.7
548.281	38983.6
548.481	38885.29
548.681	38954.93
548.881	38772.66
549.081	38762.42
549.28	38487.99
549.48	38735.79
549.68	38911.92
549.88	39352.23
550.08	38512.56
550.28	39149.48
550.48	38807.47
550.68	38928.3
550.88	38399.93
551.08	38649.78
551.279	38956.97
551.479	38420.41
551.679	38801.33
551.879	38807.47
552.079	38862.77
552.278	38639.54
552.478	38666.16
552.678	38379.45
552.878	38879.15
553.077	38600.63
553.277	38006.72
553.477	38938.54
553.676	38602.67
553.876	38406.07
554.076	38727.6
554.275	38436.79
554.475	37726.14
554.674	38227.9
554.874	38381.49
555.074	38088.63
555.273	38533.04
555.473	38379.45
555.672	38195.13
555.872	38143.93
556.071	38449.08
556.271	38299.58
556.47	38115.26
556.67	37724.1
556.869	37922.75
557.068	38002.62
557.268	37978.04
557.467	37752.77
557.667	37588.93
557.866	37674.95
558.065	37582.79
558.265	37371.85
558.464	37058.51
558.663	37994.43
558.863	37136.33
559.062	37617.6
559.261	37246.92
559.461	37478.34
559.66	37138.38
559.859	36945.87
560.058	36800.46
560.258	37107.66
560.457	36982.73
560.656	37136.33
560.855	36745.17
561.054	36859.85
561.253	36265.94
561.453	36495.32
561.652	36470.74
561.851	36691.92
562.05	36255.7
562.249	36067.29
562.448	36261.85
562.647	36100.06
562.846	36128.73
563.045	35903.45
563.244	35534.82
563.443	36077.53
563.642	35602.4
563.841	35846.11
564.04	35131.37
564.239	35878.88
564.438	35397.6
564.637	35530.72
564.836	35233.77
565.035	34906.09
565.234	35186.66
565.432	34678.77
565.631	34772.97
565.83	35020.78
566.029	34840.56
566.228	34795.5
566.427	34697.2
566.625	34213.88
566.824	33982.46
567.023	34394.1
567.222	33730.56
567.42	34144.25
567.619	33710.08
567.818	33759.23
568.016	33808.38
568.215	33779.71
568.414	33419.27
568.612	33826.81
568.811	33454.08
569.01	33333.25
569.208	32962.57
569.407	33589.25
569.605	32778.25
569.804	33165.32
570.002	32503.82
570.201	32811.02
570.4	32389.14
570.598	32241.68
570.797	32317.46
570.995	32505.87
571.193	32114.71
571.392	32225.3
571.59	31559.71
571.789	32008.22
571.987	31709.21
572.186	31498.27
572.384	31301.67
572.582	31897.63
572.781	31502.37
572.979	30949.42
573.177	31238.18
573.376	31094.82
573.574	30750.76
573.772	30851.11
573.971	30687.28
574.169	30474.29
574.367	30400.56
574.565	30836.78
574.763	30470.19
574.962	30040.12
575.16	30359.6
575.358	30154.8
575.556	29954.1
575.754	30146.61
575.952	29536.32
576.151	29659.2
576.349	29655.1
576.547	29192.26
576.745	29354.05
576.943	29352
577.141	29372.48
577.339	29368.38
577.537	28948.55
577.735	29345.86
577.933	28723.27
578.131	28883.02
578.329	28678.22
578.527	28317.78
578.725	28338.26
578.923	28440.65
579.121	28375.12
579.319	28151.89
579.516	28498
579.714	27897.94
579.912	28145.75
580.11	27693.15
580.308	27973.72
580.506	27842.65
580.704	27377.76
580.901	27443.29
581.099	27953.24
581.297	27779.16
581.495	27111.52
581.692	27326.56
581.89	27029.6
582.088	27236.45
582.285	27078.75
582.483	26822.76
582.681	27160.67
582.878	26495.08
583.076	26640.49
583.274	26837.09
583.471	26257.52
583.669	26701.93
583.866	26355.82
584.064	26427.5
584.262	25952.37
584.459	26312.81
584.657	26386.54
584.854	26304.62
585.052	25862.26
585.249	26005.62
585.447	25970.8
585.644	25319.55
585.841	25385.08
586.039	25966.71
586.236	25307.26
586.434	25579.64
586.631	25104.51
586.828	25264.25
587.026	25299.07
587.223	25288.83
587.42	25301.12
587.618	25137.28
587.815	24770.69
588.012	24948.87
588.21	24719.49
588.407	24817.8
588.604	24545.42
588.801	24561.8
588.999	24653.96
589.196	24557.71
589.393	24119.44
589.59	24268.94
589.787	23818.39
589.984	24058
590.182	23683.22
590.379	23892.12
590.576	23861.4
590.773	23535.77
590.97	23810.2
591.167	23574.68
591.364	23195.81
591.561	23527.58
591.758	23386.27
591.955	23124.13
592.152	23021.73
592.349	22896.8
592.546	23345.31
592.743	23001.25
592.94	22493.35
593.137	22784.16
593.334	22919.33
593.531	22843.56
593.727	22511.78
593.924	22499.5
594.121	22440.11
594.318	22511.78
594.515	22339.76
594.712	22548.65
594.908	22225.07
595.105	22388.91
595.302	22034.61
595.499	22016.18
595.696	21858.48
595.892	21751.99
596.089	21919.92
596.286	21921.97
596.482	21864.63
596.679	21846.19
596.876	21635.25
597.072	21592.25
597.269	21622.97
597.466	21188.8
597.662	21194.94
597.859	21119.17
598.055	21303.48
598.252	21151.93
598.448	21096.64
598.645	21076.16
598.841	20715.72
599.038	20936.9
599.234	20906.18
599.431	20658.37
599.627	20576.45
599.824	20646.08
600.02	20695.24
600.217	20478.15
600.413	20342.99
600.609	20539.59
600.806	20269.26
601.002	20189.39
601.198	20152.52
601.395	19833.04
601.591	20091.09
601.787	20240.59
601.984	19966.16
602.18	20015.31
602.376	19665.11
602.572	19833.04
602.769	19867.86
602.965	19488.98
603.161	19593.43
603.357	19335.38
603.553	19658.96
603.75	19419.35
603.946	19296.47
604.142	19425.5
604.338	19103.96
604.534	19359.96
604.73	19232.99
604.926	18831.58
605.122	18940.13
605.318	18669.8
605.514	18946.27
605.71	18766.05
605.906	18757.86
606.102	18604.26
606.298	18784.48
606.494	18604.26
606.69	18485.48
606.886	18383.08
607.082	18352.36
607.278	18456.81
607.474	17856.75
607.67	18268.39
607.866	17953.01
608.062	18159.85
608.257	18110.7
608.453	17895.66
608.649	18004.21
608.845	17707.25
609.041	18034.92
609.236	17770.74
609.432	17840.37
609.628	17879.28
609.824	17621.24
610.019	17809.65
610.215	17551.6
610.411	17643.76
610.606	17371.38
610.802	17793.26
610.998	17539.32
611.193	17604.85
611.389	17473.78
611.584	17473.78
611.78	17109.24
611.976	17441.01
612.171	17322.23
612.367	17029.37
612.562	17103.1
612.758	17076.48
612.953	16967.93
613.149	17105.15
613.344	16685.31
613.539	17187.07
613.735	16961.79
613.93	16978.17
614.126	16765.18
614.321	17215.74
614.517	16732.42
614.712	16912.64
614.907	16525.57
615.103	16466.18
615.298	16453.89
615.493	16744.7
615.688	16335.11
615.884	16783.62
616.079	16429.32
616.274	16414.98
616.47	16206.09
616.665	16220.42
616.86	16267.53
617.055	16419.08
617.25	16169.23
617.445	16167.18
617.641	15833.36
617.836	16156.94
618.031	15845.65
618.226	16060.68
618.421	16032.01
618.616	15911.18
618.811	15671.57
619.006	15810.83
619.201	15403.28
619.396	15544.59
619.591	15440.15
619.786	15630.61
619.981	15503.64
620.176	15329.56
620.371	15128.86
620.566	15427.86
620.761	15169.82
620.956	15311.13
621.151	14934.3
621.346	15137.05
621.541	14846.24
621.735	14942.49
621.93	14731.55
622.125	14903.58
622.32	14620.96
622.515	14653.73
622.709	14358.82
622.904	14520.61
623.099	14346.53
623.294	14342.44
623.488	14025
623.683	14297.38
623.878	14119.21
624.072	14076.2
624.267	13936.94
624.462	13797.68
624.656	13506.87
624.851	13777.2
625.046	13611.31
625.24	13650.22
625.435	13351.22
625.629	13498.67
625.824	13437.23
626.018	13101.37
626.213	12898.62
626.407	12972.35
626.602	12886.33
626.796	12986.68
626.991	12845.37
627.185	12906.81
627.38	12857.66
627.574	12749.12
627.768	12611.9
627.963	12589.38
628.157	12509.51
628.352	12329.28
628.546	12337.48
628.74	12249.41
628.935	12056.9
629.129	12118.34
629.323	12077.38
629.517	11964.75
629.712	12097.86
629.906	11845.96
630.1	11811.15
630.294	11825.48
630.489	11733.32
630.683	11614.54
630.877	11551.06
631.071	11485.52
631.265	11727.18
631.459	11532.62
631.653	11151.7
631.848	11016.54
632.042	11166.04
632.236	11385.17
632.43	11161.94
632.624	11120.98
632.818	10860.89
633.012	10877.27
633.206	10918.23
633.4	10821.98
633.594	10664.29
633.788	10858.84
633.982	10715.48
634.176	10654.05
634.369	10441.06
634.563	10594.65
634.757	10381.67
634.951	10494.3
635.145	10400.1
635.339	10303.84
635.533	10101.09
635.726	10254.69
635.92	10010.98
636.114	10025.32
636.308	10154.34
636.501	10090.85
636.695	9931.11
636.889	9867.63
637.083	10051.94
637.276	9763.18
637.47	9804.14
637.664	9585.01
637.857	9505.13
638.051	9591.15
638.244	9333.11
638.438	9535.85
638.632	9478.51
638.825	9210.23
639.019	9369.97
639.212	9240.95
639.406	9339.25
639.599	9208.18
639.793	9085.3
639.986	8831.35
640.18	9105.78
640.373	8827.26
640.567	8667.52
640.76	8802.68
640.954	8712.57
641.147	8577.41
641.34	8655.23
641.534	8860.02
641.727	8694.14
641.92	8710.52
642.114	8317.31
642.307	8448.38
642.5	8190.34
642.694	8350.08
642.887	8319.36
643.08	8313.22
643.273	8354.18
643.467	8081.8
643.66	7917.96
643.853	8300.93
644.046	7973.25
644.239	8122.76
644.432	7721.35
644.626	7897.48
644.819	7678.35
645.012	7799.18
645.205	7629.2
645.398	7768.46
645.591	7487.89
645.784	7602.57
645.977	7391.63
646.17	7596.43
646.363	7424.4
646.556	7385.49
646.749	7203.22
646.942	7516.56
647.135	7342.48
647.328	7309.71
647.521	7430.54
647.714	7129.49
647.907	7238.03
648.099	7252.37
648.292	7123.35
648.485	6990.23
648.678	7014.8
648.871	6863.26
649.064	7043.48
649.256	6885.78
649.449	6922.65
649.642	6814.1
649.835	6691.23
650.027	6767
650.22	6810.01
650.413	6734.23
650.605	6764.95
650.798	6594.97
650.991	6504.86
651.183	6455.71
651.376	6371.74
651.568	6447.52
651.761	6455.71
651.954	6377.89
652.146	6283.68
652.339	6236.58
652.531	6324.64
652.724	6164.9
652.916	6386.08
653.109	6232.48
653.301	6121.89
653.494	6279.58
653.686	5908.9
653.879	6119.84
654.071	6078.88
654.263	6064.55
654.456	5978.53
654.648	6039.97
654.84	5947.81
655.033	5921.19
655.225	5945.77
655.417	5636.52
655.61	5853.61
655.802	5714.34
655.994	5691.82
656.186	5726.63
656.379	5767.59
656.571	5663.15
656.763	5657
656.955	5654.95
657.148	5722.54
657.34	5507.5
657.532	5642.67
657.724	5691.82
657.916	5448.11
658.108	5427.63
658.3	5435.82
658.492	5349.81
658.684	5284.27
658.876	5292.46
659.068	5331.37
659.26	5325.23
659.452	5331.37
659.644	5314.99
659.836	5216.69
660.028	5292.46
660.22	5210.54
660.412	5308.85
660.604	5138.87
660.796	5255.6
660.988	5173.68
661.18	4977.08
661.372	5083.57
661.563	5009.84
661.755	4940.21
661.947	5108.15
662.139	4876.73
662.331	4839.86
662.522	4911.54
662.714	4862.39
662.906	4772.28
663.097	4913.59
663.289	4809.14
663.481	4575.67
663.673	4786.61
663.864	4678.07
664.056	4575.67
664.247	4811.19
664.439	4628.92
664.631	4737.46
664.822	4710.84
665.014	4581.82
665.205	4551.1
665.397	4489.66
665.588	4592.06
665.78	4565.43
665.971	4676.02
666.163	4567.48
666.354	4547
666.546	4491.71
666.737	4434.36
666.929	4215.23
667.12	4422.08
667.311	4401.6
667.503	4409.79
667.694	4327.87
667.885	4321.73
668.077	4368.83
668.268	4291.01
668.459	4385.21
668.651	4291.01
668.842	4350.4
669.033	4223.42
669.224	4143.55
669.416	4233.66
669.607	4198.85
669.798	4215.23
669.989	4194.75
670.18	4233.66
670.371	4108.74
670.563	4008.39
670.754	4293.05
670.945	4174.27
671.136	4174.27
671.327	4118.98
671.518	4114.88
671.709	4069.83
671.9	4286.91
672.091	4014.53
672.282	4045.25
672.473	4078.02
672.664	4018.63
672.855	4104.64
673.046	4106.69
673.237	4051.39
673.428	4035.01
673.619	4022.72
673.809	4006.34
674	4010.43
674.191	3992
674.382	3934.66
674.573	3926.47
674.764	3985.86
674.954	4069.83
675.145	3828.17
675.336	3992
675.527	3928.52
675.717	3979.72
675.908	3967.43
676.099	3914.18
676.289	3930.56
676.48	3873.22
676.671	3908.04
676.861	4039.11
677.052	3905.99
677.243	3877.32
677.433	3977.67
677.624	4078.02
677.814	3953.09
678.005	3989.96
678.195	4090.31
678.386	3813.83
678.576	3987.91
678.767	3809.73
678.957	3875.27
679.148	3936.71
679.338	3961.28
679.529	3905.99
679.719	3854.79
679.909	4012.48
680.1	3817.93
680.29	3998.15
680.481	3905.99
680.671	3981.76
680.861	3901.89
681.052	4008.39
681.242	3903.94
681.432	3942.85
681.622	3949
681.813	3899.84
682.003	3819.97
682.193	3846.6
682.383	3834.31
682.573	3828.17
682.764	3883.46
682.954	3994.05
683.144	3905.99
683.334	3865.03
683.524	3793.35
683.714	3899.84
683.904	3920.32
684.094	3817.93
684.284	3811.78
684.474	3858.89
684.664	3803.59
684.854	3842.5
685.044	3783.11
685.234	3744.2
685.424	3803.59
685.614	3635.66
685.804	3977.67
685.994	3854.79
686.184	3811.78
686.374	3899.84
686.564	3772.87
686.753	3809.73
686.943	3871.17
687.133	3770.82
687.323	3621.32
687.513	3883.46
687.702	3766.73
687.892	3609.03
688.082	3592.65
688.272	3697.1
688.461	3473.87
688.651	3647.94
688.841	3596.75
689.03	3598.79
689.22	3617.22
689.41	3693
689.599	3588.55
689.789	3490.25
689.979	3506.63
690.168	3627.46
690.358	3428.81
690.547	3434.96
690.737	3477.96
690.926	3445.2
691.116	3437
691.305	3385.8
691.495	3449.29
691.684	3338.7
691.874	3418.57
692.063	3371.47
692.252	3381.71
692.442	3336.65
692.631	3310.03
692.82	3293.65
693.01	3338.7
693.199	3207.63
693.388	3252.69
693.578	3332.56
693.767	3234.25
693.956	3154.38
694.146	3189.2
694.335	3133.9
694.524	3099.09
694.713	3119.57
694.902	3150.29
695.092	3189.2
695.281	3078.61
695.47	3187.15
695.659	3051.99
695.848	3107.28
696.037	3191.25
696.226	3201.49
696.415	3045.84
696.604	3115.47
696.793	3148.24
696.982	3135.95
697.171	3224.01
697.36	3011.03
697.549	3013.07
697.738	3117.52
697.927	3033.55
698.116	3148.24
698.305	3127.76
698.494	3127.76
698.683	3064.27
698.872	3092.94
699.061	3125.71
699.25	3056.08
699.438	3123.66
699.627	3027.41
699.816	3031.51
700.005	3066.32
700.193	3078.61
700.382	3090.9
700.571	3142.1
700.76	3185.1
700.948	3215.82
701.137	3033.55
701.326	3041.75
701.514	3213.77
701.703	3072.47
701.892	3094.99
702.08	3150.29
702.269	3162.58
702.457	3002.83
702.646	3084.75
702.834	3062.23
703.023	3092.94
703.212	3101.14
703.4	3195.34
703.589	3066.32
703.777	3181.01
703.965	3084.75
704.154	3043.79
704.342	3086.8
704.531	3142.1
704.719	3181.01
704.907	3156.43
705.096	3017.17
705.284	3150.29
705.472	3099.09
705.661	3039.7
705.849	3183.06
706.037	3060.18
706.226	3097.04
706.414	3189.2
706.602	3017.17
706.79	3207.63
706.979	3105.23
707.167	3115.47
707.355	3080.66
707.543	3170.77
707.731	3174.86
707.919	3191.25
708.107	3146.19
708.296	2986.45
708.484	3107.28
708.672	3203.54
708.86	3049.94
709.048	3113.42
709.236	3105.23
709.424	3158.48
709.612	3236.3
709.8	3117.52
709.988	3209.68
710.176	3299.79
710.364	3258.83
710.551	3340.75
710.739	3275.21
710.927	3305.93
711.115	3125.71
711.303	3191.25
711.491	3328.46
711.679	3166.67
711.866	3252.69
712.054	3205.58
712.242	3240.4
712.43	3279.31
712.617	3258.83
712.805	3396.04
712.993	3353.04
713.181	3318.22
713.368	3312.08
713.556	3387.85
713.744	3207.63
713.931	3277.26
714.119	3250.64
714.306	3299.79
714.494	3221.97
714.682	3336.65
714.869	3312.08
715.057	3318.22
715.244	3324.37
715.432	3312.08
715.619	3338.7
715.807	3269.07
715.994	3279.31
716.182	3346.89
716.369	3439.05
716.556	3531.21
716.744	3404.24
716.931	3318.22
717.119	3469.77
717.306	3285.45
717.493	3383.76
717.681	3492.3
717.868	3346.89
718.055	3437
718.242	3477.96
718.43	3455.44
718.617	3504.59
718.804	3324.37
718.991	3420.62
719.179	3404.24
719.366	3416.52
719.553	3469.77
719.74	3449.29
719.927	3484.11
720.114	3506.63
720.301	3531.21
720.488	3432.91
720.676	3547.59
720.863	3449.29
721.05	3598.79
721.237	3559.88
721.424	3410.38
721.611	3539.4
721.798	3533.26
721.985	3557.83
722.172	3561.93
722.358	3467.72
722.545	3606.98
722.732	3566.03
722.919	3500.49
723.106	3469.77
723.293	3574.22
723.48	3553.74
723.667	3582.41
723.853	3559.88
724.04	3531.21
724.227	3578.31
724.414	3582.41
724.6	3563.98
724.787	3518.92
724.974	3576.27
725.161	3727.82
725.347	3541.45
725.534	3641.8
725.72	3619.27
725.907	3699.14
726.094	3699.14
726.28	3584.46
726.467	3588.55
726.653	3658.18
726.84	3604.94
727.027	3729.86
727.213	3678.66
727.4	3762.63
727.586	3666.38
727.773	3824.07
727.959	3770.82
728.145	3672.52
728.332	3776.97
728.518	3910.08
728.705	3748.29
728.891	3672.52
729.077	3817.93
729.264	3641.8
729.45	3756.49
729.636	3996.1
729.823	3844.55
730.009	3682.76
730.195	3693
730.382	3822.02
730.568	3776.97
730.754	3856.84
730.94	3715.53
731.126	3875.27
731.313	3899.84
731.499	3844.55
731.685	3693
731.871	3703.24
732.057	3793.35
732.243	3877.32
732.429	3856.84
732.615	3774.92
732.801	3832.26
732.987	3811.78
733.173	3793.35
733.359	3961.28
733.545	3824.07
733.731	3936.71
733.917	3797.45
734.103	3891.65
734.289	3910.08
734.475	3903.94
734.661	3926.47
734.847	3828.17
735.033	3832.26
735.219	3887.56
735.404	3854.79
735.59	3838.41
735.776	3903.94
735.962	3844.55
736.148	3938.76
736.333	3822.02
736.519	3805.64
736.705	3858.89
736.89	3770.82
737.076	3709.38
737.262	3793.35
737.447	3914.18
737.633	3832.26
737.819	3836.36
738.004	3854.79
738.19	3770.82
738.375	3801.54
738.561	4000.19
738.747	3805.64
738.932	3701.19
739.118	3811.78
739.303	3750.34
739.489	3865.03
739.674	3772.87
739.859	3912.13
740.045	3891.65
740.23	3824.07
740.416	3754.44
740.601	3662.28
740.786	3611.08
740.972	3789.25
741.157	3729.86
741.342	3563.98
741.528	3842.5
741.713	3701.19
741.898	3695.05
742.084	3641.8
742.269	3637.7
742.454	3602.89
742.639	3783.11
742.824	3682.76
743.01	3674.57
743.195	3760.58
743.38	3643.85
743.565	3512.78
743.75	3629.51
743.935	3545.55
744.12	3621.32
744.305	3418.57
744.49	3543.5
744.675	3572.17
744.86	3404.24
745.045	3527.11
745.23	3529.16
745.415	3434.96
745.6	3563.98
745.785	3553.74
745.97	3447.24
746.155	3357.13
746.34	3305.93
746.525	3348.94
746.71	3520.97
746.895	3273.17
747.079	3353.04
747.264	3230.16
747.449	3283.41
747.634	3258.83
747.819	3211.73
748.003	3219.92
748.188	3140.05
748.373	3164.62
748.557	3301.84
748.742	3181.01
748.927	3119.57
749.111	3092.94
749.296	3273.17
749.481	3150.29
749.665	3154.38
749.85	2916.82
750.034	3117.52
750.219	3064.27
750.404	3031.51
750.588	2980.31
750.773	2988.5
750.957	2937.3
751.141	3152.34
751.326	2935.25
751.51	2843.09
751.695	2802.13
751.879	3039.7
752.064	2910.68
752.248	2832.85
752.432	2804.18
752.617	2865.62
752.801	2761.17
752.985	2791.89
753.17	2695.64
753.354	2814.42
753.538	2875.86
753.722	2740.69
753.907	2687.45
754.091	2599.38
754.275	2634.2
754.459	2673.11
754.643	2595.29
754.828	2650.58
755.012	2550.23
755.196	2488.79
755.38	2556.38
755.564	2484.7
755.748	2456.03
755.932	2488.79
756.116	2339.29
756.3	2490.84
756.484	2388.44
756.668	2404.83
756.852	2259.42
757.036	2415.07
757.22	2380.25
757.404	2398.68
757.588	2324.96
757.772	2310.62
757.956	2232.8
758.14	2222.56
758.323	2243.04
758.507	2189.79
758.691	2140.64
758.875	2185.69
759.059	2202.08
759.242	2222.56
759.426	2183.65
759.61	2232.8
759.794	2154.98
759.977	2197.98
760.161	2292.19
760.345	2165.21
760.528	2152.93
760.712	2058.72
760.895	2124.26
761.079	2159.07
761.263	2001.38
761.446	2079.2
761.63	2007.52
761.813	2050.53
761.997	2042.34
762.18	2052.58
762.364	2236.89
762.547	1901.03
762.731	2101.73
762.914	1913.31
763.098	1952.23
763.281	1901.03
763.464	1995.23
763.648	1997.28
763.831	1933.79
764.015	1862.12
764.198	1939.94
764.381	1933.79
764.564	1925.6
764.748	1880.55
764.931	1782.24
765.114	1800.68
765.297	1894.88
765.481	1798.63
765.664	1817.06
765.847	1827.3
766.03	1817.06
766.213	1845.73
766.397	1688.04
766.58	1737.19
766.763	1823.2
766.946	1825.25
767.129	1831.4
767.312	1741.29
767.495	1765.86
767.678	1667.56
767.861	1769.96
768.044	1767.91
768.227	1733.09
768.41	1690.09
768.593	1640.93
768.776	1632.74
768.959	1618.41
769.142	1634.79
769.324	1800.68
769.507	1626.6
769.69	1663.46
769.873	1595.88
770.056	1513.96
770.239	1628.65
770.421	1706.47
770.604	1593.83
770.787	1546.73
770.97	1524.2
771.152	1462.76
771.335	1524.2
771.518	1499.63
771.7	1571.3
771.883	1526.25
772.066	1546.73
772.248	1440.23
772.431	1552.87
772.613	1501.67
772.796	1491.43
772.978	1497.58
773.161	1468.91
773.343	1391.08
773.526	1444.33
773.708	1497.58
773.891	1419.75
774.073	1401.32
774.256	1423.85
774.438	1475.05
774.621	1325.55
774.803	1327.6
774.985	1436.14
775.168	1346.03
775.35	1329.64
775.532	1376.75
775.715	1354.22
775.897	1335.79
776.079	1292.78
776.261	1339.88
776.444	1257.96
776.626	1272.3
776.808	1321.45
776.99	1251.82
777.173	1331.69
777.355	1262.06
777.537	1278.44
777.719	1141.23
777.901	1225.2
778.083	1237.49
778.265	1075.7
778.447	1210.86
778.629	1206.77
778.811	1184.24
778.993	1210.86
779.175	1178.09
779.357	1141.23
779.539	1094.13
779.721	1210.86
779.903	1094.13
780.085	1069.55
780.267	975.35
780.449	1008.11
780.631	1022.45
780.812	1073.65
780.994	924.15
781.176	1016.3
781.358	1022.45
781.54	1067.5
781.721	920.05
781.903	1014.26
782.085	1036.78
782.267	1010.16
782.448	864.75
782.63	881.14
782.812	905.71
782.993	958.96
783.175	963.06
783.357	911.86
783.538	944.63
783.72	870.9
783.901	850.42
784.083	887.28
784.264	903.67
784.446	805.36
784.627	952.82
784.809	852.47
784.99	811.51
785.172	965.11
785.353	831.99
785.535	786.93
785.716	842.23
785.897	698.87
786.079	827.89
786.26	784.88
786.441	745.97
786.623	770.55
786.804	727.54
786.985	764.4
787.167	752.12
787.348	776.69
787.529	752.12
787.71	766.45
787.891	768.5
788.073	764.4
788.254	748.02
788.435	725.49
788.616	743.92
788.797	670.2
788.978	766.45
789.159	659.96
789.34	766.45
789.522	705.01
789.703	637.43
789.884	700.92
790.065	688.63
790.246	676.34
790.427	772.6
790.607	817.65
790.788	692.73
790.969	670.2
791.15	692.73
791.331	686.58
791.512	645.62
791.693	569.85
791.874	635.38
792.054	715.25
792.235	606.71
792.416	606.71
792.597	573.94
792.778	674.29
792.958	635.38
793.139	627.19
793.32	551.42
793.5	545.27
793.681	629.24
793.862	479.74
794.042	565.75
794.223	545.27
794.404	567.8
794.584	510.46
794.765	506.36
794.945	553.46
795.126	543.22
795.306	606.71
795.487	592.37
795.667	459.26
795.848	463.35
796.028	520.7
796.209	553.46
796.389	494.07
796.57	477.69
796.75	481.78
796.93	489.98
797.111	473.59
797.291	543.22
797.471	518.65
797.652	420.35
797.832	463.35
798.012	465.4
798.192	449.02
798.373	453.11
798.553	465.4
798.733	481.78
798.913	397.82
799.093	416.25
799.274	461.3
799.454	502.26
799.634	442.87
799.814	516.6
799.994	434.68
800.174	434.68
800.354	436.73
800.534	391.67
800.714	475.64
800.894	410.11
801.074	455.16
801.254	416.25
801.434	387.58
801.614	457.21
801.794	463.35
801.974	1163.76
802.154	383.48
802.334	412.15
802.514	414.2
802.693	438.78
802.873	408.06
803.053	358.91
803.233	426.49
803.413	367.1
803.592	332.28
803.772	371.19
803.952	371.19
804.131	420.35
804.311	449.02
804.491	432.63
804.67	356.86
804.85	373.24
805.03	410.11
805.209	391.67
805.389	336.38
805.568	367.1
805.748	338.43
805.928	375.29
806.107	358.91
806.287	385.53
806.466	289.28
806.646	309.76
806.825	334.33
807.004	352.76
807.184	336.38
807.363	424.44
807.543	383.48
807.722	332.28
807.901	389.63
808.081	408.06
808.26	217.6
808.439	311.8
808.619	295.42
808.798	320
808.977	197.12
809.156	371.19
809.336	395.77
809.515	352.76
809.694	279.04
809.873	369.15
810.052	334.33
810.231	369.15
810.411	293.37
810.59	336.38
810.769	334.33
810.948	367.1
811.127	256.51
811.306	283.13
811.485	266.75
811.664	320
811.843	315.9
812.022	283.13
812.201	254.46
812.38	348.67
812.559	326.14
812.737	272.89
812.916	283.13
813.095	258.56
813.274	297.47
813.453	270.84
813.632	340.47
813.811	188.93
813.989	274.94
814.168	285.18
814.347	313.85
814.526	320
814.704	332.28
814.883	375.29
815.062	268.8
815.24	317.95
815.419	207.36
815.598	283.13
815.776	240.12
815.955	240.12
816.133	287.23
816.312	307.71
816.49	233.98
816.669	317.95
816.847	225.79
817.026	301.56
817.204	305.66
817.383	207.36
817.561	266.75
817.74	213.5
817.918	186.88
818.097	201.21
818.275	215.55
818.453	272.89
818.632	201.21
818.81	223.74
818.988	219.64
819.167	209.4
819.345	289.28
819.523	156.16
819.701	209.4
819.879	215.55
820.058	301.56
820.236	123.39
820.414	193.02
820.592	180.73
820.77	195.07
820.948	197.12
821.127	154.11
821.305	244.22
821.483	205.31
821.661	293.37
821.839	188.93
822.017	170.49
822.195	188.93
822.373	266.75
822.551	158.21
822.729	291.32
822.907	125.44
823.085	295.42
823.262	184.83
823.44	201.21
823.618	188.93
823.796	197.12
823.974	164.35
824.152	201.21
824.329	178.69
824.507	217.6
824.685	242.17
824.863	217.6
825.04	199.16
825.218	188.93
825.396	225.79
825.574	184.83
825.751	203.26
825.929	213.5
826.107	248.32
826.284	190.97
826.462	205.31
826.639	213.5
826.817	172.54
826.994	143.87
827.172	127.49
827.349	229.88
827.527	168.45
827.704	162.3
827.882	209.4
828.059	211.45
828.237	145.92
828.414	231.93
828.591	133.63
828.769	182.78
828.946	166.4
829.124	203.26
829.301	145.92
829.478	209.4
829.655	176.64
829.833	176.64
830.01	94.72
830.187	170.49
830.364	182.78
830.542	199.16
830.719	209.4
830.896	94.72
831.073	96.77
831.25	147.97
831.427	125.44
831.604	145.92
831.782	64
831.959	88.57
832.136	133.63
832.313	188.93
832.49	100.86
832.667	166.4
832.844	107.01
833.021	201.21
833.198	107.01
833.374	107.01
833.551	133.63
833.728	90.62
833.905	131.58
834.082	135.68
834.259	131.58
834.436	107.01
834.612	117.25
834.789	170.49
834.966	84.48
835.143	135.68
835.319	84.48
835.496	172.54
835.673	160.25
835.85	147.97
836.026	117.25
836.203	215.55
836.38	123.39
836.556	109.05
836.733	59.9
836.909	178.69
837.086	76.29
837.262	170.49
837.439	74.24
837.616	121.34
837.792	16.9
837.968	100.86
838.145	27.14
838.321	90.62
838.498	111.1
838.674	127.49
838.851	158.21
839.027	72.19
839.203	160.25
839.38	147.97
839.556	102.91
839.732	131.58
839.909	119.29
840.085	207.36
840.261	12.8
840.437	88.57
840.614	100.86
840.79	190.97
840.966	135.68
841.142	152.06
841.318	96.77
841.494	203.26
841.671	158.21
841.847	90.62
842.023	92.67
842.199	96.77
842.375	168.45
842.551	47.62
842.727	72.19
842.903	123.39
843.079	66.05
843.255	160.25
843.431	133.63
843.607	133.63
843.783	10.75
843.959	29.18
844.134	72.19
844.31	156.16
844.486	80.38
844.662	94.72
844.838	90.62
845.013	113.15
845.189	133.63
845.365	182.78
845.541	139.77
845.716	113.15
845.892	176.64
846.068	80.38
846.244	10.75
846.419	133.63
846.595	129.53
846.77	104.96
846.946	55.81
847.122	121.34
847.297	125.44
847.473	109.05
847.648	64
847.824	45.57
847.999	16.9
848.175	49.66
848.35	80.38
848.526	119.29
848.701	109.05
848.876	115.2
849.052	127.49
849.227	86.53
849.403	100.86
849.578	80.38
849.753	41.47
849.929	100.86
850.104	27.14
850.279	74.24
850.454	100.86
850.63	70.14
850.805	23.04
850.98	66.05
851.155	-7.68
851.33	104.96
851.505	162.3
851.681	133.63
851.856	47.62
852.031	49.66
852.206	80.38
852.381	64
852.556	39.42
852.731	141.82
852.906	88.57
853.081	80.38
853.256	72.19
853.431	18.94
853.606	59.9
853.781	4.61
853.956	33.28
854.131	90.62
854.305	57.86
854.48	25.09
854.655	86.53
854.83	39.42
855.005	43.52
855.18	25.09
855.354	88.57
855.529	78.33
855.704	37.38
855.879	137.73
856.053	-1.54
856.228	6.66
856.403	10.75
856.577	98.81
856.752	10.75
856.926	84.48
857.101	113.15
857.276	57.86
857.45	61.95
857.625	160.25
857.799	57.86
857.974	49.66
858.148	-7.68
858.323	43.52
858.497	74.24
858.672	35.33
858.846	94.72
859.02	49.66
859.195	125.44
859.369	66.05
859.543	14.85
859.718	16.9
859.892	8.7
860.066	53.76
860.241	59.9
860.415	-1.54
860.589	53.76
860.763	129.53
860.938	117.25
861.112	96.77
861.286	16.9
861.46	57.86
861.634	47.62
861.808	78.33
861.982	-7.68
862.157	82.43
862.331	-9.73
862.505	20.99
862.679	-17.92
862.853	53.76
863.027	98.81
863.201	137.73
863.375	61.95
863.549	84.48
863.722	43.52
863.896	107.01
864.07	61.95
864.244	0.51
864.418	31.23
864.592	107.01
864.766	43.52
864.939	100.86
865.113	29.18
865.287	121.34
865.461	39.42
865.634	92.67
865.808	68.09
865.982	117.25
866.156	121.34
866.329	72.19
866.503	14.85
866.676	37.38
866.85	35.33
867.024	-32.26
867.197	72.19
867.371	61.95
867.544	70.14
867.718	-24.06
867.891	39.42
868.065	-15.87
868.238	107.01
868.412	6.66
868.585	55.81
868.759	0.51
868.932	10.75
869.105	96.77
869.279	78.33
869.452	-34.3
869.625	102.91
869.799	37.38
869.972	18.94
870.145	25.09
870.319	57.86
870.492	27.14
870.665	4.61
870.838	25.09
871.011	-11.78
871.185	-1.54
871.358	6.66
871.531	61.95
871.704	111.1
871.877	10.75
872.05	82.43
872.223	-1.54
872.396	78.33
872.569	72.19
872.742	0.51
872.915	16.9
873.088	57.86
873.261	8.7
873.434	68.09
873.607	37.38
873.78	94.72
873.953	-11.78
874.126	59.9
874.299	45.57
874.471	2.56
874.644	47.62
874.817	25.09
874.99	31.23
875.163	-34.3
875.335	4.61
875.508	59.9
875.681	76.29
875.853	55.81
876.026	41.47
876.199	84.48
876.371	29.18
876.544	76.29
876.717	66.05
876.889	53.76
877.062	131.58
877.234	10.75
877.407	129.53
877.579	-15.87
877.752	74.24
877.924	35.33
878.097	47.62
878.269	20.99
878.442	49.66
878.614	39.42
878.786	12.8
878.959	31.23
879.131	31.23
879.303	-13.82
879.476	18.94
879.648	61.95
879.82	6.66
879.993	33.28
880.165	39.42
880.337	-1.54
880.509	-13.82
880.681	-17.92
880.854	8.7
881.026	100.86
881.198	33.28
881.37	2.56
881.542	137.73
881.714	-5.63
881.886	94.72
882.058	-34.3
882.23	41.47
882.402	20.99
882.574	104.96
882.746	82.43
882.918	49.66
883.09	64
883.262	-52.74
883.434	61.95
883.606	55.81
883.778	-48.64
883.95	133.63
884.122	59.9
884.293	-36.35
884.465	23.04
884.637	39.42
884.809	61.95
884.98	74.24
885.152	31.23
885.324	0.51
885.496	20.99
885.667	-11.78
885.839	31.23
886.011	6.66
886.182	59.9
886.354	-19.97
886.525	92.67
886.697	20.99
886.869	-42.5
887.04	-26.11
887.212	51.71
887.383	25.09
887.555	-3.58
887.726	-28.16
887.897	-32.26
888.069	49.66
888.24	33.28
888.412	14.85
888.583	76.29
888.754	-7.68
888.926	-69.12
889.097	55.81
889.268	27.14
889.44	35.33
889.611	25.09
889.782	-13.82
889.953	25.09
890.125	53.76
890.296	18.94
890.467	-19.97
890.638	-5.63
890.809	41.47
890.98	20.99
891.151	33.28
891.323	23.04
891.494	82.43
891.665	6.66
891.836	64
892.007	-26.11
892.178	72.19
892.349	96.77
892.52	-9.73
892.691	10.75
892.862	6.66
893.032	-40.45
893.203	35.33
893.374	33.28
893.545	10.75
893.716	45.57
893.887	37.38
894.057	25.09
894.228	4.61
894.399	33.28
894.57	72.19
894.74	47.62
894.911	66.05
895.082	31.23
895.253	-22.02
895.423	94.72
895.594	23.04
895.764	14.85
895.935	25.09
896.106	43.52
896.276	55.81
896.447	2.56
896.617	-19.97
896.788	-30.21
896.958	29.18
897.129	-36.35
897.299	6.66
897.47	66.05
897.64	20.99
897.81	-38.4
897.981	2.56
898.151	-1.54
898.322	-26.11
898.492	16.9
898.662	31.23
898.832	41.47
899.003	4.61
899.173	45.57
899.343	-15.87
899.513	12.8
