Data from USB4F104151__19__12-23-27-417.txt Node

Date: Fri Mar 14 12:23:27 EDT 2025
User: louis
Spectrometer: USB4F10415
Trigger mode: 4
Integration Time (sec): 3.500000E-2
Scans to average: 1
Electric dark correction enabled: true
Nonlinearity correction enabled: false
Boxcar width: 0
XAxis mode: Wavelengths
Number of Pixels in Spectrum: 3648
>>>>>Begin Spectral Data<<<<<
178.204	-108.54
178.424	-108.54
178.644	-108.54
178.864	-172.03
179.084	-208.89
179.304	-32.77
179.524	-24.58
179.744	-36.86
179.964	94.21
180.184	45.06
180.404	28.67
180.624	-36.86
180.844	83.97
181.064	-126.97
181.283	16.38
181.503	-57.34
181.723	47.1
181.943	-34.82
182.163	20.48
182.383	69.63
182.602	94.21
182.822	45.06
183.042	26.62
183.262	-12.29
183.482	-18.43
183.701	43.01
183.921	22.53
184.141	-28.67
184.361	-4.1
184.58	43.01
184.8	63.49
185.02	-51.2
185.239	10.24
185.459	65.54
185.679	51.2
185.898	94.21
186.118	61.44
186.338	24.58
186.557	81.92
186.777	-32.77
186.997	28.67
187.216	36.86
187.436	65.54
187.655	63.49
187.875	69.63
188.095	49.15
188.314	69.63
188.534	94.21
188.753	-6.14
188.973	77.82
189.192	86.01
189.412	12.29
189.631	12.29
189.851	63.49
190.07	83.97
190.29	12.29
190.509	-4.1
190.729	-2.05
190.948	96.25
191.168	106.49
191.387	53.25
191.607	2.05
191.826	-63.49
192.045	-6.14
192.265	-55.3
192.484	-20.48
192.704	-28.67
192.923	-12.29
193.142	49.15
193.362	75.77
193.581	24.58
193.8	8.19
194.02	92.16
194.239	-2.05
194.458	10.24
194.678	61.44
194.897	-4.1
195.116	71.68
195.335	83.97
195.555	-10.24
195.774	61.44
195.993	-6.14
196.212	-28.67
196.432	-34.82
196.651	-20.48
196.87	26.62
197.089	63.49
197.308	53.25
197.528	63.49
197.747	-32.77
197.966	49.15
198.185	100.35
198.404	-10.24
198.623	53.25
198.842	75.77
199.062	67.58
199.281	38.91
199.5	49.15
199.719	0
199.938	-2.05
200.157	22.53
200.376	102.4
200.595	10.24
200.814	12.29
201.033	0
201.252	-34.82
201.471	141.31
201.69	86.01
201.909	69.63
202.128	28.67
202.347	20.48
202.566	-4.1
202.785	16.38
203.004	20.48
203.223	69.63
203.442	126.97
203.661	69.63
203.879	106.49
204.098	4.1
204.317	36.86
204.536	94.21
204.755	-6.14
204.974	18.43
205.193	-22.53
205.411	83.97
205.63	65.54
205.849	-26.62
206.068	108.54
206.287	-8.19
206.505	12.29
206.724	57.34
206.943	8.19
207.162	0
207.381	16.38
207.599	8.19
207.818	22.53
208.037	-12.29
208.255	0
208.474	10.24
208.693	100.35
208.911	55.3
209.13	-10.24
209.349	28.67
209.567	16.38
209.786	57.34
210.005	65.54
210.223	69.63
210.442	-47.1
210.661	49.15
210.879	28.67
211.098	14.34
211.316	30.72
211.535	94.21
211.753	40.96
211.972	59.39
212.191	-4.1
212.409	-18.43
212.628	-18.43
212.846	-49.15
213.065	22.53
213.283	120.83
213.502	22.53
213.72	-34.82
213.938	47.1
214.157	4.1
214.375	14.34
214.594	6.14
214.812	30.72
215.031	40.96
215.249	61.44
215.467	75.77
215.686	-6.14
215.904	57.34
216.122	18.43
216.341	40.96
216.559	18.43
216.778	-24.58
216.996	20.48
217.214	-26.62
217.432	6.14
217.651	-10.24
217.869	45.06
218.087	-16.38
218.306	47.1
218.524	59.39
218.742	73.73
218.96	-22.53
219.179	10.24
219.397	43.01
219.615	122.88
219.833	71.68
220.051	71.68
220.27	71.68
220.488	63.49
220.706	49.15
220.924	61.44
221.142	6.14
221.36	59.39
221.578	57.34
221.796	26.62
222.015	47.1
222.233	4.1
222.451	79.87
222.669	61.44
222.887	0
223.105	38.91
223.323	4.1
223.541	57.34
223.759	86.01
223.977	-40.96
224.195	63.49
224.413	51.2
224.631	32.77
224.849	69.63
225.067	8.19
225.285	-30.72
225.503	-4.1
225.721	6.14
225.939	12.29
226.157	18.43
226.375	186.37
226.592	2.05
226.81	-26.62
227.028	116.73
227.246	61.44
227.464	-16.38
227.682	86.01
227.9	131.07
228.117	30.72
228.335	75.77
228.553	55.3
228.771	75.77
228.989	16.38
229.206	43.01
229.424	-22.53
229.642	55.3
229.86	-10.24
230.077	28.67
230.295	12.29
230.513	45.06
230.731	18.43
230.948	116.73
231.166	34.82
231.384	-24.58
231.601	-10.24
231.819	73.73
232.037	-34.82
232.254	-18.43
232.472	-49.15
232.689	30.72
232.907	4.1
233.125	14.34
233.342	18.43
233.56	49.15
233.777	-12.29
233.995	-26.62
234.213	55.3
234.43	34.82
234.648	-71.68
234.865	43.01
235.083	34.82
235.3	-18.43
235.518	63.49
235.735	122.88
235.953	106.49
236.17	34.82
236.388	-43.01
236.605	100.35
236.822	59.39
237.04	55.3
237.257	14.34
237.475	6.14
237.692	-36.86
237.909	26.62
238.127	16.38
238.344	0
238.562	43.01
238.779	14.34
238.996	-14.34
239.214	59.39
239.431	96.25
239.648	30.72
239.865	24.58
240.083	18.43
240.3	-20.48
240.517	-34.82
240.735	10.24
240.952	32.77
241.169	141.31
241.386	61.44
241.603	47.1
241.821	-18.43
242.038	34.82
242.255	77.82
242.472	-16.38
242.689	112.64
242.907	65.54
243.124	-2.05
243.341	14.34
243.558	18.43
243.775	0
243.992	-18.43
244.209	71.68
244.426	118.78
244.643	38.91
244.86	79.87
245.078	-10.24
245.295	-16.38
245.512	-4.1
245.729	38.91
245.946	-36.86
246.163	69.63
246.38	22.53
246.597	-24.58
246.814	-12.29
247.031	12.29
247.248	-18.43
247.464	-83.97
247.681	86.01
247.898	10.24
248.115	38.91
248.332	16.38
248.549	-4.1
248.766	92.16
248.983	51.2
249.2	122.88
249.417	22.53
249.633	4.1
249.85	112.64
250.067	-59.39
250.284	43.01
250.501	79.87
250.717	73.73
250.934	-12.29
251.151	-2.05
251.368	90.11
251.585	2.05
251.801	22.53
252.018	8.19
252.235	83.97
252.451	40.96
252.668	73.73
252.885	-16.38
253.102	47.1
253.318	14.34
253.535	22.53
253.752	-49.15
253.968	-36.86
254.185	-10.24
254.401	90.11
254.618	38.91
254.835	10.24
255.051	67.58
255.268	51.2
255.484	-36.86
255.701	67.58
255.917	100.35
256.134	-38.91
256.351	65.54
256.567	-30.72
256.784	43.01
257	-14.34
257.217	22.53
257.433	94.21
257.65	86.01
257.866	79.87
258.082	2.05
258.299	24.58
258.515	-16.38
258.732	0
258.948	75.77
259.165	28.67
259.381	-32.77
259.597	10.24
259.814	106.49
260.03	-57.34
260.246	-12.29
260.463	22.53
260.679	10.24
260.895	16.38
261.112	63.49
261.328	47.1
261.544	6.14
261.761	129.02
261.977	88.06
262.193	-4.1
262.409	65.54
262.626	47.1
262.842	8.19
263.058	6.14
263.274	67.58
263.49	26.62
263.707	112.64
263.923	79.87
264.139	-45.06
264.355	28.67
264.571	106.49
264.787	10.24
265.004	49.15
265.22	-16.38
265.436	-18.43
265.652	28.67
265.868	61.44
266.084	53.25
266.3	77.82
266.516	4.1
266.732	10.24
266.948	63.49
267.164	40.96
267.38	53.25
267.596	-16.38
267.812	92.16
268.028	88.06
268.244	6.14
268.46	40.96
268.676	47.1
268.892	36.86
269.108	6.14
269.324	-18.43
269.54	20.48
269.756	116.73
269.972	-8.19
270.188	49.15
270.403	0
270.619	-49.15
270.835	28.67
271.051	28.67
271.267	-55.3
271.483	-43.01
271.698	59.39
271.914	40.96
272.13	-10.24
272.346	-34.82
272.562	-8.19
272.777	16.38
272.993	12.29
273.209	-8.19
273.425	83.97
273.64	10.24
273.856	20.48
274.072	26.62
274.287	96.25
274.503	43.01
274.719	26.62
274.934	65.54
275.15	-4.1
275.366	40.96
275.581	-10.24
275.797	-2.05
276.012	43.01
276.228	30.72
276.444	38.91
276.659	59.39
276.875	-73.73
277.09	22.53
277.306	14.34
277.521	53.25
277.737	43.01
277.952	6.14
278.168	81.92
278.383	-10.24
278.599	45.06
278.814	71.68
279.03	47.1
279.245	57.34
279.461	-16.38
279.676	110.59
279.892	24.58
280.107	10.24
280.322	6.14
280.538	114.69
280.753	-16.38
280.969	18.43
281.184	96.25
281.399	-2.05
281.615	-24.58
281.83	65.54
282.045	-22.53
282.26	49.15
282.476	-6.14
282.691	20.48
282.906	65.54
283.122	77.82
283.337	59.39
283.552	67.58
283.767	36.86
283.983	69.63
284.198	59.39
284.413	20.48
284.628	-4.1
284.843	55.3
285.058	53.25
285.274	-32.77
285.489	-4.1
285.704	61.44
285.919	45.06
286.134	14.34
286.349	10.24
286.564	-8.19
286.779	4.1
286.995	43.01
287.21	98.3
287.425	32.77
287.64	-16.38
287.855	16.38
288.07	8.19
288.285	49.15
288.5	28.67
288.715	88.06
288.93	-12.29
289.145	20.48
289.36	40.96
289.575	-20.48
289.79	143.36
290.004	51.2
290.219	104.45
290.434	12.29
290.649	18.43
290.864	32.77
291.079	79.87
291.294	49.15
291.509	8.19
291.724	18.43
291.938	2.05
292.153	139.26
292.368	57.34
292.583	55.3
292.798	18.43
293.012	36.86
293.227	26.62
293.442	18.43
293.657	61.44
293.871	122.88
294.086	45.06
294.301	104.45
294.516	100.35
294.73	0
294.945	65.54
295.16	-59.39
295.374	94.21
295.589	49.15
295.804	10.24
296.018	94.21
296.233	28.67
296.447	10.24
296.662	22.53
296.877	34.82
297.091	47.1
297.306	81.92
297.52	-34.82
297.735	77.82
297.949	-2.05
298.164	86.01
298.378	22.53
298.593	45.06
298.807	-16.38
299.022	32.77
299.236	49.15
299.451	14.34
299.665	34.82
299.88	-4.1
300.094	45.06
300.309	32.77
300.523	18.43
300.737	69.63
300.952	-43.01
301.166	16.38
301.381	-43.01
301.595	-16.38
301.809	10.24
302.024	47.1
302.238	0
302.452	135.17
302.667	36.86
302.881	79.87
303.095	26.62
303.309	45.06
303.524	-12.29
303.738	90.11
303.952	38.91
304.166	-10.24
304.381	6.14
304.595	92.16
304.809	-30.72
305.023	55.3
305.237	-36.86
305.452	-43.01
305.666	47.1
305.88	12.29
306.094	96.25
306.308	53.25
306.522	12.29
306.736	55.3
306.95	45.06
307.164	49.15
307.379	22.53
307.593	38.91
307.807	133.12
308.021	28.67
308.235	16.38
308.449	4.1
308.663	22.53
308.877	169.98
309.091	2.05
309.305	-55.3
309.519	-26.62
309.733	57.34
309.947	90.11
310.161	108.54
310.374	12.29
310.588	45.06
310.802	-28.67
311.016	94.21
311.23	30.72
311.444	10.24
311.658	22.53
311.872	57.34
312.085	63.49
312.299	38.91
312.513	75.77
312.727	90.11
312.941	26.62
313.154	51.2
313.368	38.91
313.582	-49.15
313.796	26.62
314.009	-38.91
314.223	2.05
314.437	106.49
314.651	88.06
314.864	63.49
315.078	43.01
315.292	-26.62
315.505	43.01
315.719	124.93
315.933	45.06
316.146	14.34
316.36	-10.24
316.573	63.49
316.787	67.58
317.001	-59.39
317.214	-20.48
317.428	22.53
317.641	16.38
317.855	22.53
318.068	69.63
318.282	-38.91
318.495	81.92
318.709	28.67
318.922	45.06
319.136	79.87
319.349	24.58
319.563	102.4
319.776	81.92
319.99	-32.77
320.203	51.2
320.417	-4.1
320.63	126.97
320.843	94.21
321.057	43.01
321.27	24.58
321.483	49.15
321.697	73.73
321.91	30.72
322.124	106.49
322.337	32.77
322.55	16.38
322.763	32.77
322.977	-47.1
323.19	22.53
323.403	16.38
323.617	61.44
323.83	49.15
324.043	20.48
324.256	-49.15
324.469	-51.2
324.683	16.38
324.896	26.62
325.109	16.38
325.322	-6.14
325.535	36.86
325.748	0
325.962	36.86
326.175	-6.14
326.388	57.34
326.601	24.58
326.814	-2.05
327.027	4.1
327.24	26.62
327.453	-67.58
327.666	-4.1
327.879	30.72
328.092	71.68
328.305	4.1
328.518	-18.43
328.731	34.82
328.944	45.06
329.157	86.01
329.37	43.01
329.583	71.68
329.796	71.68
330.009	4.1
330.222	77.82
330.435	-28.67
330.648	53.25
330.861	28.67
331.073	51.2
331.286	63.49
331.499	-2.05
331.712	-88.06
331.925	49.15
332.138	-18.43
332.35	38.91
332.563	-40.96
332.776	65.54
332.989	90.11
333.202	28.67
333.414	32.77
333.627	10.24
333.84	45.06
334.053	14.34
334.265	-12.29
334.478	55.3
334.691	59.39
334.903	30.72
335.116	16.38
335.329	-10.24
335.541	40.96
335.754	83.97
335.966	-26.62
336.179	57.34
336.392	86.01
336.604	8.19
336.817	12.29
337.029	2.05
337.242	4.1
337.454	-51.2
337.667	28.67
337.88	65.54
338.092	86.01
338.305	65.54
338.517	-6.14
338.729	10.24
338.942	14.34
339.154	0
339.367	12.29
339.579	102.4
339.792	12.29
340.004	106.49
340.217	14.34
340.429	38.91
340.641	6.14
340.854	-22.53
341.066	-40.96
341.278	106.49
341.491	143.36
341.703	26.62
341.915	6.14
342.128	126.97
342.34	92.16
342.552	12.29
342.764	69.63
342.977	4.1
343.189	34.82
343.401	55.3
343.613	22.53
343.826	8.19
344.038	-65.53
344.25	-14.34
344.462	34.82
344.674	14.34
344.886	-45.06
345.099	36.86
345.311	90.11
345.523	43.01
345.735	-77.82
345.947	57.34
346.159	8.19
346.371	20.48
346.583	22.53
346.795	90.11
347.007	36.86
347.219	71.68
347.431	73.73
347.643	65.54
347.855	45.06
348.067	-6.14
348.279	-24.58
348.491	0
348.703	53.25
348.915	16.38
349.127	28.67
349.339	49.15
349.551	47.1
349.763	40.96
349.975	18.43
350.187	40.96
350.399	14.34
350.61	28.67
350.822	-34.82
351.034	14.34
351.246	45.06
351.458	98.3
351.669	49.15
351.881	53.25
352.093	81.92
352.305	49.15
352.517	12.29
352.728	129.02
352.94	47.1
353.152	67.58
353.363	96.25
353.575	40.96
353.787	86.01
353.999	63.49
354.21	108.54
354.422	8.19
354.633	57.34
354.845	30.72
355.057	-14.34
355.268	0
355.48	-2.05
355.692	-14.34
355.903	49.15
356.115	-28.67
356.326	8.19
356.538	141.31
356.749	18.43
356.961	43.01
357.172	22.53
357.384	40.96
357.595	110.59
357.807	108.54
358.018	0
358.23	55.3
358.441	69.63
358.653	116.73
358.864	86.01
359.075	24.58
359.287	71.68
359.498	67.58
359.709	28.67
359.921	69.63
360.132	49.15
360.344	63.49
360.555	94.21
360.766	61.44
360.977	26.62
361.189	77.82
361.4	12.29
361.611	36.86
361.823	38.91
362.034	45.06
362.245	6.14
362.456	53.25
362.667	67.58
362.879	63.49
363.09	36.86
363.301	10.24
363.512	65.54
363.723	10.24
363.935	43.01
364.146	53.25
364.357	40.96
364.568	96.25
364.779	-28.67
364.99	108.54
365.201	34.82
365.412	53.25
365.623	-49.15
365.834	4.1
366.045	90.11
366.256	75.77
366.467	32.77
366.678	65.54
366.889	-20.48
367.1	43.01
367.311	51.2
367.522	-38.91
367.733	32.77
367.944	61.44
368.155	59.39
368.366	71.68
368.577	88.06
368.788	8.19
368.999	79.87
369.209	38.91
369.42	81.92
369.631	208.89
369.842	45.06
370.053	-22.53
370.264	6.14
370.474	53.25
370.685	92.16
370.896	-10.24
371.107	59.39
371.317	38.91
371.528	38.91
371.739	28.67
371.95	30.72
372.16	83.97
372.371	22.53
372.582	75.77
372.792	43.01
373.003	38.91
373.214	81.92
373.424	81.92
373.635	67.58
373.846	61.44
374.056	65.54
374.267	16.38
374.477	61.44
374.688	45.06
374.898	69.63
375.109	28.67
375.319	65.54
375.53	57.34
375.74	55.3
375.951	0
376.161	77.82
376.372	4.1
376.582	2.05
376.793	65.54
377.003	-49.15
377.214	69.63
377.424	-40.96
377.635	114.69
377.845	-55.3
378.055	-8.19
378.266	-30.72
378.476	16.38
378.686	6.14
378.897	26.62
379.107	104.45
379.317	-8.19
379.528	51.2
379.738	-10.24
379.948	36.86
380.158	112.64
380.369	55.3
380.579	86.01
380.789	49.15
380.999	43.01
381.21	145.41
381.42	137.21
381.63	63.49
381.84	92.16
382.05	45.06
382.261	40.96
382.471	-30.72
382.681	-55.3
382.891	94.21
383.101	110.59
383.311	-8.19
383.521	12.29
383.731	124.93
383.941	116.73
384.151	59.39
384.361	92.16
384.571	43.01
384.781	98.3
384.991	94.21
385.201	86.01
385.411	51.2
385.621	8.19
385.831	77.82
386.041	45.06
386.251	40.96
386.461	61.44
386.671	45.06
386.881	79.87
387.091	-12.29
387.301	79.87
387.511	36.86
387.72	120.83
387.93	14.34
388.14	8.19
388.35	22.53
388.56	96.25
388.769	47.1
388.979	71.68
389.189	8.19
389.399	-65.53
389.609	61.44
389.818	83.97
390.028	53.25
390.238	10.24
390.447	28.67
390.657	22.53
390.867	57.34
391.076	10.24
391.286	51.2
391.496	28.67
391.705	2.05
391.915	69.63
392.125	143.36
392.334	18.43
392.544	106.49
392.753	49.15
392.963	51.2
393.172	61.44
393.382	12.29
393.591	79.87
393.801	47.1
394.01	65.54
394.22	32.77
394.429	-4.1
394.639	49.15
394.848	40.96
395.058	106.49
395.267	61.44
395.477	65.54
395.686	114.69
395.895	118.78
396.105	88.06
396.314	6.14
396.524	40.96
396.733	45.06
396.942	135.17
397.152	81.92
397.361	159.74
397.57	45.06
397.78	69.63
397.989	143.36
398.198	169.98
398.407	102.4
398.617	30.72
398.826	86.01
399.035	86.01
399.244	75.77
399.453	55.3
399.663	63.49
399.872	38.91
400.081	71.68
400.29	120.83
400.499	81.92
400.708	96.25
400.917	-4.1
401.127	12.29
401.336	65.54
401.545	100.35
401.754	90.11
401.963	188.41
402.172	61.44
402.381	10.24
402.59	77.82
402.799	47.1
403.008	120.83
403.217	135.17
403.426	155.65
403.635	86.01
403.844	47.1
404.053	49.15
404.262	106.49
404.471	151.55
404.68	110.59
404.888	194.56
405.097	12.29
405.306	153.6
405.515	161.79
405.724	36.86
405.933	75.77
406.142	178.17
406.35	200.7
406.559	176.13
406.768	88.06
406.977	198.65
407.185	182.27
407.394	135.17
407.603	59.39
407.812	163.84
408.02	231.42
408.229	118.78
408.438	94.21
408.646	122.88
408.855	120.83
409.064	124.93
409.272	139.26
409.481	210.94
409.69	184.32
409.898	212.99
410.107	276.48
410.315	225.28
410.524	178.17
410.733	196.61
410.941	176.13
411.15	249.85
411.358	225.28
411.567	241.66
411.775	260.09
411.984	352.25
412.192	313.34
412.401	229.37
412.609	305.15
412.818	399.35
413.026	292.86
413.234	344.06
413.443	348.15
413.651	311.29
413.86	352.25
414.068	468.98
414.276	456.7
414.485	362.49
414.693	481.27
414.901	509.94
415.11	438.27
415.318	425.98
415.526	407.55
415.734	526.33
415.943	511.99
416.151	548.86
416.359	561.14
416.567	565.24
416.776	618.49
416.984	618.49
417.192	667.64
417.4	585.72
417.608	563.19
417.817	782.32
418.025	636.92
418.233	843.76
418.441	782.32
418.649	776.18
418.857	882.67
419.065	829.43
419.273	813.04
419.481	976.88
419.689	917.49
419.897	1036.27
420.105	989.17
420.313	1171.44
420.521	1040.37
420.729	1009.65
420.937	1089.52
421.145	1177.58
421.353	1148.91
421.561	1263.6
421.769	1398.76
421.977	1359.85
422.185	1279.98
422.393	1472.49
422.601	1624.04
422.809	1435.63
423.017	1441.77
423.224	1667.05
423.432	1595.37
423.64	1626.09
423.848	1839.08
424.056	1837.03
424.263	1988.58
424.471	1949.67
424.679	1861.6
424.887	1976.29
425.094	2150.37
425.302	2170.85
425.51	2084.83
425.718	2205.66
425.925	2277.34
426.133	2369.5
426.341	2447.32
426.548	2564.06
426.756	2473.95
426.964	2641.88
427.171	2656.22
427.379	2719.7
427.586	3022.8
427.794	2891.73
428.001	3123.15
428.209	3286.99
428.417	3317.71
428.624	3469.26
428.832	3364.81
429.039	3389.39
429.247	3399.63
429.454	3829.7
429.662	3946.44
429.869	3741.64
430.076	3919.81
430.284	3938.24
430.491	4044.74
430.699	4476.86
430.906	4229.06
431.114	4282.3
431.321	4573.11
431.528	4569.02
431.736	4997.04
431.943	5160.88
432.15	4984.76
432.358	4861.88
432.565	5418.93
432.772	5242.8
432.979	5593
433.187	5683.11
433.394	5674.92
433.601	6053.8
433.808	6092.71
434.016	6170.53
434.223	6246.3
434.43	6539.16
434.637	6563.74
434.844	6856.6
435.052	6963.09
435.259	7155.6
435.466	7122.84
435.673	6977.43
435.88	7540.62
436.087	8140.68
436.294	8017.8
436.501	7550.86
436.708	7810.95
436.915	8056.71
437.122	8517.5
437.329	8320.9
437.537	8779.64
437.743	8912.76
437.95	9084.79
438.157	9281.39
438.364	9500.53
438.571	9623.41
438.778	9797.48
438.985	10653.53
439.192	10153.83
439.399	10354.53
439.606	10286.95
439.813	10811.23
440.02	11435.86
440.227	11116.37
440.433	11210.58
440.64	11634.51
440.847	11384.66
441.054	12005.19
441.261	12404.55
441.467	12392.26
441.674	12674.88
441.881	12992.31
442.088	13215.54
442.294	13111.1
442.501	13195.06
442.708	13721.39
442.914	14114.6
443.121	14548.77
443.328	14317.35
443.534	15443.73
443.741	14878.49
443.948	14524.19
444.154	15795.98
444.361	15628.05
444.568	15761.17
444.774	15812.37
444.981	15836.94
445.187	16537.35
445.394	16899.84
445.6	16934.65
445.807	18589.41
446.013	17929.97
446.22	18020.08
446.426	18554.6
446.633	19025.63
446.839	19621.59
447.046	18863.84
447.252	20041.42
447.459	19920.59
447.665	19807.95
447.871	20920
448.078	21477.05
448.284	20903.62
448.491	21305.02
448.697	21997.23
448.903	22458.03
449.11	22681.25
449.316	22156.97
449.522	22427.31
449.728	23152.29
449.935	23410.33
450.141	23250.59
450.347	23637.66
450.553	23293.6
450.76	23373.47
450.966	24120.98
451.172	23967.38
451.378	24462.99
451.584	23955.09
451.791	24714.89
451.997	24872.58
452.203	25030.27
452.409	25032.32
452.615	24764.04
452.821	23942.8
453.027	23570.07
453.233	24673.93
453.44	24135.31
453.646	24020.63
453.852	23963.28
454.058	24460.94
454.264	24297.1
454.47	24327.82
454.676	23903.89
454.882	24370.83
455.088	22306.48
455.294	22847.14
455.5	22834.85
455.705	23195.29
455.911	22384.3
456.117	21995.18
456.323	21620.41
456.529	20438.73
456.735	21552.82
456.941	20770.5
457.147	20672.2
457.352	19877.58
457.558	19441.37
457.764	19914.45
457.97	19283.67
458.176	18865.89
458.381	18716.39
458.587	17858.29
458.793	17893.1
458.999	16561.92
459.204	18155.24
459.41	17669.87
459.616	16393.99
459.821	16281.35
460.027	16385.8
460.233	16004.88
460.438	15191.83
460.644	15462.16
460.85	14860.06
461.055	14546.72
461.261	14559.01
461.466	13350.71
461.672	12926.78
461.878	13872.94
462.083	12715.84
462.289	12740.41
462.494	12822.33
462.7	12128.07
462.905	11691.85
463.111	12175.17
463.316	12291.91
463.522	11913.03
463.727	11990.86
463.932	11818.83
464.138	11636.56
464.343	11964.23
464.549	11728.72
464.754	12046.15
464.959	11882.31
465.165	11841.36
465.37	11235.16
465.575	11009.88
465.781	11267.92
465.986	11315.03
466.191	10985.3
466.397	10717.02
466.602	10420.06
466.807	10626.91
467.012	10708.83
467.218	10485.6
467.423	10614.62
467.628	10694.49
467.833	10956.63
468.038	10491.74
468.244	10434.4
468.449	10788.7
468.654	10274.66
468.859	10336.1
469.064	10188.64
469.269	9981.8
469.474	9805.67
469.679	10200.93
469.885	9688.94
470.09	9910.12
470.295	9969.51
470.5	9332.59
470.705	9570.16
470.91	9533.29
471.115	9377.65
471.32	9410.42
471.525	9322.35
471.73	9361.27
471.935	9238.39
472.139	9000.82
472.344	8961.91
472.549	8853.37
472.754	9015.16
472.959	8597.37
473.164	8384.38
473.369	8380.29
473.574	8742.78
473.778	8458.11
473.983	8396.67
474.188	8408.96
474.393	8220.55
474.598	8134.53
474.802	8083.33
475.007	7907.21
475.212	7853.96
475.417	7739.27
475.621	7591.82
475.826	7614.35
476.031	7729.03
476.235	7563.15
476.44	7391.12
476.645	7331.73
476.849	7241.62
477.054	7407.5
477.259	7296.91
477.463	7167.89
477.668	6928.28
477.872	7032.72
478.077	6901.65
478.282	6938.52
478.486	6766.49
478.691	6592.41
478.895	6733.72
479.1	6848.41
479.304	6764.44
479.509	6498.2
479.713	6449.05
479.918	6535.07
480.122	6336.42
480.326	6414.24
480.531	6492.06
480.735	6307.74
480.94	6438.81
481.144	6447.01
481.348	6227.87
481.553	6404
481.757	6029.22
481.961	6434.72
482.166	6311.84
482.37	6299.55
482.574	6201.25
482.778	6244.26
482.983	6324.13
483.187	6256.54
483.391	6305.7
483.595	6238.11
483.8	6053.8
484.004	6203.3
484.208	6328.22
484.412	6244.26
484.616	6236.06
484.821	6332.32
485.025	6227.87
485.229	6264.74
485.433	6111.14
485.637	6143.91
485.841	6135.71
486.045	6033.32
486.249	6352.8
486.453	5984.16
486.657	6248.35
486.861	6281.12
487.065	6027.17
487.269	6203.3
487.473	6043.56
487.677	6315.94
487.881	6352.8
488.085	6109.09
488.289	6303.65
488.493	6186.91
488.697	6352.8
488.901	6225.82
489.105	6170.53
489.309	6311.84
489.512	6229.92
489.716	6281.12
489.92	6381.47
490.124	6270.88
490.328	6451.1
490.531	6191.01
490.735	6346.66
490.939	6444.96
491.143	6266.78
491.346	6424.48
491.55	6481.82
491.754	6498.2
491.958	6383.52
492.161	6500.25
492.365	6504.35
492.569	6356.89
492.772	6465.44
492.976	6596.51
493.18	6782.87
493.383	6731.67
493.587	6772.63
493.79	6887.32
493.994	6756.25
494.197	6825.88
494.401	6825.88
494.605	7004.05
494.808	7108.5
495.012	6950.81
495.215	6926.23
495.419	7114.64
495.622	6950.81
495.825	7280.53
496.029	7139.22
496.232	7593.87
496.436	7264.15
496.639	7542.67
496.843	7409.55
497.046	7749.51
497.249	7714.7
497.453	7765.9
497.656	7817.1
497.859	7851.91
498.063	7976.84
498.266	8077.19
498.469	8138.63
498.673	8253.31
498.876	8382.34
499.079	8114.05
499.282	8271.75
499.485	8630.14
499.689	8574.85
499.892	8740.73
500.095	8836.99
500.298	9154.42
500.501	8943.48
500.705	9123.7
500.908	9322.35
501.111	9424.75
501.314	9484.14
501.517	9690.99
501.72	9695.08
501.923	9901.93
502.126	9924.46
502.329	10135.4
502.532	10116.97
502.735	10342.24
502.938	10188.64
503.141	10452.83
503.344	10614.62
503.547	10637.15
503.75	10686.3
503.953	11026.26
504.156	10997.59
504.359	11241.3
504.562	11386.71
504.765	11573.07
504.968	11663.18
505.17	11720.53
505.373	11949.9
505.576	11978.57
505.779	12166.98
505.982	12003.14
506.185	12181.32
506.387	12535.62
506.59	12728.13
506.793	13066.04
506.996	12941.11
507.198	13397.81
507.401	13170.49
507.604	13332.28
507.807	13449.01
508.009	13856.56
508.212	13926.19
508.415	13954.86
508.617	14231.33
508.82	14319.4
509.022	14436.13
509.225	14548.77
509.428	14559.01
509.63	14825.25
509.833	15138.58
510.035	15451.92
510.238	15300.37
510.44	15605.52
510.643	15855.37
510.845	15929.1
511.048	16078.6
511.25	16314.12
511.453	16328.45
511.655	16871.17
511.858	16891.65
512.06	16992
512.262	17311.48
512.465	17164.03
512.667	17501.94
512.87	17772.27
513.072	17807.09
513.274	18269.93
513.477	18079.47
513.679	18603.75
513.881	18630.37
514.084	18943.71
514.286	18984.67
514.488	19099.36
514.69	19504.85
514.893	19859.15
515.095	19717.84
515.297	20262.6
515.499	20076.24
515.701	20387.53
515.904	20762.31
516.106	21051.07
516.308	20981.44
516.51	21489.34
516.712	21487.29
516.914	21761.72
517.116	22144.69
517.318	22050.48
517.52	22437.55
517.722	22378.15
517.925	23002.78
518.127	22984.35
518.329	23164.57
518.531	23262.88
518.733	24006.29
518.935	23950.99
519.136	24364.68
519.338	24409.74
519.54	24358.54
519.742	24731.27
519.944	25314.94
520.146	25286.27
520.348	25478.78
520.55	25904.76
520.752	26001.01
520.954	26625.64
521.155	26408.56
521.357	26867.3
521.559	27225.7
521.761	27463.26
521.963	27395.68
522.164	27772.5
522.366	27874.9
522.568	28091.99
522.77	28335.7
522.971	28704.33
523.173	28513.87
523.375	28956.23
523.576	29087.3
523.778	29152.84
523.98	29648.44
524.181	29670.97
524.383	29787.71
524.584	30416.43
524.786	30801.45
524.988	30393.9
525.189	30797.35
525.391	30932.52
525.592	31077.93
525.794	31258.15
525.995	31446.56
526.197	31624.73
526.398	31821.34
526.6	31745.56
526.801	32067.09
527.003	32083.48
527.204	32206.36
527.406	32714.25
527.607	32945.67
527.808	33242.63
528.01	32581.13
528.211	33043.98
528.412	33445.38
528.614	33588.74
528.815	33306.12
529.016	33904.12
529.218	34102.78
529.419	33781.24
529.62	33838.59
529.822	33816.06
530.023	34301.43
530.224	34063.86
530.425	33953.27
530.626	33971.71
530.828	34059.77
531.029	35010.03
531.23	34313.72
531.431	34321.91
531.632	34770.41
531.833	34946.54
532.035	35046.89
532.236	34760.17
532.437	35386.85
532.638	34915.82
532.839	35161.58
533.04	35298.79
533.241	34770.41
533.442	35755.49
533.643	35311.08
533.844	35114.47
534.045	35431.91
534.246	35255.78
534.447	35452.39
534.648	35143.14
534.849	35665.38
535.05	35450.34
535.251	35495.39
535.451	35624.42
535.652	35438.05
535.853	35493.35
536.054	35878.36
536.255	35984.86
536.456	35069.42
536.657	35550.69
536.857	35376.61
537.058	35618.27
537.259	35945.95
537.46	35894.75
537.66	35268.07
537.861	35775.97
538.062	35487.2
538.263	35804.64
538.463	35728.86
538.664	35614.18
538.865	35659.23
539.065	36134.36
539.266	35446.24
539.466	35968.48
539.667	35075.56
539.868	36371.93
540.068	35728.86
540.269	35751.39
540.469	35976.67
540.67	35456.48
540.87	35798.49
541.071	36019.67
541.271	36101.59
541.472	36027.87
541.672	35909.08
541.873	35829.21
542.073	35075.56
542.274	36023.77
542.474	35786.21
542.675	35667.42
542.875	35698.14
543.075	35724.77
543.276	35655.14
543.476	36171.22
543.676	35585.5
543.877	35636.7
544.077	35505.63
544.277	35761.63
544.478	35689.95
544.678	35935.71
544.878	35737.05
545.078	35177.96
545.279	35345.89
545.479	35386.85
545.679	35874.27
545.879	35438.05
546.079	35630.56
546.28	35458.53
546.48	35438.05
546.68	35751.39
546.88	35362.28
547.08	35923.42
547.28	35542.5
547.48	35198.44
547.68	35560.93
547.88	35687.9
548.081	35583.46
548.281	35413.48
548.481	35665.38
548.681	35855.84
548.881	35593.7
549.081	35616.22
549.28	35100.14
549.48	35780.06
549.68	35603.94
549.88	36021.72
550.08	35689.95
550.28	35687.9
550.48	35472.87
550.68	35761.63
550.88	35575.27
551.08	35618.27
551.279	35347.94
551.479	35137
551.679	35675.62
551.879	35147.24
552.079	35644.9
552.278	35562.98
552.478	35141.1
552.678	35317.22
552.878	35542.5
553.077	35040.75
553.277	34954.73
553.477	35866.08
553.676	35343.84
553.876	35411.43
554.076	35010.03
554.275	35001.83
554.475	34883.05
554.674	34913.77
554.874	35354.08
555.074	35163.62
555.273	35087.85
555.473	35259.88
555.672	35010.03
555.872	34926.06
556.071	34846.19
556.271	35257.83
556.47	34987.5
556.67	34543.09
556.869	34528.75
557.068	34639.34
557.268	34541.04
557.467	34457.07
557.667	34692.59
557.866	34598.38
558.065	34209.27
558.265	34184.69
558.464	34348.53
558.663	33996.28
558.863	33816.06
559.062	34055.67
559.261	33680.89
559.461	34407.92
559.66	33728
559.859	33814.01
560.058	33637.89
560.258	33910.27
560.457	33478.15
560.656	33598.98
560.855	33512.96
561.054	33633.79
561.253	33349.12
561.453	33592.83
561.652	33441.28
561.851	33095.18
562.05	33373.7
562.249	32759.31
562.448	33336.84
562.647	33091.08
562.846	32888.33
563.045	32798.22
563.244	32583.18
563.443	32835.08
563.642	32126.49
563.841	32474.64
564.04	32439.82
564.239	32749.07
564.438	32126.49
564.637	32214.55
564.836	32196.12
565.035	31882.78
565.234	31764
565.432	31542.81
565.631	31389.22
565.83	31577.63
566.029	31495.71
566.228	31348.26
566.427	30969.38
566.625	31018.53
566.824	30791.21
567.023	31342.11
567.222	30531.12
567.42	30979.62
567.619	30314.03
567.818	30959.14
568.016	30641.71
568.215	30897.7
568.414	30463.54
568.612	30371.38
568.811	30182.96
569.01	30025.27
569.208	29857.34
569.407	29857.34
569.605	29124.16
569.804	29863.48
570.002	29185.6
570.201	29359.68
570.4	28980.81
570.598	29269.57
570.797	28948.04
570.995	29072.96
571.193	28474.96
571.392	29042.24
571.59	28653.13
571.789	28796.49
571.987	28487.25
572.186	28548.68
572.384	28386.89
572.582	28573.26
572.781	28395.09
572.979	28151.38
573.177	28266.06
573.376	28042.84
573.574	27940.44
573.772	27879
573.971	27590.24
574.169	27283.04
574.367	27211.36
574.565	27573.85
574.763	27141.73
574.962	27317.86
575.16	26969.7
575.358	27199.07
575.556	26607.21
575.754	27065.96
575.952	26654.31
576.151	26781.29
576.349	26570.35
576.547	26650.22
576.745	26361.45
576.943	26343.02
577.141	26302.06
577.339	26226.29
577.537	25941.62
577.735	26142.32
577.933	25833.08
578.131	25998.96
578.329	25540.22
578.527	25443.96
578.725	25632.38
578.923	25675.38
579.121	25149.06
579.319	25122.43
579.516	25458.3
579.714	25276.03
579.912	24907.4
580.11	24989.31
580.308	24964.74
580.506	24727.17
580.704	24563.34
580.901	24782.47
581.099	24630.92
581.297	24252.05
581.495	24200.85
581.692	24405.64
581.89	24307.34
582.088	24090.26
582.285	24043.15
582.483	24004.24
582.681	24131.22
582.878	23746.2
583.076	23738.01
583.274	24047.25
583.471	23611.03
583.669	23578.26
583.866	23484.06
584.064	23211.68
584.262	23338.65
584.459	23434.91
584.657	23125.66
584.854	23172.77
585.052	22902.43
585.249	22914.72
585.447	22894.24
585.644	22544.04
585.841	22910.63
586.039	23039.65
586.236	22539.94
586.434	22480.55
586.631	22404.78
586.828	22494.89
587.026	22302.38
587.223	22433.45
587.42	22222.51
587.618	22073.01
587.815	21653.17
588.012	21679.8
588.21	21939.89
588.407	22011.57
588.604	21755.57
588.801	21591.73
588.999	21364.41
589.196	21497.53
589.393	21468.86
589.59	21431.99
589.787	21176
589.984	21245.63
590.182	21085.89
590.379	21018.3
590.576	21044.93
590.773	20965.06
590.97	20872.9
591.167	20864.71
591.364	20881.09
591.561	20831.94
591.758	20467.4
591.955	20350.67
592.152	20743.88
592.349	20768.45
592.546	20633.29
592.743	20428.49
592.94	20174.54
593.137	20491.98
593.334	20506.31
593.531	20225.74
593.727	20309.71
593.924	20055.76
594.121	19801.81
594.318	19951.31
594.515	19384.02
594.712	19963.6
594.908	19832.53
595.105	19672.79
595.302	19762.9
595.499	19445.46
595.696	19269.34
595.892	19416.79
596.089	19437.27
596.286	19369.69
596.482	19269.34
596.679	19257.05
596.876	19037.92
597.072	18958.05
597.269	19306.2
597.466	18671.33
597.662	18765.54
597.859	18650.85
598.055	18677.48
598.252	18890.46
598.448	18822.88
598.645	18552.55
598.841	18276.07
599.038	18542.31
599.234	18394.86
599.431	18351.85
599.627	18314.98
599.824	18204.39
600.02	18089.71
600.217	18153.19
600.413	18028.27
600.609	17719.03
600.806	17657.59
601.002	18028.27
601.198	17563.38
601.395	17809.14
601.591	17790.7
601.787	17860.34
601.984	17590
602.18	17630.96
602.376	17266.42
602.572	17340.15
602.769	17438.45
602.965	17168.12
603.161	17043.2
603.357	17006.33
603.553	17108.73
603.75	16834.3
603.946	16903.93
604.142	17137.4
604.338	16631.55
604.534	16957.18
604.73	16840.45
604.926	16846.59
605.122	16742.14
605.318	16805.63
605.514	16377.61
605.71	16469.76
605.906	16373.51
606.102	16369.41
606.298	16588.55
606.494	16307.98
606.69	16238.34
606.886	16324.36
607.082	16099.08
607.278	16086.79
607.474	15834.89
607.67	16074.51
607.866	15648.53
608.062	16185.1
608.257	15800.08
608.453	15830.8
608.649	16023.31
608.845	15529.75
609.041	15580.95
609.236	15636.24
609.432	15673.1
609.628	15638.29
609.824	15480.6
610.019	15572.75
610.215	15574.8
610.411	15611.67
610.606	15404.82
610.802	15486.74
610.998	15408.92
611.193	15378.2
611.389	15316.76
611.584	15224.6
611.78	15032.09
611.976	15169.3
612.171	15177.5
612.367	14888.73
612.562	14858.01
612.758	14853.92
612.953	14935.84
613.149	15050.52
613.344	14849.82
613.539	15013.66
613.735	15017.75
613.93	14890.78
614.126	14620.45
614.321	14896.92
614.517	14579.49
614.712	14663.46
614.907	14454.56
615.103	14595.87
615.298	14403.36
615.493	14776.09
615.688	14364.45
615.884	14647.07
616.079	14571.3
616.274	14595.87
616.47	14319.4
616.665	14321.45
616.86	14262.05
617.055	13934.38
617.25	14163.75
617.445	14294.82
617.641	13952.81
617.836	14141.22
618.031	13848.36
618.226	14094.12
618.421	13782.83
618.616	14143.27
618.811	13625.14
619.006	14022.44
619.201	13526.83
619.396	13948.72
619.591	13414.2
619.786	13760.3
619.981	13430.58
620.176	13514.55
620.371	13315.89
620.566	13242.17
620.761	13285.17
620.956	13225.78
621.151	13246.26
621.346	13260.6
621.541	12945.21
621.735	13129.53
621.93	12658.49
622.125	12922.68
622.32	12533.57
622.515	12736.32
622.709	12660.54
622.904	12552
623.099	12580.67
623.294	12646.21
623.488	12527.42
623.683	12531.52
623.878	12306.24
624.072	12248.9
624.267	12130.12
624.462	12119.88
624.656	12007.24
624.851	11898.7
625.046	11958.09
625.24	11945.8
625.435	11818.83
625.629	11755.34
625.824	11622.22
626.018	11661.13
626.213	11499.34
626.407	11204.44
626.602	11333.46
626.796	11454.29
626.991	11161.43
627.185	11321.17
627.38	11091.8
627.574	11030.36
627.768	10921.82
627.963	11177.81
628.157	10751.84
628.352	11097.94
628.546	10559.33
628.74	10895.19
628.935	10571.61
629.129	10663.77
629.323	10585.95
629.517	10504.03
629.712	10078.05
629.906	10260.32
630.1	10346.34
630.294	10370.91
630.489	10135.4
630.683	10071.91
630.877	10024.81
631.071	9926.5
631.265	10086.25
631.459	9908.07
631.653	9811.82
631.848	9740.14
632.042	9740.14
632.236	9762.67
632.43	9559.92
632.624	9705.32
632.818	9455.47
633.012	9418.61
633.206	9467.76
633.4	9310.07
633.594	9406.32
633.788	9381.74
633.982	9213.81
634.176	9193.33
634.369	9095.03
634.563	9064.31
634.757	9193.33
634.951	9201.52
635.145	9164.66
635.339	9058.17
635.533	8920.95
635.726	8798.07
635.92	8556.41
636.114	8722.3
636.308	8703.87
636.501	8710.01
636.695	8566.65
636.889	8531.84
637.083	8535.93
637.276	8494.97
637.47	8400.77
637.664	8533.89
637.857	8439.68
638.051	8341.38
638.244	8183.68
638.438	8126.34
638.632	8142.72
638.825	8038.28
639.019	8032.13
639.212	7954.31
639.406	8257.41
639.599	7913.35
639.793	7847.82
639.986	7735.18
640.18	7751.56
640.373	7714.7
640.567	7569.29
640.76	7604.11
640.954	7690.12
641.147	7438.22
641.34	7489.42
641.534	7630.73
641.727	7376.78
641.92	7301.01
642.114	7395.22
642.307	7298.96
642.5	7315.34
642.694	7167.89
642.887	7008.15
643.08	7282.58
643.273	7245.71
643.467	7081.88
643.66	6944.66
643.853	7247.76
644.046	6961.05
644.239	7090.07
644.432	6682.52
644.626	6848.41
644.819	6694.81
645.012	6862.74
645.205	6795.16
645.398	6715.29
645.591	6629.27
645.784	6639.51
645.977	6473.63
646.17	6573.98
646.363	6518.68
646.556	6414.24
646.749	6377.37
646.942	6416.29
647.135	6223.78
647.328	6352.8
647.521	6444.96
647.714	6076.32
647.907	6283.17
648.099	6201.25
648.292	6059.94
648.485	6195.11
648.678	6199.2
648.871	5949.35
649.064	5805.99
649.256	5932.97
649.449	5912.49
649.642	5975.97
649.835	5777.32
650.027	5853.09
650.22	5779.37
650.413	5855.14
650.605	5793.7
650.798	5719.98
650.991	5732.26
651.183	5672.87
651.376	5656.49
651.568	5769.13
651.761	5543.85
651.954	5603.24
652.146	5521.32
652.339	5447.6
652.531	5427.12
652.724	5420.97
652.916	5380.01
653.109	5521.32
653.301	5474.22
653.494	5449.64
653.686	5345.2
653.879	5394.35
654.071	5207.98
654.263	5205.94
654.456	5185.46
654.648	5076.91
654.84	5128.11
655.033	5107.63
655.225	5072.82
655.417	4931.51
655.61	5078.96
655.802	5126.07
655.994	4960.18
656.186	5111.73
656.379	4913.08
656.571	4927.41
656.763	4820.92
656.955	4788.15
657.148	4722.62
657.34	4894.65
657.532	4777.91
657.724	4818.87
657.916	4749.24
658.108	4753.34
658.3	4782.01
658.492	4718.52
658.684	4605.88
658.876	4655.03
659.068	4636.6
659.26	4433.85
659.452	4634.55
659.644	4474.81
659.836	4499.39
660.028	4523.96
660.22	4411.32
660.412	4321.21
660.604	4521.91
660.796	4564.92
660.988	4419.52
661.18	4237.25
661.372	4464.57
661.563	4237.25
661.755	4417.47
661.947	4425.66
662.139	4231.1
662.331	4200.38
662.522	4257.73
662.714	4241.34
662.906	4077.51
663.097	4077.51
663.289	4229.06
663.481	4100.03
663.673	4155.33
663.864	4075.46
664.056	4091.84
664.247	4026.31
664.439	4112.32
664.631	4061.12
664.822	4100.03
665.014	3942.34
665.205	3903.43
665.397	3944.39
665.588	4048.83
665.78	3870.66
665.971	4075.46
666.163	3897.28
666.354	3893.19
666.546	3932.1
666.737	3983.3
666.929	3882.95
667.12	3899.33
667.311	3872.71
667.503	3739.59
667.694	3870.66
667.885	3801.03
668.077	3854.28
668.268	3743.69
668.459	3768.26
668.651	3813.32
668.842	3762.12
669.033	3758.02
669.224	3727.3
669.416	3819.46
669.607	3731.4
669.798	3764.17
669.989	3710.92
670.18	3610.57
670.371	3645.38
670.563	3688.39
670.754	3766.21
670.945	3538.89
671.136	3590.09
671.327	3610.57
671.518	3708.87
671.709	3620.81
671.9	3612.62
672.091	3678.15
672.282	3678.15
672.473	3553.23
672.664	3612.62
672.855	3629
673.046	3588.04
673.237	3684.3
673.428	3669.96
673.619	3553.23
673.809	3432.4
674	3551.18
674.191	3669.96
674.382	3571.66
674.573	3610.57
674.764	3518.41
674.954	3702.73
675.145	3510.22
675.336	3569.61
675.527	3510.22
675.717	3561.42
675.908	3422.16
676.099	3618.76
676.289	3516.36
676.48	3528.65
676.671	3545.03
676.861	3612.62
677.052	3616.71
677.243	3534.79
677.433	3559.37
677.624	3602.38
677.814	3583.95
678.005	3465.16
678.195	3663.82
678.386	3364.81
678.576	3487.69
678.767	3551.18
678.957	3483.59
679.148	3481.55
679.338	3610.57
679.529	3487.69
679.719	3571.66
679.909	3614.66
680.1	3684.3
680.29	3600.33
680.481	3598.28
680.671	3641.29
680.861	3581.9
681.052	3477.45
681.242	3676.1
681.432	3600.33
681.622	3545.03
681.813	3641.29
682.003	3661.77
682.193	3606.47
682.383	3618.76
682.573	3522.51
682.764	3614.66
682.954	3485.64
683.144	3612.62
683.334	3575.75
683.524	3608.52
683.714	3655.62
683.904	3493.83
684.094	3643.34
684.284	3487.69
684.474	3649.48
684.664	3530.7
684.854	3706.82
685.044	3594.19
685.234	3635.14
685.424	3594.19
685.614	3467.21
685.804	3547.08
685.994	3690.44
686.184	3723.21
686.374	3585.99
686.564	3596.23
686.753	3610.57
686.943	3424.2
687.133	3610.57
687.323	3579.85
687.513	3418.06
687.702	3510.22
687.892	3489.74
688.082	3454.92
688.272	3485.64
688.461	3497.93
688.651	3456.97
688.841	3461.07
689.03	3368.91
689.22	3432.4
689.41	3364.81
689.599	3407.82
689.789	3364.81
689.979	3395.53
690.168	3293.13
690.358	3428.3
690.547	3258.32
690.737	3301.33
690.926	3272.65
691.116	3260.37
691.305	3203.02
691.495	3297.23
691.684	3258.32
691.874	3254.22
692.063	3270.61
692.252	3100.62
692.442	3151.82
692.631	3096.53
692.82	3125.2
693.01	3205.07
693.199	3098.58
693.388	3065.81
693.578	3088.34
693.767	3088.34
693.956	3010.51
694.146	2934.74
694.335	3006.42
694.524	3020.75
694.713	3020.75
694.902	3022.8
695.092	3053.52
695.281	3004.37
695.47	3030.99
695.659	3041.23
695.848	2887.64
696.037	2813.91
696.226	3016.66
696.415	2920.4
696.604	3004.37
696.793	2842.58
696.982	2789.33
697.171	2971.6
697.36	2942.93
697.549	2901.97
697.738	2861.01
697.927	2926.55
698.116	2990.03
698.305	2836.44
698.494	2826.2
698.683	2883.54
698.872	3041.23
699.061	2877.4
699.25	2973.65
699.438	2899.92
699.627	2828.24
699.816	2947.03
700.005	2899.92
700.193	2963.41
700.382	3000.27
700.571	2955.22
700.76	2893.78
700.948	2897.88
701.137	2924.5
701.326	2924.5
701.514	3006.42
701.703	3045.33
701.892	2981.84
702.08	3047.38
702.269	2971.6
702.457	2973.65
702.646	2885.59
702.834	2772.95
703.023	2901.97
703.212	2985.94
703.4	2977.75
703.589	2901.97
703.777	3008.47
703.965	2922.45
704.154	2967.51
704.342	2899.92
704.531	2996.18
704.719	2942.93
704.907	2990.03
705.096	2895.83
705.284	3037.14
705.472	3037.14
705.661	2820.05
705.849	3024.85
706.037	3026.9
706.226	3047.38
706.414	2965.46
706.602	3119.06
706.79	2981.84
706.979	2975.7
707.167	3024.85
707.355	2979.79
707.543	3151.82
707.731	3133.39
707.919	2992.08
708.107	3106.77
708.296	3157.97
708.484	2969.55
708.672	2955.22
708.86	3139.54
709.048	3227.6
709.236	3067.86
709.424	2953.17
709.612	3078.1
709.8	2940.88
709.988	3057.62
710.176	3164.11
710.364	3030.99
710.551	3186.64
710.739	3071.95
710.927	3074
711.115	3186.64
711.303	3225.55
711.491	3125.2
711.679	3114.96
711.866	3178.45
712.054	3164.11
712.242	3067.86
712.43	3254.22
712.617	3182.54
712.805	3217.36
712.993	3153.87
713.181	3203.02
713.368	3229.65
713.556	3166.16
713.744	3129.3
713.931	3356.62
714.119	3293.13
714.306	3309.52
714.494	3108.82
714.682	3123.15
714.869	3186.64
715.057	3297.23
715.244	3200.98
715.432	3295.18
715.619	3215.31
715.807	3270.61
715.994	3381.2
716.182	3325.9
716.369	3307.47
716.556	3362.76
716.744	3256.27
716.931	3237.84
717.119	3276.75
717.306	3385.29
717.493	3297.23
717.681	3309.52
717.868	3471.31
718.055	3319.76
718.242	3358.67
718.43	3397.58
718.617	3348.43
718.804	3393.48
718.991	3422.16
719.179	3358.67
719.366	3407.82
719.553	3518.41
719.74	3381.2
719.927	3487.69
720.114	3428.3
720.301	3475.4
720.488	3422.16
720.676	3432.4
720.863	3596.23
721.05	3561.42
721.237	3493.83
721.424	3545.03
721.611	3432.4
721.798	3532.75
721.985	3516.36
722.172	3454.92
722.358	3491.79
722.545	3467.21
722.732	3446.73
722.919	3508.17
723.106	3549.13
723.293	3524.55
723.48	3471.31
723.667	3528.65
723.853	3577.8
724.04	3467.21
724.227	3416.01
724.414	3456.97
724.6	3737.54
724.787	3659.72
724.974	3655.62
725.161	3606.47
725.347	3577.8
725.534	3573.71
725.72	3688.39
725.907	3782.6
726.094	3602.38
726.28	3708.87
726.467	3682.25
726.653	3590.09
726.84	3704.78
727.027	3665.86
727.213	3622.86
727.4	3524.55
727.586	3694.54
727.773	3823.56
727.959	3721.16
728.145	3805.13
728.332	3592.14
728.518	3696.58
728.705	3704.78
728.891	3721.16
729.077	3704.78
729.264	3706.82
729.45	3715.02
729.636	3706.82
729.823	3715.02
730.009	3805.13
730.195	3835.85
730.382	3751.88
730.568	3665.86
730.754	3788.74
730.94	3821.51
731.126	3735.49
731.313	3858.37
731.499	3876.8
731.685	3821.51
731.871	3645.38
732.057	3846.09
732.243	3798.98
732.429	3796.93
732.615	3858.37
732.801	3839.94
732.987	3868.61
733.173	3887.04
733.359	3737.54
733.545	3805.13
733.731	3868.61
733.917	3915.72
734.103	3823.56
734.289	3850.18
734.475	3987.4
734.661	4022.21
734.847	3925.96
735.033	3911.62
735.219	3911.62
735.404	3901.38
735.59	3948.48
735.776	3801.03
735.962	3909.57
736.148	3928
736.333	3817.41
736.519	3801.03
736.705	3893.19
736.89	4007.87
737.076	3905.48
737.262	3833.8
737.447	3850.18
737.633	3807.17
737.819	3964.87
738.004	3844.04
738.19	3882.95
738.375	3905.48
738.561	3958.72
738.747	3913.67
738.932	3766.21
739.118	3987.4
739.303	3813.32
739.489	3790.79
739.674	3739.59
739.859	3864.52
740.045	3792.84
740.23	3821.51
740.416	3758.02
740.601	3831.75
740.786	3790.79
740.972	3751.88
741.157	3803.08
741.342	3665.86
741.528	3733.45
741.713	3829.7
741.898	3755.97
742.084	3643.34
742.269	3852.23
742.454	3882.95
742.639	3676.1
742.824	3706.82
743.01	3739.59
743.195	3661.77
743.38	3672.01
743.565	3700.68
743.75	3639.24
743.935	3667.91
744.12	3825.61
744.305	3573.71
744.49	3596.23
744.675	3585.99
744.86	3524.55
745.045	3526.6
745.23	3633.1
745.415	3553.23
745.6	3497.93
745.785	3401.68
745.97	3465.16
746.155	3456.97
746.34	3561.42
746.525	3456.97
746.71	3600.33
746.895	3422.16
747.079	3428.3
747.264	3270.61
747.449	3444.68
747.634	3403.72
747.819	3297.23
748.003	3319.76
748.188	3205.07
748.373	3291.09
748.557	3270.61
748.742	3170.26
748.927	3157.97
749.111	3141.58
749.296	3172.3
749.481	3135.44
749.665	3174.35
749.85	3108.82
750.034	3127.25
750.219	3078.1
750.404	3174.35
750.588	3170.26
750.773	3008.47
750.957	3014.61
751.141	3010.51
751.326	2947.03
751.51	2912.21
751.695	2858.96
751.879	3000.27
752.064	2869.2
752.248	2871.25
752.432	2957.27
752.617	2818.01
752.801	2834.39
752.985	2666.46
753.17	2768.85
753.354	2764.76
753.538	2738.13
753.722	2764.76
753.907	2793.43
754.091	2766.81
754.275	2623.45
754.459	2602.97
754.643	2652.12
754.828	2674.65
755.012	2531.29
755.196	2654.17
755.38	2492.38
755.564	2484.19
755.748	2506.71
755.932	2555.86
756.116	2428.89
756.3	2418.65
756.484	2480.09
756.668	2453.47
756.852	2308.06
757.036	2437.08
757.22	2410.46
757.404	2418.65
757.588	2291.68
757.772	2416.6
757.956	2369.5
758.14	2379.74
758.323	2263.01
758.507	2385.88
758.691	2254.81
758.875	2236.38
759.059	2291.68
759.242	2148.32
759.426	2158.56
759.61	2275.29
759.794	2197.47
759.977	2191.33
760.161	2246.62
760.345	2101.22
760.528	2150.37
760.712	2142.18
760.895	2078.69
761.079	2209.76
761.263	2160.61
761.446	2033.63
761.63	2133.98
761.813	2105.31
761.997	1951.71
762.18	1900.52
762.364	2131.94
762.547	1937.38
762.731	1964
762.914	2015.2
763.098	1937.38
763.281	1865.7
763.464	2015.2
763.648	1923.04
763.831	1953.76
764.015	2019.3
764.198	1888.23
764.381	1894.37
764.564	1972.19
764.748	1927.14
764.931	1890.28
765.114	1775.59
765.297	1920.99
765.481	1753.06
765.664	1859.56
765.847	1781.73
766.03	1902.56
766.213	1849.32
766.397	1871.84
766.58	1685.48
766.763	1986.53
766.946	1687.53
767.129	1703.91
767.312	1773.54
767.495	1708.01
767.678	1753.06
767.861	1757.16
768.044	1728.49
768.227	1761.25
768.41	1593.32
768.593	1693.67
768.776	1693.67
768.959	1619.94
769.142	1777.64
769.324	1720.29
769.507	1665
769.69	1662.95
769.873	1705.96
770.056	1703.91
770.239	1607.66
770.421	1677.29
770.604	1568.74
770.787	1519.59
770.97	1634.28
771.152	1513.45
771.335	1462.25
771.518	1482.73
771.7	1578.98
771.883	1640.42
772.066	1546.22
772.248	1533.93
772.431	1499.11
772.613	1511.4
772.796	1443.82
772.978	1515.5
773.161	1603.56
773.343	1458.15
773.526	1402.86
773.708	1433.58
773.891	1380.33
774.073	1394.67
774.256	1296.36
774.438	1462.25
774.621	1396.71
774.803	1335.28
774.985	1304.56
775.168	1351.66
775.35	1347.56
775.532	1347.56
775.715	1357.8
775.897	1386.47
776.079	1245.17
776.261	1302.51
776.444	1359.85
776.626	1185.77
776.808	1314.8
776.99	1222.64
777.173	1298.41
777.355	1257.45
777.537	1267.69
777.719	1175.53
777.901	1216.49
778.083	1218.54
778.265	1214.45
778.447	1224.69
778.629	1138.67
778.811	1206.25
778.993	1107.95
779.175	1212.4
779.357	1134.57
779.539	1030.13
779.721	1144.81
779.903	1107.95
780.085	1058.8
780.267	1075.18
780.449	1017.84
780.631	1155.05
780.812	1032.18
780.994	978.93
781.176	999.41
781.358	958.45
781.54	974.83
781.721	956.4
781.903	937.97
782.085	929.78
782.267	1120.24
782.448	942.07
782.63	942.07
782.812	931.83
782.993	956.4
783.175	907.25
783.357	935.92
783.538	892.91
783.72	892.91
783.901	839.67
784.083	937.97
784.264	989.17
784.446	888.82
784.627	677.88
784.809	794.61
784.99	808.95
785.172	874.48
785.353	901.11
785.535	776.18
785.716	950.26
785.897	851.96
786.079	747.51
786.26	892.91
786.441	784.37
786.623	854
786.804	845.81
786.985	788.47
787.167	718.84
787.348	681.97
787.529	811
787.71	880.63
787.891	847.86
788.073	667.64
788.254	722.93
788.435	716.79
788.616	692.21
788.797	686.07
788.978	733.17
789.159	655.35
789.34	620.53
789.522	655.35
789.703	624.63
789.884	743.41
790.065	636.92
790.246	796.66
790.427	598.01
790.607	686.07
790.788	692.21
790.969	634.87
791.15	663.54
791.331	577.53
791.512	647.16
791.693	585.72
791.874	679.93
792.054	643.06
792.235	585.72
792.416	634.87
792.597	632.82
792.778	557.05
792.958	630.77
793.139	587.77
793.32	577.53
793.5	528.38
793.681	614.39
793.862	532.47
794.042	608.25
794.223	528.38
794.404	532.47
794.584	489.46
794.765	489.46
794.945	518.14
795.126	528.38
795.306	542.71
795.487	548.86
795.667	536.57
795.848	610.29
796.028	448.51
796.209	610.29
796.389	552.95
796.57	473.08
796.75	485.37
796.93	514.04
797.111	497.66
797.291	454.65
797.471	503.8
797.652	503.8
797.832	417.79
798.012	471.03
798.192	489.46
798.373	432.12
798.553	409.59
798.733	471.03
798.913	454.65
799.093	434.17
799.274	456.7
799.454	454.65
799.634	524.28
799.814	409.59
799.994	456.7
800.174	505.85
800.354	419.83
800.534	385.02
800.714	419.83
800.894	448.51
801.074	360.44
801.254	452.6
801.434	440.31
801.614	466.94
801.794	415.74
801.974	1193.97
802.154	432.12
802.334	376.83
802.514	342.01
802.693	370.68
802.873	382.97
803.053	413.69
803.233	403.45
803.413	331.77
803.592	423.93
803.772	319.48
803.952	315.39
804.131	354.3
804.311	507.9
804.491	356.35
804.67	315.39
804.85	473.08
805.03	385.02
805.209	385.02
805.389	366.59
805.568	374.78
805.748	342.01
805.928	391.16
806.107	419.83
806.287	288.76
806.466	360.44
806.646	376.83
806.825	303.1
807.004	348.15
807.184	292.86
807.363	333.82
807.543	352.25
807.722	284.67
807.901	428.03
808.081	333.82
808.26	372.73
808.439	362.49
808.619	374.78
808.798	311.29
808.977	309.24
809.156	382.97
809.336	321.53
809.515	382.97
809.694	315.39
809.873	366.59
810.052	348.15
810.231	311.29
810.411	288.76
810.59	313.34
810.769	311.29
810.948	264.19
811.127	294.91
811.306	260.09
811.485	204.8
811.664	305.15
811.843	288.76
812.022	296.96
812.201	266.24
812.38	290.81
812.559	270.33
812.737	335.87
812.916	247.8
813.095	217.08
813.274	266.24
813.453	276.48
813.632	270.33
813.811	200.7
813.989	256
814.168	169.98
814.347	321.53
814.526	317.44
814.704	217.08
814.883	339.96
815.062	225.28
815.24	307.2
815.419	251.9
815.598	208.89
815.776	290.81
815.955	260.09
816.133	268.28
816.312	231.42
816.49	210.94
816.669	190.46
816.847	274.43
817.026	286.72
817.204	206.84
817.383	309.24
817.561	274.43
817.74	243.71
817.918	225.28
818.097	223.23
818.275	210.94
818.453	212.99
818.632	270.33
818.81	210.94
818.988	247.8
819.167	200.7
819.345	167.93
819.523	204.8
819.701	200.7
819.879	169.98
820.058	245.76
820.236	264.19
820.414	237.56
820.592	229.37
820.77	139.26
820.948	161.79
821.127	198.65
821.305	235.52
821.483	153.6
821.661	174.08
821.839	233.47
822.017	147.45
822.195	200.7
822.373	178.17
822.551	247.8
822.729	194.56
822.907	176.13
823.085	235.52
823.262	196.61
823.44	192.51
823.618	126.97
823.796	114.69
823.974	165.89
824.152	186.37
824.329	167.93
824.507	143.36
824.685	192.51
824.863	233.47
825.04	225.28
825.218	221.18
825.396	190.46
825.574	153.6
825.751	149.5
825.929	210.94
826.107	133.12
826.284	155.65
826.462	262.14
826.639	114.69
826.817	122.88
826.994	192.51
827.172	133.12
827.349	188.41
827.527	122.88
827.704	184.32
827.882	192.51
828.059	163.84
828.237	92.16
828.414	178.17
828.591	104.45
828.769	190.46
828.946	126.97
829.124	272.38
829.301	157.69
829.478	137.21
829.655	233.47
829.833	196.61
830.01	135.17
830.187	178.17
830.364	137.21
830.542	163.84
830.719	190.46
830.896	165.89
831.073	147.45
831.25	161.79
831.427	139.26
831.604	198.65
831.782	114.69
831.959	86.01
832.136	167.93
832.313	194.56
832.49	110.59
832.667	188.41
832.844	139.26
833.021	221.18
833.198	79.87
833.374	90.11
833.551	133.12
833.728	161.79
833.905	163.84
834.082	133.12
834.259	153.6
834.436	208.89
834.612	108.54
834.789	135.17
834.966	131.07
835.143	161.79
835.319	137.21
835.496	88.06
835.673	131.07
835.85	167.93
836.026	141.31
836.203	79.87
836.38	124.93
836.556	133.12
836.733	114.69
836.909	198.65
837.086	116.73
837.262	126.97
837.439	38.91
837.616	43.01
837.792	98.3
837.968	155.65
838.145	49.15
838.321	79.87
838.498	135.17
838.674	163.84
838.851	124.93
839.027	104.45
839.203	104.45
839.38	108.54
839.556	212.99
839.732	133.12
839.909	55.3
840.085	124.93
840.261	63.49
840.437	116.73
840.614	90.11
840.79	151.55
840.966	126.97
841.142	153.6
841.318	94.21
841.494	94.21
841.671	194.56
841.847	51.2
842.023	47.1
842.199	178.17
842.375	96.25
842.551	32.77
842.727	79.87
842.903	169.98
843.079	45.06
843.255	92.16
843.431	104.45
843.607	116.73
843.783	-53.25
843.959	145.41
844.134	38.91
844.31	104.45
844.486	71.68
844.662	55.3
844.838	45.06
845.013	92.16
845.189	65.54
845.365	69.63
845.541	69.63
845.716	32.77
845.892	124.93
846.068	63.49
846.244	63.49
846.419	55.3
846.595	126.97
846.77	120.83
846.946	75.77
847.122	-2.05
847.297	20.48
847.473	114.69
847.648	51.2
847.824	34.82
847.999	98.3
848.175	57.34
848.35	77.82
848.526	-18.43
848.701	-24.58
848.876	116.73
849.052	112.64
849.227	79.87
849.403	106.49
849.578	47.1
849.753	83.97
849.929	24.58
850.104	59.39
850.279	47.1
850.454	59.39
850.63	120.83
850.805	47.1
850.98	114.69
851.155	83.97
851.33	22.53
851.505	-14.34
851.681	102.4
851.856	30.72
852.031	-4.1
852.206	79.87
852.381	34.82
852.556	114.69
852.731	94.21
852.906	75.77
853.081	161.79
853.256	22.53
853.431	57.34
853.606	77.82
853.781	69.63
853.956	32.77
854.131	26.62
854.305	40.96
854.48	-28.67
854.655	77.82
854.83	26.62
855.005	32.77
855.18	75.77
855.354	-18.43
855.529	69.63
855.704	49.15
855.879	131.07
856.053	26.62
856.228	59.39
856.403	116.73
856.577	14.34
856.752	14.34
856.926	94.21
857.101	32.77
857.276	30.72
857.45	32.77
857.625	104.45
857.799	96.25
857.974	49.15
858.148	63.49
858.323	65.54
858.497	51.2
858.672	34.82
858.846	98.3
859.02	94.21
859.195	-6.14
859.369	38.91
859.543	83.97
859.718	38.91
859.892	24.58
860.066	28.67
860.241	14.34
860.415	-14.34
860.589	18.43
860.763	-10.24
860.938	-18.43
861.112	24.58
861.286	38.91
861.46	-4.1
861.634	59.39
861.808	30.72
861.982	-8.19
862.157	53.25
862.331	71.68
862.505	-18.43
862.679	18.43
862.853	110.59
863.027	10.24
863.201	106.49
863.375	-38.91
863.549	59.39
863.722	22.53
863.896	63.49
864.07	34.82
864.244	0
864.418	45.06
864.592	28.67
864.766	112.64
864.939	-8.19
865.113	-30.72
865.287	-2.05
865.461	-47.1
865.634	-6.14
865.808	12.29
865.982	-49.15
866.156	34.82
866.329	-16.38
866.503	55.3
866.676	43.01
866.85	20.48
867.024	20.48
867.197	114.69
867.371	49.15
867.544	53.25
867.718	26.62
867.891	59.39
868.065	-45.06
868.238	-22.53
868.412	61.44
868.585	8.19
868.759	-6.14
868.932	75.77
869.105	59.39
869.279	92.16
869.452	63.49
869.625	14.34
869.799	151.55
869.972	63.49
870.145	-10.24
870.319	61.44
870.492	47.1
870.665	69.63
870.838	51.2
871.011	-47.1
871.185	38.91
871.358	-32.77
871.531	112.64
871.704	2.05
871.877	47.1
872.05	-14.34
872.223	20.48
872.396	14.34
872.569	-8.19
872.742	-22.53
872.915	77.82
873.088	36.86
873.261	26.62
873.434	77.82
873.607	10.24
873.78	49.15
873.953	63.49
874.126	43.01
874.299	10.24
874.471	-32.77
874.644	49.15
874.817	18.43
874.99	131.07
875.163	40.96
875.335	69.63
875.508	18.43
875.681	73.73
875.853	-20.48
876.026	-40.96
876.199	45.06
876.371	-40.96
876.544	2.05
876.717	-32.77
876.889	20.48
877.062	-55.3
877.234	22.53
877.407	45.06
877.579	51.2
877.752	40.96
877.924	73.73
878.097	47.1
878.269	-6.14
878.442	47.1
878.614	-26.62
878.786	40.96
878.959	24.58
879.131	4.1
879.303	-55.3
879.476	12.29
879.648	90.11
879.82	45.06
879.993	26.62
880.165	43.01
880.337	0
880.509	-2.05
880.681	-24.58
880.854	20.48
881.026	4.1
881.198	137.21
881.37	-32.77
881.542	69.63
881.714	20.48
881.886	-53.25
882.058	-34.82
882.23	-2.05
882.402	16.38
882.574	47.1
882.746	14.34
882.918	59.39
883.09	-45.06
883.262	0
883.434	88.06
883.606	-32.77
883.778	67.58
883.95	81.92
884.122	28.67
884.293	40.96
884.465	10.24
884.637	20.48
884.809	28.67
884.98	49.15
885.152	96.25
885.324	102.4
885.496	28.67
885.667	-36.86
885.839	-4.1
886.011	77.82
886.182	14.34
886.354	53.25
886.525	-36.86
886.697	51.2
886.869	4.1
887.04	-2.05
887.212	110.59
887.383	79.87
887.555	-20.48
887.726	-2.05
887.897	-18.43
888.069	-61.44
888.24	81.92
888.412	-61.44
888.583	-22.53
888.754	-18.43
888.926	-14.34
889.097	14.34
889.268	-106.49
889.44	-4.1
889.611	6.14
889.782	-43.01
889.953	-51.2
890.125	90.11
890.296	-32.77
890.467	59.39
890.638	36.86
890.809	65.54
890.98	-22.53
891.151	12.29
891.323	30.72
891.494	8.19
891.665	-4.1
891.836	-4.1
892.007	81.92
892.178	10.24
892.349	10.24
892.52	22.53
892.691	-34.82
892.862	-92.16
893.032	-18.43
893.203	-16.38
893.374	24.58
893.545	-12.29
893.716	-30.72
893.887	8.19
894.057	16.38
894.228	51.2
894.399	30.72
894.57	26.62
894.74	-22.53
894.911	-14.34
895.082	30.72
895.253	-65.53
895.423	12.29
895.594	-14.34
895.764	-4.1
895.935	-4.1
896.106	43.01
896.276	65.54
896.447	4.1
896.617	-79.87
896.788	6.14
896.958	40.96
897.129	16.38
897.299	-30.72
897.47	88.06
897.64	43.01
897.81	30.72
897.981	8.19
898.151	-18.43
898.322	71.68
898.492	73.73
898.662	6.14
898.832	10.24
899.003	-63.49
899.173	34.82
899.343	22.53
899.513	-8.19
