Data from USB4F104151__33__12-23-44-741.txt Node

Date: Fri Mar 14 12:23:44 EDT 2025
User: louis
Spectrometer: USB4F10415
Trigger mode: 4
Integration Time (sec): 3.500000E-2
Scans to average: 1
Electric dark correction enabled: true
Nonlinearity correction enabled: false
Boxcar width: 0
XAxis mode: Wavelengths
Number of Pixels in Spectrum: 3648
>>>>>Begin Spectral Data<<<<<
178.204	-174.93
178.424	-174.93
178.644	-174.93
178.864	-144.21
179.084	-99.16
179.304	-13.14
179.524	29.87
179.744	-66.39
179.964	68.78
180.184	-47.96
180.404	17.58
180.624	-21.33
180.844	-17.24
181.064	-35.67
181.283	36.01
181.503	46.25
181.723	3.24
181.943	5.29
182.163	191.66
182.383	-43.86
182.602	87.21
182.822	31.91
183.042	19.63
183.262	117.93
183.482	-27.48
183.701	83.11
183.921	48.3
184.141	107.69
184.361	23.72
184.58	31.91
184.8	-0.85
185.02	25.77
185.239	138.41
185.459	29.87
185.679	42.15
185.898	33.96
186.118	27.82
186.338	15.53
186.557	58.54
186.777	-19.29
186.997	89.26
187.216	33.96
187.436	136.36
187.655	27.82
187.875	-15.19
188.095	83.11
188.314	99.5
188.534	83.11
188.753	48.3
188.973	-9.05
189.192	83.11
189.412	72.87
189.631	136.36
189.851	-56.15
190.07	50.35
190.29	-66.39
190.509	13.48
190.729	-2.9
190.948	91.31
191.168	154.79
191.387	25.77
191.607	50.35
191.826	56.49
192.045	40.11
192.265	19.63
192.484	72.87
192.704	7.34
192.923	9.39
193.142	58.54
193.362	1.19
193.581	126.12
193.8	19.63
194.02	-15.19
194.239	-27.48
194.458	122.02
194.678	1.19
194.897	31.91
195.116	72.87
195.335	29.87
195.555	29.87
195.774	17.58
195.993	-11.09
196.212	54.44
196.432	-29.52
196.651	103.59
196.87	50.35
197.089	101.55
197.308	91.31
197.528	40.11
197.747	60.59
197.966	95.4
198.185	89.26
198.404	-11.09
198.623	-19.29
198.842	52.39
199.062	93.35
199.281	74.92
199.5	83.11
199.719	17.58
199.938	3.24
200.157	128.17
200.376	103.59
200.595	101.55
200.814	11.43
201.033	62.63
201.252	25.77
201.471	62.63
201.69	54.44
201.909	79.02
202.128	-47.96
202.347	62.63
202.566	25.77
202.785	48.3
203.004	17.58
203.223	87.21
203.442	3.24
203.661	5.29
203.879	136.36
204.098	99.5
204.317	36.01
204.536	136.36
204.755	76.97
204.974	31.91
205.193	-0.85
205.411	117.93
205.63	124.07
205.849	60.59
206.068	33.96
206.287	17.58
206.505	60.59
206.724	52.39
206.943	-13.14
207.162	7.34
207.381	33.96
207.599	62.63
207.818	-35.67
208.037	-2.9
208.255	-45.91
208.474	85.16
208.693	52.39
208.911	42.15
209.13	93.35
209.349	46.25
209.567	66.73
209.786	91.31
210.005	44.2
210.223	25.77
210.442	44.2
210.661	62.63
210.879	79.02
211.098	13.48
211.316	38.06
211.535	11.43
211.753	-52.05
211.972	54.44
212.191	9.39
212.409	42.15
212.628	21.67
212.846	68.78
213.065	46.25
213.283	48.3
213.502	17.58
213.72	1.19
213.938	81.07
214.157	56.49
214.375	-11.09
214.594	-27.48
214.812	85.16
215.031	58.54
215.249	-0.85
215.467	54.44
215.686	95.4
215.904	60.59
216.122	46.25
216.341	81.07
216.559	33.96
216.778	62.63
216.996	44.2
217.214	11.43
217.432	-9.05
217.651	23.72
217.869	44.2
218.087	23.72
218.306	25.77
218.524	54.44
218.742	40.11
218.96	-23.38
219.179	40.11
219.397	134.31
219.615	72.87
219.833	9.39
220.051	29.87
220.27	48.3
220.488	31.91
220.706	87.21
220.924	13.48
221.142	-29.52
221.36	60.59
221.578	62.63
221.796	13.48
222.015	44.2
222.233	95.4
222.451	134.31
222.669	9.39
222.887	48.3
223.105	46.25
223.323	17.58
223.541	7.34
223.759	25.77
223.977	3.24
224.195	132.26
224.413	36.01
224.631	105.64
224.849	33.96
225.067	48.3
225.285	62.63
225.503	-4.95
225.721	-45.91
225.939	21.67
226.157	62.63
226.375	91.31
226.592	13.48
226.81	85.16
227.028	72.87
227.246	68.78
227.464	44.2
227.682	44.2
227.9	21.67
228.117	38.06
228.335	-23.38
228.553	50.35
228.771	50.35
228.989	38.06
229.206	-11.09
229.424	7.34
229.642	-27.48
229.86	-64.34
230.077	91.31
230.295	76.97
230.513	85.16
230.731	140.46
230.948	72.87
231.166	134.31
231.384	52.39
231.601	38.06
231.819	11.43
232.037	-41.81
232.254	19.63
232.472	58.54
232.689	38.06
232.907	89.26
233.125	15.53
233.342	-19.29
233.56	-9.05
233.777	27.82
233.995	58.54
234.213	36.01
234.43	19.63
234.648	58.54
234.865	99.5
235.083	23.72
235.3	15.53
235.518	79.02
235.735	72.87
235.953	33.96
236.17	52.39
236.388	42.15
236.605	-11.09
236.822	122.02
237.04	93.35
237.257	1.19
237.475	21.67
237.692	3.24
237.909	31.91
238.127	105.64
238.344	21.67
238.562	83.11
238.779	81.07
238.996	42.15
239.214	48.3
239.431	97.45
239.648	5.29
239.865	-13.14
240.083	128.17
240.3	11.43
240.517	-11.09
240.735	50.35
240.952	132.26
241.169	62.63
241.386	27.82
241.603	87.21
241.821	-88.92
242.038	85.16
242.255	89.26
242.472	66.73
242.689	25.77
242.907	113.83
243.124	31.91
243.341	17.58
243.558	44.2
243.775	1.19
243.992	11.43
244.209	62.63
244.426	76.97
244.643	95.4
244.86	44.2
245.078	17.58
245.295	15.53
245.512	36.01
245.729	-9.05
245.946	33.96
246.163	-21.33
246.38	9.39
246.597	11.43
246.814	95.4
247.031	-11.09
247.248	50.35
247.464	87.21
247.681	-25.43
247.898	40.11
248.115	7.34
248.332	-58.2
248.549	138.41
248.766	126.12
248.983	107.69
249.2	52.39
249.417	46.25
249.633	44.2
249.85	29.87
250.067	19.63
250.284	-19.29
250.501	68.78
250.717	33.96
250.934	-41.81
251.151	124.07
251.368	11.43
251.585	33.96
251.801	9.39
252.018	-19.29
252.235	113.83
252.451	58.54
252.668	74.92
252.885	97.45
253.102	162.98
253.318	42.15
253.535	31.91
253.752	19.63
253.968	40.11
254.185	-33.62
254.401	89.26
254.618	66.73
254.835	44.2
255.051	5.29
255.268	46.25
255.484	-25.43
255.701	42.15
255.917	66.73
256.134	3.24
256.351	81.07
256.567	-39.76
256.784	38.06
257	19.63
257.217	58.54
257.433	44.2
257.65	50.35
257.866	89.26
258.082	54.44
258.299	60.59
258.515	23.72
258.732	1.19
258.948	50.35
259.165	50.35
259.381	15.53
259.597	70.83
259.814	44.2
260.03	19.63
260.246	46.25
260.463	87.21
260.679	128.17
260.895	23.72
261.112	25.77
261.328	-27.48
261.544	23.72
261.761	122.02
261.977	95.4
262.193	-25.43
262.409	91.31
262.626	3.24
262.842	7.34
263.058	-74.58
263.274	107.69
263.49	19.63
263.707	5.29
263.923	36.01
264.139	3.24
264.355	-37.72
264.571	140.46
264.787	76.97
265.004	31.91
265.22	-23.38
265.436	7.34
265.652	-0.85
265.868	23.72
266.084	-21.33
266.3	-2.9
266.516	31.91
266.732	103.59
266.948	72.87
267.164	-35.67
267.38	1.19
267.596	52.39
267.812	99.5
268.028	56.49
268.244	11.43
268.46	60.59
268.676	48.3
268.892	89.26
269.108	-39.76
269.324	72.87
269.54	-29.52
269.756	56.49
269.972	1.19
270.188	1.19
270.403	42.15
270.619	44.2
270.835	25.77
271.051	56.49
271.267	-11.09
271.483	95.4
271.698	99.5
271.914	83.11
272.13	31.91
272.346	89.26
272.562	1.19
272.777	46.25
272.993	7.34
273.209	19.63
273.425	70.83
273.64	60.59
273.856	-54.1
274.072	11.43
274.287	9.39
274.503	91.31
274.719	62.63
274.934	5.29
275.15	-50
275.366	-9.05
275.581	33.96
275.797	52.39
276.012	44.2
276.228	21.67
276.444	50.35
276.659	103.59
276.875	54.44
277.09	-50
277.306	-52.05
277.521	66.73
277.737	19.63
277.952	83.11
278.168	46.25
278.383	42.15
278.599	-7
278.814	48.3
279.03	-15.19
279.245	134.31
279.461	52.39
279.676	124.07
279.892	76.97
280.107	-15.19
280.322	1.19
280.538	76.97
280.753	23.72
280.969	15.53
281.184	-13.14
281.399	111.78
281.615	46.25
281.83	44.2
282.045	27.82
282.26	46.25
282.476	52.39
282.691	-4.95
282.906	3.24
283.122	11.43
283.337	-41.81
283.552	70.83
283.767	21.67
283.983	58.54
284.198	56.49
284.413	74.92
284.628	-50
284.843	89.26
285.058	25.77
285.274	79.02
285.489	17.58
285.704	-2.9
285.919	-88.92
286.134	1.19
286.349	7.34
286.564	-11.09
286.779	72.87
286.995	27.82
287.21	-25.43
287.425	48.3
287.64	-13.14
287.855	13.48
288.07	33.96
288.285	74.92
288.5	-27.48
288.715	1.19
288.93	52.39
289.145	-31.57
289.36	36.01
289.575	60.59
289.79	109.74
290.004	76.97
290.219	68.78
290.434	72.87
290.649	23.72
290.864	60.59
291.079	23.72
291.294	81.07
291.509	83.11
291.724	46.25
291.938	7.34
292.153	107.69
292.368	62.63
292.583	72.87
292.798	3.24
293.012	89.26
293.227	21.67
293.442	93.35
293.657	97.45
293.871	122.02
294.086	124.07
294.301	81.07
294.516	38.06
294.73	72.87
294.945	17.58
295.16	42.15
295.374	62.63
295.589	111.78
295.804	38.06
296.018	33.96
296.233	89.26
296.447	42.15
296.662	46.25
296.877	68.78
297.091	17.58
297.306	-21.33
297.52	-19.29
297.735	60.59
297.949	40.11
298.164	58.54
298.378	21.67
298.593	56.49
298.807	23.72
299.022	38.06
299.236	109.74
299.451	101.55
299.665	-13.14
299.88	64.68
300.094	7.34
300.309	52.39
300.523	27.82
300.737	64.68
300.952	74.92
301.166	50.35
301.381	27.82
301.595	11.43
301.809	62.63
302.024	58.54
302.238	-2.9
302.452	74.92
302.667	-4.95
302.881	126.12
303.095	48.3
303.309	25.77
303.524	50.35
303.738	101.55
303.952	21.67
304.166	25.77
304.381	-37.72
304.595	74.92
304.809	-27.48
305.023	87.21
305.237	-39.76
305.452	-9.05
305.666	111.78
305.88	-2.9
306.094	130.22
306.308	27.82
306.522	52.39
306.736	87.21
306.95	66.73
307.164	11.43
307.379	91.31
307.593	56.49
307.807	99.5
308.021	13.48
308.235	72.87
308.449	27.82
308.663	-35.67
308.877	85.16
309.091	97.45
309.305	48.3
309.519	5.29
309.733	87.21
309.947	74.92
310.161	40.11
310.374	48.3
310.588	66.73
310.802	27.82
311.016	81.07
311.23	-13.14
311.444	17.58
311.658	58.54
311.872	81.07
312.085	76.97
312.299	38.06
312.513	27.82
312.727	89.26
312.941	62.63
313.154	91.31
313.368	64.68
313.582	-9.05
313.796	89.26
314.009	-0.85
314.223	85.16
314.437	56.49
314.651	29.87
314.864	60.59
315.078	29.87
315.292	111.78
315.505	15.53
315.719	70.83
315.933	31.91
316.146	3.24
316.36	3.24
316.573	119.98
316.787	83.11
317.001	91.31
317.214	-56.15
317.428	122.02
317.641	58.54
317.855	76.97
318.068	-0.85
318.282	36.01
318.495	97.45
318.709	40.11
318.922	50.35
319.136	87.21
319.349	62.63
319.563	62.63
319.776	85.16
319.99	-43.86
320.203	122.02
320.417	87.21
320.63	27.82
320.843	115.88
321.057	54.44
321.27	95.4
321.483	60.59
321.697	66.73
321.91	40.11
322.124	-7
322.337	89.26
322.55	62.63
322.763	7.34
322.977	56.49
323.19	81.07
323.403	42.15
323.617	60.59
323.83	60.59
324.043	68.78
324.256	138.41
324.469	56.49
324.683	54.44
324.896	19.63
325.109	113.83
325.322	19.63
325.535	42.15
325.748	124.07
325.962	-9.05
326.175	95.4
326.388	36.01
326.601	62.63
326.814	-17.24
327.027	42.15
327.24	109.74
327.453	1.19
327.666	21.67
327.879	27.82
328.092	105.64
328.305	23.72
328.518	-4.95
328.731	19.63
328.944	11.43
329.157	-76.63
329.37	76.97
329.583	95.4
329.796	89.26
330.009	15.53
330.222	85.16
330.435	62.63
330.648	36.01
330.861	56.49
331.073	117.93
331.286	38.06
331.499	93.35
331.712	13.48
331.925	60.59
332.138	7.34
332.35	40.11
332.563	9.39
332.776	81.07
332.989	54.44
333.202	40.11
333.414	99.5
333.627	40.11
333.84	46.25
334.053	101.55
334.265	-17.24
334.478	40.11
334.691	97.45
334.903	72.87
335.116	44.2
335.329	31.91
335.541	25.77
335.754	111.78
335.966	25.77
336.179	21.67
336.392	74.92
336.604	-7
336.817	58.54
337.029	1.19
337.242	46.25
337.454	70.83
337.667	31.91
337.88	132.26
338.092	79.02
338.305	66.73
338.517	9.39
338.729	119.98
338.942	19.63
339.154	7.34
339.367	-43.86
339.579	109.74
339.792	-9.05
340.004	81.07
340.217	62.63
340.429	-4.95
340.641	50.35
340.854	62.63
341.066	1.19
341.278	46.25
341.491	64.68
341.703	-33.62
341.915	5.29
342.128	70.83
342.34	-35.67
342.552	29.87
342.764	46.25
342.977	85.16
343.189	103.59
343.401	-9.05
343.613	99.5
343.826	115.88
344.038	-52.05
344.25	-4.95
344.462	5.29
344.674	42.15
344.886	91.31
345.099	144.55
345.311	140.46
345.523	25.77
345.735	23.72
345.947	27.82
346.159	76.97
346.371	44.2
346.583	40.11
346.795	171.18
347.007	7.34
347.219	44.2
347.431	72.87
347.643	54.44
347.855	50.35
348.067	87.21
348.279	52.39
348.491	91.31
348.703	89.26
348.915	99.5
349.127	25.77
349.339	29.87
349.551	52.39
349.763	107.69
349.975	17.58
350.187	119.98
350.399	62.63
350.61	40.11
350.822	62.63
351.034	27.82
351.246	42.15
351.458	5.29
351.669	54.44
351.881	128.17
352.093	109.74
352.305	81.07
352.517	36.01
352.728	140.46
352.94	11.43
353.152	124.07
353.363	76.97
353.575	107.69
353.787	87.21
353.999	101.55
354.21	132.26
354.422	76.97
354.633	-17.24
354.845	107.69
355.057	105.64
355.268	70.83
355.48	52.39
355.692	-37.72
355.903	89.26
356.115	93.35
356.326	-33.62
356.538	119.98
356.749	50.35
356.961	31.91
357.172	72.87
357.384	29.87
357.595	99.5
357.807	117.93
358.018	72.87
358.23	3.24
358.441	115.88
358.653	138.41
358.864	126.12
359.075	3.24
359.287	50.35
359.498	72.87
359.709	46.25
359.921	72.87
360.132	3.24
360.344	-7
360.555	11.43
360.766	111.78
360.977	54.44
361.189	62.63
361.4	27.82
361.611	68.78
361.823	48.3
362.034	27.82
362.245	11.43
362.456	5.29
362.667	46.25
362.879	-64.34
363.09	36.01
363.301	68.78
363.512	85.16
363.723	-11.09
363.935	40.11
364.146	74.92
364.357	25.77
364.568	91.31
364.779	25.77
364.99	87.21
365.201	31.91
365.412	83.11
365.623	66.73
365.834	33.96
366.045	93.35
366.256	21.67
366.467	48.3
366.678	81.07
366.889	23.72
367.1	40.11
367.311	91.31
367.522	103.59
367.733	29.87
367.944	83.11
368.155	113.83
368.366	111.78
368.577	46.25
368.788	56.49
368.999	119.98
369.209	95.4
369.42	111.78
369.631	103.59
369.842	50.35
370.053	15.53
370.264	103.59
370.474	50.35
370.685	64.68
370.896	29.87
371.107	7.34
371.317	85.16
371.528	-52.05
371.739	13.48
371.95	64.68
372.16	117.93
372.371	27.82
372.582	54.44
372.792	68.78
373.003	29.87
373.214	13.48
373.424	81.07
373.635	-15.19
373.846	62.63
374.056	48.3
374.267	23.72
374.477	27.82
374.688	33.96
374.898	9.39
375.109	48.3
375.319	-0.85
375.53	91.31
375.74	48.3
375.951	66.73
376.161	42.15
376.372	142.5
376.582	46.25
376.793	23.72
377.003	48.3
377.214	-39.76
377.424	117.93
377.635	105.64
377.845	117.93
378.055	117.93
378.266	-0.85
378.476	79.02
378.686	-19.29
378.897	58.54
379.107	70.83
379.317	113.83
379.528	-0.85
379.738	124.07
379.948	9.39
380.158	115.88
380.369	31.91
380.579	89.26
380.789	33.96
380.999	70.83
381.21	60.59
381.42	130.22
381.63	62.63
381.84	23.72
382.05	38.06
382.261	64.68
382.471	54.44
382.681	-2.9
382.891	103.59
383.101	70.83
383.311	74.92
383.521	66.73
383.731	48.3
383.941	76.97
384.151	91.31
384.361	33.96
384.571	19.63
384.781	42.15
384.991	109.74
385.201	89.26
385.411	93.35
385.621	70.83
385.831	19.63
386.041	31.91
386.251	62.63
386.461	50.35
386.671	60.59
386.881	21.67
387.091	105.64
387.301	111.78
387.511	99.5
387.72	52.39
387.93	93.35
388.14	44.2
388.35	83.11
388.56	117.93
388.769	70.83
388.979	60.59
389.189	36.01
389.399	91.31
389.609	76.97
389.818	107.69
390.028	40.11
390.238	60.59
390.447	58.54
390.657	21.67
390.867	38.06
391.076	9.39
391.286	79.02
391.496	52.39
391.705	117.93
391.915	126.12
392.125	91.31
392.334	64.68
392.544	70.83
392.753	66.73
392.963	25.77
393.172	107.69
393.382	54.44
393.591	93.35
393.801	97.45
394.01	130.22
394.22	167.08
394.429	-0.85
394.639	122.02
394.848	97.45
395.058	111.78
395.267	31.91
395.477	97.45
395.686	122.02
395.895	126.12
396.105	130.22
396.314	68.78
396.524	62.63
396.733	-11.09
396.942	124.07
397.152	36.01
397.361	113.83
397.57	124.07
397.78	113.83
397.989	-45.91
398.198	122.02
398.407	99.5
398.617	93.35
398.826	48.3
399.035	111.78
399.244	54.44
399.453	128.17
399.663	87.21
399.872	148.65
400.081	58.54
400.29	111.78
400.499	95.4
400.708	109.74
400.917	93.35
401.127	83.11
401.336	68.78
401.545	142.5
401.754	195.75
401.963	181.42
402.172	117.93
402.381	93.35
402.59	181.42
402.799	101.55
403.008	236.71
403.217	72.87
403.426	138.41
403.635	91.31
403.844	105.64
404.053	103.59
404.262	107.69
404.471	91.31
404.68	203.94
404.888	115.88
405.097	95.4
405.306	162.98
405.515	142.5
405.724	91.31
405.933	144.55
406.142	203.94
406.35	179.37
406.559	193.7
406.768	162.98
406.977	205.99
407.185	177.32
407.394	210.09
407.603	171.18
407.812	201.9
408.02	203.94
408.229	226.47
408.438	162.98
408.646	152.74
408.855	277.67
409.064	201.9
409.272	203.94
409.481	191.66
409.69	179.37
409.898	226.47
410.107	261.29
410.315	273.57
410.524	183.46
410.733	214.18
410.941	242.85
411.15	328.87
411.358	343.21
411.567	369.83
411.775	378.02
411.984	292.01
412.192	296.1
412.401	363.69
412.609	365.73
412.818	414.88
413.026	363.69
413.234	408.74
413.443	410.79
413.651	449.7
413.86	439.46
414.068	502.95
414.276	511.14
414.485	504.99
414.693	531.62
414.901	574.63
415.11	613.54
415.318	472.23
415.526	523.43
415.734	558.24
415.943	568.48
416.151	595.11
416.359	586.91
416.567	605.35
416.776	695.46
416.984	713.89
417.192	756.9
417.4	765.09
417.608	781.47
417.817	806.05
418.025	816.29
418.233	879.77
418.441	869.53
418.649	832.67
418.857	953.5
419.065	920.73
419.273	969.88
419.481	941.21
419.689	1072.28
419.897	1084.57
420.105	1137.82
420.313	1221.78
420.521	1103
420.729	1213.59
420.937	1234.07
421.145	1326.23
421.353	1418.39
421.561	1420.44
421.769	1436.82
421.977	1516.69
422.185	1393.81
422.393	1559.7
422.601	1662.1
422.809	1688.72
423.017	1643.67
423.224	1762.45
423.432	1815.69
423.64	1832.08
423.848	2014.35
424.056	1967.24
424.263	2092.17
424.471	2114.7
424.679	2192.52
424.887	2331.78
425.094	2344.07
425.302	2362.5
425.51	2421.89
425.718	2524.29
425.925	2395.27
426.133	2665.6
426.341	2858.11
426.548	2780.29
426.756	2880.64
426.964	2962.56
427.171	3236.99
427.379	3118.2
427.586	3148.92
427.794	3212.41
428.001	3361.91
428.209	3759.22
428.417	3531.89
428.624	3820.66
428.832	3783.79
429.039	3880.05
429.247	3871.86
429.454	4142.19
429.662	4451.43
429.869	4113.52
430.076	4471.91
430.284	4308.07
430.491	4535.4
430.699	4899.94
430.906	4760.67
431.114	4889.7
431.321	4940.9
431.528	5063.77
431.736	5569.62
431.943	5686.36
432.15	5590.1
432.358	5489.75
432.565	5829.71
432.772	5772.37
432.979	6274.12
433.187	6227.02
433.394	6325.32
433.601	6743.11
433.808	6859.84
434.016	6775.88
434.223	7103.55
434.43	7459.9
434.637	7244.86
434.844	7750.71
435.052	7877.68
435.259	7855.15
435.466	8043.57
435.673	7660.6
435.88	8336.43
436.087	8791.08
436.294	8645.67
436.501	8584.23
436.708	8881.19
436.915	9108.51
437.122	9595.93
437.329	9393.18
437.537	9747.48
437.743	9915.41
437.95	9806.87
438.157	10347.53
438.364	10609.67
438.571	10769.41
438.778	10802.18
438.985	11619.32
439.192	11219.97
439.399	11607.03
439.606	11381.76
439.813	11838.45
440.02	12667.88
440.227	12624.87
440.433	12512.24
440.64	13116.39
440.847	12653.55
441.054	13216.74
441.261	13982.68
441.467	13761.5
441.674	14111.7
441.881	14502.86
442.088	14306.26
442.294	14509.01
442.501	14877.64
442.708	15064
442.914	15408.06
443.121	16393.14
443.328	16053.17
443.534	17230.76
443.741	16325.55
443.948	16434.1
444.154	17716.12
444.361	17388.45
444.568	17396.64
444.774	17562.53
444.981	17660.83
445.187	18273.17
445.394	19231.62
445.6	18783.12
445.807	20552.56
446.013	19911.55
446.22	19925.88
446.426	21271.4
446.633	21222.25
446.839	21621.6
447.046	20544.37
447.252	22119.26
447.459	22068.06
447.665	21762.91
447.871	22874.96
448.078	23984.96
448.284	23206.73
448.491	23585.6
448.697	24527.67
448.903	24996.65
449.11	25162.54
449.316	24550.2
449.522	24849.2
449.728	25723.68
449.935	25987.87
450.141	25817.89
450.347	26219.29
450.553	25609
450.76	25946.91
450.966	26727.19
451.172	26985.23
451.378	27312.91
451.584	26766.1
451.791	27317
451.997	26989.33
452.203	27632.39
452.409	27699.97
452.615	27411.21
452.821	26579.73
453.027	26184.48
453.233	27132.68
453.44	26751.76
453.646	26839.83
453.852	26868.5
454.058	27392.78
454.264	25977.63
454.47	26782.48
454.676	26241.82
454.882	27355.91
455.088	24824.62
455.294	25256.75
455.5	25649.96
455.705	25643.81
455.911	24861.49
456.117	24357.69
456.323	23948.09
456.529	22627.15
456.735	23827.26
456.941	22872.91
457.147	22922.06
457.352	22010.71
457.558	21564.26
457.764	21777.25
457.97	21508.96
458.176	21007.21
458.381	20841.32
458.587	19553.15
458.793	19835.77
458.999	18908.04
459.204	20333.43
459.41	19870.59
459.616	18203.54
459.821	18260.88
460.027	18006.94
460.233	17757.08
460.438	17040.29
460.644	17056.68
460.85	16225.2
461.055	16309.17
461.261	16182.2
461.466	14707.66
461.672	14347.22
461.878	15438.78
462.083	14212.05
462.289	14242.77
462.494	13990.87
462.7	13362.14
462.905	13120.48
463.111	13556.7
463.316	13360.09
463.522	13081.57
463.727	13194.21
463.932	13325.28
464.138	13040.61
464.343	13143.01
464.549	12827.62
464.754	13155.3
464.959	12839.91
465.165	12946.41
465.37	12291.06
465.575	11983.86
465.781	12643.31
465.986	12739.56
466.191	12264.43
466.397	11893.75
466.602	11324.41
466.807	11701.24
467.012	11881.46
467.218	11760.63
467.423	11539.45
467.628	11725.82
467.833	12188.66
468.038	11531.26
468.244	11312.13
468.449	11820.02
468.654	11379.71
468.859	11422.72
469.064	11437.05
469.269	10853.38
469.474	10914.82
469.679	11240.45
469.885	10841.09
470.09	10873.86
470.295	10957.83
470.5	10519.56
470.705	10732.55
470.91	10333.2
471.115	10570.76
471.32	10413.07
471.525	10439.69
471.73	10228.75
471.935	10226.7
472.139	9837.59
472.344	10150.93
472.549	9858.07
472.754	9694.23
472.959	9815.06
473.164	9274.4
473.369	9227.29
473.574	9638.94
473.778	9479.19
473.983	9407.52
474.188	9401.37
474.393	9100.32
474.598	8963.11
474.802	8692.77
475.007	8743.97
475.212	8842.28
475.417	8373.29
475.621	8500.26
475.826	8528.94
476.031	8315.95
476.235	8219.69
476.44	8416.3
476.645	8066.1
476.849	8082.48
477.054	8152.11
477.259	7908.4
477.463	7902.26
477.668	7703.61
477.872	7808.05
478.077	7570.49
478.282	7593.01
478.486	7701.56
478.691	7361.59
478.895	7263.29
479.1	7302.2
479.304	7406.65
479.509	7283.77
479.713	7355.45
479.918	7171.13
480.122	7054.4
480.326	7259.2
480.531	7078.97
480.735	7091.26
480.94	7035.97
481.144	7107.65
481.348	6810.69
481.553	7058.49
481.757	6749.25
481.961	6898.75
482.166	6964.29
482.37	6755.4
482.574	6894.66
482.778	6884.42
482.983	6933.57
483.187	6767.68
483.391	6728.77
483.595	6728.77
483.8	6630.47
484.004	6884.42
484.208	6984.77
484.412	6872.13
484.616	6952
484.821	6716.48
485.025	6687.81
485.229	6818.88
485.433	6843.46
485.637	6835.27
485.841	6659.14
486.045	6943.81
486.249	6726.72
486.453	6761.54
486.657	6784.07
486.861	6743.11
487.065	6599.75
487.269	6882.37
487.473	6771.78
487.677	6931.52
487.881	6845.51
488.085	6814.79
488.289	6845.51
488.493	6915.14
488.697	6771.78
488.901	6956.1
489.105	6818.88
489.309	6843.46
489.512	6898.75
489.716	7009.34
489.92	6911.04
490.124	6816.83
490.328	7111.74
490.531	6911.04
490.735	7136.32
490.939	6911.04
491.143	7140.41
491.346	7035.97
491.55	7050.3
491.754	7193.66
491.958	7056.45
492.161	7033.92
492.365	7105.6
492.569	7283.77
492.772	7199.8
492.976	7318.59
493.18	7287.87
493.383	7380.03
493.587	7361.59
493.79	7490.62
493.994	7443.51
494.197	7533.62
494.401	7586.87
494.605	7523.38
494.808	7793.72
495.012	7543.86
495.215	7685.17
495.419	7763
495.622	7758.9
495.825	7842.87
496.029	7861.3
496.232	8186.93
496.436	7955.51
496.639	8301.61
496.843	8318
497.046	8318
497.249	8465.45
497.453	8483.88
497.656	8510.5
497.859	8520.74
498.063	8750.12
498.266	8877.09
498.469	8842.28
498.673	8924.19
498.876	9241.63
499.079	9098.27
499.282	9139.23
499.485	9509.91
499.689	9446.43
499.892	9651.22
500.095	9700.37
500.298	10032.15
500.501	9616.41
500.705	10083.34
500.908	10312.72
501.111	10054.67
501.314	10204.17
501.517	10578.95
501.72	10761.22
501.923	10624.01
502.126	10853.38
502.329	10957.83
502.532	11095.04
502.735	11209.73
502.938	11566.07
503.141	11590.65
503.344	11488.25
503.547	11727.86
503.75	11863.03
503.953	12004.34
504.156	12139.51
504.359	12332.01
504.562	12209.14
504.765	12801
504.968	12608.49
505.17	12520.43
505.373	12788.71
505.576	13204.45
505.779	13218.78
505.982	13437.92
506.185	13491.16
506.387	13583.32
506.59	13951.96
506.793	14113.75
506.996	14185.43
507.198	14365.65
507.401	14429.13
507.604	14678.99
507.807	14750.67
508.009	14730.19
508.212	15039.43
508.415	15021
508.617	15344.58
508.82	15406.02
509.022	15584.19
509.225	15973.3
509.428	15967.16
509.63	16206.77
509.833	16202.68
510.035	16673.71
510.238	16669.61
510.44	16837.55
510.643	17226.66
510.845	17148.84
511.048	17148.84
511.25	17445.79
511.453	17757.08
511.655	18314.13
511.858	17927.07
512.06	18498.45
512.262	18502.54
512.465	18291.6
512.667	18781.07
512.87	18727.82
513.072	18959.24
513.274	19555.2
513.477	19704.7
513.679	20104.06
513.881	20040.57
514.084	20308.85
514.286	20261.75
514.488	20495.22
514.69	21005.16
514.893	21017.45
515.095	21500.77
515.297	21369.7
515.499	21373.8
515.701	22031.19
515.904	22334.29
516.106	22508.37
516.308	22653.78
516.51	22815.57
516.712	23147.34
516.914	23337.8
517.116	23661.38
517.318	23956.29
517.52	23761.73
517.722	24027.96
517.925	24431.41
518.127	24898.35
518.329	25031.47
518.531	24902.45
518.733	25715.49
518.935	25639.72
519.136	25754.4
519.338	25836.32
519.54	26071.84
519.742	26569.49
519.944	26284.83
520.146	27140.88
520.348	27214.6
520.55	27230.99
520.752	27251.47
520.954	27898.62
521.155	27603.72
521.357	28289.79
521.559	28580.6
521.761	29199.09
521.963	29123.31
522.164	29151.98
522.366	29121.26
522.568	29360.87
522.77	29649.64
522.971	30593.75
523.173	30046.94
523.375	30477.02
523.576	30319.32
523.778	30534.36
523.98	31271.63
524.181	30995.15
524.383	31204.05
524.584	32002.75
524.786	31982.27
524.988	31713.99
525.189	32338.62
525.391	32637.62
525.592	32641.72
525.794	32572.09
525.995	33055.41
526.197	32795.32
526.398	33079.99
526.6	33350.32
526.801	33792.68
527.003	33653.42
527.204	33751.72
527.406	34251.42
527.607	34179.75
527.808	34509.47
528.01	33624.75
528.211	34462.36
528.412	34699.93
528.614	34960.02
528.815	35039.89
529.016	35269.26
529.218	35105.43
529.419	34818.71
529.62	35254.93
529.822	35359.38
530.023	35519.12
530.224	35349.14
530.425	35566.22
530.626	35453.58
530.828	35537.55
531.029	36430.46
531.23	35764.87
531.431	35857.03
531.632	35656.33
531.833	36221.57
532.035	36268.67
532.236	36313.73
532.437	36524.67
532.638	36094.6
532.839	36741.75
533.04	36356.74
533.241	36315.78
533.442	36401.79
533.643	36479.61
533.844	36627.07
534.045	36758.14
534.246	36430.46
534.447	36930.17
534.648	36389.5
534.849	36938.36
535.05	37048.95
535.251	36825.72
535.451	36729.47
535.652	36956.79
535.853	36565.63
536.054	37182.07
536.255	37030.52
536.456	36807.29
536.657	37059.19
536.857	36881.02
537.058	36420.22
537.259	37114.48
537.46	37028.47
537.66	36913.78
537.861	36958.84
538.062	36700.79
538.263	36899.45
538.463	36897.4
538.664	37128.82
538.865	36899.45
539.065	37370.48
539.266	36405.89
539.466	37122.68
539.667	36733.56
539.868	37079.67
540.068	36932.22
540.269	36911.74
540.469	37057.14
540.67	36618.88
540.87	37040.76
541.071	36647.55
541.271	36981.37
541.472	36975.22
541.672	36731.51
541.873	37065.33
542.073	36747.9
542.274	36921.98
542.474	36721.27
542.675	36633.21
542.875	36969.08
543.075	36979.32
543.276	36311.68
543.476	37304.95
543.676	36567.68
543.877	36962.93
544.077	36608.64
544.277	37065.33
544.478	36610.68
544.678	36829.82
544.878	36848.25
545.078	36631.16
545.279	36676.22
545.479	36553.34
545.679	36754.04
545.879	36297.34
546.079	36680.31
546.28	36629.12
546.48	36512.38
546.68	36719.23
546.88	36807.29
547.08	36901.5
547.28	36430.46
547.48	36620.92
547.68	36840.06
547.88	36592.25
548.081	36690.55
548.281	36579.96
548.481	36565.63
548.681	36858.49
548.881	36770.43
549.081	36704.89
549.28	36215.43
549.48	36457.09
549.68	36100.74
549.88	36833.91
550.08	36135.56
550.28	36467.33
550.48	36803.19
550.68	36874.87
550.88	36401.79
551.08	36594.3
551.279	36444.8
551.479	35613.32
551.679	36395.65
551.879	36504.19
552.079	36657.79
552.278	36254.34
552.478	36713.08
552.678	36250.24
552.878	36356.74
553.077	36530.81
553.277	35908.23
553.477	36928.12
553.676	35902.09
553.876	36280.96
554.076	36229.76
554.275	35809.93
554.475	35850.89
554.674	36291.2
554.874	36194.95
555.074	36035.2
555.273	35986.05
555.473	35801.74
555.672	35805.83
555.872	35605.13
556.071	35725.96
556.271	36115.08
556.47	35693.19
556.67	35562.12
556.869	35322.51
557.068	35676.81
557.268	35367.57
557.467	35322.51
557.667	35420.81
557.866	35463.82
558.065	35134.1
558.265	35035.8
558.464	34810.52
558.663	35226.26
558.863	35115.67
559.062	35660.43
559.261	34769.56
559.461	35173.01
559.66	34433.69
559.859	35117.71
560.058	34595.48
560.258	35115.67
560.457	34552.48
560.656	35007.12
560.855	34462.36
561.054	34632.35
561.253	34411.17
561.453	34335.39
561.652	34241.18
561.851	34456.22
562.05	34161.31
562.249	33981.09
562.448	34202.27
562.647	33872.55
562.846	33766.06
563.045	33741.48
563.244	33747.62
563.443	33837.73
563.642	33190.58
563.841	33299.12
564.04	33235.63
564.239	33469.1
564.438	33176.24
564.637	33034.93
564.836	33161.9
565.035	32416.44
565.234	32793.27
565.432	32819.89
565.631	32858.81
565.83	32561.85
566.029	32694.97
566.228	32283.33
566.427	32324.29
566.625	31986.37
566.824	32228.03
567.023	32369.34
567.222	31605.45
567.42	32004.8
567.619	31800.01
567.818	31851.2
568.016	31623.88
568.215	31980.23
568.414	31216.33
568.612	31832.77
568.811	31208.14
569.01	31279.82
569.208	30704.34
569.407	31095.5
569.605	30653.14
569.804	31128.27
570.002	30567.13
570.201	30859.99
570.4	30272.22
570.598	30505.69
570.797	30397.15
570.995	30022.37
571.193	29799.14
571.392	30341.85
571.59	29924.07
571.789	29885.15
571.987	29698.79
572.186	29461.23
572.384	29487.85
572.582	30108.38
572.781	29387.5
572.979	28928.75
573.177	29276.91
573.376	29205.23
573.574	28816.11
573.772	29221.61
573.971	28730.1
574.169	28556.02
574.367	28693.24
574.565	28855.03
574.763	28039.93
574.962	28435.19
575.16	27882.24
575.358	28050.17
575.556	27761.41
575.754	28130.05
575.952	27368.2
576.151	28029.69
576.349	27421.45
576.547	27486.98
576.745	27509.51
576.943	27634.44
577.141	27722.5
577.339	27423.5
577.537	27106.06
577.735	27427.59
577.933	26741.52
578.131	26809.11
578.329	26706.71
578.527	26487.57
578.725	26579.73
578.923	26886.93
579.121	26262.3
579.319	26622.74
579.516	26385.18
579.714	26456.85
579.912	26409.75
580.11	25981.73
580.308	26026.78
580.506	25918.24
580.704	25652
580.901	25795.36
581.099	25854.75
581.297	25664.29
581.495	25445.16
581.692	25752.35
581.89	25248.55
582.088	25414.44
582.285	25230.12
582.483	25299.75
582.681	25273.13
582.878	25377.58
583.076	24877.87
583.274	24959.79
583.471	24757.04
583.669	24863.54
583.866	24300.34
584.064	24771.38
584.262	24355.64
584.459	24597.3
584.657	24263.48
584.854	24232.76
585.052	24091.45
585.249	24267.58
585.447	24202.04
585.644	24054.59
585.841	23882.56
586.039	24062.78
586.236	23700.29
586.434	23561.03
586.631	23765.82
586.828	23513.92
587.026	23472.96
587.223	23335.75
587.42	23290.7
587.618	23479.11
587.815	23235.4
588.012	23339.85
588.21	22877.01
588.407	23499.59
588.604	22829.9
588.801	22649.68
588.999	22729.55
589.196	22883.15
589.393	22612.82
589.59	22367.06
589.787	22326.1
589.984	22397.78
590.182	22055.77
590.379	22360.92
590.576	22049.63
590.773	22424.4
590.97	22113.11
591.167	22131.54
591.364	21926.75
591.561	22106.97
591.758	21678.94
591.955	21545.83
592.152	21850.97
592.349	21513.06
592.546	21629.79
592.743	21724
592.94	21248.87
593.137	21349.22
593.334	21164.9
593.531	20976.49
593.727	21044.07
593.924	21291.88
594.121	20777.84
594.318	20976.49
594.515	20917.1
594.712	20945.77
594.908	20718.45
595.105	20947.82
595.302	20439.92
595.499	20550.51
595.696	20329.33
595.892	20216.69
596.089	20495.22
596.286	20304.76
596.482	20104.06
596.679	20059
596.876	20102.01
597.072	19891.07
597.269	20159.35
597.466	19786.62
597.662	19635.07
597.859	19882.88
598.055	19710.85
598.252	19753.85
598.448	19612.54
598.645	19538.82
598.841	19344.26
599.038	19452.8
599.234	19420.03
599.431	19360.64
599.627	19026.82
599.824	19329.92
600.02	19397.51
600.217	19153.8
600.413	19112.84
600.609	19002.25
600.806	18916.23
601.002	19178.37
601.198	18688.91
601.395	18596.75
601.591	18697.1
601.787	18795.4
601.984	18664.33
602.18	18795.4
602.376	18181.01
602.572	18518.93
602.769	18197.4
602.965	18275.22
603.161	18537.36
603.357	18039.7
603.553	17884.06
603.75	18113.43
603.946	18047.9
604.142	17996.7
604.338	17728.41
604.534	17879.96
604.73	17851.29
604.926	17691.55
605.122	17673.12
605.318	17482.66
605.514	17613.73
605.71	17632.16
605.906	17421.22
606.102	17365.92
606.298	17568.67
606.494	17238.95
606.69	17191.84
606.886	17413.02
607.082	16956.33
607.278	17226.66
607.474	16950.18
607.67	17152.93
607.866	16870.31
608.062	17038.25
608.257	17025.96
608.453	16669.61
608.649	16919.46
608.845	16702.38
609.041	16573.36
609.236	16341.94
609.432	16536.49
609.628	16450.48
609.824	16597.93
610.019	16581.55
610.215	16516.01
610.411	16524.21
610.606	16151.48
610.802	16288.69
610.998	16323.51
611.193	16475.06
611.389	16237.49
611.584	16165.81
611.78	16204.72
611.976	16022.45
612.171	16092.09
612.367	16018.36
612.562	15854.52
612.758	15748.03
612.953	15801.27
613.149	16145.33
613.344	15551.42
613.539	15852.47
613.735	15700.92
613.93	15700.92
614.126	15670.2
614.321	15711.16
614.517	15549.37
614.712	15606.72
614.907	15397.82
615.103	15576
615.298	15508.41
615.493	15442.88
615.688	15301.57
615.884	15487.93
616.079	14967.75
616.274	15461.31
616.47	15227.84
616.665	15508.41
616.86	14902.22
617.055	15100.87
617.25	15160.26
617.445	15156.16
617.641	14820.3
617.836	14957.51
618.031	14914.5
618.226	14918.6
618.421	14834.63
618.616	14777.29
618.811	14480.33
619.006	14873.54
619.201	14484.43
619.396	14707.66
619.591	14418.89
619.786	14599.12
619.981	14248.91
620.176	14422.99
620.371	14058.45
620.566	14322.64
620.761	14031.83
620.956	14369.74
621.151	14123.99
621.346	13927.38
621.541	13800.41
621.735	13911
621.93	13773.78
622.125	13863.9
622.32	13482.97
622.515	13659.1
622.709	13577.18
622.904	13413.34
623.099	13392.86
623.294	13222.88
623.488	13353.95
623.683	13198.31
623.878	13065.19
624.072	12837.86
624.267	12749.8
624.462	12721.13
624.656	12633.07
624.851	12704.74
625.046	12635.11
625.24	12295.15
625.435	12356.59
625.629	12467.18
625.824	12456.94
626.018	12284.91
626.213	12164.08
626.407	12399.6
626.602	12026.87
626.796	12069.87
626.991	11992.05
627.185	11910.13
627.38	11582.46
627.574	11834.36
627.768	11666.42
627.963	11572.22
628.157	11521.02
628.352	11623.42
628.546	11441.15
628.74	11441.15
628.935	11176.96
629.129	11312.13
629.323	11207.68
629.517	11166.72
629.712	10916.87
629.906	10949.64
630.1	11045.89
630.294	10820.61
630.489	10771.46
630.683	10851.33
630.877	10730.5
631.071	10587.15
631.265	10673.16
631.459	10282
631.653	10574.86
631.848	10408.97
632.042	10261.52
632.236	10507.27
632.43	10347.53
632.624	10218.51
632.818	10109.97
633.012	10011.67
633.206	10091.54
633.4	10056.72
633.594	9919.51
633.788	10052.63
633.982	9780.25
634.176	9745.43
634.369	9628.7
634.563	9880.6
634.757	9798.68
634.951	9743.38
635.145	9595.93
635.339	9616.41
635.533	9516.06
635.726	9583.64
635.92	9184.29
636.114	9276.45
636.308	9055.26
636.501	9202.72
636.695	9206.81
636.889	8905.76
637.083	8956.96
637.276	9077.79
637.47	9002.02
637.664	8786.98
637.857	8938.53
638.051	8864.8
638.244	8862.76
638.438	8858.66
638.632	8834.08
638.825	8600.62
639.019	8707.11
639.212	8623.14
639.406	8485.93
639.599	8365.1
639.793	8393.77
639.986	8180.78
640.18	8238.12
640.373	8250.41
640.567	8141.87
640.76	8309.8
640.954	8174.64
641.147	8016.94
641.34	7844.91
641.534	7924.79
641.727	7787.57
641.92	8035.38
642.114	7861.3
642.307	7793.72
642.5	7697.46
642.694	7638.07
642.887	7717.94
643.08	7672.89
643.273	7513.14
643.467	7650.36
643.66	7660.6
643.853	7531.58
644.046	7337.02
644.239	7490.62
644.432	7236.67
644.626	7212.09
644.819	7345.21
645.012	7158.85
645.205	7326.78
645.398	7226.43
645.591	7046.21
645.784	7158.85
645.977	6937.66
646.17	6949.95
646.363	6884.42
646.556	6937.66
646.749	6970.43
646.942	6777.92
647.135	6820.93
647.328	6751.3
647.521	6859.84
647.714	6718.53
647.907	6595.65
648.099	6581.32
648.292	6536.26
648.485	6345.8
648.678	6466.63
648.871	6485.06
649.064	6440.01
649.256	6386.76
649.449	6362.19
649.642	6319.18
649.835	6345.8
650.027	6278.22
650.22	6153.29
650.413	6329.42
650.605	6249.55
650.798	6102.09
650.991	6042.7
651.183	6276.17
651.376	5981.26
651.568	6141
651.761	6110.29
651.954	6038.61
652.146	5809.23
652.339	6054.99
652.531	5956.69
652.724	5915.73
652.916	5600.34
653.109	5684.31
653.301	5649.49
653.494	5620.82
653.686	5829.71
653.879	5796.95
654.071	5612.63
654.263	5688.4
654.456	5438.55
654.648	5676.12
654.84	5594.2
655.033	5543
655.225	5588.05
655.417	5278.81
655.61	5338.2
655.802	5530.71
655.994	5583.96
656.186	5352.54
656.379	5436.5
656.571	5155.93
656.763	5211.23
656.955	5125.21
657.148	5086.3
657.34	5215.32
657.532	5088.35
657.724	5055.58
657.916	5092.44
658.108	5112.92
658.3	5002.33
658.492	5020.77
658.684	4994.14
658.876	4908.13
659.068	4971.61
659.26	4904.03
659.452	4840.54
659.644	4834.4
659.836	4908.13
660.028	4822.11
660.22	4697.19
660.412	4930.66
660.604	4719.71
660.796	4701.28
660.988	4791.39
661.18	4613.22
661.372	4609.12
661.563	4639.84
661.755	4719.71
661.947	4615.27
662.139	4559.97
662.331	4547.69
662.522	4770.91
662.714	4541.54
662.906	4314.22
663.097	4443.24
663.289	4553.83
663.481	4492.39
663.673	4310.12
663.864	4437.09
664.056	4398.18
664.247	4365.42
664.439	4357.22
664.631	4467.81
664.822	4346.98
665.014	4324.46
665.205	4297.83
665.397	4428.9
665.588	4242.54
665.78	4242.54
665.971	4187.24
666.163	4162.67
666.354	4316.26
666.546	4152.43
666.737	4170.86
666.929	4148.33
667.12	4035.69
667.311	3951.73
667.503	4084.84
667.694	4162.67
667.885	3908.72
668.077	4136.04
668.268	4127.85
668.459	4043.88
668.651	4060.27
668.842	4045.93
669.033	3978.35
669.224	3892.34
669.416	4187.24
669.607	3941.49
669.798	3957.87
669.989	4015.21
670.18	4078.7
670.371	4058.22
670.563	3921.01
670.754	3990.64
670.945	3972.21
671.136	3959.92
671.327	3900.53
671.518	3921.01
671.709	3834.99
671.9	4095.08
672.091	3902.58
672.282	3681.39
672.473	4045.93
672.664	3830.9
672.855	3722.35
673.046	3935.34
673.237	3781.74
673.428	3697.78
673.619	3759.22
673.809	3851.38
674	3683.44
674.191	3904.62
674.382	3773.55
674.573	3724.4
674.764	3791.98
674.954	3808.37
675.145	3687.54
675.336	3552.37
675.527	3761.27
675.717	3718.26
675.908	3714.16
676.099	3640.44
676.289	3730.55
676.48	3677.3
676.671	3693.68
676.861	3712.11
677.052	3767.41
677.243	3775.6
677.433	3851.38
677.624	3818.61
677.814	3781.74
678.005	3822.7
678.195	3822.7
678.386	3591.28
678.576	3654.77
678.767	3650.67
678.957	3759.22
679.148	3781.74
679.338	3726.45
679.529	3742.83
679.719	3779.7
679.909	3834.99
680.1	3667.06
680.29	3771.51
680.481	3673.2
680.671	3728.5
680.861	3638.39
681.052	3847.28
681.242	3646.58
681.432	3908.72
681.622	3642.48
681.813	3691.63
682.003	3855.47
682.193	3812.46
682.383	3769.46
682.573	3857.52
682.764	3800.18
682.954	3894.38
683.144	3869.81
683.334	3867.76
683.524	3769.46
683.714	3820.66
683.904	3736.69
684.094	3794.03
684.284	3841.14
684.474	3802.22
684.664	3751.03
684.854	3642.48
685.044	3650.67
685.234	3796.08
685.424	3863.66
685.614	3703.92
685.804	3708.02
685.994	3832.94
686.184	3732.59
686.374	3669.11
686.564	3677.3
686.753	3732.59
686.943	3636.34
687.133	3626.1
687.323	3523.7
687.513	3679.35
687.702	3482.74
687.892	3607.67
688.082	3413.11
688.272	3671.15
688.461	3507.32
688.651	3519.6
688.841	3398.77
689.03	3439.73
689.22	3445.88
689.41	3499.13
689.599	3370.1
689.789	3390.58
689.979	3349.62
690.168	3314.81
690.358	3376.25
690.547	3458.17
690.737	3388.53
690.926	3294.33
691.116	3286.14
691.305	3122.3
691.495	3335.29
691.684	3124.35
691.874	3353.72
692.063	3269.75
692.252	3394.68
692.442	3312.76
692.631	2991.23
692.82	3204.22
693.01	3028.09
693.199	3185.79
693.388	3071.1
693.578	3103.87
693.767	3196.03
693.956	3155.07
694.146	3024
694.335	3026.04
694.524	3036.28
694.713	3161.21
694.902	3165.31
695.092	3126.39
695.281	3073.15
695.47	2974.85
695.659	3128.44
695.848	2958.46
696.037	2940.03
696.226	3058.81
696.415	2956.41
696.604	2925.69
696.793	3081.34
696.982	2962.56
697.171	3001.47
697.36	3040.38
697.549	3015.8
697.738	2878.59
697.927	2886.78
698.116	2935.93
698.305	2946.17
698.494	2993.28
698.683	2806.91
698.872	2991.23
699.061	2847.87
699.25	2874.49
699.438	2962.56
699.627	2919.55
699.816	3060.86
700.005	2911.36
700.193	2962.56
700.382	2890.88
700.571	2790.53
700.76	2966.65
700.948	2819.2
701.137	2860.16
701.326	2925.69
701.514	2921.6
701.703	2972.8
701.892	2987.13
702.08	3024
702.269	2956.41
702.457	2958.46
702.646	3024
702.834	2899.07
703.023	2940.03
703.212	2958.46
703.4	2917.5
703.589	2917.5
703.777	2919.55
703.965	2972.8
704.154	2937.98
704.342	2974.85
704.531	2999.42
704.719	2813.06
704.907	2931.84
705.096	2884.73
705.284	2954.37
705.472	2811.01
705.661	2923.65
705.849	3024
706.037	2866.3
706.226	2917.5
706.414	2974.85
706.602	2946.17
706.79	3060.86
706.979	3077.24
707.167	3036.28
707.355	2948.22
707.543	2954.37
707.731	2970.75
707.919	2880.64
708.107	2958.46
708.296	2978.94
708.484	2991.23
708.672	3064.96
708.86	2892.93
709.048	2970.75
709.236	3071.1
709.424	3122.3
709.612	3095.68
709.8	2993.28
709.988	3054.72
710.176	3081.34
710.364	2960.51
710.551	3005.56
710.739	3087.48
710.927	3032.19
711.115	3095.68
711.303	3097.72
711.491	2985.09
711.679	3026.04
711.866	3048.57
712.054	3101.82
712.242	3122.3
712.43	3021.95
712.617	3087.48
712.805	3140.73
712.993	3075.2
713.181	3124.35
713.368	3069.05
713.556	3159.16
713.744	3032.19
713.931	3198.07
714.119	3183.74
714.306	3118.2
714.494	3198.07
714.682	3146.87
714.869	3138.68
715.057	3157.11
715.244	3136.63
715.432	3105.92
715.619	3220.6
715.807	3290.23
715.994	3239.03
716.182	3290.23
716.369	3265.66
716.556	3269.75
716.744	3335.29
716.931	3187.83
717.119	3269.75
717.306	3337.34
717.493	3320.95
717.681	3376.25
717.868	3249.27
718.055	3339.38
718.242	3435.64
718.43	3320.95
718.617	3296.38
718.804	3366.01
718.991	3388.53
719.179	3363.96
719.366	3335.29
719.553	3392.63
719.74	3302.52
719.927	3474.55
720.114	3323
720.301	3343.48
720.488	3314.81
720.676	3376.25
720.863	3232.89
721.05	3429.49
721.237	3282.04
721.424	3431.54
721.611	3417.21
721.798	3314.81
721.985	3320.95
722.172	3447.93
722.358	3329.14
722.545	3357.82
722.732	3445.88
722.919	3562.61
723.106	3402.87
723.293	3406.97
723.48	3435.64
723.667	3431.54
723.853	3523.7
724.04	3527.8
724.227	3562.61
724.414	3419.25
724.6	3531.89
724.787	3546.23
724.974	3611.76
725.161	3640.44
725.347	3318.9
725.534	3499.13
725.72	3624.05
725.907	3607.67
726.094	3501.17
726.28	3548.28
726.467	3576.95
726.653	3501.17
726.84	3669.11
727.027	3566.71
727.213	3515.51
727.4	3759.22
727.586	3611.76
727.773	3642.48
727.959	3544.18
728.145	3617.91
728.332	3667.06
728.518	3576.95
728.705	3689.59
728.891	3640.44
729.077	3738.74
729.264	3736.69
729.45	3763.31
729.636	3699.83
729.823	3728.5
730.009	3732.59
730.195	3566.71
730.382	3714.16
730.568	3730.55
730.754	3708.02
730.94	3671.15
731.126	3800.18
731.313	3665.01
731.499	3730.55
731.685	3724.4
731.871	3630.2
732.057	3632.24
732.243	3808.37
732.429	3804.27
732.615	3771.51
732.801	3800.18
732.987	3679.35
733.173	3845.23
733.359	3777.65
733.545	3886.19
733.731	3808.37
733.917	3863.66
734.103	3734.64
734.289	3697.78
734.475	3738.74
734.661	3974.25
734.847	3820.66
735.033	3740.79
735.219	3830.9
735.404	3892.34
735.59	3812.46
735.776	3740.79
735.962	3935.34
736.148	3935.34
736.333	3818.61
736.519	3865.71
736.705	3925.1
736.89	3679.35
737.076	3873.9
737.262	3947.63
737.447	3722.35
737.633	3869.81
737.819	3970.16
738.004	3851.38
738.19	3927.15
738.375	3722.35
738.561	3814.51
738.747	3923.05
738.932	3779.7
739.118	3787.89
739.303	3939.44
739.489	3822.7
739.674	3691.63
739.859	3941.49
740.045	3832.94
740.23	3771.51
740.416	3787.89
740.601	3746.93
740.786	3718.26
740.972	3851.38
741.157	3804.27
741.342	3708.02
741.528	3693.68
741.713	3650.67
741.898	3685.49
742.084	3742.83
742.269	3748.98
742.454	3724.4
742.639	3712.11
742.824	3736.69
743.01	3570.8
743.195	3677.3
743.38	3765.36
743.565	3613.81
743.75	3673.2
743.935	3544.18
744.12	3755.12
744.305	3513.46
744.49	3449.97
744.675	3531.89
744.86	3529.84
745.045	3535.99
745.23	3675.25
745.415	3415.16
745.6	3632.24
745.785	3517.56
745.97	3462.26
746.155	3427.45
746.34	3531.89
746.525	3413.11
746.71	3507.32
746.895	3435.64
747.079	3437.69
747.264	3423.35
747.449	3394.68
747.634	3441.78
747.819	3257.46
748.003	3398.77
748.188	3402.87
748.373	3300.47
748.557	3261.56
748.742	3224.7
748.927	3271.8
749.111	3161.21
749.296	3230.84
749.481	3200.12
749.665	3169.4
749.85	3048.57
750.034	3224.7
750.219	3171.45
750.404	3093.63
750.588	3026.04
750.773	3019.9
750.957	3069.05
751.141	2907.26
751.326	3105.92
751.51	2956.41
751.695	2823.3
751.879	2929.79
752.064	2985.09
752.248	2905.21
752.432	2946.17
752.617	2907.26
752.801	2763.9
752.985	2829.44
753.17	2770.05
753.354	2765.95
753.538	2780.29
753.722	2565.25
753.907	2600.07
754.091	2718.85
754.275	2714.75
754.459	2638.98
754.643	2655.36
754.828	2647.17
755.012	2604.16
755.196	2659.46
755.38	2569.35
755.564	2583.68
755.748	2458.76
755.932	2630.79
756.116	2534.53
756.3	2550.92
756.484	2358.41
756.668	2516.1
756.852	2487.43
757.036	2401.41
757.22	2387.08
757.404	2423.94
757.588	2385.03
757.772	2319.5
757.956	2264.2
758.14	2497.67
758.323	2268.3
758.507	2299.02
758.691	2331.78
758.875	2296.97
759.059	2286.73
759.242	2315.4
759.426	2301.06
759.61	2305.16
759.794	2178.19
759.977	2190.47
760.161	2256.01
760.345	2040.97
760.528	2139.27
760.712	2108.55
760.895	2192.52
761.079	2157.71
761.263	2192.52
761.446	2051.21
761.63	2116.75
761.813	2172.04
761.997	2049.16
762.18	2057.36
762.364	2004.11
762.547	1926.29
762.731	2000.01
762.914	2047.12
763.098	1959.05
763.281	1971.34
763.464	1963.15
763.648	1940.62
763.831	1965.2
764.015	1995.92
764.198	1819.79
764.381	1950.86
764.564	1895.57
764.748	2016.4
764.931	1914
765.114	1995.92
765.297	1834.13
765.481	1866.89
765.664	1827.98
765.847	1877.13
766.03	1776.78
766.213	1735.82
766.397	1764.5
766.58	1776.78
766.763	1842.32
766.946	1733.78
767.129	1701.01
767.312	1766.54
767.495	1885.33
767.678	1725.58
767.861	1739.92
768.044	1870.99
768.227	1793.17
768.41	1686.67
768.593	1688.72
768.776	1662.1
768.959	1680.53
769.142	1569.94
769.324	1680.53
769.507	1662.1
769.69	1721.49
769.873	1754.26
770.056	1756.3
770.239	1535.12
770.421	1643.67
770.604	1569.94
770.787	1582.23
770.97	1637.52
771.152	1543.32
771.335	1584.27
771.518	1526.93
771.7	1492.12
771.883	1571.99
772.066	1658
772.248	1488.02
772.431	1516.69
772.613	1528.98
772.796	1479.83
772.978	1490.07
773.161	1426.58
773.343	1438.87
773.526	1522.84
773.708	1504.4
773.891	1420.44
774.073	1389.72
774.256	1397.91
774.438	1436.82
774.621	1361.05
774.803	1430.68
774.985	1395.86
775.168	1318.04
775.35	1383.57
775.532	1297.56
775.715	1256.6
775.897	1322.13
776.079	1285.27
776.261	1311.89
776.444	1297.56
776.626	1221.78
776.808	1219.74
776.99	1193.11
777.173	1227.93
777.355	1225.88
777.537	1158.3
777.719	1193.11
777.901	1199.26
778.083	1250.46
778.265	1139.87
778.447	1275.03
778.629	1178.78
778.811	1146.01
778.993	1221.78
779.175	1154.2
779.357	1111.19
779.539	1139.87
779.721	1141.91
779.903	1182.87
780.085	1041.56
780.267	1037.47
780.449	1123.48
780.631	1064.09
780.812	1172.63
780.994	1152.15
781.176	1088.67
781.358	1064.09
781.54	1035.42
781.721	994.46
781.903	990.36
782.085	953.5
782.267	1006.75
782.448	986.27
782.63	896.16
782.812	1023.13
782.993	1002.65
783.175	1039.51
783.357	902.3
783.538	1006.75
783.72	924.83
783.901	906.4
784.083	1006.75
784.264	994.46
784.446	834.72
784.627	861.34
784.809	920.73
784.99	834.72
785.172	861.34
785.353	914.59
785.535	777.37
785.716	808.09
785.897	804
786.079	744.61
786.26	816.29
786.441	793.76
786.623	758.94
786.804	699.55
786.985	775.33
787.167	808.09
787.348	806.05
787.529	785.57
787.71	842.91
787.891	795.81
788.073	720.03
788.254	748.7
788.435	652.45
788.616	750.75
788.797	715.94
788.978	691.36
789.159	775.33
789.34	728.22
789.522	656.54
789.703	709.79
789.884	730.27
790.065	644.26
790.246	681.12
790.427	634.02
790.607	666.78
790.788	629.92
790.969	601.25
791.15	648.35
791.331	607.39
791.512	638.11
791.693	615.59
791.874	588.96
792.054	691.36
792.235	601.25
792.416	550.05
792.597	558.24
792.778	627.87
792.958	617.63
793.139	564.39
793.32	552.1
793.5	640.16
793.681	584.87
793.862	523.43
794.042	593.06
794.223	550.05
794.404	533.67
794.584	529.57
794.765	545.95
794.945	627.87
795.126	541.86
795.306	578.72
795.487	464.04
795.667	541.86
795.848	486.56
796.028	588.96
796.209	545.95
796.389	562.34
796.57	451.75
796.75	554.15
796.93	509.09
797.111	410.79
797.291	470.18
797.471	548
797.652	421.03
797.832	521.38
798.012	498.85
798.192	457.89
798.373	386.21
798.553	554.15
798.733	507.04
798.913	423.08
799.093	519.33
799.274	433.32
799.454	496.8
799.634	451.75
799.814	470.18
799.994	517.28
800.174	476.32
800.354	359.59
800.534	437.41
800.714	457.89
800.894	527.52
801.074	474.28
801.254	408.74
801.434	459.94
801.614	427.17
801.794	443.56
801.974	1182.87
802.154	425.12
802.334	416.93
802.514	400.55
802.693	392.36
802.873	445.6
803.053	455.84
803.233	390.31
803.413	367.78
803.592	394.4
803.772	320.68
803.952	363.69
804.131	320.68
804.311	427.17
804.491	429.22
804.67	392.36
804.85	394.4
805.03	400.55
805.209	404.64
805.389	316.58
805.568	423.08
805.748	279.72
805.928	402.6
806.107	443.56
806.287	378.02
806.466	380.07
806.646	410.79
806.825	355.49
807.004	232.62
807.184	330.92
807.363	384.16
807.543	341.16
807.722	378.02
807.901	380.07
808.081	357.54
808.26	304.29
808.439	330.92
808.619	337.06
808.798	326.82
808.977	292.01
809.156	396.45
809.336	249
809.515	375.97
809.694	275.62
809.873	337.06
810.052	345.25
810.231	326.82
810.411	283.81
810.59	378.02
810.769	238.76
810.948	406.69
811.127	251.05
811.306	314.53
811.485	316.58
811.664	369.83
811.843	304.29
812.022	267.43
812.201	222.38
812.38	292.01
812.559	259.24
812.737	306.34
812.916	165.03
813.095	216.23
813.274	265.38
813.453	238.76
813.632	289.96
813.811	306.34
813.989	246.95
814.168	292.01
814.347	273.57
814.526	271.53
814.704	343.21
814.883	306.34
815.062	255.14
815.24	300.2
815.419	210.09
815.598	281.77
815.776	171.18
815.955	187.56
816.133	259.24
816.312	238.76
816.49	320.68
816.669	310.44
816.847	283.81
817.026	302.25
817.204	246.95
817.383	181.42
817.561	201.9
817.74	279.72
817.918	249
818.097	228.52
818.275	257.19
818.453	255.14
818.632	261.29
818.81	210.09
818.988	175.27
819.167	255.14
819.345	238.76
819.523	173.22
819.701	212.14
819.879	269.48
820.058	287.91
820.236	244.9
820.414	181.42
820.592	271.53
820.77	165.03
820.948	189.61
821.127	201.9
821.305	271.53
821.483	119.98
821.661	210.09
821.839	269.48
822.017	189.61
822.195	197.8
822.373	193.7
822.551	191.66
822.729	197.8
822.907	240.81
823.085	230.57
823.262	224.42
823.44	177.32
823.618	154.79
823.796	169.13
823.974	150.7
824.152	134.31
824.329	263.33
824.507	117.93
824.685	197.8
824.863	240.81
825.04	199.85
825.218	132.26
825.396	181.42
825.574	277.67
825.751	171.18
825.929	175.27
826.107	169.13
826.284	122.02
826.462	177.32
826.639	130.22
826.817	175.27
826.994	220.33
827.172	191.66
827.349	236.71
827.527	238.76
827.704	203.94
827.882	244.9
828.059	175.27
828.237	212.14
828.414	201.9
828.591	130.22
828.769	140.46
828.946	140.46
829.124	199.85
829.301	165.03
829.478	128.17
829.655	138.41
829.833	187.56
830.01	136.36
830.187	208.04
830.364	109.74
830.542	89.26
830.719	142.5
830.896	230.57
831.073	208.04
831.25	142.5
831.427	181.42
831.604	160.94
831.782	165.03
831.959	218.28
832.136	152.74
832.313	179.37
832.49	150.7
832.667	142.5
832.844	142.5
833.021	152.74
833.198	228.52
833.374	134.31
833.551	156.84
833.728	117.93
833.905	140.46
834.082	117.93
834.259	107.69
834.436	203.94
834.612	93.35
834.789	165.03
834.966	175.27
835.143	56.49
835.319	38.06
835.496	183.46
835.673	130.22
835.85	162.98
836.026	46.25
836.203	230.57
836.38	5.29
836.556	138.41
836.733	103.59
836.909	218.28
837.086	113.83
837.262	66.73
837.439	169.13
837.616	109.74
837.792	93.35
837.968	185.51
838.145	122.02
838.321	210.09
838.498	105.64
838.674	132.26
838.851	72.87
839.027	85.16
839.203	130.22
839.38	134.31
839.556	97.45
839.732	169.13
839.909	140.46
840.085	128.17
840.261	128.17
840.437	150.7
840.614	124.07
840.79	89.26
840.966	136.36
841.142	79.02
841.318	40.11
841.494	93.35
841.671	85.16
841.847	148.65
842.023	142.5
842.199	95.4
842.375	50.35
842.551	17.58
842.727	21.67
842.903	146.6
843.079	54.44
843.255	76.97
843.431	72.87
843.607	124.07
843.783	64.68
843.959	21.67
844.134	52.39
844.31	126.12
844.486	105.64
844.662	101.55
844.838	107.69
845.013	70.83
845.189	109.74
845.365	101.55
845.541	74.92
845.716	105.64
845.892	107.69
846.068	140.46
846.244	156.84
846.419	83.11
846.595	62.63
846.77	105.64
846.946	89.26
847.122	52.39
847.297	85.16
847.473	144.55
847.648	109.74
847.824	142.5
847.999	62.63
848.175	156.84
848.35	87.21
848.526	117.93
848.701	105.64
848.876	95.4
849.052	89.26
849.227	130.22
849.403	126.12
849.578	99.5
849.753	83.11
849.929	117.93
850.104	83.11
850.279	181.42
850.454	99.5
850.63	44.2
850.805	-2.9
850.98	109.74
851.155	36.01
851.33	81.07
851.505	9.39
851.681	89.26
851.856	144.55
852.031	60.59
852.206	42.15
852.381	42.15
852.556	5.29
852.731	103.59
852.906	83.11
853.081	79.02
853.256	38.06
853.431	74.92
853.606	56.49
853.781	33.96
853.956	-17.24
854.131	165.03
854.305	79.02
854.48	40.11
854.655	-4.95
854.83	60.59
855.005	74.92
855.18	29.87
855.354	128.17
855.529	117.93
855.704	117.93
855.879	109.74
856.053	83.11
856.228	58.54
856.403	107.69
856.577	97.45
856.752	79.02
856.926	15.53
857.101	83.11
857.276	-54.1
857.45	72.87
857.625	115.88
857.799	91.31
857.974	-4.95
858.148	-0.85
858.323	117.93
858.497	60.59
858.672	74.92
858.846	76.97
859.02	85.16
859.195	38.06
859.369	-43.86
859.543	52.39
859.718	60.59
859.892	126.12
860.066	66.73
860.241	54.44
860.415	74.92
860.589	23.72
860.763	1.19
860.938	31.91
861.112	29.87
861.286	95.4
861.46	46.25
861.634	91.31
861.808	54.44
861.982	11.43
862.157	3.24
862.331	19.63
862.505	-103.25
862.679	33.96
862.853	146.6
863.027	58.54
863.201	93.35
863.375	9.39
863.549	17.58
863.722	58.54
863.896	72.87
864.07	23.72
864.244	19.63
864.418	36.01
864.592	3.24
864.766	-4.95
864.939	42.15
865.113	-19.29
865.287	76.97
865.461	-52.05
865.634	48.3
865.808	115.88
865.982	42.15
866.156	38.06
866.329	66.73
866.503	130.22
866.676	58.54
866.85	13.48
867.024	40.11
867.197	70.83
867.371	119.98
867.544	5.29
867.718	5.29
867.891	50.35
868.065	101.55
868.238	-43.86
868.412	76.97
868.585	27.82
868.759	38.06
868.932	33.96
869.105	-37.72
869.279	62.63
869.452	-21.33
869.625	1.19
869.799	3.24
869.972	48.3
870.145	-29.52
870.319	93.35
870.492	-50
870.665	58.54
870.838	-4.95
871.011	-41.81
871.185	64.68
871.358	70.83
871.531	19.63
871.704	19.63
871.877	5.29
872.05	-4.95
872.223	40.11
872.396	56.49
872.569	83.11
872.742	-21.33
872.915	60.59
873.088	7.34
873.261	60.59
873.434	29.87
873.607	158.89
873.78	64.68
873.953	-54.1
874.126	62.63
874.299	-9.05
874.471	-66.39
874.644	56.49
874.817	66.73
874.99	52.39
875.163	64.68
875.335	23.72
875.508	15.53
875.681	122.02
875.853	42.15
876.026	31.91
876.199	117.93
876.371	29.87
876.544	9.39
876.717	40.11
876.889	3.24
877.062	72.87
877.234	9.39
877.407	21.67
877.579	5.29
877.752	-13.14
877.924	132.26
878.097	89.26
878.269	109.74
878.442	52.39
878.614	79.02
878.786	21.67
878.959	40.11
879.131	38.06
879.303	-37.72
879.476	54.44
879.648	72.87
879.82	-9.05
879.993	-17.24
880.165	-43.86
880.337	-68.44
880.509	-11.09
880.681	-39.76
880.854	-7
881.026	74.92
881.198	134.31
881.37	5.29
881.542	54.44
881.714	-13.14
881.886	27.82
882.058	7.34
882.23	1.19
882.402	3.24
882.574	44.2
882.746	111.78
882.918	54.44
883.09	85.16
883.262	74.92
883.434	-15.19
883.606	-25.43
883.778	-9.05
883.95	70.83
884.122	-19.29
884.293	-4.95
884.465	60.59
884.637	97.45
884.809	-7
884.98	64.68
885.152	17.58
885.324	128.17
885.496	1.19
885.667	68.78
885.839	79.02
886.011	99.5
886.182	52.39
886.354	109.74
886.525	29.87
886.697	13.48
886.869	-23.38
887.04	74.92
887.212	89.26
887.383	23.72
887.555	91.31
887.726	52.39
887.897	-13.14
888.069	29.87
888.24	97.45
888.412	-19.29
888.583	-37.72
888.754	91.31
888.926	48.3
889.097	3.24
889.268	-90.96
889.44	27.82
889.611	21.67
889.782	-4.95
889.953	-17.24
890.125	66.73
890.296	-68.44
890.467	44.2
890.638	-25.43
890.809	-35.67
890.98	9.39
891.151	58.54
891.323	-15.19
891.494	9.39
891.665	13.48
891.836	-21.33
892.007	42.15
892.178	58.54
892.349	64.68
892.52	42.15
892.691	103.59
892.862	122.02
893.032	11.43
893.203	-15.19
893.374	-54.1
893.545	52.39
893.716	-9.05
893.887	27.82
894.057	-19.29
894.228	48.3
894.399	-35.67
894.57	79.02
894.74	87.21
894.911	25.77
895.082	25.77
895.253	-27.48
895.423	58.54
895.594	3.24
895.764	-17.24
895.935	-2.9
896.106	-45.91
896.276	15.53
896.447	62.63
896.617	-19.29
896.788	-37.72
896.958	42.15
897.129	17.58
897.299	-4.95
897.47	76.97
897.64	101.55
897.81	60.59
897.981	58.54
898.151	31.91
898.322	3.24
898.492	44.2
898.662	36.01
898.832	-21.33
899.003	21.67
899.173	9.39
899.343	-23.38
899.513	7.34
