Data from USB4F104151__75__12-24-21-731.txt Node

Date: Fri Mar 14 12:24:21 EDT 2025
User: louis
Spectrometer: USB4F10415
Trigger mode: 4
Integration Time (sec): 3.500000E-2
Scans to average: 1
Electric dark correction enabled: true
Nonlinearity correction enabled: false
Boxcar width: 0
XAxis mode: Wavelengths
Number of Pixels in Spectrum: 3648
>>>>>Begin Spectral Data<<<<<
178.204	-166.57
178.424	-166.57
178.644	-166.57
178.864	-248.49
179.084	-158.38
179.304	58.71
179.524	-31.4
179.744	-33.45
179.964	42.32
180.184	30.04
180.404	-29.35
180.624	-31.4
180.844	60.76
181.064	-117.42
181.283	60.76
181.503	-68.27
181.723	58.71
181.943	-90.79
182.163	-10.92
182.383	-15.02
182.602	44.37
182.822	25.94
183.042	3.41
183.262	-33.45
183.482	5.46
183.701	-84.65
183.921	27.99
184.141	-0.68
184.361	34.13
184.58	-2.73
184.8	38.23
185.02	-47.79
185.239	-4.78
185.459	13.65
185.679	34.13
185.898	-4.78
186.118	83.28
186.338	-66.22
186.557	7.51
186.777	-25.26
186.997	27.99
187.216	-33.45
187.436	62.8
187.655	48.47
187.875	-15.02
188.095	95.57
188.314	7.51
188.534	21.85
188.753	-31.4
188.973	30.04
189.192	54.61
189.412	30.04
189.631	32.08
189.851	58.71
190.07	75.09
190.29	-10.92
190.509	-12.97
190.729	-47.79
190.948	19.8
191.168	140.63
191.387	64.85
191.607	3.41
191.826	-2.73
192.045	21.85
192.265	9.56
192.484	-68.27
192.704	56.66
192.923	-2.73
193.142	109.91
193.362	101.72
193.581	19.8
193.8	40.28
194.02	62.8
194.239	-37.55
194.458	27.99
194.678	5.46
194.897	32.08
195.116	-21.16
195.335	36.18
195.555	9.56
195.774	1.37
195.993	5.46
196.212	-8.87
196.432	-53.93
196.651	-21.16
196.87	52.56
197.089	99.67
197.308	83.28
197.528	1.37
197.747	-47.79
197.966	3.41
198.185	21.85
198.404	-2.73
198.623	83.28
198.842	54.61
199.062	77.14
199.281	60.76
199.5	60.76
199.719	62.8
199.938	19.8
200.157	71
200.376	34.13
200.595	9.56
200.814	11.61
201.033	27.99
201.252	66.9
201.471	107.86
201.69	36.18
201.909	52.56
202.128	60.76
202.347	30.04
202.566	30.04
202.785	-29.35
203.004	-15.02
203.223	85.33
203.442	60.76
203.661	1.37
203.879	50.52
204.098	19.8
204.317	-70.31
204.536	15.7
204.755	-45.74
204.974	68.95
205.193	-17.07
205.411	105.81
205.63	132.44
205.849	66.9
206.068	58.71
206.287	17.75
206.505	-27.31
206.724	-15.02
206.943	23.89
207.162	-33.45
207.381	19.8
207.599	32.08
207.818	17.75
208.037	7.51
208.255	-23.21
208.474	7.51
208.693	89.43
208.911	25.94
209.13	58.71
209.349	73.04
209.567	-27.31
209.786	89.43
210.005	58.71
210.223	-47.79
210.442	-15.02
210.661	-0.68
210.879	50.52
211.098	46.42
211.316	9.56
211.535	34.13
211.753	52.56
211.972	44.37
212.191	68.95
212.409	-31.4
212.628	7.51
212.846	19.8
213.065	-19.11
213.283	3.41
213.502	97.62
213.72	5.46
213.938	-49.83
214.157	9.56
214.375	79.19
214.594	58.71
214.812	21.85
215.031	38.23
215.249	7.51
215.467	-88.75
215.686	-19.11
215.904	32.08
216.122	-31.4
216.341	27.99
216.559	23.89
216.778	-10.92
216.996	48.47
217.214	-12.97
217.432	44.37
217.651	-21.16
217.869	30.04
218.087	-31.4
218.306	-12.97
218.524	97.62
218.742	17.75
218.96	27.99
219.179	50.52
219.397	-43.69
219.615	50.52
219.833	17.75
220.051	-25.26
220.27	75.09
220.488	-27.31
220.706	9.56
220.924	1.37
221.142	-23.21
221.36	-10.92
221.578	68.95
221.796	32.08
222.015	30.04
222.233	-27.31
222.451	64.85
222.669	-72.36
222.887	34.13
223.105	-8.87
223.323	46.42
223.541	79.19
223.759	62.8
223.977	-53.93
224.195	132.44
224.413	42.32
224.631	-17.07
224.849	7.51
225.067	75.09
225.285	1.37
225.503	7.51
225.721	-21.16
225.939	32.08
226.157	-15.02
226.375	111.96
226.592	-29.35
226.81	68.95
227.028	30.04
227.246	87.38
227.464	-23.21
227.682	23.89
227.9	93.52
228.117	56.66
228.335	36.18
228.553	-8.87
228.771	17.75
228.989	-4.78
229.206	42.32
229.424	-49.83
229.642	25.94
229.86	34.13
230.077	21.85
230.295	-35.5
230.513	17.75
230.731	-2.73
230.948	-2.73
231.166	27.99
231.384	36.18
231.601	13.65
231.819	17.75
232.037	38.23
232.254	17.75
232.472	34.13
232.689	-10.92
232.907	116.05
233.125	87.38
233.342	5.46
233.56	-39.59
233.777	-2.73
233.995	-41.64
234.213	-21.16
234.43	19.8
234.648	73.04
234.865	-21.16
235.083	3.41
235.3	27.99
235.518	62.8
235.735	15.7
235.953	23.89
236.17	-47.79
236.388	19.8
236.605	9.56
236.822	99.67
237.04	50.52
237.257	48.47
237.475	-12.97
237.692	-27.31
237.909	-35.5
238.127	50.52
238.344	38.23
238.562	15.7
238.779	-8.87
238.996	-55.98
239.214	60.76
239.431	71
239.648	-29.35
239.865	107.86
240.083	79.19
240.3	15.7
240.517	40.28
240.735	21.85
240.952	15.7
241.169	52.56
241.386	17.75
241.603	36.18
241.821	58.71
242.038	148.82
242.255	73.04
242.472	-15.02
242.689	-12.97
242.907	81.24
243.124	81.24
243.341	-123.56
243.558	85.33
243.775	-10.92
243.992	-33.45
244.209	77.14
244.426	163.15
244.643	-0.68
244.86	-12.97
245.078	-2.73
245.295	7.51
245.512	64.85
245.729	-64.17
245.946	36.18
246.163	7.51
246.38	-4.78
246.597	27.99
246.814	81.24
247.031	17.75
247.248	19.8
247.464	5.46
247.681	7.51
247.898	50.52
248.115	-0.68
248.332	-19.11
248.549	36.18
248.766	79.19
248.983	54.61
249.2	11.61
249.417	107.86
249.633	36.18
249.85	66.9
250.067	-21.16
250.284	-64.17
250.501	87.38
250.717	-17.07
250.934	13.65
251.151	-2.73
251.368	-2.73
251.585	34.13
251.801	-12.97
252.018	-29.35
252.235	79.19
252.451	46.42
252.668	-2.73
252.885	46.42
253.102	-94.89
253.318	21.85
253.535	-6.83
253.752	-33.45
253.968	38.23
254.185	56.66
254.401	50.52
254.618	64.85
254.835	-33.45
255.051	48.47
255.268	-27.31
255.484	23.89
255.701	-76.46
255.917	27.99
256.134	-21.16
256.351	44.37
256.567	-66.22
256.784	58.71
257	40.28
257.217	-4.78
257.433	66.9
257.65	46.42
257.866	11.61
258.082	-23.21
258.299	-41.64
258.515	105.81
258.732	64.85
258.948	19.8
259.165	30.04
259.381	-17.07
259.597	-37.55
259.814	1.37
260.03	-2.73
260.246	-25.26
260.463	64.85
260.679	111.96
260.895	-37.55
261.112	83.28
261.328	-12.97
261.544	-17.07
261.761	87.38
261.977	23.89
262.193	19.8
262.409	30.04
262.626	27.99
262.842	27.99
263.058	-76.46
263.274	99.67
263.49	11.61
263.707	89.43
263.923	68.95
264.139	-58.03
264.355	7.51
264.571	40.28
264.787	-23.21
265.004	25.94
265.22	-47.79
265.436	-21.16
265.652	46.42
265.868	56.66
266.084	30.04
266.3	5.46
266.516	-2.73
266.732	-21.16
266.948	40.28
267.164	-12.97
267.38	19.8
267.596	23.89
267.812	89.43
268.028	36.18
268.244	17.75
268.46	-10.92
268.676	-2.73
268.892	77.14
269.108	-49.83
269.324	27.99
269.54	-53.93
269.756	75.09
269.972	-2.73
270.188	5.46
270.403	-21.16
270.619	11.61
270.835	1.37
271.051	-0.68
271.267	3.41
271.483	-19.11
271.698	114
271.914	-6.83
272.13	19.8
272.346	64.85
272.562	-41.64
272.777	13.65
272.993	50.52
273.209	32.08
273.425	7.51
273.64	32.08
273.856	56.66
274.072	109.91
274.287	-21.16
274.503	64.85
274.719	60.76
274.934	-70.31
275.15	-8.87
275.366	13.65
275.581	-2.73
275.797	-31.4
276.012	44.37
276.228	15.7
276.444	21.85
276.659	27.99
276.875	-29.35
277.09	-23.21
277.306	7.51
277.521	27.99
277.737	-72.36
277.952	38.23
278.168	25.94
278.383	7.51
278.599	17.75
278.814	40.28
279.03	-6.83
279.245	9.56
279.461	48.47
279.676	83.28
279.892	-51.88
280.107	-35.5
280.322	-10.92
280.538	77.14
280.753	7.51
280.969	9.56
281.184	44.37
281.399	23.89
281.615	23.89
281.83	34.13
282.045	13.65
282.26	56.66
282.476	9.56
282.691	46.42
282.906	52.56
283.122	58.71
283.337	-64.17
283.552	40.28
283.767	7.51
283.983	-17.07
284.198	3.41
284.413	27.99
284.628	-49.83
284.843	83.28
285.058	-25.26
285.274	-21.16
285.489	-115.37
285.704	21.85
285.919	5.46
286.134	23.89
286.349	38.23
286.564	15.7
286.779	25.94
286.995	103.76
287.21	-12.97
287.425	75.09
287.64	-15.02
287.855	83.28
288.07	-35.5
288.285	87.38
288.5	91.48
288.715	23.89
288.93	36.18
289.145	-0.68
289.36	-21.16
289.575	-41.64
289.79	91.48
290.004	23.89
290.219	50.52
290.434	71
290.649	-39.59
290.864	-12.97
291.079	-45.74
291.294	32.08
291.509	85.33
291.724	-35.5
291.938	-4.78
292.153	25.94
292.368	-4.78
292.583	-84.65
292.798	58.71
293.012	32.08
293.227	-17.07
293.442	-90.79
293.657	-35.5
293.871	7.51
294.086	-21.16
294.301	17.75
294.516	23.89
294.73	-15.02
294.945	7.51
295.16	5.46
295.374	50.52
295.589	48.47
295.804	-4.78
296.018	-23.21
296.233	52.56
296.447	62.8
296.662	-17.07
296.877	85.33
297.091	-0.68
297.306	30.04
297.52	-41.64
297.735	71
297.949	89.43
298.164	9.56
298.378	-82.6
298.593	23.89
298.807	38.23
299.022	58.71
299.236	17.75
299.451	5.46
299.665	50.52
299.88	27.99
300.094	25.94
300.309	-6.83
300.523	9.56
300.737	19.8
300.952	58.71
301.166	19.8
301.381	-12.97
301.595	17.75
301.809	-35.5
302.024	38.23
302.238	-31.4
302.452	132.44
302.667	40.28
302.881	52.56
303.095	62.8
303.309	66.9
303.524	-2.73
303.738	38.23
303.952	30.04
304.166	23.89
304.381	-53.93
304.595	50.52
304.809	-58.03
305.023	-21.16
305.237	32.08
305.452	17.75
305.666	9.56
305.88	62.8
306.094	75.09
306.308	89.43
306.522	11.61
306.736	11.61
306.95	-37.55
307.164	44.37
307.379	7.51
307.593	93.52
307.807	5.46
308.021	60.76
308.235	46.42
308.449	-2.73
308.663	-15.02
308.877	105.81
309.091	-37.55
309.305	48.47
309.519	-39.59
309.733	21.85
309.947	-70.31
310.161	60.76
310.374	32.08
310.588	56.66
310.802	-27.31
311.016	13.65
311.23	48.47
311.444	-47.79
311.658	19.8
311.872	89.43
312.085	73.04
312.299	38.23
312.513	3.41
312.727	93.52
312.941	-37.55
313.154	19.8
313.368	3.41
313.582	32.08
313.796	52.56
314.009	-4.78
314.223	52.56
314.437	99.67
314.651	44.37
314.864	-2.73
315.078	-25.26
315.292	13.65
315.505	44.37
315.719	-23.21
315.933	-12.97
316.146	-33.45
316.36	-74.41
316.573	58.71
316.787	44.37
317.001	17.75
317.214	-10.92
317.428	-4.78
317.641	15.7
317.855	73.04
318.068	-10.92
318.282	-6.83
318.495	120.15
318.709	-43.69
318.922	-58.03
319.136	89.43
319.349	105.81
319.563	-8.87
319.776	52.56
319.99	40.28
320.203	32.08
320.417	81.24
320.63	101.72
320.843	109.91
321.057	-21.16
321.27	-19.11
321.483	42.32
321.697	-12.97
321.91	38.23
322.124	60.76
322.337	54.61
322.55	50.52
322.763	50.52
322.977	-51.88
323.19	40.28
323.403	7.51
323.617	85.33
323.83	46.42
324.043	-31.4
324.256	-47.79
324.469	-66.22
324.683	75.09
324.896	52.56
325.109	-33.45
325.322	-43.69
325.535	15.7
325.748	34.13
325.962	30.04
326.175	3.41
326.388	40.28
326.601	-39.59
326.814	40.28
327.027	-19.11
327.24	62.8
327.453	-80.55
327.666	40.28
327.879	27.99
328.092	114
328.305	27.99
328.518	-19.11
328.731	40.28
328.944	-70.31
329.157	-6.83
329.37	56.66
329.583	46.42
329.796	27.99
330.009	15.7
330.222	54.61
330.435	-10.92
330.648	-6.83
330.861	87.38
331.073	-129.7
331.286	40.28
331.499	-33.45
331.712	23.89
331.925	9.56
332.138	-29.35
332.35	46.42
332.563	-21.16
332.776	3.41
332.989	36.18
333.202	5.46
333.414	-15.02
333.627	7.51
333.84	126.29
334.053	66.9
334.265	58.71
334.478	68.95
334.691	5.46
334.903	62.8
335.116	-0.68
335.329	-6.83
335.541	30.04
335.754	46.42
335.966	42.32
336.179	83.28
336.392	15.7
336.604	-35.5
336.817	56.66
337.029	58.71
337.242	-2.73
337.454	3.41
337.667	66.9
337.88	42.32
338.092	-19.11
338.305	1.37
338.517	17.75
338.729	40.28
338.942	48.47
339.154	17.75
339.367	-19.11
339.579	91.48
339.792	21.85
340.004	54.61
340.217	30.04
340.429	-6.83
340.641	-43.69
340.854	5.46
341.066	13.65
341.278	68.95
341.491	1.37
341.703	79.19
341.915	-39.59
342.128	13.65
342.34	36.18
342.552	7.51
342.764	32.08
342.977	97.62
343.189	91.48
343.401	79.19
343.613	-78.51
343.826	21.85
344.038	46.42
344.25	42.32
344.462	3.41
344.674	-25.26
344.886	32.08
345.099	60.76
345.311	17.75
345.523	-0.68
345.735	-15.02
345.947	101.72
346.159	71
346.371	-4.78
346.583	126.29
346.795	66.9
347.007	-17.07
347.219	7.51
347.431	27.99
347.643	32.08
347.855	1.37
348.067	79.19
348.279	-2.73
348.491	114
348.703	42.32
348.915	-39.59
349.127	54.61
349.339	91.48
349.551	27.99
349.763	54.61
349.975	13.65
350.187	1.37
350.399	79.19
350.61	25.94
350.822	-6.83
351.034	44.37
351.246	13.65
351.458	42.32
351.669	13.65
351.881	122.2
352.093	11.61
352.305	19.8
352.517	19.8
352.728	99.67
352.94	-12.97
353.152	68.95
353.363	23.89
353.575	64.85
353.787	120.15
353.999	62.8
354.21	136.53
354.422	13.65
354.633	44.37
354.845	23.89
355.057	54.61
355.268	73.04
355.48	75.09
355.692	1.37
355.903	77.14
356.115	-8.87
356.326	-21.16
356.538	107.86
356.749	7.51
356.961	107.86
357.172	50.52
357.384	-47.79
357.595	136.53
357.807	54.61
358.018	-17.07
358.23	25.94
358.441	46.42
358.653	-15.02
358.864	107.86
359.075	23.89
359.287	77.14
359.498	15.7
359.709	54.61
359.921	64.85
360.132	44.37
360.344	11.61
360.555	48.47
360.766	34.13
360.977	103.76
361.189	109.91
361.4	66.9
361.611	95.57
361.823	60.76
362.034	3.41
362.245	-27.31
362.456	17.75
362.667	-23.21
362.879	-12.97
363.09	1.37
363.301	11.61
363.512	56.66
363.723	-70.31
363.935	17.75
364.146	13.65
364.357	-23.21
364.568	9.56
364.779	-31.4
364.99	64.85
365.201	48.47
365.412	75.09
365.623	-101.03
365.834	-35.5
366.045	-43.69
366.256	89.43
366.467	34.13
366.678	-25.26
366.889	44.37
367.1	-58.03
367.311	-2.73
367.522	52.56
367.733	44.37
367.944	114
368.155	11.61
368.366	17.75
368.577	32.08
368.788	66.9
368.999	17.75
369.209	52.56
369.42	68.95
369.631	140.63
369.842	75.09
370.053	58.71
370.264	32.08
370.474	-4.78
370.685	34.13
370.896	42.32
371.107	42.32
371.317	111.96
371.528	52.56
371.739	101.72
371.95	107.86
372.16	48.47
372.371	-35.5
372.582	23.89
372.792	46.42
373.003	34.13
373.214	44.37
373.424	38.23
373.635	48.47
373.846	81.24
374.056	89.43
374.267	42.32
374.477	56.66
374.688	-12.97
374.898	-12.97
375.109	15.7
375.319	21.85
375.53	109.91
375.74	73.04
375.951	-31.4
376.161	81.24
376.372	66.9
376.582	-10.92
376.793	42.32
377.003	7.51
377.214	34.13
377.424	109.91
377.635	40.28
377.845	27.99
378.055	36.18
378.266	-55.98
378.476	32.08
378.686	38.23
378.897	64.85
379.107	85.33
379.317	60.76
379.528	21.85
379.738	58.71
379.948	-4.78
380.158	118.1
380.369	52.56
380.579	34.13
380.789	73.04
380.999	7.51
381.21	54.61
381.42	105.81
381.63	-4.78
381.84	52.56
382.05	11.61
382.261	1.37
382.471	81.24
382.681	79.19
382.891	50.52
383.101	42.32
383.311	-29.35
383.521	-31.4
383.731	140.63
383.941	7.51
384.151	3.41
384.361	17.75
384.571	7.51
384.781	19.8
384.991	126.29
385.201	68.95
385.411	58.71
385.621	79.19
385.831	11.61
386.041	58.71
386.251	32.08
386.461	46.42
386.671	21.85
386.881	21.85
387.091	46.42
387.301	73.04
387.511	89.43
387.72	62.8
387.93	54.61
388.14	-47.79
388.35	32.08
388.56	122.2
388.769	87.38
388.979	-2.73
389.189	-2.73
389.399	116.05
389.609	99.67
389.818	122.2
390.028	81.24
390.238	50.52
390.447	-17.07
390.657	25.94
390.867	56.66
391.076	-84.65
391.286	-41.64
391.496	15.7
391.705	-0.68
391.915	144.72
392.125	77.14
392.334	27.99
392.544	103.76
392.753	21.85
392.963	13.65
393.172	27.99
393.382	5.46
393.591	152.92
393.801	71
394.01	81.24
394.22	52.56
394.429	23.89
394.639	81.24
394.848	30.04
395.058	118.1
395.267	64.85
395.477	-2.73
395.686	79.19
395.895	122.2
396.105	73.04
396.314	109.91
396.524	44.37
396.733	124.24
396.942	116.05
397.152	60.76
397.361	58.71
397.57	58.71
397.78	48.47
397.989	111.96
398.198	193.87
398.407	75.09
398.617	109.91
398.826	58.71
399.035	48.47
399.244	85.33
399.453	17.75
399.663	50.52
399.872	122.2
400.081	87.38
400.29	60.76
400.499	27.99
400.708	130.39
400.917	97.62
401.127	44.37
401.336	7.51
401.545	150.87
401.754	130.39
401.963	95.57
402.172	30.04
402.381	1.37
402.59	-25.26
402.799	64.85
403.008	83.28
403.217	50.52
403.426	73.04
403.635	97.62
403.844	71
404.053	15.7
404.262	103.76
404.471	130.39
404.68	109.91
404.888	130.39
405.097	71
405.306	85.33
405.515	165.2
405.724	173.39
405.933	79.19
406.142	116.05
406.35	126.29
406.559	154.96
406.768	87.38
406.977	167.25
407.185	126.29
407.394	122.2
407.603	148.82
407.812	214.35
408.02	238.93
408.229	99.67
408.438	134.48
408.646	202.07
408.855	169.3
409.064	204.11
409.272	165.2
409.481	251.22
409.69	212.31
409.898	175.44
410.107	222.55
410.315	337.23
410.524	179.54
410.733	202.07
410.941	267.6
411.15	261.46
411.358	269.65
411.567	355.66
411.775	343.38
411.984	271.7
412.192	410.96
412.401	376.14
412.609	406.86
412.818	370
413.026	376.14
413.234	447.82
413.443	417.1
413.651	378.19
413.86	390.48
414.068	531.79
414.276	517.45
414.485	470.35
414.693	517.45
414.901	552.27
415.11	513.36
415.318	673.1
415.526	599.37
415.734	705.87
415.943	683.34
416.151	628.04
416.359	621.9
416.567	646.48
416.776	810.31
416.984	863.56
417.192	843.08
417.4	789.83
417.608	748.87
417.817	830.79
418.025	892.23
418.233	988.49
418.441	914.76
418.649	922.95
418.857	1043.78
419.065	1074.5
419.273	1090.88
419.481	1054.02
419.689	1131.84
419.897	1045.83
420.105	1164.61
420.313	1262.91
420.521	1361.22
420.729	1307.97
420.937	1316.16
421.145	1383.74
421.353	1441.09
421.561	1609.02
421.769	1611.07
421.977	1766.71
422.185	1731.9
422.393	1723.71
422.601	1860.92
422.809	1797.43
423.017	1850.68
423.224	1975.61
423.432	2043.19
423.64	1961.27
423.848	2237.75
424.056	2200.88
424.263	2342.19
424.471	2325.81
424.679	2344.24
424.887	2389.3
425.094	2583.85
425.302	2528.56
425.51	2678.06
425.718	2690.35
425.925	2653.48
426.133	2895.15
426.341	3054.89
426.548	3069.22
426.756	3177.76
426.964	3208.48
427.171	3374.37
427.379	3532.06
427.586	3667.23
427.794	3700
428.001	3951.9
428.209	3960.09
428.417	3999
428.624	4435.22
428.832	4175.13
429.039	4148.5
429.247	4148.5
429.454	4547.86
429.662	4902.15
429.869	4648.21
430.076	5027.08
430.284	4758.8
430.491	5033.22
430.699	5190.92
430.906	5295.36
431.114	5408
431.321	5463.3
431.528	5692.67
431.736	6040.83
431.943	6280.44
432.15	6157.56
432.358	6149.37
432.565	6618.35
432.772	6563.06
432.979	6800.62
433.187	6862.06
433.394	6993.13
433.601	7464.16
433.808	7533.79
434.016	7455.97
434.223	7861.47
434.43	8322.26
434.637	8172.76
434.844	8643.79
435.052	8893.65
435.259	8727.76
435.466	8871.12
435.673	8807.63
435.88	9311.43
436.087	9692.35
436.294	9770.18
436.501	9542.85
436.708	9860.29
436.915	10132.67
437.122	10794.16
437.329	10519.73
437.537	10962.09
437.743	11064.49
437.95	10837.17
438.157	11734.18
438.364	12149.92
438.571	11748.51
438.778	11793.57
438.985	12991.63
439.192	12536.98
439.399	13026.45
439.606	12835.99
439.813	13444.23
440.02	14212.22
440.227	14025.86
440.433	13966.46
440.64	14304.38
440.847	14298.24
441.054	14529.66
441.261	15721.57
441.467	15498.34
441.674	15441
441.881	16028.77
442.088	16127.07
442.294	15875.17
442.501	16497.75
442.708	16626.78
442.914	17417.29
443.121	18402.36
443.328	17716.29
443.534	18537.53
443.741	18383.93
443.948	18222.14
444.154	19768.36
444.361	19467.31
444.568	19432.49
444.774	19561.51
444.981	19815.46
445.187	20145.19
445.394	21218.32
445.6	21214.23
445.807	22883.32
446.013	21971.97
446.22	22500.35
446.426	23442.42
446.633	23456.75
446.839	24388.58
447.046	23084.02
447.252	24450.02
447.459	24708.06
447.665	24654.81
447.871	25686.99
448.078	27001.79
448.284	25424.85
448.491	25979.85
448.697	27194.29
448.903	27585.46
449.11	27823.02
449.316	27257.78
449.522	27743.15
449.728	28588.96
449.935	28781.47
450.141	28699.55
450.347	29766.54
450.553	28601.25
450.76	28816.29
450.966	29848.46
451.172	29516.69
451.378	30290.82
451.584	29547.41
451.791	30491.52
451.997	30350.21
452.203	30632.83
452.409	30880.64
452.615	30555.01
452.821	29715.34
453.027	28980.12
453.233	30743.42
453.44	29488.02
453.646	29770.64
453.852	30106.51
454.058	30423.94
454.264	29756.3
454.47	30063.5
454.676	29420.44
454.882	30301.06
455.088	27599.79
455.294	28119.98
455.5	28384.16
455.705	28926.88
455.911	27636.66
456.117	26878.91
456.323	26670.01
456.529	25402.32
456.735	26033.1
456.941	25451.47
457.147	24925.14
457.352	24376.29
457.558	24364
457.764	24179.68
457.97	23530.48
458.176	23374.83
458.381	23286.77
458.587	21873.67
458.793	22187.01
458.999	20698.14
459.204	22164.48
459.41	21691.4
459.616	20218.91
459.821	20239.39
460.027	20102.18
460.233	19842.09
460.438	18730.04
460.644	19055.67
460.85	18461.76
461.055	17871.94
461.261	17951.81
461.466	16634.97
461.672	15852.64
461.878	16958.55
462.083	16028.77
462.289	15869.03
462.494	15520.87
462.7	14869.62
462.905	14570.61
463.111	14742.64
463.316	15244.4
463.522	14883.95
463.727	14869.62
463.932	14779.51
464.138	14621.81
464.343	14597.24
464.549	14314.62
464.754	14693.49
464.959	14699.64
465.165	14369.91
465.37	13835.39
465.575	13667.46
465.781	14046.34
465.986	14158.97
466.191	13571.21
466.397	13245.58
466.602	12940.43
466.807	13212.81
467.012	13151.37
467.218	13051.02
467.423	13151.37
467.628	13235.34
467.833	13694.08
468.038	13067.41
468.244	12442.78
468.449	13028.49
468.654	12637.33
468.859	12602.52
469.064	12364.95
469.269	12057.76
469.474	12162.2
469.679	12453.02
469.885	12024.99
470.09	12369.05
470.295	12254.36
470.5	11850.91
470.705	11857.06
470.91	11666.6
471.115	11476.13
471.32	11754.66
471.525	11474.09
471.73	11383.98
471.935	11279.53
472.139	10994.86
472.344	10972.33
472.549	11203.75
472.754	10874.03
472.959	10648.75
473.164	10491.06
473.369	10337.46
473.574	10710.19
473.778	10400.95
473.983	10489.01
474.188	10405.05
474.393	9977.02
474.598	10011.84
474.802	9919.68
475.007	9700.55
475.212	9864.38
475.417	9317.58
475.621	9467.08
475.826	9452.74
476.031	9385.16
476.235	9147.59
476.44	9403.59
476.645	9024.72
476.849	9217.22
477.054	9217.22
477.259	8920.27
477.463	8781.01
477.668	8805.58
477.872	8752.34
478.077	8688.85
478.282	8461.52
478.486	8357.08
478.691	8211.67
478.895	8471.76
479.1	8139.99
479.304	8314.07
479.509	8094.94
479.713	8160.47
479.918	7863.52
480.122	7824.61
480.326	7955.68
480.531	7881.95
480.735	7898.33
480.94	7953.63
481.144	8160.47
481.348	7746.78
481.553	7779.55
481.757	7685.34
481.961	7775.45
482.166	7777.5
482.37	7769.31
482.574	7517.41
482.778	7714.02
482.983	7699.68
483.187	7806.17
483.391	7681.25
483.595	7638.24
483.8	7521.51
484.004	7619.81
484.208	7761.12
484.412	7728.35
484.616	7634.14
484.821	7709.92
485.025	7458.02
485.229	7742.69
485.433	7611.62
485.637	7656.67
485.841	7664.86
486.045	7511.27
486.249	7714.02
486.453	7406.82
486.657	7429.35
486.861	7609.57
487.065	7496.93
487.269	7707.87
487.473	7529.7
487.677	7818.46
487.881	7726.3
488.085	7648.48
488.289	7746.78
488.493	7488.74
488.697	7652.58
488.901	7462.12
489.105	7488.74
489.309	7607.52
489.512	7724.26
489.716	7820.51
489.92	7884
490.124	7705.82
490.328	7830.75
490.531	7750.88
490.735	7826.65
490.939	7871.71
491.143	7955.68
491.346	7814.37
491.55	7955.68
491.754	7814.37
491.958	7974.11
492.161	7955.68
492.365	8162.52
492.569	7984.35
492.772	8045.79
492.976	8166.62
493.18	8027.35
493.383	8324.31
493.587	8197.34
493.79	8477.91
493.994	8498.39
494.197	8383.7
494.401	8457.43
494.605	8533.2
494.808	8596.69
495.012	8666.32
495.215	8711.38
495.419	9039.05
495.622	8658.13
495.825	8854.73
496.029	9080.01
496.232	9192.65
496.436	8996.04
496.639	9360.58
496.843	9319.62
497.046	9385.16
497.249	9567.43
497.453	9587.91
497.656	9761.98
497.859	9716.93
498.063	9956.54
498.266	10005.69
498.469	10114.24
498.673	10020.03
498.876	10323.13
499.079	10443.96
499.282	10337.46
499.485	10579.12
499.689	10691.76
499.892	11205.8
500.095	10796.21
500.298	11054.25
500.501	10958
500.705	11158.7
500.908	11627.68
501.111	11506.85
501.314	11768.99
501.517	11852.96
501.72	12176.54
501.923	11875.49
502.126	12022.94
502.329	12405.91
502.532	12473.5
502.735	12520.6
502.938	12919.95
503.141	12737.68
503.344	13165.71
503.547	13055.12
503.75	13264.01
503.953	13452.42
504.156	13552.77
504.359	13495.43
504.562	13804.67
504.765	14177.41
504.968	14267.52
505.17	14490.74
505.373	14460.02
505.576	14896.24
505.779	14873.71
505.982	15000.69
506.185	15203.44
506.387	15539.3
506.59	15584.36
506.793	15838.31
506.996	15787.11
507.198	16147.55
507.401	15893.6
507.604	16260.19
507.807	16444.51
508.009	16657.5
508.212	16882.77
508.415	17013.84
508.617	17321.04
508.82	17335.37
509.022	17343.56
509.225	17679.43
509.428	17882.18
509.63	18084.93
509.833	18009.15
510.035	18785.33
510.238	18492.48
510.44	19086.39
510.643	19285.04
510.845	19258.42
511.048	19549.23
511.25	19641.39
511.453	19803.18
511.655	20311.07
511.858	20098.08
512.06	20524.06
512.262	20773.91
512.465	20896.79
512.667	21218.32
512.87	21367.82
513.072	21443.6
513.274	21761.03
513.477	22090.76
513.679	22260.74
513.881	22635.52
514.084	22764.54
514.286	23096.31
514.488	22998.01
514.69	23868.39
514.893	23874.54
515.095	23692.27
515.297	23878.63
515.499	24224.74
515.701	24439.78
515.904	25123.8
516.106	25062.36
516.308	25275.35
516.51	25646.03
516.712	25592.78
516.914	26176.45
517.116	26559.42
517.318	26536.9
517.52	26633.15
517.722	27048.89
517.925	27458.48
518.127	27747.25
518.329	27833.26
518.531	27677.61
518.733	28416.93
518.935	28658.59
519.136	28619.68
519.338	29387.67
519.54	29381.52
519.742	29526.93
519.944	29813.65
520.146	30423.94
520.348	30282.63
520.55	30724.99
520.752	30864.25
520.954	31538.04
521.155	31032.19
521.357	31869.81
521.559	32349.03
521.761	32676.71
521.963	32273.26
522.164	32555.88
522.366	32580.45
522.568	33391.45
522.77	33203.03
522.971	33796.95
523.173	33956.69
523.375	34353.99
523.576	34100.04
523.778	34292.55
523.98	34739.01
524.181	35175.23
524.383	35115.84
524.584	35769.14
524.786	35740.47
524.988	35695.41
525.189	36234.03
525.391	36070.19
525.592	36606.76
525.794	36909.86
525.995	36854.56
526.197	37061.41
526.398	37415.71
526.6	37524.25
526.801	37505.82
527.003	37944.08
527.204	37763.86
527.406	38365.96
527.607	38075.15
527.808	38603.53
528.01	38001.43
528.211	38499.08
528.412	38869.76
528.614	38886.15
528.815	38959.87
529.016	39310.08
529.218	38953.73
529.419	39334.65
529.62	39815.93
529.822	39691
530.023	39604.99
530.224	39361.28
530.425	39879.41
530.626	39572.22
530.828	39631.61
531.029	40340.21
531.23	39803.64
531.431	39830.26
531.632	40153.84
531.833	40444.65
532.035	40418.03
532.236	40276.72
532.437	40721.13
532.638	40375.02
532.839	41206.5
533.04	41028.32
533.241	40323.82
533.442	41179.87
533.643	41204.45
533.844	41030.37
534.045	40782.57
534.246	40524.52
534.447	40927.97
534.648	40889.06
534.849	41147.11
535.05	41052.9
535.251	41220.83
535.451	40950.5
535.652	41048.8
535.853	41151.2
536.054	41300.7
536.255	41401.05
536.456	40598.25
536.657	41421.53
536.857	41181.92
537.058	41024.23
537.259	41530.08
537.46	41448.16
537.66	41210.59
537.861	41448.16
538.062	41429.73
538.263	41454.3
538.463	41605.85
538.664	41020.13
538.865	41517.79
539.065	41485.02
539.266	40999.65
539.466	41323.23
539.667	40653.54
539.868	41413.34
540.068	41274.08
540.269	41491.16
540.469	41110.24
540.67	41102.05
540.87	41208.54
541.071	40794.85
541.271	41265.89
541.472	40862.44
541.672	40731.37
541.873	40731.37
542.073	40764.14
542.274	41650.91
542.474	41163.49
542.675	40719.08
542.875	41335.52
543.075	41122.53
543.276	40745.7
543.476	41493.21
543.676	41411.29
543.877	41054.95
544.077	41046.75
544.277	41122.53
544.478	40962.79
544.678	41138.91
544.878	41067.23
545.078	41220.83
545.279	40887.01
545.479	41114.34
545.679	41110.24
545.879	40850.15
546.079	41229.02
546.28	41036.52
546.48	40403.69
546.68	40874.73
546.88	40993.51
547.08	40540.91
547.28	40901.35
547.48	40581.87
547.68	40962.79
547.88	40995.56
548.081	40923.88
548.281	40663.78
548.481	41050.85
548.681	41120.48
548.881	40813.29
549.081	40968.93
549.28	40731.37
549.48	40940.26
549.68	40512.24
549.88	41122.53
550.08	40659.69
550.28	40690.41
550.48	40694.5
550.68	41327.33
550.88	40897.25
551.08	40512.24
551.279	40536.81
551.479	40475.37
551.679	40596.2
551.879	40801
552.079	40993.51
552.278	40528.62
552.478	40471.28
552.678	40684.26
552.878	40946.4
553.077	40768.23
553.277	39949.04
553.477	40921.83
553.676	40211.18
553.876	40481.52
554.076	40131.31
554.275	40297.2
554.475	39951.09
554.674	40399.6
554.874	40415.98
555.074	40049.39
555.273	40307.44
555.473	40497.9
555.672	40176.37
555.872	39965.43
556.071	39832.31
556.271	39992.05
556.47	39901.94
556.67	39383.8
556.869	39607.03
557.068	39901.94
557.268	39484.15
557.467	39301.89
557.667	39398.14
557.866	39418.62
558.065	39604.99
558.265	39201.54
558.464	39088.9
558.663	39762.68
558.863	38904.58
559.062	39824.12
559.261	38771.46
559.461	39537.4
559.66	38343.44
559.859	38828.8
560.058	38677.26
560.258	39004.93
560.457	38396.68
560.656	38812.42
560.855	38687.49
561.054	38988.55
561.253	38353.68
561.453	38396.68
561.652	38791.94
561.851	38433.55
562.05	38171.41
562.249	38013.71
562.448	38525.71
562.647	38044.43
562.846	37688.09
563.045	38341.39
563.244	37608.22
563.443	37931.79
563.642	37217.05
563.841	37532.44
564.04	37251.87
564.239	37706.52
564.438	36930.34
564.637	37075.74
564.836	37104.42
565.035	36604.71
565.234	37081.89
565.432	36545.32
565.631	36369.19
565.83	36954.91
566.029	36440.87
566.228	36481.83
566.427	36037.42
566.625	35990.32
566.824	35586.87
567.023	36346.67
567.222	35502.9
567.42	36299.56
567.619	35914.55
567.818	35552.05
568.016	35486.52
568.215	35652.41
568.414	35261.24
568.612	35824.43
568.811	35572.53
569.01	35230.52
569.208	35060.54
569.407	35234.62
569.605	34290.51
569.804	34947.9
570.002	34569.03
570.201	34747.2
570.4	34138.96
570.598	33958.74
570.797	34100.04
570.995	33837.9
571.193	33663.83
571.392	33833.81
571.59	33817.43
571.789	33504.09
571.987	33422.17
572.186	33549.14
572.384	33117.02
572.582	33119.07
572.781	33033.05
572.979	32762.72
573.177	33045.34
573.376	32775.01
573.574	32764.77
573.772	32476.01
573.971	32732
574.169	32031.6
574.367	32029.55
574.565	32336.74
574.763	31976.3
574.962	32095.08
575.16	31916.91
575.358	31673.2
575.556	31390.58
575.754	31574.9
575.952	31116.15
576.151	31132.54
576.349	31046.52
576.547	30831.49
576.745	31435.64
576.943	31101.82
577.141	30997.37
577.339	30858.11
577.537	30565.25
577.735	30458.76
577.933	30239.62
578.131	30591.87
578.329	30323.59
578.527	30147.47
578.725	30112.65
578.923	30210.95
579.121	29866.89
579.319	29969.29
579.516	29901.71
579.714	29524.88
579.912	29473.68
580.11	29080.47
580.308	29823.89
580.506	29492.12
580.704	28834.72
580.901	29076.38
581.099	29315.99
581.297	29205.4
581.495	28849.05
581.692	28994.46
581.89	28601.25
582.088	28953.5
582.285	28591.01
582.483	28994.46
582.681	28363.68
582.878	28232.61
583.076	28074.92
583.274	28240.81
583.471	27911.08
583.669	27825.07
583.866	27696.05
584.064	27947.95
584.262	27704.24
584.459	27415.47
584.657	27362.23
584.854	27689.9
585.052	27083.7
585.249	27194.29
585.447	27495.35
585.644	27278.26
585.841	27151.29
586.039	27083.7
586.236	26713.02
586.434	26788.8
586.631	27055.03
586.828	26723.26
587.026	26827.71
587.223	26526.66
587.42	26471.36
587.618	26713.02
587.815	26000.33
588.012	26280.9
588.21	25748.43
588.407	26293.19
588.604	25805.77
588.801	25789.39
588.999	25611.21
589.196	25820.11
589.393	25809.87
589.59	25762.76
589.787	25349.07
589.984	25297.88
590.182	24978.39
590.379	25410.51
590.576	25162.71
590.773	25015.26
590.97	24724.44
591.167	25144.28
591.364	24720.35
591.561	25005.02
591.758	24675.29
591.955	24765.4
592.152	24583.13
592.349	24478.69
592.546	24411.1
592.743	24161.25
592.94	24175.59
593.137	24343.52
593.334	24355.81
593.531	23960.55
593.727	24241.12
593.924	24054.76
594.121	23739.37
594.318	23915.5
594.515	23577.58
594.712	23882.73
594.908	23682.03
595.105	23626.73
595.302	23055.35
595.499	23682.03
595.696	23395.31
595.892	23124.98
596.089	23446.51
596.286	22952.95
596.482	22856.7
596.679	22858.74
596.876	22989.81
597.072	22844.41
597.269	22645.76
597.466	22631.42
597.662	22506.49
597.859	22504.45
598.055	22313.98
598.252	22541.31
598.448	21961.73
598.645	22043.65
598.841	21926.92
599.038	22141.96
599.234	21783.56
599.431	21857.29
599.627	21629.96
599.824	21879.82
600.02	21677.07
600.217	21480.46
600.413	21292.05
600.609	21502.99
600.806	21478.41
601.002	21623.82
601.198	21318.67
601.395	21312.53
601.591	21214.23
601.787	20884.5
601.984	21236.75
602.18	21117.97
602.376	20786.2
602.572	20814.87
602.769	20982.81
602.965	20681.75
603.161	20605.98
603.357	20438.05
603.553	20505.63
603.75	20683.8
603.946	20481.05
604.142	20284.45
604.338	20126.75
604.534	20329.5
604.73	20067.36
604.926	19846.18
605.122	20059.17
605.318	19858.47
605.514	19665.96
605.71	19844.13
605.906	19799.08
606.102	19571.75
606.298	19622.95
606.494	19684.39
606.69	19586.09
606.886	19563.56
607.082	19184.69
607.278	19651.63
607.474	19282.99
607.67	19184.69
607.866	18811.96
608.062	19385.39
608.257	19227.7
608.453	19270.7
608.649	19309.61
608.845	18998.32
609.041	18764.85
609.236	18951.22
609.432	18887.73
609.628	19016.76
609.824	18816.05
610.019	18535.48
610.215	18611.26
610.411	18621.5
610.606	18275.39
610.802	18635.83
610.998	18375.74
611.193	18691.13
611.389	18461.76
611.584	18326.59
611.78	18164.8
611.976	18269.25
612.171	18193.47
612.367	18056.26
612.562	18048.07
612.758	17749.06
612.953	18062.4
613.149	17935.43
613.344	17859.65
613.539	18246.72
613.735	17929.28
613.93	17921.09
614.126	17568.84
614.321	17976.39
614.517	17505.35
614.712	17577.03
614.907	17701.96
615.103	17663.05
615.298	17552.46
615.493	17865.8
615.688	17337.42
615.884	17380.43
616.079	17429.58
616.274	17402.96
616.47	17216.59
616.665	17114.19
616.86	17101.9
617.055	17257.55
617.25	16991.31
617.445	17132.62
617.641	16878.68
617.836	16925.78
618.031	16759.89
618.226	17067.09
618.421	16991.31
618.616	16780.37
618.811	16301.15
619.006	16766.04
619.201	16432.22
619.396	16684.12
619.591	16276.57
619.786	16499.8
619.981	16102.5
620.176	16524.38
620.371	16039.01
620.566	16036.96
620.761	16051.3
620.956	16202.85
621.151	15547.5
621.346	16145.5
621.541	15647.85
621.735	16082.02
621.93	15367.27
622.125	15516.78
622.32	15404.14
622.515	15217.77
622.709	15150.19
622.904	15115.37
623.099	15123.57
623.294	14769.27
623.488	14677.11
623.683	14920.82
623.878	14713.97
624.072	14582.9
624.267	14822.52
624.462	14644.34
624.656	14550.14
624.851	14400.63
625.046	14425.21
625.24	14023.81
625.435	14275.71
625.629	14296.19
625.824	14044.29
626.018	14015.62
626.213	13665.41
626.407	13993.09
626.602	13429.9
626.796	13661.32
626.991	13573.25
627.185	13376.65
627.38	13517.96
627.574	13020.3
627.768	13165.71
627.963	13042.83
628.157	12876.94
628.352	13225.1
628.546	13079.69
628.74	13001.87
628.935	12919.95
629.129	12647.57
629.323	12674.2
629.517	12747.92
629.712	12446.87
629.906	12596.37
630.1	12323.99
630.294	12465.3
630.489	12184.73
630.683	12395.67
630.877	12125.34
631.071	12039.33
631.265	11986.08
631.459	12194.97
631.653	11836.58
631.848	11865.25
632.042	11685.03
632.236	11910.3
632.43	11824.29
632.624	11588.77
632.818	11623.59
633.012	11517.09
633.206	11363.5
633.4	11310.25
633.594	11287.72
633.788	11218.09
633.982	11220.14
634.176	11197.61
634.369	10982.57
634.563	10958
634.757	10933.42
634.951	11279.53
635.145	10937.52
635.339	10953.9
635.533	11029.68
635.726	10714.29
635.92	10499.25
636.114	10716.34
636.308	10396.85
636.501	10450.1
636.695	10398.9
636.889	10294.46
637.083	10130.62
637.276	10167.48
637.47	10128.57
637.664	10224.83
637.857	10054.84
638.051	9848
638.244	9804.99
638.438	9837.76
638.632	9864.38
638.825	9688.26
639.019	9708.74
639.212	9651.39
639.406	9684.16
639.599	9706.69
639.793	9569.48
639.986	9458.89
640.18	9479.36
640.373	9508.04
640.567	9266.38
640.76	9360.58
640.954	9200.84
641.147	9135.31
641.34	9084.11
641.534	9022.67
641.727	8967.37
641.92	8918.22
642.114	8742.1
642.307	8994
642.5	8836.3
642.694	8615.12
642.887	8748.24
643.08	8752.34
643.273	8590.55
643.467	8336.6
643.66	8545.49
643.853	8279.26
644.046	8469.72
644.239	8580.31
644.432	8322.26
644.626	8213.72
644.819	8240.34
645.012	8129.75
645.205	8281.3
645.398	8133.85
645.591	8072.41
645.784	8015.07
645.977	7859.42
646.17	7914.72
646.363	7693.54
646.556	7703.78
646.749	7748.83
646.942	7814.37
647.135	7922.91
647.328	7580.9
647.521	7920.86
647.714	7515.36
647.907	7738.59
648.099	7386.34
648.292	7353.57
648.485	7396.58
648.678	7253.22
648.871	7255.27
649.064	7140.58
649.256	7249.13
649.449	7095.53
649.642	7036.14
649.835	7167.21
650.027	7134.44
650.22	7152.87
650.413	7130.34
650.605	6970.6
650.798	7070.95
650.991	6851.82
651.183	6907.12
651.376	6743.28
651.568	6837.48
651.761	6765.81
651.954	6663.41
652.146	6778.09
652.339	6692.08
652.531	6710.51
652.724	6665.46
652.916	6495.47
653.109	6540.53
653.301	6429.94
653.494	6391.03
653.686	6253.81
653.879	6577.39
654.071	6386.93
654.263	6323.44
654.456	6399.22
654.648	6350.07
654.84	6292.73
655.033	6053.11
655.225	6155.51
655.417	6112.5
655.61	6044.92
655.802	6169.85
655.994	6229.24
656.186	5987.58
656.379	5977.34
656.571	6079.74
656.763	5895.42
656.955	5915.9
657.148	5932.28
657.34	5868.8
657.532	5860.6
657.724	5876.99
657.916	5616.9
658.108	5928.19
658.3	5670.14
658.492	5713.15
658.684	5504.26
658.876	5651.71
659.068	5563.65
659.26	5530.88
659.452	5442.82
659.644	5504.26
659.836	5438.72
660.028	5541.12
660.22	5440.77
660.412	5530.88
660.604	5334.28
660.796	5287.17
660.988	5430.53
661.18	5289.22
661.372	5158.15
661.563	5354.76
661.755	5188.87
661.947	5139.72
662.139	5336.32
662.331	5096.71
662.522	5168.39
662.714	5043.46
662.906	5041.42
663.097	5029.13
663.289	4994.31
663.481	4908.3
663.673	4934.92
663.864	5072.14
664.056	4934.92
664.247	4822.28
664.439	4965.64
664.631	4896.01
664.822	4893.96
665.014	4799.76
665.205	4885.77
665.397	4859.15
665.588	4785.42
665.78	4678.93
665.971	4805.9
666.163	4705.55
666.354	4678.93
666.546	4707.6
666.737	4611.34
666.929	4549.9
667.12	4535.57
667.311	4539.66
667.503	4588.82
667.694	4472.08
667.885	4572.43
668.077	4535.57
668.268	4447.51
668.459	4431.12
668.651	4533.52
668.842	4447.51
669.033	4394.26
669.224	4510.99
669.416	4521.23
669.607	4424.98
669.798	4238.61
669.989	4406.55
670.18	4398.35
670.371	4273.43
670.563	4234.52
670.754	4293.91
670.945	4242.71
671.136	4236.56
671.327	4218.13
671.518	4236.56
671.709	4205.85
671.9	4418.83
672.091	4136.21
672.282	4283.67
672.473	4320.53
672.664	4228.37
672.855	4316.44
673.046	4232.47
673.237	4117.78
673.428	4113.69
673.619	4152.6
673.809	4105.49
674	4076.82
674.191	4265.24
674.382	4123.93
674.573	4091.16
674.764	4070.68
674.954	4080.92
675.145	4080.92
675.336	4220.18
675.527	4150.55
675.717	4058.39
675.908	4019.48
676.099	4144.41
676.289	3945.75
676.48	4142.36
676.671	4013.34
676.861	4191.51
677.052	3994.9
677.243	4066.58
677.433	4062.49
677.624	4105.49
677.814	4064.54
678.005	4066.58
678.195	4109.59
678.386	3968.28
678.576	4062.49
678.767	4031.77
678.957	4099.35
679.148	4078.87
679.338	4019.48
679.529	3984.66
679.719	3931.42
679.909	4044.06
680.1	4070.68
680.29	3874.07
680.481	4007.19
680.671	4070.68
680.861	3859.74
681.052	4179.22
681.242	4019.48
681.432	4019.48
681.622	3937.56
681.813	4025.62
682.003	4115.73
682.193	4017.43
682.383	4103.45
682.573	4125.97
682.764	4046.1
682.954	4001.05
683.144	4089.11
683.334	3882.27
683.524	3941.66
683.714	3947.8
683.904	3976.47
684.094	3990.81
684.284	4056.34
684.474	3986.71
684.664	4029.72
684.854	4072.73
685.044	3964.18
685.234	3923.23
685.424	3845.4
685.614	3902.75
685.804	3882.27
685.994	3933.47
686.184	3898.65
686.374	3958.04
686.564	3867.93
686.753	3829.02
686.943	3798.3
687.133	3826.97
687.323	3792.16
687.513	3912.99
687.702	3702.04
687.892	3902.75
688.082	3675.42
688.272	3814.68
688.461	3689.76
688.651	3867.93
688.841	3622.17
689.03	3767.58
689.22	3704.09
689.41	3654.94
689.599	3681.57
689.789	3634.46
689.979	3575.07
690.168	3650.85
690.358	3519.78
690.547	3548.45
690.737	3480.86
690.926	3599.65
691.116	3417.38
691.305	3525.92
691.495	3464.48
691.684	3433.76
691.874	3450.14
692.063	3429.66
692.252	3429.66
692.442	3497.25
692.631	3376.42
692.82	3300.64
693.01	3386.66
693.199	3351.84
693.388	3300.64
693.578	3208.48
693.767	3255.59
693.956	3388.71
694.146	3306.79
694.335	3228.96
694.524	3304.74
694.713	3296.55
694.902	3251.49
695.092	3167.52
695.281	3110.18
695.47	3185.96
695.659	3087.65
695.848	3136.81
696.037	3159.33
696.226	3138.85
696.415	3163.43
696.604	3349.79
696.793	3056.93
696.982	3218.72
697.171	3081.51
697.36	3169.57
697.549	3120.42
697.738	3087.65
697.927	3177.76
698.116	3106.09
698.305	3206.44
698.494	3142.95
698.683	2987.3
698.872	3220.77
699.061	3130.66
699.25	3116.33
699.438	3108.13
699.627	3065.13
699.816	3194.15
700.005	3071.27
700.193	3200.29
700.382	3235.11
700.571	3145
700.76	3194.15
700.948	3145
701.137	3124.52
701.326	3079.46
701.514	3104.04
701.703	3116.33
701.892	3024.17
702.08	3231.01
702.269	3253.54
702.457	3028.26
702.646	3188
702.834	3073.32
703.023	3034.41
703.212	3214.63
703.4	3136.81
703.589	3091.75
703.777	3185.96
703.965	3085.61
704.154	3179.81
704.342	3130.66
704.531	3188
704.719	3165.48
704.907	3231.01
705.096	3136.81
705.284	3087.65
705.472	3153.19
705.661	3179.81
705.849	3226.92
706.037	3140.9
706.226	3132.71
706.414	3165.48
706.602	3142.95
706.79	3233.06
706.979	3153.19
707.167	3136.81
707.355	3128.61
707.543	3241.25
707.731	3204.39
707.919	3210.53
708.107	3112.23
708.296	3026.22
708.484	2977.06
708.672	3173.67
708.86	3206.44
709.048	3278.12
709.236	3194.15
709.424	3333.41
709.612	3214.63
709.8	3122.47
709.988	3138.85
710.176	3224.87
710.364	3286.31
710.551	3192.1
710.739	3302.69
710.927	3112.23
711.115	3194.15
711.303	3253.54
711.491	3222.82
711.679	3249.44
711.866	3228.96
712.054	3140.9
712.242	3263.78
712.43	3349.79
712.617	3335.46
712.805	3269.92
712.993	3294.5
713.181	3202.34
713.368	3140.9
713.556	3220.77
713.744	3200.29
713.931	3388.71
714.119	3177.76
714.306	3429.66
714.494	3398.95
714.682	3302.69
714.869	3210.53
715.057	3321.12
715.244	3296.55
715.432	3396.9
715.619	3382.56
715.807	3341.6
715.994	3353.89
716.182	3222.82
716.369	3263.78
716.556	3433.76
716.744	3286.31
716.931	3317.03
717.119	3323.17
717.306	3411.23
717.493	3374.37
717.681	3417.38
717.868	3374.37
718.055	3544.35
718.242	3521.82
718.43	3532.06
718.617	3357.99
718.804	3509.54
718.991	3532.06
719.179	3400.99
719.366	3302.69
719.553	3530.02
719.74	3491.1
719.927	3515.68
720.114	3497.25
720.301	3466.53
720.488	3417.38
720.676	3532.06
720.863	3511.58
721.05	3554.59
721.237	3507.49
721.424	3468.58
721.611	3706.14
721.798	3671.33
721.985	3597.6
722.172	3478.82
722.358	3487.01
722.545	3570.97
722.732	3704.09
722.919	3560.73
723.106	3630.37
723.293	3618.08
723.48	3536.16
723.667	3566.88
723.853	3636.51
724.04	3736.86
724.227	3605.79
724.414	3601.69
724.6	3642.65
724.787	3564.83
724.974	3487.01
725.161	3716.38
725.347	3544.35
725.534	3683.61
725.72	3609.89
725.907	3640.61
726.094	3579.17
726.28	3585.31
726.467	3661.09
726.653	3581.21
726.84	3671.33
727.027	3755.29
727.213	3638.56
727.4	3697.95
727.586	3779.87
727.773	3704.09
727.959	3767.58
728.145	3761.44
728.332	3654.94
728.518	3704.09
728.705	3646.75
728.891	3724.57
729.077	3716.38
729.264	3833.11
729.45	3790.11
729.636	3820.83
729.823	3802.4
730.009	3812.64
730.195	3681.57
730.382	3910.94
730.568	3718.43
730.754	3747.1
730.94	3794.2
731.126	3880.22
731.313	3835.16
731.499	3912.99
731.685	3751.2
731.871	3831.07
732.057	3861.79
732.243	3806.49
732.429	3757.34
732.615	3734.81
732.801	3665.18
732.987	3656.99
733.173	3798.3
733.359	3810.59
733.545	3812.64
733.731	3706.14
733.917	3915.03
734.103	3917.08
734.289	3908.89
734.475	3740.96
734.661	3906.84
734.847	3728.67
735.033	3767.58
735.219	3865.88
735.404	3855.64
735.59	3804.44
735.776	3767.58
735.962	3888.41
736.148	3781.92
736.333	3841.31
736.519	3788.06
736.705	3958.04
736.89	3710.24
737.076	3943.71
737.262	3781.92
737.447	3863.83
737.633	3802.4
737.819	3747.1
738.004	3847.45
738.19	3867.93
738.375	3826.97
738.561	3845.4
738.747	3847.45
738.932	3749.15
739.118	3898.65
739.303	3849.5
739.489	3810.59
739.674	3843.35
739.859	3718.43
740.045	3790.11
740.23	3755.29
740.416	3820.83
740.601	3771.68
740.786	3673.37
740.972	3718.43
741.157	3636.51
741.342	3568.93
741.528	3566.88
741.713	3730.72
741.898	3630.37
742.084	3548.45
742.269	3718.43
742.454	3720.48
742.639	3583.26
742.824	3583.26
743.01	3628.32
743.195	3542.3
743.38	3558.69
743.565	3470.62
743.75	3519.78
743.935	3474.72
744.12	3622.17
744.305	3554.59
744.49	3472.67
744.675	3441.95
744.86	3495.2
745.045	3409.19
745.23	3466.53
745.415	3487.01
745.6	3419.43
745.785	3331.36
745.97	3347.75
746.155	3493.15
746.34	3349.79
746.525	3394.85
746.71	3409.19
746.895	3231.01
747.079	3181.86
747.264	3247.4
747.449	3405.09
747.634	3228.96
747.819	3185.96
748.003	3261.73
748.188	3093.8
748.373	3192.1
748.557	3228.96
748.742	3153.19
748.927	3253.54
749.111	3063.08
749.296	3165.48
749.481	3171.62
749.665	2958.63
749.85	2997.54
750.034	3007.78
750.219	2913.58
750.404	3015.98
750.588	3022.12
750.773	2878.76
750.957	2905.39
751.141	2929.96
751.326	2954.54
751.51	2864.43
751.695	2831.66
751.879	2915.62
752.064	2794.79
752.248	2835.75
752.432	2895.15
752.617	2708.78
752.801	2821.42
752.985	2782.51
753.17	2665.77
753.354	2563.37
753.538	2575.66
753.722	2663.72
753.907	2590
754.091	2633.01
754.275	2676.01
754.459	2567.47
754.643	2616.62
754.828	2483.5
755.012	2585.9
755.196	2463.02
755.38	2612.53
755.564	2506.03
755.748	2426.16
755.932	2546.99
756.116	2485.55
756.3	2446.64
756.484	2397.49
756.668	2290.99
756.852	2293.04
757.036	2458.93
757.22	2415.92
757.404	2190.64
757.588	2397.49
757.772	2303.28
757.956	2288.95
758.14	2301.23
758.323	2293.04
758.507	2336.05
758.691	2260.27
758.875	2243.89
759.059	2168.12
759.242	2215.22
759.426	2125.11
759.61	2157.88
759.794	2082.1
759.977	2137.4
760.161	2213.17
760.345	2252.08
760.528	2030.9
760.712	2092.34
760.895	2102.58
761.079	2106.68
761.263	1977.66
761.446	1918.26
761.63	2129.2
761.813	1998.13
761.997	1989.94
762.18	1936.7
762.364	1828.15
762.547	1936.7
762.731	1822.01
762.914	1774.91
763.098	1865.02
763.281	1836.35
763.464	1858.87
763.648	1879.35
763.831	1908.02
764.015	1836.35
764.198	1948.98
764.381	1797.43
764.564	1834.3
764.748	1735.99
764.931	1762.62
765.114	1797.43
765.297	1844.54
765.481	1760.57
765.664	1742.14
765.847	1699.13
766.03	1735.99
766.213	1830.2
766.397	1764.67
766.58	1856.83
766.763	1613.12
766.946	1684.8
767.129	1660.22
767.312	1668.41
767.495	1652.03
767.678	1627.45
767.861	1697.08
768.044	1703.23
768.227	1701.18
768.41	1672.51
768.593	1680.7
768.776	1602.88
768.959	1664.32
769.142	1635.64
769.324	1699.13
769.507	1547.58
769.69	1543.49
769.873	1508.67
770.056	1613.12
770.239	1531.2
770.421	1592.64
770.604	1662.27
770.787	1531.2
770.97	1551.68
771.152	1492.29
771.335	1555.77
771.518	1477.95
771.7	1504.57
771.883	1525.05
772.066	1439.04
772.248	1441.09
772.431	1453.38
772.613	1459.52
772.796	1387.84
772.978	1420.61
773.161	1510.72
773.343	1455.42
773.526	1367.36
773.708	1393.98
773.891	1312.07
774.073	1332.55
774.256	1428.8
774.438	1445.18
774.621	1336.64
774.803	1340.74
774.985	1281.35
775.168	1295.68
775.35	1303.87
775.532	1377.6
775.715	1269.06
775.897	1279.3
776.079	1338.69
776.261	1355.07
776.444	1262.91
776.626	1195.33
776.808	1246.53
776.99	1129.8
777.173	1209.67
777.355	1264.96
777.537	1230.15
777.719	1246.53
777.901	1228.1
778.083	1090.88
778.265	1137.99
778.447	1158.47
778.629	1131.84
778.811	1107.27
778.993	1074.5
779.175	1086.79
779.357	1152.32
779.539	1049.93
779.721	1082.69
779.903	1070.4
780.085	1099.08
780.267	1000.77
780.449	1025.35
780.631	1017.16
780.812	1031.49
780.994	1041.73
781.176	1015.11
781.358	939.34
781.54	976.2
781.721	918.86
781.903	976.2
782.085	982.34
782.267	965.96
782.448	892.23
782.63	972.1
782.812	886.09
782.993	869.7
783.175	843.08
783.357	914.76
783.538	908.62
783.72	857.42
783.901	877.9
784.083	841.03
784.264	1002.82
784.446	767.31
784.627	740.68
784.809	828.74
784.99	843.08
785.172	836.94
785.353	779.59
785.535	859.46
785.716	777.55
785.897	738.63
786.079	863.56
786.26	884.04
786.441	771.4
786.623	775.5
786.804	787.79
786.985	732.49
787.167	802.12
787.348	814.41
787.529	755.02
787.71	750.92
787.891	720.2
788.073	675.15
788.254	677.19
788.435	750.92
788.616	656.72
788.797	609.61
788.978	722.25
789.159	654.67
789.34	726.35
789.522	709.96
789.703	589.13
789.884	578.89
790.065	597.32
790.246	750.92
790.427	675.15
790.607	644.43
790.788	664.91
790.969	654.67
791.15	632.14
791.331	617.8
791.512	589.13
791.693	542.03
791.874	576.84
792.054	642.38
792.235	650.57
792.416	529.74
792.597	582.99
792.778	638.28
792.958	613.71
793.139	609.61
793.32	570.7
793.5	568.65
793.681	589.13
793.862	570.7
794.042	603.47
794.223	521.55
794.404	550.22
794.584	525.65
794.765	537.93
794.945	435.53
795.126	527.69
795.306	580.94
795.487	449.87
795.667	509.26
795.848	511.31
796.028	503.12
796.209	568.65
796.389	544.08
796.57	511.31
796.75	394.58
796.93	413.01
797.111	542.03
797.291	462.16
797.471	433.49
797.652	494.93
797.832	449.87
798.012	515.41
798.192	449.87
798.373	447.82
798.553	380.24
798.733	437.58
798.913	449.87
799.093	392.53
799.274	476.49
799.454	404.82
799.634	429.39
799.814	458.06
799.994	492.88
800.174	478.54
800.354	425.29
800.534	378.19
800.714	406.86
800.894	441.68
801.074	415.06
801.254	304.46
801.434	474.45
801.614	353.62
801.794	437.58
801.974	1189.19
802.154	392.53
802.334	382.29
802.514	320.85
802.693	460.11
802.873	392.53
803.053	476.49
803.233	443.73
803.413	331.09
803.592	392.53
803.772	357.71
803.952	439.63
804.131	345.42
804.311	370
804.491	413.01
804.67	283.99
804.85	253.27
805.03	335.18
805.209	318.8
805.389	345.42
805.568	388.43
805.748	333.14
805.928	335.18
806.107	341.33
806.287	359.76
806.466	339.28
806.646	255.31
806.825	367.95
807.004	267.6
807.184	302.42
807.363	314.7
807.543	341.33
807.722	275.79
807.901	380.24
808.081	261.46
808.26	290.13
808.439	238.93
808.619	251.22
808.798	277.84
808.977	247.12
809.156	304.46
809.336	355.66
809.515	279.89
809.694	247.12
809.873	283.99
810.052	308.56
810.231	265.55
810.411	294.22
810.59	294.22
810.769	363.86
810.948	275.79
811.127	259.41
811.306	361.81
811.485	193.87
811.664	370
811.843	281.94
812.022	316.75
812.201	298.32
812.38	281.94
812.559	292.18
812.737	269.65
812.916	228.69
813.095	247.12
813.274	265.55
813.453	304.46
813.632	171.35
813.811	286.03
813.989	265.55
814.168	240.98
814.347	177.49
814.526	218.45
814.704	226.64
814.883	288.08
815.062	234.83
815.24	300.37
815.419	206.16
815.598	281.94
815.776	136.53
815.955	247.12
816.133	208.21
816.312	261.46
816.49	171.35
816.669	271.7
816.847	232.79
817.026	202.07
817.204	234.83
817.383	232.79
817.561	232.79
817.74	197.97
817.918	183.63
818.097	232.79
818.275	232.79
818.453	212.31
818.632	243.03
818.81	251.22
818.988	206.16
819.167	216.4
819.345	134.48
819.523	185.68
819.701	243.03
819.879	206.16
820.058	136.53
820.236	222.55
820.414	193.87
820.592	142.68
820.77	183.63
820.948	263.51
821.127	243.03
821.305	191.83
821.483	68.95
821.661	179.54
821.839	154.96
822.017	169.3
822.195	177.49
822.373	189.78
822.551	173.39
822.729	193.87
822.907	230.74
823.085	183.63
823.262	161.11
823.44	122.2
823.618	150.87
823.796	218.45
823.974	183.63
824.152	134.48
824.329	157.01
824.507	146.77
824.685	97.62
824.863	177.49
825.04	179.54
825.218	187.73
825.396	118.1
825.574	130.39
825.751	148.82
825.929	183.63
826.107	163.15
826.284	140.63
826.462	171.35
826.639	122.2
826.817	146.77
826.994	118.1
827.172	38.23
827.349	224.59
827.527	142.68
827.704	183.63
827.882	171.35
828.059	107.86
828.237	152.92
828.414	277.84
828.591	75.09
828.769	185.68
828.946	64.85
829.124	169.3
829.301	140.63
829.478	81.24
829.655	87.38
829.833	163.15
830.01	99.67
830.187	191.83
830.364	126.29
830.542	214.35
830.719	77.14
830.896	89.43
831.073	167.25
831.25	175.44
831.427	152.92
831.604	93.52
831.782	118.1
831.959	152.92
832.136	111.96
832.313	157.01
832.49	95.57
832.667	81.24
832.844	68.95
833.021	157.01
833.198	124.24
833.374	103.76
833.551	140.63
833.728	109.91
833.905	187.73
834.082	79.19
834.259	85.33
834.436	93.52
834.612	118.1
834.789	140.63
834.966	111.96
835.143	122.2
835.319	150.87
835.496	150.87
835.673	66.9
835.85	202.07
836.026	136.53
836.203	87.38
836.38	-0.68
836.556	120.15
836.733	109.91
836.909	89.43
837.086	62.8
837.262	77.14
837.439	91.48
837.616	32.08
837.792	60.76
837.968	132.44
838.145	81.24
838.321	124.24
838.498	103.76
838.674	95.57
838.851	85.33
839.027	66.9
839.203	107.86
839.38	93.52
839.556	83.28
839.732	68.95
839.909	138.58
840.085	120.15
840.261	95.57
840.437	95.57
840.614	93.52
840.79	99.67
840.966	136.53
841.142	54.61
841.318	56.66
841.494	126.29
841.671	120.15
841.847	64.85
842.023	89.43
842.199	101.72
842.375	157.01
842.551	23.89
842.727	71
842.903	73.04
843.079	-8.87
843.255	83.28
843.431	52.56
843.607	66.9
843.783	52.56
843.959	109.91
844.134	-27.31
844.31	50.52
844.486	-2.73
844.662	52.56
844.838	7.51
845.013	77.14
845.189	130.39
845.365	64.85
845.541	105.81
845.716	138.58
845.892	89.43
846.068	85.33
846.244	79.19
846.419	68.95
846.595	15.7
846.77	58.71
846.946	97.62
847.122	77.14
847.297	50.52
847.473	136.53
847.648	17.75
847.824	-4.78
847.999	-21.16
848.175	19.8
848.35	38.23
848.526	89.43
848.701	34.13
848.876	30.04
849.052	68.95
849.227	15.7
849.403	60.76
849.578	23.89
849.753	46.42
849.929	52.56
850.104	-45.74
850.279	75.09
850.454	46.42
850.63	60.76
850.805	-2.73
850.98	171.35
851.155	93.52
851.33	38.23
851.505	34.13
851.681	154.96
851.856	3.41
852.031	34.13
852.206	68.95
852.381	3.41
852.556	5.46
852.731	99.67
852.906	85.33
853.081	40.28
853.256	50.52
853.431	60.76
853.606	-2.73
853.781	5.46
853.956	-0.68
854.131	107.86
854.305	-15.02
854.48	-0.68
854.655	1.37
854.83	3.41
855.005	17.75
855.18	9.56
855.354	9.56
855.529	17.75
855.704	5.46
855.879	68.95
856.053	36.18
856.228	-12.97
856.403	-2.73
856.577	62.8
856.752	-35.5
856.926	-17.07
857.101	32.08
857.276	-8.87
857.45	56.66
857.625	73.04
857.799	60.76
857.974	81.24
858.148	-29.35
858.323	54.61
858.497	21.85
858.672	68.95
858.846	-15.02
859.02	107.86
859.195	52.56
859.369	89.43
859.543	44.37
859.718	1.37
859.892	-17.07
860.066	83.28
860.241	-10.92
860.415	68.95
860.589	-19.11
860.763	30.04
860.938	-17.07
861.112	-0.68
861.286	79.19
861.46	38.23
861.634	32.08
861.808	42.32
861.982	23.89
862.157	1.37
862.331	7.51
862.505	-62.12
862.679	13.65
862.853	105.81
863.027	-88.75
863.201	87.38
863.375	9.56
863.549	64.85
863.722	-15.02
863.896	58.71
864.07	-33.45
864.244	-47.79
864.418	138.58
864.592	27.99
864.766	-55.98
864.939	32.08
865.113	-17.07
865.287	17.75
865.461	-12.97
865.634	99.67
865.808	-12.97
865.982	64.85
866.156	44.37
866.329	-12.97
866.503	11.61
866.676	23.89
866.85	-2.73
867.024	-37.55
867.197	13.65
867.371	-31.4
867.544	56.66
867.718	-31.4
867.891	13.65
868.065	-41.64
868.238	13.65
868.412	58.71
868.585	-17.07
868.759	9.56
868.932	-2.73
869.105	19.8
869.279	32.08
869.452	50.52
869.625	-8.87
869.799	-45.74
869.972	-19.11
870.145	-2.73
870.319	83.28
870.492	11.61
870.665	-8.87
870.838	-6.83
871.011	-66.22
871.185	17.75
871.358	-43.69
871.531	56.66
871.704	15.7
871.877	34.13
872.05	-51.88
872.223	-8.87
872.396	27.99
872.569	13.65
872.742	-2.73
872.915	19.8
873.088	-51.88
873.261	-70.31
873.434	-15.02
873.607	46.42
873.78	34.13
873.953	-17.07
874.126	32.08
874.299	13.65
874.471	9.56
874.644	-45.74
874.817	-43.69
874.99	140.63
875.163	50.52
875.335	-25.26
875.508	25.94
875.681	-12.97
875.853	-23.21
876.026	34.13
876.199	32.08
876.371	25.94
876.544	-70.31
876.717	25.94
876.889	-12.97
877.062	17.75
877.234	-51.88
877.407	50.52
877.579	-51.88
877.752	-31.4
877.924	34.13
878.097	5.46
878.269	-25.26
878.442	36.18
878.614	46.42
878.786	25.94
878.959	5.46
879.131	56.66
879.303	-84.65
879.476	38.23
879.648	3.41
879.82	71
879.993	7.51
880.165	-62.12
880.337	-60.07
880.509	9.56
880.681	-55.98
880.854	36.18
881.026	1.37
881.198	-37.55
881.37	40.28
881.542	-25.26
881.714	-15.02
881.886	48.47
882.058	50.52
882.23	15.7
882.402	-53.93
882.574	-47.79
882.746	-6.83
882.918	83.28
883.09	79.19
883.262	1.37
883.434	-12.97
883.606	-19.11
883.778	-21.16
883.95	25.94
884.122	-12.97
884.293	21.85
884.465	-23.21
884.637	79.19
884.809	-25.26
884.98	48.47
885.152	-0.68
885.324	-33.45
885.496	-17.07
885.667	-47.79
885.839	-60.07
886.011	34.13
886.182	34.13
886.354	-21.16
886.525	-70.31
886.697	21.85
886.869	-27.31
887.04	-0.68
887.212	15.7
887.383	21.85
887.555	11.61
887.726	-66.22
887.897	-4.78
888.069	-55.98
888.24	-21.16
888.412	-2.73
888.583	27.99
888.754	-2.73
888.926	11.61
889.097	34.13
889.268	-37.55
889.44	1.37
889.611	-21.16
889.782	-90.79
889.953	-29.35
890.125	3.41
890.296	-55.98
890.467	-23.21
890.638	11.61
890.809	-49.83
890.98	23.89
891.151	40.28
891.323	21.85
891.494	1.37
891.665	-8.87
891.836	42.32
892.007	-43.69
892.178	-27.31
892.349	19.8
892.52	40.28
892.691	-78.51
892.862	-4.78
893.032	-64.17
893.203	-121.51
893.374	-27.31
893.545	58.71
893.716	5.46
893.887	-33.45
894.057	3.41
894.228	-55.98
894.399	89.43
894.57	19.8
894.74	-17.07
894.911	30.04
895.082	-39.59
895.253	40.28
895.423	13.65
895.594	11.61
895.764	62.8
895.935	-31.4
896.106	-6.83
896.276	17.75
896.447	-62.12
896.617	-21.16
896.788	-35.5
896.958	-35.5
897.129	-58.03
897.299	-31.4
897.47	-4.78
897.64	27.99
897.81	-64.17
897.981	-10.92
898.151	-68.27
898.322	-25.26
898.492	5.46
898.662	-47.79
898.832	79.19
899.003	13.65
899.173	-21.16
899.343	-103.08
899.513	-70.31
