Data from USB4F104151__2__11-39-33-136.txt Node

Date: Wed Feb 19 11:39:33 EST 2025
User: louis
Spectrometer: USB4F10415
Trigger mode: 4
Integration Time (sec): 2.250200E-1
Scans to average: 1
Electric dark correction enabled: true
Nonlinearity correction enabled: false
Boxcar width: 0
XAxis mode: Wavelengths
Number of Pixels in Spectrum: 3648
>>>>>Begin Spectral Data<<<<<
178.204	-762.53
178.424	-762.53
178.644	-762.53
178.864	-846.49
179.084	-809.63
179.304	148.82
179.524	109.91
179.744	-19.11
179.964	-158.38
180.184	152.91
180.404	118.1
180.624	-271.01
180.844	-131.75
181.064	46.42
181.283	220.5
181.503	-158.38
181.723	-58.03
181.943	-70.31
182.163	527.69
182.383	-201.38
182.602	-113.32
182.822	435.53
183.042	165.2
183.262	-172.71
183.482	-187.05
183.701	253.27
183.921	245.07
184.141	-107.18
184.361	-162.47
184.58	240.98
184.8	197.97
185.02	-203.43
185.239	-58.03
185.459	243.03
185.679	466.25
185.898	-240.3
186.118	-158.38
186.338	181.59
186.557	326.99
186.777	-225.96
186.997	-185
187.216	177.49
187.436	470.35
187.655	-148.14
187.875	-15.02
188.095	181.59
188.314	449.87
188.534	-62.12
188.753	-223.91
188.973	374.1
189.192	509.26
189.412	-154.28
189.631	-213.67
189.851	376.14
190.07	417.1
190.29	-172.71
190.509	-250.53
190.729	212.31
190.948	402.77
191.168	-21.16
191.387	-158.38
191.607	234.83
191.826	261.46
192.045	-92.84
192.265	-201.38
192.484	353.62
192.704	210.26
192.923	-125.61
193.142	30.04
193.362	331.09
193.581	398.67
193.8	-23.21
194.02	-96.94
194.239	312.66
194.458	357.71
194.678	-82.6
194.897	-199.34
195.116	247.12
195.335	261.46
195.555	-101.03
195.774	-268.97
195.993	294.22
196.212	195.92
196.432	-68.27
196.651	-268.97
196.87	214.35
197.089	603.47
197.308	-92.84
197.528	-172.71
197.747	81.24
197.966	167.25
198.185	-27.31
198.404	-217.77
198.623	337.23
198.842	302.42
199.062	-101.03
199.281	-64.17
199.5	218.45
199.719	316.75
199.938	-170.66
200.157	-131.75
200.376	367.95
200.595	228.69
200.814	-84.65
201.033	-152.23
201.252	470.35
201.471	240.98
201.69	-152.23
201.909	-58.03
202.128	294.22
202.347	263.51
202.566	-119.46
202.785	-258.73
203.004	66.9
203.223	562.51
203.442	-150.18
203.661	-232.1
203.879	302.42
204.098	312.66
204.317	-191.14
204.536	-25.26
204.755	351.57
204.974	308.56
205.193	-215.72
205.411	-66.22
205.63	410.96
205.849	195.92
206.068	-178.86
206.287	-279.21
206.505	398.67
206.724	228.69
206.943	-139.94
207.162	-174.76
207.381	238.93
207.599	120.15
207.818	-113.32
208.037	-279.21
208.255	210.26
208.474	269.65
208.693	-115.37
208.911	-148.14
209.13	374.1
209.349	312.66
209.567	-0.68
209.786	-178.86
210.005	351.57
210.223	214.35
210.442	-381.6
210.661	-318.12
210.879	247.12
211.098	228.69
211.316	-123.56
211.535	-162.47
211.753	263.51
211.972	286.03
212.191	-105.13
212.409	-23.21
212.628	316.75
212.846	56.66
213.065	-203.43
213.283	-129.7
213.502	212.31
213.72	173.39
213.938	-187.05
214.157	-144.04
214.375	357.71
214.594	77.14
214.812	-101.03
215.031	-121.51
215.249	208.21
215.467	275.79
215.686	-47.79
215.904	-182.95
216.122	245.07
216.341	386.38
216.559	75.09
216.778	-109.22
216.996	431.44
217.214	95.57
217.432	-115.37
217.651	-244.39
217.869	240.98
218.087	189.78
218.306	-176.81
218.524	-168.62
218.742	197.97
218.96	374.1
219.179	-166.57
219.397	-225.96
219.615	429.39
219.833	279.89
220.051	-207.53
220.27	-103.08
220.488	380.24
220.706	349.52
220.924	-164.52
221.142	-160.42
221.36	218.45
221.578	236.88
221.796	-185
222.015	-70.31
222.233	157.01
222.451	349.52
222.669	-129.7
222.887	-68.27
223.105	167.25
223.323	193.87
223.541	-205.48
223.759	-125.61
223.977	183.63
224.195	421.2
224.413	-68.27
224.631	-203.43
224.849	238.93
225.067	554.32
225.285	-135.85
225.503	-166.57
225.721	-76.46
225.939	365.9
226.157	-96.94
226.375	-10.92
226.592	171.35
226.81	216.4
227.028	23.89
227.246	-176.81
227.464	261.46
227.682	312.66
227.9	-111.27
228.117	-60.07
228.335	286.03
228.553	163.15
228.771	-223.91
228.989	-107.18
229.206	294.22
229.424	75.09
229.642	-119.46
229.86	-137.9
230.077	365.9
230.295	191.83
230.513	-53.93
230.731	-78.51
230.948	447.82
231.166	349.52
231.384	-60.07
231.601	-137.9
231.819	404.82
232.037	165.2
232.254	-19.11
232.472	-117.42
232.689	193.87
232.907	302.42
233.125	-187.05
233.342	-234.15
233.56	138.58
233.777	120.15
233.995	-191.14
234.213	-60.07
234.43	294.22
234.648	114
234.865	-148.14
235.083	-25.26
235.3	195.92
235.518	339.28
235.735	-45.74
235.953	-123.56
236.17	243.03
236.388	154.96
236.605	7.51
236.822	-123.56
237.04	400.72
237.257	236.88
237.475	-121.51
237.692	-170.66
237.909	349.52
238.127	157.01
238.344	-19.11
238.562	-98.99
238.779	40.28
238.996	93.52
239.214	-21.16
239.431	-144.04
239.648	79.19
239.865	294.22
240.083	-37.55
240.3	-225.96
240.517	146.77
240.735	189.78
240.952	89.43
241.169	-217.77
241.386	267.6
241.603	212.31
241.821	-148.14
242.038	-58.03
242.255	376.14
242.472	77.14
242.689	-27.31
242.907	-137.9
243.124	191.83
243.341	130.39
243.558	-43.69
243.775	-203.43
243.992	17.75
244.209	257.36
244.426	-49.83
244.643	-84.65
244.86	159.06
245.078	353.62
245.295	-80.55
245.512	-168.62
245.729	56.66
245.946	308.56
246.163	-74.41
246.38	-123.56
246.597	206.16
246.814	230.74
247.031	15.7
247.248	-207.53
247.464	318.8
247.681	171.35
247.898	-10.92
248.115	-43.69
248.332	75.09
248.549	355.66
248.766	66.9
248.983	-96.94
249.2	257.36
249.417	232.79
249.633	-121.51
249.85	-60.07
250.067	185.68
250.284	214.35
250.501	-182.95
250.717	-146.09
250.934	52.56
251.151	150.87
251.368	-74.41
251.585	-43.69
251.801	202.07
252.018	81.24
252.235	-29.35
252.451	-148.14
252.668	138.58
252.885	218.45
253.102	-51.88
253.318	-94.89
253.535	165.2
253.752	50.52
253.968	-141.99
254.185	-271.01
254.401	245.07
254.618	290.13
254.835	-109.22
255.051	-35.5
255.268	312.66
255.484	232.79
255.701	-66.22
255.917	-133.8
256.134	122.2
256.351	179.54
256.567	-170.66
256.784	-8.87
257	-17.07
257.217	349.52
257.433	107.86
257.65	-72.36
257.866	386.38
258.082	19.8
258.299	-115.37
258.515	-148.14
258.732	179.54
258.948	89.43
259.165	-41.64
259.381	-223.91
259.597	324.94
259.814	132.44
260.03	-197.29
260.246	-125.61
260.463	306.51
260.679	218.45
260.895	-62.12
261.112	9.56
261.328	136.53
261.544	7.51
261.761	-92.84
261.977	-197.29
262.193	50.52
262.409	283.98
262.626	62.8
262.842	-109.22
263.058	95.57
263.274	324.94
263.49	-86.7
263.707	-86.7
263.923	314.7
264.139	-51.88
264.355	-62.12
264.571	-72.36
264.787	290.13
265.004	357.71
265.22	-27.31
265.436	-141.99
265.652	109.91
265.868	265.55
266.084	-158.38
266.3	-45.74
266.516	56.66
266.732	165.2
266.948	-90.79
267.164	-113.32
267.38	234.83
267.596	279.89
267.812	-15.02
268.028	-70.31
268.244	144.72
268.46	243.03
268.676	-51.88
268.892	-21.16
269.108	157.01
269.324	32.08
269.54	-123.56
269.756	-84.65
269.972	-19.11
270.188	93.52
270.403	-76.46
270.619	-98.99
270.835	251.22
271.051	150.87
271.267	-98.99
271.483	-131.75
271.698	329.04
271.914	263.51
272.13	-78.51
272.346	-76.46
272.562	351.57
272.777	355.66
272.993	-10.92
273.209	-90.79
273.425	343.38
273.64	46.42
273.856	-25.26
274.072	-215.72
274.287	64.85
274.503	294.22
274.719	17.75
274.934	-152.23
275.15	-27.31
275.366	169.3
275.581	-94.89
275.797	-25.26
276.012	195.92
276.228	105.81
276.444	-70.31
276.659	44.37
276.875	89.43
277.09	185.68
277.306	-17.07
277.521	3.41
277.737	120.15
277.952	157.01
278.168	-129.7
278.383	-17.07
278.599	93.52
278.814	335.18
279.03	-156.33
279.245	-12.97
279.461	136.53
279.676	208.21
279.892	-66.22
280.107	-80.55
280.322	107.86
280.538	243.03
280.753	-191.14
280.969	-92.84
281.184	228.69
281.399	331.09
281.615	-10.92
281.83	79.19
282.045	15.7
282.26	7.51
282.476	-107.18
282.691	114
282.906	200.02
283.122	189.78
283.337	-0.68
283.552	71
283.767	107.86
283.983	210.26
284.198	5.46
284.413	-109.22
284.628	83.28
284.843	243.03
285.058	-43.69
285.274	-68.27
285.489	101.72
285.704	126.29
285.919	-92.84
286.134	54.61
286.349	197.97
286.564	-8.87
286.779	36.18
286.995	62.8
287.21	81.24
287.425	183.63
287.64	-70.31
287.855	58.71
288.07	13.65
288.285	300.37
288.5	-35.5
288.715	-47.79
288.93	134.48
289.145	71
289.36	-64.17
289.575	-29.35
289.79	341.33
290.004	13.65
290.219	-33.45
290.434	-123.56
290.649	179.54
290.864	87.38
291.079	-15.02
291.294	95.57
291.509	187.73
291.724	62.8
291.938	30.04
292.153	-64.17
292.368	171.35
292.583	226.64
292.798	40.28
293.012	-2.73
293.227	247.12
293.442	95.57
293.657	103.76
293.871	21.84
294.086	281.94
294.301	306.51
294.516	40.28
294.73	85.33
294.945	68.95
295.16	159.06
295.374	40.28
295.589	62.8
295.804	62.8
296.018	161.11
296.233	-27.31
296.447	85.33
296.662	89.43
296.877	345.42
297.091	79.19
297.306	-23.21
297.52	60.76
297.735	265.55
297.949	118.1
298.164	-174.76
298.378	187.73
298.593	-72.36
298.807	-98.99
299.022	-27.31
299.236	259.41
299.451	79.19
299.665	75.09
299.88	68.95
300.094	304.46
300.309	161.11
300.523	-60.07
300.737	3.41
300.952	204.11
301.166	163.15
301.381	-70.31
301.595	-133.8
301.809	181.59
302.024	66.9
302.238	-68.27
302.452	105.81
302.667	173.39
302.881	253.27
303.095	30.04
303.309	1.37
303.524	122.2
303.738	95.57
303.952	58.71
304.166	-19.11
304.381	-144.04
304.595	302.42
304.809	-15.02
305.023	-41.64
305.237	114
305.452	91.48
305.666	-51.88
305.88	-33.45
306.094	286.03
306.308	269.65
306.522	-94.89
306.736	75.09
306.95	230.74
307.164	120.15
307.379	32.08
307.593	81.24
307.807	279.89
308.021	281.94
308.235	193.87
308.449	-15.02
308.663	54.61
308.877	474.45
309.091	5.46
309.305	159.06
309.519	11.61
309.733	281.94
309.947	-90.79
310.161	-60.07
310.374	191.83
310.588	302.42
310.802	-41.64
311.016	-45.74
311.23	210.26
311.444	68.95
311.658	44.37
311.872	173.39
312.085	189.78
312.299	292.18
312.513	27.99
312.727	13.65
312.941	23.89
313.154	89.43
313.368	7.51
313.582	7.51
313.796	224.59
314.009	34.13
314.223	183.63
314.437	54.61
314.651	177.49
314.864	58.71
315.078	-47.79
315.292	-60.07
315.505	101.72
315.719	144.72
315.933	68.95
316.146	-82.6
316.36	7.51
316.573	197.97
316.787	183.63
317.001	9.56
317.214	-4.78
317.428	144.72
317.641	-19.11
317.855	32.08
318.068	197.97
318.282	122.2
318.495	128.34
318.709	7.51
318.922	111.96
319.136	322.9
319.349	114
319.563	-4.78
319.776	206.16
319.99	-98.99
320.203	91.48
320.417	-29.35
320.63	97.62
320.843	351.57
321.057	95.57
321.27	-8.87
321.483	302.42
321.697	171.35
321.91	-68.27
322.124	25.94
322.337	191.83
322.55	30.04
322.763	25.94
322.977	-58.03
323.19	27.99
323.403	169.3
323.617	25.94
323.83	208.21
324.043	197.97
324.256	109.91
324.469	-254.63
324.683	161.11
324.896	157.01
325.109	169.3
325.322	-174.76
325.535	87.38
325.748	277.84
325.962	132.44
326.175	15.7
326.388	-2.73
326.601	210.26
326.814	107.86
327.027	56.66
327.24	99.67
327.453	-8.87
327.666	185.68
327.879	183.63
328.092	-6.83
328.305	159.06
328.518	122.2
328.731	11.61
328.944	-82.6
329.157	204.11
329.37	-2.73
329.583	226.64
329.796	77.14
330.009	-10.92
330.222	218.45
330.435	36.18
330.648	-39.59
330.861	234.83
331.073	173.39
331.286	36.18
331.499	-64.17
331.712	62.8
331.925	202.07
332.138	154.96
332.35	-4.78
332.563	87.38
332.776	300.37
332.989	-62.12
333.202	-72.36
333.414	97.62
333.627	226.64
333.84	-53.93
334.053	58.71
334.265	130.39
334.478	50.52
334.691	-23.21
334.903	122.2
335.116	60.76
335.329	87.38
335.541	13.65
335.754	238.93
335.966	17.75
336.179	193.87
336.392	17.75
336.604	56.66
336.817	165.2
337.029	179.54
337.242	-55.98
337.454	54.61
337.667	154.96
337.88	318.8
338.092	107.86
338.305	62.8
338.517	126.29
338.729	124.24
338.942	25.94
339.154	-66.22
339.367	11.61
339.579	142.68
339.792	-127.66
340.004	50.52
340.217	136.53
340.429	171.35
340.641	-68.27
340.854	-62.12
341.066	193.87
341.278	257.36
341.491	146.77
341.703	-90.79
341.915	27.99
342.128	200.02
342.34	36.18
342.552	56.66
342.764	234.83
342.977	128.34
343.189	9.56
343.401	109.91
343.613	-43.69
343.826	171.35
344.038	-10.92
344.25	-6.83
344.462	62.8
344.674	132.44
344.886	-146.09
345.099	-6.83
345.311	187.73
345.523	95.57
345.735	-152.23
345.947	54.61
346.159	150.87
346.371	175.44
346.583	11.61
346.795	73.04
347.007	105.81
347.219	222.55
347.431	62.8
347.643	120.15
347.855	77.14
348.067	347.47
348.279	-127.66
348.491	-74.41
348.703	218.45
348.915	193.87
349.127	-58.03
349.339	-31.4
349.551	220.5
349.763	288.08
349.975	7.51
350.187	97.62
350.399	376.14
350.61	208.21
350.822	-21.16
351.034	60.76
351.246	220.5
351.458	171.35
351.669	48.47
351.881	48.47
352.093	363.86
352.305	187.73
352.517	-29.35
352.728	105.81
352.94	175.44
353.152	243.03
353.363	-123.56
353.575	44.37
353.787	460.11
353.999	210.26
354.21	122.2
354.422	-117.42
354.633	208.21
354.845	105.81
355.057	73.04
355.268	5.46
355.48	238.93
355.692	-84.65
355.903	9.56
356.115	-76.46
356.326	-113.32
356.538	320.85
356.749	-64.17
356.961	103.76
357.172	173.39
357.384	25.94
357.595	273.75
357.807	-10.92
358.018	62.8
358.23	124.24
358.441	1.37
358.653	-31.4
358.864	136.53
359.075	38.23
359.287	-23.21
359.498	111.96
359.709	234.83
359.921	169.3
360.132	30.04
360.344	-68.27
360.555	7.51
360.766	177.49
360.977	-23.21
361.189	114
361.4	193.87
361.611	245.07
361.823	64.85
362.034	-35.5
362.245	25.94
362.456	144.72
362.667	105.81
362.879	-94.89
363.09	238.93
363.301	214.35
363.512	-74.41
363.723	-113.32
363.935	173.39
364.146	236.88
364.357	-45.74
364.568	-0.68
364.779	17.75
364.99	234.83
365.201	3.41
365.412	120.15
365.623	-25.26
365.834	185.68
366.045	60.76
366.256	50.52
366.467	288.08
366.678	97.62
366.889	68.95
367.1	13.65
367.311	286.03
367.522	91.48
367.733	17.75
367.944	48.47
368.155	175.44
368.366	216.4
368.577	68.95
368.788	140.63
368.999	99.67
369.209	159.06
369.42	120.15
369.631	421.2
369.842	220.5
370.053	142.68
370.264	-27.31
370.474	-76.46
370.685	195.92
370.896	73.04
371.107	120.15
371.317	-8.87
371.528	175.44
371.739	234.83
371.95	50.52
372.16	46.42
372.371	-8.87
372.582	109.91
372.792	79.19
373.003	64.85
373.214	214.35
373.424	218.45
373.635	-37.55
373.846	107.86
374.056	177.49
374.267	120.15
374.477	93.52
374.688	15.7
374.898	189.78
375.109	169.3
375.319	128.34
375.53	13.65
375.74	347.47
375.951	73.04
376.161	111.96
376.372	17.75
376.582	120.15
376.793	253.27
377.003	-84.65
377.214	-10.92
377.424	212.31
377.635	93.52
377.845	-43.69
378.055	71
378.266	-64.17
378.476	144.72
378.686	-10.92
378.897	103.76
379.107	304.46
379.317	267.6
379.528	-80.55
379.738	128.34
379.948	1.37
380.158	300.37
380.369	77.14
380.579	23.89
380.789	124.24
380.999	216.4
381.21	95.57
381.42	183.63
381.63	152.91
381.84	212.31
382.05	126.29
382.261	114
382.471	271.7
382.681	75.09
382.891	60.76
383.101	136.53
383.311	11.61
383.521	23.89
383.731	-62.12
383.941	118.1
384.151	134.48
384.361	17.75
384.571	-10.92
384.781	77.14
384.991	277.84
385.201	433.49
385.411	146.77
385.621	-27.31
385.831	87.38
386.041	216.4
386.251	25.94
386.461	154.96
386.671	159.06
386.881	167.25
387.091	13.65
387.301	95.57
387.511	154.96
387.72	167.25
387.93	101.72
388.14	-105.13
388.35	73.04
388.56	333.14
388.769	89.43
388.979	62.8
389.189	122.2
389.399	171.35
389.609	25.94
389.818	11.61
390.028	259.41
390.238	216.4
390.447	-123.56
390.657	-43.69
390.867	130.39
391.076	-39.59
391.286	-55.98
391.496	-51.88
391.705	142.68
391.915	267.6
392.125	-23.21
392.334	21.84
392.544	376.14
392.753	79.19
392.963	13.65
393.172	21.84
393.382	87.38
393.591	296.27
393.801	-39.59
394.01	30.04
394.22	179.54
394.429	111.96
394.639	11.61
394.848	118.1
395.058	204.11
395.267	154.96
395.477	136.53
395.686	93.52
395.895	591.18
396.105	351.57
396.314	134.48
396.524	128.34
396.733	52.56
396.942	277.84
397.152	-15.02
397.361	263.51
397.57	136.53
397.78	152.91
397.989	120.15
398.198	247.12
398.407	50.52
398.617	89.43
398.826	30.04
399.035	-12.97
399.244	200.02
399.453	132.44
399.663	9.56
399.872	-82.6
400.081	73.04
400.29	230.74
400.499	1.37
400.708	105.81
400.917	150.87
401.127	83.28
401.336	46.42
401.545	234.83
401.754	310.61
401.963	218.45
402.172	54.61
402.381	-15.02
402.59	120.15
402.799	77.14
403.008	103.76
403.217	66.9
403.426	255.31
403.635	-53.93
403.844	-135.85
404.053	-33.45
404.262	40.28
404.471	304.46
404.68	91.48
404.888	68.95
405.097	71
405.306	214.35
405.515	111.96
405.724	3.41
405.933	281.94
406.142	197.97
406.35	44.37
406.559	-35.5
406.768	187.73
406.977	400.72
407.185	116.05
407.394	-17.07
407.603	5.46
407.812	163.15
408.02	177.49
408.229	54.61
408.438	202.07
408.646	30.04
408.855	-123.56
409.064	27.99
409.272	118.1
409.481	195.92
409.69	-2.73
409.898	-23.21
410.107	251.22
410.315	197.97
410.524	40.28
410.733	-29.35
410.941	251.22
411.15	220.5
411.358	58.71
411.567	202.07
411.775	263.51
411.984	191.83
412.192	68.95
412.401	-25.26
412.609	374.1
412.818	277.84
413.026	91.48
413.234	-4.78
413.443	281.94
413.651	103.76
413.86	-76.46
414.068	214.35
414.276	433.49
414.485	132.44
414.693	101.72
414.901	154.96
415.11	193.87
415.318	120.15
415.526	71
415.734	124.24
415.943	240.98
416.151	300.37
416.359	66.9
416.567	89.43
416.776	283.98
416.984	247.12
417.192	144.72
417.4	-19.11
417.608	150.87
417.817	-2.73
418.025	150.87
418.233	21.84
418.441	7.51
418.649	40.28
418.857	42.32
419.065	167.25
419.273	83.28
419.481	171.35
419.689	73.04
419.897	-31.4
420.105	25.94
420.313	236.88
420.521	122.2
420.729	124.24
420.937	150.87
421.145	52.56
421.353	36.18
421.561	177.49
421.769	202.07
421.977	73.04
422.185	167.25
422.393	60.76
422.601	208.21
422.809	204.11
423.017	93.52
423.224	-17.07
423.432	378.19
423.64	128.34
423.848	-10.92
424.056	-107.18
424.263	298.32
424.471	134.48
424.679	208.21
424.887	-4.78
425.094	333.14
425.302	243.03
425.51	-62.12
425.718	64.85
425.925	185.68
426.133	32.08
426.341	200.02
426.548	-23.21
426.756	157.01
426.964	181.59
427.171	19.8
427.379	66.9
427.586	200.02
427.794	269.65
428.001	128.34
428.209	42.32
428.417	300.37
428.624	314.7
428.832	-0.68
429.039	122.2
429.247	228.69
429.454	195.92
429.662	130.39
429.869	130.39
430.076	191.83
430.284	269.65
430.491	3.41
430.699	54.61
430.906	337.23
431.114	204.11
431.321	87.38
431.528	109.91
431.736	193.87
431.943	249.17
432.15	58.71
432.358	111.96
432.565	423.25
432.772	-68.27
432.979	136.53
433.187	-27.31
433.394	339.28
433.601	105.81
433.808	27.99
434.016	144.72
434.223	185.68
434.43	152.91
434.637	71
434.844	179.54
435.052	214.35
435.259	269.65
435.466	202.07
435.673	128.34
435.88	394.58
436.087	318.8
436.294	251.22
436.501	214.35
436.708	283.98
436.915	210.26
437.122	240.98
437.329	60.76
437.537	218.45
437.743	320.85
437.95	259.41
438.157	89.43
438.364	152.91
438.571	159.06
438.778	99.67
438.985	187.73
439.192	339.28
439.399	265.55
439.606	136.53
439.813	193.87
440.02	458.06
440.227	441.68
440.433	144.72
440.64	126.29
440.847	163.15
441.054	271.7
441.261	138.58
441.467	206.16
441.674	234.83
441.881	427.34
442.088	181.59
442.294	263.51
442.501	431.44
442.708	365.9
442.914	169.3
443.121	116.05
443.328	380.24
443.534	501.07
443.741	210.26
443.948	93.52
444.154	458.06
444.361	550.22
444.568	275.79
444.774	195.92
444.981	148.82
445.187	542.03
445.394	249.17
445.6	277.84
445.807	423.25
446.013	380.24
446.22	97.62
446.426	367.95
446.633	468.3
446.839	695.63
447.046	189.78
447.252	382.29
447.459	460.11
447.665	359.76
447.871	320.85
448.078	539.98
448.284	646.48
448.491	603.47
448.697	376.14
448.903	443.73
449.11	644.43
449.316	447.82
449.522	519.5
449.728	437.58
449.935	599.37
450.141	488.78
450.347	552.27
450.553	480.59
450.76	654.67
450.966	634.19
451.172	621.9
451.378	542.03
451.584	646.48
451.791	785.74
451.997	705.87
452.203	613.71
452.409	791.88
452.615	787.79
452.821	597.32
453.027	736.59
453.233	1033.54
453.44	795.98
453.646	611.66
453.852	748.87
454.058	718.15
454.264	965.96
454.47	908.62
454.676	750.92
454.882	994.63
455.088	916.81
455.294	927.05
455.5	1019.21
455.705	1072.45
455.911	980.29
456.117	800.07
456.323	888.14
456.529	935.24
456.735	1054.02
456.941	931.14
457.147	1021.25
457.352	1176.9
457.558	1021.25
457.764	965.96
457.97	929.1
458.176	1189.19
458.381	1060.17
458.587	1019.21
458.793	1074.5
458.999	1062.21
459.204	994.63
459.41	1019.21
459.616	1017.16
459.821	1158.47
460.027	931.14
460.233	1062.21
460.438	1021.25
460.644	1041.73
460.85	1127.75
461.055	1064.26
461.261	1054.02
461.466	920.9
461.672	996.68
461.878	789.83
462.083	998.73
462.289	826.7
462.494	939.34
462.7	945.48
462.905	863.56
463.111	1262.91
463.316	1037.64
463.522	955.72
463.727	808.26
463.932	951.62
464.138	922.95
464.343	906.57
464.549	970.05
464.754	1146.18
464.959	1041.73
465.165	830.79
465.37	750.92
465.575	904.52
465.781	857.42
465.986	742.73
466.191	709.96
466.397	986.44
466.602	1056.07
466.807	795.98
467.012	802.12
467.218	1045.83
467.423	890.18
467.628	685.39
467.833	673.1
468.038	955.72
468.244	714.06
468.449	824.65
468.654	826.7
468.859	843.08
469.064	925
469.269	628.04
469.474	734.54
469.679	974.15
469.885	1008.97
470.09	752.97
470.295	763.21
470.5	894.28
470.705	935.24
470.91	767.31
471.115	771.4
471.32	933.19
471.525	1015.11
471.73	685.39
471.935	816.46
472.139	838.98
472.344	626
472.549	755.02
472.754	836.94
472.959	914.76
473.164	890.18
473.369	777.55
473.574	867.66
473.778	939.34
473.983	998.73
474.188	941.38
474.393	666.96
474.598	1021.25
474.802	927.05
475.007	773.45
475.212	787.79
475.417	744.78
475.621	941.38
475.826	701.77
476.031	816.46
476.235	937.29
476.44	974.15
476.645	828.74
476.849	619.85
477.054	789.83
477.259	800.07
477.463	857.42
477.668	1023.3
477.872	1084.74
478.077	871.75
478.282	677.19
478.486	849.22
478.691	890.18
478.895	791.88
479.1	845.13
479.304	804.17
479.509	824.65
479.713	1076.55
479.918	914.76
480.122	845.13
480.326	836.94
480.531	912.71
480.735	890.18
480.94	775.5
481.144	1082.69
481.348	974.15
481.553	795.98
481.757	824.65
481.961	963.91
482.166	890.18
482.37	679.24
482.574	939.34
482.778	920.9
482.983	1058.12
483.187	824.65
483.391	941.38
483.595	990.53
483.8	1127.75
484.004	863.56
484.208	838.98
484.412	1197.38
484.616	1062.21
484.821	922.95
485.025	859.46
485.229	970.05
485.433	1094.98
485.637	890.18
485.841	816.46
486.045	1246.53
486.249	1125.7
486.453	933.19
486.657	904.52
486.861	800.07
487.065	1015.11
487.269	879.94
487.473	857.42
487.677	1119.56
487.881	1299.78
488.085	959.81
488.289	1041.73
488.493	1004.87
488.697	1260.87
488.901	1121.6
489.105	972.1
489.309	1111.36
489.512	1369.41
489.716	1135.94
489.92	1131.84
490.124	1254.72
490.328	1412.42
490.531	1178.95
490.735	1140.04
490.939	1158.47
491.143	1221.95
491.346	1230.15
491.55	1271.11
491.754	1326.4
491.958	1301.83
492.161	1267.01
492.365	1246.53
492.569	1340.74
492.772	1410.37
492.976	1303.87
493.18	1246.53
493.383	1549.63
493.587	1473.85
493.79	1332.54
493.994	1232.19
494.197	1477.95
494.401	1514.81
494.605	1418.56
494.808	1408.32
495.012	1570.11
495.215	1793.34
495.419	1574.21
495.622	1400.13
495.825	1582.4
496.029	1699.13
496.232	1705.28
496.436	1570.11
496.639	1867.06
496.843	1807.67
497.046	1539.39
497.249	1854.78
497.453	1936.7
497.656	1787.19
497.859	1795.39
498.063	1899.83
498.266	2022.71
498.469	1783.1
498.673	1967.42
498.876	1889.59
499.079	1985.85
499.282	2125.11
499.485	2211.12
499.689	2176.31
499.892	2391.34
500.095	2329.91
500.298	2358.58
500.501	2143.54
500.705	2354.48
500.908	2530.61
501.111	2358.58
501.314	2460.98
501.517	2729.26
501.72	2766.12
501.923	2563.37
502.126	2579.76
502.329	2954.54
502.532	3001.64
502.735	2794.79
502.938	3128.61
503.141	3169.57
503.344	2901.29
503.547	3190.05
503.75	3085.61
503.953	3159.33
504.156	3540.26
504.359	3392.8
504.562	3304.74
504.765	3562.78
504.968	3833.11
505.17	3656.99
505.373	3648.8
505.576	3829.02
505.779	3773.72
505.982	3759.39
506.185	3943.71
506.387	4117.78
506.59	4162.84
506.793	4244.76
506.996	4343.06
507.198	4869.39
507.401	4742.41
507.604	4603.15
507.807	4803.85
508.009	5084.42
508.212	5109
508.415	4787.47
508.617	5055.75
508.82	5301.51
509.022	5457.15
509.225	5465.35
509.428	5412.1
509.63	5795.07
509.833	5573.89
510.035	6126.84
510.238	6012.15
510.44	6257.91
510.643	6495.47
510.845	6319.35
511.048	6356.21
511.25	6591.73
511.453	6786.29
511.655	7040.23
511.858	7181.54
512.06	7431.4
512.262	7329
512.465	7097.58
512.667	7372
512.87	7521.51
513.072	8221.91
513.274	8096.99
513.477	8043.74
513.679	8432.85
513.881	8578.26
514.084	8760.53
514.286	8735.95
514.488	8959.18
514.69	9198.79
514.893	9383.11
515.095	9460.93
515.297	9567.43
515.499	9942.21
515.701	9809.09
515.904	10149.05
516.106	10847.41
516.308	10706.1
516.51	10736.82
516.712	10839.22
516.914	11201.71
517.116	11109.55
517.318	11662.5
517.52	11773.09
517.722	11959.45
517.925	11981.98
518.127	12350.62
518.329	12684.44
518.531	12416.15
518.733	12991.63
518.935	13296.78
519.136	13419.66
519.338	13683.84
519.54	13769.86
519.742	13921.41
519.944	14406.78
520.146	14556.28
520.348	14888.05
520.55	15037.55
520.752	14947.44
520.954	15658.09
521.155	15563.88
521.357	15768.68
521.559	15944.8
521.761	16620.63
521.963	16424.03
522.164	16727.13
522.366	16653.4
522.568	17153.1
522.77	17695.82
522.971	17589.32
523.173	17513.55
523.375	18031.68
523.576	18129.98
523.778	18340.93
523.98	18498.62
524.181	18715.7
524.383	19037.23
524.584	19465.26
524.786	19369.01
524.988	19397.68
525.189	19971.11
525.391	20245.54
525.592	20001.83
525.794	20577.31
525.995	20730.9
526.197	20818.97
526.398	21160.98
526.6	21466.13
526.801	21394.45
527.003	21476.37
527.204	21564.43
527.406	22166.53
527.607	21986.31
527.808	22443.01
528.01	22144
528.211	22660.09
528.412	22868.98
528.614	23018.49
528.815	23182.32
529.016	23573.49
529.218	23419.89
529.419	23981.03
529.62	23331.83
529.822	23884.78
530.023	23796.71
530.224	24126.44
530.425	24237.03
530.626	24185.83
530.828	24222.69
531.029	24589.28
531.23	24538.08
531.431	24669.15
531.632	25029.59
531.833	24835.03
532.035	24843.23
532.236	24982.49
532.437	25248.72
532.638	25050.07
532.839	25502.67
533.04	25813.96
533.241	25281.49
533.442	25719.76
533.643	25725.9
533.844	25582.54
534.045	25730
534.246	25502.67
534.447	26106.82
534.648	25926.6
534.849	26373.06
535.05	25863.11
535.251	25945.03
535.451	26371.01
535.652	26323.91
535.853	26262.47
536.054	26358.72
536.255	26561.47
536.456	26483.65
536.657	26934.2
536.857	26411.97
537.058	26555.33
537.259	26973.11
537.46	26710.97
537.66	26512.32
537.861	27108.28
538.062	26899.39
538.263	26807.23
538.463	26987.45
538.664	27126.71
538.865	27118.52
539.065	26923.96
539.266	26805.18
539.466	27268.02
539.667	27151.29
539.868	27526.07
540.068	27423.67
540.269	27648.94
540.469	27435.95
540.67	27306.93
540.87	27198.39
541.071	27470.77
541.271	27481.01
541.472	27421.62
541.672	27630.51
541.873	27513.78
542.073	27382.71
542.274	27702.19
542.474	27392.95
542.675	27378.61
542.875	27937.71
543.075	27517.87
543.276	27337.65
543.476	28117.93
543.676	27599.79
543.877	27884.46
544.077	27859.88
544.277	28103.59
544.478	27886.51
544.678	27835.31
544.878	27898.8
545.078	28076.97
545.279	27943.85
545.479	27734.96
545.679	27761.58
545.879	28058.54
546.079	28148.65
546.28	27949.99
546.48	27972.52
546.68	28464.03
546.88	28218.28
547.08	28302.25
547.28	28236.71
547.48	27798.45
547.68	28472.23
547.88	28289.96
548.081	28242.85
548.281	28373.92
548.481	28234.66
548.681	28521.38
548.881	28445.6
549.081	28769.18
549.28	28677.02
549.48	28451.75
549.68	28842.91
549.88	28824.48
550.08	28070.82
550.28	28388.26
550.48	28912.54
550.68	28881.82
550.88	28584.87
551.08	28681.12
551.279	28529.57
551.479	28474.27
551.679	28935.07
551.879	28652.45
552.079	28724.13
552.278	29035.42
552.478	29279.13
552.678	28947.36
552.878	29189.02
553.077	28849.05
553.277	28664.74
553.477	29115.29
553.676	29217.69
553.876	28988.31
554.076	28744.61
554.275	29254.55
554.475	28457.89
554.674	29008.79
554.874	28890.01
555.074	28654.5
555.273	28531.62
555.473	29279.13
555.672	29074.33
555.872	28623.78
556.071	28951.45
556.271	29348.76
556.47	28744.61
556.67	28572.58
556.869	28654.5
557.068	28699.55
557.268	28582.82
557.467	28535.71
557.667	28881.82
557.866	28775.33
558.065	28634.02
558.265	28586.91
558.464	28165.03
558.663	28795.81
558.863	28251.05
559.062	28582.82
559.261	28185.51
559.461	28517.28
559.66	28134.31
559.859	27947.95
560.058	28062.63
560.258	28142.5
560.457	27857.84
560.656	28105.64
560.855	27759.53
561.054	28220.33
561.253	27640.75
561.453	27884.46
561.652	27521.97
561.851	27892.65
562.05	27235.25
562.249	27110.33
562.448	27550.64
562.647	27329.46
562.846	27012.03
563.045	27028.41
563.244	26674.11
563.443	27241.4
563.642	26717.12
563.841	26780.6
564.04	26436.55
564.239	26833.85
564.438	26629.06
564.637	26219.46
564.836	26354.63
565.035	26244.04
565.234	26102.73
565.432	25863.11
565.631	25764.81
565.83	26221.51
566.029	25793.48
566.228	25455.57
566.427	25527.25
566.625	25025.5
566.824	25164.76
567.023	25240.53
567.222	24720.35
567.42	25138.13
567.619	24867.8
567.818	24622.05
568.016	24695.77
568.215	24712.16
568.414	24421.34
568.612	24421.34
568.811	23999.46
569.01	24320.99
569.208	23733.23
569.407	24351.71
569.605	23563.25
569.804	23710.7
570.002	23380.98
570.201	23485.42
570.4	23049.21
570.598	22795.26
570.797	23057.4
570.995	22703.1
571.193	22119.43
571.392	23063.54
571.59	22490.11
571.789	22389.76
571.987	22182.91
572.186	22281.22
572.384	21849.1
572.582	21881.86
572.781	21996.55
572.979	21472.27
573.177	21525.52
573.376	21521.42
573.574	21423.12
573.772	21525.52
573.971	20950.04
574.169	20626.46
574.367	20808.73
574.565	21060.63
574.763	20476.96
574.962	20337.69
575.16	20065.32
575.358	20378.65
575.556	20302.88
575.754	20196.39
575.952	19909.67
576.151	20309.02
576.349	20132.9
576.547	19772.46
576.745	19758.12
576.943	20108.32
577.141	19584.04
577.339	19532.84
577.537	19045.43
577.735	19377.2
577.933	19268.66
578.131	18908.21
578.329	18920.5
578.527	19272.75
578.725	19018.8
578.923	18691.13
579.121	18834.49
579.319	18549.82
579.516	18551.87
579.714	18605.11
579.912	18414.65
580.11	18289.73
580.308	18363.45
580.506	18631.74
580.704	17701.96
580.901	18029.63
581.099	18406.46
581.297	17947.72
581.495	18003.01
581.692	17994.82
581.89	18000.96
582.088	17716.29
582.285	17212.49
582.483	17912.9
582.681	17376.33
582.878	17210.45
583.076	17235.02
583.274	17527.88
583.471	17585.22
583.669	17136.72
583.866	16954.45
584.064	17011.79
584.262	16530.52
584.459	17003.6
584.657	16766.04
584.854	17253.45
585.052	16819.28
585.249	16716.89
585.447	16874.58
585.644	16340.06
585.841	17013.84
586.039	16847.96
586.236	16591.96
586.434	16563.29
586.631	16231.52
586.828	15979.62
587.026	16118.88
587.223	16159.84
587.42	15866.98
587.618	16043.1
587.815	15881.31
588.012	15957.09
588.21	15871.08
588.407	16108.64
588.604	15946.85
588.801	15705.19
588.999	15748.2
589.196	15600.74
589.393	15668.33
589.59	15864.93
589.787	15762.53
589.984	15357.03
590.182	15561.83
590.379	15518.82
590.576	15354.99
590.773	15340.65
590.97	15219.82
591.167	15520.87
591.364	15412.33
591.561	15004.78
591.758	15215.73
591.955	15490.15
592.152	15465.58
592.349	14906.48
592.546	15010.93
592.743	14943.35
592.94	15064.18
593.137	14980.21
593.334	15121.52
593.531	14888.05
593.727	14957.68
593.924	14894.19
594.121	14611.57
594.318	14929.01
594.515	14703.73
594.712	15119.47
594.908	14609.53
595.105	14750.84
595.302	14709.88
595.499	14543.99
595.696	14523.51
595.892	14417.02
596.089	14746.74
596.286	14558.33
596.482	14621.81
596.679	14451.83
596.876	14507.13
597.072	14447.74
597.269	14543.99
597.466	14754.93
597.662	14457.98
597.859	14390.39
598.055	14455.93
598.252	14451.83
598.448	14441.59
598.645	14316.67
598.841	14175.36
599.038	14462.07
599.234	14531.7
599.431	14292.09
599.627	14380.15
599.824	14566.52
600.02	14261.37
600.217	14138.49
600.413	14044.29
600.609	14410.87
600.806	14374.01
601.002	14113.92
601.198	13984.9
601.395	14331
601.591	14064.77
601.787	14163.07
601.984	14025.86
602.18	14234.75
602.376	14171.26
602.572	13917.31
602.769	13841.54
602.965	13769.86
603.161	13966.46
603.357	13757.57
603.553	13982.85
603.75	13737.09
603.946	13782.15
604.142	13739.14
604.338	13577.35
604.534	13864.07
604.73	13878.4
604.926	13687.94
605.122	13724.8
605.318	13733
605.514	13784.19
605.71	13538.44
605.906	13624.45
606.102	13606.02
606.298	13620.36
606.494	13544.58
606.69	13743.24
606.886	13589.64
607.082	13347.98
607.278	13489.29
607.474	13315.21
607.67	13364.36
607.866	12969.1
608.062	13218.96
608.257	13067.41
608.453	13061.26
608.649	13411.46
608.845	13032.59
609.041	12967.06
609.236	13331.59
609.432	13145.23
609.628	13100.17
609.824	13034.64
610.019	13018.25
610.215	13151.37
610.411	13048.97
610.606	12835.99
610.802	12835.99
610.998	13034.64
611.193	12954.77
611.389	12799.12
611.584	12958.86
611.78	12731.54
611.976	12717.2
612.171	12909.71
612.367	12932.24
612.562	12846.23
612.758	12756.11
612.953	12412.06
613.149	12809.36
613.344	12524.69
613.539	12563.61
613.735	12518.55
613.93	12721.3
614.126	12274.84
614.321	12547.22
614.517	12541.08
614.712	12692.63
614.907	12553.37
615.103	12371.1
615.298	12047.52
615.493	12532.89
615.688	11902.11
615.884	12465.3
616.079	11957.41
616.274	12010.65
616.47	12016.8
616.665	12135.58
616.86	11998.37
617.055	12027.04
617.25	11840.67
617.445	11791.52
617.641	11951.26
617.836	12227.74
618.031	11734.18
618.226	11943.07
618.421	11736.23
618.616	11857.06
618.811	11586.72
619.006	11652.26
619.201	11568.29
619.396	11695.27
619.591	11355.3
619.786	11633.83
619.981	11338.92
620.176	11433.13
620.371	11328.68
620.566	11377.83
620.761	11429.03
620.956	11244.71
621.151	11429.03
621.346	11371.69
621.541	10851.5
621.735	11435.17
621.93	11125.93
622.125	10933.42
622.32	10783.92
622.515	10937.52
622.709	11017.39
622.904	10929.33
623.099	10681.52
623.294	10892.46
623.488	10779.82
623.683	10648.75
623.878	10564.79
624.072	10824.88
624.267	10599.6
624.462	10605.75
624.656	10327.22
624.851	10714.29
625.046	10730.67
625.24	10325.18
625.435	10431.67
625.629	10400.95
625.824	10523.83
626.018	10538.16
626.213	10048.7
626.407	10323.13
626.602	10269.88
626.796	10198.2
626.991	10333.37
627.185	10147
627.38	10316.98
627.574	10083.52
627.768	10011.84
627.963	9800.9
628.157	9884.86
628.352	10036.41
628.546	9696.45
628.74	9938.11
628.935	9768.13
629.129	9876.67
629.323	9917.63
629.517	9698.5
629.712	9786.56
629.906	9723.07
630.1	9743.55
630.294	9991.36
630.489	9708.74
630.683	9819.33
630.877	9327.81
631.071	9673.92
631.265	9510.08
631.459	9600.19
631.653	9213.13
631.848	9739.46
632.042	9680.07
632.236	9319.62
632.43	9286.86
632.624	9471.17
632.818	9258.18
633.012	9280.71
633.206	9204.94
633.4	9155.79
633.594	9137.35
633.788	9088.2
633.982	9043.15
634.176	9415.88
634.369	8897.74
634.563	9067.72
634.757	8731.86
634.951	9022.67
635.145	8998.09
635.339	8811.73
635.533	8938.7
635.726	8742.1
635.92	8654.03
636.114	8594.64
636.308	8279.25
636.501	8379.61
636.695	8385.75
636.889	7935.2
637.083	8025.31
637.276	8258.78
637.47	7855.33
637.664	7763.17
637.857	7814.37
638.051	7875.81
638.244	7859.42
638.438	7738.59
638.632	7664.86
638.825	7353.57
639.019	7613.67
639.212	7335.14
639.406	7279.85
639.599	7208.17
639.793	7197.93
639.986	6804.72
640.18	7042.28
640.373	6849.77
640.567	6872.3
640.76	6761.71
640.954	6452.47
641.147	6649.07
641.34	6409.46
641.534	6423.8
641.727	6343.92
641.92	6262.01
642.114	6141.18
642.307	5999.87
642.5	5942.52
642.694	5850.36
642.887	5844.22
643.08	5885.18
643.273	5649.66
643.467	5594.37
643.66	5418.24
643.853	5270.79
644.046	5348.61
644.239	5235.97
644.432	5102.86
644.626	4744.46
644.819	4723.98
645.012	4896.01
645.205	5016.84
645.398	4904.2
645.591	4672.78
645.784	4484.37
645.977	4410.64
646.17	4646.16
646.363	4443.41
646.556	4338.96
646.749	4236.56
646.942	4257.04
647.135	4140.31
647.328	4072.73
647.521	4134.17
647.714	3872.03
647.907	4093.21
648.099	3792.16
648.292	4148.5
648.485	3878.17
648.678	3652.89
648.871	3691.8
649.064	3816.73
649.256	3521.82
649.449	3570.97
649.642	3382.56
649.835	3396.9
650.027	3304.74
650.22	3429.66
650.413	3296.55
650.605	3349.79
650.798	3337.51
650.991	3130.66
651.183	3329.31
651.376	3124.52
651.568	3216.68
651.761	2843.95
651.954	3237.16
652.146	3063.08
652.339	3009.83
652.531	3173.67
652.724	2921.77
652.916	2841.9
653.109	2643.24
653.301	2985.26
653.494	3110.18
653.686	2874.67
653.879	2901.29
654.071	2837.8
654.263	2872.62
654.456	2741.55
654.648	2745.64
654.84	2678.06
655.033	2725.16
655.225	2938.15
655.417	2495.79
655.61	2704.68
655.802	2809.13
655.994	2872.62
656.186	2479.41
656.379	2596.14
656.571	2657.58
656.763	2571.57
656.955	2471.22
657.148	2266.42
657.34	2624.81
657.532	2381.1
657.724	2284.85
657.916	2329.91
658.108	2518.32
658.3	2415.92
658.492	2372.91
658.684	2170.16
658.876	2395.44
659.068	2204.98
659.26	2094.39
659.452	2073.91
659.644	2229.56
659.836	2391.34
660.028	2075.96
660.22	1930.55
660.412	2041.14
660.604	2061.62
660.796	1916.22
660.988	1957.18
661.18	1979.7
661.372	1967.42
661.563	1850.68
661.755	1662.27
661.947	1627.45
662.139	1785.15
662.331	1770.81
662.522	1604.92
662.714	1598.78
662.906	1668.41
663.097	1480
663.289	1555.77
663.481	1523.01
663.673	1668.41
663.864	1508.67
664.056	1471.81
664.247	1420.61
664.439	1494.33
664.631	1410.37
664.822	1367.36
665.014	1529.15
665.205	1303.87
665.397	1346.88
665.588	1285.44
665.78	1398.08
665.971	1477.95
666.163	1176.9
666.354	1066.31
666.546	1191.24
666.737	1105.22
666.929	1082.69
667.12	1054.02
667.311	1275.2
667.503	1142.08
667.694	1113.41
667.885	1027.4
668.077	1185.09
668.268	843.08
668.459	910.66
668.651	922.95
668.842	1113.41
669.033	849.22
669.224	828.74
669.416	1049.93
669.607	1004.87
669.798	843.08
669.989	841.03
670.18	900.42
670.371	1076.55
670.563	740.68
670.754	898.38
670.945	963.91
671.136	1002.82
671.327	740.68
671.518	849.22
671.709	834.89
671.9	1017.16
672.091	1082.69
672.282	798.03
672.473	669
672.664	718.15
672.855	873.8
673.046	746.83
673.237	841.03
673.428	779.59
673.619	918.86
673.809	664.91
674	765.26
674.191	904.52
674.382	816.46
674.573	642.38
674.764	673.1
674.954	968.01
675.145	644.43
675.336	650.57
675.527	597.32
675.717	701.77
675.908	658.76
676.099	673.1
676.289	685.39
676.48	451.92
676.671	746.83
676.861	628.04
677.052	599.37
677.243	718.15
677.433	591.18
677.624	634.19
677.814	439.63
678.005	673.1
678.195	927.05
678.386	632.14
678.576	578.89
678.767	646.48
678.957	701.77
679.148	673.1
679.338	613.71
679.529	798.03
679.719	664.91
679.909	744.78
680.1	556.36
680.29	767.31
680.481	566.6
680.671	570.7
680.861	539.98
681.052	810.31
681.242	626
681.432	730.44
681.622	650.57
681.813	562.51
682.003	693.58
682.193	552.27
682.383	650.57
682.573	677.19
682.764	728.39
682.954	709.96
683.144	845.13
683.334	662.86
683.524	810.31
683.714	769.35
683.904	726.35
684.094	808.26
684.284	890.18
684.474	884.04
684.664	847.18
684.854	906.57
685.044	972.1
685.234	881.99
685.424	802.12
685.614	785.74
685.804	1094.98
685.994	1011.01
686.184	955.72
686.374	1121.6
686.564	1068.36
686.753	1037.64
686.943	957.77
687.133	1195.33
687.323	1176.9
687.513	1084.74
687.702	1148.23
687.892	1328.45
688.082	1523.01
688.272	1258.82
688.461	1439.04
688.651	1727.8
688.841	1643.84
689.03	1490.24
689.22	1396.03
689.41	1770.81
689.599	1758.52
689.789	1670.46
689.979	1817.91
690.168	1946.94
690.358	2080.05
690.547	1916.22
690.737	1897.78
690.926	2141.49
691.116	2168.12
691.305	2172.21
691.495	2213.17
691.684	2370.87
691.874	2399.54
692.063	2467.12
692.252	2503.98
692.442	2817.32
692.631	2671.92
692.82	2630.96
693.01	2860.33
693.199	3042.6
693.388	3020.07
693.578	3042.6
693.767	3202.34
693.956	3525.92
694.146	3265.83
694.335	3419.43
694.524	3613.98
694.713	3755.29
694.902	3900.7
695.092	3568.93
695.281	3904.79
695.47	4048.15
695.659	4125.97
695.848	4087.06
696.037	4070.68
696.226	4560.14
696.415	4369.68
696.604	4756.75
696.793	4637.97
696.982	4810
697.171	4869.39
697.36	4715.79
697.549	4988.17
697.738	4756.75
697.927	5100.81
698.116	5125.38
698.305	5428.48
698.494	5260.55
698.683	5408
698.872	5500.16
699.061	5362.95
699.25	5801.21
699.438	5778.69
699.627	5731.58
699.816	5979.39
700.005	6006.01
700.193	5950.71
700.382	6173.94
700.571	6202.61
700.76	6327.54
700.948	6649.07
701.137	6321.4
701.326	6536.43
701.514	6616.3
701.703	6747.37
701.892	6763.76
702.08	6829.29
702.269	7073
702.457	6786.29
702.646	6853.87
702.834	6978.79
703.023	7189.74
703.212	7238.89
703.4	7208.17
703.589	7138.54
703.777	7480.55
703.965	7228.65
704.154	7193.83
704.342	7288.04
704.531	7554.27
704.719	7417.06
704.907	7607.52
705.096	7189.74
705.284	7615.71
705.472	7675.1
705.661	7730.4
705.849	7750.88
706.037	8240.34
706.226	8060.12
706.414	7853.28
706.602	7683.3
706.79	8156.38
706.979	7820.51
707.167	7988.44
707.355	8000.73
707.543	8377.56
707.731	8357.08
707.919	7996.64
708.107	8142.04
708.296	7972.06
708.484	8117.47
708.672	8256.73
708.86	8133.85
709.048	8307.93
709.236	8180.95
709.424	8375.51
709.612	8219.86
709.8	8230.1
709.988	8201.43
710.176	8340.69
710.364	8375.51
710.551	8426.71
710.739	8488.15
710.927	8250.58
711.115	8238.3
711.303	8496.34
711.491	8557.78
711.679	8404.18
711.866	8416.47
712.054	8666.32
712.242	8619.22
712.43	8711.38
712.617	8512.72
712.805	8735.95
712.993	8574.16
713.181	8322.26
713.368	8549.59
713.556	8686.8
713.744	8369.37
713.931	8789.2
714.119	8512.72
714.306	8645.84
714.494	8494.29
714.682	8559.83
714.869	8518.87
715.057	8557.78
715.244	8228.06
715.432	8561.87
715.619	8391.89
715.807	8715.47
715.994	8477.91
716.182	8578.26
716.369	8506.58
716.556	8793.3
716.744	8318.17
716.931	8332.5
717.119	8426.71
717.306	8715.47
717.493	8649.94
717.681	8525.01
717.868	8289.49
718.055	8619.22
718.242	8439
718.43	8307.93
718.617	8520.92
718.804	8717.52
718.991	8488.15
719.179	8307.93
719.366	8393.94
719.553	8455.38
719.74	8455.38
719.927	8262.87
720.114	8395.99
720.301	8307.93
720.488	8223.96
720.676	8260.82
720.863	8439
721.05	8725.71
721.237	8406.23
721.424	8447.19
721.611	8242.39
721.798	8219.86
721.985	8205.53
722.172	8107.23
722.358	8041.69
722.545	8479.96
722.732	8183
722.919	8111.32
723.106	7951.58
723.293	8207.58
723.48	8326.36
723.667	8088.79
723.853	8164.57
724.04	8299.73
724.227	8281.3
724.414	7943.39
724.6	8041.69
724.787	8400.09
724.974	8303.83
725.161	8168.66
725.347	7867.61
725.534	8121.56
725.72	7994.59
725.907	8137.95
726.094	7990.49
726.28	7904.48
726.467	7924.96
726.653	7654.62
726.84	7754.98
727.027	8101.08
727.213	7853.28
727.4	7976.16
727.586	7666.91
727.773	7945.44
727.959	7855.33
728.145	7857.37
728.332	7843.04
728.518	7699.68
728.705	8041.69
728.891	7550.18
729.077	7636.19
729.264	7603.43
729.45	7617.76
729.636	7566.56
729.823	7525.6
730.009	7914.72
730.195	7640.29
730.382	7628
730.568	7484.64
730.754	7797.98
730.94	7449.83
731.126	7513.31
731.313	7570.66
731.499	7478.5
731.685	7611.62
731.871	7271.65
732.057	7490.79
732.243	7720.16
732.429	7531.75
732.615	7290.09
732.801	7271.65
732.987	7322.85
733.173	7365.86
733.359	7228.65
733.545	7208.17
733.731	7347.43
733.917	7429.35
734.103	7234.79
734.289	7398.63
734.475	7159.02
734.661	7372
734.847	7095.53
735.033	7247.08
735.219	7204.07
735.404	7058.67
735.59	6884.59
735.776	7066.86
735.962	7306.47
736.148	7238.89
736.333	7044.33
736.519	6939.88
736.705	7111.91
736.89	7152.87
737.076	6839.53
737.262	6755.57
737.447	6898.92
737.633	6745.33
737.819	6888.68
738.004	6606.06
738.19	6749.42
738.375	6741.23
738.561	6790.38
738.747	6534.39
738.932	6581.49
739.118	6919.4
739.303	6544.63
739.489	6540.53
739.674	6624.5
739.859	6266.1
740.045	6628.59
740.23	6503.67
740.416	6214.9
740.601	6530.29
740.786	6231.29
740.972	6083.83
741.157	6419.7
741.342	5975.29
741.528	6180.09
741.713	6401.27
741.898	6161.66
742.084	6325.49
742.269	6143.22
742.454	6092.02
742.639	6305.01
742.824	6118.65
743.01	6120.7
743.195	6186.23
743.38	6073.59
743.565	6030.59
743.75	5780.73
743.935	5848.32
744.12	6159.61
744.305	5864.7
744.49	5758.21
744.675	5592.32
744.86	5889.28
745.045	5813.5
745.23	5545.22
745.415	5567.74
745.6	5831.93
745.785	5457.15
745.97	5442.82
746.155	5395.71
746.34	5831.93
746.525	5575.94
746.71	5477.63
746.895	5303.56
747.079	5356.8
747.264	5215.49
747.449	5319.94
747.634	5319.94
747.819	5655.81
748.003	5260.55
748.188	5020.94
748.373	5231.88
748.557	5371.14
748.742	4955.4
748.927	5043.46
749.111	4975.88
749.296	4922.63
749.481	5115.14
749.665	4943.11
749.85	4814.09
750.034	5096.71
750.219	4920.59
750.404	4752.65
750.588	4676.88
750.773	4709.65
750.957	4805.9
751.141	4510.99
751.326	4678.93
751.51	4488.46
751.695	4582.67
751.879	4580.62
752.064	4574.48
752.248	4607.25
752.432	4637.97
752.617	4435.22
752.801	4611.34
752.985	4433.17
753.17	4523.28
753.354	4367.63
753.538	4300.05
753.722	4273.43
753.907	4085.01
754.091	4236.56
754.275	4064.54
754.459	4111.64
754.643	4134.17
754.828	4060.44
755.012	3874.07
755.196	3947.8
755.38	4228.37
755.564	3876.12
755.748	3845.4
755.932	4048.15
756.116	4044.06
756.3	3833.11
756.484	3749.15
756.668	4033.82
756.852	3650.85
757.036	3724.57
757.22	3648.8
757.404	3847.45
757.588	3560.73
757.772	3679.52
757.956	3738.91
758.14	3878.17
758.323	3548.45
758.507	3603.74
758.691	3441.95
758.875	3675.42
759.059	3667.23
759.242	3411.23
759.426	3460.38
759.61	3458.34
759.794	3319.07
759.977	3460.38
760.161	3728.67
760.345	3659.04
760.528	3462.43
760.712	3149.09
760.895	3202.34
761.079	3175.72
761.263	3122.47
761.446	3163.43
761.63	3026.22
761.813	3253.54
761.997	3071.27
762.18	3022.12
762.364	3265.83
762.547	2868.52
762.731	2995.5
762.914	2993.45
763.098	2837.8
763.281	2979.11
763.464	2932.01
763.648	2954.54
763.831	2913.58
764.015	2938.15
764.198	3120.42
764.381	2848.04
764.564	2958.63
764.748	3079.46
764.931	3028.26
765.114	2827.56
765.297	2938.15
765.481	2794.79
765.664	2798.89
765.847	2872.62
766.03	2938.15
766.213	2798.89
766.397	2852.14
766.58	2878.76
766.763	2923.82
766.946	2774.31
767.129	2848.04
767.312	2770.22
767.495	2833.71
767.678	2688.3
767.861	2954.54
768.044	2696.49
768.227	2831.66
768.41	2848.04
768.593	2899.24
768.776	2704.68
768.959	2766.12
769.142	3067.17
769.324	2802.99
769.507	2655.53
769.69	2667.82
769.873	2845.99
770.056	3015.98
770.239	2690.35
770.421	2700.59
770.604	2757.93
770.787	2546.99
770.97	2583.85
771.152	2413.87
771.335	2733.36
771.518	2506.03
771.7	2540.85
771.883	2782.51
772.066	2561.33
772.248	2585.9
772.431	2628.91
772.613	2540.85
772.796	2555.18
772.978	2663.72
773.161	2608.43
773.343	2399.54
773.526	2350.39
773.708	2288.95
773.891	2274.61
774.073	2368.82
774.256	2368.82
774.438	2757.93
774.621	2309.43
774.803	2422.06
774.985	2360.63
775.168	2532.65
775.35	2342.19
775.532	2317.62
775.715	2290.99
775.897	2383.15
776.079	2227.51
776.261	2370.87
776.444	2323.76
776.626	2204.98
776.808	2215.22
776.99	1948.98
777.173	2231.6
777.355	2071.86
777.537	2094.39
777.719	2037.05
777.901	2209.08
778.083	2088.25
778.265	1957.18
778.447	2030.9
778.629	2030.9
778.811	2000.18
778.993	1965.37
779.175	1989.94
779.357	2108.73
779.539	1848.63
779.721	1889.59
779.903	2024.76
780.085	2055.48
780.267	2043.19
780.449	1744.19
780.631	1940.79
780.812	2164.02
780.994	1848.63
781.176	1793.34
781.358	1721.66
781.54	1858.87
781.721	1869.11
781.903	1717.56
782.085	1725.75
782.267	1873.21
782.448	1627.45
782.63	1637.69
782.812	1717.56
782.993	1813.82
783.175	1762.62
783.357	1578.3
783.538	1721.66
783.72	1563.97
783.901	1660.22
784.083	1559.87
784.264	1586.49
784.446	1449.28
784.627	1594.68
784.809	1588.54
784.99	1242.43
785.172	1578.3
785.353	1588.54
785.535	1484.09
785.716	1391.94
785.897	1416.51
786.079	1477.95
786.26	1387.84
786.441	1379.65
786.623	1338.69
786.804	1322.31
786.985	1439.04
787.167	1400.13
787.348	1455.42
787.529	1340.74
787.71	1357.12
787.891	1310.02
788.073	1402.18
788.254	1267.01
788.435	1334.59
788.616	1209.67
788.797	1240.39
788.978	1162.56
789.159	1158.47
789.34	1213.76
789.522	1316.16
789.703	1185.09
789.884	1264.96
790.065	1322.31
790.246	1496.38
790.427	1140.04
790.607	1217.86
790.788	1176.9
790.969	1107.27
791.15	1262.91
791.331	1023.3
791.512	1123.65
791.693	1084.74
791.874	1140.04
792.054	1246.53
792.235	1150.28
792.416	1006.92
792.597	1047.88
792.778	1144.13
792.958	1029.45
793.139	1219.91
793.32	1086.79
793.5	892.23
793.681	1078.6
793.862	1191.24
794.042	1088.84
794.223	769.35
794.404	845.13
794.584	875.85
794.765	1033.54
794.945	1004.87
795.126	1060.17
795.306	1137.99
795.487	912.71
795.667	855.37
795.848	945.48
796.028	961.86
796.209	881.99
796.389	1025.35
796.57	875.85
796.75	920.9
796.93	925
797.111	812.36
797.291	826.7
797.471	1066.31
797.652	777.55
797.832	679.24
798.012	929.1
798.192	832.84
798.373	660.81
798.553	898.38
798.733	894.28
798.913	703.82
799.093	832.84
799.274	752.97
799.454	918.86
799.634	968.01
799.814	925
799.994	808.26
800.174	947.53
800.354	785.74
800.534	550.22
800.714	791.88
800.894	578.89
801.074	748.87
801.254	785.74
801.434	832.84
801.614	632.14
801.794	677.19
801.974	5539.07
802.154	660.81
802.334	884.04
802.514	673.1
802.693	738.63
802.873	611.66
803.053	898.38
803.233	783.69
803.413	771.4
803.592	636.24
803.772	599.37
803.952	691.53
804.131	460.11
804.311	685.39
804.491	820.55
804.67	515.41
804.85	527.69
805.03	716.11
805.209	785.74
805.389	611.66
805.568	652.62
805.748	556.36
805.928	621.9
806.107	832.84
806.287	669
806.466	740.68
806.646	611.66
806.825	716.11
807.004	535.89
807.184	718.15
807.363	666.96
807.543	630.09
807.722	537.93
807.901	720.2
808.081	515.41
808.26	372.05
808.439	652.62
808.619	587.08
808.798	492.88
808.977	640.33
809.156	730.44
809.336	634.19
809.515	570.7
809.694	539.98
809.873	443.73
810.052	478.54
810.231	630.09
810.411	707.91
810.59	769.35
810.769	484.69
810.948	656.72
811.127	400.72
811.306	478.54
811.485	501.07
811.664	701.77
811.843	578.89
812.022	517.45
812.201	410.96
812.38	443.73
812.559	492.88
812.737	615.76
812.916	392.53
813.095	466.25
813.274	617.8
813.453	611.66
813.632	562.51
813.811	562.51
813.989	300.37
814.168	505.17
814.347	318.8
814.526	451.92
814.704	763.21
814.883	701.77
815.062	298.32
815.24	505.17
815.419	359.76
815.598	511.31
815.776	253.27
815.955	392.53
816.133	224.59
816.312	480.59
816.49	419.15
816.669	439.63
816.847	544.08
817.026	550.22
817.204	333.14
817.383	363.86
817.561	347.47
817.74	456.01
817.918	384.34
818.097	304.46
818.275	357.71
818.453	415.05
818.632	509.26
818.81	419.15
818.988	392.53
819.167	320.85
819.345	398.67
819.523	240.98
819.701	367.95
819.879	421.2
820.058	474.45
820.236	308.56
820.414	542.03
820.592	374.1
820.77	374.1
820.948	124.24
821.127	351.57
821.305	537.93
821.483	167.25
821.661	398.67
821.839	437.58
822.017	271.7
822.195	363.86
822.373	306.51
822.551	376.14
822.729	451.92
822.907	339.28
823.085	423.25
823.262	499.02
823.44	310.61
823.618	329.04
823.796	345.42
823.974	331.09
824.152	275.79
824.329	337.23
824.507	331.09
824.685	521.55
824.863	320.85
825.04	273.75
825.218	331.09
825.396	458.06
825.574	326.99
825.751	333.14
825.929	261.46
826.107	245.07
826.284	372.05
826.462	316.75
826.639	275.79
826.817	269.65
826.994	355.66
827.172	177.49
827.349	333.14
827.527	372.05
827.704	341.33
827.882	433.49
828.059	298.32
828.237	220.5
828.414	486.73
828.591	21.84
828.769	226.64
828.946	255.31
829.124	398.67
829.301	410.96
829.478	148.82
829.655	367.95
829.833	304.46
830.01	48.47
830.187	355.66
830.364	335.18
830.542	357.71
830.719	345.42
830.896	286.03
831.073	312.66
831.25	316.75
831.427	238.93
831.604	243.03
831.782	236.88
831.959	341.33
832.136	300.37
832.313	261.46
832.49	220.5
832.667	353.62
832.844	191.83
833.021	429.39
833.198	357.71
833.374	302.42
833.551	238.93
833.728	187.73
833.905	367.95
834.082	60.76
834.259	406.86
834.436	306.51
834.612	171.35
834.789	374.1
834.966	222.55
835.143	281.94
835.319	146.77
835.496	351.57
835.673	331.09
835.85	341.33
836.026	353.62
836.203	417.1
836.38	152.91
836.556	206.16
836.733	195.92
836.909	501.07
837.086	181.59
837.262	11.61
837.439	253.27
837.616	79.19
837.792	269.65
837.968	185.68
838.145	89.43
838.321	197.97
838.498	234.83
838.674	294.22
838.851	355.66
839.027	218.45
839.203	171.35
839.38	261.46
839.556	200.02
839.732	357.71
839.909	150.87
840.085	175.44
840.261	200.02
840.437	302.42
840.614	236.88
840.79	130.39
840.966	304.46
841.142	236.88
841.318	204.11
841.494	214.35
841.671	447.82
841.847	195.92
842.023	13.65
842.199	122.2
842.375	456.01
842.551	-10.92
842.727	58.71
842.903	255.31
843.079	163.15
843.255	447.82
843.431	163.15
843.607	251.22
843.783	-27.31
843.959	275.79
844.134	109.91
844.31	304.46
844.486	142.68
844.662	95.57
844.838	259.41
845.013	216.4
845.189	378.19
845.365	214.35
845.541	101.72
845.716	193.87
845.892	292.18
846.068	195.92
846.244	99.67
846.419	15.7
846.595	89.43
846.77	105.81
846.946	195.92
847.122	95.57
847.297	210.26
847.473	445.77
847.648	40.28
847.824	124.24
847.999	81.24
848.175	193.87
848.35	218.45
848.526	302.42
848.701	462.16
848.876	261.46
849.052	331.09
849.227	132.44
849.403	216.4
849.578	234.83
849.753	279.89
849.929	146.77
850.104	-31.4
850.279	253.27
850.454	193.87
850.63	191.83
850.805	240.98
850.98	175.44
851.155	185.68
851.33	197.97
851.505	66.9
851.681	488.78
851.856	50.52
852.031	228.69
852.206	236.88
852.381	79.19
852.556	122.2
852.731	38.23
852.906	419.15
853.081	177.49
853.256	210.26
853.431	97.62
853.606	148.82
853.781	79.19
853.956	-58.03
854.131	77.14
854.305	183.63
854.48	247.12
854.655	83.28
854.83	40.28
855.005	163.15
855.18	249.17
855.354	95.57
855.529	165.2
855.704	157.01
855.879	275.79
856.053	-0.68
856.228	124.24
856.403	56.66
856.577	288.08
856.752	-15.02
856.926	126.29
857.101	320.85
857.276	48.47
857.45	230.74
857.625	265.55
857.799	234.83
857.974	200.02
858.148	-33.45
858.323	218.45
858.497	177.49
858.672	136.53
858.846	97.62
859.02	286.03
859.195	15.7
859.369	218.45
859.543	161.11
859.718	193.87
859.892	269.65
860.066	234.83
860.241	62.8
860.415	58.71
860.589	179.54
860.763	185.68
860.938	52.56
861.112	46.42
861.286	152.91
861.46	240.98
861.634	195.92
861.808	85.33
861.982	103.76
862.157	103.76
862.331	116.05
862.505	-10.92
862.679	-19.11
862.853	146.77
863.027	89.43
863.201	146.77
863.375	103.76
863.549	279.89
863.722	208.21
863.896	230.74
864.07	40.28
864.244	275.79
864.418	173.39
864.592	146.77
864.766	292.18
864.939	335.18
865.113	34.13
865.287	277.84
865.461	9.56
865.634	236.88
865.808	116.05
865.982	36.18
866.156	101.72
866.329	-47.79
866.503	154.96
866.676	210.26
866.85	253.27
867.024	81.24
867.197	163.15
867.371	105.81
867.544	185.68
867.718	-33.45
867.891	279.89
868.065	27.99
868.238	183.63
868.412	290.13
868.585	138.58
868.759	87.38
868.932	150.87
869.105	-39.59
869.279	267.6
869.452	19.8
869.625	228.69
869.799	79.19
869.972	11.61
870.145	11.61
870.319	224.59
870.492	71
870.665	122.2
870.838	-33.45
871.011	-178.86
871.185	163.15
871.358	36.18
871.531	308.56
871.704	105.81
871.877	161.11
872.05	-23.21
872.223	-2.73
872.396	298.32
872.569	240.98
872.742	-0.68
872.915	144.72
873.088	13.65
873.261	79.19
873.434	218.45
873.607	27.99
873.78	370
873.953	34.13
874.126	222.55
874.299	202.07
874.471	150.87
874.644	146.77
874.817	189.78
874.99	310.61
875.163	111.96
875.335	179.54
875.508	19.8
875.681	249.17
875.853	87.38
876.026	173.39
876.199	154.96
876.371	5.46
876.544	136.53
876.717	111.96
876.889	-12.97
877.062	154.96
877.234	36.18
877.407	1.37
877.579	167.25
877.752	99.67
877.924	275.79
878.097	232.79
878.269	157.01
878.442	122.2
878.614	200.02
878.786	152.91
878.959	30.04
879.131	173.39
879.303	-98.99
879.476	136.53
879.648	247.12
879.82	46.42
879.993	71
880.165	60.76
880.337	13.65
880.509	126.29
880.681	-49.83
880.854	30.04
881.026	189.78
881.198	181.59
881.37	197.97
881.542	79.19
881.714	73.04
881.886	40.28
882.058	218.45
882.23	208.21
882.402	79.19
882.574	157.01
882.746	337.23
882.918	316.75
883.09	107.86
883.262	136.53
883.434	267.6
883.606	-78.51
883.778	46.42
883.95	208.21
884.122	75.09
884.293	347.47
884.465	75.09
884.637	169.3
884.809	19.8
884.98	218.45
885.152	130.39
885.324	130.39
885.496	64.85
885.667	91.48
885.839	44.37
886.011	132.44
886.182	212.31
886.354	249.17
886.525	157.01
886.697	50.52
886.869	7.51
887.04	118.1
887.212	322.9
887.383	148.82
887.555	134.48
887.726	62.8
887.897	107.86
888.069	97.62
888.24	324.94
888.412	116.05
888.583	58.71
888.754	44.37
888.926	-21.16
889.097	32.08
889.268	-49.83
889.44	-41.64
889.611	-25.26
889.782	48.47
889.953	-41.64
890.125	120.15
890.296	-4.78
890.467	126.29
890.638	-0.68
890.809	103.76
890.98	64.85
891.151	191.83
891.323	277.84
891.494	-58.03
891.665	124.24
891.836	140.63
892.007	99.67
892.178	130.39
892.349	89.43
892.52	56.66
892.691	140.63
892.862	7.51
893.032	-25.26
893.203	13.65
893.374	105.81
893.545	159.06
893.716	120.15
893.887	245.07
894.057	-53.93
894.228	68.95
894.399	5.46
894.57	404.82
894.74	62.8
894.911	138.58
895.082	116.05
895.253	48.47
895.423	152.91
895.594	183.63
895.764	66.9
895.935	13.65
896.106	122.2
896.276	17.75
896.447	159.06
896.617	-2.73
896.788	-23.21
896.958	-2.73
897.129	68.95
897.299	-25.26
897.47	269.65
897.64	83.28
897.81	73.04
897.981	189.78
898.151	56.66
898.322	95.57
898.492	253.27
898.662	21.84
898.832	-33.45
899.003	105.81
899.173	240.98
899.343	66.9
899.513	7.51
