Data from USB4F104151__1__11-39-15-136.txt Node

Date: Wed Feb 19 11:39:15 EST 2025
User: louis
Spectrometer: USB4F10415
Trigger mode: 4
Integration Time (sec): 2.250200E-1
Scans to average: 1
Electric dark correction enabled: true
Nonlinearity correction enabled: false
Boxcar width: 0
XAxis mode: Wavelengths
Number of Pixels in Spectrum: 3648
>>>>>Begin Spectral Data<<<<<
178.204	-779.59
178.424	-779.59
178.644	-779.59
178.864	-879.94
179.084	-851.27
179.304	119.46
179.524	53.93
179.744	27.31
179.964	-181.59
180.184	193.19
180.404	152.23
180.624	-212.31
180.844	-116.05
181.064	-64.85
181.283	205.48
181.503	-161.11
181.723	-15.7
181.943	72.36
182.163	397.99
182.383	-214.35
182.602	-206.16
182.822	385.7
183.042	228.01
183.262	-220.5
183.482	-157.01
183.701	146.09
183.921	217.77
184.141	-249.17
184.361	-109.91
184.58	307.88
184.8	223.91
185.02	-267.6
185.239	-66.9
185.459	273.06
185.679	418.47
185.898	-222.55
186.118	-218.45
186.338	242.34
186.557	262.82
186.777	-300.37
186.997	-214.35
187.216	160.42
187.436	461.48
187.655	-157.01
187.875	-23.89
188.095	146.09
188.314	291.49
188.534	-87.38
188.753	-263.51
188.973	414.37
189.192	479.91
189.412	-259.41
189.631	-263.51
189.851	352.93
190.07	430.76
190.29	-185.68
190.509	-220.5
190.729	158.38
190.948	346.79
191.168	-66.9
191.387	-181.59
191.607	121.51
191.826	285.35
192.045	-118.1
192.265	-187.73
192.484	268.97
192.704	195.24
192.923	-253.27
193.142	-62.8
193.362	332.45
193.581	330.41
193.8	-101.72
194.02	-150.87
194.239	121.51
194.458	246.44
194.678	-97.62
194.897	-292.18
195.116	248.49
195.335	258.73
195.555	-175.44
195.774	-245.07
195.993	365.22
196.212	117.42
196.432	-128.34
196.651	-202.07
196.87	117.42
197.089	520.87
197.308	-216.4
197.528	-132.44
197.747	10.92
197.966	187.05
198.185	-148.82
198.404	-197.97
198.623	311.97
198.842	359.08
199.062	-56.66
199.281	-107.86
199.5	176.81
199.719	273.06
199.938	-181.59
200.157	-165.2
200.376	289.45
200.595	359.08
200.814	-150.87
201.033	-206.16
201.252	397.99
201.471	256.68
201.69	-197.97
201.909	-140.63
202.128	264.87
202.347	307.88
202.566	-48.47
202.785	-331.09
203.004	72.36
203.223	551.59
203.442	-257.36
203.661	-372.05
203.879	260.77
204.098	340.65
204.317	-224.59
204.536	-34.13
204.755	320.17
204.974	228.01
205.193	-372.05
205.411	-130.39
205.63	330.41
205.849	277.16
206.068	-208.21
206.287	-253.27
206.505	414.37
206.724	162.47
206.943	-236.88
207.162	-175.44
207.381	223.91
207.599	207.53
207.818	-148.82
208.037	-263.51
208.255	139.94
208.474	240.3
208.693	-167.25
208.911	-189.78
209.13	297.64
209.349	311.97
209.567	-21.85
209.786	-142.68
210.005	242.34
210.223	234.15
210.442	-415.06
210.661	-222.55
210.879	299.69
211.098	271.01
211.316	-95.57
211.535	-197.97
211.753	248.49
211.972	240.3
212.191	-173.39
212.409	-114
212.628	250.53
212.846	133.8
213.065	-216.4
213.283	-124.24
213.502	264.87
213.72	154.28
213.938	-257.36
214.157	-134.48
214.375	340.65
214.594	121.51
214.812	-87.38
215.031	-214.35
215.249	215.72
215.467	254.63
215.686	-93.52
215.904	-140.63
216.122	205.48
216.341	377.51
216.559	-42.32
216.778	-3.41
216.996	365.22
217.214	115.37
217.432	-136.53
217.651	-214.35
217.869	205.48
218.087	219.82
218.306	-118.1
218.524	-253.27
218.742	176.81
218.96	258.73
219.179	-142.68
219.397	-185.68
219.615	443.04
219.833	268.97
220.051	-263.51
220.27	-81.24
220.488	283.3
220.706	252.58
220.924	-226.64
221.142	-216.4
221.36	250.53
221.578	268.97
221.796	-169.3
222.015	-5.46
222.233	236.2
222.451	387.75
222.669	-85.33
222.887	-109.91
223.105	55.98
223.323	154.28
223.541	-152.91
223.759	-169.3
223.977	236.2
224.195	432.8
224.413	-163.15
224.631	-179.54
224.849	246.44
225.067	561.83
225.285	-95.57
225.503	-222.55
225.721	-71
225.939	219.82
226.157	-163.15
226.375	53.93
226.592	64.17
226.81	164.52
227.028	-40.28
227.246	-128.34
227.464	211.62
227.682	283.3
227.9	-169.3
228.117	-71
228.335	244.39
228.553	105.13
228.771	-179.54
228.989	-183.63
229.206	303.78
229.424	51.88
229.642	-163.15
229.86	-105.81
230.077	332.45
230.295	225.96
230.513	-27.99
230.731	-126.29
230.948	492.2
231.166	422.56
231.384	-50.52
231.601	-140.63
231.819	449.19
232.037	180.9
232.254	-91.48
232.472	-87.38
232.689	176.81
232.907	426.66
233.125	-300.37
233.342	-296.27
233.56	182.95
233.777	141.99
233.995	-210.26
234.213	-97.62
234.43	266.92
234.648	193.19
234.865	-177.49
235.083	-105.81
235.3	193.19
235.518	332.45
235.735	-60.76
235.953	-81.24
236.17	209.58
236.388	141.99
236.605	-25.94
236.822	-81.24
237.04	324.26
237.257	254.63
237.475	-226.64
237.692	-132.44
237.909	197.29
238.127	215.72
238.344	-52.56
238.562	-103.76
238.779	80.55
238.996	4.78
239.214	-103.76
239.431	-157.01
239.648	158.38
239.865	264.87
240.083	-138.58
240.3	-152.91
240.517	111.27
240.735	137.9
240.952	27.31
241.169	-202.07
241.386	180.9
241.603	139.94
241.821	-187.73
242.038	-152.91
242.255	340.65
242.472	39.59
242.689	-58.71
242.907	-183.63
243.124	160.42
243.341	223.91
243.558	-66.9
243.775	-316.75
243.992	-7.51
244.209	266.92
244.426	-17.75
244.643	-101.72
244.86	94.89
245.078	346.79
245.295	-136.53
245.512	-126.29
245.729	80.55
245.946	187.05
246.163	-175.44
246.38	-130.39
246.597	135.85
246.814	187.05
247.031	-79.19
247.248	-212.31
247.464	209.58
247.681	109.22
247.898	-142.68
248.115	-50.52
248.332	62.12
248.549	406.18
248.766	-79.19
248.983	-105.81
249.2	326.31
249.417	244.39
249.633	-124.24
249.85	-73.04
250.067	185
250.284	144.04
250.501	-226.64
250.717	-120.15
250.934	-9.56
251.151	156.33
251.368	-56.66
251.585	-148.82
251.801	182.95
252.018	45.74
252.235	25.26
252.451	-165.2
252.668	148.14
252.885	305.83
253.102	-75.09
253.318	-97.62
253.535	139.94
253.752	94.89
253.968	-197.97
254.185	-183.63
254.401	248.49
254.618	277.16
254.835	-138.58
255.051	-56.66
255.268	285.35
255.484	271.01
255.701	-107.86
255.917	-101.72
256.134	86.7
256.351	123.56
256.567	-161.11
256.784	-1.37
257	-52.56
257.217	305.83
257.433	103.08
257.65	-99.67
257.866	344.74
258.082	0.68
258.299	-167.25
258.515	-58.71
258.732	191.14
258.948	49.83
259.165	-15.7
259.381	-197.97
259.597	318.12
259.814	115.37
260.03	-167.25
260.246	-73.04
260.463	266.92
260.679	324.26
260.895	-64.85
261.112	-46.42
261.328	172.71
261.544	78.51
261.761	-91.48
261.977	-161.11
262.193	111.27
262.409	176.81
262.626	27.31
262.842	-19.8
263.058	45.74
263.274	268.97
263.49	-66.9
263.707	-107.86
263.923	283.3
264.139	-30.04
264.355	-75.09
264.571	-66.9
264.787	334.5
265.004	279.21
265.22	-68.95
265.436	-75.09
265.652	98.99
265.868	225.96
266.084	-165.2
266.3	-152.91
266.516	51.88
266.732	209.58
266.948	-99.67
267.164	-279.89
267.38	363.17
267.596	197.29
267.812	25.26
268.028	-68.95
268.244	70.31
268.46	127.66
268.676	-95.57
268.892	-60.76
269.108	101.03
269.324	-52.56
269.54	-152.91
269.756	-62.8
269.972	98.99
270.188	154.28
270.403	-118.1
270.619	-46.42
270.835	197.29
271.051	191.14
271.267	-103.76
271.483	-214.35
271.698	260.77
271.914	170.66
272.13	-27.99
272.346	-60.76
272.562	156.33
272.777	404.13
272.993	-36.18
273.209	-97.62
273.425	221.86
273.64	29.35
273.856	-122.2
274.072	-183.63
274.287	127.66
274.503	238.25
274.719	-23.89
274.934	-152.91
275.15	23.21
275.366	119.46
275.581	-111.96
275.797	-23.89
276.012	213.67
276.228	70.31
276.444	-56.66
276.659	105.13
276.875	33.45
277.09	137.9
277.306	-46.42
277.521	8.87
277.737	125.61
277.952	170.66
278.168	-118.1
278.383	-79.19
278.599	109.22
278.814	174.76
279.03	-138.58
279.245	-15.7
279.461	98.99
279.676	277.16
279.892	-116.05
280.107	-132.44
280.322	105.13
280.538	252.58
280.753	-77.14
280.969	-48.47
281.184	129.7
281.399	352.93
281.615	21.16
281.83	39.59
282.045	-77.14
282.26	-1.37
282.476	-114
282.691	58.03
282.906	144.04
283.122	197.29
283.337	-52.56
283.552	-9.56
283.767	66.22
283.983	193.19
284.198	-23.89
284.413	-38.23
284.628	15.02
284.843	135.85
285.058	-103.76
285.274	-105.81
285.489	90.79
285.704	176.81
285.919	-122.2
286.134	-62.8
286.349	168.62
286.564	2.73
286.779	8.87
286.995	-38.23
287.21	-79.19
287.425	201.38
287.64	-66.9
287.855	115.37
288.07	-30.04
288.285	258.73
288.5	-3.41
288.715	-25.94
288.93	109.22
289.145	-25.94
289.36	-85.33
289.575	-15.7
289.79	242.34
290.004	70.31
290.219	51.88
290.434	-62.8
290.649	60.07
290.864	62.12
291.079	-38.23
291.294	-48.47
291.509	271.01
291.724	68.27
291.938	-81.24
292.153	-5.46
292.368	168.62
292.583	189.1
292.798	25.26
293.012	6.83
293.227	232.1
293.442	58.03
293.657	10.92
293.871	-46.42
294.086	295.59
294.301	266.92
294.516	2.73
294.73	131.75
294.945	55.98
295.16	125.61
295.374	-21.85
295.589	-13.65
295.804	125.61
296.018	176.81
296.233	2.73
296.447	74.41
296.662	84.65
296.877	342.69
297.091	-23.89
297.306	19.11
297.52	162.47
297.735	168.62
297.949	76.46
298.164	-183.63
298.378	211.62
298.593	76.46
298.807	-15.7
299.022	-46.42
299.236	354.98
299.451	6.83
299.665	-5.46
299.88	43.69
300.094	189.1
300.309	86.7
300.523	-11.61
300.737	-34.13
300.952	195.24
301.166	180.9
301.381	-130.39
301.595	-77.14
301.809	150.18
302.024	12.97
302.238	-42.32
302.452	80.55
302.667	180.9
302.881	307.88
303.095	60.07
303.309	25.26
303.524	58.03
303.738	141.99
303.952	-13.65
304.166	23.21
304.381	-173.39
304.595	244.39
304.809	49.83
305.023	-46.42
305.237	107.18
305.452	68.27
305.666	-11.61
305.88	33.45
306.094	193.19
306.308	123.56
306.522	10.92
306.736	74.41
306.95	228.01
307.164	103.08
307.379	107.18
307.593	88.75
307.807	281.25
308.021	152.23
308.235	127.66
308.449	-163.15
308.663	201.38
308.877	426.66
309.091	6.83
309.305	-1.37
309.519	-40.28
309.733	248.49
309.947	-75.09
310.161	-50.52
310.374	203.43
310.588	299.69
310.802	-81.24
311.016	-46.42
311.23	217.77
311.444	-25.94
311.658	-19.8
311.872	187.05
312.085	225.96
312.299	273.06
312.513	185
312.727	-71
312.941	47.79
313.154	86.7
313.368	6.83
313.582	-9.56
313.796	252.58
314.009	60.07
314.223	135.85
314.437	162.47
314.651	199.34
314.864	-44.37
315.078	-7.51
315.292	-71
315.505	70.31
315.719	201.38
315.933	60.07
316.146	-1.37
316.36	35.5
316.573	207.53
316.787	144.04
317.001	29.35
317.214	-15.7
317.428	154.28
317.641	-109.91
317.855	-56.66
318.068	211.62
318.282	203.43
318.495	88.75
318.709	-42.32
318.922	168.62
319.136	357.03
319.349	-15.7
319.563	-19.8
319.776	193.19
319.99	-87.38
320.203	90.79
320.417	-11.61
320.63	98.99
320.843	305.83
321.057	31.4
321.27	-9.56
321.483	291.49
321.697	252.58
321.91	-144.72
322.124	45.74
322.337	170.66
322.55	23.21
322.763	17.07
322.977	-111.96
323.19	47.79
323.403	119.46
323.617	29.35
323.83	213.67
324.043	170.66
324.256	105.13
324.469	-216.4
324.683	176.81
324.896	90.79
325.109	105.13
325.322	-107.86
325.535	25.26
325.748	203.43
325.962	105.13
326.175	15.02
326.388	-25.94
326.601	164.52
326.814	39.59
327.027	15.02
327.24	94.89
327.453	-23.89
327.666	273.06
327.879	205.48
328.092	62.12
328.305	350.89
328.518	72.36
328.731	-38.23
328.944	-27.99
329.157	185
329.37	121.51
329.583	111.27
329.796	62.12
330.009	-40.28
330.222	281.25
330.435	66.22
330.648	23.21
330.861	199.34
331.073	123.56
331.286	72.36
331.499	33.45
331.712	82.6
331.925	125.61
332.138	15.02
332.35	-27.99
332.563	117.42
332.776	242.34
332.989	-48.47
333.202	-54.61
333.414	119.46
333.627	193.19
333.84	-54.61
334.053	101.03
334.265	12.97
334.478	72.36
334.691	-101.72
334.903	86.7
335.116	53.93
335.329	133.8
335.541	43.69
335.754	303.78
335.966	72.36
336.179	148.14
336.392	-7.51
336.604	64.17
336.817	135.85
337.029	131.75
337.242	-93.52
337.454	68.27
337.667	199.34
337.88	209.58
338.092	170.66
338.305	6.83
338.517	148.14
338.729	178.86
338.942	80.55
339.154	-118.1
339.367	-25.94
339.579	178.86
339.792	-136.53
340.004	53.93
340.217	92.84
340.429	160.42
340.641	-81.24
340.854	-13.65
341.066	135.85
341.278	170.66
341.491	96.94
341.703	-1.37
341.915	-42.32
342.128	228.01
342.34	-32.08
342.552	-27.99
342.764	98.99
342.977	101.03
343.189	23.21
343.401	62.12
343.613	25.26
343.826	125.61
344.038	-73.04
344.25	66.22
344.462	29.35
344.674	195.24
344.886	-42.32
345.099	-44.37
345.311	230.06
345.523	101.03
345.735	-150.87
345.947	70.31
346.159	158.38
346.371	221.86
346.583	41.64
346.795	119.46
347.007	137.9
347.219	152.23
347.431	-1.37
347.643	156.33
347.855	160.42
348.067	246.44
348.279	29.35
348.491	-73.04
348.703	240.3
348.915	125.61
349.127	-83.28
349.339	25.26
349.551	55.98
349.763	301.73
349.975	15.02
350.187	49.83
350.399	324.26
350.61	141.99
350.822	-1.37
351.034	-3.41
351.246	201.38
351.458	189.1
351.669	53.93
351.881	-11.61
352.093	311.97
352.305	232.1
352.517	-5.46
352.728	58.03
352.94	131.75
353.152	197.29
353.363	-101.72
353.575	-27.99
353.787	373.41
353.999	180.9
354.21	105.13
354.422	-42.32
354.633	111.27
354.845	76.46
355.057	94.89
355.268	27.31
355.48	260.77
355.692	-19.8
355.903	17.07
356.115	-157.01
356.326	-85.33
356.538	334.5
356.749	-32.08
356.961	101.03
357.172	103.08
357.384	8.87
357.595	172.71
357.807	-93.52
358.018	133.8
358.23	176.81
358.441	-25.94
358.653	-68.95
358.864	201.38
359.075	6.83
359.287	-85.33
359.498	55.98
359.709	223.91
359.921	162.47
360.132	82.6
360.344	-83.28
360.555	41.64
360.766	207.53
360.977	-93.52
361.189	88.75
361.4	123.56
361.611	234.15
361.823	115.37
362.034	-46.42
362.245	-66.9
362.456	170.66
362.667	86.7
362.879	-77.14
363.09	260.77
363.301	168.62
363.512	-42.32
363.723	-91.48
363.935	41.64
364.146	330.41
364.357	-11.61
364.568	-85.33
364.779	-42.32
364.99	254.63
365.201	-19.8
365.412	176.81
365.623	-66.9
365.834	215.72
366.045	53.93
366.256	119.46
366.467	244.39
366.678	135.85
366.889	39.59
367.1	-58.71
367.311	299.69
367.522	131.75
367.733	12.97
367.944	0.68
368.155	150.18
368.366	193.19
368.577	90.79
368.788	123.56
368.999	119.46
369.209	103.08
369.42	123.56
369.631	318.12
369.842	250.53
370.053	115.37
370.264	-1.37
370.474	-111.96
370.685	168.62
370.896	88.75
371.107	15.02
371.317	-32.08
371.528	189.1
371.739	268.97
371.95	51.88
372.16	53.93
372.371	-9.56
372.582	49.83
372.792	-68.95
373.003	39.59
373.214	144.04
373.424	158.38
373.635	8.87
373.846	98.99
374.056	258.73
374.267	174.76
374.477	90.79
374.688	-58.71
374.898	160.42
375.109	66.22
375.319	4.78
375.53	60.07
375.74	252.58
375.951	103.08
376.161	-11.61
376.372	88.75
376.582	62.12
376.793	250.53
377.003	-111.96
377.214	-36.18
377.424	240.3
377.635	123.56
377.845	19.11
378.055	70.31
378.266	-89.43
378.476	154.28
378.686	0.68
378.897	12.97
379.107	242.34
379.317	176.81
379.528	-124.24
379.738	70.31
379.948	-89.43
380.158	195.24
380.369	68.27
380.579	35.5
380.789	105.13
380.999	225.96
381.21	176.81
381.42	211.62
381.63	86.7
381.84	240.3
382.05	86.7
382.261	64.17
382.471	305.83
382.681	74.41
382.891	31.4
383.101	117.42
383.311	60.07
383.521	29.35
383.731	-48.47
383.941	127.66
384.151	182.95
384.361	23.21
384.571	-44.37
384.781	25.26
384.991	258.73
385.201	336.55
385.411	150.18
385.621	-40.28
385.831	262.82
386.041	154.28
386.251	-19.8
386.461	60.07
386.671	221.86
386.881	154.28
387.091	60.07
387.301	121.51
387.511	105.13
387.72	115.37
387.93	60.07
388.14	-62.8
388.35	168.62
388.56	357.03
388.769	49.83
388.979	-52.56
389.189	43.69
389.399	115.37
389.609	21.16
389.818	60.07
390.028	115.37
390.238	103.08
390.447	8.87
390.657	31.4
390.867	125.61
391.076	-40.28
391.286	-46.42
391.496	-60.76
391.705	131.75
391.915	291.49
392.125	31.4
392.334	-44.37
392.544	289.45
392.753	121.51
392.963	-1.37
393.172	80.55
393.382	19.11
393.591	334.5
393.801	-32.08
394.01	-60.76
394.22	170.66
394.429	47.79
394.639	51.88
394.848	68.27
395.058	232.1
395.267	103.08
395.477	160.42
395.686	33.45
395.895	443.04
396.105	350.89
396.314	0.68
396.524	0.68
396.733	98.99
396.942	297.64
397.152	21.16
397.361	234.15
397.57	154.28
397.78	117.42
397.989	152.23
398.198	268.97
398.407	82.6
398.617	41.64
398.826	82.6
399.035	-52.56
399.244	154.28
399.453	109.22
399.663	-68.95
399.872	-161.11
400.081	17.07
400.29	154.28
400.499	-46.42
400.708	31.4
400.917	117.42
401.127	101.03
401.336	-11.61
401.545	281.25
401.754	279.21
401.963	283.3
402.172	15.02
402.381	-60.76
402.59	125.61
402.799	103.08
403.008	111.27
403.217	51.88
403.426	209.58
403.635	-3.41
403.844	-75.09
404.053	-15.7
404.262	51.88
404.471	301.73
404.68	62.12
404.888	-9.56
405.097	53.93
405.306	168.62
405.515	111.27
405.724	-73.04
405.933	295.59
406.142	189.1
406.35	78.51
406.559	21.16
406.768	141.99
406.977	287.4
407.185	21.16
407.394	6.83
407.603	-105.81
407.812	135.85
408.02	123.56
408.229	29.35
408.438	268.97
408.646	-64.85
408.855	-34.13
409.064	-13.65
409.272	109.22
409.481	195.24
409.69	6.83
409.898	-81.24
410.107	191.14
410.315	217.77
410.524	68.27
410.733	62.12
410.941	154.28
411.15	250.53
411.358	51.88
411.567	68.27
411.775	187.05
411.984	76.46
412.192	23.21
412.401	47.79
412.609	410.28
412.818	293.54
413.026	51.88
413.234	-36.18
413.443	217.77
413.651	-15.7
413.86	-93.52
414.068	135.85
414.276	346.79
414.485	127.66
414.693	117.42
414.901	92.84
415.11	244.39
415.318	115.37
415.526	60.07
415.734	170.66
415.943	90.79
416.151	377.51
416.359	6.83
416.567	43.69
416.776	320.17
416.984	219.82
417.192	105.13
417.4	-19.8
417.608	41.64
417.817	-11.61
418.025	170.66
418.233	15.02
418.441	27.31
418.649	-48.47
418.857	111.27
419.065	129.7
419.273	109.22
419.481	121.51
419.689	76.46
419.897	-56.66
420.105	-11.61
420.313	213.67
420.521	150.18
420.729	150.18
420.937	64.17
421.145	-42.32
421.353	74.41
421.561	129.7
421.769	176.81
421.977	25.26
422.185	84.65
422.393	2.73
422.601	228.01
422.809	119.46
423.017	41.64
423.224	-32.08
423.432	303.78
423.64	105.13
423.848	-73.04
424.056	-68.95
424.263	260.77
424.471	127.66
424.679	180.9
424.887	-93.52
425.094	262.82
425.302	217.77
425.51	-138.58
425.718	23.21
425.925	182.95
426.133	-3.41
426.341	119.46
426.548	29.35
426.756	86.7
426.964	211.62
427.171	43.69
427.379	39.59
427.586	166.57
427.794	213.67
428.001	55.98
428.209	115.37
428.417	346.79
428.624	258.73
428.832	88.75
429.039	66.22
429.247	162.47
429.454	201.38
429.662	86.7
429.869	117.42
430.076	234.15
430.284	164.52
430.491	37.55
430.699	58.03
430.906	354.98
431.114	219.82
431.321	68.27
431.528	72.36
431.736	170.66
431.943	219.82
432.15	60.07
432.358	10.92
432.565	332.45
432.772	-136.53
432.979	117.42
433.187	-9.56
433.394	320.17
433.601	53.93
433.808	12.97
434.016	148.14
434.223	137.9
434.43	144.04
434.637	39.59
434.844	160.42
435.052	234.15
435.259	232.1
435.466	119.46
435.673	49.83
435.88	359.08
436.087	268.97
436.294	369.32
436.501	178.86
436.708	277.16
436.915	215.72
437.122	252.58
437.329	23.21
437.537	234.15
437.743	219.82
437.95	230.06
438.157	90.79
438.364	105.13
438.571	170.66
438.778	84.65
438.985	148.14
439.192	314.02
439.399	211.62
439.606	127.66
439.813	137.9
440.02	457.38
440.227	529.06
440.433	135.85
440.64	88.75
440.847	248.49
441.054	189.1
441.261	150.18
441.467	131.75
441.674	211.62
441.881	441
442.088	137.9
442.294	174.76
442.501	397.99
442.708	496.29
442.914	109.22
443.121	168.62
443.328	357.03
443.534	434.85
443.741	170.66
443.948	35.5
444.154	344.74
444.361	531.11
444.568	197.29
444.774	285.35
444.981	141.99
445.187	502.43
445.394	275.11
445.6	170.66
445.807	336.55
446.013	381.6
446.22	137.9
446.426	303.78
446.633	469.67
446.839	645.79
447.046	80.55
447.252	426.66
447.459	371.36
447.665	324.26
447.871	232.1
448.078	537.25
448.284	547.49
448.491	576.16
448.697	432.8
448.903	375.46
449.11	656.03
449.316	481.96
449.522	467.62
449.728	500.39
449.935	582.31
450.141	498.34
450.347	529.06
450.553	416.42
450.76	580.26
450.966	637.6
451.172	668.32
451.378	402.08
451.584	705.18
451.791	850.59
451.997	660.13
452.203	565.92
452.409	918.17
452.615	864.93
452.821	576.16
453.027	578.21
453.233	1014.43
453.44	737.95
453.646	643.74
453.852	750.24
454.058	684.7
454.264	869.02
454.47	774.81
454.676	633.5
454.882	979.61
455.088	901.79
455.294	834.21
455.5	889.5
455.705	998.04
455.911	922.27
456.117	823.97
456.323	871.07
456.529	901.79
456.735	1036.95
456.941	783.01
457.147	848.54
457.352	1032.86
457.558	885.41
457.764	961.18
457.97	883.36
458.176	1018.52
458.381	1112.73
458.587	952.99
458.793	930.46
458.999	879.26
459.204	1000.09
459.41	871.07
459.616	961.18
459.821	1067.67
460.027	842.4
460.233	1004.19
460.438	940.7
460.644	979.61
460.85	1069.72
461.055	981.66
461.261	1012.38
461.466	860.83
461.672	832.16
461.878	686.75
462.083	862.88
462.289	801.44
462.494	844.45
462.7	883.36
462.905	649.89
463.111	1053.34
463.316	936.6
463.522	823.97
463.727	754.34
463.932	903.84
464.138	899.74
464.343	766.62
464.549	826.01
464.754	1041.05
464.959	1108.63
465.165	709.28
465.37	752.29
465.575	873.12
465.781	799.39
465.986	699.04
466.191	621.22
466.397	1004.19
466.602	901.79
466.807	707.23
467.012	711.33
467.218	914.08
467.423	783.01
467.628	668.32
467.833	707.23
468.038	838.3
468.244	709.28
468.449	756.38
468.654	735.9
468.859	766.62
469.064	852.64
469.269	641.7
469.474	711.33
469.679	897.69
469.885	840.35
470.09	651.94
470.295	770.72
470.5	776.86
470.705	938.65
470.91	670.37
471.115	789.15
471.32	893.6
471.525	1012.38
471.73	621.22
471.935	801.44
472.139	647.84
472.344	811.68
472.549	674.46
472.754	778.91
472.959	854.69
473.164	789.15
473.369	715.42
473.574	813.73
473.778	856.73
473.983	918.17
474.188	848.54
474.393	709.28
474.598	866.97
474.802	856.73
475.007	723.62
475.212	750.24
475.417	797.34
475.621	957.08
475.826	692.9
476.031	762.53
476.235	887.45
476.44	791.2
476.645	711.33
476.849	750.24
477.054	725.66
477.259	869.02
477.463	860.83
477.668	883.36
477.872	1155.74
478.077	828.06
478.282	699.04
478.486	692.9
478.691	860.83
478.895	754.34
479.1	852.64
479.304	828.06
479.509	846.49
479.713	1032.86
479.918	801.44
480.122	803.49
480.326	881.31
480.531	866.97
480.735	809.63
480.94	676.51
481.144	1077.91
481.348	955.04
481.553	686.75
481.757	766.62
481.961	764.57
482.166	869.02
482.37	694.94
482.574	817.82
482.778	684.7
482.983	930.46
483.187	656.03
483.391	791.2
483.595	813.73
483.8	983.71
484.004	944.8
484.208	854.69
484.412	991.9
484.616	987.8
484.821	799.39
485.025	717.47
485.229	897.69
485.433	979.61
485.637	766.62
485.841	869.02
486.045	1006.24
486.249	1114.78
486.453	883.36
486.657	742.05
486.861	715.42
487.065	930.46
487.269	871.07
487.473	731.81
487.677	1135.26
487.881	1407.64
488.085	924.32
488.289	967.32
488.493	1047.19
488.697	1235.61
488.901	1041.05
489.105	905.88
489.309	998.04
489.512	1297.05
489.716	1012.38
489.92	1030.81
490.124	1141.4
490.328	1315.48
490.531	1079.96
490.735	1110.68
490.939	1108.63
491.143	1161.88
491.346	1036.95
491.55	1192.6
491.754	1264.28
491.958	1225.37
492.161	1208.98
492.365	1170.07
492.569	1245.85
492.772	1395.35
492.976	1188.5
493.18	1266.33
493.383	1241.75
493.587	1307.29
493.79	1303.19
493.994	1112.73
494.197	1344.15
494.401	1426.07
494.605	1303.19
494.808	1360.53
495.012	1475.22
495.215	1649.3
495.419	1520.28
495.622	1458.84
495.825	1555.09
496.029	1415.83
496.232	1571.47
496.436	1501.84
496.639	1741.46
496.843	1653.39
497.046	1507.99
497.249	1749.65
497.453	1897.1
497.656	1643.15
497.859	1714.83
498.063	1780.37
498.266	1888.91
498.469	1749.65
498.673	1833.61
498.876	1770.13
499.079	1987.21
499.282	1890.96
499.485	2126.47
499.689	2149
499.892	2228.87
500.095	2075.27
500.298	2097.8
500.501	1964.68
500.705	2275.98
500.908	2284.17
501.111	2298.5
501.314	2323.08
501.517	2525.83
501.72	2523.78
501.923	2454.15
502.126	2405
502.329	2826.88
502.532	2685.57
502.735	2644.61
502.938	2697.86
503.141	2976.38
503.344	2767.49
503.547	2972.29
503.75	2890.37
503.953	3019.39
504.156	3103.36
504.359	3078.78
504.562	3195.51
504.765	3281.53
504.968	3506.81
505.17	3441.27
505.373	3308.15
505.576	3474.04
505.779	3635.83
505.982	3502.71
506.185	3730.03
506.387	3965.55
506.59	3871.34
506.793	3977.84
506.996	3986.03
507.198	4465.25
507.401	4465.25
507.604	4209.26
507.807	4276.84
508.009	4493.93
508.212	4801.12
508.415	4573.8
508.617	4547.17
508.82	4823.65
509.022	4874.85
509.225	4991.58
509.428	5098.08
509.63	5354.07
509.833	5227.1
510.035	5675.6
510.238	5513.81
510.44	5583.45
510.643	5861.97
510.845	5878.35
511.048	5888.59
511.25	6015.57
511.453	6034
511.655	6482.5
511.858	6292.04
512.06	6863.43
512.262	6529.61
512.465	6763.08
512.667	6806.08
512.87	7057.98
513.072	7387.71
513.274	7365.18
513.477	7397.95
513.679	7508.54
513.881	7797.3
514.084	7655.99
514.286	7983.66
514.488	8038.96
514.69	8387.11
514.893	8399.4
515.095	8589.86
515.297	8843.81
515.499	8876.58
515.701	9005.6
515.904	9323.04
516.106	9714.2
516.308	9912.85
516.51	9695.77
516.712	9906.71
516.914	10131.98
517.116	10504.71
517.318	10394.12
517.52	10691.08
517.722	11016.71
517.925	11158.02
518.127	11416.06
518.329	11463.16
518.531	11305.47
518.733	11934.2
518.935	11887.09
519.136	12012.02
519.338	12100.08
519.54	12491.24
519.742	12605.93
519.944	12880.36
520.146	13277.66
520.348	13443.55
520.55	13394.4
520.752	13822.42
520.954	13824.47
521.155	14045.65
521.357	14115.28
521.559	14746.06
521.761	15088.07
521.963	15020.49
522.164	15006.15
522.366	15104.45
522.568	15550.91
522.77	15638.97
522.971	15593.92
523.173	15544.77
523.375	16267.7
523.576	16359.86
523.778	16421.3
523.98	16828.84
524.181	16935.34
524.383	17248.68
524.584	17371.55
524.786	17289.63
524.988	17461.66
525.189	18184.6
525.391	17914.27
525.592	18141.59
525.794	18309.52
525.995	18420.11
526.197	18635.15
526.398	18567.57
526.6	19052.94
526.801	19177.86
527.003	18928.01
527.204	19323.27
527.406	19736.96
527.607	19868.03
527.808	19929.47
528.01	20101.5
528.211	20199.8
528.412	20330.87
528.614	20496.75
528.815	20416.88
529.016	21186.92
529.218	20660.59
529.419	20887.92
529.62	20695.41
529.822	21148.01
530.023	21616.99
530.224	21231.97
530.425	21598.56
530.626	21772.64
530.828	21528.93
531.029	21965.15
531.23	21926.24
531.431	22063.45
531.632	22272.34
531.833	22317.4
532.035	22268.25
532.236	22352.21
532.437	22438.23
532.638	22292.82
532.839	22362.45
533.04	22976.84
533.241	22948.17
533.442	23152.97
533.643	22927.69
533.844	23181.64
534.045	22796.62
534.246	22722.9
534.447	23212.36
534.648	23054.67
534.849	23509.32
535.05	22960.46
535.251	23290.18
535.451	23271.75
535.652	23390.53
535.853	23392.58
536.054	23675.2
536.255	23675.2
536.456	23404.87
536.657	23810.37
536.857	23628.1
537.058	23755.07
537.259	23806.27
537.46	23828.8
537.66	23607.62
537.861	24000.83
538.062	24164.67
538.263	23923.01
538.463	24271.16
538.664	24580.4
538.865	24148.28
539.065	24496.44
539.266	23646.53
539.466	24236.34
539.667	24215.87
539.868	24340.79
540.068	24203.58
540.269	24238.39
540.469	24230.2
540.67	24484.15
540.87	24391.99
541.071	24250.68
541.271	24643.89
541.472	24551.73
541.672	24572.21
541.873	24447.29
542.073	24256.82
542.274	24813.87
542.474	24535.35
542.675	24596.79
542.875	24938.8
543.075	24676.66
543.276	24330.55
543.476	24912.17
543.676	24688.95
543.877	24815.92
544.077	24858.93
544.277	25030.96
544.478	24772.91
544.678	24822.06
544.878	24838.45
545.078	25268.52
545.279	25184.55
545.479	24969.52
545.679	25162.03
545.879	25041.2
546.079	25346.34
546.28	24908.08
546.48	24834.35
546.68	25332.01
546.88	25319.72
547.08	25110.83
547.28	25127.21
547.48	25123.12
547.68	25594.15
547.88	25211.18
548.081	25172.27
548.281	25227.56
548.481	25387.3
548.681	25336.1
548.881	25202.99
549.081	25899.3
549.28	25131.31
549.48	25458.98
549.68	25393.45
549.88	25624.87
550.08	25409.83
550.28	25641.25
550.48	25674.02
550.68	25977.12
550.88	25628.96
551.08	25622.82
551.279	25700.64
551.479	25450.79
551.679	25743.65
551.879	25504.04
552.079	25637.16
552.278	25800.99
552.478	25768.23
552.678	25594.15
552.878	25915.68
553.077	25465.13
553.277	25454.89
553.477	25848.1
553.676	25850.14
553.876	26003.74
554.076	25895.2
554.275	25905.44
554.475	25108.78
554.674	26095.9
554.874	25872.67
555.074	25506.09
555.273	25825.57
555.473	26235.16
555.672	25817.38
555.872	25727.27
556.071	25772.32
556.271	26167.58
556.47	26112.28
556.67	25592.1
556.869	25469.22
557.068	25821.47
557.268	25657.64
557.467	25532.71
557.667	25325.86
557.866	25721.12
558.065	25415.97
558.265	25020.72
558.464	25225.51
558.663	25788.71
558.863	25477.41
559.062	25381.16
559.261	24908.08
559.461	25557.28
559.66	24899.89
559.859	25149.74
560.058	24547.64
560.258	24979.76
560.457	25131.31
560.656	25241.9
560.855	24582.45
561.054	25182.51
561.253	25045.29
561.453	24865.07
561.652	24887.6
561.851	24615.22
562.05	24351.03
562.249	24412.47
562.448	24334.65
562.647	24396.09
562.846	24238.39
563.045	24275.26
563.244	23982.4
563.443	24312.12
563.642	23632.19
563.841	24275.26
564.04	23421.25
564.239	23972.16
564.438	23636.29
564.637	23441.73
564.836	23640.39
565.035	23288.14
565.234	23159.11
565.432	23226.7
565.631	23177.54
565.83	23224.65
566.029	23064.91
566.228	22841.68
566.427	22688.08
566.625	22784.33
566.824	22726.99
567.023	22487.38
567.222	21938.52
567.42	22720.85
567.619	22417.75
567.818	21989.72
568.016	22321.49
568.215	21959
568.414	21827.93
568.612	21817.69
568.811	21594.47
569.01	21840.22
569.208	21016.94
569.407	21795.17
569.605	21141.86
569.804	21049.71
570.002	21088.62
570.201	20738.41
570.4	21029.23
570.598	20564.34
570.797	20627.82
570.995	20275.57
571.193	20339.06
571.392	20386.16
571.59	20216.18
571.789	19913.08
571.987	20167.03
572.186	20001.15
572.384	19870.08
572.582	19784.06
572.781	19827.07
572.979	19278.21
573.177	19339.65
573.376	19413.38
573.574	19235.21
573.772	19196.29
573.971	18917.77
574.169	19030.41
574.367	18672.01
574.565	18940.3
574.763	18686.35
574.962	18559.38
575.16	18282.9
575.358	18487.7
575.556	18143.64
575.754	18307.48
575.952	17844.63
576.151	18094.49
576.349	17832.35
576.547	17887.64
576.745	17850.78
576.943	18024.86
577.141	17543.58
577.339	17357.22
577.537	17611.17
577.735	17607.07
577.933	17400.23
578.131	17195.43
578.329	17197.48
578.527	17115.56
578.725	17338.79
578.923	16996.78
579.121	17037.73
579.319	16644.52
579.516	16622
579.714	16703.92
579.912	16652.72
580.11	16728.49
580.308	16679.34
580.506	16603.57
580.704	15966.65
580.901	16327.09
581.099	16417.2
581.297	16124.34
581.495	16099.76
581.692	16081.33
581.89	16052.66
582.088	16062.9
582.285	16103.86
582.483	15937.98
582.681	15829.43
582.878	15849.91
583.076	15827.39
583.274	15937.98
583.471	15636.92
583.669	15729.08
583.866	15286.72
584.064	15432.13
584.262	15282.63
584.459	15307.2
584.657	15425.98
584.854	15722.94
585.052	15348.16
585.249	15204.8
585.447	15034.82
585.644	14934.47
585.841	15403.46
586.039	15120.84
586.236	14660.04
586.434	14991.81
586.631	14782.92
586.828	14668.23
587.026	14782.92
587.223	14588.36
587.42	14621.13
587.618	14430.67
587.815	14467.53
588.012	14434.77
588.21	14348.75
588.407	14428.62
588.604	14246.35
588.801	14283.22
588.999	14270.93
589.196	14238.16
589.393	14068.18
589.59	14553.55
589.787	14146
589.984	13943.25
590.182	14283.22
590.379	14166.48
590.576	14078.42
590.773	14045.65
590.97	13709.79
591.167	14133.71
591.364	14021.08
591.561	13869.53
591.758	13847
591.955	14123.48
592.152	13961.69
592.349	13726.17
592.546	13562.33
592.743	13691.35
592.94	13537.76
593.137	13679.07
593.334	13674.97
593.531	13922.77
593.727	13681.11
593.924	13517.28
594.121	13390.3
594.318	13281.76
594.515	13365.73
594.712	13775.32
594.908	13251.04
595.105	13435.36
595.302	13453.79
595.499	13504.99
595.696	13351.39
595.892	13267.42
596.089	13382.11
596.286	13353.44
596.482	13492.7
596.679	13398.49
596.876	13294.05
597.072	13154.79
597.269	12988.9
597.466	13140.45
597.662	13103.59
597.859	13052.39
598.055	13058.53
598.252	13203.94
598.448	13079.01
598.645	12980.71
598.841	13068.77
599.038	13382.11
599.234	13373.92
599.431	12765.67
599.627	12993
599.824	13031.91
600.02	12880.36
600.217	12900.84
600.413	12722.66
600.609	12859.88
600.806	13216.22
601.002	12939.75
601.198	12630.51
601.395	13105.63
601.591	13148.64
601.787	12773.86
601.984	12526.06
602.18	12937.7
602.376	12710.38
602.572	12802.54
602.769	12941.8
602.965	12630.51
603.161	12810.73
603.357	12728.81
603.553	12648.94
603.75	12792.3
603.946	12589.55
604.142	12712.42
604.338	12460.52
604.534	12597.74
604.73	12524.01
604.926	12409.33
605.122	12524.01
605.318	12517.87
605.514	12560.88
605.71	12200.43
605.906	12583.4
606.102	12329.45
606.298	12745.19
606.494	12261.87
606.69	12564.97
606.886	12505.58
607.082	12339.69
607.278	12214.77
607.474	12014.07
607.67	12325.36
607.866	11891.19
608.062	12378.61
608.257	12257.78
608.453	12059.12
608.649	12337.65
608.845	11969.01
609.041	11911.67
609.236	12059.12
609.432	12108.27
609.628	11991.54
609.824	11901.43
610.019	11758.07
610.215	12063.22
610.411	11792.89
610.606	12040.69
610.802	11608.57
610.998	11952.63
611.193	12009.97
611.389	11823.61
611.584	12122.61
611.78	11469.31
611.976	11665.91
612.171	11868.66
612.367	11969.01
612.562	11702.78
612.758	11366.91
612.953	11274.75
613.149	11717.11
613.344	11469.31
613.539	11672.06
613.735	11719.16
613.93	11633.15
614.126	11497.98
614.321	11538.94
614.517	11567.61
614.712	11676.15
614.907	11454.97
615.103	11502.08
615.298	11039.23
615.493	11377.15
615.688	11196.93
615.884	11416.06
616.079	10975.75
616.274	11424.25
616.47	11229.7
616.665	11033.09
616.86	10977.8
617.055	11039.23
617.25	10805.77
617.445	11010.56
617.641	10770.95
617.836	10916.36
618.031	10781.19
618.226	11014.66
618.421	10869.25
618.616	10934.79
618.811	10883.59
619.006	10832.39
619.201	10590.73
619.396	10877.44
619.591	10793.48
619.786	10639.88
619.981	10750.47
620.176	10723.85
620.371	10660.36
620.566	10469.9
620.761	10555.91
620.956	10734.09
621.151	10508.81
621.346	10578.44
621.541	10039.83
621.735	10512.91
621.93	10199.57
622.125	10039.83
622.32	9957.91
622.515	10183.18
622.709	10328.59
622.904	9980.43
623.099	9896.47
623.294	10160.66
623.488	10013.2
623.683	9853.46
623.878	9560.6
624.072	9886.23
624.267	9685.53
624.462	9736.73
624.656	9486.87
624.851	9923.09
625.046	9753.11
625.24	9579.03
625.435	9411.1
625.629	9826.84
625.824	9794.07
626.018	9595.42
626.213	9452.06
626.407	9546.26
626.602	9511.45
626.796	9499.16
626.991	9351.71
627.185	9431.58
627.38	9382.43
627.574	9435.67
627.768	9255.45
627.963	9275.93
628.157	9458.2
628.352	9337.37
628.546	8843.81
628.74	9454.11
628.935	9112.1
629.129	9271.84
629.323	9284.12
629.517	9073.18
629.712	9122.34
629.906	9124.38
630.1	9185.82
630.294	9206.3
630.489	9009.7
630.683	8944.16
630.877	8827.43
631.071	9013.79
631.265	9030.18
631.459	8702.5
631.653	8763.94
631.848	8825.38
632.042	8827.43
632.236	8712.74
632.43	8575.53
632.624	8806.95
632.818	8874.53
633.012	8557.1
633.206	8460.84
633.4	8673.83
633.594	8630.82
633.788	8446.51
633.982	8450.6
634.176	8643.11
634.369	8417.83
634.563	8280.62
634.757	8092.21
634.951	8233.52
635.145	8479.27
635.339	8079.92
635.533	8032.82
635.726	8141.36
635.92	7881.27
636.114	7846.45
636.308	7670.33
636.501	7864.88
636.695	7873.07
636.889	7526.97
637.083	7557.69
637.276	7705.14
637.47	7184.96
637.664	7346.75
637.857	7371.32
638.051	7184.96
638.244	7393.85
638.438	7217.72
638.632	7094.85
638.825	6683.2
639.019	7139.9
639.212	6767.17
639.406	6752.84
639.599	6619.72
639.793	6654.53
639.986	6394.44
640.18	6412.87
640.373	6535.75
640.567	6283.85
640.76	6287.95
640.954	6281.8
641.147	5988.94
641.34	5818.96
641.534	5950.03
641.727	5902.93
641.92	5939.79
642.114	5882.45
642.307	5540.44
642.5	5630.55
642.694	5395.03
642.887	5429.85
643.08	5386.84
643.273	5315.16
643.467	5116.51
643.66	4969.05
643.853	4860.51
644.046	4909.66
644.239	5016.16
644.432	4647.52
644.626	4510.31
644.819	4532.84
645.012	4620.9
645.205	4579.94
645.398	4493.93
645.591	4475.49
645.784	4344.42
645.977	4049.52
646.17	4280.94
646.363	3934.83
646.556	4065.9
646.749	3857.01
646.942	4074.09
647.135	3807.86
647.328	3789.42
647.521	3809.9
647.714	3586.68
647.907	3668.59
648.099	3641.97
648.292	3881.58
648.485	3596.92
648.678	3502.71
648.871	3515
649.064	3410.55
649.256	3228.28
649.449	3101.31
649.642	3119.74
649.835	3324.54
650.027	3013.24
650.22	3265.14
650.413	3254.9
650.605	3322.49
650.798	3111.55
650.991	2837.12
651.183	3240.57
651.376	3003
651.568	3027.58
651.761	2890.37
651.954	3029.63
652.146	2974.33
652.339	2792.06
652.531	3046.01
652.724	2798.21
652.916	2656.9
653.109	2632.32
653.301	2818.69
653.494	2951.81
653.686	2728.58
653.879	2765.44
654.071	2706.05
654.263	2650.75
654.456	2593.41
654.648	2611.84
654.84	2583.17
655.033	2550.4
655.225	2904.7
655.417	2370.18
655.61	2548.36
655.802	2689.67
655.994	2732.67
656.186	2255.5
656.379	2620.03
656.571	2292.36
656.763	2431.62
656.955	2288.26
657.148	2239.11
657.34	2660.99
657.532	2239.11
657.724	2192.01
657.916	2280.07
658.108	2431.62
658.3	2480.77
658.492	2187.91
658.684	2126.47
658.876	2353.8
659.068	2032.27
659.26	1890.96
659.452	1915.53
659.644	2105.99
659.836	2253.45
660.028	1933.97
660.22	1841.81
660.412	1958.54
660.604	1870.48
660.796	1944.2
660.988	1731.22
661.18	1880.72
661.372	1884.81
661.563	1774.22
661.755	1626.77
661.947	1684.11
662.139	1596.05
662.331	1596.05
662.522	1538.71
662.714	1606.29
662.906	1446.55
663.097	1399.45
663.289	1389.21
663.481	1321.62
663.673	1503.89
663.864	1409.69
664.056	1448.6
664.247	1266.33
664.439	1544.85
664.631	1309.33
664.822	1446.55
665.014	1317.53
665.205	1311.38
665.397	1153.69
665.588	1143.45
665.78	1338.01
665.971	1342.1
666.163	1073.82
666.354	1157.78
666.546	1030.81
666.737	1229.46
666.929	1012.38
667.12	1002.14
667.311	1188.5
667.503	1061.53
667.694	1018.52
667.885	893.6
668.077	1098.39
668.268	828.06
668.459	881.31
668.651	860.83
668.842	1190.55
669.033	909.98
669.224	791.2
669.416	1133.21
669.607	887.45
669.798	838.3
669.989	752.29
670.18	791.2
670.371	985.76
670.563	744.1
670.754	881.31
670.945	721.57
671.136	961.18
671.327	754.34
671.518	690.85
671.709	768.67
671.9	996
672.091	1024.67
672.282	758.43
672.473	549.54
672.664	619.17
672.855	815.77
673.046	676.51
673.237	758.43
673.428	742.05
673.619	850.59
673.809	615.07
674	758.43
674.191	821.92
674.382	690.85
674.573	617.12
674.764	637.6
674.954	815.77
675.145	572.07
675.336	549.54
675.527	578.21
675.717	664.22
675.908	635.55
676.099	578.21
676.289	621.22
676.48	496.29
676.671	645.79
676.861	549.54
677.052	430.76
677.243	643.74
677.433	586.4
677.624	625.31
677.814	559.78
678.005	701.09
678.195	815.77
678.386	504.48
678.576	500.39
678.767	438.95
678.957	643.74
679.148	660.13
679.338	553.63
679.529	746.14
679.719	578.21
679.909	610.98
680.1	572.07
680.29	670.37
680.481	506.53
680.671	621.22
680.861	574.11
681.052	649.89
681.242	586.4
681.432	684.7
681.622	527.01
681.813	572.07
682.003	756.38
682.193	426.66
682.383	594.59
682.573	737.95
682.764	588.45
682.954	662.18
683.144	639.65
683.334	696.99
683.524	703.14
683.714	678.56
683.904	803.49
684.094	656.03
684.284	688.8
684.474	869.02
684.664	717.47
684.854	807.58
685.044	819.87
685.234	756.38
685.424	653.98
685.614	717.47
685.804	1131.16
685.994	952.99
686.184	938.65
686.374	1100.44
686.564	998.04
686.753	932.51
686.943	731.81
687.133	1063.58
687.323	1135.26
687.513	1137.31
687.702	971.42
687.892	1151.64
688.082	1245.85
688.272	1194.65
688.461	1282.71
688.651	1614.48
688.841	1563.28
689.03	1364.63
689.22	1325.72
689.41	1639.06
689.599	1469.08
689.789	1436.31
689.979	1778.32
690.168	1720.98
690.358	1880.72
690.547	1655.44
690.737	1718.93
690.926	1979.02
691.116	1983.12
691.305	1974.92
691.495	1964.68
691.684	2011.79
691.874	2253.45
692.063	2245.26
692.252	2167.43
692.442	2572.93
692.631	2464.39
692.82	2376.33
693.01	2556.55
693.199	2644.61
693.388	2828.93
693.578	2837.12
693.767	2890.37
693.956	3076.73
694.146	3127.93
694.335	3046.01
694.524	2906.75
694.713	3402.36
694.902	3297.91
695.092	3394.17
695.281	3576.44
695.47	3637.88
695.659	3596.92
695.848	3646.07
696.037	3666.55
696.226	4029.04
696.415	3934.83
696.604	4239.98
696.793	4239.98
696.982	4233.83
697.171	4571.75
697.36	4121.2
697.549	4268.65
697.738	4256.36
697.927	4450.92
698.116	4463.21
698.305	4846.18
698.494	4971.1
698.683	4905.57
698.872	5112.41
699.061	4880.99
699.25	5126.75
699.438	5202.52
699.627	5018.21
699.816	5370.46
700.005	5356.12
700.193	5419.61
700.382	5530.2
700.571	5626.45
700.76	5870.16
700.948	5902.93
701.137	5505.62
701.326	5702.23
701.514	5974.61
701.703	6044.24
701.892	5911.12
702.08	6083.15
702.269	6244.94
702.457	6001.23
702.646	6122.06
702.834	6134.35
703.023	6320.71
703.212	6541.89
703.4	6382.15
703.589	6287.95
703.777	6502.98
703.965	6367.82
704.154	6459.98
704.342	6582.85
704.531	6494.79
704.719	6560.33
704.907	6863.43
705.096	6550.09
705.284	6898.24
705.472	6877.76
705.661	6924.86
705.849	6855.23
706.037	7189.05
706.226	6951.49
706.414	7035.46
706.602	6900.29
706.79	7232.06
706.979	7043.65
707.167	7197.24
707.355	7014.98
707.543	7354.94
707.731	7225.92
707.919	7289.4
708.107	7031.36
708.296	7039.55
708.484	7232.06
708.672	7146.05
708.86	7232.06
709.048	7461.43
709.236	7193.15
709.424	7287.36
709.612	7375.42
709.8	7418.43
709.988	7404.09
710.176	7332.41
710.364	7494.2
710.551	7414.33
710.739	7221.82
710.927	7303.74
711.115	7387.71
711.303	7639.61
711.491	7615.03
711.679	7289.4
711.866	7311.93
712.054	7543.35
712.242	7588.41
712.43	7721.52
712.617	7426.62
712.805	7459.38
712.993	7537.21
713.181	7336.51
713.368	7477.82
713.556	7770.68
713.744	7313.98
713.931	7516.73
714.119	7344.7
714.306	7559.74
714.494	7494.2
714.682	7459.38
714.869	7432.76
715.057	7739.96
715.244	7424.57
715.432	7512.63
715.619	7459.38
715.807	7443
715.994	7469.62
716.182	7375.42
716.369	7567.93
716.556	7756.34
716.744	7361.08
716.931	7365.18
717.119	7445.05
717.306	7594.55
717.493	7410.23
717.681	7264.83
717.868	7363.13
718.055	7645.75
718.242	7486.01
718.43	7486.01
718.617	7606.84
718.804	7367.23
718.991	7565.88
719.179	7461.43
719.366	7246.4
719.553	7668.28
719.74	7379.51
719.927	7367.23
720.114	7340.6
720.301	7246.4
720.488	7141.95
720.676	7223.87
720.863	7377.47
721.05	7668.28
721.237	7389.75
721.424	7234.11
721.611	7238.2
721.798	7131.71
721.985	7240.25
722.172	7111.23
722.358	7336.51
722.545	7316.03
722.732	7195.2
722.919	7057.98
723.106	7146.05
723.293	7033.41
723.48	7309.88
723.667	6986.3
723.853	7070.27
724.04	7256.64
724.227	7182.91
724.414	6844.99
724.6	7037.5
724.787	7387.71
724.974	7457.34
725.161	7082.56
725.347	6885.95
725.534	7119.42
725.72	7123.52
725.907	7062.08
726.094	7107.13
726.28	6933.06
726.467	6908.48
726.653	6699.59
726.84	6867.52
727.027	7041.6
727.213	6877.76
727.4	6822.47
727.586	6830.66
727.773	6918.72
727.959	6789.7
728.145	7076.41
728.332	6677.06
728.518	6675.01
728.705	7043.65
728.891	6574.66
729.077	6730.31
729.264	6658.63
729.45	6666.82
729.636	6646.34
729.823	6621.77
730.009	6879.81
730.195	6709.83
730.382	6670.92
730.568	6543.94
730.754	6681.16
730.94	6582.85
731.126	6439.5
731.313	6435.4
731.499	6543.94
731.685	6638.15
731.871	6548.04
732.057	6398.54
732.243	6726.21
732.429	6615.62
732.615	6502.98
732.801	6535.75
732.987	6363.72
733.173	6316.62
733.359	6203.98
733.545	6390.35
733.731	6154.83
733.917	6345.29
734.103	6324.81
734.289	6390.35
734.475	6222.41
734.661	6527.56
734.847	6261.32
735.033	6314.57
735.219	6177.36
735.404	6181.45
735.59	5911.12
735.776	6072.91
735.962	6562.37
736.148	6304.33
736.333	6111.82
736.519	5954.13
736.705	6150.73
736.89	5960.27
737.076	5913.17
737.262	5778
737.447	5933.65
737.633	5864.02
737.819	5925.46
738.004	5876.3
738.19	6027.85
738.375	5855.83
738.561	5888.59
738.747	5634.64
738.932	5638.74
739.118	6089.29
739.303	5927.5
739.489	5722.71
739.674	5667.41
739.859	5560.92
740.045	5648.98
740.23	5628.5
740.416	5341.79
740.601	5657.17
740.786	5517.91
740.972	5403.22
741.157	5444.18
741.342	5358.17
741.528	5380.7
741.713	5472.86
741.898	5294.68
742.084	5321.31
742.269	5302.87
742.454	5237.34
742.639	5542.49
742.824	5136.99
743.01	5356.12
743.195	5339.74
743.38	5186.14
743.565	5216.86
743.75	5239.39
743.935	5102.17
744.12	5317.21
744.305	4862.56
744.49	4983.39
744.675	4973.15
744.86	5005.92
745.045	5007.97
745.23	4909.66
745.415	4717.15
745.6	5065.31
745.785	4737.63
745.97	4919.9
746.155	4715.11
746.34	5124.7
746.525	4870.75
746.71	4741.73
746.895	4635.24
747.079	4559.46
747.264	4610.66
747.449	4625
747.634	4686.44
747.819	4657.76
748.003	4397.67
748.188	4455.01
748.373	4330.09
748.557	4565.6
748.742	4518.5
748.927	4412.01
749.111	4328.04
749.296	4358.76
749.481	4442.73
749.665	4383.34
749.85	4141.68
750.034	4418.15
750.219	4237.93
750.404	4121.2
750.588	4033.13
750.773	4076.14
750.957	4086.38
751.141	4151.92
751.326	4156.01
751.51	4061.8
751.695	3955.31
751.879	4039.28
752.064	4078.19
752.248	4006.51
752.432	4012.65
752.617	3983.98
752.801	3883.63
752.985	3891.82
753.17	3871.34
753.354	3650.16
753.538	3641.97
753.722	3670.64
753.907	3732.08
754.091	3619.44
754.275	3562.1
754.459	3609.2
754.643	3496.57
754.828	3646.07
755.012	3467.89
755.196	3537.52
755.38	3697.27
755.564	3330.68
755.748	3439.22
755.932	3641.97
756.116	3603.06
756.3	3390.07
756.484	3269.24
756.668	3455.61
756.852	3324.54
757.036	3252.86
757.22	3220.09
757.404	3187.32
757.588	3207.8
757.772	3322.49
757.956	3199.61
758.14	3406.45
758.323	3076.73
758.507	3115.64
758.691	3058.3
758.875	3261.05
759.059	3363.45
759.242	2935.42
759.426	2939.52
759.61	3072.64
759.794	2837.12
759.977	2988.67
760.161	3416.69
760.345	3105.4
760.528	3035.77
760.712	2722.43
760.895	2898.56
761.079	2841.22
761.263	2689.67
761.446	2695.81
761.63	2640.51
761.813	2781.82
761.997	2685.57
762.18	2650.75
762.364	2626.18
762.547	2562.69
762.731	2552.45
762.914	2478.72
763.098	2454.15
763.281	2574.98
763.464	2665.09
763.648	2652.8
763.831	2544.26
764.015	2390.66
764.198	2654.85
764.381	2531.97
764.564	2407.05
764.748	2642.56
764.931	2738.82
765.114	2456.2
765.297	2499.2
765.481	2417.29
765.664	2503.3
765.847	2384.52
766.03	2405
766.213	2507.4
766.397	2486.92
766.58	2425.48
766.763	2515.59
766.946	2474.63
767.129	2486.92
767.312	2382.47
767.495	2339.46
767.678	2445.96
767.861	2542.21
768.044	2282.12
768.227	2331.27
768.41	2620.03
768.593	2570.88
768.776	2448.01
768.959	2394.76
769.142	2595.46
769.324	2439.81
769.507	2321.03
769.69	2347.65
769.873	2349.7
770.056	2704
770.239	2316.94
770.421	2390.66
770.604	2392.71
770.787	2361.99
770.97	2241.16
771.152	2128.52
771.335	2357.89
771.518	2239.11
771.7	2155.15
771.883	2359.94
772.066	2259.59
772.248	2282.12
772.431	2382.47
772.613	2353.8
772.796	2230.92
772.978	2341.51
773.161	2175.63
773.343	2073.23
773.526	2273.93
773.708	2095.75
773.891	1981.07
774.073	1997.45
774.256	2085.51
774.438	2306.7
774.621	2120.33
774.803	2101.9
774.985	2032.27
775.168	2163.34
775.35	1929.87
775.532	2019.98
775.715	1981.07
775.897	2079.37
776.079	1952.4
776.261	2019.98
776.444	2124.43
776.626	1946.25
776.808	1960.59
776.99	1671.83
777.173	1927.82
777.355	1888.91
777.537	1753.74
777.719	1745.55
777.901	1850
778.083	1788.56
778.265	1720.98
778.447	1821.33
778.629	1796.75
778.811	1823.37
778.993	1827.47
779.175	1811.09
779.357	1800.85
779.539	1755.79
779.721	1723.02
779.903	1790.61
780.085	1641.11
780.267	1696.4
780.449	1651.35
780.631	1692.3
780.812	1847.95
780.994	1669.78
781.176	1544.85
781.358	1577.62
781.54	1720.98
781.721	1759.89
781.903	1534.61
782.085	1483.41
782.267	1675.92
782.448	1577.62
782.63	1403.54
782.812	1512.08
782.993	1665.68
783.175	1626.77
783.357	1421.97
783.538	1630.87
783.72	1464.98
783.901	1434.26
784.083	1520.28
784.264	1464.98
784.446	1311.38
784.627	1295
784.809	1397.4
784.99	1323.67
785.172	1516.18
785.353	1319.57
785.535	1376.92
785.716	1190.55
785.897	1206.94
786.079	1348.25
786.26	1276.57
786.441	1342.1
786.623	1202.84
786.804	1069.72
786.985	1284.76
787.167	1178.26
787.348	1194.65
787.529	1213.08
787.71	1219.22
787.891	1176.22
788.073	1137.31
788.254	996
788.435	1278.62
788.616	1092.25
788.797	1055.39
788.978	1163.93
789.159	1051.29
789.34	1176.22
789.522	1086.11
789.703	1006.24
789.884	1143.45
790.065	1182.36
790.246	1393.3
790.427	1061.53
790.607	1120.92
790.788	1096.35
790.969	983.71
791.15	1163.93
791.331	909.98
791.512	1010.33
791.693	963.23
791.874	1016.48
792.054	1065.63
792.235	1135.26
792.416	854.69
792.597	801.44
792.778	975.52
792.958	889.5
793.139	1061.53
793.32	891.55
793.5	805.53
793.681	977.56
793.862	1069.72
794.042	854.69
794.223	733.86
794.404	793.25
794.584	701.09
794.765	850.59
794.945	856.73
795.126	891.55
795.306	975.52
795.487	801.44
795.667	801.44
795.848	795.29
796.028	924.32
796.209	871.07
796.389	1004.19
796.57	776.86
796.75	725.66
796.93	785.05
797.111	688.8
797.291	834.21
797.471	996
797.652	715.42
797.832	692.9
798.012	828.06
798.192	770.72
798.373	662.18
798.553	721.57
798.733	717.47
798.913	674.46
799.093	707.23
799.274	641.7
799.454	774.81
799.634	901.79
799.814	803.49
799.994	780.96
800.174	797.34
800.354	803.49
800.534	527.01
800.714	668.32
800.894	557.73
801.074	613.03
801.254	647.84
801.434	750.24
801.614	596.64
801.794	514.72
801.974	5544.53
802.154	561.83
802.334	742.05
802.514	582.31
802.693	744.1
802.873	567.97
803.053	701.09
803.233	758.43
803.413	672.42
803.592	422.56
803.772	514.72
803.952	676.51
804.131	508.58
804.311	721.57
804.491	676.51
804.67	578.21
804.85	484
805.03	658.08
805.209	735.9
805.389	545.44
805.568	615.07
805.748	592.55
805.928	504.48
806.107	703.14
806.287	615.07
806.466	637.6
806.646	537.25
806.825	678.56
807.004	541.35
807.184	574.11
807.363	527.01
807.543	598.69
807.722	438.95
807.901	682.66
808.081	498.34
808.26	324.26
808.439	649.89
808.619	484
808.798	404.13
808.977	555.68
809.156	696.99
809.336	549.54
809.515	436.9
809.694	395.94
809.873	443.04
810.052	465.57
810.231	625.31
810.411	504.48
810.59	696.99
810.769	508.58
810.948	508.58
811.127	301.73
811.306	426.66
811.485	455.33
811.664	570.02
811.843	484
812.022	578.21
812.201	406.18
812.38	350.89
812.559	473.76
812.737	551.59
812.916	301.73
813.095	350.89
813.274	465.57
813.453	481.96
813.632	357.03
813.811	522.91
813.989	230.06
814.168	506.53
814.347	205.48
814.526	340.65
814.704	586.4
814.883	631.46
815.062	277.16
815.24	340.65
815.419	326.31
815.598	533.15
815.776	166.57
815.955	447.14
816.133	195.24
816.312	498.34
816.49	238.25
816.669	326.31
816.847	397.99
817.026	481.96
817.204	352.93
817.383	318.12
817.561	344.74
817.74	451.24
817.918	299.69
818.097	365.22
818.275	330.41
818.453	461.48
818.632	414.37
818.81	228.01
818.988	361.13
819.167	330.41
819.345	326.31
819.523	299.69
819.701	371.36
819.879	475.81
820.058	393.89
820.236	234.15
820.414	453.28
820.592	316.07
820.77	354.98
820.948	139.94
821.127	277.16
821.305	424.61
821.483	178.86
821.661	318.12
821.839	404.13
822.017	225.96
822.195	283.3
822.373	342.69
822.551	363.17
822.729	488.1
822.907	225.96
823.085	428.71
823.262	385.7
823.44	303.78
823.618	266.92
823.796	268.97
823.974	373.41
824.152	295.59
824.329	289.45
824.507	260.77
824.685	506.53
824.863	322.21
825.04	154.28
825.218	228.01
825.396	340.65
825.574	426.66
825.751	275.11
825.929	160.42
826.107	156.33
826.284	316.07
826.462	316.07
826.639	225.96
826.817	266.92
826.994	316.07
827.172	92.84
827.349	371.36
827.527	379.56
827.704	334.5
827.882	410.28
828.059	262.82
828.237	268.97
828.414	365.22
828.591	-15.7
828.769	215.72
828.946	215.72
829.124	422.56
829.301	387.75
829.478	121.51
829.655	268.97
829.833	340.65
830.01	15.02
830.187	330.41
830.364	363.17
830.542	336.55
830.719	240.3
830.896	215.72
831.073	383.65
831.25	400.04
831.427	244.39
831.604	209.58
831.782	258.73
831.959	373.41
832.136	262.82
832.313	256.68
832.49	195.24
832.667	228.01
832.844	70.31
833.021	426.66
833.198	279.21
833.374	256.68
833.551	254.63
833.728	137.9
833.905	393.89
834.082	35.5
834.259	260.77
834.436	311.97
834.612	230.06
834.789	406.18
834.966	185
835.143	225.96
835.319	193.19
835.496	283.3
835.673	170.66
835.85	223.91
836.026	332.45
836.203	438.95
836.38	88.75
836.556	117.42
836.733	211.62
836.909	426.66
837.086	160.42
837.262	68.27
837.439	244.39
837.616	137.9
837.792	182.95
837.968	88.75
838.145	-19.8
838.321	191.14
838.498	154.28
838.674	389.8
838.851	344.74
839.027	225.96
839.203	174.76
839.38	201.38
839.556	199.34
839.732	338.6
839.909	141.99
840.085	101.03
840.261	174.76
840.437	262.82
840.614	191.14
840.79	295.59
840.966	367.27
841.142	338.6
841.318	197.29
841.494	205.48
841.671	426.66
841.847	160.42
842.023	43.69
842.199	154.28
842.375	381.6
842.551	70.31
842.727	82.6
842.903	285.35
843.079	78.51
843.255	391.84
843.431	201.38
843.607	197.29
843.783	-3.41
843.959	273.06
844.134	146.09
844.31	266.92
844.486	109.22
844.662	82.6
844.838	137.9
845.013	117.42
845.189	383.65
845.365	236.2
845.541	230.06
845.716	248.49
845.892	330.41
846.068	131.75
846.244	131.75
846.419	88.75
846.595	111.27
846.77	39.59
846.946	144.04
847.122	146.09
847.297	187.05
847.473	420.52
847.648	-13.65
847.824	43.69
847.999	-62.8
848.175	225.96
848.35	203.43
848.526	311.97
848.701	330.41
848.876	277.16
849.052	352.93
849.227	96.94
849.403	144.04
849.578	217.77
849.753	193.19
849.929	80.55
850.104	29.35
850.279	213.67
850.454	189.1
850.63	182.95
850.805	193.19
850.98	211.62
851.155	164.52
851.33	178.86
851.505	4.78
851.681	381.6
851.856	101.03
852.031	193.19
852.206	223.91
852.381	-27.99
852.556	45.74
852.731	68.27
852.906	225.96
853.081	250.53
853.256	262.82
853.431	78.51
853.606	117.42
853.781	80.55
853.956	-42.32
854.131	101.03
854.305	62.12
854.48	133.8
854.655	51.88
854.83	-46.42
855.005	205.48
855.18	113.32
855.354	80.55
855.529	-13.65
855.704	127.66
855.879	314.02
856.053	-1.37
856.228	127.66
856.403	55.98
856.577	225.96
856.752	-50.52
856.926	29.35
857.101	193.19
857.276	15.02
857.45	78.51
857.625	90.79
857.799	244.39
857.974	158.38
858.148	-89.43
858.323	131.75
858.497	174.76
858.672	64.17
858.846	64.17
859.02	225.96
859.195	64.17
859.369	98.99
859.543	191.14
859.718	111.27
859.892	217.77
860.066	281.25
860.241	55.98
860.415	-60.76
860.589	111.27
860.763	197.29
860.938	76.46
861.112	182.95
861.286	131.75
861.46	166.57
861.634	133.8
861.808	90.79
861.982	-5.46
862.157	8.87
862.331	82.6
862.505	12.97
862.679	55.98
862.853	64.17
863.027	49.83
863.201	156.33
863.375	129.7
863.549	105.13
863.722	131.75
863.896	195.24
864.07	31.4
864.244	109.22
864.418	158.38
864.592	129.7
864.766	238.25
864.939	221.86
865.113	-19.8
865.287	195.24
865.461	15.02
865.634	174.76
865.808	101.03
865.982	43.69
866.156	117.42
866.329	62.12
866.503	119.46
866.676	168.62
866.85	176.81
867.024	45.74
867.197	225.96
867.371	111.27
867.544	203.43
867.718	-93.52
867.891	211.62
868.065	-93.52
868.238	156.33
868.412	203.43
868.585	90.79
868.759	-5.46
868.932	137.9
869.105	64.17
869.279	189.1
869.452	-32.08
869.625	320.17
869.799	88.75
869.972	-48.47
870.145	66.22
870.319	273.06
870.492	51.88
870.665	49.83
870.838	19.11
871.011	-85.33
871.185	115.37
871.358	49.83
871.531	217.77
871.704	55.98
871.877	105.13
872.05	-48.47
872.223	-50.52
872.396	363.17
872.569	256.68
872.742	-79.19
872.915	121.51
873.088	78.51
873.261	0.68
873.434	152.23
873.607	45.74
873.78	283.3
873.953	-91.48
874.126	131.75
874.299	146.09
874.471	135.85
874.644	121.51
874.817	199.34
874.99	365.22
875.163	25.26
875.335	121.51
875.508	25.26
875.681	211.62
875.853	164.52
876.026	137.9
876.199	182.95
876.371	53.93
876.544	90.79
876.717	207.53
876.889	35.5
877.062	127.66
877.234	-9.56
877.407	94.89
877.579	105.13
877.752	131.75
877.924	268.97
878.097	258.73
878.269	6.83
878.442	51.88
878.614	187.05
878.786	119.46
878.959	45.74
879.131	105.13
879.303	-87.38
879.476	160.42
879.648	205.48
879.82	-50.52
879.993	119.46
880.165	23.21
880.337	-54.61
880.509	70.31
880.681	-89.43
880.854	119.46
881.026	240.3
881.198	156.33
881.37	187.05
881.542	133.8
881.714	-21.85
881.886	-5.46
882.058	187.05
882.23	164.52
882.402	103.08
882.574	178.86
882.746	334.5
882.918	285.35
883.09	156.33
883.262	-25.94
883.434	180.9
883.606	-118.1
883.778	80.55
883.95	127.66
884.122	62.12
884.293	244.39
884.465	82.6
884.637	119.46
884.809	78.51
884.98	180.9
885.152	201.38
885.324	115.37
885.496	-11.61
885.667	92.84
885.839	17.07
886.011	15.02
886.182	221.86
886.354	221.86
886.525	129.7
886.697	53.93
886.869	-38.23
887.04	53.93
887.212	279.21
887.383	285.35
887.555	111.27
887.726	45.74
887.897	23.21
888.069	47.79
888.24	281.25
888.412	135.85
888.583	88.75
888.754	35.5
888.926	-36.18
889.097	82.6
889.268	-64.85
889.44	25.26
889.611	8.87
889.782	10.92
889.953	-40.28
890.125	119.46
890.296	-42.32
890.467	117.42
890.638	-36.18
890.809	37.55
890.98	37.55
891.151	133.8
891.323	154.28
891.494	-15.7
891.665	117.42
891.836	123.56
892.007	80.55
892.178	76.46
892.349	225.96
892.52	12.97
892.691	53.93
892.862	-15.7
893.032	10.92
893.203	113.32
893.374	68.27
893.545	141.99
893.716	-15.7
893.887	256.68
894.057	4.78
894.228	176.81
894.399	12.97
894.57	371.36
894.74	39.59
894.911	180.9
895.082	82.6
895.253	-68.95
895.423	55.98
895.594	98.99
895.764	256.68
895.935	-52.56
896.106	82.6
896.276	-7.51
896.447	170.66
896.617	-77.14
896.788	-36.18
896.958	8.87
897.129	109.22
897.299	25.26
897.47	230.06
897.64	60.07
897.81	15.02
897.981	187.05
898.151	19.11
898.322	33.45
898.492	185
898.662	29.35
898.832	19.11
899.003	92.84
899.173	207.53
899.343	-9.56
899.513	-75.09
