Data from USB4F104151__0__11-38-47-480.txt Node

Date: Wed Feb 19 11:38:47 EST 2025
User: louis
Spectrometer: USB4F10415
Trigger mode: 4
Integration Time (sec): 2.250200E-1
Scans to average: 1
Electric dark correction enabled: true
Nonlinearity correction enabled: false
Boxcar width: 0
XAxis mode: Wavelengths
Number of Pixels in Spectrum: 3648
>>>>>Begin Spectral Data<<<<<
178.204	-857.76
178.424	-857.76
178.644	-857.76
178.864	-820.89
179.084	-812.7
179.304	198.99
179.524	106.84
179.744	10.58
179.964	-183.98
180.184	289.1
180.404	104.79
180.624	-255.65
180.844	-63.15
181.064	12.63
181.283	125.27
181.503	-183.98
181.723	-161.45
181.943	-65.19
182.163	481.61
182.383	-198.31
182.602	-165.54
182.822	323.92
183.042	194.9
183.262	-198.31
183.482	-183.98
183.701	168.27
183.921	198.99
184.141	-181.93
184.361	-220.84
184.58	272.72
184.8	209.23
185.02	-204.46
185.239	6.49
185.459	309.58
185.679	444.75
185.898	-235.18
186.118	-257.7
186.338	250.19
186.557	266.58
186.777	-212.65
186.997	-214.7
187.216	176.47
187.436	485.71
187.655	-118.44
187.875	59.73
188.095	84.31
188.314	364.88
188.534	-104.11
188.753	-269.99
188.973	442.7
189.192	510.29
189.412	-218.79
189.631	-177.83
189.851	237.91
190.07	358.74
190.29	-155.3
190.509	-216.74
190.729	160.08
190.948	358.74
191.168	-30.38
191.387	-208.55
191.607	190.8
191.826	242
192.045	-128.68
192.265	-112.3
192.484	319.82
192.704	274.77
192.923	-147.11
193.142	-7.85
193.362	295.25
193.581	293.2
193.8	-118.44
194.02	-196.26
194.239	190.8
194.458	332.11
194.678	-75.43
194.897	-267.94
195.116	203.09
195.335	242
195.555	-89.77
195.774	-216.74
195.993	407.89
196.212	207.19
196.432	-155.3
196.651	-263.85
196.87	201.04
197.089	557.39
197.308	-208.55
197.528	-130.73
197.747	39.25
197.966	205.14
198.185	-116.39
198.404	-276.13
198.623	299.34
198.842	366.93
199.062	-120.49
199.281	-38.57
199.5	182.61
199.719	254.29
199.938	-177.83
200.157	-161.45
200.376	348.5
200.595	332.11
200.814	-50.86
201.033	-120.49
201.252	422.22
201.471	266.58
201.69	-147.11
201.909	-106.15
202.128	280.91
202.347	319.82
202.566	-183.98
202.785	-321.19
203.004	151.89
203.223	520.53
203.442	-251.56
203.661	-317.09
203.879	256.34
204.098	252.24
204.317	-229.03
204.536	61.78
204.755	332.11
204.974	293.2
205.193	-321.19
205.411	-81.58
205.63	344.4
205.849	184.66
206.068	-173.74
206.287	-218.79
206.505	418.13
206.724	198.99
206.943	-233.13
207.162	-120.49
207.381	188.75
207.599	209.23
207.818	-89.77
208.037	-278.18
208.255	180.56
208.474	207.19
208.693	-194.22
208.911	-284.33
209.13	362.83
209.349	315.73
209.567	-73.39
209.786	-132.78
210.005	303.44
210.223	178.51
210.442	-292.52
210.661	-347.81
210.879	264.53
211.098	205.14
211.316	-104.11
211.535	-83.63
211.753	125.27
211.972	244.05
212.191	-95.91
212.409	-79.53
212.628	313.68
212.846	112.98
213.065	-235.18
213.283	-134.82
213.502	131.41
213.72	162.13
213.938	-188.07
214.157	-220.84
214.375	280.91
214.594	147.8
214.812	-153.26
215.031	-177.83
215.249	160.08
215.467	274.77
215.686	-87.72
215.904	-122.54
216.122	211.28
216.341	285.01
216.559	-28.33
216.778	-81.58
216.996	389.46
217.214	254.29
217.432	-210.6
217.651	-253.61
217.869	248.15
218.087	158.03
218.306	-138.92
218.524	-163.5
218.742	172.37
218.96	323.92
219.179	-188.07
219.397	-173.74
219.615	506.19
219.833	182.61
220.051	-138.92
220.27	-77.48
220.488	364.88
220.706	188.75
220.924	-284.33
221.142	-186.02
221.36	217.43
221.578	145.75
221.796	-138.92
222.015	-81.58
222.233	307.54
222.451	430.41
222.669	-126.63
222.887	-106.15
223.105	51.54
223.323	131.41
223.541	-97.96
223.759	-104.11
223.977	166.23
224.195	397.65
224.413	-91.82
224.631	-159.4
224.849	162.13
225.067	512.33
225.285	-18.09
225.503	-183.98
225.721	-36.52
225.939	225.62
226.157	-85.67
226.375	84.31
226.592	158.03
226.81	145.75
227.028	-34.47
227.246	-108.2
227.464	184.66
227.682	344.4
227.9	-93.87
228.117	-110.25
228.335	280.91
228.553	225.62
228.771	-249.51
228.989	-169.64
229.206	299.34
229.424	162.13
229.642	-136.87
229.86	-122.54
230.077	330.06
230.295	297.3
230.513	-69.29
230.731	-181.93
230.948	395.6
231.166	403.79
231.384	-73.39
231.601	-143.02
231.819	405.84
232.037	37.2
232.254	-42.67
232.472	-177.83
232.689	67.92
232.907	301.39
233.125	-190.12
233.342	-235.18
233.56	176.47
233.777	43.35
233.995	-124.58
234.213	-194.22
234.43	305.49
234.648	176.47
234.865	-114.34
235.083	-38.57
235.3	155.99
235.518	295.25
235.735	-11.95
235.953	-122.54
236.17	293.2
236.388	72.02
236.605	-7.85
236.822	-59.05
237.04	287.06
237.257	215.38
237.475	-149.16
237.692	-147.11
237.909	268.63
238.127	129.36
238.344	-77.48
238.562	-95.91
238.779	43.35
238.996	-52.91
239.214	-34.47
239.431	-87.72
239.648	160.08
239.865	180.56
240.083	-67.24
240.3	-192.17
240.517	168.27
240.735	121.17
240.952	80.21
241.169	-118.44
241.386	229.71
241.603	141.65
241.821	-190.12
242.038	-95.91
242.255	381.26
242.472	37.2
242.689	-114.34
242.907	-159.4
243.124	117.08
243.341	127.32
243.558	-114.34
243.775	-136.87
243.992	90.45
244.209	270.67
244.426	-5.8
244.643	-100.01
244.86	180.56
245.078	252.24
245.295	-28.33
245.512	-126.63
245.729	82.26
245.946	250.19
246.163	-175.78
246.38	-159.4
246.597	211.28
246.814	196.95
247.031	-91.82
247.248	-247.46
247.464	330.06
247.681	266.58
247.898	-48.81
248.115	-79.53
248.332	74.07
248.549	403.79
248.766	-38.57
248.983	-81.58
249.2	309.58
249.417	311.63
249.633	-69.29
249.85	-73.39
250.067	176.47
250.284	158.03
250.501	-140.97
250.717	-89.77
250.934	55.64
251.151	133.46
251.368	-32.43
251.585	-89.77
251.801	192.85
252.018	72.02
252.235	-18.09
252.451	-126.63
252.668	147.8
252.885	250.19
253.102	-36.52
253.318	-140.97
253.535	168.27
253.752	110.93
253.968	-75.43
254.185	-222.89
254.401	172.37
254.618	213.33
254.835	-71.34
255.051	-61.1
255.268	317.78
255.484	223.57
255.701	-102.06
255.917	-97.96
256.134	139.6
256.351	115.03
256.567	-216.74
256.784	6.49
257	24.92
257.217	278.87
257.433	41.3
257.65	-153.26
257.866	309.58
258.082	10.58
258.299	-161.45
258.515	-110.25
258.732	180.56
258.948	117.08
259.165	51.54
259.381	-239.27
259.597	295.25
259.814	211.28
260.03	-145.06
260.246	-102.06
260.463	328.02
260.679	274.77
260.895	-145.06
261.112	-52.91
261.328	160.08
261.544	-26.28
261.761	-91.82
261.977	-138.92
262.193	39.25
262.409	325.97
262.626	2.39
262.842	-122.54
263.058	96.6
263.274	403.79
263.49	8.53
263.707	-143.02
263.923	258.39
264.139	24.92
264.355	-95.91
264.571	35.16
264.787	223.57
265.004	348.5
265.22	6.49
265.436	-104.11
265.652	209.23
265.868	246.1
266.084	-188.07
266.3	-169.64
266.516	39.25
266.732	164.18
266.948	-100.01
267.164	-145.06
267.38	244.05
267.596	330.06
267.812	26.96
268.028	-112.3
268.244	98.64
268.46	190.8
268.676	-65.19
268.892	43.35
269.108	6.49
269.324	6.49
269.54	-200.36
269.756	-95.91
269.972	69.97
270.188	153.94
270.403	-165.54
270.619	-95.91
270.835	237.91
271.051	125.27
271.267	-63.15
271.483	-128.68
271.698	332.11
271.914	217.43
272.13	-13.99
272.346	-85.67
272.562	174.42
272.777	303.44
272.993	-124.58
273.209	-112.3
273.425	256.34
273.64	45.4
273.856	-85.67
274.072	-208.55
274.287	94.55
274.503	117.08
274.719	59.73
274.934	-175.78
275.15	-40.62
275.366	125.27
275.581	-181.93
275.797	-52.91
276.012	168.27
276.228	127.32
276.444	-120.49
276.659	98.64
276.875	108.88
277.09	59.73
277.306	-91.82
277.521	-24.23
277.737	211.28
277.952	196.95
278.168	-83.63
278.383	2.39
278.599	166.23
278.814	295.25
279.03	-91.82
279.245	43.35
279.461	160.08
279.676	203.09
279.892	-122.54
280.107	-128.68
280.322	80.21
280.538	252.24
280.753	-116.39
280.969	-134.82
281.184	174.42
281.399	201.04
281.615	-87.72
281.83	18.77
282.045	4.44
282.26	80.21
282.476	-44.71
282.691	33.11
282.906	264.53
283.122	84.31
283.337	-87.72
283.552	24.92
283.767	143.7
283.983	192.85
284.198	-61.1
284.413	-91.82
284.628	-7.85
284.843	211.28
285.058	-116.39
285.274	-126.63
285.489	145.75
285.704	141.65
285.919	-63.15
286.134	-50.86
286.349	82.26
286.564	131.41
286.779	29.01
286.995	-40.62
287.21	-36.52
287.425	172.37
287.64	10.58
287.855	117.08
288.07	-46.76
288.285	297.3
288.5	55.64
288.715	63.83
288.93	188.75
289.145	24.92
289.36	-40.62
289.575	33.11
289.79	366.93
290.004	127.32
290.219	51.54
290.434	-83.63
290.649	67.92
290.864	125.27
291.079	20.82
291.294	39.25
291.509	188.75
291.724	133.46
291.938	-71.34
292.153	-20.14
292.368	164.18
292.583	278.87
292.798	20.82
293.012	12.63
293.227	229.71
293.442	139.6
293.657	82.26
293.871	-85.67
294.086	248.15
294.301	297.3
294.516	-30.38
294.73	74.07
294.945	59.73
295.16	131.41
295.374	18.77
295.589	31.06
295.804	2.39
296.018	203.09
296.233	-81.58
296.447	51.54
296.662	174.42
296.877	364.88
297.091	-28.33
297.306	10.58
297.52	41.3
297.735	184.66
297.949	92.5
298.164	-153.26
298.378	205.14
298.593	-46.76
298.807	-69.29
299.022	57.68
299.236	387.41
299.451	35.16
299.665	-16.04
299.88	-5.8
300.094	207.19
300.309	119.12
300.523	6.49
300.737	-22.19
300.952	182.61
301.166	250.19
301.381	-71.34
301.595	-149.16
301.809	104.79
302.024	153.94
302.238	-52.91
302.452	100.69
302.667	141.65
302.881	311.63
303.095	20.82
303.309	43.35
303.524	123.22
303.738	100.69
303.952	8.53
304.166	24.92
304.381	-124.58
304.595	272.72
304.809	22.87
305.023	-71.34
305.237	127.32
305.452	90.45
305.666	-52.91
305.88	24.92
306.094	287.06
306.308	227.67
306.522	-61.1
306.736	104.79
306.95	231.76
307.164	-13.99
307.379	8.53
307.593	127.32
307.807	299.34
308.021	272.72
308.235	90.45
308.449	-89.77
308.663	106.84
308.877	465.23
309.091	35.16
309.305	14.68
309.519	-151.21
309.733	188.75
309.947	-61.1
310.161	-81.58
310.374	174.42
310.588	323.92
310.802	-91.82
311.016	10.58
311.23	213.33
311.444	-9.9
311.658	20.82
311.872	135.51
312.085	282.96
312.299	260.43
312.513	155.99
312.727	-63.15
312.941	67.92
313.154	133.46
313.368	43.35
313.582	-1.71
313.796	198.99
314.009	153.94
314.223	117.08
314.437	84.31
314.651	203.09
314.864	106.84
315.078	-59.05
315.292	-151.21
315.505	82.26
315.719	145.75
315.933	201.04
316.146	-95.91
316.36	0.34
316.573	233.81
316.787	96.6
317.001	117.08
317.214	-11.95
317.428	201.04
317.641	-67.24
317.855	-11.95
318.068	162.13
318.282	211.28
318.495	106.84
318.709	-28.33
318.922	168.27
319.136	295.25
319.349	18.77
319.563	-28.33
319.776	293.2
319.99	-69.29
320.203	8.53
320.417	-7.85
320.63	112.98
320.843	278.87
321.057	96.6
321.27	-95.91
321.483	246.1
321.697	188.75
321.91	-52.91
322.124	74.07
322.337	190.8
322.55	82.26
322.763	24.92
322.977	-54.95
323.19	57.68
323.403	176.47
323.617	-38.57
323.83	139.6
324.043	162.13
324.256	184.66
324.469	-241.32
324.683	86.36
324.896	121.17
325.109	8.53
325.322	-46.76
325.535	100.69
325.748	266.58
325.962	133.46
326.175	20.82
326.388	20.82
326.601	190.8
326.814	125.27
327.027	24.92
327.24	67.92
327.453	-38.57
327.666	96.6
327.879	180.56
328.092	37.2
328.305	215.38
328.518	69.97
328.731	-77.48
328.944	-79.53
329.157	174.42
329.37	80.21
329.583	162.13
329.796	67.92
330.009	-32.43
330.222	246.1
330.435	86.36
330.648	-5.8
330.861	198.99
331.073	153.94
331.286	39.25
331.499	31.06
331.712	31.06
331.925	90.45
332.138	-59.05
332.35	10.58
332.563	45.4
332.776	334.16
332.989	55.64
333.202	-138.92
333.414	184.66
333.627	53.59
333.84	-42.67
334.053	37.2
334.265	69.97
334.478	82.26
334.691	-7.85
334.903	104.79
335.116	125.27
335.329	119.12
335.541	16.73
335.754	166.23
335.966	119.12
336.179	127.32
336.392	6.49
336.604	-11.95
336.817	201.04
337.029	162.13
337.242	-54.95
337.454	-28.33
337.667	149.84
337.88	317.78
338.092	24.92
338.305	55.64
338.517	96.6
338.729	260.43
338.942	49.49
339.154	-54.95
339.367	-24.23
339.579	176.47
339.792	-155.3
340.004	2.39
340.217	160.08
340.429	196.95
340.641	-91.82
340.854	-151.21
341.066	194.9
341.278	213.33
341.491	145.75
341.703	31.06
341.915	98.64
342.128	258.39
342.34	76.12
342.552	-91.82
342.764	153.94
342.977	39.25
343.189	63.83
343.401	108.88
343.613	35.16
343.826	108.88
344.038	-44.71
344.25	98.64
344.462	51.54
344.674	143.7
344.886	-40.62
345.099	-50.86
345.311	170.32
345.523	6.49
345.735	-130.73
345.947	98.64
346.159	158.03
346.371	129.36
346.583	-65.19
346.795	127.32
347.007	22.87
347.219	137.56
347.431	51.54
347.643	170.32
347.855	14.68
348.067	254.29
348.279	10.58
348.491	-63.15
348.703	274.77
348.915	108.88
349.127	-42.67
349.339	-61.1
349.551	145.75
349.763	260.43
349.975	-18.09
350.187	14.68
350.399	311.63
350.61	231.76
350.822	2.39
351.034	-13.99
351.246	229.71
351.458	98.64
351.669	143.7
351.881	-102.06
352.093	323.92
352.305	264.53
352.517	-3.75
352.728	92.5
352.94	112.98
353.152	227.67
353.363	-93.87
353.575	78.16
353.787	446.8
353.999	252.24
354.21	112.98
354.422	-46.76
354.633	127.32
354.845	225.62
355.057	12.63
355.268	20.82
355.48	270.67
355.692	-30.38
355.903	31.06
356.115	-149.16
356.326	-112.3
356.538	383.31
356.749	76.12
356.961	110.93
357.172	155.99
357.384	14.68
357.595	225.62
357.807	-18.09
358.018	67.92
358.23	221.52
358.441	-54.95
358.653	-3.75
358.864	67.92
359.075	41.3
359.287	-9.9
359.498	117.08
359.709	248.15
359.921	147.8
360.132	45.4
360.344	-114.34
360.555	65.88
360.766	158.03
360.977	-59.05
361.189	147.8
361.4	117.08
361.611	207.19
361.823	84.31
362.034	20.82
362.245	-100.01
362.456	47.44
362.667	94.55
362.879	-54.95
363.09	227.67
363.301	205.14
363.512	-38.57
363.723	-54.95
363.935	133.46
364.146	239.95
364.357	-28.33
364.568	-42.67
364.779	-26.28
364.99	291.15
365.201	-11.95
365.412	98.64
365.623	10.58
365.834	211.28
366.045	-3.75
366.256	29.01
366.467	207.19
366.678	94.55
366.889	78.16
367.1	-85.67
367.311	237.91
367.522	31.06
367.733	131.41
367.944	26.96
368.155	196.95
368.366	139.6
368.577	98.64
368.788	184.66
368.999	110.93
369.209	151.89
369.42	102.74
369.631	395.6
369.842	188.75
370.053	145.75
370.264	22.87
370.474	-114.34
370.685	260.43
370.896	117.08
371.107	115.03
371.317	-36.52
371.528	137.56
371.739	289.1
371.95	29.01
372.16	69.97
372.371	-38.57
372.582	135.51
372.792	2.39
373.003	29.01
373.214	102.74
373.424	186.71
373.635	-44.71
373.846	145.75
374.056	209.23
374.267	67.92
374.477	49.49
374.688	-20.14
374.898	248.15
375.109	194.9
375.319	33.11
375.53	31.06
375.74	209.23
375.951	49.49
376.161	39.25
376.372	61.78
376.582	-3.75
376.793	162.13
377.003	-71.34
377.214	-48.81
377.424	252.24
377.635	112.98
377.845	6.49
378.055	170.32
378.266	-22.19
378.476	176.47
378.686	80.21
378.897	20.82
379.107	285.01
379.317	256.34
379.528	-120.49
379.738	74.07
379.948	-26.28
380.158	250.19
380.369	82.26
380.579	133.46
380.789	233.81
380.999	151.89
381.21	215.38
381.42	180.56
381.63	190.8
381.84	262.48
382.05	65.88
382.261	145.75
382.471	252.24
382.681	72.02
382.891	94.55
383.101	104.79
383.311	22.87
383.521	115.03
383.731	-48.81
383.941	94.55
384.151	170.32
384.361	43.35
384.571	-22.19
384.781	45.4
384.991	207.19
385.201	387.41
385.411	188.75
385.621	29.01
385.831	135.51
386.041	180.56
386.251	51.54
386.461	57.68
386.671	180.56
386.881	106.84
387.091	-89.77
387.301	141.65
387.511	119.12
387.72	153.94
387.93	16.73
388.14	-97.96
388.35	192.85
388.56	334.16
388.769	67.92
388.979	16.73
389.189	45.4
389.399	160.08
389.609	16.73
389.818	10.58
390.028	221.52
390.238	190.8
390.447	-59.05
390.657	10.58
390.867	151.89
391.076	-67.24
391.286	-18.09
391.496	20.82
391.705	123.22
391.915	274.77
392.125	-5.8
392.334	92.5
392.544	340.3
392.753	55.64
392.963	-26.28
393.172	-24.23
393.382	131.41
393.591	256.34
393.801	18.77
394.01	2.39
394.22	153.94
394.429	160.08
394.639	153.94
394.848	43.35
395.058	266.58
395.267	96.6
395.477	14.68
395.686	57.68
395.895	416.08
396.105	299.34
396.314	-13.99
396.524	10.58
396.733	149.84
396.942	260.43
397.152	-20.14
397.361	170.32
397.57	121.17
397.78	84.31
397.989	98.64
398.198	215.38
398.407	78.16
398.617	125.27
398.826	18.77
399.035	-30.38
399.244	221.52
399.453	170.32
399.663	-7.85
399.872	-20.14
400.081	18.77
400.29	268.63
400.499	-40.62
400.708	33.11
400.917	139.6
401.127	90.45
401.336	-81.58
401.545	282.96
401.754	332.11
401.963	293.2
402.172	-11.95
402.381	-7.85
402.59	110.93
402.799	137.56
403.008	201.04
403.217	-42.67
403.426	160.08
403.635	-30.38
403.844	-67.24
404.053	-89.77
404.262	143.7
404.471	295.25
404.68	29.01
404.888	24.92
405.097	92.5
405.306	88.4
405.515	102.74
405.724	-16.04
405.933	293.2
406.142	215.38
406.35	47.44
406.559	20.82
406.768	112.98
406.977	405.84
407.185	72.02
407.394	80.21
407.603	41.3
407.812	123.22
408.02	121.17
408.229	-9.9
408.438	231.76
408.646	-30.38
408.855	-102.06
409.064	-28.33
409.272	94.55
409.481	231.76
409.69	-42.67
409.898	10.58
410.107	182.61
410.315	221.52
410.524	78.16
410.733	-20.14
410.941	188.75
411.15	239.95
411.358	-5.8
411.567	158.03
411.775	188.75
411.984	92.5
412.192	121.17
412.401	104.79
412.609	397.65
412.818	299.34
413.026	100.69
413.234	6.49
413.443	135.51
413.651	84.31
413.86	-120.49
414.068	198.99
414.276	407.89
414.485	43.35
414.693	135.51
414.901	250.19
415.11	201.04
415.318	215.38
415.526	18.77
415.734	176.47
415.943	162.13
416.151	239.95
416.359	45.4
416.567	96.6
416.776	282.96
416.984	207.19
417.192	155.99
417.4	-59.05
417.608	110.93
417.817	57.68
418.025	201.04
418.233	-7.85
418.441	69.97
418.649	-114.34
418.857	69.97
419.065	153.94
419.273	108.88
419.481	158.03
419.689	53.59
419.897	-16.04
420.105	51.54
420.313	248.15
420.521	147.8
420.729	147.8
420.937	170.32
421.145	-32.43
421.353	47.44
421.561	119.12
421.769	209.23
421.977	67.92
422.185	67.92
422.393	12.63
422.601	227.67
422.809	166.23
423.017	106.84
423.224	69.97
423.432	303.44
423.64	133.46
423.848	-48.81
424.056	-50.86
424.263	256.34
424.471	55.64
424.679	135.51
424.887	-77.48
425.094	328.02
425.302	205.14
425.51	-100.01
425.718	2.39
425.925	192.85
426.133	-77.48
426.341	158.03
426.548	26.96
426.756	108.88
426.964	176.47
427.171	43.35
427.379	69.97
427.586	229.71
427.794	196.95
428.001	143.7
428.209	108.88
428.417	364.88
428.624	244.05
428.832	104.79
429.039	137.56
429.247	141.65
429.454	211.28
429.662	82.26
429.869	55.64
430.076	215.38
430.284	158.03
430.491	69.97
430.699	166.23
430.906	368.98
431.114	153.94
431.321	69.97
431.528	121.17
431.736	180.56
431.943	182.61
432.15	22.87
432.358	72.02
432.565	397.65
432.772	-112.3
432.979	145.75
433.187	84.31
433.394	373.07
433.601	78.16
433.808	139.6
434.016	143.7
434.223	256.34
434.43	244.05
434.637	45.4
434.844	198.99
435.052	231.76
435.259	219.47
435.466	110.93
435.673	119.12
435.88	258.39
436.087	379.22
436.294	311.63
436.501	180.56
436.708	262.48
436.915	282.96
437.122	233.81
437.329	-52.91
437.537	166.23
437.743	217.43
437.95	270.67
438.157	92.5
438.364	225.62
438.571	160.08
438.778	100.69
438.985	119.12
439.192	305.49
439.399	264.53
439.606	143.7
439.813	192.85
440.02	475.47
440.227	491.85
440.433	278.87
440.64	198.99
440.847	295.25
441.054	258.39
441.261	231.76
441.467	182.61
441.674	221.52
441.881	323.92
442.088	65.88
442.294	225.62
442.501	387.41
442.708	506.19
442.914	143.7
443.121	180.56
443.328	332.11
443.534	489.81
443.741	184.66
443.948	74.07
444.154	360.78
444.361	530.77
444.568	198.99
444.774	323.92
444.981	203.09
445.187	512.33
445.394	233.81
445.6	276.82
445.807	381.26
446.013	385.36
446.22	125.27
446.426	311.63
446.633	387.41
446.839	573.77
447.046	129.36
447.252	401.74
447.459	405.84
447.665	436.56
447.871	323.92
448.078	635.21
448.284	573.77
448.491	543.05
448.697	508.24
448.903	495.95
449.11	651.6
449.316	473.42
449.522	643.4
449.728	518.48
449.935	608.59
450.141	627.02
450.347	592.2
450.553	516.43
450.76	643.4
450.966	592.2
451.172	684.36
451.378	602.44
451.584	825.67
451.791	948.55
451.997	676.17
452.203	606.54
452.409	1059.14
452.615	1065.29
452.821	710.99
453.027	713.03
453.233	1126.72
453.44	885.06
453.646	782.67
453.852	854.34
454.058	780.62
454.264	1059.14
454.47	995.65
454.676	893.26
454.882	1077.57
455.088	1175.88
455.294	907.59
455.5	1134.92
455.705	1096
455.911	1151.3
456.117	905.54
456.323	997.7
456.529	1128.77
456.735	1186.12
456.941	1059.14
457.147	1120.58
457.352	1200.45
457.558	1108.29
457.764	1085.76
457.97	1024.33
458.176	1192.26
458.381	1116.48
458.587	1179.97
458.793	1263.94
458.999	1083.72
459.204	1184.07
459.41	1022.28
459.616	1134.92
459.821	1288.51
460.027	966.98
460.233	1182.02
460.438	1079.62
460.644	1177.92
460.85	1155.4
461.055	1202.5
461.261	1128.77
461.466	1034.57
461.672	1141.06
461.878	921.93
462.083	1063.24
462.289	948.55
462.494	1081.67
462.7	1009.99
462.905	899.4
463.111	1145.16
463.316	1188.16
463.522	989.51
463.727	952.65
463.932	1069.38
464.138	1081.67
464.343	995.65
464.549	1009.99
464.754	1253.7
464.959	1280.32
465.165	964.93
465.37	936.26
465.575	860.49
465.781	985.41
465.986	811.34
466.191	833.86
466.397	1003.85
466.602	1167.68
466.807	952.65
467.012	911.69
467.218	1077.57
467.423	915.78
467.628	868.68
467.833	897.35
468.038	948.55
468.244	846.15
468.449	897.35
468.654	835.91
468.859	950.6
469.064	921.93
469.269	747.85
469.474	776.52
469.679	1055.05
469.885	1032.52
470.09	878.92
470.295	866.63
470.5	903.5
470.705	1126.72
470.91	926.02
471.115	817.48
471.32	1034.57
471.525	1136.96
471.73	887.11
471.935	919.88
472.139	784.71
472.344	874.82
472.549	792.91
472.754	874.82
472.959	995.65
473.164	1100.1
473.369	911.69
473.574	971.08
473.778	1003.85
473.983	1061.19
474.188	997.7
474.393	866.63
474.598	993.61
474.802	1048.9
475.007	936.26
475.212	954.69
475.417	985.41
475.621	1085.76
475.826	764.23
476.031	880.97
476.235	936.26
476.44	1050.95
476.645	831.82
476.849	702.79
477.054	835.91
477.259	1034.57
477.463	1001.8
477.668	997.7
477.872	1302.85
478.077	936.26
478.282	766.28
478.486	895.3
478.691	950.6
478.895	919.88
479.1	962.89
479.304	1059.14
479.509	979.27
479.713	1225.03
479.918	962.89
480.122	897.35
480.326	1003.85
480.531	964.93
480.735	971.08
480.94	837.96
481.144	1157.44
481.348	973.13
481.553	946.5
481.757	989.51
481.961	981.32
482.166	1026.37
482.37	897.35
482.574	911.69
482.778	981.32
482.983	1179.97
483.187	903.5
483.391	1032.52
483.595	1026.37
483.8	1116.48
484.004	1005.89
484.208	991.56
484.412	1288.51
484.616	1114.44
484.821	946.5
485.025	956.74
485.229	1020.23
485.433	1175.88
485.637	977.22
485.841	1032.52
486.045	1255.75
486.249	1272.13
486.453	940.36
486.657	973.13
486.861	960.84
487.065	1171.78
487.269	954.69
487.473	936.26
487.677	1276.23
487.881	1423.68
488.085	1057.09
488.289	1085.76
488.493	1163.59
488.697	1466.69
488.901	1257.79
489.105	1083.72
489.309	1247.55
489.512	1495.36
489.716	1235.27
489.92	1255.75
490.124	1356.1
490.328	1454.4
490.531	1329.47
490.735	1370.43
490.939	1337.66
491.143	1399.1
491.346	1319.23
491.55	1399.1
491.754	1380.67
491.958	1478.97
492.161	1366.34
492.365	1390.91
492.569	1483.07
492.772	1599.8
492.976	1507.65
493.18	1550.65
493.383	1616.19
493.587	1610.04
493.79	1589.57
493.994	1466.69
494.197	1669.44
494.401	1796.41
494.605	1526.08
494.808	1593.66
495.012	1728.83
495.215	1896.76
495.419	1794.36
495.622	1648.96
495.825	1874.23
496.029	1792.31
496.232	1874.23
496.436	1872.18
496.639	2193.72
496.843	1849.66
497.046	1863.99
497.249	2040.12
497.453	2119.99
497.656	2079.03
497.859	2011.45
498.063	2036.02
498.266	2314.55
498.469	2019.64
498.673	2068.79
498.876	2074.93
499.079	2130.23
499.282	2306.35
499.485	2351.41
499.689	2468.14
499.892	2668.84
500.095	2498.86
500.298	2502.96
500.501	2511.15
500.705	2683.18
500.908	2838.83
501.111	2586.93
501.314	2707.76
501.517	3000.62
501.72	2992.42
501.923	2941.22
502.126	2918.7
502.329	3260.71
502.532	3260.71
502.735	3129.64
502.938	3385.63
503.141	3424.55
503.344	3264.8
503.547	3526.94
503.75	3367.2
503.953	3469.6
504.156	3842.33
504.359	3647.77
504.562	3678.49
504.765	3950.87
504.968	4026.65
505.17	4059.42
505.373	4006.17
505.576	4376.85
505.779	4387.09
505.982	4284.69
506.185	4442.39
506.387	4507.92
506.59	4825.36
506.793	4765.96
506.996	4741.39
507.198	5060.87
507.401	5189.89
507.604	5024.01
507.807	5255.43
508.009	5452.03
508.212	5556.48
508.415	5445.89
508.617	5607.68
508.82	5775.61
509.022	5683.45
509.225	5875.96
509.428	6064.38
509.63	6177.02
509.833	6111.48
510.035	6678.77
510.238	6496.5
510.44	6646
510.643	6940.91
510.845	6951.15
511.048	6959.34
511.25	7149.8
511.453	7360.74
511.655	7622.88
511.858	7561.44
512.06	7921.88
512.262	7925.98
512.465	7758.05
512.667	8040.67
512.87	8224.98
513.072	8659.15
513.274	8560.85
513.477	8546.51
513.679	9179.34
513.881	9195.72
514.084	9097.42
514.286	9412.81
514.488	9781.44
514.69	10031.29
514.893	9875.65
515.095	9924.8
515.297	10256.57
515.499	10451.13
515.701	10582.2
515.904	10782.9
516.106	11487.4
516.308	11323.56
516.51	11563.17
516.712	11667.62
516.914	11952.29
517.116	12001.44
517.318	12218.52
517.52	12451.99
517.722	12773.52
517.925	12904.59
518.127	12992.66
518.329	13416.58
518.531	13203.6
518.733	13783.17
518.935	14043.26
519.136	14213.24
519.338	14370.94
519.54	14684.28
519.742	14747.76
519.944	15116.4
520.146	15665.25
520.348	15659.11
520.55	15913.06
520.752	15882.34
520.954	16365.66
521.155	16283.74
521.357	16541.78
521.559	16988.24
521.761	17547.34
521.963	17434.7
522.164	17487.95
522.366	17692.74
522.568	18022.47
522.77	18483.26
522.971	18470.97
523.173	18499.64
523.375	19136.56
523.576	19273.78
523.778	18845.75
523.98	19423.28
524.181	19824.68
524.383	19638.31
524.584	20303.9
524.786	20256.8
524.988	20434.97
525.189	20916.25
525.391	21121.04
525.592	21190.67
525.794	21618.7
525.995	21481.49
526.197	21549.07
526.398	22222.85
526.6	21979.14
526.801	22403.07
527.003	22181.89
527.204	22597.63
527.406	23107.57
527.607	23066.61
527.808	23271.41
528.01	23003.13
528.211	23715.82
528.412	23891.94
528.614	24004.58
528.815	23941.1
529.016	24272.87
529.218	24580.06
529.419	24643.55
529.62	24635.36
529.822	24850.39
530.023	24592.35
530.224	24653.79
530.425	25178.07
530.626	24774.62
530.828	24864.73
531.029	25415.63
531.23	25380.82
531.431	25751.5
531.632	25751.5
531.833	25663.44
532.035	25956.3
532.236	25812.94
532.437	26515.39
532.638	26038.22
532.839	26015.69
533.04	26449.86
533.241	26562.5
533.442	26937.27
533.643	26281.92
533.844	26509.25
534.045	26992.57
534.246	26771.39
534.447	26998.71
534.648	26808.25
534.849	27391.92
535.05	26838.97
535.251	26841.02
535.451	26869.69
535.652	27310
535.853	27355.06
536.054	27428.79
536.255	27496.37
536.456	27322.29
536.657	27623.34
536.857	27410.36
537.058	27596.72
537.259	28077.99
537.46	28190.63
537.66	27371.44
537.861	27719.6
538.062	27717.55
538.263	27703.21
538.463	28026.79
538.664	28088.23
538.865	28272.55
539.065	28227.49
539.266	27971.5
539.466	28202.92
539.667	27983.79
539.868	28528.55
540.068	28110.76
540.269	28477.35
540.469	28489.63
540.67	28399.52
540.87	28503.97
541.071	28274.6
541.271	28651.42
541.472	28403.62
541.672	28473.25
541.873	28147.62
542.073	28231.59
542.274	28770.21
542.474	28342.18
542.675	28307.37
542.875	29022.11
543.075	28532.64
543.276	28522.4
543.476	28831.65
543.676	28743.58
543.877	28993.43
544.077	28925.85
544.277	28977.05
544.478	29099.93
544.678	28872.6
544.878	29046.68
545.078	29142.94
545.279	28798.88
545.479	29134.74
545.679	29104.03
545.879	28895.13
546.079	29319.06
546.28	28608.42
546.48	28960.67
546.68	29671.31
546.88	29366.17
547.08	29380.5
547.28	29265.81
547.48	28784.54
547.68	29278.1
547.88	29239.19
548.081	29558.67
548.281	29443.99
548.481	29267.86
548.681	29632.4
548.881	29413.27
549.081	29558.67
549.28	29646.74
549.48	29681.55
549.68	29581.2
549.88	29929.36
550.08	29382.55
550.28	29685.65
550.48	29372.31
550.68	29925.26
550.88	29687.7
551.08	29616.02
551.279	29845.39
551.479	29718.42
551.679	29872.01
551.879	29855.63
552.079	30011.28
552.278	29951.88
552.478	30130.06
552.678	29730.7
552.878	30300.04
553.077	29970.32
553.277	29411.22
553.477	30488.45
553.676	29767.57
553.876	29900.69
554.076	29681.55
554.275	30033.8
554.475	29716.37
554.674	30236.55
554.874	30154.63
555.074	29796.24
555.273	29958.03
555.473	30054.28
555.672	30046.09
555.872	29915.02
556.071	29929.36
556.271	30424.97
556.47	29955.98
556.67	29573.01
556.869	29675.41
557.068	29976.46
557.268	29702.03
557.467	29368.21
557.667	30052.23
557.866	29595.54
558.065	29747.09
558.265	29656.98
558.464	29464.47
558.663	29794.19
558.863	29693.84
559.062	29687.7
559.261	28927.9
559.461	29720.46
559.66	29167.51
559.859	29108.12
560.058	29214.62
560.258	28954.52
560.457	28645.28
560.656	29353.88
560.855	28864.41
561.054	29091.74
561.253	28948.38
561.453	28659.62
561.652	28583.84
561.851	29140.89
562.05	28546.98
562.249	27971.5
562.448	28524.45
562.647	28407.72
562.846	28211.11
563.045	28340.13
563.244	27877.29
563.443	28645.28
563.642	27953.07
563.841	27885.48
564.04	27686.83
564.239	28151.72
564.438	27795.37
564.637	27516.85
564.836	27420.59
565.035	27109.3
565.234	27379.64
565.432	26937.27
565.631	26691.52
565.83	27414.45
566.029	26750.91
566.228	26732.48
566.427	26576.83
566.625	26314.69
566.824	26109.89
567.023	26331.08
567.222	25825.23
567.42	26621.89
567.619	25882.57
567.818	25710.54
568.016	25475.02
568.215	25749.45
568.414	25628.62
568.612	25472.98
568.811	25225.17
569.01	25284.56
569.208	24819.67
569.407	24967.13
569.605	24506.34
569.804	24893.4
570.002	24416.22
570.201	24553.44
570.4	24371.17
570.598	24395.75
570.797	24256.48
570.995	23807.98
571.193	23779.31
571.392	23873.51
571.59	23212.02
571.789	23480.3
571.987	23447.54
572.186	23488.49
572.384	22945.78
572.582	23029.75
572.781	23054.33
572.979	22624.25
573.177	22491.13
573.376	22689.79
573.574	22427.65
573.772	22724.6
573.971	22282.24
574.169	22132.74
574.367	22061.06
574.565	22280.19
574.763	21868.55
574.962	21602.32
575.16	21770.25
575.358	21569.55
575.556	21162
575.754	21360.66
575.952	21248.02
576.151	21657.61
576.349	21198.87
576.547	20809.75
576.745	20871.19
576.943	21075.99
577.141	20504.6
577.339	20852.76
577.537	20686.87
577.735	20738.07
577.933	20318.24
578.131	19978.28
578.329	20226.08
578.527	19976.23
578.725	20428.83
578.923	19863.59
579.121	19525.68
579.319	19470.38
579.516	19957.8
579.714	19771.43
579.912	19789.86
580.11	19560.49
580.308	19314.73
580.506	19271.73
580.704	18513.98
580.901	19183.66
581.099	19494.96
581.297	19187.76
581.495	18872.37
581.692	19263.54
581.89	18862.13
582.088	18995.25
582.285	18577.47
582.483	18745.4
582.681	18726.97
582.878	18751.54
583.076	18567.23
583.274	18509.88
583.471	18526.27
583.669	18270.27
583.866	17897.54
584.064	18131.01
584.262	18059.33
584.459	18079.81
584.657	17561.67
584.854	18475.07
585.052	18008.13
585.249	18016.32
585.447	17844.29
585.644	17631.3
585.841	17881.16
586.039	17653.83
586.236	17430.6
586.434	17526.86
586.631	17297.49
586.828	17346.64
587.026	17221.71
587.223	17502.28
587.42	17164.37
587.618	17268.81
587.815	17258.57
588.012	17090.64
588.21	16969.81
588.407	17272.91
588.604	16996.43
588.801	16633.94
588.999	16900.18
589.196	16978
589.393	16808.02
589.59	16791.64
589.787	16406.62
589.984	16554.07
590.182	16486.49
590.379	16523.35
590.576	16365.66
590.773	16373.85
590.97	16150.62
591.167	16425.05
591.364	16310.36
591.561	16400.48
591.758	16164.96
591.955	16492.63
592.152	16336.99
592.349	16095.33
592.546	16167.01
592.743	16506.97
592.94	15845.48
593.137	16425.05
593.334	16130.14
593.531	16005.22
593.727	16107.62
593.924	16046.18
594.121	15845.48
594.318	16353.37
594.515	15837.28
594.712	16013.41
594.908	15892.58
595.105	15935.59
595.302	15818.85
595.499	15800.42
595.696	15767.65
595.892	15781.99
596.089	15706.21
596.286	15673.45
596.482	15655.01
596.679	15886.43
596.876	15478.89
597.072	15546.47
597.269	15550.57
597.466	15603.82
597.662	15671.4
597.859	15362.15
598.055	15507.56
598.252	15624.29
598.448	15648.87
598.645	15456.36
598.841	15386.73
599.038	15624.29
599.234	15515.75
599.431	15427.69
599.627	15255.66
599.824	15691.88
600.02	15128.69
600.217	15202.41
600.413	15202.41
600.609	15253.61
600.806	15612.01
601.002	15313
601.198	14973.04
601.395	15333.48
601.591	15206.51
601.787	15188.08
601.984	15073.39
602.18	15351.92
602.376	15216.75
602.572	15149.17
602.769	15282.28
602.965	14733.43
603.161	15032.43
603.357	14792.82
603.553	15140.97
603.75	14944.37
603.946	14962.8
604.142	15046.77
604.338	14684.28
604.534	14839.92
604.73	14813.3
604.926	14823.54
605.122	14979.18
605.318	14674.04
605.514	14997.62
605.71	14164.09
605.906	14719.09
606.102	14768.24
606.298	14674.04
606.494	14823.54
606.69	14643.32
606.886	14637.17
607.082	14577.78
607.278	14514.3
607.474	14508.15
607.67	14635.13
607.866	14237.82
608.062	14510.2
608.257	14469.24
608.453	14360.7
608.649	14379.13
608.845	14258.3
609.041	13897.86
609.236	14667.89
609.432	14424.19
609.628	14221.44
609.824	14037.12
610.019	14289.02
610.215	13992.06
610.411	14215.29
610.606	14184.57
610.802	14164.09
610.998	13926.53
611.193	14203
611.389	13731.97
611.584	14307.45
611.78	14051.45
611.976	13846.66
612.171	14119.04
612.367	14182.52
612.562	13918.34
612.758	13686.92
612.953	13260.94
613.149	14035.07
613.344	13549.7
613.539	13734.02
613.735	13916.29
613.93	13838.47
614.126	13629.57
614.321	13611.14
614.517	13750.4
614.712	13740.16
614.907	13766.79
615.103	13529.22
615.298	13142.16
615.493	13527.17
615.688	13420.68
615.884	13590.66
616.079	13013.13
616.274	13488.26
616.47	13248.65
616.665	13113.49
616.86	13084.81
617.055	13174.92
617.25	13033.61
617.445	13330.57
617.641	12929.17
617.836	13072.53
618.031	12789.91
618.226	13017.23
618.421	12884.11
618.616	13119.63
618.811	12634.26
619.006	12896.4
619.201	12796.05
619.396	12845.2
619.591	12595.35
619.786	12800.15
619.981	12687.51
620.176	12642.45
620.371	12525.72
620.566	12435.61
620.761	12392.6
620.956	12587.16
621.151	12568.73
621.346	12685.46
621.541	12034.21
621.735	12667.03
621.93	12161.18
622.125	12214.43
622.32	11911.33
622.515	12083.36
622.709	12105.88
622.904	12116.12
623.099	11817.12
623.294	12112.03
623.488	11866.27
623.683	11831.46
623.878	11649.19
624.072	11886.75
624.267	11460.77
624.462	11718.82
624.656	11327.66
624.851	11587.75
625.046	11481.25
625.24	11284.65
625.435	11282.6
625.629	11323.56
625.824	11507.88
626.018	11423.91
626.213	11165.87
626.407	11149.48
626.602	11505.83
626.796	11253.93
626.991	11405.48
627.185	11253.93
627.38	11118.76
627.574	11071.66
627.768	10860.72
627.963	11194.54
628.157	11280.55
628.352	11126.96
628.546	10760.37
628.74	11022.51
628.935	10692.79
629.129	10901.68
629.323	10678.45
629.517	10684.59
629.712	10815.66
629.906	10600.63
630.1	10684.59
630.294	10928.3
630.489	10731.7
630.683	10782.9
630.877	10326.2
631.071	10721.46
631.265	10584.24
631.459	10463.41
631.653	10485.94
631.848	10662.07
632.042	10215.61
632.236	10324.15
632.43	10238.14
632.624	10469.56
632.818	10238.14
633.012	10148.03
633.206	10031.29
633.4	10303.67
633.594	10215.61
633.788	10076.35
633.982	10072.25
634.176	10248.38
634.369	10119.35
634.563	9932.99
634.757	9588.93
634.951	9861.31
635.145	9996.48
635.339	9703.62
635.533	9500.87
635.726	9693.38
635.92	9554.12
636.114	9265.35
636.308	9140.43
636.501	9259.21
636.695	9162.95
636.889	9064.65
637.083	9025.74
637.276	8706.26
637.47	8687.82
637.664	8898.77
637.857	8620.24
638.051	8851.66
638.244	8464.6
638.438	8517.84
638.632	8468.69
638.825	8134.87
639.019	8394.97
639.212	7864.54
639.406	7950.56
639.599	7905.5
639.793	8009.95
639.986	7651.55
640.18	7762.14
640.373	7702.75
640.567	7692.51
640.76	7612.64
640.954	7258.34
641.147	7170.28
641.34	7067.88
641.534	6979.82
641.727	6969.58
641.92	7063.79
642.114	6906.09
642.307	6729.97
642.5	6686.96
642.694	6547.7
642.887	6500.59
643.08	6426.87
643.273	6435.06
643.467	6342.9
643.66	6070.52
643.853	5982.46
644.046	5925.11
644.239	5855.48
644.432	5918.97
644.626	5429.51
644.819	5488.9
645.012	5529.86
645.205	5570.82
645.398	5431.55
645.591	5161.22
645.784	5175.56
645.977	5142.79
646.17	5112.07
646.363	4925.71
646.556	4813.07
646.749	4555.02
646.942	4892.94
647.135	4598.03
647.328	4632.85
647.521	4665.61
647.714	4335.89
647.907	4471.06
648.099	4512.02
648.292	4491.54
648.485	4335.89
648.678	4088.09
648.871	4342.04
649.064	4143.38
649.256	3979.54
649.449	3959.06
649.642	3776.8
649.835	3950.87
650.027	3885.34
650.22	3975.45
650.413	3940.63
650.605	3838.23
650.798	3631.39
650.991	3574.05
651.183	3709.21
651.376	3787.04
651.568	3666.21
651.761	3438.88
651.954	3735.84
652.146	3463.46
652.339	3471.65
652.531	3475.74
652.724	3361.06
652.916	3293.48
653.109	3090.73
653.301	3328.29
653.494	3475.74
653.686	3295.52
653.879	3193.12
654.071	3377.44
654.263	3232.04
654.456	3172.64
654.648	3094.82
654.84	3043.62
655.033	3123.49
655.225	3459.36
655.417	2840.87
655.61	3002.66
655.802	3172.64
655.994	3166.5
656.186	2771.24
656.379	2994.47
656.571	2885.93
656.763	2988.33
656.955	2750.76
657.148	2730.28
657.34	3127.59
657.532	2808.11
657.724	2761
657.916	2664.75
658.108	2947.37
658.3	2863.4
658.492	2726.19
658.684	2554.16
658.876	2771.24
659.068	2396.46
659.26	2281.78
659.452	2251.06
659.644	2558.25
659.836	2756.91
660.028	2470.19
660.22	2183.48
660.412	2347.31
660.604	2375.99
660.796	2289.97
660.988	2238.77
661.18	2210.1
661.372	2154.8
661.563	2134.32
661.755	1884.47
661.947	2097.46
662.139	1978.68
662.331	1972.54
662.522	1866.04
662.714	1917.24
662.906	1880.38
663.097	1886.52
663.289	1745.21
663.481	1630.52
663.673	1851.71
663.864	1614.14
664.056	1712.44
664.247	1622.33
664.439	1814.84
664.631	1616.19
664.822	1642.81
665.014	1620.28
665.205	1550.65
665.397	1524.03
665.588	1505.6
665.78	1583.42
665.971	1601.85
666.163	1358.14
666.354	1411.39
666.546	1268.03
666.737	1378.62
666.929	1274.18
667.12	1220.93
667.311	1433.92
667.503	1296.71
667.694	1225.03
667.885	1208.64
668.077	1335.62
668.268	1087.81
668.459	1036.61
668.651	1196.36
668.842	1302.85
669.033	1081.67
669.224	1034.57
669.416	1241.41
669.607	952.65
669.798	1024.33
669.989	952.65
670.18	919.88
670.371	1198.4
670.563	895.3
670.754	1067.33
670.945	903.5
671.136	1206.59
671.327	987.46
671.518	811.34
671.709	1003.85
671.9	1118.53
672.091	1169.73
672.282	813.38
672.473	772.43
672.664	807.24
672.855	872.78
673.046	870.73
673.237	811.34
673.428	870.73
673.619	915.78
673.809	676.17
674	856.39
674.191	1024.33
674.382	848.2
674.573	846.15
674.764	792.91
674.954	1044.81
675.145	829.77
675.336	661.84
675.527	678.22
675.717	717.13
675.908	713.03
676.099	655.69
676.289	694.6
676.48	622.92
676.671	864.58
676.861	600.4
677.052	655.69
677.243	837.96
677.433	729.42
677.624	686.41
677.814	723.27
678.005	799.05
678.195	962.89
678.386	692.55
678.576	631.12
678.767	526.67
678.957	776.52
679.148	690.51
679.338	702.79
679.529	891.21
679.719	774.47
679.909	764.23
680.1	616.78
680.29	928.07
680.481	555.34
680.671	727.37
680.861	637.26
681.052	852.3
681.242	688.46
681.432	715.08
681.622	688.46
681.813	655.69
682.003	772.43
682.193	567.63
682.383	745.8
682.573	782.67
682.764	698.7
682.954	797
683.144	885.06
683.334	805.19
683.524	921.93
683.714	797
683.904	858.44
684.094	983.37
684.284	913.74
684.474	893.26
684.664	844.1
684.854	1036.61
685.044	936.26
685.234	950.6
685.424	962.89
685.614	938.31
685.804	1206.59
685.994	1079.62
686.184	1081.67
686.374	1300.8
686.564	1151.3
686.753	1249.6
686.943	1059.14
687.133	1237.31
687.323	1222.98
687.513	1177.92
687.702	1175.88
687.892	1347.9
688.082	1636.67
688.272	1474.88
688.461	1468.73
688.651	1767.74
688.841	1667.39
689.03	1450.3
689.22	1628.48
689.41	1939.77
689.599	1900.86
689.789	1769.79
689.979	2005.3
690.168	1827.13
690.358	2117.94
690.547	2119.99
690.737	2115.89
690.926	2279.73
691.116	2343.22
691.305	2357.55
691.495	2474.29
691.684	2457.9
691.874	2627.89
692.063	2505.01
692.252	2697.52
692.442	2971.94
692.631	2804.01
692.82	2836.78
693.01	3084.58
693.199	3150.12
693.388	3391.78
693.578	3365.15
693.767	3412.26
693.956	3666.21
694.146	3606.81
694.335	3666.21
694.524	3750.17
694.713	4112.66
694.902	3979.54
695.092	3979.54
695.281	4018.46
695.47	4243.73
695.659	4286.74
695.848	4202.77
696.037	4458.77
696.226	4700.43
696.415	4626.7
696.604	4935.95
696.793	4821.26
696.982	4946.19
697.171	5220.61
697.36	4878.6
697.549	5097.74
697.738	5050.63
697.927	5396.74
698.116	5163.27
698.305	5525.76
698.494	5714.17
698.683	5720.32
698.872	5820.67
699.061	5746.94
699.25	6039.8
699.438	6174.97
699.627	6033.66
699.816	6332.66
700.005	6314.23
700.193	6392.05
700.382	6177.02
700.571	6523.12
700.76	6822.13
700.948	6721.77
701.137	6559.99
701.326	6809.84
701.514	6719.73
701.703	7108.84
701.892	6918.38
702.08	7133.42
702.269	7231.72
702.457	7086.31
702.646	7160.04
702.834	7112.94
703.023	7289.06
703.212	7602.4
703.4	7246.05
703.589	7293.16
703.777	7428.32
703.965	7368.93
704.154	7588.07
704.342	7416.04
704.531	7893.21
704.719	7835.87
704.907	7799.01
705.096	7586.02
705.284	7780.57
705.472	7925.98
705.661	7864.54
705.849	7938.27
706.037	8392.92
706.226	8061.15
706.414	8124.63
706.602	8089.82
706.79	8278.23
706.979	8200.41
707.167	8079.58
707.355	8108.25
707.543	8480.98
707.731	8286.42
707.919	8372.44
708.107	8235.22
708.296	8405.21
708.484	8311
708.672	8362.2
708.86	8306.9
709.048	8440.02
709.236	8272.09
709.424	8657.11
709.612	8472.79
709.8	8628.43
709.988	8556.75
710.176	8521.94
710.364	8612.05
710.551	8456.4
710.739	8591.57
710.927	8448.21
711.115	8458.45
711.303	8839.37
711.491	8751.31
711.679	8474.84
711.866	8614.1
712.054	8841.42
712.242	8653.01
712.43	8722.64
712.617	8546.51
712.805	8790.22
712.993	8622.29
713.181	8349.91
713.368	8601.81
713.556	8913.1
713.744	8755.41
713.931	8802.51
714.119	8599.76
714.306	8730.83
714.494	8689.87
714.682	8558.8
714.869	8577.23
715.057	8866
715.244	8685.78
715.432	8655.06
715.619	8554.71
715.807	8808.65
715.994	8556.75
716.182	8659.15
716.369	8466.64
716.556	8870.09
716.744	8470.74
716.931	8509.65
717.119	8761.55
717.306	8806.61
717.493	8767.7
717.681	8435.92
717.868	8474.84
718.055	8730.83
718.242	8442.07
718.43	8655.06
718.617	8698.06
718.804	8446.16
718.991	8687.82
719.179	8579.28
719.366	8509.65
719.553	8612.05
719.74	8413.4
719.927	8577.23
720.114	8427.73
720.301	8485.08
720.488	8286.42
720.676	8267.99
720.863	8411.35
721.05	8861.9
721.237	8485.08
721.424	8317.14
721.611	8337.62
721.798	8319.19
721.985	8259.8
722.172	8171.74
722.358	8130.78
722.545	8542.42
722.732	8317.14
722.919	8257.75
723.106	8038.62
723.293	8143.07
723.48	8239.32
723.667	8075.48
723.853	7938.27
724.04	8298.71
724.227	8423.64
724.414	8247.51
724.6	7981.28
724.787	8460.5
724.974	8257.75
725.161	8212.7
725.347	7731.42
725.534	8198.36
725.72	8220.89
725.907	8014.04
726.094	8016.09
726.28	7895.26
726.467	7854.3
726.653	7796.96
726.84	7760.09
727.027	8181.98
727.213	8098.01
727.4	7829.73
727.586	7758.05
727.773	8044.76
727.959	7811.29
728.145	7809.25
728.332	7749.86
728.518	7719.14
728.705	7893.21
728.891	7522.53
729.077	7786.72
729.264	7655.65
729.45	7792.86
729.636	7835.87
729.823	7799.01
730.009	7983.32
730.195	7534.82
730.382	7893.21
730.568	7637.22
730.754	7581.92
730.94	7723.23
731.126	7700.7
731.313	7463.14
731.499	7473.38
731.685	7592.16
731.871	7477.48
732.057	7555.3
732.243	7815.39
732.429	7506.15
732.615	7454.95
732.801	7229.67
732.987	7485.67
733.173	7463.14
733.359	7258.34
733.545	7354.6
733.731	7387.36
733.917	7420.13
734.103	7192.81
734.289	7164.14
734.475	7078.12
734.661	7356.65
734.847	7258.34
735.033	7092.46
735.219	7346.41
735.404	7024.87
735.59	6985.96
735.776	6887.66
735.962	7100.65
736.148	7270.63
736.333	7018.73
736.519	6820.08
736.705	7188.71
736.89	6940.91
737.076	6822.13
737.262	6736.11
737.447	6893.8
737.633	6668.53
737.819	6858.99
738.004	6748.4
738.19	6709.49
738.375	6691.06
738.561	6658.29
738.747	6527.22
738.932	6516.98
739.118	6723.82
739.303	6523.12
739.489	6533.36
739.674	6592.75
739.859	6457.59
740.045	6510.83
740.23	6453.49
740.416	6095.1
740.601	6465.78
740.786	6349.04
740.972	6222.07
741.157	6387.96
741.342	6234.36
741.528	6070.52
741.713	6271.22
741.898	6250.74
742.084	6289.65
742.269	6123.77
742.454	6064.38
742.639	6222.07
742.824	5992.7
743.01	5968.12
743.195	6007.03
743.38	5943.55
743.565	6054.14
743.75	5916.92
743.935	5902.59
744.12	6086.9
744.305	5701.89
744.49	5763.33
744.675	5712.13
744.86	5845.24
745.045	5878.01
745.23	5603.58
745.415	5587.2
745.6	5781.76
745.785	5568.77
745.97	5560.58
746.155	5419.27
746.34	5734.65
746.525	5468.42
746.71	5470.47
746.895	5253.38
747.079	5439.75
747.264	5413.12
747.449	5370.12
747.634	5237
747.819	5343.49
748.003	5181.7
748.188	5046.54
748.373	5271.81
748.557	5323.01
748.742	5159.17
748.927	4974.86
749.111	4954.38
749.296	5042.44
749.481	5007.62
749.665	4915.47
749.85	4974.86
750.034	5026.06
750.219	4927.75
750.404	4655.37
750.588	4684.05
750.773	4733.2
750.957	4706.57
751.141	4532.5
751.326	4563.22
751.51	4561.17
751.695	4610.32
751.879	4466.96
752.064	4600.08
752.248	4616.46
752.432	4737.29
752.617	4307.22
752.801	4403.47
752.985	4419.86
753.17	4569.36
753.354	4215.06
753.538	4264.21
753.722	4499.73
753.907	4282.64
754.091	4253.97
754.275	4165.91
754.459	4059.42
754.643	4088.09
754.828	4067.61
755.012	3977.5
755.196	3952.92
755.38	4102.42
755.564	3887.39
755.748	3846.43
755.932	4131.09
756.116	4024.6
756.3	3862.81
756.484	3875.1
756.668	3952.92
756.852	3508.51
757.036	3676.45
757.22	3651.87
757.404	3784.99
757.588	3780.89
757.772	3801.37
757.956	3551.52
758.14	3909.91
758.323	3518.75
758.507	3649.82
758.691	3463.46
758.875	3621.15
759.059	3737.88
759.242	3322.15
759.426	3447.07
759.61	3520.8
759.794	3383.59
759.977	3481.89
760.161	3778.84
760.345	3447.07
760.528	3402.02
760.712	3141.93
760.895	3326.24
761.079	3143.97
761.263	3070.25
761.446	3051.81
761.63	3033.38
761.813	3082.53
761.997	2928.94
762.18	3076.39
762.364	3103.01
762.547	2980.14
762.731	2955.56
762.914	3033.38
763.098	2926.89
763.281	2969.9
763.464	2945.32
763.648	2947.37
763.831	2904.36
764.015	2904.36
764.198	3137.83
764.381	3008.81
764.564	2783.53
764.748	2939.18
764.931	3064.1
765.114	2826.54
765.297	2941.22
765.481	2820.39
765.664	3017
765.847	2769.2
766.03	2890.03
766.213	2838.83
766.397	2902.31
766.58	2758.96
766.763	2918.7
766.946	2834.73
767.129	2797.87
767.312	2627.89
767.495	2814.25
767.678	2728.24
767.861	2982.18
768.044	2726.19
768.227	2775.34
768.41	2875.69
768.593	2943.27
768.776	2838.83
768.959	2758.96
769.142	3135.78
769.324	2650.41
769.507	2640.17
769.69	2674.99
769.873	2742.57
770.056	2992.42
770.239	2527.53
770.421	2726.19
770.604	2885.93
770.787	2623.79
770.97	2693.42
771.152	2439.47
771.335	2773.29
771.518	2564.4
771.7	2529.58
771.883	2861.35
772.066	2609.45
772.248	2617.65
772.431	2586.93
772.613	2488.62
772.796	2539.82
772.978	2750.76
773.161	2623.79
773.343	2464.05
773.526	2517.29
773.708	2255.15
773.891	2206
774.073	2314.55
774.256	2343.22
774.438	2740.52
774.621	2279.73
774.803	2486.58
774.985	2386.22
775.168	2439.47
775.35	2199.86
775.532	2408.75
775.715	2242.87
775.897	2316.59
776.079	2203.96
776.261	2277.68
776.444	2322.74
776.626	2187.57
776.808	2197.81
776.99	2033.97
777.173	2210.1
777.355	2081.08
777.537	2093.37
777.719	2117.94
777.901	2115.89
778.083	1931.58
778.265	1943.86
778.447	2042.17
778.629	1997.11
778.811	2115.89
778.993	2038.07
779.175	1935.67
779.357	2066.74
779.539	1825.08
779.721	1968.44
779.903	1907
780.085	1980.73
780.267	2013.49
780.449	1689.92
780.631	1933.62
780.812	2093.37
780.994	1929.53
781.176	1827.13
781.358	1755.45
781.54	1902.9
781.721	1962.3
781.903	1737.02
782.085	1671.48
782.267	1954.1
782.448	1585.47
782.63	1704.25
782.812	1734.97
782.993	1802.55
783.175	1782.07
783.357	1669.44
783.538	1716.54
783.72	1597.76
783.901	1640.76
784.083	1648.96
784.264	1521.98
784.446	1501.5
784.627	1290.56
784.809	1567.04
784.99	1454.4
785.172	1630.52
785.353	1595.71
785.535	1452.35
785.716	1448.26
785.897	1339.71
786.079	1509.69
786.26	1454.4
786.441	1466.69
786.623	1274.18
786.804	1364.29
786.985	1372.48
787.167	1214.79
787.348	1409.34
787.529	1329.47
787.71	1476.93
787.891	1366.34
788.073	1335.62
788.254	1169.73
788.435	1388.86
788.616	1306.95
788.797	1208.64
788.978	1257.79
789.159	1153.35
789.34	1265.99
789.522	1292.61
789.703	1134.92
789.884	1204.55
790.065	1352
790.246	1483.07
790.427	1251.65
790.607	1192.26
790.788	1233.22
790.969	1143.11
791.15	1323.33
791.331	1128.77
791.512	1040.71
791.693	1024.33
791.874	1077.57
792.054	1268.03
792.235	1132.87
792.416	942.41
792.597	946.5
792.778	1083.72
792.958	1098.05
793.139	1153.35
793.32	1032.52
793.5	973.13
793.681	1116.48
793.862	1116.48
794.042	997.7
794.223	846.15
794.404	842.06
794.584	840.01
794.765	1044.81
794.945	975.17
795.126	1012.04
795.306	1167.68
795.487	1009.99
795.667	848.2
795.848	854.34
796.028	960.84
796.209	938.31
796.389	946.5
796.57	883.02
796.75	878.92
796.93	911.69
797.111	731.47
797.291	792.91
797.471	1020.23
797.652	872.78
797.832	739.66
798.012	899.4
798.192	813.38
798.373	760.14
798.553	880.97
798.733	938.31
798.913	762.19
799.093	887.11
799.274	868.68
799.454	790.86
799.634	946.5
799.814	1001.8
799.994	842.06
800.174	878.92
800.354	864.58
800.534	659.79
800.714	721.23
800.894	584.01
801.074	678.22
801.254	682.31
801.434	940.36
801.614	612.68
801.794	678.22
801.974	5454.08
802.154	629.07
802.334	776.52
802.514	672.08
802.693	715.08
802.873	670.03
803.053	817.48
803.233	753.99
803.413	768.33
803.592	545.1
803.772	667.98
803.952	715.08
804.131	536.91
804.311	678.22
804.491	739.66
804.67	502.09
804.85	549.2
805.03	614.73
805.209	749.9
805.389	653.64
805.568	670.03
805.748	633.16
805.928	543.05
806.107	717.13
806.287	731.47
806.466	694.6
806.646	541.01
806.825	682.31
807.004	528.72
807.184	688.46
807.363	624.97
807.543	786.76
807.722	514.38
807.901	688.46
808.081	553.29
808.26	334.16
808.439	567.63
808.619	528.72
808.798	457.04
808.977	745.8
809.156	758.09
809.336	631.12
809.515	534.86
809.694	512.33
809.873	538.96
810.052	502.09
810.231	665.93
810.411	659.79
810.59	694.6
810.769	604.49
810.948	567.63
811.127	454.99
811.306	569.68
811.485	459.09
811.664	631.12
811.843	606.54
812.022	479.57
812.201	411.98
812.38	323.92
812.559	428.37
812.737	602.44
812.916	442.7
813.095	366.93
813.274	594.25
813.453	567.63
813.632	491.85
813.811	559.44
813.989	342.35
814.168	491.85
814.347	317.78
814.526	530.77
814.704	645.45
814.883	657.74
815.062	338.26
815.24	430.41
815.419	340.3
815.598	600.4
815.776	176.47
815.955	366.93
816.133	209.23
816.312	450.89
816.49	362.83
816.669	381.26
816.847	338.26
817.026	498
817.204	424.27
817.383	387.41
817.561	371.02
817.74	498
817.918	411.98
818.097	418.13
818.275	317.78
818.453	469.33
818.632	424.27
818.81	334.16
818.988	385.36
819.167	358.74
819.345	291.15
819.523	330.06
819.701	479.57
819.879	397.65
820.058	436.56
820.236	373.07
820.414	387.41
820.592	432.46
820.77	293.2
820.948	106.84
821.127	356.69
821.305	465.23
821.483	221.52
821.661	235.86
821.839	459.09
822.017	248.15
822.195	254.29
822.373	323.92
822.551	323.92
822.729	491.85
822.907	293.2
823.085	356.69
823.262	448.85
823.44	319.82
823.618	254.29
823.796	350.54
823.974	342.35
824.152	301.39
824.329	323.92
824.507	303.44
824.685	536.91
824.863	330.06
825.04	262.48
825.218	291.15
825.396	344.4
825.574	346.45
825.751	323.92
825.929	248.15
826.107	239.95
826.284	368.98
826.462	280.91
826.639	188.75
826.817	166.23
826.994	291.15
827.172	125.27
827.349	336.21
827.527	422.22
827.704	313.68
827.882	383.31
828.059	325.97
828.237	309.58
828.414	414.03
828.591	96.6
828.769	270.67
828.946	231.76
829.124	454.99
829.301	362.83
829.478	186.71
829.655	313.68
829.833	299.34
830.01	33.11
830.187	368.98
830.364	381.26
830.542	397.65
830.719	297.3
830.896	334.16
831.073	332.11
831.25	334.16
831.427	309.58
831.604	176.47
831.782	254.29
831.959	319.82
832.136	250.19
832.313	303.44
832.49	299.34
832.667	315.73
832.844	170.32
833.021	422.22
833.198	366.93
833.374	325.97
833.551	268.63
833.728	180.56
833.905	366.93
834.082	43.35
834.259	352.59
834.436	291.15
834.612	151.89
834.789	493.9
834.966	246.1
835.143	176.47
835.319	98.64
835.496	362.83
835.673	272.72
835.85	190.8
836.026	405.84
836.203	332.11
836.38	96.6
836.556	94.55
836.733	235.86
836.909	543.05
837.086	196.95
837.262	49.49
837.439	291.15
837.616	131.41
837.792	254.29
837.968	182.61
838.145	63.83
838.321	233.81
838.498	192.85
838.674	356.69
838.851	254.29
839.027	246.1
839.203	219.47
839.38	309.58
839.556	246.1
839.732	258.39
839.909	254.29
840.085	168.27
840.261	211.28
840.437	256.34
840.614	182.61
840.79	231.76
840.966	278.87
841.142	268.63
841.318	141.65
841.494	129.36
841.671	452.94
841.847	139.6
842.023	-30.38
842.199	205.14
842.375	414.03
842.551	-13.99
842.727	10.58
842.903	373.07
843.079	82.26
843.255	264.53
843.431	170.32
843.607	266.58
843.783	-57
843.959	291.15
844.134	125.27
844.31	205.14
844.486	53.59
844.662	182.61
844.838	184.66
845.013	149.84
845.189	457.04
845.365	268.63
845.541	112.98
845.716	217.43
845.892	325.97
846.068	115.03
846.244	102.74
846.419	96.6
846.595	92.5
846.77	190.8
846.946	225.62
847.122	100.69
847.297	203.09
847.473	459.09
847.648	-22.19
847.824	104.79
847.999	29.01
848.175	231.76
848.35	237.91
848.526	303.44
848.701	444.75
848.876	303.44
849.052	258.39
849.227	143.7
849.403	201.04
849.578	186.71
849.753	217.43
849.929	153.94
850.104	-7.85
850.279	233.81
850.454	280.91
850.63	233.81
850.805	244.05
850.98	237.91
851.155	172.37
851.33	215.38
851.505	102.74
851.681	426.32
851.856	78.16
852.031	215.38
852.206	297.3
852.381	51.54
852.556	61.78
852.731	153.94
852.906	270.67
853.081	237.91
853.256	217.43
853.431	108.88
853.606	74.07
853.781	78.16
853.956	-75.43
854.131	51.54
854.305	51.54
854.48	149.84
854.655	-3.75
854.83	69.97
855.005	135.51
855.18	262.48
855.354	90.45
855.529	37.2
855.704	178.51
855.879	289.1
856.053	8.53
856.228	170.32
856.403	-83.63
856.577	242
856.752	-36.52
856.926	104.79
857.101	231.76
857.276	-104.11
857.45	112.98
857.625	209.23
857.799	207.19
857.974	180.56
858.148	-50.86
858.323	158.03
858.497	139.6
858.672	37.2
858.846	29.01
859.02	151.89
859.195	115.03
859.369	207.19
859.543	270.67
859.718	96.6
859.892	256.34
860.066	203.09
860.241	10.58
860.415	20.82
860.589	104.79
860.763	96.6
860.938	104.79
861.112	108.88
861.286	192.85
861.46	266.58
861.634	72.02
861.808	112.98
861.982	112.98
862.157	117.08
862.331	-9.9
862.505	0.34
862.679	20.82
862.853	2.39
863.027	55.64
863.201	205.14
863.375	20.82
863.549	317.78
863.722	151.89
863.896	190.8
864.07	41.3
864.244	127.32
864.418	207.19
864.592	125.27
864.766	239.95
864.939	108.88
865.113	49.49
865.287	201.04
865.461	20.82
865.634	196.95
865.808	80.21
865.982	-3.75
866.156	45.4
866.329	41.3
866.503	110.93
866.676	192.85
866.85	209.23
867.024	24.92
867.197	192.85
867.371	88.4
867.544	219.47
867.718	-81.58
867.891	262.48
868.065	-38.57
868.238	209.23
868.412	391.5
868.585	65.88
868.759	61.78
868.932	100.69
869.105	-30.38
869.279	110.93
869.452	-83.63
869.625	311.63
869.799	45.4
869.972	-114.34
870.145	8.53
870.319	401.74
870.492	90.45
870.665	41.3
870.838	31.06
871.011	-102.06
871.185	121.17
871.358	67.92
871.531	250.19
871.704	78.16
871.877	209.23
872.05	-48.81
872.223	-83.63
872.396	293.2
872.569	258.39
872.742	-52.91
872.915	166.23
873.088	102.74
873.261	10.58
873.434	239.95
873.607	24.92
873.78	442.7
873.953	-71.34
874.126	82.26
874.299	190.8
874.471	94.55
874.644	131.41
874.817	174.42
874.99	256.34
875.163	117.08
875.335	182.61
875.508	47.44
875.681	198.99
875.853	145.75
876.026	190.8
876.199	125.27
876.371	65.88
876.544	127.32
876.717	110.93
876.889	16.73
877.062	94.55
877.234	12.63
877.407	35.16
877.579	143.7
877.752	143.7
877.924	319.82
878.097	219.47
878.269	31.06
878.442	119.12
878.614	270.67
878.786	143.7
878.959	84.31
879.131	69.97
879.303	-95.91
879.476	151.89
879.648	164.18
879.82	-57
879.993	112.98
880.165	51.54
880.337	12.63
880.509	67.92
880.681	-32.43
880.854	84.31
881.026	194.9
881.198	115.03
881.37	215.38
881.542	160.08
881.714	88.4
881.886	14.68
882.058	119.12
882.23	135.51
882.402	121.17
882.574	137.56
882.746	266.58
882.918	338.26
883.09	72.02
883.262	43.35
883.434	166.23
883.606	-32.43
883.778	37.2
883.95	217.43
884.122	67.92
884.293	258.39
884.465	61.78
884.637	252.24
884.809	51.54
884.98	192.85
885.152	180.56
885.324	112.98
885.496	65.88
885.667	29.01
885.839	-26.28
886.011	110.93
886.182	352.59
886.354	264.53
886.525	133.46
886.697	47.44
886.869	4.44
887.04	139.6
887.212	209.23
887.383	205.14
887.555	145.75
887.726	74.07
887.897	31.06
888.069	106.84
888.24	319.82
888.412	119.12
888.583	24.92
888.754	119.12
888.926	-151.21
889.097	47.44
889.268	-38.57
889.44	37.2
889.611	-28.33
889.782	-22.19
889.953	-22.19
890.125	131.41
890.296	-26.28
890.467	121.17
890.638	-9.9
890.809	20.82
890.98	49.49
891.151	192.85
891.323	313.68
891.494	-65.19
891.665	45.4
891.836	117.08
892.007	69.97
892.178	127.32
892.349	119.12
892.52	-9.9
892.691	110.93
892.862	-22.19
893.032	-73.39
893.203	84.31
893.374	137.56
893.545	145.75
893.716	45.4
893.887	223.57
894.057	-20.14
894.228	-5.8
894.399	31.06
894.57	305.49
894.74	119.12
894.911	127.32
895.082	180.56
895.253	39.25
895.423	182.61
895.594	170.32
895.764	213.33
895.935	-11.95
896.106	74.07
896.276	-52.91
896.447	174.42
896.617	-65.19
896.788	-54.95
896.958	-69.29
897.129	147.8
897.299	26.96
897.47	205.14
897.64	108.88
897.81	76.12
897.981	215.38
898.151	-5.8
898.322	45.4
898.492	160.08
898.662	41.3
898.832	-7.85
899.003	31.06
899.173	168.27
899.343	26.96
899.513	12.63
