Data from USB4F104151__0__12-54-15-542.txt Node

Date: Wed Feb 19 12:54:15 EST 2025
User: louis
Spectrometer: USB4F10415
Trigger mode: 4
Integration Time (sec): 1.000000E-1
Scans to average: 1
Electric dark correction enabled: true
Nonlinearity correction enabled: false
Boxcar width: 0
XAxis mode: Wavelengths
Number of Pixels in Spectrum: 3648
>>>>>Begin Spectral Data<<<<<
178.204	-237.74
178.424	-237.74
178.644	-237.74
178.864	-360.61
179.084	-370.85
179.304	53.08
179.524	-57.51
179.744	-28.84
179.964	16.21
180.184	48.98
180.404	-8.36
180.624	-4.27
180.844	-18.6
181.064	-30.89
181.283	40.79
181.503	-49.32
181.723	38.74
181.943	-123.05
182.163	165.71
182.383	10.07
182.602	118.61
182.822	73.56
183.042	12.12
183.262	32.6
183.482	38.74
183.701	44.88
183.921	81.75
184.141	-28.84
184.361	28.5
184.58	53.08
184.8	40.79
185.02	-24.75
185.239	106.32
185.459	24.4
185.679	40.79
185.898	-37.03
186.118	98.13
186.338	-8.36
186.557	71.51
186.777	1.88
186.997	8.02
187.216	-6.31
187.436	147.28
187.655	73.56
187.875	24.4
188.095	57.17
188.314	32.6
188.534	91.99
188.753	-41.13
188.973	71.51
189.192	130.9
189.412	46.93
189.631	-4.27
189.851	81.75
190.07	122.71
190.29	-84.14
190.509	-10.41
190.729	83.8
190.948	137.04
191.168	259.92
191.387	57.17
191.607	-61.61
191.826	32.6
192.045	-65.71
192.265	-39.08
192.484	34.64
192.704	-4.27
192.923	-24.75
193.142	188.24
193.362	38.74
193.581	126.8
193.8	32.6
194.02	96.08
194.239	36.69
194.458	57.17
194.678	83.8
194.897	8.02
195.116	12.12
195.335	59.22
195.555	73.56
195.774	5.97
195.993	-8.36
196.212	5.97
196.432	22.36
196.651	-24.75
196.87	-26.79
197.089	147.28
197.308	61.27
197.528	73.56
197.747	-51.37
197.966	12.12
198.185	116.56
198.404	-32.94
198.623	16.21
198.842	34.64
199.062	53.08
199.281	120.66
199.5	22.36
199.719	71.51
199.938	51.03
200.157	98.13
200.376	40.79
200.595	110.42
200.814	1.88
201.033	-10.41
201.252	139.09
201.471	89.94
201.69	63.32
201.909	48.98
202.128	53.08
202.347	94.04
202.566	42.84
202.785	-47.27
203.004	77.65
203.223	188.24
203.442	65.36
203.661	-16.55
203.879	-4.27
204.098	98.13
204.317	-20.65
204.536	40.79
204.755	94.04
204.974	55.12
205.193	14.17
205.411	159.57
205.63	65.36
205.849	32.6
206.068	3.93
206.287	16.21
206.505	3.93
206.724	69.46
206.943	24.4
207.162	32.6
207.381	81.75
207.599	30.55
207.818	-20.65
208.037	-45.23
208.255	42.84
208.474	-10.41
208.693	18.26
208.911	-8.36
209.13	57.17
209.349	89.94
209.567	48.98
209.786	53.08
210.005	110.42
210.223	12.12
210.442	8.02
210.661	128.85
210.879	22.36
211.098	-4.27
211.316	-32.94
211.535	16.21
211.753	65.36
211.972	65.36
212.191	18.26
212.409	-32.94
212.628	-4.27
212.846	-41.13
213.065	44.88
213.283	85.84
213.502	22.36
213.72	32.6
213.938	5.97
214.157	48.98
214.375	34.64
214.594	12.12
214.812	73.56
215.031	-41.13
215.249	12.12
215.467	-2.22
215.686	24.4
215.904	114.52
216.122	14.17
216.341	122.71
216.559	8.02
216.778	163.67
216.996	22.36
217.214	30.55
217.432	-2.22
217.651	-53.42
217.869	5.97
218.087	-2.22
218.306	32.6
218.524	61.27
218.742	16.21
218.96	32.6
219.179	24.4
219.397	8.02
219.615	94.04
219.833	48.98
220.051	-0.17
220.27	24.4
220.488	83.8
220.706	153.43
220.924	18.26
221.142	5.97
221.36	36.69
221.578	44.88
221.796	-16.55
222.015	87.89
222.233	71.51
222.451	159.57
222.669	-75.95
222.887	32.6
223.105	-26.79
223.323	5.97
223.541	-57.51
223.759	57.17
223.977	22.36
224.195	112.47
224.413	85.84
224.631	155.47
224.849	28.5
225.067	227.15
225.285	3.93
225.503	-8.36
225.721	-102.57
225.939	32.6
226.157	36.69
226.375	188.24
226.592	-80.04
226.81	34.64
227.028	40.79
227.246	145.24
227.464	118.61
227.682	106.32
227.9	24.4
228.117	22.36
228.335	22.36
228.553	-12.46
228.771	36.69
228.989	71.51
229.206	36.69
229.424	18.26
229.642	-8.36
229.86	-71.85
230.077	102.23
230.295	20.31
230.513	40.79
230.731	-28.84
230.948	159.57
231.166	118.61
231.384	8.02
231.601	-73.9
231.819	114.52
232.037	-37.03
232.254	-45.23
232.472	-24.75
232.689	-57.51
232.907	69.46
233.125	-12.46
233.342	18.26
233.56	-12.46
233.777	65.36
233.995	5.97
234.213	77.65
234.43	65.36
234.648	16.21
234.865	-59.56
235.083	57.17
235.3	24.4
235.518	8.02
235.735	132.95
235.953	69.46
236.17	53.08
236.388	83.8
236.605	-18.6
236.822	87.89
237.04	96.08
237.257	40.79
237.475	-14.51
237.692	139.09
237.909	36.69
238.127	16.21
238.344	-10.41
238.562	28.5
238.779	-49.32
238.996	-0.17
239.214	-8.36
239.431	100.18
239.648	14.17
239.865	91.99
240.083	34.64
240.3	-20.65
240.517	-20.65
240.735	-16.55
240.952	83.8
241.169	114.52
241.386	-22.7
241.603	16.21
241.821	16.21
242.038	16.21
242.255	77.65
242.472	-102.57
242.689	40.79
242.907	28.5
243.124	-0.17
243.341	-16.55
243.558	-61.61
243.775	48.98
243.992	8.02
244.209	104.28
244.426	130.9
244.643	32.6
244.86	10.07
245.078	40.79
245.295	-4.27
245.512	32.6
245.729	-43.18
245.946	20.31
246.163	65.36
246.38	-32.94
246.597	63.32
246.814	53.08
247.031	-41.13
247.248	-24.75
247.464	44.88
247.681	-8.36
247.898	40.79
248.115	18.26
248.332	-45.23
248.549	104.28
248.766	130.9
248.983	73.56
249.2	89.94
249.417	96.08
249.633	53.08
249.85	63.32
250.067	-47.27
250.284	48.98
250.501	55.12
250.717	139.09
250.934	-10.41
251.151	34.64
251.368	-10.41
251.585	108.37
251.801	32.6
252.018	-86.19
252.235	114.52
252.451	-69.8
252.668	-45.23
252.885	79.7
253.102	38.74
253.318	-65.71
253.535	-26.79
253.752	32.6
253.968	18.26
254.185	-14.51
254.401	-0.17
254.618	5.97
254.835	-0.17
255.051	106.32
255.268	40.79
255.484	32.6
255.701	48.98
255.917	63.32
256.134	-28.84
256.351	24.4
256.567	-69.8
256.784	-51.37
257	-32.94
257.217	67.41
257.433	65.36
257.65	79.7
257.866	182.1
258.082	-8.36
258.299	-32.94
258.515	34.64
258.732	-20.65
258.948	-20.65
259.165	57.17
259.381	28.5
259.597	73.56
259.814	-14.51
260.03	65.36
260.246	46.93
260.463	38.74
260.679	67.41
260.895	10.07
261.112	34.64
261.328	20.31
261.544	-69.8
261.761	120.66
261.977	57.17
262.193	-63.66
262.409	14.17
262.626	24.4
262.842	61.27
263.058	-18.6
263.274	98.13
263.49	44.88
263.707	65.36
263.923	-0.17
264.139	-53.42
264.355	32.6
264.571	75.6
264.787	73.56
265.004	12.12
265.22	-8.36
265.436	24.4
265.652	38.74
265.868	38.74
266.084	-26.79
266.3	-28.84
266.516	20.31
266.732	-45.23
266.948	73.56
267.164	-16.55
267.38	89.94
267.596	28.5
267.812	161.62
268.028	-51.37
268.244	-4.27
268.46	20.31
268.676	8.02
268.892	26.45
269.108	30.55
269.324	-24.75
269.54	-20.65
269.756	65.36
269.972	-24.75
270.188	28.5
270.403	-49.32
270.619	53.08
270.835	81.75
271.051	22.36
271.267	-75.95
271.483	-4.27
271.698	53.08
271.914	44.88
272.13	-18.6
272.346	-10.41
272.562	8.02
272.777	59.22
272.993	61.27
273.209	16.21
273.425	28.5
273.64	-53.42
273.856	73.56
274.072	-90.28
274.287	16.21
274.503	-34.99
274.719	-18.6
274.934	-4.27
275.15	-10.41
275.366	22.36
275.581	1.88
275.797	-12.46
276.012	42.84
276.228	-69.8
276.444	16.21
276.659	20.31
276.875	-41.13
277.09	40.79
277.306	-22.7
277.521	73.56
277.737	32.6
277.952	112.47
278.168	36.69
278.383	16.21
278.599	38.74
278.814	40.79
279.03	-43.18
279.245	147.28
279.461	48.98
279.676	73.56
279.892	-22.7
280.107	8.02
280.322	-8.36
280.538	57.17
280.753	20.31
280.969	42.84
281.184	40.79
281.399	139.09
281.615	46.93
281.83	61.27
282.045	-67.75
282.26	22.36
282.476	40.79
282.691	46.93
282.906	94.04
283.122	48.98
283.337	-65.71
283.552	-14.51
283.767	-110.76
283.983	48.98
284.198	14.17
284.413	46.93
284.628	-80.04
284.843	-12.46
285.058	122.71
285.274	-8.36
285.489	22.36
285.704	28.5
285.919	-26.79
286.134	67.41
286.349	-32.94
286.564	81.75
286.779	89.94
286.995	73.56
287.21	-108.71
287.425	22.36
287.64	40.79
287.855	59.22
288.07	-65.71
288.285	75.6
288.5	104.28
288.715	24.4
288.93	-32.94
289.145	1.88
289.36	87.89
289.575	-8.36
289.79	83.8
290.004	-8.36
290.219	91.99
290.434	-18.6
290.649	10.07
290.864	-34.99
291.079	-37.03
291.294	98.13
291.509	40.79
291.724	32.6
291.938	-34.99
292.153	69.46
292.368	-45.23
292.583	40.79
292.798	28.5
293.012	-32.94
293.227	22.36
293.442	-12.46
293.657	75.6
293.871	63.32
294.086	40.79
294.301	155.47
294.516	87.89
294.73	44.88
294.945	-37.03
295.16	5.97
295.374	122.71
295.589	24.4
295.804	-8.36
296.018	100.18
296.233	151.38
296.447	65.36
296.662	34.64
296.877	77.65
297.091	24.4
297.306	89.94
297.52	-20.65
297.735	48.98
297.949	96.08
298.164	-10.41
298.378	44.88
298.593	-59.56
298.807	-28.84
299.022	-14.51
299.236	44.88
299.451	46.93
299.665	-0.17
299.88	22.36
300.094	122.71
300.309	-24.75
300.523	-0.17
300.737	89.94
300.952	122.71
301.166	28.5
301.381	-49.32
301.595	-2.22
301.809	22.36
302.024	-2.22
302.238	16.21
302.452	137.04
302.667	-26.79
302.881	48.98
303.095	22.36
303.309	5.97
303.524	-4.27
303.738	24.4
303.952	-102.57
304.166	-10.41
304.381	-14.51
304.595	143.19
304.809	-14.51
305.023	48.98
305.237	-20.65
305.452	1.88
305.666	114.52
305.88	-6.31
306.094	1.88
306.308	30.55
306.522	22.36
306.736	-0.17
306.95	77.65
307.164	-12.46
307.379	-8.36
307.593	94.04
307.807	106.32
308.021	51.03
308.235	94.04
308.449	-57.51
308.663	12.12
308.877	85.84
309.091	67.41
309.305	81.75
309.519	-125.1
309.733	110.42
309.947	-37.03
310.161	22.36
310.374	139.09
310.588	59.22
310.802	79.7
311.016	32.6
311.23	-32.94
311.444	5.97
311.658	20.31
311.872	46.93
312.085	24.4
312.299	67.41
312.513	46.93
312.727	3.93
312.941	-53.42
313.154	81.75
313.368	51.03
313.582	18.26
313.796	40.79
314.009	-67.75
314.223	135
314.437	-12.46
314.651	65.36
314.864	-0.17
315.078	-2.22
315.292	-94.38
315.505	-0.17
315.719	-8.36
315.933	-2.22
316.146	14.17
316.36	-59.56
316.573	110.42
316.787	79.7
317.001	48.98
317.214	24.4
317.428	63.32
317.641	-4.27
317.855	-22.7
318.068	73.56
318.282	28.5
318.495	32.6
318.709	-20.65
318.922	-16.55
319.136	57.17
319.349	8.02
319.563	14.17
319.776	12.12
319.99	-123.05
320.203	126.8
320.417	-71.85
320.63	79.7
320.843	124.76
321.057	5.97
321.27	14.17
321.483	48.98
321.697	190.29
321.91	59.22
322.124	-41.13
322.337	104.28
322.55	-0.17
322.763	30.55
322.977	30.55
323.19	-16.55
323.403	36.69
323.617	65.36
323.83	110.42
324.043	-0.17
324.256	3.93
324.469	-102.57
324.683	71.51
324.896	46.93
325.109	5.97
325.322	-106.67
325.535	69.46
325.748	98.13
325.962	-26.79
326.175	1.88
326.388	71.51
326.601	57.17
326.814	12.12
327.027	3.93
327.24	46.93
327.453	-61.61
327.666	-4.27
327.879	98.13
328.092	87.89
328.305	12.12
328.518	-12.46
328.731	-16.55
328.944	42.84
329.157	94.04
329.37	26.45
329.583	91.99
329.796	114.52
330.009	44.88
330.222	69.46
330.435	48.98
330.648	-20.65
330.861	65.36
331.073	65.36
331.286	135
331.499	1.88
331.712	5.97
331.925	-24.75
332.138	77.65
332.35	59.22
332.563	-59.56
332.776	24.4
332.989	-73.9
333.202	32.6
333.414	8.02
333.627	28.5
333.84	-14.51
334.053	65.36
334.265	-2.22
334.478	-30.89
334.691	5.97
334.903	89.94
335.116	-49.32
335.329	-16.55
335.541	30.55
335.754	73.56
335.966	-57.51
336.179	-39.08
336.392	-32.94
336.604	12.12
336.817	61.27
337.029	53.08
337.242	55.12
337.454	81.75
337.667	73.56
337.88	112.47
338.092	61.27
338.305	48.98
338.517	-0.17
338.729	14.17
338.942	126.8
339.154	-57.51
339.367	46.93
339.579	46.93
339.792	-73.9
340.004	20.31
340.217	38.74
340.429	110.42
340.641	-32.94
340.854	8.02
341.066	69.46
341.278	106.32
341.491	147.28
341.703	73.56
341.915	-53.42
342.128	69.46
342.34	28.5
342.552	-53.42
342.764	-39.08
342.977	40.79
343.189	65.36
343.401	8.02
343.613	12.12
343.826	-71.85
344.038	-41.13
344.25	110.42
344.462	-49.32
344.674	65.36
344.886	10.07
345.099	130.9
345.311	26.45
345.523	-65.71
345.735	-86.19
345.947	3.93
346.159	55.12
346.371	44.88
346.583	-34.99
346.795	151.38
347.007	24.4
347.219	46.93
347.431	-49.32
347.643	81.75
347.855	3.93
348.067	130.9
348.279	-61.61
348.491	44.88
348.703	36.69
348.915	-37.03
349.127	-32.94
349.339	-18.6
349.551	-6.31
349.763	65.36
349.975	-80.04
350.187	53.08
350.399	61.27
350.61	48.98
350.822	32.6
351.034	77.65
351.246	122.71
351.458	3.93
351.669	87.89
351.881	-63.66
352.093	5.97
352.305	36.69
352.517	-16.55
352.728	63.32
352.94	106.32
353.152	14.17
353.363	-43.18
353.575	65.36
353.787	104.28
353.999	-4.27
354.21	85.84
354.422	8.02
354.633	106.32
354.845	-53.42
355.057	100.18
355.268	28.5
355.48	14.17
355.692	-92.33
355.903	40.79
356.115	-32.94
356.326	-41.13
356.538	32.6
356.749	-8.36
356.961	124.76
357.172	40.79
357.384	-8.36
357.595	96.08
357.807	65.36
358.018	3.93
358.23	53.08
358.441	81.75
358.653	122.71
358.864	-4.27
359.075	30.55
359.287	65.36
359.498	44.88
359.709	-41.13
359.921	73.56
360.132	67.41
360.344	16.21
360.555	-2.22
360.766	22.36
360.977	-10.41
361.189	18.26
361.4	-26.79
361.611	128.85
361.823	110.42
362.034	18.26
362.245	24.4
362.456	16.21
362.667	104.28
362.879	-2.22
363.09	24.4
363.301	-8.36
363.512	73.56
363.723	-20.65
363.935	-18.6
364.146	77.65
364.357	44.88
364.568	32.6
364.779	-59.56
364.99	63.32
365.201	-39.08
365.412	65.36
365.623	8.02
365.834	51.03
366.045	-16.55
366.256	75.6
366.467	-14.51
366.678	28.5
366.889	77.65
367.1	-26.79
367.311	40.79
367.522	-51.37
367.733	-2.22
367.944	22.36
368.155	-26.79
368.366	102.23
368.577	44.88
368.788	40.79
368.999	-59.56
369.209	-18.6
369.42	130.9
369.631	216.91
369.842	3.93
370.053	3.93
370.264	102.23
370.474	3.93
370.685	122.71
370.896	57.17
371.107	73.56
371.317	94.04
371.528	46.93
371.739	87.89
371.95	106.32
372.16	48.98
372.371	-8.36
372.582	-18.6
372.792	34.64
373.003	-6.31
373.214	79.7
373.424	77.65
373.635	-12.46
373.846	96.08
374.056	79.7
374.267	-6.31
374.477	104.28
374.688	5.97
374.898	32.6
375.109	-6.31
375.319	-0.17
375.53	118.61
375.74	55.12
375.951	-0.17
376.161	24.4
376.372	5.97
376.582	-10.41
376.793	-14.51
377.003	-65.71
377.214	-26.79
377.424	44.88
377.635	-41.13
377.845	-2.22
378.055	71.51
378.266	-53.42
378.476	3.93
378.686	-41.13
378.897	48.98
379.107	32.6
379.317	18.26
379.528	28.5
379.738	24.4
379.948	-75.95
380.158	40.79
380.369	61.27
380.579	57.17
380.789	16.21
380.999	69.46
381.21	20.31
381.42	139.09
381.63	24.4
381.84	30.55
382.05	10.07
382.261	16.21
382.471	67.41
382.681	-49.32
382.891	42.84
383.101	102.23
383.311	36.69
383.521	22.36
383.731	106.32
383.941	89.94
384.151	34.64
384.361	-32.94
384.571	46.93
384.781	87.89
384.991	167.76
385.201	85.84
385.411	24.4
385.621	-45.23
385.831	-43.18
386.041	40.79
386.251	1.88
386.461	44.88
386.671	-8.36
386.881	89.94
387.091	40.79
387.301	12.12
387.511	-10.41
387.72	-20.65
387.93	-8.36
388.14	-24.75
388.35	48.98
388.56	63.32
388.769	44.88
388.979	63.32
389.189	-41.13
389.399	30.55
389.609	61.27
389.818	51.03
390.028	1.88
390.238	-8.36
390.447	8.02
390.657	34.64
390.867	10.07
391.076	-41.13
391.286	-10.41
391.496	10.07
391.705	-16.55
391.915	44.88
392.125	106.32
392.334	-26.79
392.544	71.51
392.753	71.51
392.963	-82.09
393.172	-26.79
393.382	-0.17
393.591	91.99
393.801	-65.71
394.01	81.75
394.22	65.36
394.429	3.93
394.639	8.02
394.848	14.17
395.058	-4.27
395.267	-59.56
395.477	59.22
395.686	-18.6
395.895	139.09
396.105	214.87
396.314	44.88
396.524	89.94
396.733	-53.42
396.942	63.32
397.152	40.79
397.361	104.28
397.57	73.56
397.78	-41.13
397.989	81.75
398.198	165.71
398.407	73.56
398.617	-8.36
398.826	5.97
399.035	-4.27
399.244	128.85
399.453	38.74
399.663	14.17
399.872	73.56
400.081	-86.19
400.29	12.12
400.499	32.6
400.708	65.36
400.917	38.74
401.127	3.93
401.336	3.93
401.545	169.81
401.754	20.31
401.963	38.74
402.172	40.79
402.381	-65.71
402.59	24.4
402.799	32.6
403.008	161.62
403.217	24.4
403.426	-18.6
403.635	30.55
403.844	16.21
404.053	-51.37
404.262	-8.36
404.471	32.6
404.68	22.36
404.888	-12.46
405.097	-4.27
405.306	-12.46
405.515	-0.17
405.724	5.97
405.933	212.82
406.142	79.7
406.35	106.32
406.559	24.4
406.768	46.93
406.977	75.6
407.185	73.56
407.394	120.66
407.603	-32.94
407.812	18.26
408.02	135
408.229	57.17
408.438	77.65
408.646	-47.27
408.855	-18.6
409.064	73.56
409.272	-47.27
409.481	40.79
409.69	-49.32
409.898	32.6
410.107	22.36
410.315	104.28
410.524	-4.27
410.733	79.7
410.941	-2.22
411.15	94.04
411.358	65.36
411.567	89.94
411.775	57.17
411.984	87.89
412.192	65.36
412.401	-14.51
412.609	77.65
412.818	175.95
413.026	65.36
413.234	-20.65
413.443	89.94
413.651	1.88
413.86	67.41
414.068	89.94
414.276	155.47
414.485	26.45
414.693	53.08
414.901	202.58
415.11	44.88
415.318	87.89
415.526	48.98
415.734	32.6
415.943	81.75
416.151	65.36
416.359	55.12
416.567	48.98
416.776	147.28
416.984	120.66
417.192	186.19
417.4	36.69
417.608	3.93
417.817	32.6
418.025	122.71
418.233	87.89
418.441	69.46
418.649	-24.75
418.857	110.42
419.065	137.04
419.273	63.32
419.481	98.13
419.689	128.85
419.897	46.93
420.105	61.27
420.313	135
420.521	98.13
420.729	147.28
420.937	89.94
421.145	40.79
421.353	178
421.561	143.19
421.769	89.94
421.977	46.93
422.185	81.75
422.393	104.28
422.601	157.52
422.809	139.09
423.017	73.56
423.224	141.14
423.432	137.04
423.64	130.9
423.848	216.91
424.056	40.79
424.263	155.47
424.471	159.57
424.679	235.35
424.887	53.08
425.094	171.86
425.302	214.87
425.51	155.47
425.718	296.78
425.925	208.72
426.133	139.09
426.341	347.98
426.548	155.47
426.756	120.66
426.964	210.77
427.171	194.39
427.379	190.29
427.586	272.21
427.794	278.35
428.001	266.07
428.209	247.63
428.417	212.82
428.624	208.72
428.832	243.54
429.039	245.59
429.247	251.73
429.454	315.22
429.662	323.41
429.869	268.11
430.076	319.31
430.284	417.61
430.491	376.66
430.699	356.18
430.906	405.33
431.114	327.5
431.321	401.23
431.528	372.56
431.736	335.7
431.943	390.99
432.15	411.47
432.358	399.18
432.565	464.72
432.772	370.51
432.979	462.67
433.187	446.29
433.394	452.43
433.601	350.03
433.808	530.25
434.016	511.82
434.223	522.06
434.43	548.68
434.637	556.88
434.844	581.45
435.052	526.16
435.259	692.04
435.466	634.7
435.673	532.3
435.88	556.88
436.087	669.52
436.294	702.28
436.501	726.86
436.708	595.79
436.915	663.37
437.122	765.77
437.329	802.63
437.537	620.36
437.743	776.01
437.95	825.16
438.157	880.46
438.364	829.26
438.571	896.84
438.778	884.55
438.985	892.74
439.192	966.47
439.399	945.99
439.606	892.74
439.813	1081.16
440.02	1019.72
440.227	1138.5
440.433	1228.61
440.64	1201.99
440.847	1079.11
441.054	1146.69
441.261	1210.18
441.467	1081.16
441.674	1146.69
441.881	1314.63
442.088	1154.88
442.294	1210.18
442.501	1341.25
442.708	1337.15
442.914	1355.58
443.121	1472.32
443.328	1406.78
443.534	1539.9
443.741	1453.89
443.948	1376.06
444.154	1529.66
444.361	1748.79
444.568	1496.89
444.774	1580.86
444.981	1437.5
445.187	1670.97
445.394	1701.69
445.6	1648.44
445.807	1912.63
446.013	1779.51
446.22	1752.89
446.426	1867.58
446.633	1955.64
446.839	2160.44
447.046	1922.87
447.252	2182.96
447.459	2094.9
447.665	2072.37
447.871	2228.02
448.078	2436.91
448.284	2363.19
448.491	2445.1
448.697	2463.54
448.903	2545.45
449.11	2547.5
449.316	2469.68
449.522	2801.45
449.728	2778.92
449.935	2866.99
450.141	2860.84
450.347	3036.97
450.553	2873.13
450.76	2965.29
450.966	3174.18
451.172	3120.93
451.378	3217.19
451.584	3299.11
451.791	3503.9
451.997	3579.68
452.203	3624.73
452.409	3759.9
452.615	3565.34
452.821	3571.49
453.027	3399.46
453.233	3864.35
453.44	3737.37
453.646	3776.28
453.852	3927.83
454.058	3997.46
454.264	4052.76
454.47	4200.21
454.676	4058.9
454.882	4372.24
455.088	4085.53
455.294	4296.47
455.5	4327.19
455.705	4497.17
455.911	4382.48
456.117	4325.14
456.323	4345.62
456.529	4259.6
456.735	4472.59
456.941	4554.51
457.147	4431.63
457.352	4486.93
457.558	4511.5
457.764	4673.29
457.97	4581.14
458.176	4587.28
458.381	4527.89
458.587	4517.65
458.793	4552.46
458.999	4333.33
459.204	4579.09
459.41	4396.82
459.616	4304.66
459.821	4470.55
460.027	4226.84
460.233	4185.88
460.438	4280.08
460.644	4173.59
460.85	4251.41
461.055	4063
461.261	4251.41
461.466	3921.69
461.672	3776.28
461.878	3976.98
462.083	3841.82
462.289	3639.07
462.494	3657.5
462.7	3489.57
462.905	3395.36
463.111	3692.32
463.316	3700.51
463.522	3571.49
463.727	3602.21
463.932	3667.74
464.138	3618.59
464.343	3571.49
464.549	3571.49
464.754	3741.47
464.959	3577.63
465.165	3522.34
465.37	3487.52
465.575	3292.96
465.781	3385.12
465.986	3397.41
466.191	3348.26
466.397	3364.64
466.602	3135.27
466.807	3211.04
467.012	3309.35
467.218	3243.81
467.423	3235.62
467.628	3305.25
467.833	3405.6
468.038	3274.53
468.244	3178.28
468.449	3290.92
468.654	3325.73
468.859	3301.15
469.064	3335.97
469.269	3237.67
469.474	3200.8
469.679	3366.69
469.885	3415.84
470.09	3387.17
470.295	3184.42
470.5	3182.37
470.705	3317.54
470.91	3387.17
471.115	3428.13
471.32	3297.06
471.525	3430.18
471.73	3464.99
471.935	3397.41
472.139	3116.84
472.344	3327.78
472.549	3333.92
472.754	3395.36
472.959	3317.54
473.164	3227.43
473.369	3266.34
473.574	3329.83
473.778	3368.74
473.983	3340.07
474.188	3378.98
474.393	3254.05
474.598	3153.7
474.802	3393.31
475.007	3209
475.212	3460.9
475.417	3247.91
475.621	3299.11
475.826	3284.77
476.031	3276.58
476.235	3194.66
476.44	3268.39
476.645	3256.1
476.849	3247.91
477.054	3241.76
477.259	3231.52
477.463	3297.06
477.668	3256.1
477.872	3381.03
478.077	3194.66
478.282	3170.08
478.486	3217.19
478.691	3137.32
478.895	3073.83
479.1	3141.41
479.304	3227.43
479.509	3108.65
479.713	3036.97
479.918	3215.14
480.122	3110.69
480.326	3170.08
480.531	2998.06
480.735	3131.17
480.94	3067.69
481.144	3227.43
481.348	3067.69
481.553	3084.07
481.757	3098.41
481.961	3194.66
482.166	3129.13
482.37	3055.4
482.574	3047.21
482.778	3141.41
482.983	3233.57
483.187	3200.8
483.391	3143.46
483.595	3223.33
483.8	3243.81
484.004	3182.37
484.208	3141.41
484.412	3211.04
484.616	3301.15
484.821	3204.9
485.025	3227.43
485.229	3202.85
485.433	3233.57
485.637	3161.89
485.841	3292.96
486.045	3487.52
486.249	3395.36
486.453	3292.96
486.657	3340.07
486.861	3231.52
487.065	3268.39
487.269	3424.03
487.473	3284.77
487.677	3366.69
487.881	3536.67
488.085	3403.55
488.289	3415.84
488.493	3405.6
488.697	3481.38
488.901	3520.29
489.105	3505.95
489.309	3579.68
489.512	3530.53
489.716	3553.06
489.92	3700.51
490.124	3462.94
490.328	3727.13
490.531	3462.94
490.735	3702.56
490.939	3579.68
491.143	3606.3
491.346	3657.5
491.55	3821.34
491.754	3798.81
491.958	3653.41
492.161	3643.17
492.365	3602.21
492.569	3579.68
492.772	3671.84
492.976	3688.22
493.18	3596.06
493.383	3759.9
493.587	3663.65
493.79	3895.07
493.994	3591.97
494.197	3747.61
494.401	3850.01
494.605	3632.93
494.808	3839.77
495.012	3751.71
495.215	3815.2
495.419	3854.11
495.622	3780.38
495.825	3688.22
496.029	3776.28
496.232	3907.35
496.436	3743.52
496.639	3903.26
496.843	3862.3
497.046	3899.16
497.249	3993.37
497.453	3800.86
497.656	3862.3
497.859	3888.92
498.063	3954.46
498.266	3899.16
498.469	3796.76
498.673	3979.03
498.876	4091.67
499.079	3800.86
499.282	3817.24
499.485	3964.7
499.689	3976.98
499.892	4046.62
500.095	3872.54
500.298	3905.31
500.501	3962.65
500.705	4048.66
500.908	4054.81
501.111	4036.38
501.314	3968.79
501.517	4228.88
501.72	4038.42
501.923	4171.54
502.126	3931.93
502.329	4157.21
502.532	4019.99
502.735	3981.08
502.938	4275.99
503.141	4095.77
503.344	4167.45
503.547	4259.6
503.75	4185.88
503.953	4151.06
504.156	4259.6
504.359	4116.25
504.562	4341.52
504.765	4222.74
504.968	4034.33
505.17	4132.63
505.373	4192.02
505.576	4249.36
505.779	4218.64
505.982	4333.33
506.185	4171.54
506.387	4312.85
506.59	4255.51
506.793	4314.9
506.996	4187.93
507.198	4224.79
507.401	4349.71
507.604	4267.8
507.807	4314.9
508.009	4388.63
508.212	4310.8
508.415	4341.52
508.617	4230.93
508.82	4259.6
509.022	4216.6
509.225	4290.32
509.428	4185.88
509.63	4339.48
509.833	4298.52
510.035	4759.31
510.238	4343.57
510.44	4167.45
510.643	4341.52
510.845	4591.38
511.048	4353.81
511.25	4513.55
511.453	4302.61
511.655	4484.88
511.858	4396.82
512.06	4478.74
512.262	4347.67
512.465	4374.29
512.667	4458.26
512.87	4257.56
513.072	4521.74
513.274	4486.93
513.477	4316.95
513.679	4417.3
513.881	4552.46
514.084	4435.73
514.286	4558.61
514.488	4509.46
514.69	4675.34
514.893	4534.03
515.095	4472.59
515.297	4413.2
515.499	4470.55
515.701	4398.87
515.904	4517.65
516.106	4658.96
516.308	4833.04
516.51	4693.77
516.712	4583.18
516.914	4536.08
517.116	4716.3
517.318	4661.01
517.52	4574.99
517.722	4542.22
517.925	4556.56
518.127	4579.09
518.329	4736.78
518.531	4542.22
518.733	4747.02
518.935	4677.39
519.136	4634.38
519.338	4607.76
519.54	4636.43
519.742	4775.69
519.944	4759.31
520.146	4759.31
520.348	4730.64
520.55	4767.5
520.752	4779.79
520.954	4808.46
521.155	4753.16
521.357	4808.46
521.559	4808.46
521.761	4775.69
521.963	4708.11
522.164	4732.69
522.366	4708.11
522.568	4861.71
522.77	4898.57
522.971	4853.52
523.173	4765.45
523.375	4787.98
523.576	4740.88
523.778	4794.12
523.98	4865.8
524.181	5070.6
524.383	4882.19
524.584	4810.51
524.786	4824.84
524.988	4773.64
525.189	4767.5
525.391	4773.64
525.592	4747.02
525.794	4876.04
525.995	4931.34
526.197	4904.71
526.398	5078.79
526.6	4767.5
526.801	4888.33
527.003	4710.16
527.204	4912.91
527.406	4736.78
527.607	4777.74
527.808	4919.05
528.01	4927.24
528.211	4876.04
528.412	5066.5
528.614	4906.76
528.815	4890.38
529.016	4820.75
529.218	4943.63
529.419	4759.31
529.62	4759.31
529.822	4837.13
530.023	4851.47
530.224	4734.73
530.425	5058.31
530.626	4861.71
530.828	4663.05
531.029	4865.8
531.23	4931.34
531.431	4630.29
531.632	4818.7
531.833	4744.97
532.035	4751.12
532.236	4718.35
532.437	4792.08
532.638	4648.72
532.839	4747.02
533.04	4863.76
533.241	4599.57
533.442	4964.11
533.643	4712.21
533.844	4554.51
534.045	4722.45
534.246	4865.8
534.447	4644.62
534.648	4722.45
534.849	4863.76
535.05	4738.83
535.251	4595.47
535.451	4636.43
535.652	4632.33
535.853	4759.31
536.054	4757.26
536.255	4697.87
536.456	4595.47
536.657	4615.95
536.857	4730.64
537.058	4704.01
537.259	4771.6
537.46	4693.77
537.66	4618
537.861	4701.97
538.062	4636.43
538.263	4527.89
538.463	4718.35
538.664	4685.58
538.865	4509.46
539.065	4757.26
539.266	4706.06
539.466	4472.59
539.667	4636.43
539.868	4734.73
540.068	4712.21
540.269	4697.87
540.469	4806.41
540.67	4722.45
540.87	4771.6
541.071	4648.72
541.271	4701.97
541.472	4714.25
541.672	4464.4
541.873	4652.81
542.073	4587.28
542.274	4618
542.474	4738.83
542.675	4609.81
542.875	4716.3
543.075	4544.27
543.276	4654.86
543.476	4685.58
543.676	4734.73
543.877	4568.85
544.077	4538.13
544.277	4632.33
544.478	4484.88
544.678	4577.04
544.878	4669.2
545.078	4550.42
545.279	4491.02
545.479	4435.73
545.679	4689.68
545.879	4552.46
546.079	4587.28
546.28	4429.59
546.48	4497.17
546.68	4742.92
546.88	4603.66
547.08	4560.66
547.28	4552.46
547.48	4372.24
547.68	4650.77
547.88	4546.32
548.081	4591.38
548.281	4421.39
548.481	4521.74
548.681	4503.31
548.881	4728.59
549.081	4669.2
549.28	4525.84
549.48	4568.85
549.68	4583.18
549.88	4538.13
550.08	4523.79
550.28	4759.31
550.48	4759.31
550.68	4661.01
550.88	4517.65
551.08	4472.59
551.279	4562.7
551.479	4394.77
551.679	4683.53
551.879	4478.74
552.079	4605.71
552.278	4431.63
552.478	4618
552.678	4599.57
552.878	4640.53
553.077	4534.03
553.277	4628.24
553.477	4587.28
553.676	4474.64
553.876	4429.59
554.076	4531.98
554.275	4540.18
554.475	4488.98
554.674	4652.81
554.874	4693.77
555.074	4372.24
555.273	4568.85
555.473	4599.57
555.672	4503.31
555.872	4443.92
556.071	4591.38
556.271	4634.38
556.47	4355.86
556.67	4484.88
556.869	4599.57
557.068	4480.78
557.268	4568.85
557.467	4448.02
557.667	4628.24
557.866	4753.16
558.065	4482.83
558.265	4638.48
558.464	4431.63
558.663	4513.55
558.863	4513.55
559.062	4642.57
559.261	4716.3
559.461	4661.01
559.66	4517.65
559.859	4538.13
560.058	4386.58
560.258	4505.36
560.457	4521.74
560.656	4667.15
560.855	4488.98
561.054	4507.41
561.253	4519.7
561.453	4554.51
561.652	4546.32
561.851	4642.57
562.05	4398.87
562.249	4349.71
562.448	4527.89
562.647	4521.74
562.846	4517.65
563.045	4484.88
563.244	4421.39
563.443	4661.01
563.642	4423.44
563.841	4652.81
564.04	4429.59
564.239	4478.74
564.438	4652.81
564.637	4464.4
564.836	4468.5
565.035	4331.28
565.234	4478.74
565.432	4376.34
565.631	4644.62
565.83	4464.4
566.029	4353.81
566.228	4396.82
566.427	4613.9
566.625	4370.19
566.824	4480.78
567.023	4448.02
567.222	4435.73
567.42	4497.17
567.619	4480.78
567.818	4413.2
568.016	4560.66
568.215	4454.16
568.414	4456.21
568.612	4642.57
568.811	4589.33
569.01	4429.59
569.208	4634.38
569.407	4458.26
569.605	4536.08
569.804	4460.31
570.002	4472.59
570.201	4278.04
570.4	4476.69
570.598	4286.23
570.797	4480.78
570.995	4302.61
571.193	4386.58
571.392	4400.91
571.59	4415.25
571.789	4368.15
571.987	4534.03
572.186	4521.74
572.384	4327.19
572.582	4517.65
572.781	4548.37
572.979	4452.11
573.177	4372.24
573.376	4419.35
573.574	4331.28
573.772	4390.67
573.971	4255.51
574.169	4431.63
574.367	4427.54
574.565	4390.67
574.763	4396.82
574.962	4415.25
575.16	4366.1
575.358	4325.14
575.556	4329.24
575.754	4339.48
575.952	4411.15
576.151	4357.91
576.349	4374.29
576.547	4433.68
576.745	4316.95
576.943	4329.24
577.141	4398.87
577.339	4241.17
577.537	4384.53
577.735	4431.63
577.933	4370.19
578.131	4300.56
578.329	4396.82
578.527	4255.51
578.725	4464.4
578.923	4218.64
579.121	4423.44
579.319	4235.03
579.516	4411.15
579.714	4454.16
579.912	4364.05
580.11	4056.86
580.308	4275.99
580.506	4390.67
580.704	4134.68
580.901	4284.18
581.099	4464.4
581.297	4355.86
581.495	4288.28
581.692	4306.71
581.89	4347.67
582.088	4243.22
582.285	4329.24
582.483	4245.27
582.681	4267.8
582.878	4263.7
583.076	4271.89
583.274	4235.03
583.471	4302.61
583.669	4386.58
583.866	4321.04
584.064	4333.33
584.262	4202.26
584.459	4226.84
584.657	4407.06
584.854	4312.85
585.052	4376.34
585.249	4235.03
585.447	4273.94
585.644	4249.36
585.841	4302.61
586.039	4382.48
586.236	4177.69
586.434	4323.09
586.631	4069.14
586.828	4341.52
587.026	4374.29
587.223	4181.78
587.42	4167.45
587.618	4167.45
587.815	4314.9
588.012	4247.32
588.21	4243.22
588.407	4374.29
588.604	4275.99
588.801	4194.07
588.999	4177.69
589.196	4437.78
589.393	4079.38
589.59	4296.47
589.787	4165.4
589.984	4296.47
590.182	4241.17
590.379	4157.21
590.576	4273.94
590.773	4275.99
590.97	4128.53
591.167	4151.06
591.364	4189.97
591.561	4300.56
591.758	4335.38
591.955	4218.64
592.152	4187.93
592.349	4192.02
592.546	4275.99
592.743	4349.71
592.94	4210.45
593.137	4200.21
593.334	4431.63
593.531	4267.8
593.727	4370.19
593.924	4218.64
594.121	4282.13
594.318	4243.22
594.515	4273.94
594.712	4243.22
594.908	4208.41
595.105	4116.25
595.302	4202.26
595.499	4239.12
595.696	4308.76
595.892	4140.82
596.089	4259.6
596.286	4290.32
596.482	4353.81
596.679	4484.88
596.876	4038.42
597.072	4292.37
597.269	4319
597.466	4149.01
597.662	4173.59
597.859	4173.59
598.055	4257.56
598.252	4210.45
598.448	4208.41
598.645	4224.79
598.841	4398.87
599.038	4284.18
599.234	4302.61
599.431	4173.59
599.627	4202.26
599.824	4161.3
600.02	4253.46
600.217	4224.79
600.413	4173.59
600.609	4316.95
600.806	4505.36
601.002	4357.91
601.198	4157.21
601.395	4267.8
601.591	4245.27
601.787	4175.64
601.984	4251.41
602.18	4343.57
602.376	4298.52
602.572	4206.36
602.769	4286.23
602.965	4364.05
603.161	4370.19
603.357	4200.21
603.553	4257.56
603.75	4243.22
603.946	4269.84
604.142	4284.18
604.338	4294.42
604.534	4421.39
604.73	4290.32
604.926	4220.69
605.122	4292.37
605.318	4185.88
605.514	4296.47
605.71	4202.26
605.906	4290.32
606.102	4484.88
606.298	4335.38
606.494	4265.75
606.69	4273.94
606.886	4331.28
607.082	4202.26
607.278	4304.66
607.474	4321.04
607.67	4257.56
607.866	4192.02
608.062	4460.31
608.257	4372.24
608.453	4306.71
608.649	4341.52
608.845	4157.21
609.041	4398.87
609.236	4425.49
609.432	4275.99
609.628	4439.83
609.824	4323.09
610.019	4218.64
610.215	4325.14
610.411	4521.74
610.606	4443.92
610.802	4431.63
610.998	4310.8
611.193	4536.08
611.389	4319
611.584	4437.78
611.78	4300.56
611.976	4243.22
612.171	4529.94
612.367	4413.2
612.562	4411.15
612.758	4493.07
612.953	4265.75
613.149	4454.16
613.344	4400.91
613.539	4458.26
613.735	4495.12
613.93	4493.07
614.126	4534.03
614.321	4513.55
614.517	4497.17
614.712	4546.32
614.907	4558.61
615.103	4448.02
615.298	4544.27
615.493	4505.36
615.688	4341.52
615.884	4693.77
616.079	4439.83
616.274	4529.94
616.47	4466.45
616.665	4407.06
616.86	4505.36
617.055	4480.78
617.25	4472.59
617.445	4574.99
617.641	4587.28
617.836	4601.62
618.031	4488.98
618.226	4634.38
618.421	4511.5
618.616	4472.59
618.811	4527.89
619.006	4611.85
619.201	4724.49
619.396	4544.27
619.591	4415.25
619.786	4536.08
619.981	4554.51
620.176	4554.51
620.371	4511.5
620.566	4546.32
620.761	4804.36
620.956	4503.31
621.151	4472.59
621.346	4542.22
621.541	4466.45
621.735	4650.77
621.93	4462.35
622.125	4452.11
622.32	4321.04
622.515	4466.45
622.709	4491.02
622.904	4615.95
623.099	4482.83
623.294	4448.02
623.488	4339.48
623.683	4454.16
623.878	4511.5
624.072	4421.39
624.267	4347.67
624.462	4544.27
624.656	4312.85
624.851	4448.02
625.046	4337.43
625.24	4249.36
625.435	4290.32
625.629	4415.25
625.824	4517.65
626.018	4323.09
626.213	4435.73
626.407	4316.95
626.602	4312.85
626.796	4235.03
626.991	4376.34
627.185	4331.28
627.38	4243.22
627.574	4271.89
627.768	4202.26
627.963	4146.97
628.157	4364.05
628.352	4249.36
628.546	4144.92
628.74	4247.32
628.935	4230.93
629.129	4226.84
629.323	4101.91
629.517	4044.57
629.712	4183.83
629.906	4200.21
630.1	4149.01
630.294	4149.01
630.489	4038.42
630.683	4009.75
630.877	4120.34
631.071	4079.38
631.265	4161.3
631.459	3940.12
631.653	4003.61
631.848	4118.29
632.042	4159.25
632.236	4095.77
632.43	3888.92
632.624	4071.19
632.818	3993.37
633.012	3936.03
633.206	3989.27
633.4	3942.17
633.594	3972.89
633.788	3901.21
633.982	4050.71
634.176	4003.61
634.369	3950.36
634.563	3974.94
634.757	3733.28
634.951	3774.24
635.145	4099.86
635.339	3790.62
635.533	3956.5
635.726	3915.55
635.92	3811.1
636.114	3755.8
636.308	3895.07
636.501	3878.68
636.695	3714.84
636.889	3675.93
637.083	3809.05
637.276	3749.66
637.47	3665.69
637.664	3628.83
637.857	3856.15
638.051	3802.91
638.244	3774.24
638.438	3657.5
638.632	3702.56
638.825	3632.93
639.019	3749.66
639.212	3571.49
639.406	3725.08
639.599	3772.19
639.793	3702.56
639.986	3686.17
640.18	3637.02
640.373	3612.45
640.567	3714.84
640.76	3450.66
640.954	3620.64
641.147	3399.46
641.34	3460.9
641.534	3628.83
641.727	3692.32
641.92	3548.96
642.114	3594.01
642.307	3450.66
642.5	3514.14
642.694	3528.48
642.887	3448.61
643.08	3571.49
643.273	3505.95
643.467	3430.18
643.66	3309.35
643.853	3419.94
644.046	3454.75
644.239	3452.7
644.432	3381.03
644.626	3258.15
644.819	3419.94
645.012	3362.59
645.205	3495.71
645.398	3424.03
645.591	3247.91
645.784	3280.68
645.977	3301.15
646.17	3331.87
646.363	3280.68
646.556	3215.14
646.749	3215.14
646.942	3190.56
647.135	3295.01
647.328	3213.09
647.521	3297.06
647.714	3333.92
647.907	3264.29
648.099	3100.45
648.292	3209
648.485	3202.85
648.678	3247.91
648.871	3268.39
649.064	3170.08
649.256	3053.35
649.449	3116.84
649.642	2924.33
649.835	3096.36
650.027	3151.65
650.22	3055.4
650.413	3086.12
650.605	3200.8
650.798	3079.97
650.991	3045.16
651.183	3071.78
651.376	3014.44
651.568	2938.66
651.761	3088.17
651.954	3069.73
652.146	2875.18
652.339	3030.82
652.531	3014.44
652.724	3006.25
652.916	2875.18
653.109	2932.52
653.301	2998.06
653.494	2998.06
653.686	2953
653.879	3012.39
654.071	2871.08
654.263	2785.07
654.456	2842.41
654.648	3067.69
654.84	2842.41
655.033	2854.7
655.225	2848.55
655.417	2758.44
655.61	3079.97
655.802	2838.31
655.994	2920.23
656.186	2721.58
656.379	2731.82
656.571	2735.92
656.763	2680.62
656.955	2692.91
657.148	2649.9
657.34	2750.25
657.532	2746.16
657.724	2750.25
657.916	2729.77
658.108	2787.11
658.3	2699.05
658.492	2654
658.684	2606.89
658.876	2748.2
659.068	2459.44
659.26	2518.83
659.452	2533.17
659.644	2582.32
659.836	2680.62
660.028	2514.73
660.22	2504.5
660.412	2514.73
660.604	2459.44
660.796	2666.28
660.988	2531.12
661.18	2430.77
661.372	2567.98
661.563	2518.83
661.755	2514.73
661.947	2498.35
662.139	2406.19
662.331	2424.62
662.522	2412.34
662.714	2414.38
662.906	2391.86
663.097	2375.47
663.289	2268.98
663.481	2309.94
663.673	2426.67
663.864	2381.62
664.056	2424.62
664.247	2336.56
664.439	2297.65
664.631	2361.14
664.822	2268.98
665.014	2309.94
665.205	2201.4
665.397	2209.59
665.588	2150.2
665.78	2398
665.971	2228.02
666.163	2094.9
666.354	2301.75
666.546	2144.05
666.737	2103.09
666.929	2078.52
667.12	2105.14
667.311	2219.83
667.503	2176.82
667.694	2258.74
667.885	2101.05
668.077	2250.55
668.268	2221.88
668.459	2055.99
668.651	2162.48
668.842	2123.57
669.033	2119.48
669.224	1931.06
669.416	2150.2
669.607	2015.03
669.798	1998.65
669.989	2160.44
670.18	1957.69
670.371	2064.18
670.563	2060.09
670.754	2168.63
670.945	2025.27
671.136	2037.56
671.327	1851.19
671.518	2113.33
671.709	2023.22
671.9	1984.31
672.091	1947.45
672.282	1888.06
672.473	1947.45
672.664	1840.95
672.855	1855.29
673.046	1863.48
673.237	2053.94
673.428	1988.41
673.619	1908.54
673.809	1947.45
674	1949.5
674.191	1849.15
674.382	1863.48
674.573	1873.72
674.764	1840.95
674.954	1814.33
675.145	1886.01
675.336	1685.31
675.527	1799.99
675.717	1750.84
675.908	1683.26
676.099	1793.85
676.289	1744.7
676.48	1646.4
676.671	1720.12
676.861	1630.01
677.052	1863.48
677.243	1685.31
677.433	1744.7
677.624	1728.31
677.814	1728.31
678.005	1673.02
678.195	1716.03
678.386	1640.25
678.576	1615.68
678.767	1613.63
678.957	1564.48
679.148	1734.46
679.338	1627.96
679.529	1605.44
679.719	1564.48
679.909	1638.2
680.1	1593.15
680.29	1589.05
680.481	1546.05
680.671	1558.33
680.861	1650.49
681.052	1584.96
681.242	1449.79
681.432	1539.9
681.622	1503.04
681.813	1392.45
682.003	1472.32
682.193	1441.6
682.383	1576.77
682.573	1406.78
682.764	1439.55
682.954	1507.13
683.144	1556.29
683.334	1421.12
683.524	1431.36
683.714	1539.9
683.904	1525.57
684.094	1488.7
684.284	1425.22
684.474	1455.94
684.664	1400.64
684.854	1433.41
685.044	1333.06
685.234	1443.65
685.424	1359.68
685.614	1382.21
685.804	1507.13
685.994	1429.31
686.184	1337.15
686.374	1318.72
686.564	1445.7
686.753	1265.47
686.943	1290.05
687.133	1408.83
687.323	1285.95
687.513	1265.47
687.702	1316.67
687.892	1232.71
688.082	1363.78
688.272	1331.01
688.461	1288
688.651	1433.41
688.841	1302.34
689.03	1208.13
689.22	1326.91
689.41	1298.24
689.599	1267.52
689.789	1134.4
689.979	1277.76
690.168	1134.4
690.358	1351.49
690.547	1261.38
690.737	1316.67
690.926	1158.98
691.116	1244.99
691.305	1220.42
691.495	1242.95
691.684	1136.45
691.874	1140.55
692.063	1193.8
692.252	1337.15
692.442	1210.18
692.631	1105.73
692.82	1066.82
693.01	1224.51
693.199	1146.69
693.388	1156.93
693.578	1130.31
693.767	1220.42
693.956	1089.35
694.146	1146.69
694.335	1017.67
694.524	1132.36
694.713	1187.65
694.902	1087.3
695.092	954.18
695.281	1140.55
695.47	1040.2
695.659	1103.68
695.848	1111.88
696.037	1023.81
696.226	1128.26
696.415	1062.73
696.604	1089.35
696.793	1077.06
696.982	968.52
697.171	1113.92
697.36	937.8
697.549	1060.68
697.738	892.74
697.927	884.55
698.116	917.32
698.305	1058.63
698.494	976.71
698.683	966.47
698.872	1142.6
699.061	1011.53
699.25	892.74
699.438	1005.38
699.627	880.46
699.816	1040.2
700.005	819.02
700.193	921.42
700.382	1021.77
700.571	958.28
700.76	954.18
700.948	1019.72
701.137	900.94
701.326	941.89
701.514	866.12
701.703	907.08
701.892	829.26
702.08	941.89
702.269	857.93
702.457	919.37
702.646	751.43
702.834	945.99
703.023	896.84
703.212	890.7
703.4	876.36
703.589	825.16
703.777	757.58
703.965	751.43
704.154	827.21
704.342	728.91
704.531	798.54
704.719	792.39
704.907	874.31
705.096	800.59
705.284	814.92
705.472	771.91
705.661	847.69
705.849	868.17
706.037	771.91
706.226	925.51
706.414	776.01
706.602	728.91
706.79	810.82
706.979	671.56
707.167	767.82
707.355	687.95
707.543	761.67
707.731	761.67
707.919	737.1
708.107	669.52
708.296	692.04
708.484	671.56
708.672	816.97
708.86	753.48
709.048	757.58
709.236	614.22
709.424	778.06
709.612	737.1
709.8	595.79
709.988	708.43
710.176	712.52
710.364	771.91
710.551	655.18
710.739	669.52
710.927	612.17
711.115	726.86
711.303	722.76
711.491	646.99
711.679	593.74
711.866	722.76
712.054	614.22
712.242	675.66
712.43	757.58
712.617	712.52
712.805	687.95
712.993	638.8
713.181	532.3
713.368	638.8
713.556	532.3
713.744	696.14
713.931	733
714.119	700.23
714.306	565.07
714.494	628.56
714.682	581.45
714.869	534.35
715.057	520.01
715.244	520.01
715.432	612.17
715.619	534.35
715.807	550.73
715.994	548.68
716.182	612.17
716.369	589.64
716.556	692.04
716.744	438.09
716.931	458.57
717.119	548.68
717.306	565.07
717.493	456.53
717.681	515.92
717.868	581.45
718.055	593.74
718.242	581.45
718.43	520.01
718.617	556.88
718.804	491.34
718.991	567.12
719.179	532.3
719.366	577.36
719.553	538.45
719.74	495.44
719.927	458.57
720.114	563.02
720.301	470.86
720.488	444.24
720.676	444.24
720.863	581.45
721.05	548.68
721.237	438.09
721.424	466.77
721.611	511.82
721.798	446.29
721.985	440.14
722.172	456.53
722.358	499.53
722.545	507.73
722.732	415.57
722.919	499.53
723.106	536.4
723.293	429.9
723.48	481.1
723.667	434
723.853	372.56
724.04	528.21
724.227	495.44
724.414	440.14
724.6	417.61
724.787	462.67
724.974	548.68
725.161	434
725.347	372.56
725.534	364.37
725.72	499.53
725.907	423.76
726.094	415.57
726.28	374.61
726.467	464.72
726.653	407.38
726.84	452.43
727.027	470.86
727.213	384.85
727.4	409.42
727.586	413.52
727.773	382.8
727.959	366.42
728.145	497.49
728.332	325.46
728.518	364.37
728.705	378.7
728.891	425.81
729.077	448.33
729.264	337.74
729.45	337.74
729.636	405.33
729.823	372.56
730.009	446.29
730.195	425.81
730.382	454.48
730.568	296.78
730.754	382.8
730.94	397.14
731.126	327.5
731.313	386.9
731.499	364.37
731.685	270.16
731.871	343.89
732.057	372.56
732.243	407.38
732.429	333.65
732.615	388.94
732.801	401.23
732.987	284.5
733.173	366.42
733.359	313.17
733.545	347.98
733.731	341.84
733.917	434
734.103	288.59
734.289	317.26
734.475	290.64
734.661	409.42
734.847	356.18
735.033	362.32
735.219	405.33
735.404	290.64
735.59	257.87
735.776	309.07
735.962	272.21
736.148	372.56
736.333	319.31
736.519	309.07
736.705	261.97
736.89	278.35
737.076	278.35
737.262	221.01
737.447	237.39
737.633	268.11
737.819	302.93
738.004	225.11
738.19	302.93
738.375	245.59
738.561	343.89
738.747	286.54
738.932	227.15
739.118	372.56
739.303	333.65
739.489	397.14
739.674	321.36
739.859	264.02
740.045	323.41
740.23	233.3
740.416	202.58
740.601	276.31
740.786	302.93
740.972	194.39
741.157	192.34
741.342	204.63
741.528	212.82
741.713	325.46
741.898	249.68
742.084	243.54
742.269	266.07
742.454	335.7
742.639	309.07
742.824	192.34
743.01	274.26
743.195	329.55
743.38	276.31
743.565	245.59
743.75	257.87
743.935	294.74
744.12	300.88
744.305	175.95
744.49	218.96
744.675	227.15
744.86	200.53
745.045	282.45
745.23	253.78
745.415	190.29
745.6	307.02
745.785	175.95
745.97	245.59
746.155	302.93
746.34	194.39
746.525	294.74
746.71	216.91
746.895	175.95
747.079	229.2
747.264	268.11
747.449	221.01
747.634	294.74
747.819	241.49
748.003	218.96
748.188	106.32
748.373	237.39
748.557	196.43
748.742	233.3
748.927	229.2
749.111	216.91
749.296	218.96
749.481	221.01
749.665	231.25
749.85	231.25
750.034	192.34
750.219	225.11
750.404	251.73
750.588	167.76
750.773	94.04
750.957	204.63
751.141	173.91
751.326	253.78
751.51	194.39
751.695	184.15
751.879	126.8
752.064	327.5
752.248	237.39
752.432	360.27
752.617	216.91
752.801	188.24
752.985	194.39
753.17	237.39
753.354	188.24
753.538	251.73
753.722	180.05
753.907	126.8
754.091	122.71
754.275	178
754.459	159.57
754.643	137.04
754.828	208.72
755.012	130.9
755.196	77.65
755.38	212.82
755.564	184.15
755.748	155.47
755.932	153.43
756.116	200.53
756.3	192.34
756.484	89.94
756.668	206.67
756.852	106.32
757.036	204.63
757.22	159.57
757.404	132.95
757.588	104.28
757.772	188.24
757.956	188.24
758.14	227.15
758.323	98.13
758.507	171.86
758.691	147.28
758.875	159.57
759.059	151.38
759.242	135
759.426	139.09
759.61	202.58
759.794	159.57
759.977	153.43
760.161	315.22
760.345	212.82
760.528	216.91
760.712	180.05
760.895	196.43
761.079	161.62
761.263	85.84
761.446	85.84
761.63	141.14
761.813	188.24
761.997	65.36
762.18	135
762.364	122.71
762.547	3.93
762.731	149.33
762.914	188.24
763.098	81.75
763.281	102.23
763.464	-32.94
763.648	167.76
763.831	143.19
764.015	32.6
764.198	155.47
764.381	145.24
764.564	61.27
764.748	151.38
764.931	163.67
765.114	106.32
765.297	192.34
765.481	79.7
765.664	89.94
765.847	96.08
766.03	206.67
766.213	137.04
766.397	122.71
766.58	44.88
766.763	173.91
766.946	200.53
767.129	57.17
767.312	120.66
767.495	91.99
767.678	118.61
767.861	128.85
768.044	128.85
768.227	40.79
768.41	128.85
768.593	204.63
768.776	139.09
768.959	188.24
769.142	171.86
769.324	63.32
769.507	114.52
769.69	151.38
769.873	198.48
770.056	249.68
770.239	48.98
770.421	178
770.604	106.32
770.787	83.8
770.97	126.8
771.152	75.6
771.335	147.28
771.518	26.45
771.7	171.86
771.883	178
772.066	102.23
772.248	71.51
772.431	143.19
772.613	155.47
772.796	87.89
772.978	130.9
773.161	114.52
773.343	120.66
773.526	65.36
773.708	5.97
773.891	75.6
774.073	145.24
774.256	22.36
774.438	180.05
774.621	98.13
774.803	190.29
774.985	98.13
775.168	192.34
775.35	89.94
775.532	30.55
775.715	63.32
775.897	65.36
776.079	94.04
776.261	128.85
776.444	8.02
776.626	89.94
776.808	98.13
776.99	106.32
777.173	126.8
777.355	48.98
777.537	63.32
777.719	100.18
777.901	69.46
778.083	14.17
778.265	8.02
778.447	122.71
778.629	40.79
778.811	44.88
778.993	139.09
779.175	48.98
779.357	75.6
779.539	-32.94
779.721	143.19
779.903	137.04
780.085	26.45
780.267	135
780.449	96.08
780.631	106.32
780.812	122.71
780.994	67.41
781.176	73.56
781.358	89.94
781.54	106.32
781.721	163.67
781.903	200.53
782.085	40.79
782.267	153.43
782.448	14.17
782.63	69.46
782.812	143.19
782.993	130.9
783.175	63.32
783.357	83.8
783.538	81.75
783.72	85.84
783.901	98.13
784.083	147.28
784.264	24.4
784.446	-4.27
784.627	38.74
784.809	59.22
784.99	120.66
785.172	24.4
785.353	106.32
785.535	38.74
785.716	8.02
785.897	-34.99
786.079	106.32
786.26	22.36
786.441	20.31
786.623	-24.75
786.804	94.04
786.985	67.41
787.167	96.08
787.348	122.71
787.529	-8.36
787.71	143.19
787.891	98.13
788.073	32.6
788.254	-59.56
788.435	188.24
788.616	28.5
788.797	30.55
788.978	53.08
789.159	3.93
789.34	46.93
789.522	57.17
789.703	24.4
789.884	-14.51
790.065	28.5
790.246	147.28
790.427	122.71
790.607	110.42
790.788	73.56
790.969	61.27
791.15	32.6
791.331	44.88
791.512	48.98
791.693	8.02
791.874	22.36
792.054	175.95
792.235	81.75
792.416	32.6
792.597	22.36
792.778	48.98
792.958	112.47
793.139	98.13
793.32	61.27
793.5	-90.28
793.681	53.08
793.862	120.66
794.042	63.32
794.223	-20.65
794.404	-32.94
794.584	-41.13
794.765	-12.46
794.945	8.02
795.126	149.33
795.306	22.36
795.487	28.5
795.667	46.93
795.848	53.08
796.028	-34.99
796.209	24.4
796.389	94.04
796.57	81.75
796.75	-2.22
796.93	-18.6
797.111	14.17
797.291	-8.36
797.471	118.61
797.652	-16.55
797.832	22.36
798.012	112.47
798.192	-8.36
798.373	-0.17
798.553	3.93
798.733	171.86
798.913	-51.37
799.093	28.5
799.274	48.98
799.454	137.04
799.634	184.15
799.814	75.6
799.994	65.36
800.174	5.97
800.354	8.02
800.534	1.88
800.714	65.36
800.894	61.27
801.074	1.88
801.254	-45.23
801.434	122.71
801.614	-8.36
801.794	-118.95
801.974	1417.02
802.154	46.93
802.334	77.65
802.514	-18.6
802.693	14.17
802.873	38.74
803.053	81.75
803.233	36.69
803.413	16.21
803.592	-67.75
803.772	18.26
803.952	57.17
804.131	-41.13
804.311	65.36
804.491	110.42
804.67	1.88
804.85	10.07
805.03	61.27
805.209	65.36
805.389	94.04
805.568	71.51
805.748	-2.22
805.928	10.07
806.107	94.04
806.287	94.04
806.466	-32.94
806.646	12.12
806.825	-0.17
807.004	-24.75
807.184	94.04
807.363	69.46
807.543	20.31
807.722	-18.6
807.901	81.75
808.081	91.99
808.26	-12.46
808.439	65.36
808.619	32.6
808.798	-14.51
808.977	-57.51
809.156	38.74
809.336	16.21
809.515	71.51
809.694	30.55
809.873	22.36
810.052	40.79
810.231	106.32
810.411	14.17
810.59	-10.41
810.769	48.98
810.948	65.36
811.127	-24.75
811.306	-73.9
811.485	5.97
811.664	130.9
811.843	-8.36
812.022	73.56
812.201	48.98
812.38	69.46
812.559	-65.71
812.737	87.89
812.916	-39.08
813.095	-41.13
813.274	-12.46
813.453	30.55
813.632	69.46
813.811	94.04
813.989	-63.66
814.168	51.03
814.347	16.21
814.526	24.4
814.704	46.93
814.883	106.32
815.062	-28.84
815.24	114.52
815.419	-55.47
815.598	-20.65
815.776	-41.13
815.955	-0.17
816.133	-39.08
816.312	32.6
816.49	16.21
816.669	44.88
816.847	-37.03
817.026	-4.27
817.204	-110.76
817.383	-59.56
817.561	-10.41
817.74	18.26
817.918	94.04
818.097	24.4
818.275	-34.99
818.453	89.94
818.632	44.88
818.81	44.88
818.988	-16.55
819.167	-2.22
819.345	-6.31
819.523	81.75
819.701	38.74
819.879	-8.36
820.058	57.17
820.236	28.5
820.414	53.08
820.592	-49.32
820.77	14.17
820.948	-45.23
821.127	-8.36
821.305	57.17
821.483	-30.89
821.661	16.21
821.839	-32.94
822.017	32.6
822.195	-43.18
822.373	98.13
822.551	40.79
822.729	55.12
822.907	-20.65
823.085	38.74
823.262	16.21
823.44	-59.56
823.618	-139.43
823.796	8.02
823.974	16.21
824.152	18.26
824.329	-26.79
824.507	22.36
824.685	-88.23
824.863	36.69
825.04	16.21
825.218	40.79
825.396	18.26
825.574	38.74
825.751	18.26
825.929	53.08
826.107	3.93
826.284	38.74
826.462	14.17
826.639	-65.71
826.817	-59.56
826.994	63.32
827.172	-43.18
827.349	48.98
827.527	36.69
827.704	-10.41
827.882	-8.36
828.059	-14.51
828.237	28.5
828.414	30.55
828.591	-147.62
828.769	71.51
828.946	-16.55
829.124	69.46
829.301	57.17
829.478	-10.41
829.655	38.74
829.833	28.5
830.01	-75.95
830.187	14.17
830.364	-114.86
830.542	-8.36
830.719	114.52
830.896	42.84
831.073	18.26
831.25	44.88
831.427	-20.65
831.604	-26.79
831.782	96.08
831.959	63.32
832.136	-37.03
832.313	26.45
832.49	73.56
832.667	12.12
832.844	-41.13
833.021	71.51
833.198	3.93
833.374	-8.36
833.551	-4.27
833.728	14.17
833.905	20.31
834.082	-73.9
834.259	30.55
834.436	48.98
834.612	5.97
834.789	96.08
834.966	12.12
835.143	20.31
835.319	-28.84
835.496	40.79
835.673	22.36
835.85	122.71
836.026	32.6
836.203	85.84
836.38	55.12
836.556	-53.42
836.733	24.4
836.909	77.65
837.086	-10.41
837.262	-69.8
837.439	16.21
837.616	-59.56
837.792	3.93
837.968	-20.65
838.145	-108.71
838.321	-24.75
838.498	-0.17
838.674	32.6
838.851	46.93
839.027	-8.36
839.203	-16.55
839.38	55.12
839.556	40.79
839.732	96.08
839.909	-65.71
840.085	79.7
840.261	-43.18
840.437	5.97
840.614	-24.75
840.79	151.38
840.966	53.08
841.142	-18.6
841.318	16.21
841.494	8.02
841.671	69.46
841.847	-49.32
842.023	12.12
842.199	98.13
842.375	22.36
842.551	-47.27
842.727	-12.46
842.903	106.32
843.079	5.97
843.255	30.55
843.431	57.17
843.607	-45.23
843.783	-125.1
843.959	14.17
844.134	-69.8
844.31	10.07
844.486	-43.18
844.662	-34.99
844.838	-10.41
845.013	44.88
845.189	48.98
845.365	-0.17
845.541	36.69
845.716	-32.94
845.892	94.04
846.068	-59.56
846.244	-147.62
846.419	22.36
846.595	-65.71
846.77	-34.99
846.946	77.65
847.122	-61.61
847.297	-4.27
847.473	110.42
847.648	-98.47
847.824	-18.6
847.999	-121
848.175	-45.23
848.35	28.5
848.526	143.19
848.701	-6.31
848.876	40.79
849.052	24.4
849.227	38.74
849.403	-0.17
849.578	-51.37
849.753	51.03
849.929	-20.65
850.104	-53.42
850.279	-63.66
850.454	59.22
850.63	77.65
850.805	-6.31
850.98	-0.17
851.155	-8.36
851.33	24.4
851.505	-30.89
851.681	114.52
851.856	-39.08
852.031	12.12
852.206	-24.75
852.381	-20.65
852.556	-77.99
852.731	44.88
852.906	3.93
853.081	28.5
853.256	130.9
853.431	-8.36
853.606	-37.03
853.781	-59.56
853.956	-34.99
854.131	-92.33
854.305	-32.94
854.48	-77.99
854.655	-67.75
854.83	-20.65
855.005	-73.9
855.18	-41.13
855.354	12.12
855.529	22.36
855.704	71.51
855.879	-32.94
856.053	-49.32
856.228	14.17
856.403	-53.42
856.577	22.36
856.752	-18.6
856.926	20.31
857.101	-43.18
857.276	-49.32
857.45	59.22
857.625	63.32
857.799	34.64
857.974	55.12
858.148	-92.33
858.323	-2.22
858.497	-20.65
858.672	44.88
858.846	-30.89
859.02	30.55
859.195	-92.33
859.369	-10.41
859.543	48.98
859.718	-57.51
859.892	-2.22
860.066	34.64
860.241	-43.18
860.415	-0.17
860.589	-10.41
860.763	36.69
860.938	3.93
861.112	28.5
861.286	-22.7
861.46	8.02
861.634	-32.94
861.808	91.99
861.982	-73.9
862.157	-26.79
862.331	16.21
862.505	-16.55
862.679	-51.37
862.853	-34.99
863.027	-8.36
863.201	63.32
863.375	-37.03
863.549	8.02
863.722	28.5
863.896	98.13
864.07	-24.75
864.244	-32.94
864.418	75.6
864.592	30.55
864.766	-108.71
864.939	-6.31
865.113	-57.51
865.287	81.75
865.461	-34.99
865.634	36.69
865.808	-10.41
865.982	8.02
866.156	-75.95
866.329	-39.08
866.503	-24.75
866.676	48.98
866.85	5.97
867.024	-65.71
867.197	65.36
867.371	-28.84
867.544	-32.94
867.718	-92.33
867.891	14.17
868.065	-84.14
868.238	59.22
868.412	65.36
868.585	3.93
868.759	-55.47
868.932	-49.32
869.105	-75.95
869.279	40.79
869.452	-129.19
869.625	20.31
869.799	24.4
869.972	-118.95
870.145	-32.94
870.319	8.02
870.492	-30.89
870.665	10.07
870.838	-71.85
871.011	-159.91
871.185	-32.94
871.358	-106.67
871.531	32.6
871.704	1.88
871.877	30.55
872.05	-26.79
872.223	-65.71
872.396	-8.36
872.569	8.02
872.742	32.6
872.915	96.08
873.088	-67.75
873.261	16.21
873.434	-0.17
873.607	-12.46
873.78	32.6
873.953	-90.28
874.126	38.74
874.299	75.6
874.471	32.6
874.644	-4.27
874.817	-8.36
874.99	106.32
875.163	-80.04
875.335	-6.31
875.508	-0.17
875.681	110.42
875.853	-20.65
876.026	36.69
876.199	3.93
876.371	-12.46
876.544	-53.42
876.717	98.13
876.889	-24.75
877.062	-28.84
877.234	-18.6
877.407	-69.8
877.579	-61.61
877.752	-73.9
877.924	5.97
878.097	1.88
878.269	71.51
878.442	-37.03
878.614	-24.75
878.786	18.26
878.959	75.6
879.131	22.36
879.303	-84.14
879.476	8.02
879.648	-75.95
879.82	-4.27
879.993	-67.75
880.165	-55.47
880.337	-114.86
880.509	-4.27
880.681	-12.46
880.854	-16.55
881.026	14.17
881.198	120.66
881.37	-24.75
881.542	-98.47
881.714	-51.37
881.886	-63.66
882.058	16.21
882.23	22.36
882.402	-32.94
882.574	57.17
882.746	98.13
882.918	79.7
883.09	36.69
883.262	40.79
883.434	-75.95
883.606	-80.04
883.778	-24.75
883.95	118.61
884.122	16.21
884.293	-2.22
884.465	55.12
884.637	38.74
884.809	-8.36
884.98	5.97
885.152	36.69
885.324	-32.94
885.496	-61.61
885.667	-57.51
885.839	-98.47
886.011	89.94
886.182	5.97
886.354	48.98
886.525	-22.7
886.697	-0.17
886.869	-116.9
887.04	-10.41
887.212	63.32
887.383	120.66
887.555	22.36
887.726	-84.14
887.897	-51.37
888.069	36.69
888.24	-8.36
888.412	100.18
888.583	20.31
888.754	-12.46
888.926	-114.86
889.097	-98.47
889.268	-86.19
889.44	-8.36
889.611	-139.43
889.782	-63.66
889.953	-73.9
890.125	5.97
890.296	-63.66
890.467	-39.08
890.638	-77.99
890.809	-28.84
890.98	10.07
891.151	44.88
891.323	79.7
891.494	-10.41
891.665	77.65
891.836	-71.85
892.007	-4.27
892.178	-51.37
892.349	16.21
892.52	-0.17
892.691	-82.09
892.862	-26.79
893.032	-106.67
893.203	-41.13
893.374	-51.37
893.545	79.7
893.716	-34.99
893.887	57.17
894.057	12.12
894.228	-41.13
894.399	-37.03
894.57	59.22
894.74	-24.75
894.911	5.97
895.082	-18.6
895.253	-49.32
895.423	-16.55
895.594	30.55
895.764	-16.55
895.935	-73.9
896.106	14.17
896.276	-43.18
896.447	-12.46
896.617	-26.79
896.788	-16.55
896.958	-102.57
897.129	-80.04
897.299	26.45
897.47	98.13
897.64	-8.36
897.81	-43.18
897.981	-49.32
898.151	-32.94
898.322	20.31
898.492	40.79
898.662	-4.27
898.832	3.93
899.003	87.89
899.173	46.93
899.343	-34.99
899.513	-65.71
