Data from USB4F104151__76__11-31-38-104.txt Node

Date: Fri Mar 14 11:31:38 EDT 2025
User: louis
Spectrometer: USB4F10415
Trigger mode: 4
Integration Time (sec): 5.000000E-2
Scans to average: 1
Electric dark correction enabled: true
Nonlinearity correction enabled: false
Boxcar width: 0
XAxis mode: Wavelengths
Number of Pixels in Spectrum: 3648
>>>>>Begin Spectral Data<<<<<
178.204	-159.4
178.424	-159.4
178.644	-159.4
178.864	-167.59
179.084	-179.88
179.304	4.44
179.524	4.44
179.744	-24.23
179.964	-44.71
180.184	55.64
180.404	-13.99
180.624	-54.95
180.844	14.68
181.064	-1.71
181.283	12.63
181.503	20.82
181.723	26.96
181.943	-36.52
182.163	84.31
182.383	-7.85
182.602	88.4
182.822	149.84
183.042	12.63
183.262	-26.28
183.482	37.2
183.701	10.58
183.921	8.53
184.141	-63.15
184.361	63.83
184.58	20.82
184.8	-3.75
185.02	-36.52
185.239	-11.95
185.459	59.73
185.679	92.5
185.898	-71.34
186.118	37.2
186.338	16.73
186.557	43.35
186.777	-87.72
186.997	35.16
187.216	53.59
187.436	53.59
187.655	100.69
187.875	69.97
188.095	51.54
188.314	51.54
188.534	119.12
188.753	37.2
188.973	-11.95
189.192	86.36
189.412	35.16
189.631	29.01
189.851	61.78
190.07	6.49
190.29	-5.8
190.509	-38.57
190.729	22.87
190.948	92.5
191.168	215.38
191.387	67.92
191.607	74.07
191.826	8.53
192.045	4.44
192.265	69.97
192.484	65.88
192.704	-11.95
192.923	6.49
193.142	92.5
193.362	10.58
193.581	63.83
193.8	74.07
194.02	4.44
194.239	-11.95
194.458	80.21
194.678	35.16
194.897	49.49
195.116	-44.71
195.335	10.58
195.555	24.92
195.774	16.73
195.993	45.4
196.212	-30.38
196.432	10.58
196.651	51.54
196.87	51.54
197.089	59.73
197.308	26.96
197.528	6.49
197.747	-48.81
197.966	16.73
198.185	82.26
198.404	0.34
198.623	37.2
198.842	12.63
199.062	45.4
199.281	0.34
199.5	53.59
199.719	35.16
199.938	63.83
200.157	31.06
200.376	57.68
200.595	49.49
200.814	53.59
201.033	-59.05
201.252	102.74
201.471	69.97
201.69	45.4
201.909	35.16
202.128	57.68
202.347	10.58
202.566	20.82
202.785	-28.33
203.004	16.73
203.223	98.64
203.442	53.59
203.661	0.34
203.879	-3.75
204.098	102.74
204.317	2.39
204.536	37.2
204.755	37.2
204.974	-24.23
205.193	18.77
205.411	100.69
205.63	-44.71
205.849	22.87
206.068	12.63
206.287	-11.95
206.505	53.59
206.724	10.58
206.943	33.11
207.162	-11.95
207.381	39.25
207.599	-42.67
207.818	20.82
208.037	8.53
208.255	74.07
208.474	61.78
208.693	53.59
208.911	-63.15
209.13	12.63
209.349	41.3
209.567	20.82
209.786	84.31
210.005	47.44
210.223	37.2
210.442	-48.81
210.661	-1.71
210.879	8.53
211.098	-34.47
211.316	41.3
211.535	88.4
211.753	45.4
211.972	102.74
212.191	-24.23
212.409	67.92
212.628	53.59
212.846	-91.82
213.065	72.02
213.283	72.02
213.502	84.31
213.72	53.59
213.938	61.78
214.157	-61.1
214.375	35.16
214.594	-1.71
214.812	4.44
215.031	6.49
215.249	-46.76
215.467	14.68
215.686	37.2
215.904	100.69
216.122	-3.75
216.341	102.74
216.559	37.2
216.778	141.65
216.996	-36.52
217.214	35.16
217.432	37.2
217.651	4.44
217.869	8.53
218.087	-16.04
218.306	26.96
218.524	65.88
218.742	20.82
218.96	4.44
219.179	12.63
219.397	35.16
219.615	82.26
219.833	82.26
220.051	33.11
220.27	102.74
220.488	94.55
220.706	41.3
220.924	-46.76
221.142	24.92
221.36	26.96
221.578	82.26
221.796	4.44
222.015	18.77
222.233	20.82
222.451	131.41
222.669	31.06
222.887	43.35
223.105	18.77
223.323	-28.33
223.541	-61.1
223.759	72.02
223.977	-24.23
224.195	43.35
224.413	69.97
224.631	82.26
224.849	47.44
225.067	143.7
225.285	-36.52
225.503	14.68
225.721	-7.85
225.939	-18.09
226.157	4.44
226.375	92.5
226.592	31.06
226.81	-11.95
227.028	-7.85
227.246	65.88
227.464	43.35
227.682	57.68
227.9	69.97
228.117	47.44
228.335	59.73
228.553	53.59
228.771	61.78
228.989	69.97
229.206	-9.9
229.424	-34.47
229.642	-26.28
229.86	-3.75
230.077	18.77
230.295	69.97
230.513	45.4
230.731	92.5
230.948	41.3
231.166	45.4
231.384	-7.85
231.601	-3.75
231.819	74.07
232.037	29.01
232.254	2.39
232.472	31.06
232.689	-36.52
232.907	31.06
233.125	35.16
233.342	8.53
233.56	4.44
233.777	49.49
233.995	65.88
234.213	76.12
234.43	-5.8
234.648	-9.9
234.865	-16.04
235.083	69.97
235.3	39.25
235.518	41.3
235.735	51.54
235.953	125.27
236.17	72.02
236.388	-16.04
236.605	29.01
236.822	12.63
237.04	82.26
237.257	61.78
237.475	57.68
237.692	-54.95
237.909	-3.75
238.127	39.25
238.344	78.16
238.562	63.83
238.779	37.2
238.996	10.58
239.214	-32.43
239.431	108.88
239.648	31.06
239.865	143.7
240.083	55.64
240.3	10.58
240.517	-18.09
240.735	-24.23
240.952	94.55
241.169	45.4
241.386	26.96
241.603	67.92
241.821	-5.8
242.038	20.82
242.255	57.68
242.472	8.53
242.689	43.35
242.907	102.74
243.124	74.07
243.341	24.92
243.558	-24.23
243.775	-34.47
243.992	-63.15
244.209	69.97
244.426	86.36
244.643	86.36
244.86	-11.95
245.078	10.58
245.295	45.4
245.512	55.64
245.729	-22.19
245.946	123.22
246.163	6.49
246.38	16.73
246.597	-11.95
246.814	-7.85
247.031	35.16
247.248	43.35
247.464	-46.76
247.681	47.44
247.898	2.39
248.115	53.59
248.332	-1.71
248.549	20.82
248.766	115.03
248.983	84.31
249.2	80.21
249.417	151.89
249.633	69.97
249.85	63.83
250.067	-44.71
250.284	86.36
250.501	94.55
250.717	96.6
250.934	10.58
251.151	61.78
251.368	-20.14
251.585	31.06
251.801	57.68
252.018	-11.95
252.235	20.82
252.451	-11.95
252.668	29.01
252.885	-11.95
253.102	2.39
253.318	20.82
253.535	76.12
253.752	-52.91
253.968	18.77
254.185	63.83
254.401	92.5
254.618	61.78
254.835	-26.28
255.051	74.07
255.268	0.34
255.484	45.4
255.701	26.96
255.917	-1.71
256.134	16.73
256.351	8.53
256.567	20.82
256.784	-44.71
257	-28.33
257.217	10.58
257.433	43.35
257.65	-30.38
257.866	2.39
258.082	-1.71
258.299	-9.9
258.515	61.78
258.732	78.16
258.948	76.12
259.165	78.16
259.381	37.2
259.597	39.25
259.814	-40.62
260.03	33.11
260.246	45.4
260.463	86.36
260.679	8.53
260.895	76.12
261.112	84.31
261.328	-7.85
261.544	72.02
261.761	94.55
261.977	-44.71
262.193	57.68
262.409	35.16
262.626	-20.14
262.842	-5.8
263.058	86.36
263.274	129.36
263.49	16.73
263.707	65.88
263.923	63.83
264.139	29.01
264.355	-11.95
264.571	41.3
264.787	35.16
265.004	72.02
265.22	63.83
265.436	37.2
265.652	20.82
265.868	43.35
266.084	14.68
266.3	-16.04
266.516	43.35
266.732	33.11
266.948	31.06
267.164	20.82
267.38	4.44
267.596	12.63
267.812	49.49
268.028	57.68
268.244	49.49
268.46	-11.95
268.676	53.59
268.892	-50.86
269.108	-63.15
269.324	-26.28
269.54	-5.8
269.756	78.16
269.972	-11.95
270.188	37.2
270.403	43.35
270.619	76.12
270.835	49.49
271.051	53.59
271.267	12.63
271.483	6.49
271.698	37.2
271.914	-11.95
272.13	78.16
272.346	47.44
272.562	29.01
272.777	29.01
272.993	59.73
273.209	43.35
273.425	51.54
273.64	12.63
273.856	84.31
274.072	12.63
274.287	-16.04
274.503	80.21
274.719	18.77
274.934	-3.75
275.15	2.39
275.366	-7.85
275.581	4.44
275.797	4.44
276.012	22.87
276.228	18.77
276.444	67.92
276.659	33.11
276.875	-20.14
277.09	47.44
277.306	8.53
277.521	55.64
277.737	29.01
277.952	98.64
278.168	53.59
278.383	53.59
278.599	-5.8
278.814	26.96
279.03	80.21
279.245	86.36
279.461	2.39
279.676	-13.99
279.892	-3.75
280.107	45.4
280.322	37.2
280.538	59.73
280.753	-32.43
280.969	-52.91
281.184	29.01
281.399	92.5
281.615	8.53
281.83	-20.14
282.045	-61.1
282.26	57.68
282.476	106.84
282.691	86.36
282.906	-11.95
283.122	33.11
283.337	8.53
283.552	-13.99
283.767	-69.29
283.983	45.4
284.198	59.73
284.413	149.84
284.628	-20.14
284.843	16.73
285.058	37.2
285.274	51.54
285.489	-63.15
285.704	26.96
285.919	88.4
286.134	4.44
286.349	92.5
286.564	67.92
286.779	94.55
286.995	76.12
287.21	12.63
287.425	43.35
287.64	-3.75
287.855	16.73
288.07	-24.23
288.285	-7.85
288.5	110.93
288.715	110.93
288.93	-26.28
289.145	-67.24
289.36	59.73
289.575	49.49
289.79	43.35
290.004	20.82
290.219	12.63
290.434	14.68
290.649	-11.95
290.864	-7.85
291.079	37.2
291.294	-36.52
291.509	51.54
291.724	-77.48
291.938	24.92
292.153	67.92
292.368	24.92
292.583	51.54
292.798	72.02
293.012	76.12
293.227	78.16
293.442	20.82
293.657	84.31
293.871	92.5
294.086	10.58
294.301	51.54
294.516	61.78
294.73	2.39
294.945	-18.09
295.16	-44.71
295.374	57.68
295.589	92.5
295.804	35.16
296.018	20.82
296.233	69.97
296.447	31.06
296.662	-7.85
296.877	86.36
297.091	12.63
297.306	-1.71
297.52	41.3
297.735	55.64
297.949	6.49
298.164	119.12
298.378	-30.38
298.593	-16.04
298.807	-11.95
299.022	-3.75
299.236	98.64
299.451	-36.52
299.665	-30.38
299.88	-95.91
300.094	61.78
300.309	29.01
300.523	12.63
300.737	49.49
300.952	84.31
301.166	41.3
301.381	37.2
301.595	-11.95
301.809	-22.19
302.024	-20.14
302.238	-11.95
302.452	90.45
302.667	-11.95
302.881	94.55
303.095	14.68
303.309	35.16
303.524	61.78
303.738	55.64
303.952	-3.75
304.166	80.21
304.381	-11.95
304.595	106.84
304.809	39.25
305.023	20.82
305.237	41.3
305.452	29.01
305.666	26.96
305.88	61.78
306.094	-36.52
306.308	18.77
306.522	53.59
306.736	182.61
306.95	-3.75
307.164	22.87
307.379	-28.33
307.593	26.96
307.807	82.26
308.021	67.92
308.235	12.63
308.449	-26.28
308.663	-11.95
308.877	145.75
309.091	-20.14
309.305	31.06
309.519	-24.23
309.733	88.4
309.947	-38.57
310.161	33.11
310.374	94.55
310.588	67.92
310.802	-65.19
311.016	26.96
311.23	106.84
311.444	57.68
311.658	29.01
311.872	45.4
312.085	72.02
312.299	131.41
312.513	45.4
312.727	26.96
312.941	8.53
313.154	8.53
313.368	16.73
313.582	65.88
313.796	37.2
314.009	41.3
314.223	67.92
314.437	84.31
314.651	16.73
314.864	-28.33
315.078	51.54
315.292	-32.43
315.505	-32.43
315.719	100.69
315.933	49.49
316.146	108.88
316.36	24.92
316.573	84.31
316.787	37.2
317.001	78.16
317.214	16.73
317.428	53.59
317.641	84.31
317.855	20.82
318.068	55.64
318.282	2.39
318.495	115.03
318.709	104.79
318.922	-73.39
319.136	125.27
319.349	37.2
319.563	12.63
319.776	47.44
319.99	0.34
320.203	37.2
320.417	0.34
320.63	98.64
320.843	78.16
321.057	69.97
321.27	20.82
321.483	61.78
321.697	139.6
321.91	10.58
322.124	41.3
322.337	12.63
322.55	31.06
322.763	53.59
322.977	86.36
323.19	67.92
323.403	-18.09
323.617	115.03
323.83	37.2
324.043	-3.75
324.256	35.16
324.469	2.39
324.683	141.65
324.896	24.92
325.109	33.11
325.322	-44.71
325.535	33.11
325.748	78.16
325.962	53.59
326.175	29.01
326.388	96.6
326.601	0.34
326.814	115.03
327.027	59.73
327.24	78.16
327.453	-38.57
327.666	49.49
327.879	53.59
328.092	61.78
328.305	61.78
328.518	69.97
328.731	35.16
328.944	31.06
329.157	43.35
329.37	-20.14
329.583	74.07
329.796	121.17
330.009	-44.71
330.222	106.84
330.435	108.88
330.648	59.73
330.861	43.35
331.073	51.54
331.286	59.73
331.499	39.25
331.712	10.58
331.925	104.79
332.138	35.16
332.35	112.98
332.563	12.63
332.776	78.16
332.989	29.01
333.202	-20.14
333.414	-1.71
333.627	24.92
333.84	47.44
334.053	61.78
334.265	29.01
334.478	61.78
334.691	18.77
334.903	86.36
335.116	26.96
335.329	78.16
335.541	127.32
335.754	108.88
335.966	20.82
336.179	43.35
336.392	2.39
336.604	-1.71
336.817	26.96
337.029	143.7
337.242	-20.14
337.454	80.21
337.667	69.97
337.88	53.59
338.092	20.82
338.305	92.5
338.517	12.63
338.729	147.8
338.942	43.35
339.154	57.68
339.367	-52.91
339.579	10.58
339.792	43.35
340.004	88.4
340.217	18.77
340.429	-3.75
340.641	2.39
340.854	-24.23
341.066	-3.75
341.278	45.4
341.491	155.99
341.703	16.73
341.915	26.96
342.128	61.78
342.34	4.44
342.552	24.92
342.764	8.53
342.977	61.78
343.189	22.87
343.401	4.44
343.613	51.54
343.826	51.54
344.038	-20.14
344.25	61.78
344.462	18.77
344.674	57.68
344.886	16.73
345.099	49.49
345.311	117.08
345.523	53.59
345.735	18.77
345.947	78.16
346.159	51.54
346.371	14.68
346.583	43.35
346.795	88.4
347.007	57.68
347.219	69.97
347.431	29.01
347.643	86.36
347.855	59.73
348.067	98.64
348.279	4.44
348.491	133.46
348.703	12.63
348.915	51.54
349.127	29.01
349.339	121.17
349.551	20.82
349.763	41.3
349.975	59.73
350.187	172.37
350.399	98.64
350.61	47.44
350.822	74.07
351.034	37.2
351.246	10.58
351.458	86.36
351.669	24.92
351.881	53.59
352.093	69.97
352.305	119.12
352.517	76.12
352.728	82.26
352.94	49.49
353.152	33.11
353.363	29.01
353.575	78.16
353.787	-3.75
353.999	47.44
354.21	108.88
354.422	53.59
354.633	33.11
354.845	39.25
355.057	45.4
355.268	119.12
355.48	78.16
355.692	-28.33
355.903	12.63
356.115	35.16
356.326	49.49
356.538	104.79
356.749	53.59
356.961	96.6
357.172	35.16
357.384	18.77
357.595	61.78
357.807	18.77
358.018	-1.71
358.23	53.59
358.441	49.49
358.653	49.49
358.864	65.88
359.075	16.73
359.287	69.97
359.498	92.5
359.709	35.16
359.921	26.96
360.132	59.73
360.344	92.5
360.555	-11.95
360.766	104.79
360.977	16.73
361.189	151.89
361.4	29.01
361.611	49.49
361.823	8.53
362.034	88.4
362.245	61.78
362.456	24.92
362.667	35.16
362.879	49.49
363.09	102.74
363.301	49.49
363.512	53.59
363.723	-7.85
363.935	-24.23
364.146	47.44
364.357	86.36
364.568	33.11
364.779	-28.33
364.99	72.02
365.201	49.49
365.412	55.64
365.623	35.16
365.834	33.11
366.045	14.68
366.256	84.31
366.467	37.2
366.678	135.51
366.889	6.49
367.1	43.35
367.311	10.58
367.522	8.53
367.733	4.44
367.944	69.97
368.155	16.73
368.366	37.2
368.577	96.6
368.788	158.03
368.999	98.64
369.209	63.83
369.42	69.97
369.631	125.27
369.842	110.93
370.053	53.59
370.264	65.88
370.474	-7.85
370.685	45.4
370.896	102.74
371.107	117.08
371.317	22.87
371.528	51.54
371.739	61.78
371.95	35.16
372.16	-3.75
372.371	-59.05
372.582	41.3
372.792	31.06
373.003	147.8
373.214	74.07
373.424	78.16
373.635	69.97
373.846	84.31
374.056	78.16
374.267	41.3
374.477	106.84
374.688	20.82
374.898	24.92
375.109	82.26
375.319	14.68
375.53	67.92
375.74	57.68
375.951	49.49
376.161	-57
376.372	86.36
376.582	18.77
376.793	65.88
377.003	37.2
377.214	59.73
377.424	74.07
377.635	41.3
377.845	-3.75
378.055	174.42
378.266	-13.99
378.476	96.6
378.686	135.51
378.897	-24.23
379.107	-3.75
379.317	80.21
379.528	33.11
379.738	26.96
379.948	-54.95
380.158	53.59
380.369	45.4
380.579	-3.75
380.789	20.82
380.999	29.01
381.21	125.27
381.42	35.16
381.63	29.01
381.84	37.2
382.05	53.59
382.261	78.16
382.471	-24.23
382.681	35.16
382.891	98.64
383.101	26.96
383.311	43.35
383.521	-5.8
383.731	94.55
383.941	61.78
384.151	65.88
384.361	94.55
384.571	84.31
384.781	-30.38
384.991	129.36
385.201	119.12
385.411	90.45
385.621	53.59
385.831	-3.75
386.041	100.69
386.251	29.01
386.461	90.45
386.671	37.2
386.881	29.01
387.091	69.97
387.301	110.93
387.511	61.78
387.72	102.74
387.93	106.84
388.14	2.39
388.35	47.44
388.56	63.83
388.769	72.02
388.979	102.74
389.189	-28.33
389.399	84.31
389.609	92.5
389.818	45.4
390.028	57.68
390.238	51.54
390.447	88.4
390.657	74.07
390.867	20.82
391.076	8.53
391.286	18.77
391.496	33.11
391.705	100.69
391.915	33.11
392.125	182.61
392.334	24.92
392.544	63.83
392.753	76.12
392.963	47.44
393.172	69.97
393.382	26.96
393.591	108.88
393.801	-77.48
394.01	10.58
394.22	92.5
394.429	117.08
394.639	37.2
394.848	72.02
395.058	106.84
395.267	123.22
395.477	94.55
395.686	149.84
395.895	143.7
396.105	76.12
396.314	67.92
396.524	33.11
396.733	18.77
396.942	90.45
397.152	20.82
397.361	12.63
397.57	45.4
397.78	102.74
397.989	125.27
398.198	112.98
398.407	51.54
398.617	61.78
398.826	78.16
399.035	57.68
399.244	133.46
399.453	51.54
399.663	135.51
399.872	88.4
400.081	59.73
400.29	104.79
400.499	37.2
400.708	104.79
400.917	115.03
401.127	20.82
401.336	-7.85
401.545	135.51
401.754	92.5
401.963	180.56
402.172	29.01
402.381	92.5
402.59	49.49
402.799	76.12
403.008	115.03
403.217	153.94
403.426	63.83
403.635	143.7
403.844	106.84
404.053	98.64
404.262	143.7
404.471	196.95
404.68	160.08
404.888	119.12
405.097	92.5
405.306	135.51
405.515	90.45
405.724	139.6
405.933	117.08
406.142	104.79
406.35	180.56
406.559	137.56
406.768	160.08
406.977	190.8
407.185	237.91
407.394	160.08
407.603	102.74
407.812	258.39
408.02	217.43
408.229	231.76
408.438	209.23
408.646	131.41
408.855	127.32
409.064	174.42
409.272	209.23
409.481	233.81
409.69	211.28
409.898	246.1
410.107	211.28
410.315	272.72
410.524	176.47
410.733	223.57
410.941	272.72
411.15	340.3
411.358	231.76
411.567	289.1
411.775	301.39
411.984	297.3
412.192	336.21
412.401	276.82
412.609	407.89
412.818	332.11
413.026	377.17
413.234	387.41
413.443	457.04
413.651	430.41
413.86	444.75
414.068	440.65
414.276	491.85
414.485	477.52
414.693	418.13
414.901	598.35
415.11	524.62
415.318	594.25
415.526	512.33
415.734	575.82
415.943	651.6
416.151	659.79
416.359	633.16
416.567	743.75
416.776	807.24
416.984	776.52
417.192	698.7
417.4	692.55
417.608	676.17
417.817	797
418.025	813.38
418.233	979.27
418.441	823.62
418.649	788.81
418.857	958.79
419.065	979.27
419.273	1040.71
419.481	1012.04
419.689	1122.63
419.897	1198.4
420.105	1184.07
420.313	1177.92
420.521	1349.95
420.729	1308.99
420.937	1323.33
421.145	1323.33
421.353	1454.4
421.561	1470.78
421.769	1556.8
421.977	1534.27
422.185	1560.89
422.393	1704.25
422.601	1685.82
422.809	1757.5
423.017	1732.92
423.224	1857.85
423.432	1970.49
423.64	1923.38
423.848	2066.74
424.056	1997.11
424.263	2089.27
424.471	2230.58
424.679	2285.87
424.887	2353.46
425.094	2402.61
425.302	2505.01
425.51	2523.44
425.718	2541.87
425.925	2709.8
426.133	2814.25
426.341	2926.89
426.548	2973.99
426.756	2994.47
426.964	2961.7
427.171	3297.57
427.379	3383.59
427.586	3324.19
427.794	3305.76
428.001	3676.45
428.209	3748.12
428.417	3674.4
428.624	4102.42
428.832	4083.99
429.039	3844.38
429.247	4045.08
429.454	4495.63
429.662	4604.18
429.869	4448.53
430.076	4720.91
430.284	4538.64
430.491	4862.22
430.699	5011.72
430.906	5067.02
431.114	4974.86
431.321	5198.09
431.528	5251.33
431.736	5599.49
431.943	6007.03
432.15	5646.59
432.358	5841.15
432.565	6017.27
432.772	6019.32
432.979	6406.39
433.187	6461.68
433.394	6516.98
433.601	6828.27
433.808	7053.55
434.016	6957.29
434.223	7287.01
434.43	7715.04
434.637	7756
434.844	8206.55
435.052	8196.31
435.259	8073.43
435.466	8292.57
435.673	8141.02
435.88	8716.5
436.087	9119.95
436.294	9156.81
436.501	8923.34
436.708	9072.84
436.915	9445.57
437.122	9887.93
437.329	9576.64
437.537	10016.96
437.743	10373.3
437.95	10092.73
438.157	10768.56
438.364	11057.32
438.571	10977.45
438.778	11278.51
438.985	12181.66
439.192	11651.24
439.399	12218.52
439.606	11825.31
439.813	12273.82
440.02	13117.58
440.227	12943.5
440.433	12906.64
440.64	13316.23
440.847	13226.12
441.054	13430.92
441.261	14438.52
441.467	14334.07
441.674	14504.06
441.881	15018.1
442.088	14991.47
442.294	14870.64
442.501	15528.04
442.708	15482.99
442.914	16298.08
443.121	16828.5
443.328	16392.28
443.534	17440.84
443.741	16957.52
443.948	16867.41
444.154	18016.32
444.361	17780.81
444.568	18026.56
444.774	17989.7
444.981	18145.34
445.187	19103.79
445.394	19648.55
445.6	19517.48
445.807	21223.44
446.013	20041.76
446.22	20754.46
446.426	21465.1
446.633	21587.98
446.839	22722.55
447.046	21293.07
447.252	23017.46
447.459	22771.71
447.665	22732.79
447.871	23160.82
448.078	24674.27
448.284	23334.9
448.491	24088.55
448.697	25044.95
448.903	25415.63
449.11	25653.2
449.316	25100.25
449.522	25458.64
449.728	26339.27
449.935	26523.58
450.141	26505.15
450.347	27146.17
450.553	26232.77
450.76	26517.44
450.966	27191.22
451.172	26830.78
451.378	27705.26
451.584	27035.58
451.791	27789.23
451.997	27742.13
452.203	28252.07
452.409	28053.42
452.615	28114.86
452.821	27111.35
453.027	26556.35
453.233	28151.72
453.44	27125.69
453.646	27199.41
453.852	27506.61
454.058	27944.87
454.264	26732.48
454.47	27271.09
454.676	26998.71
454.882	27692.97
455.088	25264.08
455.294	25606.09
455.5	25999.3
455.705	26492.87
455.911	25227.22
456.117	24868.83
456.323	24645.6
456.529	23185.4
456.735	24147.94
456.941	23431.15
457.147	22947.83
457.352	22405.12
457.558	22194.18
457.764	22099.97
457.97	21483.53
458.176	21196.82
458.381	21248.02
458.587	20121.63
458.793	19892.26
458.999	19288.11
459.204	20588.57
459.41	20023.33
459.616	18671.67
459.821	18542.65
460.027	18602.04
460.233	18073.67
460.438	17064.02
460.644	17659.98
460.85	16482.39
461.055	16248.93
461.261	16592.98
461.466	15126.64
461.672	14895.22
461.878	15796.32
462.083	14678.13
462.289	14626.93
462.494	14039.17
462.7	13707.4
462.905	13279.37
463.111	13830.27
463.316	13756.55
463.522	13570.18
463.727	13404.3
463.932	13428.87
464.138	13426.82
464.343	13209.74
464.549	12828.82
464.754	13516.94
464.959	13285.51
465.165	13293.71
465.37	12660.88
465.575	12112.03
465.781	12796.05
465.986	12783.76
466.191	12355.74
466.397	11925.66
466.602	11411.62
466.807	12046.49
467.012	11894.94
467.218	11890.85
467.423	11669.67
467.628	11800.74
467.833	12253.34
468.038	11886.75
468.244	11348.14
468.449	11974.81
468.654	11929.76
468.859	11307.18
469.064	11202.73
469.269	10938.54
469.474	11137.2
469.679	11298.98
469.885	10854.58
470.09	10930.35
470.295	11129
470.5	10832.05
470.705	10766.51
470.91	10457.27
471.115	10350.78
471.32	10645.68
471.525	10477.75
471.73	10227.9
471.935	10172.6
472.139	10062.01
472.344	9994.43
472.549	9973.95
472.754	9863.36
472.959	9613.51
473.164	9281.74
473.369	9339.08
473.574	9769.15
473.778	9652.42
473.983	9545.92
474.188	9216.2
474.393	8995.02
474.598	9128.14
474.802	9148.62
475.007	8900.81
475.212	9062.6
475.417	8429.78
475.621	8552.66
475.826	8513.75
476.031	8437.97
476.235	8364.25
476.44	8372.44
476.645	8243.42
476.849	8165.59
477.054	8222.94
477.259	8089.82
477.463	8138.97
477.668	7811.29
477.872	7864.54
478.077	7686.37
478.282	7565.54
478.486	7637.22
478.691	7483.62
478.895	7332.07
479.1	7442.66
479.304	7506.15
479.509	7149.8
479.713	7448.8
479.918	7174.38
480.122	7067.88
480.326	7123.18
480.531	7039.21
480.735	6912.24
480.94	6869.23
481.144	7297.25
481.348	6942.96
481.553	6949.1
481.757	6879.47
481.961	7002.35
482.166	7110.89
482.37	7008.49
482.574	6783.21
482.778	6893.8
482.983	6969.58
483.187	6983.91
483.391	6848.75
483.595	6828.27
483.8	6770.93
484.004	6818.03
484.208	6875.37
484.412	6885.61
484.616	6828.27
484.821	6981.87
485.025	6680.82
485.229	6844.65
485.433	7098.6
485.637	6918.38
485.841	6828.27
486.045	6793.45
486.249	6902
486.453	6762.73
486.657	6914.28
486.861	6801.65
487.065	6697.2
487.269	6772.97
487.473	6607.09
487.677	6781.17
487.881	6875.37
488.085	6705.39
488.289	6795.5
488.493	6779.12
488.697	6830.32
488.901	6842.6
489.105	6979.82
489.309	6732.01
489.512	6975.72
489.716	7063.79
489.92	7074.03
490.124	6691.06
490.328	7076.07
490.531	6750.45
490.735	6969.58
490.939	6977.77
491.143	6996.2
491.346	6985.96
491.55	7145.7
491.754	7192.81
491.958	7141.61
492.161	7203.05
492.365	7325.93
492.569	7127.27
492.772	7145.7
492.976	7196.9
493.18	7180.52
493.383	7508.19
493.587	7252.2
493.79	7532.77
493.994	7301.35
494.197	7497.95
494.401	7669.98
494.605	7672.03
494.808	7565.54
495.012	7753.95
495.215	7774.43
495.419	7862.49
495.622	7874.78
495.825	7968.99
496.029	7915.74
496.232	7966.94
496.436	7864.54
496.639	8261.85
496.843	8044.76
497.046	8390.87
497.249	8589.52
497.453	8628.43
497.656	8544.47
497.859	8538.32
498.063	8691.92
498.266	8868.05
498.469	8933.58
498.673	8988.88
498.876	9019.6
499.079	9144.52
499.282	9134.28
499.485	9341.13
499.689	9298.12
499.892	9681.09
500.095	9523.4
500.298	9973.95
500.501	9631.94
500.705	10080.44
500.908	10105.02
501.111	10270.9
501.314	10252.47
501.517	10275
501.72	10473.65
501.923	10430.65
502.126	10987.69
502.329	11059.37
502.532	11081.9
502.735	11002.03
502.938	11321.51
503.141	11524.26
503.344	11534.5
503.547	11253.93
503.75	11829.41
503.953	11835.55
504.156	11958.43
504.359	12038.3
504.562	12161.18
504.765	12587.16
504.968	12640.4
505.17	12626.07
505.373	12662.93
505.576	12988.56
505.779	13150.35
505.982	13144.2
506.185	13451.4
506.387	13551.75
506.59	13607.05
506.793	13910.15
506.996	13729.92
507.198	14155.9
507.401	14026.88
507.604	14237.82
507.807	14864.5
508.009	14606.45
508.212	14868.59
508.415	15028.34
508.617	15071.34
508.82	15278.19
509.022	15159.41
509.225	15689.83
509.428	15902.82
509.63	15945.83
509.833	15999.07
510.035	16615.51
510.238	16318.56
510.44	16719.96
510.643	16916.56
510.845	16932.95
511.048	16838.74
511.25	17246.29
511.453	17381.45
511.655	17963.08
511.858	18059.33
512.06	18157.63
512.262	18169.92
512.465	18073.67
512.667	18268.22
512.87	18620.47
513.072	18864.18
513.274	19267.63
513.477	19470.38
513.679	19564.59
513.881	19959.84
514.084	19955.75
514.286	20031.52
514.488	20144.16
514.69	20744.22
514.893	20727.83
515.095	20856.86
515.297	21268.5
515.499	21303.31
515.701	21524.49
515.904	21630.99
516.106	21825.54
516.308	22409.22
516.51	22951.93
516.712	22665.21
516.914	23148.53
517.116	23533.55
517.318	23207.92
517.52	23740.4
517.722	23916.52
517.925	24213.48
518.127	24287.2
518.329	24557.53
518.531	24551.39
518.733	24973.27
518.935	25227.22
519.136	25702.35
519.338	25761.74
519.54	25960.39
519.742	26150.85
519.944	26388.42
520.146	27103.16
520.348	27092.92
520.55	27473.84
520.752	27705.26
520.954	28098.47
521.155	28049.32
521.357	28393.38
521.559	28725.15
521.761	29288.34
521.963	29177.75
522.164	29202.33
522.366	29558.67
522.568	30027.66
522.77	30064.52
522.971	30609.28
523.173	30199.69
523.375	30955.39
523.576	30781.31
523.778	31338.36
523.98	31627.12
524.181	31506.29
524.383	31756.14
524.584	32456.55
524.786	32507.75
524.988	32171.88
525.189	32966.49
525.391	33062.75
525.592	33560.41
525.794	33677.14
525.995	33988.43
526.197	34103.12
526.398	34021.2
526.6	34428.74
526.801	34418.5
527.003	35014.46
527.204	35100.48
527.406	35125.05
527.607	35051.33
527.808	35827.51
528.01	35360.57
528.211	35675.96
528.412	36687.65
528.614	36368.17
528.815	36157.23
529.016	37314.33
529.218	36372.27
529.419	36783.91
529.62	37058.34
529.822	36980.51
530.023	37406.49
530.224	37361.44
530.425	37359.39
530.626	37304.09
530.828	37031.71
531.029	38145.81
531.23	38172.43
531.431	38172.43
531.632	38090.51
531.833	37672.73
532.035	38364.94
532.236	38172.43
532.437	38592.26
532.638	38209.29
532.839	38815.49
533.04	38823.68
533.241	38606.6
533.442	39143.17
533.643	39083.78
533.844	38903.56
534.045	39010.05
534.246	38815.49
534.447	39200.51
534.648	39333.63
534.849	39671.54
535.05	39268.09
535.251	39495.42
535.451	39485.18
535.652	39587.58
535.853	39433.98
536.054	39864.05
536.255	39890.68
536.456	39560.95
536.657	40097.52
536.857	39759.61
537.058	39505.66
537.259	39700.22
537.46	39919.35
537.66	39747.32
537.861	39667.45
538.062	39548.67
538.263	39978.74
538.463	39444.22
538.664	39708.41
538.865	40285.93
539.065	40040.18
539.266	39599.87
539.466	40132.34
539.667	39671.54
539.868	40122.1
540.068	40183.54
540.269	40257.26
540.469	40425.2
540.67	40253.17
540.87	39974.64
541.071	40138.48
541.271	39755.51
541.472	40171.25
541.672	39823.09
541.873	39646.97
542.073	39806.71
542.274	40369.9
542.474	39565.05
542.675	39927.54
542.875	40197.87
543.075	40339.18
543.276	39423.74
543.476	40212.21
543.676	39599.87
543.877	40296.17
544.077	40226.54
544.277	39855.86
544.478	39769.85
544.678	40179.44
544.878	40027.89
545.078	40040.18
545.279	39847.67
545.479	39636.73
545.679	40204.02
545.879	40031.99
546.079	39974.64
546.28	39999.22
546.48	39593.72
546.68	40023.79
546.88	39968.5
547.08	40083.19
547.28	39956.21
547.48	39644.92
547.68	40341.23
547.88	40031.99
548.081	40279.79
548.281	39913.2
548.481	39626.49
548.681	40255.22
548.881	40292.08
549.081	39896.82
549.28	39679.74
549.48	40218.35
549.68	39808.76
549.88	40404.72
550.08	40038.13
550.28	39862.01
550.48	39982.84
550.68	40267.5
550.88	39517.95
551.08	39841.53
551.279	40007.41
551.479	39782.13
551.679	39692.02
551.879	39933.68
552.079	39925.49
552.278	39679.74
552.478	39935.73
552.678	39565.05
552.878	39585.53
553.077	39644.92
553.277	39071.49
553.477	40464.11
553.676	39294.72
553.876	39511.8
554.076	39294.72
554.275	39438.08
554.475	38903.56
554.674	39575.29
554.874	39335.68
555.074	39350.01
555.273	39573.24
555.473	39438.08
555.672	39124.74
555.872	39126.78
556.071	39098.11
556.271	39634.68
556.47	38901.51
556.67	38821.64
556.869	38614.79
557.068	38647.56
557.268	38438.67
557.467	38504.2
557.667	38649.61
557.866	38483.72
558.065	38385.42
558.265	37963.54
558.464	37852.95
558.663	38878.98
558.863	37719.83
559.062	38567.69
559.261	37963.54
559.461	38256.4
559.66	37431.07
559.859	37525.27
560.058	37740.31
560.258	37498.65
560.457	36773.67
560.656	37011.23
560.855	37166.88
561.054	37338.91
561.253	36960.03
561.453	36888.35
561.652	37031.71
561.851	37310.24
562.05	36431.66
562.249	36333.35
562.448	36523.82
562.647	36515.62
562.846	36112.17
563.045	36226.86
563.244	35954.48
563.443	36206.38
563.642	35895.09
563.841	35804.98
564.04	35479.35
564.239	35682.1
564.438	35460.92
564.637	35747.64
564.836	35309.37
565.035	34465.61
565.234	35256.12
565.432	34955.07
565.631	34326.35
565.83	34623.3
566.029	34197.32
566.228	34316.11
566.427	34232.14
566.625	34031.44
566.824	33691.48
567.023	34123.6
567.222	33228.63
567.42	33773.39
567.619	33507.16
567.818	33109.85
568.016	33245.02
568.215	33353.56
568.414	32933.73
568.612	33202.01
568.811	32483.17
569.01	32829.28
569.208	32325.48
569.407	32595.81
569.605	32012.14
569.804	32171.88
570.002	31981.42
570.201	31852.4
570.4	31395.7
570.598	31307.64
570.797	31297.4
570.995	31217.53
571.193	30863.23
571.392	31117.18
571.59	31053.69
571.789	30949.25
571.987	30482.31
572.186	30351.24
572.384	30166.92
572.582	30400.39
572.781	30357.38
572.979	29773.71
573.177	30365.57
573.376	29882.25
573.574	29521.81
573.772	29751.18
573.971	29583.25
574.169	29212.57
574.367	29147.03
574.565	29503.38
574.763	29079.45
574.962	28950.43
575.16	28303.27
575.358	28628.9
575.556	28387.24
575.754	28759.97
575.952	28141.48
576.151	28268.45
576.349	27801.52
576.547	27983.79
576.745	28073.9
576.943	27867.05
577.141	27494.32
577.339	27580.34
577.537	27666.35
577.735	27465.65
577.933	26939.32
578.131	27105.21
578.329	27211.7
578.527	26699.71
578.725	26800.06
578.923	26818.49
579.121	26662.85
579.319	26408.9
579.516	26560.45
579.714	26384.32
579.912	26238.92
580.11	26286.02
580.308	25917.39
580.506	26105.8
580.704	25860.04
580.901	26073.03
581.099	25999.3
581.297	25515.98
581.495	25608.14
581.692	25790.41
581.89	25343.95
582.088	25366.48
582.285	25577.42
582.483	25427.92
582.681	25108.44
582.878	24981.46
583.076	25192.4
583.274	24748
583.471	24764.38
583.669	24811.48
583.866	24326.11
584.064	24569.82
584.262	24123.37
584.459	24721.37
584.657	24270.82
584.854	24522.72
585.052	24047.59
585.249	24168.42
585.447	24006.63
585.644	23539.69
585.841	23750.63
586.039	23850.99
586.236	23455.73
586.434	23455.73
586.631	23365.62
586.828	23465.97
587.026	23410.67
587.223	23130.1
587.42	23123.96
587.618	23300.08
587.815	23001.08
588.012	22956.02
588.21	22886.39
588.407	23056.37
588.604	22536.19
588.801	22558.72
588.999	22366.21
589.196	22505.47
589.393	22501.37
589.59	22241.28
589.787	22282.24
589.984	22329.34
590.182	21827.59
590.379	22261.76
590.576	21856.26
590.773	22020.1
590.97	21815.3
591.167	21708.81
591.364	21567.5
591.561	21903.37
591.758	21616.65
591.955	21364.75
592.152	21514.25
592.349	21051.41
592.546	21336.08
592.743	21119
592.94	20910.1
593.137	21123.09
593.334	21131.28
593.531	20656.15
593.727	20918.29
593.924	20809.75
594.121	20457.5
594.318	20885.53
594.515	20260.9
594.712	20609.05
594.908	20383.77
595.105	20246.56
595.302	20248.61
595.499	20299.81
595.696	20101.15
595.892	19830.82
596.089	20123.68
596.286	19855.4
596.482	19974.18
596.679	20029.48
596.876	19963.94
597.072	19462.19
597.269	19474.48
597.466	19439.66
597.662	19478.57
597.859	19716.14
598.055	19499.05
598.252	19238.96
598.448	19111.99
598.645	19241.01
598.841	19083.31
599.038	19161.14
599.234	19234.86
599.431	18796.6
599.627	19071.03
599.824	19109.94
600.02	18491.45
600.217	18696.25
600.413	18649.14
600.609	18741.3
600.806	18405.44
601.002	18491.45
601.198	18255.93
601.395	18468.92
601.591	18102.34
601.787	18118.72
601.984	18081.86
602.18	18221.12
602.376	17952.84
602.572	18020.42
602.769	17918.02
602.965	17690.7
603.161	18106.43
603.357	17819.72
603.553	17860.68
603.75	17657.93
603.946	17619.02
604.142	17352.78
604.338	17092.69
604.534	17492.04
604.73	17100.88
604.926	17182.8
605.122	17125.46
605.318	17002.58
605.514	16885.84
605.71	16922.71
605.906	16834.64
606.102	17141.84
606.298	16871.51
606.494	16959.57
606.69	16816.21
606.886	16617.56
607.082	16625.75
607.278	16572.5
607.474	16367.71
607.67	16711.77
607.866	16140.38
608.062	16621.66
608.257	16173.15
608.453	16210.01
608.649	16394.33
608.845	16203.87
609.041	16236.64
609.236	16193.63
609.432	15931.49
609.628	15775.84
609.824	15757.41
610.019	15978.59
610.215	15874.15
610.411	16070.75
610.606	15622.25
610.802	15966.31
610.998	15597.67
611.193	15554.66
611.389	15528.04
611.584	15519.85
611.78	15423.59
611.976	15358.06
612.171	15605.86
612.367	15405.16
612.562	15274.09
612.758	15161.45
612.953	15167.6
613.149	15241.32
613.344	15026.29
613.539	15224.94
613.735	15140.97
613.93	15321.2
614.126	14864.5
614.321	15208.56
614.517	15026.29
614.712	14977.14
614.907	14645.37
615.103	15175.79
615.298	14671.99
615.493	14743.67
615.688	14952.56
615.884	14956.66
616.079	14590.07
616.274	14512.25
616.47	14569.59
616.665	14362.75
616.86	14368.89
617.055	14116.99
617.25	14360.7
617.445	14518.39
617.641	14258.3
617.836	14485.62
618.031	14078.08
618.226	14473.34
618.421	14065.79
618.616	14205.05
618.811	14047.36
619.006	14198.91
619.201	13856.9
619.396	13850.75
619.591	13578.37
619.786	13717.64
619.981	13727.88
620.176	13863.04
620.371	13424.78
620.566	13516.94
620.761	13678.72
620.956	13404.3
621.151	13443.21
621.346	13191.31
621.541	12963.98
621.735	13365.39
621.93	13037.71
622.125	12994.7
622.32	12695.7
622.515	12939.41
622.709	12785.81
622.904	12937.36
623.099	12624.02
623.294	12785.81
623.488	12554.39
623.683	12636.31
623.878	12310.68
624.072	12185.76
624.267	12279.96
624.462	12081.31
624.656	12089.5
624.851	12249.24
625.046	12017.82
625.24	12060.83
625.435	11745.44
625.629	11829.41
625.824	11759.78
626.018	11632.8
626.213	11387.05
626.407	11774.11
626.602	11468.97
626.796	11641
626.991	11391.14
627.185	11247.79
627.38	11262.12
627.574	11176.11
627.768	11352.23
627.963	11049.13
628.157	10956.97
628.352	11276.46
628.546	10975.41
628.74	10981.55
628.935	10614.96
629.129	10746.03
629.323	10670.26
629.517	10580.15
629.712	10535.09
629.906	10621.11
630.1	10485.94
630.294	10479.8
630.489	10002.62
630.683	10234.04
630.877	10268.86
631.071	10090.68
631.265	10062.01
631.459	10170.55
631.653	10080.44
631.848	9953.47
632.042	9877.69
632.236	9963.71
632.43	9765.06
632.624	9924.8
632.818	9736.38
633.012	9595.07
633.206	9627.84
633.4	9662.66
633.594	9390.28
633.788	9451.72
633.982	9382.09
634.176	9416.9
634.369	9103.56
634.563	9162.95
634.757	9105.61
634.951	9308.36
635.145	9095.37
635.339	8956.11
635.533	8947.92
635.726	9062.6
635.92	8919.25
636.114	8876.24
636.308	8728.78
636.501	8726.74
636.695	8757.46
636.889	8622.29
637.083	8689.87
637.276	8532.18
637.47	8335.57
637.664	8497.36
637.857	8542.42
638.051	8417.49
638.244	8356.05
638.438	8417.49
638.632	8032.47
638.825	8085.72
639.019	8106.2
639.212	8009.95
639.406	8110.3
639.599	8016.09
639.793	7991.52
639.986	7778.53
640.18	7938.27
640.373	7606.5
640.567	7811.29
640.76	7706.85
640.954	7715.04
641.147	7514.34
641.34	7629.02
641.534	7540.96
641.727	7473.38
641.92	7512.29
642.114	7481.57
642.307	7364.84
642.5	7397.6
642.694	7153.9
642.887	7262.44
643.08	7479.52
643.273	7211.24
643.467	7153.9
643.66	7049.45
643.853	6885.61
644.046	7088.36
644.239	7037.16
644.432	6844.65
644.626	6928.62
644.819	6852.84
645.012	6824.17
645.205	6875.37
645.398	6858.99
645.591	6772.97
645.784	6639.86
645.977	6508.79
646.17	6572.27
646.363	6476.02
646.556	6514.93
646.749	6416.63
646.942	6582.51
647.135	6578.42
647.328	6392.05
647.521	6254.84
647.714	6379.76
647.907	6287.61
648.099	6271.22
648.292	6398.2
648.485	6138.1
648.678	6127.86
648.871	6093.05
649.064	6172.92
649.256	6211.83
649.449	6062.33
649.642	5994.75
649.835	5857.53
650.027	6091
650.22	6013.18
650.413	5787.9
650.605	5878.01
650.798	6004.99
650.991	5812.48
651.183	5753.09
651.376	5572.86
651.568	5662.97
651.761	5632.26
651.954	5607.68
652.146	5755.13
652.339	5658.88
652.531	5583.1
652.724	5501.19
652.916	5417.22
653.109	5437.7
653.301	5503.23
653.494	5609.73
653.686	5390.6
653.879	5464.32
654.071	5349.64
654.263	5402.88
654.456	5304.58
654.648	5476.61
654.84	5284.1
655.033	5267.72
655.225	5239.05
655.417	5189.89
655.61	5185.8
655.802	5177.61
655.994	5118.22
656.186	5128.46
656.379	5077.26
656.571	4942.09
656.763	5079.3
656.955	5062.92
657.148	4983.05
657.34	5247.24
657.532	4876.55
657.724	4849.93
657.916	4878.6
658.108	5009.67
658.3	4870.41
658.492	4882.7
658.684	4888.84
658.876	4774.16
659.068	4854.03
659.26	4837.64
659.452	4813.07
659.644	4765.96
659.836	4784.4
660.028	4698.38
660.22	4632.85
660.412	4495.63
660.604	4620.56
660.796	4538.64
660.988	4655.37
661.18	4585.74
661.372	4559.12
661.563	4456.72
661.755	4469.01
661.947	4403.47
662.139	4411.67
662.331	4378.9
662.522	4329.75
662.714	4434.19
662.906	4325.65
663.097	4409.62
663.289	4403.47
663.481	4294.93
663.673	4247.83
663.864	4282.64
664.056	4272.4
664.247	4319.51
664.439	4266.26
664.631	4313.36
664.822	4292.88
665.014	4256.02
665.205	4311.32
665.397	4358.42
665.588	4313.36
665.78	4225.3
665.971	4196.63
666.163	4239.64
666.354	4133.14
666.546	4329.75
666.737	4127
666.929	4276.5
667.12	4167.96
667.311	4157.72
667.503	4104.47
667.694	4243.73
667.885	3983.64
668.077	4249.88
668.268	4061.46
668.459	4051.22
668.651	4155.67
668.842	4086.04
669.033	4157.72
669.224	4067.61
669.416	4112.66
669.607	4124.95
669.798	4057.37
669.989	4014.36
670.18	4165.91
670.371	4151.57
670.563	4096.28
670.754	4047.13
670.945	4043.03
671.136	3938.59
671.327	4014.36
671.518	4135.19
671.709	4079.9
671.9	4124.95
672.091	4186.39
672.282	4202.77
672.473	4167.96
672.664	4067.61
672.855	4098.33
673.046	4204.82
673.237	4124.95
673.428	4137.24
673.619	4083.99
673.809	4098.33
674	4290.84
674.191	4075.8
674.382	4157.72
674.573	4182.29
674.764	4215.06
674.954	4223.25
675.145	4206.87
675.336	4137.24
675.527	4260.12
675.717	4161.81
675.908	4196.63
676.099	4198.68
676.289	4337.94
676.48	4288.79
676.671	4299.03
676.861	4223.25
677.052	4239.64
677.243	4325.65
677.433	4272.4
677.624	4358.42
677.814	4428.05
678.005	4497.68
678.195	4319.51
678.386	4335.89
678.576	4342.04
678.767	4452.63
678.957	4438.29
679.148	4370.71
679.338	4481.3
679.529	4393.23
679.719	4669.71
679.909	4526.35
680.1	4528.4
680.29	4657.42
680.481	4565.26
680.671	4649.23
680.861	4776.2
681.052	4686.09
681.242	4514.06
681.432	4753.68
681.622	4725.01
681.813	4614.41
682.003	4708.62
682.193	4731.15
682.383	4806.92
682.573	4663.57
682.764	4706.57
682.954	4663.57
683.144	4880.65
683.334	4731.15
683.524	4811.02
683.714	5001.48
683.904	4739.34
684.094	4788.49
684.284	5073.16
684.474	4966.67
684.664	4921.61
684.854	4886.79
685.044	4833.55
685.234	4696.33
685.424	4778.25
685.614	4729.1
685.804	4858.12
685.994	4860.17
686.184	5009.67
686.374	4765.96
686.564	4657.42
686.753	4788.49
686.943	4673.81
687.133	4763.92
687.323	4808.97
687.513	4858.12
687.702	4706.57
687.892	4770.06
688.082	4690.19
688.272	4577.55
688.461	4731.15
688.651	4589.84
688.841	4608.27
689.03	4649.23
689.22	4645.13
689.41	4544.78
689.599	4544.78
689.789	4397.33
689.979	4550.93
690.168	4495.63
690.358	4436.24
690.547	4399.38
690.737	4518.16
690.926	4256.02
691.116	4247.83
691.305	4452.63
691.495	4239.64
691.684	4272.4
691.874	4239.64
692.063	4350.23
692.252	4155.67
692.442	4137.24
692.631	4116.76
692.82	4378.9
693.01	4139.29
693.199	4116.76
693.388	4155.67
693.578	4147.48
693.767	4198.68
693.956	3965.21
694.146	4094.23
694.335	4067.61
694.524	4055.32
694.713	4067.61
694.902	4096.28
695.092	4137.24
695.281	3989.78
695.47	3934.49
695.659	3940.63
695.848	4092.18
696.037	3952.92
696.226	4051.22
696.415	3975.45
696.604	3963.16
696.793	3979.54
696.982	4038.94
697.171	3973.4
697.36	4071.7
697.549	4014.36
697.738	3805.47
697.927	3887.39
698.116	4081.94
698.305	4036.89
698.494	4018.46
698.683	3848.47
698.872	3967.26
699.061	3981.59
699.25	3991.83
699.438	3997.98
699.627	4071.7
699.816	4106.52
700.005	3893.53
700.193	4032.79
700.382	4018.46
700.571	3850.52
700.76	4000.02
700.948	4086.04
701.137	4059.42
701.326	4174.1
701.514	4116.76
701.703	4075.8
701.892	4047.13
702.08	4165.91
702.269	4040.98
702.457	4153.62
702.646	4116.76
702.834	4141.33
703.023	4108.57
703.212	4233.49
703.4	4256.02
703.589	4217.11
703.777	4262.16
703.965	4088.09
704.154	4227.35
704.342	4264.21
704.531	4325.65
704.719	4280.6
704.907	4272.4
705.096	4323.6
705.284	4040.98
705.472	4272.4
705.661	4284.69
705.849	4428.05
706.037	4319.51
706.226	4331.8
706.414	4296.98
706.602	4387.09
706.79	4366.61
706.979	4307.22
707.167	4370.71
707.355	4368.66
707.543	4313.36
707.731	4399.38
707.919	4358.42
708.107	4524.3
708.296	4643.09
708.484	4329.75
708.672	4555.02
708.86	4460.82
709.048	4538.64
709.236	4598.03
709.424	4624.65
709.612	4671.76
709.8	4509.97
709.988	4505.87
710.176	4702.48
710.364	4725.01
710.551	4630.8
710.739	4579.6
710.927	4694.29
711.115	4632.85
711.303	4772.11
711.491	4802.83
711.679	4542.74
711.866	4731.15
712.054	4737.29
712.242	4737.29
712.43	4972.81
712.617	4825.36
712.805	5005.58
712.993	4813.07
713.181	4802.83
713.368	4901.13
713.556	4927.75
713.744	4788.49
713.931	5124.36
714.119	4849.93
714.306	5042.44
714.494	4960.52
714.682	4952.33
714.869	4968.71
715.057	4950.28
715.244	4970.76
715.432	5128.46
715.619	5052.68
715.807	5136.65
715.994	4972.81
716.182	5230.85
716.369	5150.98
716.556	5122.31
716.744	5077.26
716.931	5181.7
717.119	5204.23
717.306	5302.53
717.493	5232.9
717.681	5304.58
717.868	5374.21
718.055	5337.35
718.242	5286.15
718.43	5351.68
718.617	5415.17
718.804	5288.2
718.991	5351.68
719.179	5497.09
719.366	5398.79
719.553	5525.76
719.74	5417.22
719.927	5484.8
720.114	5247.24
720.301	5452.03
720.488	5550.34
720.676	5427.46
720.863	5581.06
721.05	5536
721.237	5554.43
721.424	5574.91
721.611	5564.67
721.798	5470.47
721.985	5630.21
722.172	5531.9
722.358	5613.82
722.545	5697.79
722.732	5789.95
722.919	5714.17
723.106	5533.95
723.293	5603.58
723.48	5871.87
723.667	5644.54
723.853	5619.97
724.04	5751.04
724.227	5755.13
724.414	5763.33
724.6	5736.7
724.787	5914.88
724.974	5794.04
725.161	5714.17
725.347	5587.2
725.534	5810.43
725.72	5925.11
725.907	5894.4
726.094	5880.06
726.28	5966.07
726.467	5869.82
726.653	5966.07
726.84	5822.72
727.027	6017.27
727.213	5886.2
727.4	5984.51
727.586	5980.41
727.773	5927.16
727.959	5974.27
728.145	5820.67
728.332	5988.6
728.518	5830.91
728.705	6119.67
728.891	5855.48
729.077	5992.7
729.264	5914.88
729.45	5867.77
729.636	6189.3
729.823	5873.92
730.009	6152.44
730.195	6129.91
730.382	6117.62
730.568	6045.95
730.754	6148.34
730.94	6041.85
731.126	6142.2
731.313	6091
731.499	6195.45
731.685	5966.07
731.871	6181.11
732.057	6127.86
732.243	6279.41
732.429	6095.1
732.615	5923.07
732.801	6156.54
732.987	6140.15
733.173	6242.55
733.359	6107.38
733.545	5951.74
733.731	6056.18
733.917	6136.06
734.103	6310.13
734.289	6123.77
734.475	6177.02
734.661	6183.16
734.847	6277.37
735.033	6207.73
735.219	6258.93
735.404	6119.67
735.59	6107.38
735.776	5964.03
735.962	6289.65
736.148	6310.13
736.333	6164.73
736.519	6117.62
736.705	6158.58
736.89	6142.2
737.076	6205.69
737.262	6099.19
737.447	6226.17
737.633	6283.51
737.819	6299.89
738.004	6140.15
738.19	6162.68
738.375	5976.31
738.561	6230.26
738.747	6105.34
738.932	6025.47
739.118	6129.91
739.303	6066.42
739.489	6060.28
739.674	6015.23
739.859	5935.35
740.045	6146.3
740.23	6007.03
740.416	5902.59
740.601	6066.42
740.786	5939.45
740.972	5927.16
741.157	6021.37
741.342	6021.37
741.528	5814.52
741.713	5921.02
741.898	5730.56
742.084	5933.31
742.269	6041.85
742.454	5964.03
742.639	6058.23
742.824	5894.4
743.01	5802.24
743.195	5693.69
743.38	5673.21
743.565	5773.57
743.75	5667.07
743.935	5583.1
744.12	5769.47
744.305	5615.87
744.49	5579.01
744.675	5519.62
744.86	5605.63
745.045	5552.38
745.23	5480.71
745.415	5572.86
745.6	5482.75
745.785	5419.27
745.97	5447.94
746.155	5323.01
746.34	5329.16
746.525	5302.53
746.71	5308.68
746.895	5181.7
747.079	5261.57
747.264	5155.08
747.449	5243.14
747.634	5150.98
747.819	5101.83
748.003	5056.78
748.188	4919.56
748.373	5110.02
748.557	5013.77
748.742	4804.88
748.927	4950.28
749.111	4772.11
749.296	4944.14
749.481	4874.51
749.665	4780.3
749.85	4653.33
750.034	4819.21
750.219	4755.72
750.404	4718.86
750.588	4536.59
750.773	4755.72
750.957	4534.54
751.141	4682
751.326	4557.07
751.51	4571.41
751.695	4178.2
751.879	4362.51
752.064	4329.75
752.248	4296.98
752.432	4378.9
752.617	4301.08
752.801	4272.4
752.985	4305.17
753.17	4180.25
753.354	4137.24
753.538	4219.16
753.722	4155.67
753.907	4141.33
754.091	4000.02
754.275	3983.64
754.459	3989.78
754.643	3950.87
754.828	3969.3
755.012	3946.78
755.196	3961.11
755.38	3793.18
755.564	3737.88
755.748	3762.46
755.932	3797.28
756.116	3647.77
756.3	3784.99
756.484	3748.12
756.668	3731.74
756.852	3655.97
757.036	3615.01
757.22	3604.77
757.404	3574.05
757.588	3516.7
757.772	3582.24
757.956	3387.68
758.14	3408.16
758.323	3354.91
758.507	3281.19
758.691	3426.59
758.875	3369.25
759.059	3404.07
759.242	3395.87
759.426	3260.71
759.61	3336.48
759.794	3072.29
759.977	3287.33
760.161	3189.03
760.345	3100.97
760.528	3254.56
760.712	3066.15
760.895	3125.54
761.079	3092.77
761.263	3055.91
761.446	3033.38
761.63	2988.33
761.813	3053.86
761.997	3031.34
762.18	3014.95
762.364	2978.09
762.547	2871.59
762.731	2900.27
762.914	2933.03
763.098	2894.12
763.281	2904.36
763.464	2722.09
763.648	2769.2
763.831	2785.58
764.015	2793.77
764.198	2820.39
764.381	2740.52
764.564	2728.24
764.748	2703.66
764.931	2715.95
765.114	2711.85
765.297	2687.28
765.481	2668.84
765.664	2548.01
765.847	2677.04
766.03	2699.56
766.213	2689.32
766.397	2554.16
766.58	2570.54
766.763	2560.3
766.946	2609.45
767.129	2537.77
767.312	2527.53
767.495	2490.67
767.678	2386.22
767.861	2558.25
768.044	2576.69
768.227	2498.86
768.41	2402.61
768.593	2392.37
768.776	2552.11
768.959	2457.9
769.142	2414.9
769.324	2363.7
769.507	2412.85
769.69	2421.04
769.873	2322.74
770.056	2468.14
770.239	2412.85
770.421	2402.61
770.604	2287.92
770.787	2208.05
770.97	2232.63
771.152	2394.42
771.335	2253.11
771.518	2183.48
771.7	2169.14
771.883	2330.93
772.066	2236.72
772.248	2126.13
772.431	2126.13
772.613	2179.38
772.796	2087.22
772.978	2007.35
773.161	2203.96
773.343	2060.6
773.526	2093.37
773.708	2044.21
773.891	2076.98
774.073	1962.3
774.256	1976.63
774.438	2027.83
774.621	1952.06
774.803	1919.29
774.985	1935.67
775.168	1880.38
775.35	1790.27
775.532	1874.23
775.715	1876.28
775.897	1921.34
776.079	1927.48
776.261	1802.55
776.444	1749.31
776.626	1798.46
776.808	1741.11
776.99	1673.53
777.173	1708.35
777.355	1704.25
777.537	1722.68
777.719	1757.5
777.901	1651
778.083	1749.31
778.265	1579.33
778.447	1646.91
778.629	1696.06
778.811	1655.1
778.993	1603.9
779.175	1624.38
779.357	1630.52
779.539	1528.13
779.721	1536.32
779.903	1507.65
780.085	1630.52
780.267	1462.59
780.449	1431.87
780.631	1429.82
780.812	1395.01
780.994	1380.67
781.176	1466.69
781.358	1454.4
781.54	1347.9
781.721	1519.93
781.903	1460.54
782.085	1362.24
782.267	1386.82
782.448	1286.47
782.63	1427.78
782.812	1290.56
782.993	1380.67
783.175	1257.79
783.357	1364.29
783.538	1182.02
783.72	1220.93
783.901	1286.47
784.083	1272.13
784.264	1198.4
784.446	1208.64
784.627	1118.53
784.809	1222.98
784.99	1149.25
785.172	1225.03
785.353	1134.92
785.535	1151.3
785.716	1143.11
785.897	1091.91
786.079	1126.72
786.26	1192.26
786.441	1134.92
786.623	1005.89
786.804	1026.37
786.985	1046.85
787.167	1081.67
787.348	1040.71
787.529	993.61
787.71	1106.24
787.891	993.61
788.073	952.65
788.254	934.22
788.435	1075.52
788.616	1012.04
788.797	938.31
788.978	903.5
789.159	940.36
789.34	1016.13
789.522	872.78
789.703	1001.8
789.884	995.65
790.065	958.79
790.246	919.88
790.427	895.3
790.607	948.55
790.788	977.22
790.969	797
791.15	823.62
791.331	805.19
791.512	852.3
791.693	784.71
791.874	860.49
792.054	926.02
792.235	895.3
792.416	835.91
792.597	817.48
792.778	862.54
792.958	794.95
793.139	829.77
793.32	813.38
793.5	713.03
793.681	776.52
793.862	852.3
794.042	753.99
794.223	692.55
794.404	747.85
794.584	762.19
794.765	747.85
794.945	706.89
795.126	782.67
795.306	899.4
795.487	643.4
795.667	766.28
795.848	758.09
796.028	737.61
796.209	551.24
796.389	774.47
796.57	706.89
796.75	653.64
796.93	717.13
797.111	633.16
797.291	667.98
797.471	782.67
797.652	684.36
797.832	627.02
798.012	680.27
798.192	649.55
798.373	670.03
798.553	647.5
798.733	665.93
798.913	647.5
799.093	602.44
799.274	657.74
799.454	667.98
799.634	624.97
799.814	661.84
799.994	594.25
800.174	643.4
800.354	647.5
800.534	614.73
800.714	676.17
800.894	553.29
801.074	692.55
801.254	627.02
801.434	528.72
801.614	555.34
801.794	559.44
801.974	1300.8
802.154	635.21
802.334	639.31
802.514	598.35
802.693	563.53
802.873	508.24
803.053	557.39
803.233	614.73
803.413	627.02
803.592	532.81
803.772	491.85
803.952	461.13
804.131	516.43
804.311	563.53
804.491	493.9
804.67	618.83
804.85	487.76
805.03	618.83
805.209	555.34
805.389	520.53
805.568	569.68
805.748	565.58
805.928	502.09
806.107	498
806.287	567.63
806.466	493.9
806.646	487.76
806.825	543.05
807.004	426.32
807.184	461.13
807.363	469.33
807.543	436.56
807.722	442.7
807.901	516.43
808.081	450.89
808.26	442.7
808.439	516.43
808.619	489.81
808.798	436.56
808.977	465.23
809.156	500.05
809.336	461.13
809.515	418.13
809.694	450.89
809.873	436.56
810.052	471.37
810.231	405.84
810.411	418.13
810.59	405.84
810.769	430.41
810.948	479.57
811.127	342.35
811.306	403.79
811.485	389.46
811.664	493.9
811.843	393.55
812.022	426.32
812.201	469.33
812.38	477.52
812.559	434.51
812.737	434.51
812.916	381.26
813.095	389.46
813.274	450.89
813.453	348.5
813.632	383.31
813.811	403.79
813.989	336.21
814.168	368.98
814.347	395.6
814.526	389.46
814.704	409.94
814.883	411.98
815.062	373.07
815.24	344.4
815.419	348.5
815.598	364.88
815.776	276.82
815.955	319.82
816.133	330.06
816.312	377.17
816.49	373.07
816.669	375.12
816.847	399.7
817.026	340.3
817.204	293.2
817.383	321.87
817.561	260.43
817.74	317.78
817.918	350.54
818.097	356.69
818.275	289.1
818.453	317.78
818.632	305.49
818.81	274.77
818.988	276.82
819.167	270.67
819.345	293.2
819.523	344.4
819.701	362.83
819.879	307.54
820.058	276.82
820.236	383.31
820.414	239.95
820.592	297.3
820.77	262.48
820.948	362.83
821.127	274.77
821.305	299.34
821.483	250.19
821.661	305.49
821.839	291.15
822.017	287.06
822.195	381.26
822.373	323.92
822.551	348.5
822.729	377.17
822.907	270.67
823.085	264.53
823.262	287.06
823.44	278.87
823.618	282.96
823.796	248.15
823.974	258.39
824.152	233.81
824.329	246.1
824.507	268.63
824.685	295.25
824.863	280.91
825.04	239.95
825.218	217.43
825.396	289.1
825.574	278.87
825.751	227.67
825.929	274.77
826.107	192.85
826.284	254.29
826.462	225.62
826.639	289.1
826.817	196.95
826.994	262.48
827.172	235.86
827.349	313.68
827.527	213.33
827.704	258.39
827.882	289.1
828.059	176.47
828.237	196.95
828.414	213.33
828.591	201.04
828.769	209.23
828.946	201.04
829.124	201.04
829.301	321.87
829.478	139.6
829.655	215.38
829.833	160.08
830.01	168.27
830.187	227.67
830.364	209.23
830.542	330.06
830.719	237.91
830.896	321.87
831.073	262.48
831.25	168.27
831.427	262.48
831.604	172.37
831.782	160.08
831.959	166.23
832.136	205.14
832.313	254.29
832.49	213.33
832.667	239.95
832.844	242
833.021	211.28
833.198	201.04
833.374	246.1
833.551	233.81
833.728	182.61
833.905	254.29
834.082	106.84
834.259	225.62
834.436	242
834.612	198.99
834.789	149.84
834.966	233.81
835.143	186.71
835.319	143.7
835.496	160.08
835.673	233.81
835.85	201.04
836.026	182.61
836.203	155.99
836.38	291.15
836.556	129.36
836.733	203.09
836.909	201.04
837.086	153.94
837.262	119.12
837.439	143.7
837.616	178.51
837.792	162.13
837.968	137.56
838.145	98.64
838.321	117.08
838.498	260.43
838.674	110.93
838.851	127.32
839.027	96.6
839.203	143.7
839.38	131.41
839.556	133.46
839.732	194.9
839.909	123.22
840.085	217.43
840.261	131.41
840.437	149.84
840.614	174.42
840.79	145.75
840.966	184.66
841.142	155.99
841.318	162.13
841.494	129.36
841.671	174.42
841.847	110.93
842.023	74.07
842.199	182.61
842.375	227.67
842.551	86.36
842.727	43.35
842.903	198.99
843.079	121.17
843.255	182.61
843.431	76.12
843.607	160.08
843.783	37.2
843.959	170.32
844.134	149.84
844.31	151.89
844.486	18.77
844.662	78.16
844.838	174.42
845.013	86.36
845.189	125.27
845.365	125.27
845.541	69.97
845.716	168.27
845.892	131.41
846.068	184.66
846.244	151.89
846.419	82.26
846.595	131.41
846.77	59.73
846.946	176.47
847.122	192.85
847.297	39.25
847.473	135.51
847.648	29.01
847.824	86.36
847.999	57.68
848.175	153.94
848.35	129.36
848.526	106.84
848.701	135.51
848.876	59.73
849.052	143.7
849.227	92.5
849.403	102.74
849.578	155.99
849.753	45.4
849.929	127.32
850.104	14.68
850.279	100.69
850.454	131.41
850.63	112.98
850.805	74.07
850.98	51.54
851.155	76.12
851.33	16.73
851.505	123.22
851.681	139.6
851.856	102.74
852.031	133.46
852.206	94.55
852.381	100.69
852.556	96.6
852.731	151.89
852.906	59.73
853.081	12.63
853.256	198.99
853.431	55.64
853.606	135.51
853.781	39.25
853.956	29.01
854.131	67.92
854.305	12.63
854.48	110.93
854.655	55.64
854.83	51.54
855.005	61.78
855.18	47.44
855.354	63.83
855.529	121.17
855.704	147.8
855.879	84.31
856.053	8.53
856.228	137.56
856.403	-3.75
856.577	80.21
856.752	22.87
856.926	108.88
857.101	24.92
857.276	24.92
857.45	-13.99
857.625	164.18
857.799	67.92
857.974	24.92
858.148	84.31
858.323	78.16
858.497	69.97
858.672	8.53
858.846	69.97
859.02	53.59
859.195	35.16
859.369	84.31
859.543	84.31
859.718	129.36
859.892	41.3
860.066	90.45
860.241	35.16
860.415	35.16
860.589	86.36
860.763	119.12
860.938	96.6
861.112	61.78
861.286	10.58
861.46	14.68
861.634	-9.9
861.808	123.22
861.982	82.26
862.157	76.12
862.331	4.44
862.505	86.36
862.679	-24.23
862.853	110.93
863.027	41.3
863.201	69.97
863.375	-30.38
863.549	29.01
863.722	0.34
863.896	104.79
864.07	69.97
864.244	8.53
864.418	59.73
864.592	86.36
864.766	20.82
864.939	53.59
865.113	12.63
865.287	67.92
865.461	-20.14
865.634	-22.19
865.808	14.68
865.982	49.49
866.156	2.39
866.329	2.39
866.503	35.16
866.676	94.55
866.85	20.82
867.024	119.12
867.197	69.97
867.371	90.45
867.544	4.44
867.718	-46.76
867.891	33.11
868.065	-59.05
868.238	88.4
868.412	37.2
868.585	-3.75
868.759	69.97
868.932	41.3
869.105	18.77
869.279	39.25
869.452	-3.75
869.625	6.49
869.799	26.96
869.972	12.63
870.145	16.73
870.319	24.92
870.492	33.11
870.665	26.96
870.838	12.63
871.011	20.82
871.185	20.82
871.358	57.68
871.531	67.92
871.704	-5.8
871.877	-26.28
872.05	-44.71
872.223	2.39
872.396	41.3
872.569	57.68
872.742	-28.33
872.915	127.32
873.088	18.77
873.261	-44.71
873.434	74.07
873.607	2.39
873.78	65.88
873.953	4.44
874.126	35.16
874.299	41.3
874.471	6.49
874.644	-52.91
874.817	78.16
874.99	86.36
875.163	-69.29
875.335	16.73
875.508	12.63
875.681	65.88
875.853	49.49
876.026	16.73
876.199	37.2
876.371	84.31
876.544	26.96
876.717	8.53
876.889	-36.52
877.062	82.26
877.234	29.01
877.407	-57
877.579	-5.8
877.752	45.4
877.924	37.2
878.097	-65.19
878.269	29.01
878.442	69.97
878.614	49.49
878.786	82.26
878.959	76.12
879.131	55.64
879.303	2.39
879.476	-11.95
879.648	33.11
879.82	65.88
879.993	-65.19
880.165	41.3
880.337	-46.76
880.509	74.07
880.681	-20.14
880.854	37.2
881.026	-36.52
881.198	80.21
881.37	39.25
881.542	-20.14
881.714	8.53
881.886	41.3
882.058	82.26
882.23	8.53
882.402	20.82
882.574	0.34
882.746	61.78
882.918	55.64
883.09	31.06
883.262	-7.85
883.434	24.92
883.606	-44.71
883.778	74.07
883.95	67.92
884.122	-57
884.293	29.01
884.465	78.16
884.637	29.01
884.809	0.34
884.98	12.63
885.152	78.16
885.324	18.77
885.496	49.49
885.667	16.73
885.839	-3.75
886.011	108.88
886.182	8.53
886.354	61.78
886.525	41.3
886.697	-3.75
886.869	-1.71
887.04	106.84
887.212	69.97
887.383	96.6
887.555	10.58
887.726	-11.95
887.897	12.63
888.069	18.77
888.24	4.44
888.412	-13.99
888.583	18.77
888.754	26.96
888.926	-36.52
889.097	29.01
889.268	-22.19
889.44	-16.04
889.611	-16.04
889.782	12.63
889.953	20.82
890.125	57.68
890.296	16.73
890.467	14.68
890.638	-18.09
890.809	-52.91
890.98	18.77
891.151	78.16
891.323	39.25
891.494	4.44
891.665	57.68
891.836	0.34
892.007	16.73
892.178	74.07
892.349	47.44
892.52	-16.04
892.691	-50.86
892.862	41.3
893.032	20.82
893.203	18.77
893.374	12.63
893.545	-13.99
893.716	8.53
893.887	10.58
894.057	0.34
894.228	-20.14
894.399	-20.14
894.57	57.68
894.74	41.3
894.911	80.21
895.082	-20.14
895.253	-20.14
895.423	20.82
895.594	67.92
895.764	65.88
895.935	20.82
896.106	45.4
896.276	-20.14
896.447	41.3
896.617	-44.71
896.788	35.16
896.958	6.49
897.129	-30.38
897.299	0.34
897.47	26.96
897.64	24.92
897.81	18.77
897.981	-52.91
898.151	0.34
898.322	24.92
898.492	33.11
898.662	-69.29
898.832	-18.09
899.003	0.34
899.173	69.97
899.343	-3.75
899.513	-5.8
