Data from USB4F104151__41__11-30-23-763.txt Node

Date: Fri Mar 14 11:30:23 EDT 2025
User: louis
Spectrometer: USB4F10415
Trigger mode: 4
Integration Time (sec): 5.000000E-2
Scans to average: 1
Electric dark correction enabled: true
Nonlinearity correction enabled: false
Boxcar width: 0
XAxis mode: Wavelengths
Number of Pixels in Spectrum: 3648
>>>>>Begin Spectral Data<<<<<
178.204	-178.86
178.424	-178.86
178.644	-178.86
178.864	-193.19
179.084	-162.47
179.304	-19.11
179.524	-64.17
179.744	77.14
179.964	36.18
180.184	34.13
180.404	38.23
180.624	-6.83
180.844	1.37
181.064	-45.74
181.283	-68.27
181.503	-19.11
181.723	36.18
181.943	-35.5
182.163	77.14
182.383	-41.64
182.602	54.61
182.822	-21.16
183.042	75.09
183.262	-74.41
183.482	58.71
183.701	-0.68
183.921	27.99
184.141	-29.35
184.361	30.04
184.58	71
184.8	38.23
185.02	-2.73
185.239	-51.88
185.459	-23.21
185.679	-35.5
185.898	-68.27
186.118	52.56
186.338	62.8
186.557	1.37
186.777	1.37
186.997	15.7
187.216	-58.03
187.436	87.38
187.655	9.56
187.875	-49.83
188.095	5.46
188.314	79.19
188.534	99.67
188.753	-55.98
188.973	9.56
189.192	52.56
189.412	13.65
189.631	62.8
189.851	-78.51
190.07	11.61
190.29	-6.83
190.509	-68.27
190.729	7.51
190.948	66.9
191.168	183.63
191.387	30.04
191.607	-43.69
191.826	-4.78
192.045	38.23
192.265	27.99
192.484	44.37
192.704	-23.21
192.923	11.61
193.142	54.61
193.362	-6.83
193.581	87.38
193.8	62.8
194.02	11.61
194.239	1.37
194.458	7.51
194.678	-35.5
194.897	-0.68
195.116	15.7
195.335	-2.73
195.555	91.48
195.774	-45.74
195.993	30.04
196.212	27.99
196.432	-12.97
196.651	36.18
196.87	-80.55
197.089	118.1
197.308	27.99
197.528	25.94
197.747	-35.5
197.966	9.56
198.185	77.14
198.404	-19.11
198.623	17.75
198.842	-17.07
199.062	-27.31
199.281	19.8
199.5	34.13
199.719	7.51
199.938	38.23
200.157	97.62
200.376	-12.97
200.595	36.18
200.814	-39.59
201.033	-15.02
201.252	95.57
201.471	5.46
201.69	58.71
201.909	68.95
202.128	77.14
202.347	-10.92
202.566	-25.26
202.785	-60.07
203.004	-21.16
203.223	60.76
203.442	-6.83
203.661	-47.79
203.879	-68.27
204.098	11.61
204.317	38.23
204.536	-64.17
204.755	21.85
204.974	-8.87
205.193	11.61
205.411	103.76
205.63	-17.07
205.849	-15.02
206.068	3.41
206.287	-27.31
206.505	-6.83
206.724	27.99
206.943	-92.84
207.162	-29.35
207.381	11.61
207.599	-15.02
207.818	-35.5
208.037	-39.59
208.255	46.42
208.474	58.71
208.693	-37.55
208.911	-29.35
209.13	42.32
209.349	-6.83
209.567	99.67
209.786	27.99
210.005	19.8
210.223	-15.02
210.442	-17.07
210.661	3.41
210.879	-19.11
211.098	44.37
211.316	50.52
211.535	11.61
211.753	15.7
211.972	-35.5
212.191	5.46
212.409	21.85
212.628	5.46
212.846	-15.02
213.065	-19.11
213.283	54.61
213.502	19.8
213.72	62.8
213.938	-15.02
214.157	13.65
214.375	50.52
214.594	5.46
214.812	-29.35
215.031	25.94
215.249	-17.07
215.467	-0.68
215.686	71
215.904	77.14
216.122	25.94
216.341	3.41
216.559	-19.11
216.778	21.85
216.996	52.56
217.214	54.61
217.432	-29.35
217.651	-23.21
217.869	17.75
218.087	15.7
218.306	17.75
218.524	62.8
218.742	21.85
218.96	-43.69
219.179	9.56
219.397	-0.68
219.615	46.42
219.833	5.46
220.051	13.65
220.27	30.04
220.488	52.56
220.706	46.42
220.924	-92.84
221.142	66.9
221.36	95.57
221.578	52.56
221.796	-51.88
222.015	60.76
222.233	-35.5
222.451	34.13
222.669	27.99
222.887	-0.68
223.105	-37.55
223.323	-53.93
223.541	11.61
223.759	42.32
223.977	-15.02
224.195	54.61
224.413	11.61
224.631	21.85
224.849	19.8
225.067	68.95
225.285	-4.78
225.503	42.32
225.721	-39.59
225.939	-23.21
226.157	42.32
226.375	101.72
226.592	-86.7
226.81	-45.74
227.028	19.8
227.246	81.24
227.464	13.65
227.682	83.28
227.9	38.23
228.117	19.8
228.335	1.37
228.553	58.71
228.771	21.85
228.989	-21.16
229.206	38.23
229.424	-74.41
229.642	-60.07
229.86	-76.46
230.077	54.61
230.295	50.52
230.513	-29.35
230.731	52.56
230.948	62.8
231.166	-51.88
231.384	-10.92
231.601	15.7
231.819	11.61
232.037	1.37
232.254	27.99
232.472	21.85
232.689	-15.02
232.907	25.94
233.125	-2.73
233.342	-37.55
233.56	-92.84
233.777	-12.97
233.995	-2.73
234.213	-15.02
234.43	38.23
234.648	-62.12
234.865	-12.97
235.083	21.85
235.3	5.46
235.518	5.46
235.735	71
235.953	77.14
236.17	-19.11
236.388	13.65
236.605	13.65
236.822	66.9
237.04	27.99
237.257	-15.02
237.475	-47.79
237.692	-51.88
237.909	36.18
238.127	38.23
238.344	-27.31
238.562	-19.11
238.779	-45.74
238.996	-27.31
239.214	3.41
239.431	50.52
239.648	-35.5
239.865	-23.21
240.083	79.19
240.3	71
240.517	-10.92
240.735	-27.31
240.952	101.72
241.169	25.94
241.386	-4.78
241.603	38.23
241.821	-37.55
242.038	-10.92
242.255	103.76
242.472	62.8
242.689	-23.21
242.907	73.04
243.124	5.46
243.341	-35.5
243.558	79.19
243.775	-60.07
243.992	-4.78
244.209	38.23
244.426	44.37
244.643	44.37
244.86	1.37
245.078	5.46
245.295	-23.21
245.512	11.61
245.729	-10.92
245.946	66.9
246.163	-45.74
246.38	66.9
246.597	-64.17
246.814	1.37
247.031	-2.73
247.248	34.13
247.464	52.56
247.681	50.52
247.898	54.61
248.115	34.13
248.332	-105.13
248.549	81.24
248.766	91.48
248.983	52.56
249.2	75.09
249.417	21.85
249.633	-80.55
249.85	46.42
250.067	-68.27
250.284	13.65
250.501	25.94
250.717	9.56
250.934	-146.09
251.151	-17.07
251.368	27.99
251.585	-6.83
251.801	1.37
252.018	-2.73
252.235	58.71
252.451	-117.42
252.668	-10.92
252.885	54.61
253.102	5.46
253.318	34.13
253.535	71
253.752	-6.83
253.968	-35.5
254.185	-29.35
254.401	-82.6
254.618	66.9
254.835	-78.51
255.051	-29.35
255.268	-10.92
255.484	50.52
255.701	34.13
255.917	11.61
256.134	34.13
256.351	-103.08
256.567	27.99
256.784	30.04
257	-43.69
257.217	30.04
257.433	15.7
257.65	23.89
257.866	40.28
258.082	-94.89
258.299	-43.69
258.515	13.65
258.732	-76.46
258.948	9.56
259.165	17.75
259.381	1.37
259.597	-23.21
259.814	46.42
260.03	-25.26
260.246	-0.68
260.463	7.51
260.679	5.46
260.895	-15.02
261.112	9.56
261.328	-21.16
261.544	-51.88
261.761	13.65
261.977	-2.73
262.193	-4.78
262.409	36.18
262.626	25.94
262.842	19.8
263.058	17.75
263.274	44.37
263.49	-23.21
263.707	77.14
263.923	11.61
264.139	-21.16
264.355	52.56
264.571	66.9
264.787	21.85
265.004	13.65
265.22	-23.21
265.436	54.61
265.652	48.47
265.868	38.23
266.084	-6.83
266.3	32.08
266.516	25.94
266.732	-0.68
266.948	-35.5
267.164	-21.16
267.38	-39.59
267.596	-15.02
267.812	46.42
268.028	124.24
268.244	-23.21
268.46	-6.83
268.676	-70.31
268.892	34.13
269.108	-43.69
269.324	-51.88
269.54	36.18
269.756	19.8
269.972	-29.35
270.188	-37.55
270.403	-10.92
270.619	30.04
270.835	30.04
271.051	1.37
271.267	-45.74
271.483	-17.07
271.698	21.85
271.914	56.66
272.13	30.04
272.346	-10.92
272.562	-8.87
272.777	42.32
272.993	46.42
273.209	5.46
273.425	-47.79
273.64	-68.27
273.856	46.42
274.072	-37.55
274.287	-51.88
274.503	48.47
274.719	-2.73
274.934	17.75
275.15	48.47
275.366	23.89
275.581	-29.35
275.797	17.75
276.012	-12.97
276.228	13.65
276.444	13.65
276.659	103.76
276.875	-10.92
277.09	9.56
277.306	-47.79
277.521	42.32
277.737	-27.31
277.952	71
278.168	52.56
278.383	-12.97
278.599	-35.5
278.814	-10.92
279.03	36.18
279.245	91.48
279.461	5.46
279.676	-10.92
279.892	-35.5
280.107	-31.4
280.322	-70.31
280.538	103.76
280.753	-49.83
280.969	30.04
281.184	5.46
281.399	-8.87
281.615	-47.79
281.83	27.99
282.045	-2.73
282.26	-101.03
282.476	-31.4
282.691	58.71
282.906	52.56
283.122	5.46
283.337	-37.55
283.552	27.99
283.767	40.28
283.983	79.19
284.198	-66.22
284.413	21.85
284.628	11.61
284.843	77.14
285.058	23.89
285.274	3.41
285.489	-19.11
285.704	101.72
285.919	-19.11
286.134	-27.31
286.349	-76.46
286.564	32.08
286.779	34.13
286.995	-29.35
287.21	11.61
287.425	36.18
287.64	5.46
287.855	54.61
288.07	-80.55
288.285	17.75
288.5	17.75
288.715	73.04
288.93	-19.11
289.145	-35.5
289.36	60.76
289.575	-19.11
289.79	95.57
290.004	-31.4
290.219	-19.11
290.434	21.85
290.649	-4.78
290.864	-45.74
291.079	-35.5
291.294	60.76
291.509	-29.35
291.724	-45.74
291.938	3.41
292.153	7.51
292.368	-10.92
292.583	44.37
292.798	79.19
293.012	-17.07
293.227	3.41
293.442	-27.31
293.657	62.8
293.871	-19.11
294.086	1.37
294.301	44.37
294.516	38.23
294.73	79.19
294.945	-25.26
295.16	46.42
295.374	34.13
295.589	-2.73
295.804	25.94
296.018	3.41
296.233	120.15
296.447	1.37
296.662	13.65
296.877	-25.26
297.091	-103.08
297.306	40.28
297.52	42.32
297.735	-6.83
297.949	3.41
298.164	23.89
298.378	71
298.593	-2.73
298.807	3.41
299.022	3.41
299.236	-53.93
299.451	-76.46
299.665	13.65
299.88	9.56
300.094	73.04
300.309	-55.98
300.523	-19.11
300.737	11.61
300.952	19.8
301.166	11.61
301.381	19.8
301.595	-10.92
301.809	1.37
302.024	30.04
302.238	5.46
302.452	36.18
302.667	5.46
302.881	62.8
303.095	34.13
303.309	-72.36
303.524	-78.51
303.738	11.61
303.952	89.43
304.166	11.61
304.381	-72.36
304.595	30.04
304.809	-0.68
305.023	-64.17
305.237	5.46
305.452	5.46
305.666	30.04
305.88	17.75
306.094	34.13
306.308	85.33
306.522	9.56
306.736	25.94
306.95	75.09
307.164	27.99
307.379	54.61
307.593	-2.73
307.807	54.61
308.021	54.61
308.235	52.56
308.449	-70.31
308.663	9.56
308.877	107.86
309.091	34.13
309.305	-2.73
309.519	-51.88
309.733	54.61
309.947	-45.74
310.161	34.13
310.374	40.28
310.588	-2.73
310.802	3.41
311.016	-82.6
311.23	62.8
311.444	-43.69
311.658	30.04
311.872	-4.78
312.085	48.47
312.299	17.75
312.513	130.39
312.727	75.09
312.941	-39.59
313.154	-43.69
313.368	13.65
313.582	7.51
313.796	21.85
314.009	42.32
314.223	114
314.437	-27.31
314.651	95.57
314.864	-101.03
315.078	79.19
315.292	1.37
315.505	-47.79
315.719	-27.31
315.933	34.13
316.146	21.85
316.36	-15.02
316.573	52.56
316.787	-10.92
317.001	11.61
317.214	-6.83
317.428	-21.16
317.641	17.75
317.855	-35.5
318.068	32.08
318.282	42.32
318.495	95.57
318.709	13.65
318.922	-35.5
319.136	71
319.349	30.04
319.563	44.37
319.776	38.23
319.99	1.37
320.203	-2.73
320.417	-23.21
320.63	-23.21
320.843	40.28
321.057	-58.03
321.27	15.7
321.483	21.85
321.697	52.56
321.91	66.9
322.124	30.04
322.337	1.37
322.55	-2.73
322.763	-17.07
322.977	19.8
323.19	38.23
323.403	19.8
323.617	66.9
323.83	27.99
324.043	-39.59
324.256	-12.97
324.469	-10.92
324.683	44.37
324.896	15.7
325.109	-37.55
325.322	-21.16
325.535	23.89
325.748	-8.87
325.962	-23.21
326.175	30.04
326.388	30.04
326.601	21.85
326.814	-6.83
327.027	50.52
327.24	46.42
327.453	-29.35
327.666	-21.16
327.879	30.04
328.092	42.32
328.305	40.28
328.518	-31.4
328.731	-31.4
328.944	11.61
329.157	7.51
329.37	38.23
329.583	128.34
329.796	73.04
330.009	-19.11
330.222	13.65
330.435	36.18
330.648	-47.79
330.861	-29.35
331.073	46.42
331.286	114
331.499	13.65
331.712	11.61
331.925	-47.79
332.138	19.8
332.35	54.61
332.563	-21.16
332.776	-78.51
332.989	-39.59
333.202	13.65
333.414	1.37
333.627	44.37
333.84	-19.11
334.053	36.18
334.265	-43.69
334.478	11.61
334.691	83.28
334.903	-4.78
335.116	-21.16
335.329	-10.92
335.541	62.8
335.754	60.76
335.966	-25.26
336.179	-62.12
336.392	30.04
336.604	77.14
336.817	44.37
337.029	87.38
337.242	36.18
337.454	23.89
337.667	46.42
337.88	27.99
338.092	58.71
338.305	60.76
338.517	-35.5
338.729	3.41
338.942	122.2
339.154	-2.73
339.367	-19.11
339.579	-12.97
339.792	-68.27
340.004	-2.73
340.217	30.04
340.429	1.37
340.641	-51.88
340.854	-35.5
341.066	25.94
341.278	58.71
341.491	42.32
341.703	-31.4
341.915	-82.6
342.128	48.47
342.34	42.32
342.552	75.09
342.764	71
342.977	13.65
343.189	34.13
343.401	38.23
343.613	-68.27
343.826	-35.5
344.038	-15.02
344.25	19.8
344.462	30.04
344.674	42.32
344.886	9.56
345.099	5.46
345.311	42.32
345.523	9.56
345.735	-4.78
345.947	58.71
346.159	-19.11
346.371	77.14
346.583	15.7
346.795	87.38
347.007	-10.92
347.219	-12.97
347.431	5.46
347.643	-23.21
347.855	-19.11
348.067	42.32
348.279	15.7
348.491	87.38
348.703	-6.83
348.915	23.89
349.127	25.94
349.339	-37.55
349.551	-62.12
349.763	30.04
349.975	-10.92
350.187	11.61
350.399	46.42
350.61	5.46
350.822	-27.31
351.034	15.7
351.246	-31.4
351.458	62.8
351.669	54.61
351.881	52.56
352.093	13.65
352.305	23.89
352.517	-2.73
352.728	15.7
352.94	9.56
353.152	89.43
353.363	-21.16
353.575	30.04
353.787	46.42
353.999	32.08
354.21	38.23
354.422	13.65
354.633	-39.59
354.845	-2.73
355.057	15.7
355.268	50.52
355.48	-6.83
355.692	-27.31
355.903	-41.64
356.115	64.85
356.326	-27.31
356.538	85.33
356.749	30.04
356.961	99.67
357.172	-25.26
357.384	-39.59
357.595	142.68
357.807	-19.11
358.018	-15.02
358.23	34.13
358.441	52.56
358.653	-2.73
358.864	-39.59
359.075	-29.35
359.287	-94.89
359.498	-2.73
359.709	50.52
359.921	122.2
360.132	-37.55
360.344	5.46
360.555	3.41
360.766	5.46
360.977	-12.97
361.189	111.96
361.4	-19.11
361.611	52.56
361.823	44.37
362.034	60.76
362.245	42.32
362.456	25.94
362.667	17.75
362.879	-10.92
363.09	46.42
363.301	7.51
363.512	79.19
363.723	9.56
363.935	13.65
364.146	13.65
364.357	-45.74
364.568	-0.68
364.779	13.65
364.99	93.52
365.201	52.56
365.412	71
365.623	-29.35
365.834	27.99
366.045	-27.31
366.256	-62.12
366.467	-17.07
366.678	-21.16
366.889	56.66
367.1	27.99
367.311	42.32
367.522	-47.79
367.733	25.94
367.944	7.51
368.155	-23.21
368.366	38.23
368.577	66.9
368.788	77.14
368.999	-23.21
369.209	66.9
369.42	99.67
369.631	79.19
369.842	-10.92
370.053	-6.83
370.264	91.48
370.474	36.18
370.685	54.61
370.896	3.41
371.107	71
371.317	15.7
371.528	5.46
371.739	11.61
371.95	79.19
372.16	21.85
372.371	-64.17
372.582	-25.26
372.792	34.13
373.003	-10.92
373.214	-25.26
373.424	13.65
373.635	-86.7
373.846	34.13
374.056	13.65
374.267	-21.16
374.477	62.8
374.688	1.37
374.898	-4.78
375.109	27.99
375.319	71
375.53	30.04
375.74	71
375.951	114
376.161	13.65
376.372	83.28
376.582	50.52
376.793	79.19
377.003	-19.11
377.214	-47.79
377.424	1.37
377.635	-12.97
377.845	-47.79
378.055	150.87
378.266	11.61
378.476	27.99
378.686	15.7
378.897	46.42
379.107	62.8
379.317	-17.07
379.528	-27.31
379.738	83.28
379.948	-19.11
380.158	44.37
380.369	21.85
380.579	66.9
380.789	17.75
380.999	56.66
381.21	-68.27
381.42	60.76
381.63	1.37
381.84	54.61
382.05	3.41
382.261	79.19
382.471	13.65
382.681	-19.11
382.891	68.95
383.101	34.13
383.311	-88.75
383.521	27.99
383.731	30.04
383.941	-0.68
384.151	-68.27
384.361	32.08
384.571	50.52
384.781	19.8
384.991	46.42
385.201	101.72
385.411	-10.92
385.621	13.65
385.831	71
386.041	15.7
386.251	89.43
386.461	46.42
386.671	-17.07
386.881	77.14
387.091	23.89
387.301	32.08
387.511	-10.92
387.72	17.75
387.93	81.24
388.14	-27.31
388.35	11.61
388.56	60.76
388.769	36.18
388.979	21.85
389.189	27.99
389.399	-37.55
389.609	19.8
389.818	42.32
390.028	97.62
390.238	116.05
390.447	-4.78
390.657	75.09
390.867	-27.31
391.076	-10.92
391.286	27.99
391.496	44.37
391.705	38.23
391.915	97.62
392.125	-19.11
392.334	109.91
392.544	30.04
392.753	-21.16
392.963	23.89
393.172	9.56
393.382	60.76
393.591	77.14
393.801	-10.92
394.01	30.04
394.22	44.37
394.429	83.28
394.639	-27.31
394.848	52.56
395.058	-27.31
395.267	85.33
395.477	62.8
395.686	38.23
395.895	91.48
396.105	103.76
396.314	103.76
396.524	114
396.733	66.9
396.942	109.91
397.152	13.65
397.361	95.57
397.57	116.05
397.78	-0.68
397.989	13.65
398.198	126.29
398.407	36.18
398.617	66.9
398.826	38.23
399.035	30.04
399.244	77.14
399.453	91.48
399.663	77.14
399.872	111.96
400.081	-15.02
400.29	81.24
400.499	34.13
400.708	136.53
400.917	116.05
401.127	25.94
401.336	46.42
401.545	71
401.754	97.62
401.963	11.61
402.172	105.81
402.381	91.48
402.59	56.66
402.799	23.89
403.008	62.8
403.217	122.2
403.426	132.44
403.635	46.42
403.844	79.19
404.053	-12.97
404.262	73.04
404.471	148.82
404.68	62.8
404.888	62.8
405.097	42.32
405.306	103.76
405.515	185.68
405.724	103.76
405.933	165.2
406.142	71
406.35	71
406.559	118.1
406.768	165.2
406.977	181.59
407.185	118.1
407.394	136.53
407.603	105.81
407.812	154.96
408.02	251.22
408.229	128.34
408.438	206.16
408.646	152.92
408.855	124.24
409.064	226.64
409.272	222.55
409.481	193.87
409.69	185.68
409.898	193.87
410.107	161.11
410.315	269.65
410.524	232.79
410.733	226.64
410.941	167.25
411.15	175.44
411.358	316.75
411.567	298.32
411.775	300.37
411.984	286.03
412.192	296.27
412.401	318.8
412.609	415.06
412.818	380.24
413.026	413.01
413.234	419.15
413.443	413.01
413.651	357.71
413.86	421.2
414.068	398.67
414.276	509.26
414.485	431.44
414.693	519.5
414.901	496.97
415.11	537.93
415.318	472.4
415.526	560.46
415.734	513.36
415.943	582.99
416.151	628.04
416.359	621.9
416.567	683.34
416.776	689.48
416.984	673.1
417.192	728.39
417.4	728.39
417.608	759.11
417.817	761.16
418.025	849.22
418.233	920.9
418.441	783.69
418.649	851.27
418.857	959.81
419.065	988.49
419.273	853.32
419.481	1029.45
419.689	1064.26
419.897	1092.93
420.105	1125.7
420.313	1232.19
420.521	1201.48
420.729	1117.51
420.937	1226.05
421.145	1215.81
421.353	1383.74
421.561	1447.23
421.769	1520.96
421.977	1553.73
422.185	1502.53
422.393	1625.4
422.601	1680.7
422.809	1738.04
423.017	1768.76
423.224	1779
423.432	1799.48
423.64	1793.34
423.848	2020.66
424.056	1905.98
424.263	2037.05
424.471	2037.05
424.679	2135.35
424.887	2346.29
425.094	2387.25
425.302	2340.15
425.51	2344.24
425.718	2542.89
425.925	2581.81
426.133	2587.95
426.341	2794.79
426.548	2886.95
426.756	2895.15
426.964	2968.87
427.171	3147.05
427.379	3175.72
427.586	3319.07
427.794	3290.4
428.001	3560.74
428.209	3689.76
428.417	3630.37
428.624	4007.19
428.832	3829.02
429.039	3947.8
429.247	3726.62
429.454	4130.07
429.662	4375.83
429.869	4150.55
430.076	4570.38
430.284	4320.53
430.491	4672.78
430.699	4795.66
430.906	4936.97
431.114	4963.59
431.321	5139.72
431.528	5033.22
431.736	5461.25
431.943	5872.89
432.15	5524.74
432.358	5610.75
432.565	5911.8
432.772	5915.9
432.979	6262.01
433.187	6262.01
433.394	6468.85
433.601	6708.46
433.808	6851.82
434.016	6700.27
434.223	7099.62
434.43	7654.62
434.637	7322.85
434.844	7908.57
435.052	7965.92
435.259	7785.69
435.466	8058.07
435.673	7941.34
435.88	8377.56
436.087	8899.79
436.294	8920.27
436.501	8686.8
436.708	8873.17
436.915	9196.75
437.122	9557.19
437.329	9553.09
437.537	9637.06
437.743	10083.52
437.95	9927.87
438.157	10339.51
438.364	10761.39
438.571	10767.54
438.778	10730.67
438.985	11594.92
439.192	11275.43
439.399	11611.3
439.606	11545.77
439.813	12100.76
440.02	12827.79
440.227	12528.79
440.433	12430.49
440.64	13114.51
440.847	12776.59
441.054	13143.18
441.261	13991.04
441.467	13896.83
441.674	14177.41
441.881	14689.4
442.088	14503.03
442.294	14419.07
442.501	14650.49
442.708	15369.32
442.914	15871.08
443.121	16299.1
443.328	16010.34
443.534	17185.87
443.741	16561.24
443.948	16192.61
444.154	17531.98
444.361	17658.95
444.568	17687.62
444.774	17554.51
444.981	17902.66
445.187	18469.95
445.394	19098.67
445.6	18916.4
445.807	20673.56
446.013	19901.48
446.22	20063.27
446.426	21234.71
446.633	21136.4
446.839	21922.82
447.046	21120.02
447.252	22012.93
447.459	22182.91
447.665	21478.41
447.871	23133.17
448.078	24253.41
448.284	22567.93
448.491	23403.5
448.697	24288.23
448.903	24677.34
449.11	24935.38
449.316	24660.96
449.522	24912.86
449.728	25881.55
449.935	25869.26
450.141	25592.78
450.347	26371.01
450.553	25340.88
450.76	25893.83
450.966	26825.66
451.172	26252.23
451.378	26923.96
451.584	26217.41
451.791	27222.97
451.997	27048.89
452.203	27532.21
452.409	27519.92
452.615	27141.05
452.821	26078.15
453.027	26176.45
453.233	27407.28
453.44	26145.73
453.646	26278.85
453.852	26620.86
454.058	27026.36
454.264	25902.03
454.47	26786.75
454.676	25959.37
454.882	26766.27
455.088	24429.54
455.294	24851.42
455.5	24972.25
455.705	25400.27
455.911	24562.65
456.117	23825.39
456.323	23483.38
456.529	22434.81
456.735	23378.93
456.941	22596.6
457.147	22436.86
457.352	21781.51
457.558	21277.71
457.764	21265.42
457.97	21070.87
458.176	20263.97
458.381	20345.89
458.587	19399.73
458.793	19383.34
458.999	18631.74
459.204	19815.46
459.41	19430.44
459.616	17873.99
459.821	18224.19
460.027	17871.94
460.233	17585.22
460.438	16651.35
460.644	16847.96
460.85	16026.72
461.055	16163.93
461.261	15529.06
461.466	14435.45
461.672	14099.58
461.878	15113.33
462.083	14161.02
462.289	13804.67
462.494	13798.53
462.7	13223.05
462.905	12901.52
463.111	13229.2
463.316	13239.44
463.522	12852.37
463.727	12971.15
463.932	12795.03
464.138	12881.04
464.343	13022.35
464.549	12518.55
464.754	12936.34
464.959	12807.31
465.165	12563.61
465.37	12266.65
465.575	11920.54
465.781	12289.18
465.986	12235.93
466.191	12072.09
466.397	11465.89
466.602	11289.77
466.807	11568.29
467.012	11635.88
467.218	11662.5
467.423	11281.58
467.628	11447.46
467.833	11887.78
468.038	11396.26
468.244	11041.96
468.449	11508.9
468.654	11203.75
468.859	11089.07
469.064	10841.26
469.269	10581.17
469.474	10630.32
469.679	10761.39
469.885	10589.36
470.09	10953.9
470.295	10702
470.5	10306.74
470.705	10622.13
470.91	10364.09
471.115	10099.9
471.32	10192.06
471.525	10276.02
471.73	10181.82
471.935	9759.94
472.139	9286.86
472.344	9884.86
472.549	9512.13
472.754	9530.56
472.959	9209.03
473.164	9012.43
473.369	9194.7
473.574	9333.96
473.778	9098.44
473.983	9045.2
474.188	8967.37
474.393	8619.22
474.598	8680.66
474.802	8697.04
475.007	8488.15
475.212	8819.92
475.417	8279.25
475.621	8307.93
475.826	8205.53
476.031	8172.76
476.235	8013.02
476.44	8119.51
476.645	7843.04
476.849	7769.31
477.054	7881.95
477.259	7742.69
477.463	7666.91
477.668	7529.7
477.872	7511.27
478.077	7556.32
478.282	7242.98
478.486	7406.82
478.691	7253.22
478.895	7267.56
479.1	7130.34
479.304	7099.62
479.509	7058.67
479.713	7101.67
479.918	6939.88
480.122	6612.21
480.326	6927.6
480.531	6946.03
480.735	6804.72
480.94	6958.32
481.144	7052.52
481.348	6677.74
481.553	6792.43
481.757	6608.11
481.961	6722.8
482.166	6776.05
482.37	6700.27
482.574	6567.15
482.778	6679.79
482.983	6829.29
483.187	6714.61
483.391	6696.18
483.595	6440.18
483.8	6653.17
484.004	6556.91
484.208	6735.09
484.412	6509.81
484.616	6573.3
484.821	6685.94
485.025	6436.08
485.229	6745.33
485.433	6659.31
485.637	6450.42
485.841	6591.73
486.045	6685.94
486.249	6769.9
486.453	6395.12
486.657	6659.31
486.861	6556.91
487.065	6358.26
487.269	6536.43
487.473	6501.62
487.677	6579.44
487.881	6728.94
488.085	6634.74
488.289	6632.69
488.493	6536.43
488.697	6655.22
488.901	6470.9
489.105	6702.32
489.309	6724.85
489.512	6812.91
489.716	6810.86
489.92	6620.4
490.124	6718.7
490.328	6907.12
490.531	6878.44
490.735	6788.33
490.939	6718.7
491.143	6827.25
491.346	6962.41
491.55	6931.69
491.754	6917.36
491.958	6890.73
492.161	6792.43
492.365	6888.68
492.569	7124.2
492.772	6903.02
492.976	7116.01
493.18	7177.45
493.383	7275.75
493.587	7263.46
493.79	7277.8
493.994	7277.8
494.197	7353.57
494.401	7521.51
494.605	7202.02
494.808	7591.14
495.012	7582.95
495.215	7736.54
495.419	7621.86
495.622	7615.71
495.825	7734.5
496.029	7709.92
496.232	8031.45
496.436	7701.73
496.639	8033.5
496.843	7916.76
497.046	8096.99
497.249	8430.8
497.453	8324.31
497.656	8223.96
497.859	8492.24
498.063	8516.82
498.266	8694.99
498.469	8498.39
498.673	8774.86
498.876	8873.17
499.079	8897.74
499.282	8811.73
499.485	9278.66
499.689	9358.53
499.892	9098.44
500.095	9372.87
500.298	9528.52
500.501	9460.93
500.705	9786.56
500.908	9909.44
501.111	10007.74
501.314	10155.19
501.517	10157.24
501.72	10073.28
501.923	10220.73
502.126	10577.08
502.329	10720.43
502.532	10781.87
502.735	10595.51
502.938	11062.44
503.141	11019.44
503.344	11185.32
503.547	11136.17
503.75	11539.62
503.953	11488.42
504.156	11596.96
504.359	11689.12
504.562	11945.12
504.765	12240.03
504.968	12063.9
505.17	12469.4
505.373	12283.03
505.576	12682.39
505.779	12623
505.982	12862.61
506.185	13235.34
506.387	13100.17
506.59	13223.05
506.793	13370.51
506.996	13327.5
507.198	13745.28
507.401	13644.93
507.604	14040.19
507.807	14261.37
508.009	14304.38
508.212	14478.46
508.415	14638.2
508.617	14738.55
508.82	14904.43
509.022	14949.49
509.225	14963.82
509.428	15322.22
509.63	15664.23
509.833	15633.51
510.035	16061.54
510.238	15797.35
510.44	16096.35
510.643	16483.42
510.845	16385.12
511.048	16462.94
511.25	16755.8
511.453	16843.86
511.655	17306.7
511.858	17187.92
512.06	17323.08
512.262	17712.2
512.465	17830.98
512.667	18041.92
512.87	18390.08
513.072	17927.24
513.274	18474.04
513.477	18558.01
513.679	18883.64
513.881	19057.71
514.084	19231.79
514.286	19545.13
514.488	19276.85
514.69	19997.73
514.893	20360.22
515.095	20188.19
515.297	20575.26
515.499	20446.24
515.701	20587.55
515.904	20947.99
516.106	21167.12
516.308	21111.83
516.51	21742.6
516.712	21726.22
516.914	22090.76
517.116	22078.47
517.318	22461.44
517.52	22594.56
517.722	22717.43
517.925	23026.68
518.127	23442.42
518.329	23831.53
518.531	23354.35
518.733	24169.44
518.935	24269.79
519.136	24259.56
519.338	24837.08
519.54	24749.02
519.742	25320.4
519.944	25113.56
520.146	25949.13
520.348	26289.09
520.55	26082.25
520.752	25996.23
520.954	26889.15
521.155	26385.35
521.357	26903.48
521.559	27218.87
521.761	27837.36
521.963	27820.97
522.164	28046.25
522.366	28031.91
522.568	28601.25
522.77	28720.03
522.971	29332.37
523.173	28939.16
523.375	29449.11
523.576	29350.81
523.778	29694.86
523.98	30108.55
524.181	30630.79
524.383	30200.71
524.584	30864.25
524.786	30649.22
524.988	30735.23
525.189	31288.18
525.391	31173.5
525.592	31726.45
525.794	32004.97
525.995	32246.63
526.197	32512.87
526.398	32658.28
526.6	32648.04
526.801	32856.93
527.003	33100.64
527.204	33301.34
527.406	33958.74
527.607	33737.55
527.808	33925.97
528.01	33688.4
528.211	34155.34
528.412	34915.14
528.614	34667.33
528.815	34593.61
529.016	35099.45
529.218	34564.93
529.419	34911.04
529.62	35472.18
529.822	35236.67
530.023	35326.78
530.224	35584.82
530.425	35914.55
530.626	35484.47
530.828	35695.41
531.029	36274.99
531.23	36311.85
531.431	36086.57
531.632	36430.63
531.833	36678.44
532.035	36522.79
532.236	36715.3
532.437	36692.77
532.638	36764.45
532.839	37176.09
533.04	36860.71
533.241	36602.66
533.442	37604.12
533.643	37143.33
533.844	37604.12
534.045	37604.12
534.246	37288.73
534.447	38116.11
534.648	37581.59
534.849	37731.09
535.05	37571.35
535.251	37638.93
535.451	37417.75
535.652	37765.91
535.853	37729.05
536.054	37802.77
536.255	37866.26
536.456	37657.37
536.657	38470.41
536.857	38165.26
537.058	38261.52
537.259	38112.02
537.46	38353.68
537.66	37851.92
537.861	38247.18
538.062	38251.28
538.263	38667.02
538.463	38372.11
538.664	38619.91
538.865	38241.04
539.065	38562.57
539.266	38226.7
539.466	38550.28
539.667	37731.09
539.868	38255.37
540.068	38089.49
540.269	38603.53
540.469	38257.42
540.67	38243.09
540.87	38257.42
541.071	38298.38
541.271	38343.44
541.472	38437.64
541.672	38415.12
541.873	38056.72
542.073	37563.16
542.274	38521.61
542.474	38284.05
542.675	37755.67
542.875	38624.01
543.075	38132.5
543.276	37509.91
543.476	38370.06
543.676	37837.59
543.877	38513.42
544.077	38243.09
544.277	38181.65
544.478	38271.76
544.678	38359.82
544.878	38552.33
545.078	38564.62
545.279	38181.65
545.479	37878.55
545.679	38329.1
545.879	38255.37
546.079	38234.89
546.28	38097.68
546.48	37749.53
546.68	38282
546.88	38234.89
547.08	38507.27
547.28	38189.84
547.48	38126.35
547.68	37958.42
547.88	37724.95
548.081	38349.58
548.281	38234.89
548.481	37909.27
548.681	38703.88
548.881	38263.57
549.081	38210.32
549.28	37944.08
549.48	38431.5
549.68	37968.66
549.88	38494.99
550.08	38173.45
550.28	38017.81
550.48	37780.24
550.68	38357.77
550.88	38009.62
551.08	38208.27
551.279	38124.3
551.479	37851.92
551.679	37931.79
551.879	37913.36
552.079	38232.85
552.278	37974.8
552.478	37739.29
552.678	38118.16
552.878	38195.98
553.077	37944.08
553.277	37894.93
553.477	38343.44
553.676	38058.77
553.876	37698.33
554.076	37727
554.275	37856.02
554.475	37178.14
554.674	37727
554.874	37739.29
555.074	37395.23
555.273	37636.89
555.473	37804.82
555.672	37120.8
555.872	37393.18
556.071	37405.47
556.271	37638.93
556.47	37167.9
556.67	36940.58
556.869	37202.72
557.068	36940.58
557.268	37010.21
557.467	36797.22
557.667	36981.54
557.866	36817.7
558.065	36379.43
558.265	36555.56
558.464	36258.6
558.663	36729.64
558.863	36209.45
559.062	36875.04
559.261	36051.76
559.461	36909.86
559.66	35777.33
559.859	35912.5
560.058	35943.22
560.258	36055.86
560.457	35607.35
560.656	35887.92
560.855	35439.42
561.054	35744.56
561.253	34857.79
561.453	35621.69
561.652	35597.11
561.851	35277.63
562.05	34929.47
562.249	34837.31
562.448	35121.98
562.647	34693.96
562.846	34782.02
563.045	34376.52
563.244	34224.97
563.443	34267.98
563.642	34270.03
563.841	34188.11
564.04	34122.57
564.239	34132.81
564.438	33704.79
564.637	33758.03
564.836	33596.24
565.035	33332.06
565.234	33504.09
565.432	33344.34
565.631	32742.24
565.83	33291.1
566.029	32668.51
566.228	32666.47
566.427	32883.55
566.625	32349.03
566.824	32148.33
567.023	32340.84
567.222	31650.67
567.42	32211.82
567.619	32168.81
567.818	31589.24
568.016	31480.69
568.215	31710.07
568.414	31363.96
568.612	31390.58
568.811	31138.68
569.01	31026.04
569.208	30872.45
569.407	31030.14
569.605	30403.46
569.804	30991.23
570.002	30497.67
570.201	30585.73
570.4	30122.89
570.598	29973.39
570.797	29971.34
570.995	30014.35
571.193	29473.68
571.392	30124.94
571.59	29506.45
571.789	29551.51
571.987	29160.34
572.186	29182.87
572.384	28961.69
572.582	28980.12
572.781	29043.61
572.979	28611.49
573.177	28789.66
573.376	28597.15
573.574	28185.51
573.772	28244.9
573.971	28140.46
574.169	27962.28
574.367	27859.88
574.565	27898.8
574.763	27638.7
574.962	27679.66
575.16	27171.77
575.358	27255.73
575.556	27288.5
575.754	27564.98
575.952	27089.85
576.151	27247.54
576.349	26729.41
576.547	26872.76
576.745	26844.09
576.943	26893.24
577.141	26315.72
577.339	26606.53
577.537	26330.05
577.735	26430.4
577.933	26065.86
578.131	26074.06
578.329	26112.97
578.527	26117.06
578.725	25975.75
578.923	25756.62
579.121	25410.51
579.319	25453.52
579.516	25422.8
579.714	25359.31
579.912	25209.81
580.11	24939.48
580.308	25213.91
580.506	24949.72
580.704	24939.48
580.901	24789.98
581.099	25037.78
581.297	24636.38
581.495	24370.15
581.692	24673.24
581.89	24191.97
582.088	24445.92
582.285	24077.29
582.483	24171.49
582.681	24171.49
582.878	23788.52
583.076	23899.11
583.274	23923.69
583.471	23843.82
583.669	23720.94
583.866	23266.29
584.064	23501.81
584.262	23487.47
584.459	23761.9
584.657	23139.32
584.854	23389.17
585.052	23127.03
585.249	23268.34
585.447	22961.14
585.644	22682.62
585.841	22911.99
586.039	23178.23
586.236	22520.83
586.434	22555.65
586.631	22592.51
586.828	22383.62
587.026	22375.42
587.223	22115.33
587.42	22101
587.618	22127.62
587.815	21996.55
588.012	21877.77
588.21	21675.02
588.407	21672.97
588.604	21816.33
588.801	21564.43
588.999	21758.99
589.196	21572.62
589.393	21533.71
589.59	21300.24
589.787	21382.16
589.984	20954.13
590.182	21244.95
590.379	20954.13
590.576	20966.42
590.773	20870.17
590.97	20880.41
591.167	20722.71
591.364	20671.51
591.561	20913.17
591.758	20706.33
591.955	20569.12
592.152	20620.31
592.349	20182.05
592.546	20409.37
592.743	20196.39
592.94	20055.08
593.137	20442.14
593.334	20249.63
593.531	19944.49
593.727	20155.43
593.924	19803.18
594.121	19629.1
594.318	19819.56
594.515	19733.54
594.712	19833.89
594.908	19330.09
595.105	19567.66
595.302	19373.1
595.499	19432.49
595.696	19149.87
595.892	19297.33
596.089	19409.97
596.286	19350.57
596.482	19123.25
596.679	18996.28
596.876	19108.91
597.072	19024.95
597.269	18654.26
597.466	18734.14
597.662	18699.32
597.859	18547.77
598.055	18574.39
598.252	18390.08
598.448	18531.39
598.645	18639.93
598.841	18308.16
599.038	18306.11
599.234	18285.63
599.431	18076.74
599.627	17882.18
599.824	18048.07
600.02	17777.73
600.217	18129.98
600.413	18023.49
600.609	17701.96
600.806	17583.18
601.002	17962.05
601.198	17495.11
601.395	17531.98
601.591	17654.86
601.787	17423.44
601.984	17527.88
602.18	17661
602.376	17034.32
602.572	17400.91
602.769	17130.58
602.965	17200.21
603.161	17392.72
603.357	17110.1
603.553	17001.55
603.75	16927.83
603.946	16741.46
604.142	16921.68
604.338	16819.28
604.534	16843.86
604.73	16569.43
604.926	16395.36
605.122	16606.3
605.318	16501.85
605.514	16272.48
605.71	16127.07
605.906	16479.32
606.102	16034.91
606.298	16262.24
606.494	16129.12
606.69	16141.41
606.886	16077.92
607.082	15590.5
607.278	15926.37
607.474	15740.01
607.67	16135.26
607.866	15727.72
608.062	16086.11
608.257	15783.01
608.453	15420.52
608.649	15912.03
608.845	15453.29
609.041	15500.39
609.236	15600.74
609.432	15475.82
609.628	15424.62
609.824	15385.71
610.019	15187.05
610.215	15567.98
610.411	15428.71
610.606	15217.77
610.802	15232.11
610.998	15055.98
611.193	15119.47
611.389	14941.3
611.584	15094.9
611.78	14982.26
611.976	14984.3
612.171	15178.86
612.367	14963.82
612.562	15010.93
612.758	14429.31
612.953	14519.42
613.149	14957.68
613.344	14842.99
613.539	14875.76
613.735	14693.49
613.93	14623.86
614.126	14390.39
614.321	14734.45
614.517	14476.41
614.712	14519.42
614.907	14369.91
615.103	14173.31
615.298	14324.86
615.493	14511.22
615.688	14019.71
615.884	14369.91
616.079	14216.32
616.274	14386.3
616.47	14158.97
616.665	14095.49
616.86	14099.58
617.055	14275.71
617.25	13847.68
617.445	13890.69
617.641	13769.86
617.836	13796.48
618.031	13720.71
618.226	14017.66
618.421	13778.05
618.616	13888.64
618.811	13573.25
619.006	13634.69
619.201	13628.55
619.396	13405.32
619.591	13337.74
619.786	13380.75
619.981	13218.96
620.176	13335.69
620.371	12844.18
620.566	13079.69
620.761	13038.73
620.956	13069.45
621.151	12856.47
621.346	13184.14
621.541	12639.38
621.735	12891.28
621.93	12790.93
622.125	12776.59
622.32	12512.41
622.515	12563.61
622.709	12405.91
622.904	12487.83
623.099	12309.66
623.294	12031.13
623.488	12291.23
623.683	12121.24
623.878	12141.72
624.072	12194.97
624.267	11779.23
624.462	11793.57
624.656	11809.95
624.851	11691.17
625.046	11596.96
625.24	11629.73
625.435	11562.15
625.629	11631.78
625.824	11472.04
626.018	11347.11
626.213	11265.19
626.407	11252.91
626.602	11041.96
626.796	11127.98
626.991	11306.15
627.185	11052.2
627.38	10962.09
627.574	10990.77
627.768	10740.91
627.963	10867.89
628.157	10628.28
628.352	10720.43
628.546	10441.91
628.74	10693.81
628.935	10482.87
629.129	10331.32
629.323	10204.35
629.517	10470.58
629.712	10253.5
629.906	10368.18
630.1	10235.07
630.294	10159.29
630.489	10097.85
630.683	10136.76
630.877	9792.7
631.071	9874.62
631.265	10024.12
631.459	9718.98
631.653	9768.13
631.848	9710.79
632.042	9645.25
632.236	9706.69
632.43	9520.32
632.624	9399.49
632.818	9510.08
633.012	9186.51
633.206	9426.12
633.4	9415.88
633.594	9159.88
633.788	9155.79
633.982	9016.52
634.176	9215.18
634.369	9002.19
634.563	9075.91
634.757	9131.21
634.951	8981.71
635.145	8760.53
635.339	8699.09
635.533	8727.76
635.726	8617.17
635.92	8660.18
636.114	8545.49
636.308	8668.37
636.501	8506.58
636.695	8391.89
636.889	8525.01
637.083	8320.21
637.276	8295.64
637.47	8176.86
637.664	8357.08
637.857	8277.21
638.051	8172.76
638.244	8049.88
638.438	8164.57
638.632	7927
638.825	8053.98
639.019	7953.63
639.212	7785.69
639.406	7900.38
639.599	7812.32
639.793	7744.74
639.986	7642.34
640.18	7984.35
640.373	7619.81
640.567	7550.18
640.76	7646.43
640.954	7427.3
641.147	7232.74
641.34	7478.5
641.534	7537.89
641.727	7302.37
641.92	7343.33
642.114	7302.37
642.307	7247.08
642.5	7175.4
642.694	7255.27
642.887	7132.39
643.08	7034.09
643.273	6980.84
643.467	6980.84
643.66	6837.49
643.853	6845.68
644.046	6853.87
644.239	6974.7
644.432	6714.61
644.626	6677.74
644.819	6704.37
645.012	6679.79
645.205	6649.07
645.398	6599.92
645.591	6524.15
645.784	6651.12
645.977	6335.73
646.17	6452.47
646.363	6552.82
646.556	6126.84
646.749	6391.03
646.942	6233.33
647.135	6292.73
647.328	6237.43
647.521	6323.44
647.714	6089.98
647.907	6255.86
648.099	6229.24
648.292	6235.38
648.485	6065.4
648.678	6044.92
648.871	6051.07
649.064	6061.3
649.256	5956.86
649.449	5997.82
649.642	5797.12
649.835	5813.5
650.027	5764.35
650.22	6038.78
650.413	5782.78
650.605	5913.85
650.798	5758.21
650.991	5723.39
651.183	5760.25
651.376	5727.49
651.568	5711.1
651.761	5573.89
651.954	5444.87
652.146	5623.04
652.339	5704.96
652.531	5534.98
652.724	5524.74
652.916	5436.67
653.109	5412.1
653.301	5369.09
653.494	5436.67
653.686	5272.84
653.879	5332.23
654.071	5381.38
654.263	5305.6
654.456	5317.89
654.648	5246.21
654.84	5113.1
655.033	5143.81
655.225	5283.08
655.417	5104.9
655.61	5047.56
655.802	5129.48
655.994	5106.95
656.186	5035.27
656.379	5129.48
656.571	4936.97
656.763	4977.93
656.955	4967.69
657.148	4934.92
657.34	5016.84
657.532	4934.92
657.724	4805.9
657.916	4746.51
658.108	4900.11
658.3	4844.81
658.492	4803.85
658.684	4707.6
658.876	4678.93
659.068	4756.75
659.26	4683.02
659.452	4715.79
659.644	4728.08
659.836	4984.07
660.028	4676.88
660.22	4404.5
660.412	4650.25
660.604	4711.69
660.796	4650.25
660.988	4625.68
661.18	4592.91
661.372	4576.53
661.563	4523.28
661.755	4480.27
661.947	4590.86
662.139	4551.95
662.331	4496.66
662.522	4314.39
662.714	4486.42
662.906	4478.23
663.097	4467.99
663.289	4381.97
663.481	4295.96
663.673	4539.66
663.864	4371.73
664.056	4396.31
664.247	4281.62
664.439	4367.63
664.631	4293.91
664.822	4394.26
665.014	4285.72
665.205	4166.93
665.397	4312.34
665.588	4142.36
665.78	4252.95
665.971	4164.89
666.163	4207.89
666.354	4168.98
666.546	4308.24
666.737	4326.68
666.929	4326.68
667.12	4152.6
667.311	4121.88
667.503	4162.84
667.694	4336.92
667.885	4150.55
668.077	4195.61
668.268	4271.38
668.459	4134.17
668.651	4175.13
668.842	4134.17
669.033	4240.66
669.224	4119.83
669.416	4379.92
669.607	4187.41
669.798	4125.97
669.989	4105.49
670.18	4150.55
670.371	4230.42
670.563	4168.98
670.754	4255
670.945	4257.04
671.136	4222.23
671.327	4103.45
671.518	4205.85
671.709	4398.35
671.9	4363.54
672.091	4367.63
672.282	4281.62
672.473	4310.29
672.664	4203.8
672.855	4293.91
673.046	4332.82
673.237	4326.68
673.428	4437.27
673.619	4404.5
673.809	4265.24
674	4384.02
674.191	4470.03
674.382	4312.34
674.573	4492.56
674.764	4338.96
674.954	4404.5
675.145	4367.63
675.336	4302.1
675.527	4414.74
675.717	4418.83
675.908	4461.84
676.099	4484.37
676.289	4467.99
676.48	4478.23
676.671	4601.1
676.861	4601.1
677.052	4527.38
677.243	4490.51
677.433	4736.27
677.624	4525.33
677.814	4613.39
678.005	4748.56
678.195	4861.2
678.386	4771.08
678.576	4605.2
678.767	4810
678.957	4818.19
679.148	4773.13
679.338	4986.12
679.529	4824.33
679.719	4879.63
679.909	4951.31
680.1	5000.46
680.29	5025.03
680.481	5022.98
680.671	5025.03
680.861	5018.89
681.052	5117.19
681.242	5043.46
681.432	5129.48
681.622	4961.55
681.813	4949.26
682.003	5147.91
682.193	5149.96
682.383	5209.35
682.573	5170.44
682.764	5074.18
682.954	5293.32
683.144	5215.49
683.334	5178.63
683.524	5207.3
683.714	5227.78
683.904	5242.12
684.094	5264.65
684.284	5199.11
684.474	5387.52
684.664	5166.34
684.854	5301.51
685.044	5342.47
685.234	5326.08
685.424	5299.46
685.614	5190.92
685.804	5215.49
685.994	5289.22
686.184	5317.89
686.374	5109
686.564	5231.88
686.753	5317.89
686.943	5098.76
687.133	5190.92
687.323	5109
687.513	5035.27
687.702	5055.75
687.892	5012.74
688.082	5022.98
688.272	5092.62
688.461	5072.14
688.651	5041.42
688.841	4986.12
689.03	4971.79
689.22	4920.59
689.41	4879.63
689.599	4863.24
689.789	4857.1
689.979	4857.1
690.168	4756.75
690.358	4826.38
690.547	4760.84
690.737	4789.52
690.926	4891.91
691.116	4666.64
691.305	4709.65
691.495	4642.06
691.684	4576.53
691.874	4623.63
692.063	4525.33
692.252	4482.32
692.442	4566.29
692.631	4510.99
692.82	4523.28
693.01	4420.88
693.199	4343.06
693.388	4326.68
693.578	4361.49
693.767	4439.31
693.956	4418.83
694.146	4461.84
694.335	4318.48
694.524	4312.34
694.713	4244.76
694.902	4201.75
695.092	4232.47
695.281	4234.52
695.47	4185.37
695.659	4244.76
695.848	4218.13
696.037	4238.61
696.226	4246.8
696.415	3996.95
696.604	4166.93
696.793	4166.93
696.982	4152.6
697.171	4230.42
697.36	4164.89
697.549	4238.61
697.738	4080.92
697.927	4033.82
698.116	4230.42
698.305	4117.78
698.494	4138.26
698.683	3964.18
698.872	4134.17
699.061	4089.11
699.25	4187.41
699.438	4150.55
699.627	4119.83
699.816	4150.55
700.005	4175.13
700.193	4064.54
700.382	4259.09
700.571	4068.63
700.76	4091.16
700.948	4062.49
701.137	4252.95
701.326	4162.84
701.514	4134.17
701.703	4027.67
701.892	4113.69
702.08	4289.81
702.269	4183.32
702.457	4101.4
702.646	4173.08
702.834	4175.13
703.023	4199.7
703.212	4312.34
703.4	4271.38
703.589	4154.65
703.777	4261.14
703.965	4207.89
704.154	4255
704.342	4293.91
704.531	4236.56
704.719	4285.72
704.907	4402.45
705.096	4291.86
705.284	4240.66
705.472	4412.69
705.661	4310.29
705.849	4484.37
706.037	4529.42
706.226	4386.07
706.414	4281.62
706.602	4371.73
706.79	4453.65
706.979	4390.16
707.167	4412.69
707.355	4402.45
707.543	4558.1
707.731	4513.04
707.919	4508.94
708.107	4435.22
708.296	4429.07
708.484	4592.91
708.672	4605.2
708.86	4617.49
709.048	4527.38
709.236	4513.04
709.424	4773.13
709.612	4445.46
709.8	4705.55
709.988	4754.7
710.176	4703.5
710.364	4633.87
710.551	4674.83
710.739	4769.04
710.927	4769.04
711.115	4736.27
711.303	4906.25
711.491	4683.02
711.679	4861.2
711.866	4795.66
712.054	4963.59
712.242	4896.01
712.43	4934.92
712.617	4781.32
712.805	4844.81
712.993	4934.92
713.181	4975.88
713.368	4932.87
713.556	4982.03
713.744	4746.51
713.931	5000.46
714.119	5061.9
714.306	5129.48
714.494	5186.82
714.682	5010.7
714.869	4947.21
715.057	5215.49
715.244	5113.1
715.432	5188.87
715.619	5211.4
715.807	5317.89
715.994	5154.05
716.182	5328.13
716.369	5270.79
716.556	5301.51
716.744	5197.06
716.931	5377.28
717.119	5432.58
717.306	5410.05
717.493	5473.54
717.681	5414.15
717.868	5547.26
718.055	5377.28
718.242	5385.48
718.43	5610.75
718.617	5543.17
718.804	5647.62
718.991	5551.36
719.179	5537.02
719.366	5719.29
719.553	5727.49
719.74	5704.96
719.927	5532.93
720.114	5719.29
720.301	5686.53
720.488	5713.15
720.676	5709.05
720.863	5793.02
721.05	5803.26
721.237	5682.43
721.424	5854.46
721.611	5608.7
721.798	5903.61
721.985	5670.14
722.172	5780.73
722.358	5915.9
722.545	6098.17
722.732	5932.28
722.919	6055.16
723.106	5938.43
723.293	5948.67
723.48	5901.56
723.667	6051.07
723.853	5950.71
724.04	6130.94
724.227	6069.5
724.414	6100.22
724.6	6030.59
724.787	6204.66
724.974	6038.78
725.161	6032.63
725.347	6149.37
725.534	6212.85
725.72	6276.34
725.907	6186.23
726.094	6169.85
726.28	6214.9
726.467	6016.25
726.653	6276.34
726.84	6321.4
727.027	6333.68
727.213	6169.85
727.4	6305.01
727.586	6384.88
727.773	6259.96
727.959	6401.27
728.145	6337.78
728.332	6313.2
728.518	6409.46
728.705	6407.41
728.891	6325.49
729.077	6407.41
729.264	6362.36
729.45	6505.71
729.636	6493.43
729.823	6573.3
730.009	6470.9
730.195	6329.59
730.382	6485.23
730.568	6642.93
730.754	6558.96
730.94	6624.5
731.126	6509.81
731.313	6747.37
731.499	6442.23
731.685	6499.57
731.871	6644.98
732.057	6595.82
732.243	6669.55
732.429	6534.39
732.615	6743.28
732.801	6630.64
732.987	6501.62
733.173	6606.06
733.359	6743.28
733.545	6728.94
733.731	6724.85
733.917	6700.27
734.103	6599.92
734.289	6569.2
734.475	6724.85
734.661	6837.49
734.847	6714.61
735.033	6747.37
735.219	6771.95
735.404	6739.18
735.59	6577.39
735.776	6604.02
735.962	6851.82
736.148	6644.98
736.333	6831.34
736.519	6681.84
736.705	6702.32
736.89	6708.46
737.076	6868.2
737.262	6601.97
737.447	6614.26
737.633	6577.39
737.819	6644.98
738.004	6702.32
738.19	6679.79
738.375	6479.09
738.561	6778.09
738.747	6604.02
738.932	6501.62
739.118	6730.99
739.303	6690.03
739.489	6563.06
739.674	6663.41
739.859	6499.57
740.045	6679.79
740.23	6497.52
740.416	6464.75
740.601	6526.19
740.786	6626.54
740.972	6474.99
741.157	6456.56
741.342	6452.47
741.528	6380.79
741.713	6403.32
741.898	6395.12
742.084	6243.57
742.269	6362.36
742.454	6573.3
742.639	6325.49
742.824	6241.53
743.01	6354.16
743.195	6577.39
743.38	6243.57
743.565	6210.81
743.75	6352.12
743.935	6251.77
744.12	6139.13
744.305	6061.3
744.49	6180.09
744.675	5991.67
744.86	6040.83
745.045	5981.43
745.23	6046.97
745.415	5936.38
745.6	5971.19
745.785	5922.04
745.97	6008.06
746.155	5846.27
746.34	5786.88
746.525	5815.55
746.71	5887.23
746.895	5926.14
747.079	5688.57
747.264	5582.08
747.449	5713.15
747.634	5453.06
747.819	5551.36
748.003	5631.23
748.188	5539.07
748.373	5479.68
748.557	5344.52
748.742	5418.24
748.927	5524.74
749.111	5352.71
749.296	5100.81
749.481	5332.23
749.665	5180.68
749.85	5143.81
750.034	5268.74
750.219	5162.25
750.404	5096.71
750.588	5031.18
750.773	4930.83
750.957	4869.39
751.141	5057.8
751.326	4934.92
751.51	4926.73
751.695	4912.39
751.879	4891.91
752.064	4805.9
752.248	4730.13
752.432	4748.56
752.617	4599.06
752.801	4664.59
752.985	4404.5
753.17	4541.71
753.354	4531.47
753.538	4560.14
753.722	4398.35
753.907	4457.75
754.091	4427.03
754.275	4326.68
754.459	4320.53
754.643	4316.44
754.828	4467.99
755.012	4207.89
755.196	4146.45
755.38	3968.28
755.564	4007.19
755.748	4244.76
755.932	4214.04
756.116	4091.16
756.3	4011.29
756.484	4027.67
756.668	3937.56
756.852	3982.62
757.036	3796.25
757.22	3878.17
757.404	3816.73
757.588	3763.48
757.772	3765.53
757.956	3843.35
758.14	3814.68
758.323	3722.52
758.507	3745.05
758.691	3421.47
758.875	3695.9
759.059	3679.52
759.242	3624.22
759.426	3458.34
759.61	3476.77
759.794	3484.96
759.977	3591.45
760.161	3609.89
760.345	3423.52
760.528	3544.35
760.712	3411.23
760.895	3476.77
761.079	3409.19
761.263	3351.84
761.446	3284.26
761.63	3388.71
761.813	3392.8
761.997	3255.59
762.18	3294.5
762.364	3190.05
762.547	3175.72
762.731	3192.1
762.914	3200.29
763.098	3249.44
763.281	3011.88
763.464	3099.94
763.648	3208.48
763.831	3079.46
764.015	2950.44
764.198	3026.22
764.381	2987.3
764.564	2880.81
764.748	3218.72
764.931	3009.83
765.114	3005.74
765.297	2889
765.481	2874.67
765.664	2895.15
765.847	2739.5
766.03	2843.95
766.213	2850.09
766.397	2815.27
766.58	2725.16
766.763	2872.62
766.946	2829.61
767.129	2782.51
767.312	2794.79
767.495	2753.84
767.678	2708.78
767.861	2645.29
768.044	2618.67
768.227	2661.68
768.41	2663.72
768.593	2719.02
768.776	2594.09
768.959	2645.29
769.142	2526.51
769.324	2551.09
769.507	2577.71
769.69	2549.04
769.873	2569.52
770.056	2397.49
770.239	2516.27
770.421	2493.74
770.604	2411.82
770.787	2454.83
770.97	2405.68
771.152	2495.79
771.335	2428.21
771.518	2401.58
771.7	2370.87
771.883	2469.17
772.066	2268.47
772.248	2176.31
772.431	2362.67
772.613	2297.14
772.796	2295.09
772.978	2094.39
773.161	2286.9
773.343	2256.18
773.526	2186.55
773.708	2194.74
773.891	2110.77
774.073	2190.64
774.256	2069.81
774.438	2176.31
774.621	2118.97
774.803	2184.5
774.985	1944.89
775.168	2069.81
775.35	2116.92
775.532	1977.66
775.715	2010.42
775.897	1922.36
776.079	1953.08
776.261	1928.5
776.444	1985.85
776.626	1873.21
776.808	1869.11
776.99	1797.43
777.173	1856.83
777.355	1807.67
777.537	1756.47
777.719	1770.81
777.901	1750.33
778.083	1807.67
778.265	1733.95
778.447	1770.81
778.629	1735.99
778.811	1705.28
778.993	1621.31
779.175	1869.11
779.357	1725.76
779.539	1660.22
779.721	1723.71
779.903	1754.43
780.085	1627.45
780.267	1717.56
780.449	1537.34
780.631	1557.82
780.812	1598.78
780.994	1606.97
781.176	1547.58
781.358	1594.69
781.54	1402.18
781.721	1492.29
781.903	1518.91
782.085	1533.25
782.267	1482.05
782.448	1418.56
782.63	1445.18
782.812	1344.83
782.993	1506.62
783.175	1428.8
783.357	1447.23
783.538	1297.73
783.72	1289.54
783.901	1230.15
784.083	1293.63
784.264	1275.2
784.446	1277.25
784.627	1226.05
784.809	1291.59
784.99	1320.26
785.172	1234.24
785.353	1146.18
785.535	1191.24
785.716	1185.09
785.897	1142.08
786.079	1172.8
786.26	1131.84
786.441	1158.47
786.623	1164.61
786.804	1078.6
786.985	1135.94
787.167	1125.7
787.348	1099.08
787.529	1103.17
787.71	1101.12
787.891	1011.01
788.073	1072.45
788.254	1037.64
788.435	1203.52
788.616	1076.55
788.797	1029.45
788.978	972.1
789.159	1029.45
789.34	1119.56
789.522	914.76
789.703	980.29
789.884	1017.16
790.065	1058.12
790.246	955.72
790.427	947.53
790.607	1054.02
790.788	970.05
790.969	937.29
791.15	845.13
791.331	908.62
791.512	963.91
791.693	763.21
791.874	869.7
792.054	1037.64
792.235	955.72
792.416	941.38
792.597	873.8
792.778	906.57
792.958	781.64
793.139	787.79
793.32	849.22
793.5	912.71
793.681	832.84
793.862	855.37
794.042	828.74
794.223	765.26
794.404	894.28
794.584	859.46
794.765	865.61
794.945	888.14
795.126	744.78
795.306	836.94
795.487	832.84
795.667	761.16
795.848	841.03
796.028	697.67
796.209	720.2
796.389	806.22
796.57	732.49
796.75	623.95
796.93	767.31
797.111	746.83
797.291	640.33
797.471	742.73
797.652	658.76
797.832	746.83
798.012	679.24
798.192	636.24
798.373	591.18
798.553	660.81
798.733	669
798.913	722.25
799.093	587.08
799.274	744.78
799.454	656.72
799.634	720.2
799.814	636.24
799.994	685.39
800.174	632.14
800.354	605.52
800.534	619.85
800.714	656.72
800.894	582.99
801.074	634.19
801.254	527.69
801.434	628.04
801.614	587.08
801.794	554.32
801.974	1373.5
802.154	578.89
802.334	591.18
802.514	599.37
802.693	562.51
802.873	576.84
803.053	580.94
803.233	564.56
803.413	628.04
803.592	611.66
803.772	546.13
803.952	576.84
804.131	587.08
804.311	525.65
804.491	642.38
804.67	589.13
804.85	460.11
805.03	574.8
805.209	648.52
805.389	550.22
805.568	546.13
805.748	560.46
805.928	437.58
806.107	505.17
806.287	533.84
806.466	474.45
806.646	496.97
806.825	494.93
807.004	501.07
807.184	494.93
807.363	501.07
807.543	437.58
807.722	445.77
807.901	484.69
808.081	501.07
808.26	472.4
808.439	431.44
808.619	537.93
808.798	480.59
808.977	492.88
809.156	554.32
809.336	437.58
809.515	517.45
809.694	496.97
809.873	447.82
810.052	404.82
810.231	431.44
810.411	503.12
810.59	486.73
810.769	480.59
810.948	460.11
811.127	326.99
811.306	429.39
811.485	445.77
811.664	484.69
811.843	478.54
812.022	480.59
812.201	423.25
812.38	427.34
812.559	521.55
812.737	374.1
812.916	386.38
813.095	396.62
813.274	357.71
813.453	380.24
813.632	415.06
813.811	468.3
813.989	324.94
814.168	382.29
814.347	374.1
814.526	347.47
814.704	398.67
814.883	394.58
815.062	345.42
815.24	349.52
815.419	394.58
815.598	355.66
815.776	355.66
815.955	425.29
816.133	353.62
816.312	374.1
816.49	324.94
816.669	298.32
816.847	306.51
817.026	265.55
817.204	355.66
817.383	281.94
817.561	378.19
817.74	339.28
817.918	382.29
818.097	292.18
818.275	415.06
818.453	374.1
818.632	357.71
818.81	259.41
818.988	372.05
819.167	296.27
819.345	329.04
819.523	408.91
819.701	290.13
819.879	402.77
820.058	269.65
820.236	292.18
820.414	333.14
820.592	316.75
820.77	283.99
820.948	273.75
821.127	271.7
821.305	255.31
821.483	271.7
821.661	353.62
821.839	267.6
822.017	298.32
822.195	324.94
822.373	316.75
822.551	292.18
822.729	341.33
822.907	263.51
823.085	294.22
823.262	243.03
823.44	283.99
823.618	302.42
823.796	218.45
823.974	208.21
824.152	263.51
824.329	292.18
824.507	298.32
824.685	292.18
824.863	243.03
825.04	263.51
825.218	238.93
825.396	214.35
825.574	273.75
825.751	202.07
825.929	324.94
826.107	167.25
826.284	249.17
826.462	226.64
826.639	193.87
826.817	218.45
826.994	263.51
827.172	181.59
827.349	249.17
827.527	222.55
827.704	222.55
827.882	118.1
828.059	296.27
828.237	259.41
828.414	200.02
828.591	202.07
828.769	261.46
828.946	193.87
829.124	257.36
829.301	259.41
829.478	228.69
829.655	216.4
829.833	193.87
830.01	161.11
830.187	202.07
830.364	226.64
830.542	283.99
830.719	234.83
830.896	267.6
831.073	210.26
831.25	169.3
831.427	210.26
831.604	202.07
831.782	169.3
831.959	197.97
832.136	134.48
832.313	197.97
832.49	187.73
832.667	161.11
832.844	222.55
833.021	171.35
833.198	183.63
833.374	204.11
833.551	152.92
833.728	103.76
833.905	136.53
834.082	189.78
834.259	193.87
834.436	232.79
834.612	216.4
834.789	261.46
834.966	271.7
835.143	208.21
835.319	99.67
835.496	165.2
835.673	232.79
835.85	132.44
836.026	93.52
836.203	234.83
836.38	161.11
836.556	148.82
836.733	181.59
836.909	193.87
837.086	101.72
837.262	111.96
837.439	234.83
837.616	128.34
837.792	134.48
837.968	126.29
838.145	111.96
838.321	99.67
838.498	128.34
838.674	103.76
838.851	185.68
839.027	159.06
839.203	128.34
839.38	140.63
839.556	167.25
839.732	150.87
839.909	150.87
840.085	111.96
840.261	124.24
840.437	126.29
840.614	144.72
840.79	134.48
840.966	202.07
841.142	120.15
841.318	97.62
841.494	126.29
841.671	185.68
841.847	136.53
842.023	103.76
842.199	150.87
842.375	152.92
842.551	73.04
842.727	87.38
842.903	175.44
843.079	163.15
843.255	193.87
843.431	93.52
843.607	103.76
843.783	21.85
843.959	175.44
844.134	73.04
844.31	89.43
844.486	89.43
844.662	38.23
844.838	52.56
845.013	21.85
845.189	167.25
845.365	62.8
845.541	132.44
845.716	89.43
845.892	154.96
846.068	95.57
846.244	81.24
846.419	79.19
846.595	87.38
846.77	15.7
846.946	126.29
847.122	32.08
847.297	114
847.473	120.15
847.648	-8.87
847.824	52.56
847.999	36.18
848.175	48.47
848.35	165.2
848.526	44.37
848.701	116.05
848.876	118.1
849.052	128.34
849.227	75.09
849.403	111.96
849.578	23.89
849.753	30.04
849.929	111.96
850.104	46.42
850.279	79.19
850.454	66.9
850.63	64.85
850.805	71
850.98	144.72
851.155	142.68
851.33	197.97
851.505	109.91
851.681	128.34
851.856	34.13
852.031	40.28
852.206	107.86
852.381	75.09
852.556	25.94
852.731	38.23
852.906	107.86
853.081	17.75
853.256	68.95
853.431	111.96
853.606	11.61
853.781	101.72
853.956	48.47
854.131	46.42
854.305	-27.31
854.48	38.23
854.655	-29.35
854.83	-37.55
855.005	75.09
855.18	64.85
855.354	77.14
855.529	105.81
855.704	66.9
855.879	46.42
856.053	13.65
856.228	68.95
856.403	-15.02
856.577	103.76
856.752	34.13
856.926	58.71
857.101	68.95
857.276	-45.74
857.45	30.04
857.625	95.57
857.799	7.51
857.974	-15.02
858.148	-80.55
858.323	50.52
858.497	107.86
858.672	58.71
858.846	66.9
859.02	38.23
859.195	40.28
859.369	5.46
859.543	30.04
859.718	34.13
859.892	23.89
860.066	-15.02
860.241	85.33
860.415	-4.78
860.589	40.28
860.763	34.13
860.938	13.65
861.112	66.9
861.286	60.76
861.46	46.42
861.634	25.94
861.808	46.42
861.982	-17.07
862.157	-51.88
862.331	91.48
862.505	-10.92
862.679	50.52
862.853	50.52
863.027	81.24
863.201	68.95
863.375	-60.07
863.549	107.86
863.722	54.61
863.896	71
864.07	-12.97
864.244	13.65
864.418	46.42
864.592	21.85
864.766	-6.83
864.939	79.19
865.113	17.75
865.287	3.41
865.461	36.18
865.634	1.37
865.808	25.94
865.982	42.32
866.156	60.76
866.329	-19.11
866.503	36.18
866.676	60.76
866.85	-53.93
867.024	27.99
867.197	66.9
867.371	66.9
867.544	-23.21
867.718	-43.69
867.891	32.08
868.065	-21.16
868.238	-6.83
868.412	42.32
868.585	89.43
868.759	-10.92
868.932	25.94
869.105	-10.92
869.279	13.65
869.452	-10.92
869.625	36.18
869.799	30.04
869.972	-68.27
870.145	64.85
870.319	-0.68
870.492	-49.83
870.665	-2.73
870.838	-2.73
871.011	-113.32
871.185	-0.68
871.358	-62.12
871.531	30.04
871.704	-72.36
871.877	54.61
872.05	13.65
872.223	5.46
872.396	-62.12
872.569	23.89
872.742	3.41
872.915	3.41
873.088	54.61
873.261	-27.31
873.434	11.61
873.607	58.71
873.78	101.72
873.953	-21.16
874.126	-8.87
874.299	50.52
874.471	71
874.644	34.13
874.817	60.76
874.99	64.85
875.163	-31.4
875.335	58.71
875.508	-4.78
875.681	103.76
875.853	52.56
876.026	-27.31
876.199	44.37
876.371	38.23
876.544	30.04
876.717	36.18
876.889	-47.79
877.062	36.18
877.234	-27.31
877.407	-66.22
877.579	42.32
877.752	5.46
877.924	71
878.097	1.37
878.269	-19.11
878.442	34.13
878.614	15.7
878.786	-2.73
878.959	-21.16
879.131	-23.21
879.303	-84.65
879.476	-37.55
879.648	71
879.82	11.61
879.993	30.04
880.165	-35.5
880.337	-10.92
880.509	27.99
880.681	11.61
880.854	-19.11
881.026	32.08
881.198	120.15
881.37	34.13
881.542	-27.31
881.714	-23.21
881.886	-53.93
882.058	52.56
882.23	11.61
882.402	5.46
882.574	-19.11
882.746	13.65
882.918	27.99
883.09	-39.59
883.262	25.94
883.434	46.42
883.606	66.9
883.778	-29.35
883.95	-23.21
884.122	-64.17
884.293	-15.02
884.465	48.47
884.637	19.8
884.809	46.42
884.98	36.18
885.152	30.04
885.324	-35.5
885.496	-23.21
885.667	-43.69
885.839	-70.31
886.011	48.47
886.182	40.28
886.354	-49.83
886.525	-0.68
886.697	-12.97
886.869	-64.17
887.04	13.65
887.212	30.04
887.383	91.48
887.555	-12.97
887.726	-43.69
887.897	9.56
888.069	13.65
888.24	58.71
888.412	3.41
888.583	40.28
888.754	-23.21
888.926	-51.88
889.097	-6.83
889.268	-78.51
889.44	44.37
889.611	34.13
889.782	-51.88
889.953	46.42
890.125	54.61
890.296	-66.22
890.467	13.65
890.638	-62.12
890.809	58.71
890.98	23.89
891.151	87.38
891.323	-4.78
891.494	-6.83
891.665	9.56
891.836	34.13
892.007	-37.55
892.178	-17.07
892.349	-53.93
892.52	17.75
892.691	17.75
892.862	21.85
893.032	13.65
893.203	75.09
893.374	-6.83
893.545	34.13
893.716	-66.22
893.887	-6.83
894.057	-53.93
894.228	-35.5
894.399	17.75
894.57	44.37
894.74	11.61
894.911	11.61
895.082	-25.26
895.253	-35.5
895.423	23.89
895.594	11.61
895.764	-64.17
895.935	-66.22
896.106	42.32
896.276	-8.87
896.447	-19.11
896.617	-76.46
896.788	-15.02
896.958	-29.35
897.129	1.37
897.299	-4.78
897.47	13.65
897.64	44.37
897.81	-27.31
897.981	42.32
898.151	13.65
898.322	68.95
898.492	-70.31
898.662	17.75
898.832	25.94
899.003	-21.16
899.173	5.46
899.343	-84.65
899.513	-53.93
