Data from USB4F104151__11__11-29-43-917.txt Node

Date: Fri Mar 14 11:29:43 EDT 2025
User: louis
Spectrometer: USB4F10415
Trigger mode: 4
Integration Time (sec): 5.000000E-2
Scans to average: 1
Electric dark correction enabled: true
Nonlinearity correction enabled: false
Boxcar width: 0
XAxis mode: Wavelengths
Number of Pixels in Spectrum: 3648
>>>>>Begin Spectral Data<<<<<
178.204	-164.18
178.424	-164.18
178.644	-164.18
178.864	-168.27
179.084	-155.99
179.304	-16.73
179.524	-20.82
179.744	-69.97
179.964	48.81
180.184	32.43
180.404	-8.53
180.624	-29.01
180.844	-0.34
181.064	-57.68
181.283	89.77
181.503	-12.63
181.723	44.71
181.943	-92.5
182.163	11.95
182.383	-86.36
182.602	9.9
182.822	13.99
183.042	28.33
183.262	5.8
183.482	-18.77
183.701	-18.77
183.921	-24.92
184.141	20.14
184.361	54.95
184.58	-35.16
184.8	-6.49
185.02	-45.4
185.239	79.53
185.459	-24.92
185.679	28.33
185.898	-29.01
186.118	44.71
186.338	24.23
186.557	40.62
186.777	40.62
186.997	-33.11
187.216	-0.34
187.436	54.95
187.655	1.71
187.875	77.48
188.095	-22.87
188.314	34.47
188.534	20.14
188.753	-24.92
188.973	57
189.192	65.19
189.412	-0.34
189.631	16.04
189.851	42.67
190.07	50.86
190.29	38.57
190.509	-16.73
190.729	-20.82
190.948	48.81
191.168	177.83
191.387	-45.4
191.607	-12.63
191.826	54.95
192.045	-22.87
192.265	16.04
192.484	22.19
192.704	54.95
192.923	-47.44
193.142	120.49
193.362	5.8
193.581	63.15
193.8	46.76
194.02	46.76
194.239	48.81
194.458	13.99
194.678	-45.4
194.897	77.48
195.116	-8.53
195.335	38.57
195.555	52.91
195.774	34.47
195.993	-29.01
196.212	50.86
196.432	-20.82
196.651	-0.34
196.87	-35.16
197.089	104.11
197.308	26.28
197.528	-2.39
197.747	-12.63
197.966	-43.35
198.185	11.95
198.404	-6.49
198.623	7.85
198.842	44.71
199.062	42.67
199.281	46.76
199.5	-51.54
199.719	89.77
199.938	81.58
200.157	-14.68
200.376	79.53
200.595	36.52
200.814	-49.49
201.033	3.75
201.252	46.76
201.471	-0.34
201.69	102.06
201.909	48.81
202.128	38.57
202.347	-35.16
202.566	38.57
202.785	-22.87
203.004	7.85
203.223	61.1
203.442	-2.39
203.661	24.23
203.879	71.34
204.098	57
204.317	28.33
204.536	30.38
204.755	22.19
204.974	-2.39
205.193	38.57
205.411	87.72
205.63	13.99
205.849	5.8
206.068	50.86
206.287	-57.68
206.505	-12.63
206.724	11.95
206.943	-82.26
207.162	73.39
207.381	54.95
207.599	-39.25
207.818	61.1
208.037	5.8
208.255	-45.4
208.474	71.34
208.693	-10.58
208.911	-39.25
209.13	-69.97
209.349	16.04
209.567	7.85
209.786	28.33
210.005	24.23
210.223	-0.34
210.442	-76.12
210.661	-2.39
210.879	-20.82
211.098	-22.87
211.316	57
211.535	81.58
211.753	-24.92
211.972	36.52
212.191	-16.73
212.409	-4.44
212.628	24.23
212.846	40.62
213.065	59.05
213.283	138.92
213.502	-18.77
213.72	-18.77
213.938	20.14
214.157	24.23
214.375	104.11
214.594	-29.01
214.812	104.11
215.031	9.9
215.249	-12.63
215.467	32.43
215.686	36.52
215.904	71.34
216.122	3.75
216.341	32.43
216.559	38.57
216.778	-10.58
216.996	7.85
217.214	-33.11
217.432	-12.63
217.651	20.14
217.869	-39.25
218.087	-0.34
218.306	89.77
218.524	50.86
218.742	-4.44
218.96	28.33
219.179	7.85
219.397	9.9
219.615	-16.73
219.833	24.23
220.051	-24.92
220.27	18.09
220.488	16.04
220.706	57
220.924	28.33
221.142	24.23
221.36	28.33
221.578	20.14
221.796	28.33
222.015	-4.44
222.233	1.71
222.451	-12.63
222.669	-29.01
222.887	32.43
223.105	85.67
223.323	40.62
223.541	-57.68
223.759	63.15
223.977	65.19
224.195	32.43
224.413	61.1
224.631	-51.54
224.849	1.71
225.067	100.01
225.285	48.81
225.503	5.8
225.721	-78.16
225.939	13.99
226.157	85.67
226.375	89.77
226.592	-8.53
226.81	-49.49
227.028	7.85
227.246	48.81
227.464	7.85
227.682	-65.88
227.9	7.85
228.117	36.52
228.335	57
228.553	16.04
228.771	-84.31
228.989	-4.44
229.206	5.8
229.424	-16.73
229.642	16.04
229.86	-8.53
230.077	22.19
230.295	-41.3
230.513	61.1
230.731	24.23
230.948	122.54
231.166	108.2
231.384	-51.54
231.601	22.19
231.819	77.48
232.037	-33.11
232.254	36.52
232.472	32.43
232.689	-123.22
232.907	24.23
233.125	54.95
233.342	-37.2
233.56	-35.16
233.777	-2.39
233.995	9.9
234.213	52.91
234.43	87.72
234.648	-59.73
234.865	28.33
235.083	87.72
235.3	-41.3
235.518	-74.07
235.735	57
235.953	-26.96
236.17	7.85
236.388	-8.53
236.605	-0.34
236.822	28.33
237.04	75.43
237.257	32.43
237.475	3.75
237.692	9.9
237.909	22.19
238.127	3.75
238.344	18.09
238.562	34.47
238.779	-10.58
238.996	-37.2
239.214	48.81
239.431	40.62
239.648	-45.4
239.865	32.43
240.083	-20.82
240.3	26.28
240.517	18.09
240.735	-41.3
240.952	63.15
241.169	16.04
241.386	-0.34
241.603	-0.34
241.821	3.75
242.038	-78.16
242.255	30.38
242.472	1.71
242.689	42.67
242.907	112.3
243.124	-78.16
243.341	89.77
243.558	-57.68
243.775	-20.82
243.992	-61.78
244.209	22.19
244.426	97.96
244.643	32.43
244.86	-24.92
245.078	-37.2
245.295	-2.39
245.512	-2.39
245.729	13.99
245.946	40.62
246.163	16.04
246.38	1.71
246.597	48.81
246.814	22.19
247.031	-10.58
247.248	32.43
247.464	-61.78
247.681	18.09
247.898	-82.26
248.115	46.76
248.332	-24.92
248.549	20.14
248.766	63.15
248.983	24.23
249.2	9.9
249.417	28.33
249.633	-86.36
249.85	50.86
250.067	-63.83
250.284	-8.53
250.501	-18.77
250.717	44.71
250.934	-53.59
251.151	-14.68
251.368	44.71
251.585	20.14
251.801	16.04
252.018	-45.4
252.235	-8.53
252.451	40.62
252.668	-18.77
252.885	32.43
253.102	65.19
253.318	16.04
253.535	-20.82
253.752	-2.39
253.968	-35.16
254.185	-24.92
254.401	-94.55
254.618	54.95
254.835	-16.73
255.051	20.14
255.268	38.57
255.484	-16.73
255.701	40.62
255.917	59.05
256.134	-16.73
256.351	-33.11
256.567	-4.44
256.784	-78.16
257	-108.88
257.217	108.2
257.433	30.38
257.65	-43.35
257.866	-35.16
258.082	-61.78
258.299	-8.53
258.515	81.58
258.732	-20.82
258.948	-0.34
259.165	40.62
259.381	-18.77
259.597	-4.44
259.814	3.75
260.03	28.33
260.246	42.67
260.463	79.53
260.679	54.95
260.895	28.33
261.112	85.67
261.328	-18.77
261.544	-39.25
261.761	69.29
261.977	46.76
262.193	11.95
262.409	93.87
262.626	26.28
262.842	-26.96
263.058	11.95
263.274	3.75
263.49	-8.53
263.707	65.19
263.923	-10.58
264.139	-16.73
264.355	30.38
264.571	-4.44
264.787	-4.44
265.004	-78.16
265.22	24.23
265.436	-10.58
265.652	16.04
265.868	65.19
266.084	-22.87
266.3	-43.35
266.516	-18.77
266.732	16.04
266.948	40.62
267.164	24.23
267.38	-59.73
267.596	-8.53
267.812	59.05
268.028	16.04
268.244	93.87
268.46	-16.73
268.676	3.75
268.892	42.67
269.108	20.14
269.324	3.75
269.54	-8.53
269.756	65.19
269.972	-20.82
270.188	-37.2
270.403	26.28
270.619	69.29
270.835	81.58
271.051	-26.96
271.267	-76.12
271.483	34.47
271.698	54.95
271.914	-14.68
272.13	57
272.346	-4.44
272.562	5.8
272.777	110.25
272.993	40.62
273.209	-49.49
273.425	24.23
273.64	-41.3
273.856	-24.92
274.072	18.09
274.287	-20.82
274.503	9.9
274.719	-43.35
274.934	7.85
275.15	-61.78
275.366	-26.96
275.581	-0.34
275.797	114.34
276.012	46.76
276.228	-12.63
276.444	32.43
276.659	65.19
276.875	-41.3
277.09	24.23
277.306	52.91
277.521	36.52
277.737	-0.34
277.952	18.09
278.168	-20.82
278.383	7.85
278.599	67.24
278.814	95.91
279.03	22.19
279.245	13.99
279.461	24.23
279.676	20.14
279.892	81.58
280.107	16.04
280.322	-10.58
280.538	75.43
280.753	-69.97
280.969	-14.68
281.184	32.43
281.399	97.96
281.615	1.71
281.83	11.95
282.045	-31.06
282.26	40.62
282.476	-67.92
282.691	5.8
282.906	-31.06
283.122	26.28
283.337	11.95
283.552	32.43
283.767	-37.2
283.983	63.15
284.198	-16.73
284.413	63.15
284.628	-127.32
284.843	63.15
285.058	85.67
285.274	-0.34
285.489	-29.01
285.704	20.14
285.919	-16.73
286.134	-10.58
286.349	-37.2
286.564	3.75
286.779	-26.96
286.995	9.9
287.21	-80.21
287.425	28.33
287.64	-29.01
287.855	52.91
288.07	36.52
288.285	22.19
288.5	44.71
288.715	-22.87
288.93	-49.49
289.145	7.85
289.36	1.71
289.575	32.43
289.79	24.23
290.004	36.52
290.219	36.52
290.434	-10.58
290.649	-4.44
290.864	18.09
291.079	50.86
291.294	-65.88
291.509	48.81
291.724	-2.39
291.938	22.19
292.153	22.19
292.368	-16.73
292.583	50.86
292.798	7.85
293.012	13.99
293.227	-69.97
293.442	-12.63
293.657	36.52
293.871	61.1
294.086	-35.16
294.301	16.04
294.516	50.86
294.73	1.71
294.945	-8.53
295.16	22.19
295.374	9.9
295.589	11.95
295.804	118.44
296.018	42.67
296.233	40.62
296.447	-16.73
296.662	28.33
296.877	93.87
297.091	38.57
297.306	5.8
297.52	-14.68
297.735	-24.92
297.949	-16.73
298.164	73.39
298.378	11.95
298.593	22.19
298.807	-35.16
299.022	57
299.236	48.81
299.451	65.19
299.665	-2.39
299.88	-0.34
300.094	-16.73
300.309	13.99
300.523	38.57
300.737	-12.63
300.952	122.54
301.166	69.29
301.381	-35.16
301.595	28.33
301.809	7.85
302.024	3.75
302.238	-59.73
302.452	44.71
302.667	-72.02
302.881	48.81
303.095	-20.82
303.309	24.23
303.524	36.52
303.738	44.71
303.952	50.86
304.166	16.04
304.381	-10.58
304.595	145.06
304.809	3.75
305.023	28.33
305.237	1.71
305.452	-76.12
305.666	30.38
305.88	69.29
306.094	-41.3
306.308	-10.58
306.522	36.52
306.736	-8.53
306.95	57
307.164	-14.68
307.379	-76.12
307.593	73.39
307.807	-0.34
308.021	57
308.235	40.62
308.449	-61.78
308.663	57
308.877	11.95
309.091	102.06
309.305	69.29
309.519	-100.69
309.733	44.71
309.947	-16.73
310.161	89.77
310.374	-4.44
310.588	28.33
310.802	-43.35
311.016	-20.82
311.23	54.95
311.444	13.99
311.658	46.76
311.872	32.43
312.085	16.04
312.299	89.77
312.513	13.99
312.727	38.57
312.941	-41.3
313.154	65.19
313.368	18.09
313.582	52.91
313.796	44.71
314.009	38.57
314.223	22.19
314.437	16.04
314.651	-61.78
314.864	59.05
315.078	61.1
315.292	40.62
315.505	3.75
315.719	20.14
315.933	3.75
316.146	-45.4
316.36	-49.49
316.573	28.33
316.787	-80.21
317.001	52.91
317.214	3.75
317.428	91.82
317.641	-51.54
317.855	50.86
318.068	-12.63
318.282	28.33
318.495	118.44
318.709	46.76
318.922	16.04
319.136	57
319.349	138.92
319.563	-49.49
319.776	7.85
319.99	-29.01
320.203	13.99
320.417	-24.92
320.63	30.38
320.843	-26.96
321.057	-10.58
321.27	136.87
321.483	81.58
321.697	7.85
321.91	24.23
322.124	5.8
322.337	42.67
322.55	13.99
322.763	-12.63
322.977	48.81
323.19	48.81
323.403	-53.59
323.617	36.52
323.83	52.91
324.043	-65.88
324.256	40.62
324.469	-26.96
324.683	54.95
324.896	7.85
325.109	87.72
325.322	-86.36
325.535	65.19
325.748	7.85
325.962	7.85
326.175	1.71
326.388	-8.53
326.601	63.15
326.814	97.96
327.027	-8.53
327.24	71.34
327.453	46.76
327.666	24.23
327.879	38.57
328.092	24.23
328.305	36.52
328.518	40.62
328.731	18.09
328.944	3.75
329.157	30.38
329.37	-18.77
329.583	38.57
329.796	13.99
330.009	-35.16
330.222	11.95
330.435	36.52
330.648	30.38
330.861	9.9
331.073	48.81
331.286	-20.82
331.499	-41.3
331.712	16.04
331.925	50.86
332.138	-12.63
332.35	48.81
332.563	13.99
332.776	-24.92
332.989	-18.77
333.202	13.99
333.414	16.04
333.627	-24.92
333.84	-8.53
334.053	-0.34
334.265	3.75
334.478	-20.82
334.691	7.85
334.903	38.57
335.116	-76.12
335.329	-49.49
335.541	28.33
335.754	-0.34
335.966	16.04
336.179	-0.34
336.392	46.76
336.604	16.04
336.817	40.62
337.029	57
337.242	32.43
337.454	7.85
337.667	57
337.88	28.33
338.092	26.28
338.305	46.76
338.517	-22.87
338.729	-10.58
338.942	71.34
339.154	30.38
339.367	-29.01
339.579	-8.53
339.792	-16.73
340.004	30.38
340.217	-29.01
340.429	32.43
340.641	38.57
340.854	13.99
341.066	-43.35
341.278	63.15
341.491	122.54
341.703	102.06
341.915	-20.82
342.128	67.24
342.34	11.95
342.552	40.62
342.764	9.9
342.977	28.33
343.189	24.23
343.401	-78.16
343.613	-18.77
343.826	32.43
344.038	-4.44
344.25	-37.2
344.462	13.99
344.674	16.04
344.886	63.15
345.099	65.19
345.311	69.29
345.523	-0.34
345.735	-20.82
345.947	26.28
346.159	22.19
346.371	30.38
346.583	-18.77
346.795	79.53
347.007	-49.49
347.219	26.28
347.431	61.1
347.643	83.63
347.855	-31.06
348.067	48.81
348.279	-33.11
348.491	-26.96
348.703	16.04
348.915	-16.73
349.127	46.76
349.339	13.99
349.551	38.57
349.763	79.53
349.975	32.43
350.187	-6.49
350.399	89.77
350.61	-37.2
350.822	-49.49
351.034	20.14
351.246	7.85
351.458	71.34
351.669	81.58
351.881	52.91
352.093	-10.58
352.305	130.73
352.517	32.43
352.728	-6.49
352.94	-14.68
353.152	85.67
353.363	-10.58
353.575	65.19
353.787	40.62
353.999	30.38
354.21	87.72
354.422	-24.92
354.633	134.82
354.845	22.19
355.057	-33.11
355.268	32.43
355.48	28.33
355.692	34.47
355.903	38.57
356.115	-51.54
356.326	-57.68
356.538	24.23
356.749	34.47
356.961	118.44
357.172	-12.63
357.384	-8.53
357.595	122.54
357.807	44.71
358.018	-57.68
358.23	95.91
358.441	59.05
358.653	120.49
358.864	18.09
359.075	9.9
359.287	32.43
359.498	120.49
359.709	-2.39
359.921	24.23
360.132	-4.44
360.344	67.24
360.555	-4.44
360.766	128.68
360.977	57
361.189	-24.92
361.4	-82.26
361.611	44.71
361.823	42.67
362.034	65.19
362.245	-18.77
362.456	48.81
362.667	-18.77
362.879	-49.49
363.09	3.75
363.301	67.24
363.512	30.38
363.723	-0.34
363.935	24.23
364.146	7.85
364.357	22.19
364.568	11.95
364.779	24.23
364.99	73.39
365.201	22.19
365.412	122.54
365.623	7.85
365.834	48.81
366.045	65.19
366.256	-12.63
366.467	65.19
366.678	13.99
366.889	77.48
367.1	-22.87
367.311	-49.49
367.522	-33.11
367.733	85.67
367.944	40.62
368.155	-12.63
368.366	69.29
368.577	1.71
368.788	48.81
368.999	-33.11
369.209	3.75
369.42	61.1
369.631	106.15
369.842	-0.34
370.053	61.1
370.264	65.19
370.474	-6.49
370.685	30.38
370.896	-2.39
371.107	97.96
371.317	57
371.528	24.23
371.739	-0.34
371.95	22.19
372.16	20.14
372.371	-33.11
372.582	52.91
372.792	48.81
373.003	67.24
373.214	-4.44
373.424	118.44
373.635	11.95
373.846	9.9
374.056	24.23
374.267	61.1
374.477	38.57
374.688	-8.53
374.898	46.76
375.109	-41.3
375.319	36.52
375.53	147.11
375.74	85.67
375.951	-20.82
376.161	20.14
376.372	40.62
376.582	7.85
376.793	1.71
377.003	-74.07
377.214	32.43
377.424	34.47
377.635	44.71
377.845	32.43
378.055	104.11
378.266	9.9
378.476	97.96
378.686	-0.34
378.897	81.58
379.107	48.81
379.317	18.09
379.528	-57.68
379.738	108.2
379.948	-61.78
380.158	38.57
380.369	95.91
380.579	40.62
380.789	24.23
380.999	83.63
381.21	73.39
381.42	50.86
381.63	5.8
381.84	-16.73
382.05	32.43
382.261	61.1
382.471	63.15
382.681	-16.73
382.891	5.8
383.101	34.47
383.311	-37.2
383.521	40.62
383.731	95.91
383.941	63.15
384.151	108.2
384.361	52.91
384.571	40.62
384.781	46.76
384.991	36.52
385.201	81.58
385.411	13.99
385.621	-8.53
385.831	65.19
386.041	52.91
386.251	-22.87
386.461	44.71
386.671	-41.3
386.881	57
387.091	63.15
387.301	32.43
387.511	28.33
387.72	79.53
387.93	20.14
388.14	63.15
388.35	22.19
388.56	77.48
388.769	-0.34
388.979	57
389.189	40.62
389.399	16.04
389.609	73.39
389.818	71.34
390.028	57
390.238	83.63
390.447	-37.2
390.657	73.39
390.867	36.52
391.076	7.85
391.286	50.86
391.496	79.53
391.705	38.57
391.915	48.81
392.125	89.77
392.334	57
392.544	61.1
392.753	57
392.963	-24.92
393.172	-24.92
393.382	112.3
393.591	128.68
393.801	7.85
394.01	95.91
394.22	73.39
394.429	32.43
394.639	13.99
394.848	28.33
395.058	1.71
395.267	71.34
395.477	71.34
395.686	71.34
395.895	89.77
396.105	89.77
396.314	28.33
396.524	95.91
396.733	16.04
396.942	97.96
397.152	52.91
397.361	63.15
397.57	83.63
397.78	71.34
397.989	52.91
398.198	122.54
398.407	54.95
398.617	87.72
398.826	106.15
399.035	32.43
399.244	71.34
399.453	143.02
399.663	93.87
399.872	54.95
400.081	87.72
400.29	175.78
400.499	95.91
400.708	132.78
400.917	132.78
401.127	67.24
401.336	171.69
401.545	147.11
401.754	173.74
401.963	155.3
402.172	157.35
402.381	91.82
402.59	91.82
402.799	104.11
403.008	102.06
403.217	32.43
403.426	124.58
403.635	188.07
403.844	114.34
404.053	126.63
404.262	124.58
404.471	224.94
404.68	143.02
404.888	87.72
405.097	122.54
405.306	128.68
405.515	163.5
405.724	134.82
405.933	179.88
406.142	104.11
406.35	188.07
406.559	224.94
406.768	218.79
406.977	245.41
407.185	216.74
407.394	278.18
407.603	114.34
407.812	282.28
408.02	292.52
408.229	233.13
408.438	216.74
408.646	177.83
408.855	302.76
409.064	274.09
409.272	288.42
409.481	296.61
409.69	292.52
409.898	231.08
410.107	265.89
410.315	331.43
410.524	376.48
410.733	335.53
410.941	392.87
411.15	442.02
411.358	368.29
411.567	482.98
411.775	335.53
411.984	374.44
412.192	442.02
412.401	390.82
412.609	470.69
412.818	515.75
413.026	564.9
413.234	616.1
413.443	454.31
413.651	554.66
413.86	620.19
414.068	648.86
414.276	614.05
414.485	657.06
414.693	710.3
414.901	769.69
415.11	687.78
415.318	728.74
415.526	700.06
415.734	761.5
415.943	831.13
416.151	880.29
416.359	872.09
416.567	949.92
416.776	1015.45
416.984	999.07
417.192	1048.22
417.4	1064.6
417.608	1126.04
417.817	1138.33
418.025	1210.01
418.233	1232.54
418.441	1234.58
418.649	1375.89
418.857	1410.71
419.065	1496.72
419.273	1359.51
419.481	1506.96
419.689	1531.54
419.897	1502.87
420.105	1625.75
420.313	1646.23
420.521	1791.63
420.729	1896.08
420.937	1744.53
421.145	1830.54
421.353	1932.94
421.561	2119.31
421.769	2070.16
421.977	2291.34
422.185	2158.22
422.393	2315.91
422.601	2518.66
422.809	2528.9
423.017	2346.63
423.224	2588.29
423.432	2719.36
423.64	2743.94
423.848	2940.54
424.056	2834.05
424.263	3098.24
424.471	3065.47
424.679	3202.68
424.887	3346.04
425.094	3384.95
425.302	3358.33
425.51	3636.85
425.718	3602.04
425.925	3837.55
426.133	4030.06
426.341	4148.84
426.548	4322.92
426.756	4357.74
426.964	4343.4
427.171	4576.87
427.379	4748.9
427.586	4812.39
427.794	4943.46
428.001	5162.59
428.209	5389.91
428.417	5293.66
428.624	5756.5
428.832	5910.1
429.039	5717.59
429.247	5703.25
429.454	6311.5
429.662	6678.08
429.869	6245.96
430.076	6659.65
430.284	6641.22
430.491	6725.19
430.699	7147.07
430.906	7255.61
431.114	7261.76
431.321	7519.8
431.528	7740.98
431.736	8085.04
431.943	8543.78
432.15	8287.79
432.358	8314.41
432.565	8975.91
432.772	8797.73
432.979	9221.66
433.187	9598.49
433.394	9475.61
433.601	10141.2
433.808	10055.19
434.016	10124.82
434.223	10432.01
434.43	11048.45
434.637	11140.61
434.844	11574.78
435.052	11894.26
435.259	11658.74
435.466	12066.29
435.673	11847.16
435.88	12643.82
436.087	13282.78
436.294	13039.08
436.501	12762.6
436.708	13071.84
436.915	13706.71
437.122	14288.34
437.329	14204.37
437.537	14794.18
437.743	14816.71
437.95	14671.31
438.157	15519.17
438.364	15922.62
438.571	15900.09
438.778	16047.54
438.985	17714.59
439.192	17186.21
439.399	17477.02
439.606	17268.13
439.813	18367.89
440.02	19230.09
440.227	19025.29
440.433	18929.03
440.64	19318.15
440.847	19428.74
441.054	19740.03
441.261	20917.61
441.467	20770.16
441.674	20929.9
441.881	21912.92
442.088	21679.46
442.294	21644.64
442.501	21996.89
442.708	22934.86
442.914	23467.33
443.121	24403.25
443.328	23876.93
443.534	25572.64
443.741	24954.16
443.948	24550.71
444.154	26387.74
444.361	26223.9
444.568	26449.18
444.774	26121.5
444.981	26776.85
445.187	27532.55
445.394	28546.3
445.6	28478.71
445.807	31349.96
446.013	29938.91
446.22	30225.63
446.426	31560.91
446.633	31732.93
446.839	32990.39
447.046	31306.96
447.252	33109.17
447.459	33301.68
447.665	33277.1
447.871	34583.71
448.078	35779.72
448.284	34317.47
448.491	35239.06
448.697	36433.02
448.903	36963.45
449.11	37213.3
449.316	36451.45
449.522	37223.54
449.728	38325.35
449.935	38519.9
450.141	38407.26
450.347	39285.84
450.553	38020.2
450.76	38624.35
450.966	39760.97
451.172	39765.07
451.378	40270.92
451.584	39662.67
451.791	40612.93
451.997	40424.51
452.203	40539.2
452.409	40629.31
452.615	40606.78
452.821	39619.66
453.027	38761.56
453.233	40502.34
453.44	38949.98
453.646	39285.84
453.852	39920.71
454.058	39996.49
454.264	38859.87
454.47	39724.11
454.676	38794.33
454.882	40113.22
455.088	36744.31
455.294	36902.01
455.5	37852.27
455.705	38169.7
455.911	36678.78
456.117	35693.71
456.323	35361.94
456.529	33055.92
456.735	34708.63
456.941	33670.31
457.147	33203.38
457.352	32376
457.558	31696.07
457.764	32173.25
457.97	31407.31
458.176	30237.92
458.381	30405.85
458.587	28773.62
458.793	28820.72
458.999	27862.27
459.204	29381.87
459.41	28583.16
459.616	26817.81
459.821	26520.85
460.027	26696.98
460.233	26084.64
460.438	24689.97
460.644	25343.27
460.85	23995.71
461.055	23645.51
461.261	23725.38
461.466	21929.31
461.672	20915.56
461.878	22715.73
462.083	21321.06
462.289	20612.46
462.494	20551.03
462.7	19834.24
462.905	19275.14
463.111	19520.9
463.316	19570.05
463.522	19352.96
463.727	19459.46
463.932	19340.68
464.138	19074.44
464.343	19551.62
464.549	18890.12
464.754	19430.79
464.959	19490.18
465.165	19264.9
465.37	18417.04
465.575	17847.71
465.781	18269.59
465.986	18468.24
466.191	17984.92
466.397	17526.18
466.602	16610.73
466.807	17401.25
467.012	17352.1
467.218	17315.23
467.423	17339.81
467.628	17038.76
467.833	17991.06
468.038	17124.77
468.244	16649.64
468.449	17440.16
468.654	16510.38
468.859	16739.76
469.064	16545.2
469.269	15715.77
469.474	15959.48
469.679	16137.65
469.885	15752.63
470.09	16049.59
470.295	16006.58
470.5	15607.23
470.705	15795.64
470.91	15246.79
471.115	15269.31
471.32	15191.49
471.525	15416.77
471.73	14962.12
471.935	14882.25
472.139	14079.44
472.344	14507.47
472.549	14511.57
472.754	14067.16
472.959	14061.01
473.164	13772.25
473.369	13454.81
473.574	13909.46
473.778	13745.62
473.983	13680.09
474.188	13499.87
474.393	13127.14
474.598	13164
474.802	12774.89
475.007	12819.94
475.212	12957.16
475.417	12453.36
475.621	12334.57
475.826	12228.08
476.031	12400.11
476.235	11970.04
476.44	12092.91
476.645	11873.78
476.849	11789.81
477.054	11654.65
477.259	11578.87
477.463	11451.9
477.668	11251.2
477.872	11585.02
478.077	11263.49
478.282	10999.3
478.486	11132.42
478.691	10829.32
478.895	10747.4
479.1	10851.85
479.304	10857.99
479.509	10288.65
479.713	10681.86
479.918	10475.02
480.122	10188.3
480.326	10409.48
480.531	10169.87
480.735	10251.79
480.94	10145.3
481.144	10487.31
481.348	9979.41
481.553	10106.38
481.757	9920.02
481.961	9993.75
482.166	10167.82
482.37	10018.32
482.574	9993.75
482.778	10104.34
482.983	10155.54
483.187	10042.9
483.391	9989.65
483.595	10026.51
483.8	9690.65
484.004	9864.72
484.208	9864.72
484.412	9772.57
484.616	9866.77
484.821	10141.2
485.025	9862.68
485.229	9977.36
485.433	9887.25
485.637	10173.97
485.841	9743.89
486.045	9924.12
486.249	9899.54
486.453	9805.33
486.657	9960.98
486.861	10061.33
487.065	9881.11
487.269	9756.18
487.473	9854.48
487.677	10051.09
487.881	10128.91
488.085	9942.55
488.289	10030.61
488.493	9965.07
488.697	9928.21
488.901	9952.79
489.105	9874.96
489.309	9850.39
489.512	10071.57
489.716	9967.12
489.92	9987.6
490.124	9991.7
490.328	10233.36
490.531	10169.87
490.735	10214.93
490.939	10145.3
491.143	10114.58
491.346	10110.48
491.55	10509.83
491.754	9997.84
491.958	10452.49
492.161	10393.1
492.365	10362.38
492.569	10298.89
492.772	10368.52
492.976	10507.79
493.18	10759.69
493.383	10888.71
493.587	10767.88
493.79	10894.85
493.994	10925.57
494.197	10798.6
494.401	11023.87
494.605	10921.48
494.808	11189.76
495.012	11140.61
495.215	11296.25
495.419	11562.49
495.622	11288.06
495.825	11476.48
496.029	11437.56
496.232	11755
496.436	11828.73
496.639	12006.9
496.843	11869.69
497.046	12244.46
497.249	12252.66
497.453	12482.03
497.656	12430.83
497.859	12729.83
498.063	12623.34
498.266	13147.62
498.469	13073.89
498.673	12991.97
498.876	13317.6
499.079	13301.22
499.282	13579.74
499.485	13917.65
499.689	13714.91
499.892	13962.71
500.095	13942.23
500.298	14276.05
500.501	14396.88
500.705	14808.52
500.908	14876.1
501.111	14898.63
501.314	15019.46
501.517	15318.46
501.72	15388.1
501.923	15424.96
502.126	15617.47
502.329	15820.22
502.532	15984.05
502.735	16117.17
502.938	16303.54
503.141	16502.19
503.344	16829.87
503.547	16940.46
503.75	17087.91
503.953	17450.4
504.156	17526.18
504.359	17550.75
504.562	17560.99
504.765	18163.09
504.968	18271.64
505.17	18417.04
505.373	18670.99
505.576	18767.24
505.779	18963.85
505.982	19303.81
506.185	19617.15
506.387	19547.52
506.59	19672.45
506.793	20110.71
506.996	20049.27
507.198	20759.92
507.401	20376.95
507.604	20852.08
507.807	21425.51
508.009	21316.97
508.212	21554.53
508.415	21833.05
508.617	22035.8
508.82	22046.04
509.022	22230.36
509.225	22873.42
509.428	22814.03
509.63	23158.09
509.833	23260.49
510.035	23872.83
510.238	23532.87
510.44	23823.68
510.643	24223.03
510.845	24677.68
511.048	24239.42
511.25	24724.79
511.453	24900.91
511.655	25980.19
511.858	25832.74
512.06	25916.7
512.262	26131.74
512.465	26088.73
512.667	26561.81
512.87	27006.22
513.072	26965.26
513.274	27188.49
513.477	27667.72
513.679	27911.42
513.881	28544.25
514.084	28771.57
514.286	28617.97
514.488	28644.6
514.69	29590.76
514.893	29826.28
515.095	29719.78
515.297	29983.97
515.499	30303.45
515.701	30561.5
515.904	31450.31
516.106	31370.44
516.308	31605.96
516.51	31825.09
516.712	32183.49
516.914	32431.29
517.116	32965.81
517.318	33027.25
517.52	33182.9
517.722	33651.88
517.925	34055.33
518.127	34317.47
518.329	34630.81
518.531	34718.87
518.733	35437.71
518.935	35972.23
519.136	35394.7
519.338	36222.08
519.54	36519.04
519.742	36697.21
519.944	36963.45
520.146	37461.1
520.348	37868.65
520.55	38100.07
520.752	37987.43
520.954	39205.97
521.155	38767.71
521.357	39455.82
521.559	39617.61
521.761	40150.09
521.963	40498.24
522.164	40657.98
522.366	40985.66
522.568	41448.5
522.77	41536.56
522.971	42404.9
523.173	41995.31
523.375	41937.96
523.576	42501.15
523.778	42871.84
523.98	43568.15
524.181	43789.33
524.383	43602.96
524.584	44295.17
524.786	44311.56
524.988	44655.62
525.189	44958.72
525.391	45263.86
525.592	45581.3
525.794	46142.44
525.995	46238.7
526.197	46044.14
526.398	46605.28
526.6	46676.96
526.801	47025.12
527.003	47375.32
527.204	47270.87
527.406	47692.75
527.607	47940.56
527.808	48374.73
528.01	47623.12
528.211	48018.38
528.412	49036.22
528.614	48716.74
528.815	48702.4
529.016	49484.73
529.218	48571.33
529.419	49075.13
529.62	49826.74
529.822	49398.71
530.023	49507.26
530.224	49867.7
530.425	50375.59
530.626	49906.61
530.828	50088.88
531.029	51014.56
531.23	50566.06
531.431	50537.38
531.632	50852.77
531.833	51438.49
532.035	50809.76
532.236	50852.77
532.437	51497.88
532.638	51243.93
532.839	50928.55
533.04	51921.81
533.241	51065.76
533.442	52087.7
533.643	51760.02
533.844	51602.33
534.045	52056.98
534.246	51774.36
534.447	52202.38
534.648	52030.35
534.849	52249.49
535.05	52161.42
535.251	52265.87
535.451	52038.54
535.652	52566.92
535.853	52312.97
536.054	52544.39
536.255	52366.22
536.456	52046.74
536.657	53113.73
536.857	51905.43
537.058	52517.77
537.259	53224.32
537.46	52632.46
537.66	52595.59
537.861	52409.23
538.062	52413.32
538.263	52751.24
538.463	52503.43
538.664	52130.7
538.865	52919.17
539.065	52718.47
539.266	52186
539.466	52769.67
539.667	51913.62
539.868	52558.73
540.068	52536.2
540.269	52685.7
540.469	52364.17
540.67	52378.51
540.87	52777.86
541.071	53169.02
541.271	52652.94
541.472	52745.09
541.672	52351.88
541.873	52405.13
542.073	52192.14
542.274	53060.48
542.474	52302.73
542.675	52202.38
542.875	53085.06
543.075	52654.98
543.276	51704.73
543.476	53011.33
543.676	52544.39
543.877	52915.08
544.077	52880.26
544.277	52741
544.478	52175.76
544.678	52716.42
544.878	52300.68
545.078	52958.08
545.279	52753.29
545.479	52013.97
545.679	52700.04
545.879	52534.15
546.079	52476.81
546.28	52112.27
546.48	52433.8
546.68	53177.22
546.88	52206.48
547.08	52491.15
547.28	52667.27
547.48	52134.8
547.68	52589.45
547.88	52220.81
548.081	52675.46
548.281	52392.84
548.481	52513.67
548.681	52753.29
548.881	52370.32
549.081	51948.43
549.28	52077.46
549.48	52462.47
549.68	52278.16
549.88	52988.8
550.08	52091.79
550.28	52618.12
550.48	52142.99
550.68	52650.89
550.88	51946.39
551.08	52093.84
551.279	52179.85
551.479	52130.7
551.679	52192.14
551.879	52153.23
552.079	52233.1
552.278	52265.87
552.478	51962.77
552.678	51655.57
552.878	52355.98
553.077	51848.08
553.277	51598.23
553.477	52548.49
553.676	51839.89
553.876	51708.82
554.076	51751.83
554.275	51778.45
554.475	50963.36
554.674	51735.45
554.874	51192.73
555.074	51389.34
555.273	51504.02
555.473	51391.39
555.672	50873.25
555.872	51143.58
556.071	51194.78
556.271	51303.32
556.47	50807.72
556.67	50871.2
556.869	50996.13
557.068	51200.93
557.268	50541.48
557.467	51180.45
557.667	50594.73
557.866	50770.85
558.065	50764.71
558.265	50115.5
558.464	49996.72
558.663	50443.18
558.863	49656.76
559.062	50621.35
559.261	50080.69
559.461	50295.72
559.66	49454.01
559.859	49865.65
560.058	49357.75
560.258	49828.79
560.457	48923.58
560.656	49515.45
560.855	49271.74
561.054	49187.77
561.253	48597.96
561.453	49046.46
561.652	49093.57
561.851	48944.06
562.05	48638.92
562.249	48102.35
562.448	48917.44
562.647	48432.07
562.846	48520.13
563.045	47999.95
563.244	47821.78
563.443	48227.27
563.642	47248.35
563.841	47969.23
564.04	47166.43
564.239	47641.56
564.438	47098.84
564.637	47440.85
564.836	47391.7
565.035	46578.66
565.234	47240.15
565.432	46631.91
565.631	46334.95
565.83	46703.59
566.029	46285.8
566.228	45968.37
566.427	45702.13
566.625	46050.28
566.824	44995.58
567.023	45716.47
567.222	44864.51
567.42	45294.58
567.619	45292.54
567.818	44944.38
568.016	45020.16
568.215	45255.67
568.414	44663.81
568.612	44911.61
568.811	43961.36
569.01	44098.57
569.208	43795.47
569.407	44022.79
569.605	43500.56
569.804	43916.3
570.002	43136.02
570.201	43672.59
570.4	42806.3
570.598	42619.94
570.797	42388.52
570.995	42796.06
571.193	41929.77
571.392	42730.53
571.59	41831.47
571.789	42032.17
571.987	41731.12
572.186	41833.52
572.384	41815.08
572.582	41419.83
572.781	42093.61
572.979	40668.22
573.177	41118.78
573.376	41251.89
573.574	40559.68
573.772	40901.69
573.971	40281.16
574.169	40266.82
574.367	40361.03
574.565	40469.57
574.763	39756.88
574.962	39609.42
575.16	39445.58
575.358	39623.76
575.556	39294.04
575.754	39507.02
575.952	39033.94
576.151	39267.41
576.349	38624.35
576.547	38636.64
576.745	38872.15
576.943	38710.36
577.141	38382.69
577.339	38638.69
577.537	38249.57
577.735	38165.6
577.933	37768.3
578.131	37991.53
578.329	37258.35
578.527	37387.38
578.725	37637.23
578.923	37633.13
579.121	37002.36
579.319	36992.12
579.516	37489.77
579.714	37198.96
579.912	36904.06
580.11	36791.42
580.308	36697.21
580.506	36449.41
580.704	35984.52
580.901	36099.2
581.099	36283.52
581.297	35501.2
581.495	36119.68
581.692	36365.44
581.89	35466.38
582.088	35495.05
582.285	35292.3
582.483	35617.93
582.681	35452.05
582.878	35173.52
583.076	34997.4
583.274	35294.35
583.471	34479.26
583.669	35095.7
583.866	34196.64
584.064	34579.61
584.262	34067.62
584.459	34333.85
584.657	34170.02
584.854	34079.91
585.052	33875.11
585.249	34176.16
585.447	33887.4
585.644	33262.77
585.841	33414.32
586.039	33705.13
586.236	32996.53
586.434	33457.32
586.631	33359.02
586.828	33086.64
587.026	33152.18
587.223	33133.75
587.42	32709.82
587.618	32496.83
587.815	32160.96
588.012	32421.05
588.21	32486.59
588.407	32519.35
588.604	32027.84
588.801	31818.95
588.999	31691.98
589.196	32132.29
589.393	31724.74
589.59	31675.59
589.787	31646.92
589.984	31386.83
590.182	30862.55
590.379	31599.82
590.576	30819.54
590.773	31063.25
590.97	30866.64
591.167	30694.61
591.364	30588.12
591.561	30377.18
591.758	30498.01
591.955	30391.51
592.152	30655.7
592.349	30063.84
592.546	30227.68
592.743	30330.08
592.94	29799.65
593.137	29996.26
593.334	30229.73
593.531	29646.05
593.727	29992.16
593.924	29562.09
594.121	29156.59
594.318	29510.89
594.515	29080.81
594.712	29238.51
594.908	28996.85
595.105	29373.67
595.302	29043.95
595.499	28998.9
595.696	28921.07
595.892	28321.02
596.089	28675.32
596.286	28333.31
596.482	28497.14
596.679	28030.21
596.876	28566.77
597.072	27974.91
597.269	27976.96
597.466	28005.63
597.662	27589.89
597.859	27745.54
598.055	27632.9
598.252	27483.4
598.448	27667.72
598.645	27591.94
598.841	27321.61
599.038	27292.94
599.234	27186.44
599.431	26717.46
599.627	26875.15
599.824	26815.76
600.02	26660.12
600.217	26803.47
600.413	26791.19
600.609	26531.09
600.806	26467.61
601.002	26205.47
601.198	26656.02
601.395	26244.38
601.591	26340.63
601.787	26176.8
601.984	26111.26
602.18	26170.65
602.376	25527.59
602.572	25568.55
602.769	25511.21
602.965	25500.97
603.161	25238.83
603.357	25136.43
603.553	25060.65
603.75	25158.95
603.946	24583.48
604.142	25046.32
604.338	24769.84
604.534	24995.12
604.73	24616.24
604.926	24728.88
605.122	24610.1
605.318	24563
605.514	24255.8
605.71	24122.68
605.906	24263.99
606.102	24397.11
606.298	24321.34
606.494	24268.09
606.69	23954.75
606.886	24243.51
607.082	23825.73
607.278	23985.47
607.474	23506.24
607.67	24157.5
607.866	23620.93
608.062	23799.1
608.257	23588.16
608.453	23686.47
608.649	23276.87
608.845	22912.33
609.041	23231.82
609.236	23221.58
609.432	23076.17
609.628	23055.69
609.824	22967.63
610.019	22912.33
610.215	22857.04
610.411	22955.34
610.606	22592.85
610.802	22545.75
610.998	22734.16
611.193	22512.98
611.389	22644.05
611.584	22476.12
611.78	22336.85
611.976	22375.77
612.171	22340.95
612.367	22486.36
612.562	22101.34
612.758	21837.15
612.953	21779.81
613.149	22256.98
613.344	21833.05
613.539	22175.06
613.735	21783.9
613.93	21966.17
614.126	21599.59
614.321	21988.7
614.517	21798.24
614.712	21710.18
614.907	21691.74
615.103	21552.48
615.298	21583.2
615.493	21648.74
615.688	21044.59
615.884	21726.56
616.079	21382.5
616.274	21171.56
616.47	21396.84
616.665	21198.18
616.86	21077.35
617.055	20716.91
617.25	20682.1
617.445	20807.02
617.641	20835.69
617.836	20798.83
618.031	20696.43
618.226	20710.77
618.421	20417.91
618.616	20606.32
618.811	20452.72
619.006	20540.79
619.201	20239.73
619.396	20376.95
619.591	19758.46
619.786	20331.89
619.981	19584.38
620.176	20071.8
620.371	19668.35
620.566	19748.22
620.761	19785.08
620.956	19725.69
621.151	19010.95
621.346	19389.83
621.541	19109.26
621.735	19283.33
621.93	19182.98
622.125	19117.45
622.32	18906.51
622.515	18802.06
622.709	18779.53
622.904	18503.06
623.099	18447.76
623.294	18367.89
623.488	18025.88
623.683	18394.51
623.878	18017.69
624.072	18113.94
624.267	17862.04
624.462	17943.96
624.656	17733.02
624.851	17857.95
625.046	17509.79
625.24	17632.67
625.435	17431.97
625.629	17491.36
625.824	17200.55
626.018	17079.72
626.213	16860.59
626.407	16852.39
626.602	16666.03
626.796	16862.63
626.991	16604.59
627.185	16793
627.38	16420.27
627.574	16326.07
627.768	16250.29
627.963	16211.38
628.157	16156.08
628.352	16260.53
628.546	15732.15
628.74	16088.5
628.935	15666.62
629.129	15664.57
629.323	15119.81
629.517	15703.48
629.712	15291.84
629.906	15408.58
630.1	15482.3
630.294	15109.57
630.489	15121.86
630.683	15171.01
630.877	14775.75
631.071	14900.68
631.265	14810.57
631.459	14919.11
631.653	14642.64
631.848	14818.76
632.042	14566.86
632.236	14341.58
632.43	14390.74
632.624	14341.58
632.818	14018
633.012	14138.83
633.206	13923.8
633.4	14034.39
633.594	13901.27
633.788	13802.97
633.982	13741.53
634.176	13702.62
634.369	13415.9
634.563	13442.53
634.757	13331.94
634.951	13463.01
635.145	13221.34
635.339	13346.27
635.533	13086.18
635.726	13313.5
635.92	13059.56
636.114	12811.75
636.308	12879.33
636.501	12838.37
636.695	12838.37
636.889	12592.62
637.083	12637.67
637.276	12522.99
637.47	12473.84
637.664	12402.16
637.857	12500.46
638.051	12211.7
638.244	12092.91
638.438	12082.67
638.632	12334.57
638.825	12240.37
639.019	11986.42
639.212	11720.18
639.406	11978.23
639.599	11673.08
639.793	11967.99
639.986	11316.73
640.18	11640.31
640.373	11529.72
640.567	11523.58
640.76	11277.82
640.954	11300.35
641.147	10954.24
641.34	11200
641.534	11324.93
641.727	11124.22
641.92	11111.94
642.114	10917.38
642.307	10802.69
642.5	10913.28
642.694	10712.58
642.887	10630.66
643.08	10905.09
643.273	10399.24
643.467	10544.65
643.66	10497.55
643.853	10419.72
644.046	10214.93
644.239	10169.87
644.432	10137.1
644.626	10167.82
644.819	9977.36
645.012	10139.15
645.205	9901.59
645.398	9821.72
645.591	9717.27
645.784	9889.3
645.977	9676.31
646.17	9831.96
646.363	9623.06
646.556	9489.95
646.749	9530.91
646.942	9700.89
647.135	9399.84
647.328	9494.04
647.521	9262.62
647.714	9156.13
647.907	9141.79
648.099	9174.56
648.292	9408.03
648.485	9199.13
648.678	8904.23
648.871	8982.05
649.064	8996.39
649.256	8783.4
649.449	8797.73
649.642	8885.8
649.835	8822.31
650.027	8689.19
650.22	8678.95
650.413	8695.33
650.605	8730.15
650.798	8584.74
650.991	8216.11
651.183	8578.6
651.376	8263.21
651.568	8418.86
651.761	8257.07
651.954	8291.88
652.146	8281.64
652.339	8302.12
652.531	8216.11
652.724	8044.08
652.916	7865.91
653.109	8132.14
653.301	8066.61
653.494	8021.55
653.686	7728.69
653.879	8011.31
654.071	7759.41
654.263	7685.69
654.456	7935.54
654.648	7986.74
654.84	7585.33
655.033	7644.73
655.225	7554.62
655.417	7499.32
655.61	7650.87
655.802	7566.9
655.994	7538.23
656.186	7362.11
656.379	7575.1
656.571	7376.44
656.763	7224.89
656.955	7282.24
657.148	7380.54
657.34	7272
657.532	7214.65
657.724	6958.66
657.916	7202.36
658.108	7118.4
658.3	6903.36
658.492	7028.29
658.684	6927.94
658.876	6989.38
659.068	6950.46
659.26	6813.25
659.452	7034.43
659.644	6846.02
659.836	6798.91
660.028	6790.72
660.22	6688.32
660.412	6813.25
660.604	6473.29
660.796	6786.63
660.988	6813.25
661.18	6620.74
661.372	6510.15
661.563	6405.7
661.755	6710.85
661.947	6368.84
662.139	6628.93
662.331	6364.75
662.522	6391.37
662.714	6325.83
662.906	6213.2
663.097	6245.96
663.289	6452.81
663.481	6245.96
663.673	6209.1
663.864	6233.68
664.056	6104.65
664.247	6207.05
664.439	6241.87
664.631	6200.91
664.822	6073.93
665.014	5987.92
665.205	6090.32
665.397	6047.31
665.588	5920.34
665.78	5951.06
665.971	5877.33
666.163	6166.09
666.354	5987.92
666.546	5957.2
666.737	5912.14
666.929	5819.99
667.12	5899.86
667.311	6094.41
667.503	5819.99
667.694	5881.42
667.885	5946.96
668.077	5944.91
668.268	5701.2
668.459	5746.26
668.651	5754.45
668.842	5819.99
669.033	5598.81
669.224	5758.55
669.416	5817.94
669.607	5580.37
669.798	5676.63
669.989	5709.4
670.18	5627.48
670.371	5731.92
670.563	5551.7
670.754	5631.57
670.945	5512.79
671.136	5586.52
671.327	5639.76
671.518	5688.92
671.709	5492.31
671.9	5627.48
672.091	5510.74
672.282	5496.41
672.473	5733.97
672.664	5553.75
672.855	5537.37
673.046	5635.67
673.237	5537.37
673.428	5627.48
673.619	5572.18
673.809	5348.95
674	5639.76
674.191	5557.85
674.382	5459.54
674.573	5420.63
674.764	5559.89
674.954	5805.65
675.145	5449.3
675.336	5461.59
675.527	5690.96
675.717	5629.52
675.908	5432.92
676.099	5623.38
676.289	5396.06
676.48	5400.15
676.671	5537.37
676.861	5600.85
677.052	5576.28
677.243	5512.79
677.433	5502.55
677.624	5641.81
677.814	5422.68
678.005	5430.87
678.195	5604.95
678.386	5572.18
678.576	5580.37
678.767	5717.59
678.957	5652.05
679.148	5832.27
679.338	5545.56
679.529	5721.68
679.719	5652.05
679.909	5754.45
680.1	5756.5
680.29	5801.55
680.481	5746.26
680.671	5668.44
680.861	5799.51
681.052	5621.33
681.242	5557.85
681.432	5774.93
681.622	5897.81
681.813	5846.61
682.003	5719.64
682.193	5676.63
682.383	5852.75
682.573	5977.68
682.764	5709.4
682.954	5971.54
683.144	5891.66
683.334	5848.66
683.524	5858.9
683.714	5758.55
683.904	5809.75
684.094	5869.14
684.284	5758.55
684.474	5840.47
684.664	5946.96
684.854	5774.93
685.044	5789.27
685.234	5727.83
685.424	5693.01
685.614	5686.87
685.804	5889.62
685.994	5750.35
686.184	5807.7
686.374	5768.79
686.564	5723.73
686.753	5746.26
686.943	5570.13
687.133	5654.1
687.323	5717.59
687.513	5723.73
687.702	5615.19
687.892	5568.09
688.082	5664.34
688.272	5611.09
688.461	5545.56
688.651	5611.09
688.841	5453.4
689.03	5607
689.22	5461.59
689.41	5553.75
689.599	5418.58
689.789	5496.41
689.979	5402.2
690.168	5342.81
690.358	5422.68
690.547	5414.49
690.737	5267.03
690.926	5381.72
691.116	5062.24
691.305	5267.03
691.495	5097.05
691.684	5224.03
691.874	5271.13
692.063	5033.57
692.252	5117.53
692.442	5017.18
692.631	4935.26
692.82	4959.84
693.01	4830.82
693.199	4857.44
693.388	4845.15
693.578	5095
693.767	4783.71
693.956	4705.89
694.146	4732.51
694.335	4707.94
694.524	4791.91
694.713	4771.43
694.902	4677.22
695.092	4904.54
695.281	4595.3
695.47	4675.17
695.659	4632.16
695.848	4609.64
696.037	4554.34
696.226	4664.93
696.415	4449.89
696.604	4939.36
696.793	4488.81
696.982	4511.33
697.171	4675.17
697.36	4687.46
697.549	4605.54
697.738	4517.48
697.927	4546.15
698.116	4619.88
698.305	4626.02
698.494	4609.64
698.683	4480.61
698.872	4566.63
699.061	4470.37
699.25	4619.88
699.438	4560.49
699.627	4576.87
699.816	4578.92
700.005	4644.45
700.193	4404.84
700.382	4619.88
700.571	4550.25
700.76	4515.43
700.948	4511.33
701.137	4464.23
701.326	4662.88
701.514	4488.81
701.703	4570.72
701.892	4587.11
702.08	4564.58
702.269	4607.59
702.457	4525.67
702.646	4673.12
702.834	4546.15
703.023	4548.2
703.212	4554.34
703.4	4609.64
703.589	4599.4
703.777	4701.79
703.965	4476.52
704.154	4576.87
704.342	4497
704.531	4693.6
704.719	4544.1
704.907	4810.34
705.096	4619.88
705.284	4562.53
705.472	4683.36
705.661	4750.95
705.849	4650.6
706.037	4574.82
706.226	4628.07
706.414	4540.01
706.602	4634.21
706.79	4742.75
706.979	4738.66
707.167	4902.5
707.355	4705.89
707.543	4804.19
707.731	4779.62
707.919	4707.94
708.107	4783.71
708.296	4636.26
708.484	4765.28
708.672	4714.08
708.86	4787.81
709.048	4681.32
709.236	4773.47
709.424	5011.04
709.612	4861.54
709.8	4769.38
709.988	4752.99
710.176	4953.7
710.364	4974.17
710.551	4986.46
710.739	4888.16
710.927	5029.47
711.115	4978.27
711.303	5019.23
711.491	4935.26
711.679	5054.05
711.866	4968.03
712.054	5015.13
712.242	5025.37
712.43	5095
712.617	5045.85
712.805	5148.25
712.993	5127.77
713.181	5049.95
713.368	5090.91
713.556	5140.06
713.744	4984.41
713.931	5248.6
714.119	5142.11
714.306	5146.2
714.494	5197.4
714.682	5217.88
714.869	5135.96
715.057	5242.46
715.244	5234.27
715.432	5289.56
715.619	5191.26
715.807	5330.52
715.994	5269.08
716.182	5256.79
716.369	5404.25
716.556	5402.2
716.744	5297.75
716.931	5334.62
717.119	5496.41
717.306	5402.2
717.493	5328.47
717.681	5447.26
717.868	5387.86
718.055	5467.74
718.242	5396.06
718.43	5502.55
718.617	5607
718.804	5617.24
718.991	5512.79
719.179	5551.7
719.366	5578.33
719.553	5520.98
719.74	5566.04
719.927	5750.35
720.114	5477.98
720.301	5594.71
720.488	5418.58
720.676	5815.89
720.863	5758.55
721.05	5791.31
721.237	5693.01
721.424	5676.63
721.611	5797.46
721.798	5721.68
721.985	5668.44
722.172	5633.62
722.358	5723.73
722.545	5756.5
722.732	5854.8
722.919	5717.59
723.106	5854.8
723.293	5936.72
723.48	5887.57
723.667	5807.7
723.853	5647.96
724.04	5955.15
724.227	5875.28
724.414	5869.14
724.6	5973.58
724.787	5926.48
724.974	6032.97
725.161	5830.23
725.347	5860.95
725.534	5910.1
725.72	6004.3
725.907	5799.51
726.094	5891.66
726.28	5983.82
726.467	6020.69
726.653	6020.69
726.84	5953.1
727.027	6112.85
727.213	6100.56
727.4	6086.22
727.586	6082.13
727.773	6162
727.959	6037.07
728.145	6157.9
728.332	6096.46
728.518	5903.95
728.705	6205
728.891	6080.08
729.077	6239.82
729.264	6129.23
729.45	6323.79
729.636	6188.62
729.823	6143.56
730.009	6268.49
730.195	6274.63
730.382	6215.24
730.568	6198.86
730.754	6352.46
730.94	6237.77
731.126	6356.55
731.313	6381.13
731.499	6209.1
731.685	6178.38
731.871	6233.68
732.057	6221.39
732.243	6268.49
732.429	6299.21
732.615	6213.2
732.801	6422.09
732.987	6293.07
733.173	6315.59
733.359	6399.56
733.545	6354.51
733.731	6237.77
733.917	6233.68
734.103	6477.38
734.289	6399.56
734.475	6356.55
734.661	6432.33
734.847	6219.34
735.033	6403.66
735.219	6313.55
735.404	6481.48
735.59	6362.7
735.776	6311.5
735.962	6346.31
736.148	6493.77
736.333	6350.41
736.519	6350.41
736.705	6465.1
736.89	6340.17
737.076	6278.73
737.262	6297.16
737.447	6346.31
737.633	6301.26
737.819	6305.35
738.004	6143.56
738.19	6088.27
738.375	6264.4
738.561	6243.92
738.747	6276.68
738.932	6102.61
739.118	6250.06
739.303	6235.72
739.489	6248.01
739.674	6311.5
739.859	6059.6
740.045	6125.13
740.23	6090.32
740.416	6098.51
740.601	6061.65
740.786	6139.47
740.972	6098.51
741.157	6110.8
741.342	6037.07
741.528	6182.48
741.713	5994.06
741.898	5967.44
742.084	5891.66
742.269	6110.8
742.454	5987.92
742.639	5977.68
742.824	5985.87
743.01	5942.86
743.195	5903.95
743.38	5977.68
743.565	5799.51
743.75	6012.49
743.935	5652.05
744.12	5834.32
744.305	5776.98
744.49	5758.55
744.675	5670.48
744.86	5693.01
745.045	5596.76
745.23	5787.22
745.415	5582.42
745.6	5619.28
745.785	5486.17
745.97	5658.2
746.155	5447.26
746.34	5455.45
746.525	5373.53
746.71	5555.8
746.895	5357.14
747.079	5406.3
747.264	5281.37
747.449	5326.43
747.634	5305.95
747.819	5314.14
748.003	5170.78
748.188	5189.21
748.373	5203.55
748.557	5103.2
748.742	5004.89
748.927	5105.24
749.111	4955.74
749.296	5004.89
749.481	4785.76
749.665	4978.27
749.85	4824.67
750.034	4830.82
750.219	4810.34
750.404	4922.98
750.588	4707.94
750.773	4634.21
750.957	4732.51
751.141	4714.08
751.326	4595.3
751.51	4650.6
751.695	4509.29
751.879	4648.55
752.064	4492.9
752.248	4447.85
752.432	4392.55
752.617	4443.75
752.801	4359.78
752.985	4398.7
753.17	4372.07
753.354	4288.11
753.538	4148.84
753.722	4066.92
753.907	4005.49
754.091	4204.14
754.275	4195.95
754.459	4079.21
754.643	3915.37
754.828	3939.95
755.012	3939.95
755.196	3964.53
755.38	3976.81
755.564	3915.37
755.748	3950.19
755.932	3765.87
756.116	3808.88
756.3	3700.34
756.484	3710.58
756.668	3708.53
756.852	3628.66
757.036	3749.49
757.22	3618.42
757.404	3632.76
757.588	3581.56
757.772	3626.61
757.956	3468.92
758.14	3432.05
758.323	3346.04
758.507	3464.82
758.691	3389.05
758.875	3577.46
759.059	3532.4
759.242	3456.63
759.426	3417.72
759.61	3341.94
759.794	3440.25
759.977	3341.94
760.161	3274.36
760.345	3251.83
760.528	3141.24
760.712	3194.49
760.895	3143.29
761.079	3184.25
761.263	3061.37
761.446	3057.28
761.63	3137.15
761.813	3047.04
761.997	3102.33
762.18	3055.23
762.364	2940.54
762.547	3036.8
762.731	2889.34
762.914	2903.68
763.098	2915.97
763.281	2983.55
763.464	3014.27
763.648	2956.93
763.831	2895.49
764.015	2696.83
764.198	2915.97
764.381	2784.9
764.564	2764.42
764.748	2797.18
764.931	2780.8
765.114	2754.18
765.297	2784.9
765.481	2760.32
765.664	2573.96
765.847	2760.32
766.03	2844.29
766.213	2678.4
766.397	2614.91
766.58	2655.87
766.763	2653.83
766.946	2700.93
767.129	2670.21
767.312	2662.02
767.495	2487.94
767.678	2455.17
767.861	2539.14
768.044	2485.89
768.227	2571.91
768.41	2481.8
768.593	2463.37
768.776	2539.14
768.959	2473.6
769.142	2465.41
769.324	2461.32
769.507	2406.02
769.69	2346.63
769.873	2375.3
770.056	2305.67
770.239	2371.21
770.421	2401.93
770.604	2358.92
770.787	2285.19
770.97	2211.46
771.152	2107.02
771.335	2217.61
771.518	2272.9
771.7	2201.23
771.883	2227.85
772.066	2256.52
772.248	2236.04
772.431	2236.04
772.613	2223.75
772.796	2047.63
772.978	2111.11
773.161	2180.75
773.343	2037.39
773.526	2121.35
773.708	2025.1
773.891	2002.57
774.073	2023.05
774.256	1967.76
774.438	2004.62
774.621	1924.75
774.803	2027.15
774.985	1932.94
775.168	1930.89
775.35	1922.7
775.532	2035.34
775.715	1951.37
775.897	1820.3
776.079	1881.74
776.261	1922.7
776.444	1799.82
776.626	1744.53
776.808	1676.95
776.99	1805.97
777.173	1750.67
777.355	1824.4
777.537	1771.15
777.719	1795.73
777.901	1724.05
778.083	1621.65
778.265	1627.79
778.447	1687.18
778.629	1619.6
778.811	1617.55
778.993	1683.09
779.175	1625.75
779.357	1547.92
779.539	1490.58
779.721	1547.92
779.903	1535.64
780.085	1552.02
780.267	1466
780.449	1560.21
780.631	1504.92
780.812	1527.44
780.994	1466
781.176	1543.83
781.358	1414.81
781.54	1351.32
781.721	1367.7
781.903	1382.04
782.085	1320.6
782.267	1404.57
782.448	1326.74
782.63	1285.78
782.812	1408.66
782.993	1320.6
783.175	1353.37
783.357	1291.93
783.538	1314.45
783.72	1220.25
783.901	1310.36
784.083	1250.97
784.264	1238.68
784.446	1304.21
784.627	1105.56
784.809	1240.73
784.99	1154.71
785.172	1119.9
785.353	1144.47
785.535	1130.14
785.716	1093.27
785.897	1162.9
786.079	1093.27
786.26	1154.71
786.441	1199.77
786.623	1179.29
786.804	1011.36
786.985	1111.71
787.167	1003.16
787.348	1101.47
787.529	1033.88
787.71	1144.47
787.891	1040.03
788.073	1076.89
788.254	1003.16
788.435	1023.64
788.616	1042.07
788.797	982.68
788.978	954.01
789.159	1005.21
789.34	999.07
789.522	1003.16
789.703	1023.64
789.884	999.07
790.065	954.01
790.246	1060.51
790.427	865.95
790.607	949.92
790.788	939.68
790.969	880.29
791.15	919.2
791.331	841.37
791.512	937.63
791.693	786.08
791.874	822.94
792.054	997.02
792.235	824.99
792.416	841.37
792.597	808.61
792.778	886.43
792.958	845.47
793.139	851.61
793.32	827.04
793.5	818.85
793.681	802.46
793.862	863.9
794.042	759.46
794.223	753.31
794.404	798.37
794.584	648.86
794.765	695.97
794.945	695.97
795.126	753.31
795.306	802.46
795.487	671.39
795.667	708.26
795.848	741.02
796.028	655.01
796.209	751.26
796.389	749.22
796.57	612
796.75	663.2
796.93	738.98
797.111	728.74
797.291	700.06
797.471	781.98
797.652	698.02
797.832	577.19
798.012	667.3
798.192	628.39
798.373	589.47
798.553	556.71
798.733	622.24
798.913	646.82
799.093	616.1
799.274	601.76
799.454	714.4
799.634	687.78
799.814	710.3
799.994	581.28
800.174	612
800.354	622.24
800.534	640.67
800.714	583.33
800.894	519.84
801.074	556.71
801.254	587.43
801.434	626.34
801.614	552.61
801.794	458.4
801.974	1343.13
802.154	562.85
802.334	622.24
802.514	552.61
802.693	626.34
802.873	566.95
803.053	521.89
803.233	521.89
803.413	575.14
803.592	583.33
803.772	546.47
803.952	489.12
804.131	534.18
804.311	450.21
804.491	448.16
804.67	444.07
804.85	489.12
805.03	589.47
805.209	530.08
805.389	460.45
805.568	448.16
805.748	521.89
805.928	456.36
806.107	405.16
806.287	646.82
806.466	450.21
806.646	540.32
806.825	480.93
807.004	472.74
807.184	517.79
807.363	458.4
807.543	423.59
807.722	493.22
807.901	544.42
808.081	489.12
808.26	360.1
808.439	478.88
808.619	437.92
808.798	480.93
808.977	472.74
809.156	501.41
809.336	423.59
809.515	433.83
809.694	396.96
809.873	396.96
810.052	431.78
810.231	415.4
810.411	472.74
810.59	425.64
810.769	351.91
810.948	446.12
811.127	364.2
811.306	261.8
811.485	413.35
811.664	489.12
811.843	435.88
812.022	306.85
812.201	411.3
812.38	366.25
812.559	368.29
812.737	364.2
812.916	427.68
813.095	423.59
813.274	341.67
813.453	315.05
813.632	407.2
813.811	321.19
813.989	376.48
814.168	405.16
814.347	376.48
814.526	407.2
814.704	378.53
814.883	390.82
815.062	388.77
815.24	351.91
815.419	409.25
815.598	327.33
815.776	302.76
815.955	313
816.133	274.09
816.312	272.04
816.49	310.95
816.669	329.38
816.847	310.95
817.026	360.1
817.204	298.66
817.383	229.03
817.561	253.61
817.74	349.86
817.918	323.24
818.097	296.61
818.275	278.18
818.453	341.67
818.632	292.52
818.81	263.85
818.988	306.85
819.167	292.52
819.345	319.14
819.523	339.62
819.701	409.25
819.879	310.95
820.058	188.07
820.236	351.91
820.414	286.37
820.592	294.57
820.77	302.76
820.948	265.89
821.127	294.57
821.305	298.66
821.483	265.89
821.661	333.48
821.839	286.37
822.017	253.61
822.195	280.23
822.373	280.23
822.551	310.95
822.729	337.57
822.907	296.61
823.085	288.42
823.262	196.26
823.44	179.88
823.618	231.08
823.796	278.18
823.974	249.51
824.152	245.41
824.329	245.41
824.507	292.52
824.685	235.18
824.863	220.84
825.04	265.89
825.218	210.6
825.396	138.92
825.574	251.56
825.751	253.61
825.929	229.03
826.107	241.32
826.284	216.74
826.462	247.46
826.639	204.46
826.817	194.22
826.994	294.57
827.172	229.03
827.349	302.76
827.527	212.65
827.704	177.83
827.882	237.22
828.059	253.61
828.237	231.08
828.414	214.7
828.591	65.19
828.769	284.33
828.946	167.59
829.124	145.06
829.301	214.7
829.478	130.73
829.655	278.18
829.833	237.22
830.01	93.87
830.187	229.03
830.364	155.3
830.542	200.36
830.719	276.13
830.896	247.46
831.073	132.78
831.25	319.14
831.427	188.07
831.604	163.5
831.782	171.69
831.959	163.5
832.136	134.82
832.313	128.68
832.49	106.15
832.667	145.06
832.844	126.63
833.021	253.61
833.198	212.65
833.374	298.66
833.551	159.4
833.728	145.06
833.905	177.83
834.082	181.93
834.259	218.79
834.436	159.4
834.612	153.26
834.789	165.54
834.966	120.49
835.143	212.65
835.319	171.69
835.496	143.02
835.673	128.68
835.85	251.56
836.026	247.46
836.203	183.98
836.38	71.34
836.556	77.48
836.733	147.11
836.909	216.74
837.086	81.58
837.262	157.35
837.439	124.58
837.616	122.54
837.792	104.11
837.968	163.5
838.145	102.06
838.321	85.67
838.498	73.39
838.674	52.91
838.851	97.96
839.027	134.82
839.203	171.69
839.38	161.45
839.556	106.15
839.732	114.34
839.909	179.88
840.085	130.73
840.261	77.48
840.437	65.19
840.614	40.62
840.79	179.88
840.966	181.93
841.142	173.74
841.318	87.72
841.494	147.11
841.671	163.5
841.847	114.34
842.023	126.63
842.199	100.01
842.375	177.83
842.551	126.63
842.727	85.67
842.903	126.63
843.079	57
843.255	151.21
843.431	177.83
843.607	153.26
843.783	36.52
843.959	132.78
844.134	22.19
844.31	163.5
844.486	32.43
844.662	153.26
844.838	128.68
845.013	179.88
845.189	104.11
845.365	183.98
845.541	140.97
845.716	93.87
845.892	179.88
846.068	-10.58
846.244	11.95
846.419	186.02
846.595	102.06
846.77	-24.92
846.946	89.77
847.122	175.78
847.297	34.47
847.473	153.26
847.648	122.54
847.824	95.91
847.999	57
848.175	81.58
848.35	93.87
848.526	130.73
848.701	97.96
848.876	108.2
849.052	89.77
849.227	73.39
849.403	97.96
849.578	22.19
849.753	67.24
849.929	48.81
850.104	-24.92
850.279	120.49
850.454	32.43
850.63	59.05
850.805	22.19
850.98	89.77
851.155	81.58
851.33	89.77
851.505	28.33
851.681	65.19
851.856	102.06
852.031	75.43
852.206	7.85
852.381	114.34
852.556	73.39
852.731	24.23
852.906	126.63
853.081	112.3
853.256	73.39
853.431	24.23
853.606	130.73
853.781	-6.49
853.956	16.04
854.131	63.15
854.305	77.48
854.48	42.67
854.655	67.24
854.83	44.71
855.005	22.19
855.18	71.34
855.354	79.53
855.529	67.24
855.704	108.2
855.879	44.71
856.053	-16.73
856.228	71.34
856.403	22.19
856.577	38.57
856.752	28.33
856.926	81.58
857.101	81.58
857.276	40.62
857.45	61.1
857.625	71.34
857.799	40.62
857.974	5.8
858.148	32.43
858.323	110.25
858.497	22.19
858.672	36.52
858.846	-29.01
859.02	81.58
859.195	20.14
859.369	89.77
859.543	77.48
859.718	-26.96
859.892	16.04
860.066	110.25
860.241	-24.92
860.415	106.15
860.589	69.29
860.763	11.95
860.938	52.91
861.112	-2.39
861.286	32.43
861.46	73.39
861.634	3.75
861.808	48.81
861.982	34.47
862.157	-31.06
862.331	9.9
862.505	-0.34
862.679	11.95
862.853	3.75
863.027	-35.16
863.201	97.96
863.375	-18.77
863.549	73.39
863.722	5.8
863.896	42.67
864.07	48.81
864.244	44.71
864.418	38.57
864.592	-24.92
864.766	40.62
864.939	40.62
865.113	-82.26
865.287	71.34
865.461	-4.44
865.634	30.38
865.808	77.48
865.982	7.85
866.156	7.85
866.329	-20.82
866.503	44.71
866.676	13.99
866.85	57
867.024	-10.58
867.197	122.54
867.371	-16.73
867.544	16.04
867.718	5.8
867.891	69.29
868.065	20.14
868.238	40.62
868.412	93.87
868.585	32.43
868.759	28.33
868.932	-4.44
869.105	-6.49
869.279	75.43
869.452	-0.34
869.625	11.95
869.799	-16.73
869.972	3.75
870.145	-6.49
870.319	57
870.492	57
870.665	1.71
870.838	-24.92
871.011	-74.07
871.185	-41.3
871.358	-12.63
871.531	-20.82
871.704	54.95
871.877	-43.35
872.05	-26.96
872.223	57
872.396	3.75
872.569	-33.11
872.742	13.99
872.915	-14.68
873.088	-57.68
873.261	13.99
873.434	-37.2
873.607	71.34
873.78	20.14
873.953	20.14
874.126	5.8
874.299	-20.82
874.471	-10.58
874.644	7.85
874.817	48.81
874.99	77.48
875.163	7.85
875.335	-4.44
875.508	40.62
875.681	-29.01
875.853	-8.53
876.026	11.95
876.199	32.43
876.371	1.71
876.544	-49.49
876.717	79.53
876.889	22.19
877.062	-63.83
877.234	7.85
877.407	-59.73
877.579	-41.3
877.752	77.48
877.924	46.76
878.097	52.91
878.269	13.99
878.442	40.62
878.614	46.76
878.786	9.9
878.959	28.33
879.131	16.04
879.303	11.95
879.476	32.43
879.648	40.62
879.82	-16.73
879.993	-92.5
880.165	38.57
880.337	-16.73
880.509	-47.44
880.681	-65.88
880.854	-41.3
881.026	-4.44
881.198	71.34
881.37	18.09
881.542	-18.77
881.714	20.14
881.886	3.75
882.058	-55.64
882.23	-35.16
882.402	-14.68
882.574	20.14
882.746	44.71
882.918	22.19
883.09	-18.77
883.262	-86.36
883.434	52.91
883.606	-55.64
883.778	3.75
883.95	73.39
884.122	-20.82
884.293	106.15
884.465	-31.06
884.637	26.28
884.809	-6.49
884.98	-12.63
885.152	40.62
885.324	40.62
885.496	-45.4
885.667	40.62
885.839	22.19
886.011	-29.01
886.182	-0.34
886.354	24.23
886.525	54.95
886.697	26.28
886.869	-16.73
887.04	-10.58
887.212	-69.97
887.383	11.95
887.555	-31.06
887.726	5.8
887.897	-0.34
888.069	-14.68
888.24	-0.34
888.412	28.33
888.583	-22.87
888.754	-61.78
888.926	7.85
889.097	24.23
889.268	-65.88
889.44	-47.44
889.611	-61.78
889.782	-49.49
889.953	-59.73
890.125	22.19
890.296	-74.07
890.467	54.95
890.638	32.43
890.809	-69.97
890.98	-98.64
891.151	9.9
891.323	32.43
891.494	-29.01
891.665	38.57
891.836	-26.96
892.007	20.14
892.178	32.43
892.349	-0.34
892.52	-16.73
892.691	-59.73
892.862	-0.34
893.032	-8.53
893.203	22.19
893.374	57
893.545	-59.73
893.716	-29.01
893.887	7.85
894.057	-61.78
894.228	73.39
894.399	-41.3
894.57	71.34
894.74	16.04
894.911	-49.49
895.082	-41.3
895.253	-8.53
895.423	-37.2
895.594	69.29
895.764	36.52
895.935	-49.49
896.106	40.62
896.276	-33.11
896.447	3.75
896.617	-67.92
896.788	-49.49
896.958	-14.68
897.129	-0.34
897.299	-8.53
897.47	65.19
897.64	36.52
897.81	32.43
897.981	52.91
898.151	-8.53
898.322	20.14
898.492	-59.73
898.662	-90.45
898.832	-8.53
899.003	24.23
899.173	-18.77
899.343	-20.82
899.513	-131.41
