Data from USB4F104151__18__11-29-49-616.txt Node

Date: Fri Mar 14 11:29:49 EDT 2025
User: louis
Spectrometer: USB4F10415
Trigger mode: 4
Integration Time (sec): 5.000000E-2
Scans to average: 1
Electric dark correction enabled: true
Nonlinearity correction enabled: false
Boxcar width: 0
XAxis mode: Wavelengths
Number of Pixels in Spectrum: 3648
>>>>>Begin Spectral Data<<<<<
178.204	-144.55
178.424	-144.55
178.644	-144.55
178.864	-93.35
179.084	-148.65
179.304	-13.48
179.524	-46.25
179.744	-9.39
179.964	62.29
180.184	7
180.404	58.2
180.624	23.38
180.844	58.2
181.064	-27.82
181.283	-58.54
181.503	-40.11
181.723	-13.48
181.943	-56.49
182.163	66.39
182.383	25.43
182.602	103.25
182.822	47.96
183.042	27.48
183.262	11.09
183.482	62.29
183.701	-17.58
183.921	47.96
184.141	-9.39
184.361	88.92
184.58	54.1
184.8	-9.39
185.02	109.4
185.239	29.52
185.459	-17.58
185.679	2.9
185.898	-76.97
186.118	62.29
186.338	15.19
186.557	144.21
186.777	-83.11
186.997	52.05
187.216	60.24
187.436	25.43
187.655	27.48
187.875	56.15
188.095	-5.29
188.314	74.58
188.534	15.19
188.753	15.19
188.973	19.29
189.192	150.36
189.412	56.15
189.631	23.38
189.851	70.48
190.07	47.96
190.29	15.19
190.509	2.9
190.729	-15.53
190.948	111.44
191.168	174.93
191.387	56.15
191.607	35.67
191.826	-29.87
192.045	29.52
192.265	62.29
192.484	-5.29
192.704	80.72
192.923	7
193.142	113.49
193.362	52.05
193.581	72.53
193.8	68.44
194.02	-1.19
194.239	47.96
194.458	4.95
194.678	80.72
194.897	58.2
195.116	-25.77
195.335	-1.19
195.555	76.63
195.774	-9.39
195.993	95.06
196.212	64.34
196.432	64.34
196.651	-54.44
196.87	52.05
197.089	66.39
197.308	74.58
197.528	62.29
197.747	-9.39
197.966	17.24
198.185	72.53
198.404	21.33
198.623	7
198.842	45.91
199.062	23.38
199.281	58.2
199.5	23.38
199.719	17.24
199.938	21.33
200.157	37.72
200.376	74.58
200.595	121.68
200.814	11.09
201.033	21.33
201.252	93.01
201.471	23.38
201.69	62.29
201.909	62.29
202.128	52.05
202.347	39.76
202.566	-38.06
202.785	-7.34
203.004	4.95
203.223	111.44
203.442	66.39
203.661	-25.77
203.879	50
204.098	84.82
204.317	29.52
204.536	88.92
204.755	39.76
204.974	103.25
205.193	27.48
205.411	174.93
205.63	117.59
205.849	39.76
206.068	35.67
206.287	-9.39
206.505	93.01
206.724	-13.48
206.943	21.33
207.162	23.38
207.381	29.52
207.599	2.9
207.818	-5.29
208.037	-36.01
208.255	52.05
208.474	47.96
208.693	-11.43
208.911	47.96
209.13	4.95
209.349	101.2
209.567	7
209.786	95.06
210.005	74.58
210.223	56.15
210.442	4.95
210.661	54.1
210.879	17.24
211.098	7
211.316	58.2
211.535	84.82
211.753	23.38
211.972	-17.58
212.191	-11.43
212.409	4.95
212.628	97.11
212.846	11.09
213.065	50
213.283	72.53
213.502	-33.96
213.72	31.57
213.938	7
214.157	15.19
214.375	27.48
214.594	33.62
214.812	7
215.031	-11.43
215.249	-5.29
215.467	103.25
215.686	39.76
215.904	82.77
216.122	47.96
216.341	23.38
216.559	27.48
216.778	33.62
216.996	-13.48
217.214	-13.48
217.432	29.52
217.651	-17.58
217.869	37.72
218.087	-29.87
218.306	142.16
218.524	54.1
218.742	23.38
218.96	35.67
219.179	2.9
219.397	68.44
219.615	97.11
219.833	80.72
220.051	103.25
220.27	58.2
220.488	52.05
220.706	-33.96
220.924	-1.19
221.142	29.52
221.36	52.05
221.578	27.48
221.796	31.57
222.015	72.53
222.233	29.52
222.451	93.01
222.669	-66.73
222.887	80.72
223.105	11.09
223.323	-52.39
223.541	33.62
223.759	33.62
223.977	-25.77
224.195	64.34
224.413	70.48
224.631	84.82
224.849	19.29
225.067	39.76
225.285	-19.63
225.503	35.67
225.721	-3.24
225.939	31.57
226.157	127.83
226.375	136.02
226.592	-42.15
226.81	52.05
227.028	88.92
227.246	105.3
227.464	86.87
227.682	25.43
227.9	70.48
228.117	15.19
228.335	47.96
228.553	21.33
228.771	-11.43
228.989	121.68
229.206	88.92
229.424	21.33
229.642	-1.19
229.86	88.92
230.077	56.15
230.295	17.24
230.513	80.72
230.731	47.96
230.948	43.86
231.166	56.15
231.384	21.33
231.601	9.05
231.819	21.33
232.037	17.24
232.254	11.09
232.472	-19.63
232.689	35.67
232.907	95.06
233.125	39.76
233.342	80.72
233.56	21.33
233.777	-21.67
233.995	45.91
234.213	47.96
234.43	45.91
234.648	95.06
234.865	56.15
235.083	95.06
235.3	2.9
235.518	11.09
235.735	-5.29
235.953	101.2
236.17	107.35
236.388	72.53
236.605	97.11
236.822	68.44
237.04	99.16
237.257	109.4
237.475	-15.53
237.692	27.48
237.909	21.33
238.127	-33.96
238.344	70.48
238.562	47.96
238.779	35.67
238.996	-11.43
239.214	84.82
239.431	70.48
239.648	-62.63
239.865	-25.77
240.083	-1.19
240.3	15.19
240.517	-13.48
240.735	13.14
240.952	154.45
241.169	82.77
241.386	21.33
241.603	-9.39
241.821	-5.29
242.038	86.87
242.255	35.67
242.472	-48.3
242.689	54.1
242.907	78.68
243.124	-52.39
243.341	52.05
243.558	-9.39
243.775	62.29
243.992	-17.58
244.209	-29.87
244.426	74.58
244.643	54.1
244.86	47.96
245.078	123.73
245.295	80.72
245.512	125.78
245.729	-1.19
245.946	78.68
246.163	107.35
246.38	9.05
246.597	88.92
246.814	35.67
247.031	86.87
247.248	52.05
247.464	-9.39
247.681	7
247.898	-21.67
248.115	72.53
248.332	21.33
248.549	54.1
248.766	117.59
248.983	2.9
249.2	-19.63
249.417	29.52
249.633	52.05
249.85	93.01
250.067	31.57
250.284	52.05
250.501	97.11
250.717	64.34
250.934	23.38
251.151	2.9
251.368	27.48
251.585	45.91
251.801	84.82
252.018	-68.78
252.235	39.76
252.451	-15.53
252.668	54.1
252.885	45.91
253.102	23.38
253.318	80.72
253.535	-15.53
253.752	45.91
253.968	47.96
254.185	62.29
254.401	9.05
254.618	-17.58
254.835	70.48
255.051	60.24
255.268	68.44
255.484	17.24
255.701	-1.19
255.917	133.97
256.134	13.14
256.351	68.44
256.567	64.34
256.784	47.96
257	-25.77
257.217	70.48
257.433	43.86
257.65	64.34
257.866	80.72
258.082	-5.29
258.299	-29.87
258.515	-46.25
258.732	33.62
258.948	0.85
259.165	70.48
259.381	-21.67
259.597	29.52
259.814	0.85
260.03	-15.53
260.246	50
260.463	54.1
260.679	52.05
260.895	21.33
261.112	105.3
261.328	-19.63
261.544	13.14
261.761	74.58
261.977	31.57
262.193	-38.06
262.409	19.29
262.626	23.38
262.842	-17.58
263.058	64.34
263.274	7
263.49	54.1
263.707	37.72
263.923	45.91
264.139	-1.19
264.355	47.96
264.571	146.26
264.787	25.43
265.004	27.48
265.22	27.48
265.436	-38.06
265.652	-1.19
265.868	45.91
266.084	-27.82
266.3	-9.39
266.516	-11.43
266.732	-7.34
266.948	11.09
267.164	80.72
267.38	39.76
267.596	54.1
267.812	33.62
268.028	41.81
268.244	41.81
268.46	41.81
268.676	-17.58
268.892	15.19
269.108	2.9
269.324	50
269.54	27.48
269.756	56.15
269.972	-3.24
270.188	47.96
270.403	15.19
270.619	80.72
270.835	142.16
271.051	-1.19
271.267	11.09
271.483	-9.39
271.698	97.11
271.914	23.38
272.13	35.67
272.346	23.38
272.562	-5.29
272.777	58.2
272.993	-21.67
273.209	11.09
273.425	-17.58
273.64	-46.25
273.856	13.14
274.072	39.76
274.287	-68.78
274.503	93.01
274.719	37.72
274.934	52.05
275.15	78.68
275.366	-58.54
275.581	-25.77
275.797	72.53
276.012	72.53
276.228	54.1
276.444	13.14
276.659	64.34
276.875	15.19
277.09	68.44
277.306	-9.39
277.521	103.25
277.737	7
277.952	64.34
278.168	35.67
278.383	72.53
278.599	138.07
278.814	72.53
279.03	56.15
279.245	105.3
279.461	-11.43
279.676	35.67
279.892	56.15
280.107	23.38
280.322	15.19
280.538	111.44
280.753	47.96
280.969	93.01
281.184	2.9
281.399	105.3
281.615	84.82
281.83	93.01
282.045	39.76
282.26	21.33
282.476	47.96
282.691	-1.19
282.906	70.48
283.122	19.29
283.337	-25.77
283.552	-13.48
283.767	23.38
283.983	13.14
284.198	107.35
284.413	-1.19
284.628	-25.77
284.843	27.48
285.058	88.92
285.274	-3.24
285.489	45.91
285.704	80.72
285.919	4.95
286.134	21.33
286.349	-19.63
286.564	27.48
286.779	13.14
286.995	2.9
287.21	31.57
287.425	15.19
287.64	39.76
287.855	-17.58
288.07	-79.02
288.285	39.76
288.5	103.25
288.715	-42.15
288.93	31.57
289.145	82.77
289.36	45.91
289.575	47.96
289.79	97.11
290.004	56.15
290.219	82.77
290.434	-5.29
290.649	-25.77
290.864	-58.54
291.079	41.81
291.294	47.96
291.509	66.39
291.724	27.48
291.938	2.9
292.153	13.14
292.368	41.81
292.583	7
292.798	39.76
293.012	-11.43
293.227	60.24
293.442	86.87
293.657	41.81
293.871	62.29
294.086	39.76
294.301	88.92
294.516	113.49
294.73	52.05
294.945	2.9
295.16	-42.15
295.374	111.44
295.589	33.62
295.804	29.52
296.018	60.24
296.233	76.63
296.447	21.33
296.662	9.05
296.877	29.52
297.091	62.29
297.306	13.14
297.52	-36.01
297.735	23.38
297.949	31.57
298.164	29.52
298.378	-27.82
298.593	56.15
298.807	-60.59
299.022	29.52
299.236	78.68
299.451	-42.15
299.665	150.36
299.88	-11.43
300.094	13.14
300.309	45.91
300.523	60.24
300.737	19.29
300.952	86.87
301.166	39.76
301.381	-9.39
301.595	13.14
301.809	88.92
302.024	27.48
302.238	31.57
302.452	66.39
302.667	68.44
302.881	84.82
303.095	62.29
303.309	62.29
303.524	101.2
303.738	76.63
303.952	-9.39
304.166	-40.11
304.381	-19.63
304.595	129.88
304.809	4.95
305.023	33.62
305.237	-15.53
305.452	-1.19
305.666	37.72
305.88	45.91
306.094	39.76
306.308	74.58
306.522	7
306.736	109.4
306.95	72.53
307.164	4.95
307.379	37.72
307.593	13.14
307.807	113.49
308.021	17.24
308.235	-1.19
308.449	11.09
308.663	21.33
308.877	107.35
309.091	64.34
309.305	80.72
309.519	56.15
309.733	-9.39
309.947	-11.43
310.161	33.62
310.374	64.34
310.588	17.24
310.802	-1.19
311.016	39.76
311.23	-21.67
311.444	-5.29
311.658	-27.82
311.872	23.38
312.085	90.96
312.299	64.34
312.513	52.05
312.727	127.83
312.941	-3.24
313.154	31.57
313.368	43.86
313.582	64.34
313.796	-38.06
314.009	-7.34
314.223	29.52
314.437	39.76
314.651	39.76
314.864	7
315.078	47.96
315.292	-76.97
315.505	129.88
315.719	80.72
315.933	23.38
316.146	68.44
316.36	-7.34
316.573	70.48
316.787	21.33
317.001	17.24
317.214	-3.24
317.428	45.91
317.641	47.96
317.855	62.29
318.068	52.05
318.282	127.83
318.495	136.02
318.709	68.44
318.922	31.57
319.136	47.96
319.349	88.92
319.563	23.38
319.776	-27.82
319.99	13.14
320.203	97.11
320.417	70.48
320.63	-13.48
320.843	80.72
321.057	-15.53
321.27	25.43
321.483	88.92
321.697	93.01
321.91	72.53
322.124	50
322.337	23.38
322.55	-56.49
322.763	21.33
322.977	33.62
323.19	-17.58
323.403	76.63
323.617	13.14
323.83	31.57
324.043	62.29
324.256	-33.96
324.469	-25.77
324.683	58.2
324.896	9.05
325.109	52.05
325.322	-9.39
325.535	95.06
325.748	39.76
325.962	66.39
326.175	74.58
326.388	50
326.601	101.2
326.814	29.52
327.027	133.97
327.24	64.34
327.453	15.19
327.666	95.06
327.879	95.06
328.092	138.07
328.305	47.96
328.518	27.48
328.731	117.59
328.944	62.29
329.157	56.15
329.37	7
329.583	109.4
329.796	64.34
330.009	31.57
330.222	86.87
330.435	105.3
330.648	41.81
330.861	72.53
331.073	62.29
331.286	86.87
331.499	17.24
331.712	82.77
331.925	35.67
332.138	50
332.35	127.83
332.563	29.52
332.776	129.88
332.989	39.76
333.202	47.96
333.414	31.57
333.627	15.19
333.84	43.86
334.053	97.11
334.265	80.72
334.478	27.48
334.691	2.9
334.903	-52.39
335.116	-9.39
335.329	-17.58
335.541	72.53
335.754	29.52
335.966	-13.48
336.179	43.86
336.392	66.39
336.604	45.91
336.817	72.53
337.029	90.96
337.242	117.59
337.454	119.64
337.667	56.15
337.88	80.72
338.092	11.09
338.305	54.1
338.517	105.3
338.729	109.4
338.942	144.21
339.154	23.38
339.367	23.38
339.579	-17.58
339.792	-27.82
340.004	103.25
340.217	-27.82
340.429	129.88
340.641	52.05
340.854	4.95
341.066	15.19
341.278	62.29
341.491	113.49
341.703	68.44
341.915	37.72
342.128	33.62
342.34	76.63
342.552	9.05
342.764	62.29
342.977	39.76
343.189	39.76
343.401	19.29
343.613	2.9
343.826	47.96
344.038	-17.58
344.25	60.24
344.462	41.81
344.674	152.4
344.886	31.57
345.099	107.35
345.311	90.96
345.523	27.48
345.735	11.09
345.947	31.57
346.159	-1.19
346.371	27.48
346.583	-17.58
346.795	80.72
347.007	13.14
347.219	72.53
347.431	78.68
347.643	95.06
347.855	-3.24
348.067	97.11
348.279	0.85
348.491	29.52
348.703	88.92
348.915	88.92
349.127	27.48
349.339	13.14
349.551	23.38
349.763	33.62
349.975	31.57
350.187	17.24
350.399	84.82
350.61	29.52
350.822	31.57
351.034	99.16
351.246	21.33
351.458	47.96
351.669	58.2
351.881	21.33
352.093	45.91
352.305	133.97
352.517	50
352.728	21.33
352.94	-19.63
353.152	80.72
353.363	62.29
353.575	52.05
353.787	142.16
353.999	-17.58
354.21	103.25
354.422	-3.24
354.633	13.14
354.845	-21.67
355.057	2.9
355.268	9.05
355.48	11.09
355.692	2.9
355.903	11.09
356.115	80.72
356.326	-11.43
356.538	29.52
356.749	39.76
356.961	-9.39
357.172	2.9
357.384	52.05
357.595	52.05
357.807	25.43
358.018	-3.24
358.23	7
358.441	154.45
358.653	62.29
358.864	37.72
359.075	64.34
359.287	97.11
359.498	93.01
359.709	78.68
359.921	52.05
360.132	72.53
360.344	121.68
360.555	43.86
360.766	50
360.977	31.57
361.189	80.72
361.4	88.92
361.611	64.34
361.823	7
362.034	29.52
362.245	74.58
362.456	109.4
362.667	105.3
362.879	15.19
363.09	-15.53
363.301	136.02
363.512	41.81
363.723	23.38
363.935	80.72
364.146	56.15
364.357	60.24
364.568	64.34
364.779	15.19
364.99	109.4
365.201	2.9
365.412	127.83
365.623	-50.35
365.834	58.2
366.045	25.43
366.256	64.34
366.467	97.11
366.678	103.25
366.889	45.91
367.1	27.48
367.311	84.82
367.522	23.38
367.733	37.72
367.944	37.72
368.155	9.05
368.366	97.11
368.577	66.39
368.788	58.2
368.999	23.38
369.209	-3.24
369.42	170.83
369.631	-3.24
369.842	58.2
370.053	72.53
370.264	52.05
370.474	35.67
370.685	64.34
370.896	84.82
371.107	99.16
371.317	4.95
371.528	39.76
371.739	47.96
371.95	88.92
372.16	27.48
372.371	13.14
372.582	50
372.792	78.68
373.003	39.76
373.214	31.57
373.424	70.48
373.635	37.72
373.846	60.24
374.056	37.72
374.267	95.06
374.477	29.52
374.688	88.92
374.898	72.53
375.109	58.2
375.319	88.92
375.53	13.14
375.74	68.44
375.951	7
376.161	64.34
376.372	62.29
376.582	-19.63
376.793	47.96
377.003	-29.87
377.214	43.86
377.424	70.48
377.635	93.01
377.845	105.3
378.055	72.53
378.266	31.57
378.476	43.86
378.686	56.15
378.897	88.92
379.107	52.05
379.317	70.48
379.528	95.06
379.738	113.49
379.948	13.14
380.158	62.29
380.369	11.09
380.579	39.76
380.789	66.39
380.999	39.76
381.21	76.63
381.42	113.49
381.63	-5.29
381.84	70.48
382.05	70.48
382.261	17.24
382.471	62.29
382.681	70.48
382.891	33.62
383.101	4.95
383.311	-9.39
383.521	27.48
383.731	58.2
383.941	115.54
384.151	80.72
384.361	111.44
384.571	72.53
384.781	82.77
384.991	144.21
385.201	88.92
385.411	56.15
385.621	111.44
385.831	35.67
386.041	105.3
386.251	107.35
386.461	121.68
386.671	-44.2
386.881	78.68
387.091	111.44
387.301	150.36
387.511	31.57
387.72	35.67
387.93	117.59
388.14	-33.96
388.35	136.02
388.56	29.52
388.769	111.44
388.979	35.67
389.189	62.29
389.399	113.49
389.609	88.92
389.818	113.49
390.028	142.16
390.238	62.29
390.447	62.29
390.657	154.45
390.867	-9.39
391.076	43.86
391.286	47.96
391.496	39.76
391.705	56.15
391.915	211.79
392.125	86.87
392.334	-1.19
392.544	60.24
392.753	56.15
392.963	78.68
393.172	84.82
393.382	29.52
393.591	93.01
393.801	64.34
394.01	127.83
394.22	148.31
394.429	93.01
394.639	107.35
394.848	72.53
395.058	52.05
395.267	43.86
395.477	72.53
395.686	107.35
395.895	88.92
396.105	152.4
396.314	37.72
396.524	88.92
396.733	35.67
396.942	111.44
397.152	119.64
397.361	185.17
397.57	101.2
397.78	101.2
397.989	187.22
398.198	232.27
398.407	23.38
398.617	136.02
398.826	172.88
399.035	82.77
399.244	105.3
399.453	72.53
399.663	119.64
399.872	80.72
400.081	101.2
400.29	105.3
400.499	105.3
400.708	127.83
400.917	58.2
401.127	72.53
401.336	64.34
401.545	162.64
401.754	187.22
401.963	64.34
402.172	72.53
402.381	68.44
402.59	111.44
402.799	140.12
403.008	138.07
403.217	129.88
403.426	248.66
403.635	45.91
403.844	109.4
404.053	99.16
404.262	113.49
404.471	228.18
404.68	129.88
404.888	103.25
405.097	138.07
405.306	127.83
405.515	172.88
405.724	162.64
405.933	138.07
406.142	150.36
406.35	236.37
406.559	160.59
406.768	152.4
406.977	191.31
407.185	232.27
407.394	285.52
407.603	160.59
407.812	217.94
408.02	234.32
408.229	209.75
408.438	232.27
408.646	195.41
408.855	174.93
409.064	250.71
409.272	277.33
409.481	262.99
409.69	289.62
409.898	252.75
410.107	326.48
410.315	349.01
410.524	332.62
410.733	412.5
410.941	371.54
411.15	355.15
411.358	424.78
411.567	383.82
411.775	346.96
411.984	342.86
412.192	389.97
412.401	461.65
412.609	514.89
412.818	504.65
413.026	527.18
413.234	473.93
413.443	490.32
413.651	541.52
413.86	566.09
414.068	725.83
414.276	654.16
414.485	613.2
414.693	709.45
414.901	676.68
415.11	725.83
415.318	648.01
415.526	752.46
415.734	815.94
415.943	748.36
416.151	858.95
416.359	785.23
416.567	867.14
416.776	904.01
416.984	932.68
417.192	979.78
417.4	983.88
417.608	1000.26
417.817	953.16
418.025	1053.51
418.233	1203.01
418.441	1170.24
418.649	1205.06
418.857	1286.98
419.065	1321.79
419.273	1174.34
419.481	1309.51
419.689	1430.34
419.897	1430.34
420.105	1540.93
420.313	1577.79
420.521	1583.93
420.729	1684.28
420.937	1604.41
421.145	1751.87
421.353	1841.98
421.561	1829.69
421.769	1917.75
421.977	2001.72
422.185	1968.95
422.393	2120.5
422.601	2233.14
422.809	2235.19
423.017	2241.33
423.224	2386.74
423.432	2476.85
423.64	2530.09
423.848	2673.45
424.056	2579.25
424.263	2892.59
424.471	2857.77
424.679	2890.54
424.887	2970.41
425.094	3152.68
425.302	3316.51
425.51	3289.89
425.718	3414.82
425.925	3488.54
426.133	3504.93
426.341	3887.9
426.548	3949.34
426.756	3873.56
426.964	3912.47
427.171	4127.51
427.379	4299.54
427.586	4387.6
427.794	4490
428.001	4743.95
428.209	4893.45
428.417	4743.95
428.624	5366.53
428.832	5397.25
429.039	5251.85
429.247	5061.38
429.454	5724.93
429.662	6009.59
429.869	5659.39
430.076	6109.94
430.284	5937.91
430.491	6087.42
430.699	6535.92
430.906	6454
431.114	6613.74
431.321	6755.05
431.528	7043.82
431.736	7385.83
431.943	7879.39
432.15	7369.44
432.358	7690.98
432.565	8094.43
432.772	8147.67
432.979	8280.79
433.187	8612.56
433.394	8573.65
433.601	9040.59
433.808	9329.35
434.016	9112.27
434.223	9478.85
434.43	10132.15
434.637	9867.97
434.844	10439.35
435.052	10812.08
435.259	10615.48
435.466	10832.56
435.673	10474.17
435.88	11553.45
436.087	12122.78
436.294	11989.66
436.501	11727.52
436.708	11944.61
436.915	12409.5
437.122	12870.29
437.329	12935.82
437.537	13208.2
437.743	13380.23
437.95	13503.11
438.157	13957.76
438.364	14457.46
438.571	14498.42
438.778	14633.59
438.985	15886.95
439.192	15241.84
439.399	15932
439.606	15563.37
439.813	16261.73
440.02	17123.92
440.227	17091.15
440.433	17048.15
440.64	17406.54
440.847	17230.41
441.054	17787.46
441.261	19092.02
441.467	18627.13
441.674	19282.48
441.881	19636.78
442.088	19591.72
442.294	19548.72
442.501	20288.03
442.708	20331.04
442.914	21434.89
443.121	22284.8
443.328	21686.79
443.534	23187.96
443.741	22379.01
443.948	22295.04
444.154	23478.77
444.361	23749.1
444.568	23777.77
444.774	24048.1
444.981	24170.98
445.187	24775.13
445.394	25780.68
445.6	25289.17
445.807	27683.25
446.013	26730.94
446.22	27099.58
446.426	28287.4
446.633	28383.65
446.839	29303.19
447.046	28232.1
447.252	29907.34
447.459	29811.09
447.665	29802.89
447.871	31467.89
448.078	32491.88
448.284	30710.14
448.491	31558
448.697	32680.29
448.903	33409.37
449.11	33511.77
449.316	33089.88
449.522	33816.91
449.728	34357.58
449.935	34713.92
450.141	34775.36
450.347	35316.03
450.553	34068.81
450.76	34732.36
450.966	35623.22
451.172	35148.09
451.378	36061.49
451.584	35604.79
451.791	36417.83
451.997	36000.05
452.203	36843.81
452.409	36917.54
452.615	36186.41
452.821	35270.97
453.027	34941.25
453.233	36849.96
453.44	35393.85
453.646	35569.97
453.852	35629.37
454.058	36120.88
454.264	34713.92
454.47	36114.73
454.676	34765.12
454.882	36088.11
455.088	33216.86
455.294	33358.17
455.5	33812.82
455.705	33923.41
455.911	32606.56
456.117	32129.39
456.323	31482.23
456.529	30110.09
456.735	31146.36
456.941	30480.77
457.147	29968.78
457.352	28930.46
457.558	28860.83
457.764	28803.49
457.97	28455.33
458.176	27554.22
458.381	27380.15
458.587	26253.76
458.793	25962.95
458.999	24709.6
459.204	26227.14
459.41	25637.33
459.616	24050.15
459.821	24203.75
460.027	24011.24
460.233	23464.43
460.438	22245.89
460.644	22708.73
460.85	21664.27
461.055	21103.12
461.261	21273.1
461.466	19354.16
461.672	18999.86
461.878	20208.16
462.083	19163.7
462.289	18565.69
462.494	18385.47
462.7	17629.77
462.905	17408.59
463.111	17918.53
463.316	17871.43
463.522	17314.38
463.727	17435.21
463.932	17545.8
464.138	17289.81
464.343	17396.3
464.549	16847.44
464.754	17322.57
464.959	17359.44
465.165	17074.77
465.37	16364.12
465.575	15907.43
465.781	16566.87
465.986	16876.12
466.191	16052.83
466.397	15981.15
466.602	14891.63
466.807	15819.36
467.012	15657.57
467.218	15661.67
467.423	15159.92
467.628	15655.53
467.833	16163.42
468.038	15342.19
468.244	15088.24
468.449	15710.82
468.654	15127.15
468.859	14914.16
469.064	14811.76
469.269	14142.08
469.474	14441.08
469.679	14975.6
469.885	14355.07
470.09	14596.73
470.295	14449.27
470.5	14045.82
470.705	14033.54
470.91	13658.76
471.115	13480.58
471.32	13648.52
471.525	13529.73
471.73	13374.09
471.935	13255.31
472.139	12806.8
472.344	13118.09
472.549	13050.51
472.754	12886.67
472.959	12536.47
473.164	12167.84
473.369	12225.18
473.574	12714.64
473.778	12573.33
473.983	12450.46
474.188	12090.01
474.393	11637.41
474.598	11897.5
474.802	11467.43
475.007	11342.5
475.212	11629.22
475.417	11219.63
475.621	11205.29
475.826	11289.26
476.031	10930.86
476.235	10621.62
476.44	10937.01
476.645	10572.47
476.849	10693.3
477.054	10695.35
477.259	10420.92
477.463	10320.57
477.668	10123.96
477.872	10277.56
478.077	10144.44
478.282	9751.23
478.486	9796.29
478.691	9706.18
478.895	9839.3
479.1	9685.7
479.304	9525.96
479.509	9378.5
479.713	9665.22
479.918	9177.8
480.122	9099.98
480.326	9370.31
480.531	9278.15
480.735	9046.73
480.94	9061.07
481.144	9435.85
481.348	9032.4
481.553	9001.68
481.757	8788.69
481.961	9083.59
482.166	9140.94
482.37	8962.76
482.574	8747.73
482.778	9059.02
482.983	9075.4
483.187	9003.72
483.391	8948.43
483.595	8757.97
483.8	8886.99
484.004	8962.76
484.208	9044.68
484.412	8952.52
484.616	8936.14
484.821	8846.03
485.025	8860.37
485.229	9016.01
485.433	8729.3
485.637	8829.65
485.841	8993.48
486.045	8930
486.249	8970.96
486.453	8733.39
486.657	9061.07
486.861	8880.85
487.065	8821.45
487.269	8932.05
487.473	8757.97
487.677	8856.27
487.881	9038.54
488.085	8872.65
488.289	9118.41
488.493	8895.18
488.697	8987.34
488.901	9165.51
489.105	8635.09
489.309	8833.74
489.512	9061.07
489.716	8917.71
489.92	9018.06
490.124	8977.1
490.328	9218.76
490.531	8848.08
490.735	9112.27
490.939	9188.04
491.143	9222.86
491.346	9251.53
491.55	9304.78
491.754	9345.73
491.958	9394.89
492.161	9325.26
492.365	9276.1
492.569	9337.54
492.772	9181.9
492.976	9775.81
493.18	9308.87
493.383	9640.64
493.587	9540.29
493.79	9771.71
493.994	9779.9
494.197	9732.8
494.401	9900.73
494.605	9853.63
494.808	10003.13
495.012	9870.01
495.215	10230.46
495.419	10183.35
495.622	10058.43
495.825	10300.09
496.029	10439.35
496.232	10556.08
496.436	10539.7
496.639	10883.76
496.843	10728.11
497.046	10898.1
497.249	10967.73
497.453	11113.13
497.656	11307.69
497.859	11145.9
498.063	11483.81
498.266	11449
498.469	11483.81
498.673	11739.81
498.876	11696.8
499.079	11920.03
499.282	11860.64
499.485	12153.5
499.689	12409.5
499.892	12421.78
500.095	12571.29
500.298	12556.95
500.501	12454.55
500.705	13042.32
500.908	13369.99
501.111	13212.3
501.314	13406.86
501.517	13703.81
501.72	13658.76
501.923	13634.18
502.126	14004.86
502.329	14217.85
502.532	14234.24
502.735	14281.34
502.938	14678.65
503.141	14719.6
503.344	14922.35
503.547	14957.17
503.75	15051.38
503.953	15571.56
504.156	15508.07
504.359	15618.66
504.562	15700.58
504.765	16142.94
504.968	16177.76
505.17	16347.74
505.373	16607.83
505.576	16816.72
505.779	17097.3
505.982	16915.03
506.185	17570.38
506.387	17238.61
506.59	17418.83
506.793	17986.11
506.996	17789.51
507.198	18197.06
507.401	17965.64
507.604	18319.93
507.807	18549.31
508.009	18993.72
508.212	18993.72
508.415	19257.9
508.617	19022.39
508.82	19431.98
509.022	19585.58
509.225	19950.12
509.428	19857.96
509.63	20075.04
509.833	20326.94
510.035	20916.76
510.238	20615.71
510.44	21021.2
510.643	21379.6
510.845	21539.34
511.048	21453.33
511.25	21715.47
511.453	21981.7
511.655	22792.7
511.858	22499.84
512.06	22581.76
512.262	22583.8
512.465	22944.25
512.667	23452.14
512.87	23257.59
513.072	23312.88
513.274	23970.28
513.477	24001
513.679	24629.73
513.881	24226.28
514.084	24895.96
514.286	24818.14
514.488	24865.24
514.69	26014.15
514.893	25625.04
515.095	25819.6
515.297	26317.25
515.499	26001.86
515.701	26395.07
515.904	26681.79
516.106	27029.94
516.308	27238.84
516.51	27767.21
516.712	27681.2
516.914	27992.49
517.116	28350.88
517.318	28592.55
517.52	28574.11
517.722	28950.94
517.925	28975.52
518.127	29374.87
518.329	29845.9
518.531	29557.14
518.733	30163.34
518.935	30175.62
519.136	30658.95
519.338	31035.77
519.54	31082.88
519.742	31265.14
519.944	31533.43
520.146	32082.28
520.348	31852.91
520.55	32014.7
520.752	32399.72
520.954	33036.64
521.155	32848.22
521.357	33116.51
521.559	33499.48
521.761	33739.09
521.963	34029.9
522.164	34459.98
522.366	34318.67
522.568	34738.5
522.77	34900.29
522.971	35430.71
523.173	35191.1
523.375	35668.28
523.576	35635.51
523.778	35672.37
523.98	36450.6
524.181	36950.31
524.383	36811.04
524.584	37458.2
524.786	37282.08
524.988	37200.16
525.189	37769.49
525.391	38002.96
525.592	38095.12
525.794	38160.66
525.995	38768.9
526.197	38674.7
526.398	38592.78
526.6	39178.5
526.801	38949.12
527.003	39377.15
527.204	39385.34
527.406	39575.8
527.607	39790.84
527.808	40313.07
528.01	39493.88
528.211	39981.3
528.412	40878.31
528.614	40384.75
528.815	40820.97
529.016	41079.01
529.218	40749.29
529.419	41132.26
529.62	40939.75
529.822	41222.37
530.023	41390.3
530.224	41595.1
530.425	41789.66
530.626	41328.86
530.828	41218.27
531.029	42309.84
531.23	41892.05
531.431	41713.88
531.632	42068.18
531.833	42645.71
532.035	42092.76
532.236	42629.32
532.437	42688.71
532.638	42375.37
532.839	42934.47
533.04	43151.55
533.241	42379.47
533.442	43165.89
533.643	43139.27
533.844	43163.84
534.045	43049.16
534.246	42963.14
534.447	43411.65
534.648	43233.47
534.849	43385.02
535.05	43053.25
535.251	43473.09
535.451	43006.15
535.652	43856.06
535.853	43167.94
536.054	43372.74
536.255	43663.55
536.456	43065.54
536.657	43655.36
536.857	43573.44
537.058	43253.95
537.259	43716.79
537.46	43200.71
537.66	43262.15
537.861	43757.75
538.062	43675.83
538.263	43466.94
538.463	43518.14
538.664	43253.95
538.865	43622.59
539.065	43823.29
539.266	43339.97
539.466	43399.36
539.667	43178.18
539.868	43837.62
540.068	43225.28
540.269	43598.01
540.469	43778.23
540.67	43385.02
540.87	43548.86
541.071	43759.8
541.271	43813.05
541.472	43432.13
541.672	43397.31
541.873	43364.54
542.073	42899.65
542.274	43618.49
542.474	43262.15
542.675	43249.86
542.875	43704.51
543.075	43526.33
543.276	42795.21
543.476	43907.26
543.676	43172.03
543.877	43585.72
544.077	43321.54
544.277	43454.65
544.478	43475.13
544.678	43288.77
544.878	43229.38
545.078	43081.92
545.279	43188.42
545.479	43307.2
545.679	43471.04
545.879	43387.07
546.079	43614.4
546.28	43276.48
546.48	43034.82
546.68	43548.86
546.88	43557.05
547.08	43192.51
547.28	43249.86
547.48	42660.04
547.68	43081.92
547.88	42995.91
548.081	43870.39
548.281	43555
548.481	43251.91
548.681	43337.92
548.881	43362.5
549.081	43133.12
549.28	42967.24
549.48	43559.1
549.68	43368.64
549.88	43684.03
550.08	42870.98
550.28	43251.91
550.48	42913.99
550.68	43399.36
550.88	42918.09
551.08	43131.08
551.279	43327.68
551.479	43122.88
551.679	43268.29
551.879	42797.26
552.079	43264.19
552.278	42784.97
552.478	42913.99
552.678	42963.14
552.878	42895.56
553.077	42813.64
553.277	42787.02
553.477	43079.88
553.676	42737.87
553.876	42447.05
554.076	42352.85
554.275	42340.56
554.475	42189.01
554.674	42725.58
554.874	42500.3
555.074	42389.71
555.273	42485.97
555.473	42328.27
555.672	42414.29
555.872	41998.55
556.071	42645.71
556.271	42580.17
556.47	42223.83
556.67	41689.31
556.869	42221.78
557.068	41785.56
557.268	41652.44
557.467	42062.04
557.667	41836.76
557.866	41902.29
558.065	41803.99
558.265	41724.12
558.464	41201.89
558.663	41863.38
558.863	41201.89
559.062	41760.98
559.261	40886.5
559.461	41160.93
559.66	41023.72
559.859	40919.27
560.058	40976.61
560.258	40757.48
560.457	40528.11
560.656	40984.8
560.855	40573.16
561.054	40616.17
561.253	40020.21
561.453	40593.64
561.652	40696.04
561.851	40188.14
562.05	40130.8
562.249	39723.26
562.448	40218.86
562.647	39887.09
562.846	39706.87
563.045	39827.7
563.244	39215.36
563.443	39930.1
563.642	39108.86
563.841	39358.72
564.04	38830.34
564.239	39205.12
564.438	38744.33
564.637	38906.12
564.836	38871.3
565.035	38387.98
565.234	38859.01
565.432	38627.59
565.631	38377.74
565.83	38150.42
566.029	38111.5
566.228	38027.54
566.427	38238.48
566.625	37495.07
566.824	37554.46
567.023	37970.19
567.222	36978.98
567.42	37763.35
567.619	37484.83
567.818	36876.58
568.016	37054.75
568.215	37404.95
568.414	37208.35
568.612	36854.05
568.811	36591.91
569.01	36647.21
569.208	36161.84
569.407	36677.93
569.605	35807.54
569.804	36305.2
570.002	36172.08
570.201	35940.66
570.4	35594.55
570.598	35719.48
570.797	35365.18
570.995	35639.61
571.193	35154.24
571.392	35510.58
571.59	34994.5
571.789	35273.02
571.987	34834.75
572.186	35008.83
572.384	34337.1
572.582	34615.62
572.781	34459.98
572.979	33954.13
573.177	34226.51
573.376	34330.95
573.574	33818.96
573.772	34142.54
573.971	33663.32
574.169	33718.61
574.367	33347.93
574.565	33739.09
574.763	33829.2
574.962	33587.54
575.16	33132.89
575.358	33087.84
575.556	32940.38
575.754	33200.47
575.952	32485.73
576.151	32977.25
576.349	32229.74
576.547	32506.21
576.745	32581.99
576.943	32586.08
577.141	32444.77
577.339	32207.21
577.537	32098.67
577.735	32104.81
577.933	31861.1
578.131	31709.55
578.329	31674.74
578.527	31314.3
578.725	31803.76
578.923	31527.28
579.121	31310.2
579.319	31388.02
579.516	31451.51
579.714	30957.95
579.912	31224.18
580.11	30794.11
580.308	30962.04
580.506	30779.78
580.704	30214.54
580.901	30431.62
581.099	30908.8
581.297	30534.02
581.495	30128.52
581.692	30022.03
581.89	30306.69
582.088	30255.5
582.285	29796.75
582.483	30054.79
582.681	29725.07
582.878	29868.43
583.076	29251.99
583.274	29270.42
583.471	28955.04
583.669	29553.04
583.866	28881.31
584.064	29184.41
584.262	28756.38
584.459	29340.05
584.657	29266.33
584.854	29063.58
585.052	28488.1
585.249	28639.65
585.447	28422.56
585.644	28653.98
585.841	28561.83
586.039	28711.33
586.236	28029.35
586.434	28348.84
586.631	27812.27
586.828	27943.34
587.026	27863.47
587.223	27756.97
587.42	27546.03
587.618	27912.62
587.815	27380.15
588.012	27437.49
588.21	27666.86
588.407	27689.39
588.604	27404.72
588.801	27152.82
588.999	26976.7
589.196	27138.49
589.393	27093.43
589.59	26718.65
589.787	26608.06
589.984	26855.87
590.182	26595.78
590.379	26843.58
590.576	26245.57
590.773	26358.21
590.97	26413.51
591.167	26409.41
591.364	26020.3
591.561	26628.54
591.758	25911.75
591.955	25817.55
592.152	25999.82
592.349	25960.91
592.546	25711.05
592.743	25590.22
592.94	25506.26
593.137	25377.23
593.334	25772.49
593.531	25475.54
593.727	25586.13
593.924	25528.78
594.121	25156.05
594.318	25123.29
594.515	24758.75
594.712	25268.69
594.908	24760.8
595.105	24572.38
595.302	24721.88
595.499	24676.83
595.696	24633.82
595.892	24236.52
596.089	24689.12
596.286	24222.18
596.482	23923.18
596.679	23826.92
596.876	23914.98
597.072	24001
597.269	23892.46
597.466	23763.43
597.662	23611.89
597.859	23626.22
598.055	23554.54
598.252	23374.32
598.448	23179.76
598.645	23296.5
598.841	23132.66
599.038	23142.9
599.234	23429.62
599.431	23071.22
599.627	22643.2
599.824	23099.89
600.02	22800.89
600.217	22686.2
600.413	22440.45
600.609	22596.09
600.806	22446.59
601.002	22614.52
601.198	22299.14
601.395	22176.26
601.591	22364.67
601.787	22389.25
601.984	22092.29
602.18	22528.51
602.376	22030.85
602.572	21801.48
602.769	21899.78
602.965	21525
603.161	21791.24
603.357	21604.88
603.553	21672.46
603.75	21688.84
603.946	21617.16
604.142	21412.37
604.338	21213.71
604.534	21422.61
604.73	21033.49
604.926	20820.5
605.122	21119.51
605.318	21086.74
605.514	20871.7
605.71	20838.94
605.906	20883.99
606.102	20828.7
606.298	20503.07
606.494	20797.98
606.69	20638.23
606.886	20824.6
607.082	20367.9
607.278	20537.88
607.474	20036.13
607.67	20539.93
607.866	19927.59
608.062	20623.9
608.257	20058.66
608.453	20238.88
608.649	20064.8
608.845	19810.86
609.041	19841.57
609.236	20265.5
609.432	19911.21
609.628	19907.11
609.824	19696.17
610.019	19853.86
610.215	19644.97
610.411	19642.92
610.606	19446.32
610.802	19745.32
610.998	19593.77
611.193	19544.62
611.389	19507.76
611.584	19022.39
611.78	19251.76
611.976	19364.4
612.171	19444.27
612.367	19094.07
612.562	18936.37
612.758	19024.44
612.953	18876.98
613.149	19096.11
613.344	19309.1
613.539	18999.86
613.735	19110.45
613.93	18836.02
614.126	18868.79
614.321	18801.21
614.517	18645.56
614.712	18731.58
614.907	18491.96
615.103	18737.72
615.298	18629.18
615.493	18848.31
615.688	17943.11
615.884	18750.01
616.079	18172.48
616.274	18383.42
616.47	18379.32
616.665	18213.44
616.86	18287.17
617.055	18168.38
617.25	18090.56
617.445	18274.88
617.641	17809.99
617.836	18145.86
618.031	17881.67
618.226	18305.6
618.421	17918.53
618.616	17977.92
618.811	17629.77
619.006	17746.5
619.201	17617.48
619.396	17633.86
619.591	17410.64
619.786	17508.94
619.981	17148.5
620.176	17445.45
620.371	16937.55
620.566	17439.31
620.761	17168.98
620.956	17113.68
621.151	16865.88
621.346	16777.81
621.541	16691.8
621.735	16777.81
621.93	16390.75
622.125	16329.31
622.32	16120.42
622.515	16314.97
622.709	16398.94
622.904	16353.88
623.099	16249.44
623.294	16212.57
623.488	15706.73
623.683	15729.25
623.878	15618.66
624.072	15637.09
624.267	15610.47
624.462	15559.27
624.656	15325.8
624.851	15434.35
625.046	15252.08
625.24	15094.38
625.435	15123.05
625.629	15010.42
625.824	14983.79
626.018	14768.76
626.213	14549.62
626.407	14760.56
626.602	14639.73
626.796	14670.45
626.991	14600.82
627.185	14348.92
627.38	14211.71
627.574	14148.22
627.768	14432.89
627.963	14133.89
628.157	13920.9
628.352	14303.87
628.546	13734.53
628.74	13791.87
628.935	13595.27
629.129	13894.27
629.323	13642.37
629.517	13316.75
629.712	13632.13
629.906	13202.06
630.1	13052.56
630.294	13421.19
630.489	13122.19
630.683	13271.69
630.877	13003.41
631.071	12950.16
631.265	13034.13
631.459	12982.93
631.653	12851.86
631.848	12573.33
632.042	12468.89
632.236	12628.63
632.43	12305.05
632.624	12475.03
632.818	12413.59
633.012	12219.03
633.206	12204.7
633.4	12130.97
633.594	12053.15
633.788	12006.05
633.982	11963.04
634.176	12020.38
634.369	11795.11
634.563	11700.9
634.757	11604.64
634.951	11788.96
635.145	11502.25
635.339	11688.61
635.533	11383.46
635.726	11463.33
635.92	11266.73
636.114	11348.65
636.308	11029.17
636.501	11111.08
636.695	11213.48
636.889	10865.33
637.083	11178.67
637.276	10984.11
637.47	10746.55
637.664	10771.12
637.857	10803.89
638.051	11002.54
638.244	10693.3
638.438	10461.88
638.632	10695.35
638.825	10351.29
639.019	10537.65
639.212	10396.34
639.406	10255.03
639.599	10275.51
639.793	10175.16
639.986	10156.73
640.18	10373.82
640.373	9919.17
640.567	9763.52
640.76	10019.52
640.954	9888.45
641.147	9951.93
641.34	9743.04
641.534	9802.43
641.727	9517.76
641.92	9587.4
642.114	9452.23
642.307	9632.45
642.5	9677.51
642.694	9368.26
642.887	9317.06
643.08	9439.94
643.273	9349.83
643.467	9327.3
643.66	9284.3
643.853	9237.19
644.046	9149.13
644.239	9155.27
644.432	9177.8
644.626	9108.17
644.819	8735.44
645.012	8909.52
645.205	9126.6
645.398	8706.77
645.591	8772.3
645.784	8764.11
645.977	8616.66
646.17	8624.85
646.363	8577.75
646.556	8297.17
646.749	8432.34
646.942	8508.12
647.135	8309.46
647.328	8329.94
647.521	8176.34
647.714	8172.25
647.907	8078.04
648.099	8250.07
648.292	8346.33
648.485	8227.54
648.678	7977.69
648.871	8227.54
649.064	8039.13
649.256	7916.25
649.449	7926.49
649.642	7711.46
649.835	7817.95
650.027	7770.85
650.22	7641.82
650.413	7600.87
650.605	7631.58
650.798	7768.8
650.991	7394.02
651.183	7551.71
651.376	7510.75
651.568	7498.47
651.761	7498.47
651.954	7533.28
652.146	7426.79
652.339	7133.93
652.531	7383.78
652.724	7166.7
652.916	7191.27
653.109	7127.78
653.301	7129.83
653.494	7023.34
653.686	7084.78
653.879	7138.02
654.071	7191.27
654.263	6828.78
654.456	6814.45
654.648	7017.19
654.84	6662.9
655.033	6877.93
655.225	6882.03
655.417	6912.75
655.61	6816.49
655.802	6892.27
655.994	6757.1
656.186	6437.62
656.379	6691.57
656.571	6662.9
656.763	6632.18
656.955	6392.56
657.148	6589.17
657.34	6617.84
657.532	6427.38
657.724	6441.72
657.916	6433.52
658.108	6484.72
658.3	6306.55
658.492	6263.54
658.684	6183.67
658.876	6118.14
659.068	6257.4
659.26	6083.32
659.452	6071.03
659.644	6128.38
659.836	6208.25
660.028	6124.28
660.22	6019.83
660.412	5999.35
660.604	6021.88
660.796	5935.87
660.988	5946.11
661.18	5931.77
661.372	5880.57
661.563	5880.57
661.755	5890.81
661.947	5870.33
662.139	5763.84
662.331	5745.41
662.522	5866.24
662.714	5690.11
662.906	5729.02
663.097	5686.01
663.289	5700.35
663.481	5604.1
663.673	5665.53
663.864	5544.7
664.056	5655.3
664.247	5556.99
664.439	5526.27
664.631	5597.95
664.822	5466.88
665.014	5462.79
665.205	5528.32
665.397	5485.31
665.588	5421.83
665.78	5462.79
665.971	5456.64
666.163	5247.75
666.354	5438.21
666.546	5430.02
666.737	5399.3
666.929	5360.39
667.12	5350.15
667.311	5534.46
667.503	5393.16
667.694	5274.37
667.885	5126.92
668.077	5376.77
668.268	5296.9
668.459	5307.14
668.651	5151.49
668.842	5208.84
669.033	5229.32
669.224	5049.1
669.416	5268.23
669.607	5264.13
669.798	5190.41
669.989	5270.28
670.18	5227.27
670.371	5231.37
670.563	5137.16
670.754	5145.35
670.945	5225.22
671.136	5282.56
671.327	5069.58
671.518	5219.08
671.709	5004.04
671.9	5165.83
672.091	4948.75
672.282	5053.19
672.473	5036.81
672.664	5190.41
672.855	5212.93
673.046	5143.3
673.237	5186.31
673.428	5083.91
673.619	5135.11
673.809	5161.73
674	5145.35
674.191	5124.87
674.382	5067.53
674.573	5045
674.764	5108.49
674.954	5221.13
675.145	5088.01
675.336	5143.3
675.527	5118.73
675.717	5214.98
675.908	5077.77
676.099	5118.73
676.289	5114.63
676.48	5268.23
676.671	5227.27
676.861	5245.7
677.052	5188.36
677.243	5192.45
677.433	5219.08
677.624	5161.73
677.814	5020.42
678.005	5100.3
678.195	5360.39
678.386	5272.32
678.576	5219.08
678.767	5323.52
678.957	5270.28
679.148	5491.46
679.338	5264.13
679.529	5370.63
679.719	5266.18
679.909	5438.21
680.1	5309.19
680.29	5274.37
680.481	5262.09
680.671	5350.15
680.861	5409.54
681.052	5550.85
681.242	5241.61
681.432	5556.99
681.622	5548.8
681.813	5632.77
682.003	5212.93
682.193	5257.99
682.383	5409.54
682.573	5436.16
682.764	5362.44
682.954	5616.38
683.144	5571.33
683.334	5511.94
683.524	5438.21
683.714	5591.81
683.904	5462.79
684.094	5495.55
684.284	5430.02
684.474	5643.01
684.664	5501.7
684.854	5491.46
685.044	5368.58
685.234	5464.83
685.424	5370.63
685.614	5344
685.804	5432.07
685.994	5456.64
686.184	5456.64
686.374	5282.56
686.564	5384.96
686.753	5401.35
686.943	5239.56
687.133	5376.77
687.323	5169.93
687.513	5184.26
687.702	5270.28
687.892	5219.08
688.082	5184.26
688.272	5147.4
688.461	5090.06
688.651	5235.46
688.841	5051.14
689.03	5030.66
689.22	4975.37
689.41	5061.38
689.599	5053.19
689.789	5053.19
689.979	4991.75
690.168	4899.59
690.358	4893.45
690.547	4942.6
690.737	4754.19
690.926	4799.24
691.116	4666.13
691.305	4856.59
691.495	4680.46
691.684	4576.02
691.874	4696.85
692.063	4586.26
692.252	4737.81
692.442	4635.41
692.631	4655.89
692.82	4551.44
693.01	4500.24
693.199	4477.71
693.388	4463.38
693.578	4573.97
693.767	4479.76
693.956	4340.5
694.146	4336.4
694.335	4383.51
694.524	4277.01
694.713	4287.25
694.902	4266.77
695.092	4305.68
695.281	4250.39
695.47	4166.42
695.659	4205.33
695.848	4135.7
696.037	4168.47
696.226	4205.33
696.415	4160.28
696.604	4115.22
696.793	4203.29
696.982	4109.08
697.171	4080.41
697.36	4076.31
697.549	4139.8
697.738	4055.83
697.927	3963.67
698.116	3982.1
698.305	4037.4
698.494	3971.86
698.683	3910.43
698.872	4141.85
699.061	3924.76
699.25	3992.34
699.438	4039.45
699.627	3910.43
699.816	3955.48
700.005	4023.06
700.193	3947.29
700.382	4029.21
700.571	4061.98
700.76	4135.7
700.948	3980.06
701.137	3975.96
701.326	3984.15
701.514	3918.62
701.703	3898.14
701.892	4021.02
702.08	3953.43
702.269	3986.2
702.457	3980.06
702.646	4021.02
702.834	3791.64
703.023	3873.56
703.212	3908.38
703.4	3896.09
703.589	3943.19
703.777	4061.98
703.965	3945.24
704.154	4018.97
704.342	4057.88
704.531	4045.59
704.719	4006.68
704.907	3947.29
705.096	3945.24
705.284	3881.75
705.472	3935
705.661	4057.88
705.849	4170.52
706.037	4168.47
706.226	4139.8
706.414	4135.7
706.602	3994.39
706.79	4141.85
706.979	3963.67
707.167	4094.74
707.355	4156.18
707.543	4074.26
707.731	4182.81
707.919	4078.36
708.107	4143.89
708.296	4051.74
708.484	4221.72
708.672	4248.34
708.86	4234
709.048	4234
709.236	4191
709.424	4291.35
709.612	4135.7
709.8	4135.7
709.988	4160.28
710.176	4322.07
710.364	4246.29
710.551	4213.53
710.739	4147.99
710.927	4307.73
711.115	4350.74
711.303	4322.07
711.491	4332.31
711.679	4281.11
711.866	4365.07
712.054	4502.29
712.242	4406.03
712.43	4475.67
712.617	4356.88
712.805	4551.44
712.993	4430.61
713.181	4414.23
713.368	4506.38
713.556	4526.86
713.744	4600.59
713.931	4598.54
714.119	4530.96
714.306	4625.17
714.494	4684.56
714.682	4623.12
714.869	4567.82
715.057	4739.85
715.244	4670.22
715.432	4709.13
715.619	4774.67
715.807	4698.89
715.994	4936.46
716.182	4645.65
716.369	4666.13
716.556	4840.2
716.744	4778.76
716.931	4635.41
717.119	4836.11
717.306	4913.93
717.493	4924.17
717.681	4909.83
717.868	4907.79
718.055	4963.08
718.242	4920.07
718.43	4891.4
718.617	4991.75
718.804	4946.7
718.991	4989.71
719.179	5126.92
719.366	5100.3
719.553	5102.34
719.74	4907.79
719.927	5192.45
720.114	4956.94
720.301	5090.06
720.488	5159.69
720.676	5137.16
720.863	5292.8
721.05	5313.28
721.237	5229.32
721.424	5364.48
721.611	5184.26
721.798	5212.93
721.985	5167.88
722.172	5266.18
722.358	5036.81
722.545	5387.01
722.732	5212.93
722.919	5421.83
723.106	5294.85
723.293	5323.52
723.48	5380.87
723.667	5387.01
723.853	5440.26
724.04	5479.17
724.227	5358.34
724.414	5503.75
724.6	5487.36
724.787	5513.99
724.974	5577.47
725.161	5460.74
725.347	5387.01
725.534	5491.46
725.72	5638.91
725.907	5577.47
726.094	5505.79
726.28	5468.93
726.467	5571.33
726.653	5432.07
726.84	5780.22
727.027	5759.74
727.213	5612.29
727.4	5698.3
727.586	5616.38
727.773	5780.22
727.959	5722.88
728.145	5878.52
728.332	5796.6
728.518	5802.75
728.705	5905.15
728.891	5872.38
729.077	5856
729.264	5817.08
729.45	6048.51
729.636	6056.7
729.823	5921.53
730.009	6044.41
730.195	5993.21
730.382	5858.04
730.568	5888.76
730.754	5946.11
730.94	5909.24
731.126	6093.56
731.313	6150.9
731.499	6109.94
731.685	5929.72
731.871	6019.83
732.057	6171.38
732.243	6095.61
732.429	6001.4
732.615	6075.13
732.801	6038.27
732.987	6167.29
733.173	6120.18
733.359	6118.14
733.545	6109.94
733.731	5925.63
733.917	6048.51
734.103	6081.27
734.289	6304.5
734.475	6155
734.661	6134.52
734.847	6165.24
735.033	6222.58
735.219	6224.63
735.404	6025.98
735.59	6140.66
735.776	6107.9
735.962	6392.56
736.148	6175.48
736.333	6173.43
736.519	6060.79
736.705	6253.3
736.89	6257.4
737.076	6263.54
737.262	6177.53
737.447	6388.47
737.633	6144.76
737.819	6132.47
738.004	6138.62
738.19	6261.49
738.375	6198.01
738.561	6042.36
738.747	6224.63
738.932	6105.85
739.118	6200.05
739.303	6175.48
739.489	6114.04
739.674	6073.08
739.859	6089.46
740.045	6109.94
740.23	6179.58
740.416	6013.69
740.601	6306.55
740.786	6114.04
740.972	5958.39
741.157	5937.91
741.342	5794.56
741.528	6093.56
741.713	6025.98
741.898	6181.62
742.084	5911.29
742.269	5989.11
742.454	5964.54
742.639	5972.73
742.824	5741.31
743.01	5970.68
743.195	5749.5
743.38	5819.13
743.565	5827.32
743.75	5837.56
743.935	5716.73
744.12	5790.46
744.305	5696.25
744.49	5651.2
744.675	5602.05
744.86	5700.35
745.045	5589.76
745.23	5511.94
745.415	5446.4
745.6	5624.58
745.785	5470.98
745.97	5597.95
746.155	5477.12
746.34	5470.98
746.525	5155.59
746.71	5446.4
746.895	5460.74
747.079	5444.35
747.264	5356.29
747.449	5315.33
747.634	5225.22
747.819	5378.82
748.003	5196.55
748.188	5042.95
748.373	4932.36
748.557	5147.4
748.742	5102.34
748.927	5010.18
749.111	5032.71
749.296	4864.78
749.481	5053.19
749.665	4856.59
749.85	4872.97
750.034	4918.03
750.219	4901.64
750.404	4662.03
750.588	4789
750.773	4588.3
750.957	4623.12
751.141	4619.02
751.326	4547.34
751.51	4592.4
751.695	4553.49
751.879	4594.45
752.064	4483.86
752.248	4469.52
752.432	4573.97
752.617	4496.14
752.801	4307.73
752.985	4381.46
753.17	4305.68
753.354	4264.72
753.538	4373.27
753.722	4160.28
753.907	4172.57
754.091	4047.64
754.275	4217.62
754.459	4193.05
754.643	4078.36
754.828	3947.29
755.012	4102.93
755.196	3937.05
755.38	4047.64
755.564	3848.99
755.748	3873.56
755.932	3855.13
756.116	3932.95
756.3	3736.35
756.484	3980.06
756.668	3717.92
756.852	3724.06
757.036	3820.32
757.22	3746.59
757.404	3746.59
757.588	3607.33
757.772	3554.08
757.956	3619.61
758.14	3599.13
758.323	3527.46
758.507	3560.22
758.691	3511.07
758.875	3552.03
759.059	3451.68
759.242	3418.91
759.426	3443.49
759.61	3322.66
759.794	3271.46
759.977	3363.62
760.161	3345.19
760.345	3377.95
760.528	3126.05
760.712	3281.7
760.895	3189.54
761.079	3099.43
761.263	3193.64
761.446	3085.09
761.63	3119.91
761.813	3042.09
761.997	3037.99
762.18	3093.29
762.364	3052.33
762.547	3076.9
762.731	2941.74
762.914	3040.04
763.098	3027.75
763.281	3060.52
763.464	2994.98
763.648	2927.4
763.831	2841.39
764.015	2853.67
764.198	2900.78
764.381	2906.92
764.564	2951.98
764.748	2788.14
764.931	2767.66
765.114	2822.95
765.297	2833.19
765.481	2652.97
765.664	2810.67
765.847	2698.03
766.03	2845.48
766.213	2693.93
766.397	2712.36
766.58	2612.01
766.763	2632.49
766.946	2603.82
767.129	2579.25
767.312	2630.45
767.495	2544.43
767.678	2513.71
767.861	2642.73
768.044	2515.76
768.227	2528.05
768.41	2558.77
768.593	2503.47
768.776	2595.63
768.959	2626.35
769.142	2415.41
769.324	2323.25
769.507	2351.92
769.69	2401.07
769.873	2386.74
770.056	2409.26
770.239	2456.37
770.421	2341.68
770.604	2415.41
770.787	2329.39
770.97	2431.79
771.152	2356.02
771.335	2411.31
771.518	2263.86
771.7	2298.67
771.883	2396.98
772.066	2188.08
772.248	2161.46
772.431	2298.67
772.613	2214.71
772.796	2161.46
772.978	2181.94
773.161	2147.12
773.343	2069.3
773.526	2192.18
773.708	2069.3
773.891	2091.83
774.073	2095.93
774.256	2011.96
774.438	2114.36
774.621	2095.93
774.803	2087.73
774.985	1989.43
775.168	1993.53
775.35	1952.57
775.532	1835.83
775.715	1907.51
775.897	1971
776.079	1825.59
776.261	1798.97
776.444	1882.94
776.626	1743.67
776.808	1805.11
776.99	1784.63
777.173	1841.98
777.355	1682.24
777.537	1817.4
777.719	1805.11
777.901	1760.06
778.083	1676.09
778.265	1694.52
778.447	1682.24
778.629	1643.32
778.811	1622.84
778.993	1708.86
779.175	1612.6
779.357	1612.6
779.539	1596.22
779.721	1669.95
779.903	1618.75
780.085	1645.37
780.267	1581.89
780.449	1569.6
780.631	1489.73
780.812	1536.83
780.994	1497.92
781.176	1504.06
781.358	1340.22
781.54	1493.82
781.721	1465.15
781.903	1391.42
782.085	1403.71
782.267	1366.85
782.448	1325.89
782.63	1227.59
782.812	1383.23
782.993	1334.08
783.175	1307.46
783.357	1323.84
783.538	1383.23
783.72	1317.7
783.901	1254.21
784.083	1260.35
784.264	1256.26
784.446	1280.83
784.627	1243.97
784.809	1243.97
784.99	1188.68
785.172	1086.28
785.353	1211.2
785.535	1153.86
785.716	1145.67
785.897	1180.48
786.079	1174.34
786.26	1176.39
786.441	1200.96
786.623	1096.52
786.804	1088.32
786.985	1094.47
787.167	1162.05
787.348	1049.41
787.529	1071.94
787.71	1071.94
787.891	1096.52
788.073	979.78
788.254	1053.51
788.435	1030.98
788.616	1018.69
788.797	1035.08
788.978	1055.56
789.159	973.64
789.34	990.02
789.522	955.21
789.703	920.39
789.884	973.64
790.065	1004.36
790.246	981.83
790.427	944.97
790.607	1010.5
790.788	1024.84
790.969	899.91
791.15	1006.41
791.331	914.25
791.512	936.78
791.693	957.25
791.874	867.14
792.054	895.82
792.235	904.01
792.416	822.09
792.597	897.86
792.778	850.76
792.958	865.1
793.139	836.42
793.32	867.14
793.5	836.42
793.681	897.86
793.862	797.51
794.042	822.09
794.223	779.08
794.404	850.76
794.584	768.84
794.765	817.99
794.945	791.37
795.126	754.51
795.306	785.23
795.487	789.32
795.667	666.44
795.848	754.51
796.028	703.31
796.209	701.26
796.389	756.55
796.57	748.36
796.75	682.83
796.93	742.22
797.111	664.4
797.291	662.35
797.471	686.92
797.652	654.16
797.832	678.73
798.012	635.72
798.192	588.62
798.373	666.44
798.553	635.72
798.733	721.74
798.913	629.58
799.093	691.02
799.274	750.41
799.454	641.87
799.634	641.87
799.814	609.1
799.994	641.87
800.174	709.45
800.354	572.24
800.534	506.7
800.714	662.35
800.894	539.47
801.074	588.62
801.254	586.57
801.434	607.05
801.614	576.33
801.794	660.3
801.974	1278.79
802.154	576.33
802.334	654.16
802.514	570.19
802.693	473.93
802.873	553.8
803.053	521.04
803.233	572.24
803.413	523.09
803.592	490.32
803.772	514.89
803.952	504.65
804.131	514.89
804.311	562
804.491	555.85
804.67	510.8
804.85	576.33
805.03	568.14
805.209	547.66
805.389	527.18
805.568	539.47
805.748	514.89
805.928	455.5
806.107	451.41
806.287	541.52
806.466	437.07
806.646	424.78
806.825	453.45
807.004	537.42
807.184	547.66
807.363	484.17
807.543	535.37
807.722	465.74
807.901	457.55
808.081	475.98
808.26	441.17
808.439	457.55
808.619	514.89
808.798	418.64
808.977	500.56
809.156	432.97
809.336	514.89
809.515	494.41
809.694	480.08
809.873	482.13
810.052	396.11
810.231	471.89
810.411	422.73
810.59	514.89
810.769	449.36
810.948	447.31
811.127	416.59
811.306	498.51
811.485	402.26
811.664	449.36
811.843	422.73
812.022	371.54
812.201	453.45
812.38	332.62
812.559	342.86
812.737	414.54
812.916	420.69
813.095	353.1
813.274	428.88
813.453	381.78
813.632	432.97
813.811	430.93
813.989	349.01
814.168	408.4
814.347	408.4
814.526	416.59
814.704	449.36
814.883	353.1
815.062	416.59
815.24	478.03
815.419	383.82
815.598	351.06
815.776	297.81
815.955	396.11
816.133	357.2
816.312	326.48
816.49	314.19
816.669	346.96
816.847	404.3
817.026	392.02
817.204	275.28
817.383	351.06
817.561	291.66
817.74	383.82
817.918	346.96
818.097	269.14
818.275	297.81
818.453	357.2
818.632	359.25
818.81	232.27
818.988	318.29
819.167	248.66
819.345	342.86
819.523	271.19
819.701	275.28
819.879	269.14
820.058	279.38
820.236	310.1
820.414	324.43
820.592	269.14
820.77	297.81
820.948	297.81
821.127	316.24
821.305	293.71
821.483	209.75
821.661	303.95
821.839	308.05
822.017	275.28
822.195	332.62
822.373	326.48
822.551	293.71
822.729	326.48
822.907	203.6
823.085	326.48
823.262	267.09
823.44	195.41
823.618	267.09
823.796	306
823.974	293.71
824.152	246.61
824.329	224.08
824.507	340.82
824.685	275.28
824.863	219.99
825.04	260.95
825.218	281.43
825.396	301.9
825.574	269.14
825.751	197.46
825.929	281.43
826.107	232.27
826.284	191.31
826.462	246.61
826.639	236.37
826.817	201.55
826.994	248.66
827.172	207.7
827.349	273.23
827.527	244.56
827.704	244.56
827.882	273.23
828.059	316.24
828.237	195.41
828.414	377.68
828.591	144.21
828.769	283.47
828.946	244.56
829.124	207.7
829.301	260.95
829.478	170.83
829.655	217.94
829.833	183.12
830.01	168.79
830.187	289.62
830.364	162.64
830.542	244.56
830.719	195.41
830.896	293.71
831.073	119.64
831.25	250.71
831.427	318.29
831.604	201.55
831.782	129.88
831.959	191.31
832.136	244.56
832.313	129.88
832.49	248.66
832.667	162.64
832.844	240.47
833.021	269.14
833.198	146.26
833.374	215.89
833.551	179.03
833.728	230.23
833.905	185.17
834.082	195.41
834.259	183.12
834.436	211.79
834.612	195.41
834.789	207.7
834.966	142.16
835.143	199.51
835.319	174.93
835.496	136.02
835.673	156.5
835.85	168.79
836.026	152.4
836.203	146.26
836.38	176.98
836.556	183.12
836.733	176.98
836.909	201.55
837.086	138.07
837.262	119.64
837.439	244.56
837.616	158.55
837.792	187.22
837.968	201.55
838.145	101.2
838.321	209.75
838.498	131.92
838.674	164.69
838.851	138.07
839.027	160.59
839.203	187.22
839.38	179.03
839.556	99.16
839.732	88.92
839.909	129.88
840.085	160.59
840.261	66.39
840.437	191.31
840.614	154.45
840.79	131.92
840.966	113.49
841.142	172.88
841.318	152.4
841.494	64.34
841.671	86.87
841.847	127.83
842.023	133.97
842.199	170.83
842.375	156.5
842.551	47.96
842.727	121.68
842.903	189.27
843.079	125.78
843.255	154.45
843.431	74.58
843.607	189.27
843.783	45.91
843.959	105.3
844.134	121.68
844.31	168.79
844.486	121.68
844.662	146.26
844.838	125.78
845.013	203.6
845.189	86.87
845.365	205.65
845.541	148.31
845.716	113.49
845.892	174.93
846.068	88.92
846.244	127.83
846.419	123.73
846.595	105.3
846.77	125.78
846.946	129.88
847.122	66.39
847.297	174.93
847.473	101.2
847.648	93.01
847.824	160.59
847.999	90.96
848.175	90.96
848.35	60.24
848.526	119.64
848.701	105.3
848.876	88.92
849.052	166.74
849.227	109.4
849.403	45.91
849.578	-3.24
849.753	86.87
849.929	127.83
850.104	64.34
850.279	152.4
850.454	109.4
850.63	138.07
850.805	101.2
850.98	93.01
851.155	97.11
851.33	86.87
851.505	80.72
851.681	113.49
851.856	80.72
852.031	129.88
852.206	90.96
852.381	121.68
852.556	72.53
852.731	121.68
852.906	60.24
853.081	84.82
853.256	111.44
853.431	68.44
853.606	117.59
853.781	111.44
853.956	74.58
854.131	150.36
854.305	68.44
854.48	7
854.655	54.1
854.83	111.44
855.005	-5.29
855.18	43.86
855.354	107.35
855.529	11.09
855.704	88.92
855.879	101.2
856.053	21.33
856.228	88.92
856.403	11.09
856.577	152.4
856.752	43.86
856.926	64.34
857.101	95.06
857.276	80.72
857.45	86.87
857.625	121.68
857.799	127.83
857.974	43.86
858.148	97.11
858.323	13.14
858.497	17.24
858.672	11.09
858.846	58.2
859.02	140.12
859.195	7
859.369	105.3
859.543	33.62
859.718	58.2
859.892	2.9
860.066	72.53
860.241	64.34
860.415	97.11
860.589	56.15
860.763	80.72
860.938	19.29
861.112	68.44
861.286	93.01
861.46	47.96
861.634	107.35
861.808	29.52
861.982	56.15
862.157	62.29
862.331	82.77
862.505	35.67
862.679	13.14
862.853	76.63
863.027	39.76
863.201	86.87
863.375	19.29
863.549	74.58
863.722	15.19
863.896	150.36
864.07	17.24
864.244	-40.11
864.418	-11.43
864.592	68.44
864.766	101.2
864.939	-1.19
865.113	2.9
865.287	66.39
865.461	35.67
865.634	76.63
865.808	113.49
865.982	47.96
866.156	64.34
866.329	-17.58
866.503	88.92
866.676	64.34
866.85	45.91
867.024	54.1
867.197	31.57
867.371	125.78
867.544	90.96
867.718	58.2
867.891	78.68
868.065	4.95
868.238	23.38
868.412	72.53
868.585	31.57
868.759	45.91
868.932	54.1
869.105	11.09
869.279	0.85
869.452	2.9
869.625	54.1
869.799	56.15
869.972	-17.58
870.145	80.72
870.319	117.59
870.492	60.24
870.665	19.29
870.838	11.09
871.011	-36.01
871.185	15.19
871.358	-9.39
871.531	58.2
871.704	103.25
871.877	7
872.05	52.05
872.223	-33.96
872.396	66.39
872.569	70.48
872.742	56.15
872.915	78.68
873.088	0.85
873.261	23.38
873.434	9.05
873.607	35.67
873.78	70.48
873.953	43.86
874.126	60.24
874.299	39.76
874.471	-1.19
874.644	64.34
874.817	27.48
874.99	54.1
875.163	-23.72
875.335	97.11
875.508	9.05
875.681	62.29
875.853	15.19
876.026	39.76
876.199	11.09
876.371	0.85
876.544	84.82
876.717	25.43
876.889	7
877.062	72.53
877.234	-23.72
877.407	25.43
877.579	15.19
877.752	88.92
877.924	54.1
878.097	19.29
878.269	2.9
878.442	62.29
878.614	64.34
878.786	45.91
878.959	23.38
879.131	62.29
879.303	23.38
879.476	-5.29
879.648	80.72
879.82	52.05
879.993	41.81
880.165	-36.01
880.337	-31.91
880.509	-38.06
880.681	0.85
880.854	-17.58
881.026	45.91
881.198	131.92
881.37	-3.24
881.542	33.62
881.714	-40.11
881.886	-25.77
882.058	15.19
882.23	37.72
882.402	2.9
882.574	11.09
882.746	60.24
882.918	17.24
883.09	19.29
883.262	60.24
883.434	35.67
883.606	-58.54
883.778	66.39
883.95	23.38
884.122	23.38
884.293	37.72
884.465	47.96
884.637	39.76
884.809	-19.63
884.98	35.67
885.152	-11.43
885.324	4.95
885.496	-11.43
885.667	13.14
885.839	33.62
886.011	68.44
886.182	9.05
886.354	-15.53
886.525	-1.19
886.697	54.1
886.869	-1.19
887.04	78.68
887.212	50
887.383	160.59
887.555	35.67
887.726	-7.34
887.897	19.29
888.069	15.19
888.24	45.91
888.412	-29.87
888.583	-13.48
888.754	52.05
888.926	-44.2
889.097	7
889.268	-9.39
889.44	23.38
889.611	23.38
889.782	-36.01
889.953	60.24
890.125	56.15
890.296	-33.96
890.467	21.33
890.638	50
890.809	17.24
890.98	-7.34
891.151	101.2
891.323	76.63
891.494	25.43
891.665	9.05
891.836	-29.87
892.007	21.33
892.178	84.82
892.349	-27.82
892.52	21.33
892.691	80.72
892.862	4.95
893.032	-13.48
893.203	60.24
893.374	15.19
893.545	37.72
893.716	-11.43
893.887	-5.29
894.057	33.62
894.228	47.96
894.399	7
894.57	9.05
894.74	15.19
894.911	41.81
895.082	-25.77
895.253	19.29
895.423	37.72
895.594	7
895.764	-3.24
895.935	-25.77
896.106	37.72
896.276	29.52
896.447	64.34
896.617	-9.39
896.788	2.9
896.958	21.33
897.129	21.33
897.299	23.38
897.47	-5.29
897.64	-9.39
897.81	15.19
897.981	7
898.151	15.19
898.322	70.48
898.492	7
898.662	-21.67
898.832	15.19
899.003	76.63
899.173	84.82
899.343	-58.54
899.513	7
