Data from USB4F104151__55__11-30-36-962.txt Node

Date: Fri Mar 14 11:30:36 EDT 2025
User: louis
Spectrometer: USB4F10415
Trigger mode: 4
Integration Time (sec): 5.000000E-2
Scans to average: 1
Electric dark correction enabled: true
Nonlinearity correction enabled: false
Boxcar width: 0
XAxis mode: Wavelengths
Number of Pixels in Spectrum: 3648
>>>>>Begin Spectral Data<<<<<
178.204	-183.29
178.424	-183.29
178.644	-183.29
178.864	-168.96
179.084	-148.48
179.304	56.32
179.524	35.84
179.744	-107.52
179.964	25.6
180.184	7.17
180.404	-27.65
180.624	35.84
180.844	-21.5
181.064	-25.6
181.283	64.51
181.503	-9.22
181.723	-33.79
181.943	-74.75
182.163	76.8
182.383	9.22
182.602	-11.26
182.822	56.32
183.042	-19.46
183.262	35.84
183.482	29.7
183.701	29.7
183.921	7.17
184.141	-29.7
184.361	58.37
184.58	11.26
184.8	19.46
185.02	-66.56
185.239	44.03
185.459	121.85
185.679	64.51
185.898	-103.42
186.118	76.8
186.338	39.94
186.557	58.37
186.777	-21.5
186.997	50.18
187.216	-1.02
187.436	37.89
187.655	31.74
187.875	-19.46
188.095	35.84
188.314	35.84
188.534	9.22
188.753	39.94
188.973	3.07
189.192	19.46
189.412	-21.5
189.631	58.37
189.851	1.02
190.07	-1.02
190.29	39.94
190.509	48.13
190.729	21.5
190.948	58.37
191.168	138.24
191.387	117.76
191.607	-5.12
191.826	-23.55
192.045	29.7
192.265	46.08
192.484	66.56
192.704	54.27
192.923	39.94
193.142	101.37
193.362	72.7
193.581	72.7
193.8	19.46
194.02	21.5
194.239	-17.41
194.458	-7.17
194.678	-9.22
194.897	44.03
195.116	33.79
195.335	13.31
195.555	-25.6
195.774	-39.94
195.993	15.36
196.212	-13.31
196.432	13.31
196.651	25.6
196.87	-33.79
197.089	128
197.308	15.36
197.528	70.65
197.747	-64.51
197.966	-3.07
198.185	72.7
198.404	44.03
198.623	46.08
198.842	-1.02
199.062	-13.31
199.281	115.71
199.5	37.89
199.719	29.7
199.938	39.94
200.157	-25.6
200.376	-21.5
200.595	60.42
200.814	7.17
201.033	-33.79
201.252	64.51
201.471	5.12
201.69	37.89
201.909	23.55
202.128	64.51
202.347	7.17
202.566	11.26
202.785	17.41
203.004	64.51
203.223	87.04
203.442	48.13
203.661	-25.6
203.879	31.74
204.098	25.6
204.317	-78.85
204.536	-1.02
204.755	21.5
204.974	70.65
205.193	19.46
205.411	56.32
205.63	-50.18
205.849	15.36
206.068	-5.12
206.287	11.26
206.505	39.94
206.724	-25.6
206.943	23.55
207.162	-27.65
207.381	-17.41
207.599	-11.26
207.818	50.18
208.037	48.13
208.255	15.36
208.474	-11.26
208.693	72.7
208.911	3.07
209.13	74.75
209.349	35.84
209.567	-17.41
209.786	132.09
210.005	-25.6
210.223	41.98
210.442	11.26
210.661	-25.6
210.879	15.36
211.098	13.31
211.316	-13.31
211.535	31.74
211.753	-31.74
211.972	-29.7
212.191	-21.5
212.409	19.46
212.628	-15.36
212.846	3.07
213.065	21.5
213.283	37.89
213.502	31.74
213.72	-13.31
213.938	-3.07
214.157	44.03
214.375	72.7
214.594	64.51
214.812	-17.41
215.031	15.36
215.249	-23.55
215.467	123.9
215.686	21.5
215.904	5.12
216.122	-19.46
216.341	21.5
216.559	-33.79
216.778	11.26
216.996	64.51
217.214	78.85
217.432	-11.26
217.651	-33.79
217.869	56.32
218.087	-1.02
218.306	48.13
218.524	44.03
218.742	15.36
218.96	62.46
219.179	25.6
219.397	23.55
219.615	93.18
219.833	54.27
220.051	44.03
220.27	56.32
220.488	27.65
220.706	11.26
220.924	64.51
221.142	48.13
221.36	37.89
221.578	39.94
221.796	-58.37
222.015	-9.22
222.233	9.22
222.451	21.5
222.669	33.79
222.887	27.65
223.105	-25.6
223.323	-70.65
223.541	-50.18
223.759	29.7
223.977	1.02
224.195	80.89
224.413	11.26
224.631	21.5
224.849	-9.22
225.067	29.7
225.285	5.12
225.503	7.17
225.721	-99.33
225.939	66.56
226.157	-27.65
226.375	105.47
226.592	1.02
226.81	-1.02
227.028	-9.22
227.246	156.67
227.464	-91.13
227.682	62.46
227.9	35.84
228.117	48.13
228.335	97.28
228.553	31.74
228.771	113.66
228.989	11.26
229.206	64.51
229.424	95.23
229.642	3.07
229.86	46.08
230.077	60.42
230.295	-33.79
230.513	121.85
230.731	-1.02
230.948	52.22
231.166	138.24
231.384	-50.18
231.601	-50.18
231.819	119.81
232.037	15.36
232.254	37.89
232.472	97.28
232.689	21.5
232.907	48.13
233.125	9.22
233.342	-11.26
233.56	-21.5
233.777	-5.12
233.995	68.61
234.213	58.37
234.43	23.55
234.648	80.89
234.865	9.22
235.083	23.55
235.3	29.7
235.518	15.36
235.735	60.42
235.953	76.8
236.17	15.36
236.388	-15.36
236.605	23.55
236.822	31.74
237.04	68.61
237.257	-9.22
237.475	-33.79
237.692	-50.18
237.909	33.79
238.127	-11.26
238.344	3.07
238.562	21.5
238.779	-13.31
238.996	-25.6
239.214	29.7
239.431	11.26
239.648	-33.79
239.865	-3.07
240.083	101.37
240.3	9.22
240.517	39.94
240.735	54.27
240.952	78.85
241.169	23.55
241.386	37.89
241.603	48.13
241.821	56.32
242.038	48.13
242.255	68.61
242.472	-9.22
242.689	44.03
242.907	13.31
243.124	80.89
243.341	64.51
243.558	-9.22
243.775	-9.22
243.992	-1.02
244.209	35.84
244.426	19.46
244.643	80.89
244.86	-13.31
245.078	46.08
245.295	19.46
245.512	25.6
245.729	-29.7
245.946	39.94
246.163	37.89
246.38	29.7
246.597	44.03
246.814	-21.5
247.031	11.26
247.248	-33.79
247.464	121.85
247.681	25.6
247.898	80.89
248.115	60.42
248.332	-23.55
248.549	7.17
248.766	11.26
248.983	41.98
249.2	7.17
249.417	80.89
249.633	21.5
249.85	17.41
250.067	-41.98
250.284	-11.26
250.501	64.51
250.717	35.84
250.934	9.22
251.151	9.22
251.368	-66.56
251.585	27.65
251.801	-17.41
252.018	31.74
252.235	150.53
252.451	31.74
252.668	-44.03
252.885	48.13
253.102	64.51
253.318	-9.22
253.535	3.07
253.752	-54.27
253.968	48.13
254.185	-46.08
254.401	72.7
254.618	-11.26
254.835	31.74
255.051	35.84
255.268	39.94
255.484	3.07
255.701	-23.55
255.917	78.85
256.134	-31.74
256.351	48.13
256.567	-33.79
256.784	52.22
257	-21.5
257.217	60.42
257.433	-5.12
257.65	111.61
257.866	95.23
258.082	-1.02
258.299	25.6
258.515	72.7
258.732	44.03
258.948	-3.07
259.165	117.76
259.381	37.89
259.597	46.08
259.814	31.74
260.03	-52.22
260.246	-41.98
260.463	23.55
260.679	41.98
260.895	5.12
261.112	58.37
261.328	52.22
261.544	13.31
261.761	113.66
261.977	-27.65
262.193	19.46
262.409	17.41
262.626	35.84
262.842	66.56
263.058	50.18
263.274	46.08
263.49	52.22
263.707	31.74
263.923	72.7
264.139	7.17
264.355	-5.12
264.571	87.04
264.787	19.46
265.004	117.76
265.22	44.03
265.436	-11.26
265.652	-50.18
265.868	-15.36
266.084	-11.26
266.3	52.22
266.516	23.55
266.732	-41.98
266.948	64.51
267.164	-23.55
267.38	9.22
267.596	27.65
267.812	154.62
268.028	5.12
268.244	56.32
268.46	-3.07
268.676	21.5
268.892	35.84
269.108	66.56
269.324	15.36
269.54	11.26
269.756	23.55
269.972	-9.22
270.188	-11.26
270.403	-17.41
270.619	70.65
270.835	58.37
271.051	27.65
271.267	-7.17
271.483	52.22
271.698	72.7
271.914	56.32
272.13	-29.7
272.346	35.84
272.562	-1.02
272.777	21.5
272.993	19.46
273.209	35.84
273.425	31.74
273.64	-123.9
273.856	64.51
274.072	-15.36
274.287	-17.41
274.503	60.42
274.719	31.74
274.934	-9.22
275.15	-128
275.366	-13.31
275.581	7.17
275.797	-21.5
276.012	37.89
276.228	-37.89
276.444	-41.98
276.659	39.94
276.875	31.74
277.09	60.42
277.306	1.02
277.521	7.17
277.737	-54.27
277.952	56.32
278.168	39.94
278.383	-9.22
278.599	11.26
278.814	56.32
279.03	-11.26
279.245	76.8
279.461	72.7
279.676	68.61
279.892	-5.12
280.107	70.65
280.322	-25.6
280.538	39.94
280.753	64.51
280.969	29.7
281.184	19.46
281.399	130.05
281.615	-33.79
281.83	31.74
282.045	-25.6
282.26	19.46
282.476	25.6
282.691	80.89
282.906	-25.6
283.122	15.36
283.337	5.12
283.552	23.55
283.767	27.65
283.983	17.41
284.198	46.08
284.413	21.5
284.628	19.46
284.843	62.46
285.058	23.55
285.274	15.36
285.489	-50.18
285.704	31.74
285.919	56.32
286.134	-31.74
286.349	-21.5
286.564	23.55
286.779	35.84
286.995	21.5
287.21	-37.89
287.425	54.27
287.64	13.31
287.855	58.37
288.07	39.94
288.285	56.32
288.5	15.36
288.715	31.74
288.93	21.5
289.145	72.7
289.36	-3.07
289.575	11.26
289.79	89.09
290.004	-52.22
290.219	29.7
290.434	-9.22
290.649	-66.56
290.864	-19.46
291.079	21.5
291.294	17.41
291.509	7.17
291.724	56.32
291.938	-11.26
292.153	103.42
292.368	-5.12
292.583	37.89
292.798	-46.08
293.012	-58.37
293.227	-1.02
293.442	52.22
293.657	103.42
293.871	101.37
294.086	31.74
294.301	37.89
294.516	7.17
294.73	33.79
294.945	-93.18
295.16	-15.36
295.374	-35.84
295.589	-1.02
295.804	11.26
296.018	-15.36
296.233	105.47
296.447	103.42
296.662	95.23
296.877	29.7
297.091	27.65
297.306	9.22
297.52	-13.31
297.735	13.31
297.949	33.79
298.164	56.32
298.378	39.94
298.593	-52.22
298.807	-13.31
299.022	-48.13
299.236	11.26
299.451	35.84
299.665	-17.41
299.88	56.32
300.094	39.94
300.309	-9.22
300.523	44.03
300.737	-82.94
300.952	39.94
301.166	-1.02
301.381	-1.02
301.595	-60.42
301.809	62.46
302.024	-25.6
302.238	3.07
302.452	68.61
302.667	52.22
302.881	3.07
303.095	23.55
303.309	123.9
303.524	-5.12
303.738	72.7
303.952	-31.74
304.166	31.74
304.381	-31.74
304.595	48.13
304.809	-46.08
305.023	58.37
305.237	7.17
305.452	21.5
305.666	11.26
305.88	35.84
306.094	35.84
306.308	80.89
306.522	46.08
306.736	41.98
306.95	62.46
307.164	3.07
307.379	-13.31
307.593	39.94
307.807	35.84
308.021	15.36
308.235	58.37
308.449	-84.99
308.663	60.42
308.877	56.32
309.091	29.7
309.305	-44.03
309.519	-3.07
309.733	56.32
309.947	-27.65
310.161	48.13
310.374	70.65
310.588	58.37
310.802	56.32
311.016	5.12
311.23	-35.84
311.444	-25.6
311.658	3.07
311.872	52.22
312.085	56.32
312.299	48.13
312.513	70.65
312.727	76.8
312.941	-9.22
313.154	48.13
313.368	23.55
313.582	41.98
313.796	31.74
314.009	5.12
314.223	-39.94
314.437	31.74
314.651	31.74
314.864	-9.22
315.078	23.55
315.292	-19.46
315.505	13.31
315.719	95.23
315.933	44.03
316.146	80.89
316.36	-17.41
316.573	21.5
316.787	74.75
317.001	68.61
317.214	17.41
317.428	80.89
317.641	-46.08
317.855	97.28
318.068	33.79
318.282	11.26
318.495	72.7
318.709	134.14
318.922	27.65
319.136	66.56
319.349	78.85
319.563	13.31
319.776	-41.98
319.99	44.03
320.203	48.13
320.417	84.99
320.63	44.03
320.843	56.32
321.057	111.61
321.27	48.13
321.483	29.7
321.697	97.28
321.91	54.27
322.124	19.46
322.337	70.65
322.55	-17.41
322.763	121.85
322.977	87.04
323.19	37.89
323.403	1.02
323.617	13.31
323.83	97.28
324.043	-1.02
324.256	68.61
324.469	-13.31
324.683	56.32
324.896	13.31
325.109	-5.12
325.322	-58.37
325.535	95.23
325.748	56.32
325.962	13.31
326.175	62.46
326.388	54.27
326.601	39.94
326.814	72.7
327.027	-5.12
327.24	113.66
327.453	31.74
327.666	15.36
327.879	46.08
328.092	11.26
328.305	1.02
328.518	19.46
328.731	-9.22
328.944	-9.22
329.157	-17.41
329.37	-13.31
329.583	39.94
329.796	113.66
330.009	-66.56
330.222	35.84
330.435	89.09
330.648	56.32
330.861	3.07
331.073	-9.22
331.286	101.37
331.499	60.42
331.712	-11.26
331.925	-19.46
332.138	80.89
332.35	78.85
332.563	-15.36
332.776	56.32
332.989	-39.94
333.202	74.75
333.414	31.74
333.627	-7.17
333.84	-9.22
334.053	-3.07
334.265	-37.89
334.478	25.6
334.691	23.55
334.903	72.7
335.116	41.98
335.329	23.55
335.541	5.12
335.754	64.51
335.966	19.46
336.179	50.18
336.392	-9.22
336.604	31.74
336.817	35.84
337.029	9.22
337.242	80.89
337.454	46.08
337.667	-25.6
337.88	72.7
338.092	52.22
338.305	48.13
338.517	15.36
338.729	37.89
338.942	46.08
339.154	-3.07
339.367	48.13
339.579	68.61
339.792	7.17
340.004	70.65
340.217	46.08
340.429	-29.7
340.641	19.46
340.854	15.36
341.066	15.36
341.278	19.46
341.491	80.89
341.703	68.61
341.915	-3.07
342.128	15.36
342.34	21.5
342.552	80.89
342.764	56.32
342.977	80.89
343.189	-37.89
343.401	-66.56
343.613	-37.89
343.826	56.32
344.038	-19.46
344.25	72.7
344.462	-13.31
344.674	27.65
344.886	48.13
345.099	115.71
345.311	-19.46
345.523	-17.41
345.735	-9.22
345.947	128
346.159	-58.37
346.371	48.13
346.583	19.46
346.795	39.94
347.007	-31.74
347.219	54.27
347.431	33.79
347.643	125.95
347.855	15.36
348.067	56.32
348.279	-56.32
348.491	15.36
348.703	97.28
348.915	50.18
349.127	5.12
349.339	-13.31
349.551	29.7
349.763	19.46
349.975	89.09
350.187	9.22
350.399	23.55
350.61	15.36
350.822	11.26
351.034	80.89
351.246	46.08
351.458	68.61
351.669	-1.02
351.881	132.09
352.093	54.27
352.305	70.65
352.517	-1.02
352.728	111.61
352.94	50.18
353.152	117.76
353.363	15.36
353.575	97.28
353.787	80.89
353.999	72.7
354.21	119.81
354.422	-54.27
354.633	39.94
354.845	-15.36
355.057	27.65
355.268	70.65
355.48	-46.08
355.692	-19.46
355.903	19.46
356.115	89.09
356.326	-66.56
356.538	84.99
356.749	-13.31
356.961	72.7
357.172	31.74
357.384	7.17
357.595	17.41
357.807	-9.22
358.018	35.84
358.23	15.36
358.441	87.04
358.653	46.08
358.864	3.07
359.075	50.18
359.287	19.46
359.498	119.81
359.709	70.65
359.921	5.12
360.132	-35.84
360.344	44.03
360.555	35.84
360.766	64.51
360.977	19.46
361.189	35.84
361.4	31.74
361.611	-25.6
361.823	37.89
362.034	128
362.245	-29.7
362.456	25.6
362.667	48.13
362.879	41.98
363.09	5.12
363.301	31.74
363.512	87.04
363.723	70.65
363.935	-31.74
364.146	80.89
364.357	-25.6
364.568	48.13
364.779	-82.94
364.99	9.22
365.201	-7.17
365.412	60.42
365.623	-27.65
365.834	-9.22
366.045	13.31
366.256	7.17
366.467	29.7
366.678	-23.55
366.889	7.17
367.1	27.65
367.311	-25.6
367.522	46.08
367.733	56.32
367.944	80.89
368.155	56.32
368.366	150.53
368.577	-1.02
368.788	33.79
368.999	-27.65
369.209	62.46
369.42	72.7
369.631	121.85
369.842	158.72
370.053	-54.27
370.264	80.89
370.474	11.26
370.685	-9.22
370.896	19.46
371.107	87.04
371.317	58.37
371.528	-29.7
371.739	-3.07
371.95	48.13
372.16	37.89
372.371	56.32
372.582	37.89
372.792	-31.74
373.003	91.13
373.214	91.13
373.424	39.94
373.635	-31.74
373.846	125.95
374.056	17.41
374.267	27.65
374.477	46.08
374.688	29.7
374.898	56.32
375.109	50.18
375.319	39.94
375.53	35.84
375.74	37.89
375.951	80.89
376.161	35.84
376.372	21.5
376.582	-1.02
376.793	87.04
377.003	-27.65
377.214	-1.02
377.424	7.17
377.635	-35.84
377.845	15.36
378.055	101.37
378.266	9.22
378.476	23.55
378.686	27.65
378.897	84.99
379.107	-3.07
379.317	60.42
379.528	54.27
379.738	19.46
379.948	25.6
380.158	-5.12
380.369	15.36
380.579	72.7
380.789	46.08
380.999	19.46
381.21	105.47
381.42	130.05
381.63	-41.98
381.84	-1.02
382.05	80.89
382.261	113.66
382.471	113.66
382.681	-31.74
382.891	62.46
383.101	56.32
383.311	37.89
383.521	7.17
383.731	37.89
383.941	84.99
384.151	31.74
384.361	5.12
384.571	74.75
384.781	70.65
384.991	117.76
385.201	95.23
385.411	56.32
385.621	56.32
385.831	-17.41
386.041	46.08
386.251	13.31
386.461	35.84
386.671	62.46
386.881	78.85
387.091	-3.07
387.301	23.55
387.511	35.84
387.72	27.65
387.93	66.56
388.14	-25.6
388.35	-1.02
388.56	48.13
388.769	21.5
388.979	13.31
389.189	-3.07
389.399	1.02
389.609	66.56
389.818	29.7
390.028	-23.55
390.238	87.04
390.447	64.51
390.657	19.46
390.867	80.89
391.076	23.55
391.286	121.85
391.496	39.94
391.705	11.26
391.915	58.37
392.125	-44.03
392.334	111.61
392.544	66.56
392.753	-7.17
392.963	60.42
393.172	105.47
393.382	-3.07
393.591	152.57
393.801	58.37
394.01	121.85
394.22	48.13
394.429	56.32
394.639	-5.12
394.848	78.85
395.058	56.32
395.267	15.36
395.477	7.17
395.686	54.27
395.895	111.61
396.105	95.23
396.314	80.89
396.524	68.61
396.733	3.07
396.942	121.85
397.152	89.09
397.361	95.23
397.57	56.32
397.78	87.04
397.989	97.28
398.198	101.37
398.407	97.28
398.617	-17.41
398.826	54.27
399.035	101.37
399.244	-1.02
399.453	138.24
399.663	89.09
399.872	46.08
400.081	44.03
400.29	93.18
400.499	46.08
400.708	144.38
400.917	44.03
401.127	91.13
401.336	89.09
401.545	121.85
401.754	84.99
401.963	103.42
402.172	62.46
402.381	7.17
402.59	89.09
402.799	171.01
403.008	121.85
403.217	74.75
403.426	123.9
403.635	72.7
403.844	58.37
404.053	113.66
404.262	48.13
404.471	166.91
404.68	187.39
404.888	89.09
405.097	113.66
405.306	115.71
405.515	146.43
405.724	117.76
405.933	117.76
406.142	119.81
406.35	109.57
406.559	142.33
406.768	128
406.977	207.87
407.185	146.43
407.394	205.82
407.603	91.13
407.812	218.11
408.02	179.2
408.229	209.92
408.438	134.14
408.646	171.01
408.855	183.29
409.064	244.73
409.272	150.53
409.481	267.26
409.69	203.77
409.898	146.43
410.107	285.69
410.315	179.2
410.524	263.16
410.733	265.21
410.941	343.03
411.15	316.41
411.358	293.88
411.567	355.32
411.775	289.79
411.984	343.03
412.192	345.08
412.401	289.79
412.609	412.67
412.818	457.72
413.026	320.51
413.234	310.27
413.443	400.38
413.651	334.84
413.86	457.72
414.068	445.43
414.276	537.59
414.485	496.63
414.693	539.64
414.901	515.06
415.11	474.1
415.318	478.2
415.526	504.82
415.734	621.56
415.943	523.26
416.151	574.46
416.359	584.7
416.567	676.85
416.776	658.42
416.984	766.96
417.192	709.62
417.4	775.16
417.608	801.78
417.817	726
418.025	826.36
418.233	889.84
418.441	920.56
418.649	955.38
418.857	979.95
419.065	1025.01
419.273	963.57
419.481	957.43
419.689	1106.93
419.897	1166.32
420.105	1168.37
420.313	1199.09
420.521	1199.09
420.729	1317.87
420.937	1258.48
421.145	1252.33
421.353	1481.71
421.561	1510.38
421.769	1391.59
421.977	1481.71
422.185	1668.07
422.393	1698.79
422.601	1706.98
422.809	1698.79
423.017	1778.66
423.224	1770.47
423.432	1872.87
423.64	1915.87
423.848	2120.67
424.056	2010.08
424.263	2083.81
424.471	2153.44
424.679	2153.44
424.887	2333.66
425.094	2438.11
425.302	2348
425.51	2335.71
425.718	2552.79
425.925	2644.95
426.133	2677.72
426.341	2821.08
426.548	2886.61
426.756	3015.63
426.964	2837.46
427.171	3242.96
427.379	3226.57
427.586	3349.45
427.794	3367.88
428.001	3724.23
428.209	3701.7
428.417	3636.17
428.624	3816.39
428.832	3951.56
429.039	3820.49
429.247	3865.54
429.454	4369.34
429.662	4592.57
429.869	4291.52
430.076	4627.39
430.284	4426.68
430.491	4676.54
430.699	4846.52
430.906	4910.01
431.114	5000.12
431.321	5219.25
431.528	5176.24
431.736	5381.04
431.943	5880.74
432.15	5628.84
432.358	5639.08
432.565	6075.3
432.772	6048.68
432.979	6286.24
433.187	6337.44
433.394	6564.76
433.601	6828.95
433.808	6831
434.016	6722.46
434.223	7201.68
434.43	7611.28
434.637	7441.29
434.844	7758.73
435.052	7928.71
435.259	8022.92
435.466	7975.81
435.673	8158.08
435.88	8637.31
436.087	8942.46
436.294	8913.78
436.501	8942.46
436.708	9141.11
436.915	9253.75
437.122	9562.99
437.329	9681.77
437.537	9937.77
437.743	10097.51
437.95	9964.39
438.157	10529.63
438.364	11123.54
438.571	10967.9
438.778	10910.55
438.985	11926.35
439.192	11375.44
439.399	11764.56
439.606	11692.88
439.813	12337.99
440.02	13157.18
440.227	12784.44
440.433	12450.63
440.64	13024.06
440.847	12897.08
441.054	13218.61
441.261	14195.5
441.467	13964.07
441.674	14394.15
441.881	14752.54
442.088	14695.2
442.294	14611.23
442.501	15053.59
442.708	15495.96
442.914	16014.09
443.121	16739.07
443.328	15913.74
443.534	17146.62
443.741	16855.81
443.948	16399.11
444.154	18010.86
444.361	17668.85
444.568	17963.76
444.774	17746.67
444.981	18143.98
445.187	18602.72
445.394	19276.51
445.6	18950.88
445.807	21002.94
446.013	19868.37
446.22	20224.72
446.426	21060.29
446.633	21365.43
446.839	21863.09
447.046	21224.12
447.252	22469.29
447.459	22481.58
447.665	22260.4
447.871	23171.74
448.078	24525.45
448.284	23231.13
448.491	24171.15
448.697	24865.41
448.903	25254.53
449.11	25227.9
449.316	24535.69
449.522	25350.78
449.728	25832.05
449.935	25997.94
450.141	25860.73
450.347	26298.99
450.553	25670.26
450.76	25932.4
450.966	27083.36
451.172	26651.24
451.378	26960.48
451.584	26958.44
451.791	27454.05
451.997	27449.95
452.203	27861.59
452.409	27714.14
452.615	27765.34
452.821	26421.87
453.027	26567.27
453.233	27732.57
453.44	26501.74
453.646	26909.29
453.852	26950.24
454.058	27150.95
454.264	26466.92
454.47	27079.27
454.676	26339.95
454.882	27220.58
455.088	24795.78
455.294	25352.83
455.5	25692.79
455.705	25999.99
455.911	24935.04
456.117	24099.47
456.323	23988.88
456.529	22633.13
456.735	23616.15
456.941	23354.01
457.147	22569.64
457.352	21834.42
457.558	21695.16
457.764	21856.95
457.97	21392.06
458.176	21039.81
458.381	20925.12
458.587	19849.94
458.793	19718.87
458.999	18948.83
459.204	20234.96
459.41	19665.62
459.616	18184.94
459.821	18232.04
460.027	18197.23
460.233	18027.24
460.438	17263.35
460.644	17298.17
460.85	16444.17
461.055	16147.21
461.261	16075.53
461.466	14992.16
461.672	14242.6
461.878	15430.42
462.083	14433.06
462.289	14283.56
462.494	13871.92
462.7	13445.94
462.905	13007.67
463.111	13566.77
463.316	13458.23
463.522	13290.29
463.727	13269.81
463.932	13208.37
464.138	13165.37
464.343	13028.15
464.549	12874.56
464.754	13212.47
464.959	12946.23
465.165	12858.17
465.37	12405.57
465.575	12200.77
465.781	12694.33
465.986	12639.04
466.191	12358.47
466.397	12104.52
466.602	11406.16
466.807	11877.19
467.012	11768.65
467.218	11774.8
467.423	11467.6
467.628	11899.72
467.833	12022.6
468.038	11914.06
468.244	11514.7
468.449	11854.67
468.654	11451.22
468.859	11256.66
469.064	11209.56
469.269	10814.3
469.474	10851.16
469.679	11416.4
469.885	10935.13
470.09	11082.58
470.295	10990.42
470.5	10490.72
470.705	10664.8
470.91	10324.83
471.115	10355.55
471.32	10476.38
471.525	10476.38
471.73	10093.41
471.935	10046.31
472.139	9624.43
472.344	9982.82
472.549	9825.13
472.754	9804.65
472.959	9395.06
473.164	9272.18
473.369	9130.87
473.574	9519.98
473.778	9386.86
473.983	9218.93
474.188	9419.63
474.393	8846.2
474.598	9024.37
474.802	8868.73
475.007	8848.25
475.212	8465.28
475.417	8620.92
475.621	8446.85
475.826	8461.18
476.031	8412.03
476.235	8274.82
476.44	8172.42
476.645	8006.53
476.849	8117.12
477.054	7799.69
477.259	7879.56
477.463	7926.66
477.668	7822.22
477.872	7795.59
478.077	7846.79
478.282	7469.97
478.486	7334.8
478.691	7336.85
478.895	7269.27
479.1	7402.38
479.304	7277.46
479.509	7125.91
479.713	7261.07
479.918	7087
480.122	7039.89
480.326	7013.27
480.531	7109.52
480.735	7052.18
480.94	6994.84
481.144	7078.8
481.348	6878.1
481.553	6968.21
481.757	6658.97
481.961	6787.99
482.166	6912.92
482.37	6816.66
482.574	6675.35
482.778	6892.44
482.983	7000.98
483.187	6962.07
483.391	6919.06
483.595	6747.03
483.8	6794.14
484.004	6697.88
484.208	6896.53
484.412	6800.28
484.616	6910.87
484.821	6828.95
485.025	6605.72
485.229	6808.47
485.433	6798.23
485.637	6826.9
485.841	6773.66
486.045	6781.85
486.249	6589.34
486.453	6787.99
486.657	6761.37
486.861	6912.92
487.065	6685.59
487.269	6765.46
487.473	6675.35
487.677	6755.22
487.881	6994.84
488.085	6738.84
488.289	6863.77
488.493	6640.54
488.697	6837.14
488.901	6937.49
489.105	6939.54
489.309	6822.81
489.512	6790.04
489.716	6857.62
489.92	6814.62
490.124	6843.29
490.328	6966.17
490.531	6966.17
490.735	6996.89
490.939	6960.02
491.143	6814.62
491.346	7011.22
491.55	7150.48
491.754	7107.48
491.958	7166.87
492.161	7015.32
492.365	7003.03
492.569	6978.45
492.772	7105.43
492.976	7236.5
493.18	7283.6
493.383	7256.98
493.587	7238.55
493.79	7357.33
493.994	7515.02
494.197	7326.61
494.401	7580.56
494.605	7371.66
494.808	7555.98
495.012	7437.2
495.215	7824.26
495.419	7842.7
495.622	7687.05
495.825	7850.89
496.029	7885.7
496.232	8256.39
496.436	8076.16
496.639	8256.39
496.843	8186.76
497.046	8395.65
497.249	8604.54
497.453	8418.18
497.656	8500.09
497.859	8647.55
498.063	8649.6
498.266	8766.33
498.469	8766.33
498.673	8795
498.876	9124.72
499.079	9096.05
499.282	9231.22
499.485	9489.26
499.689	9530.22
499.892	9737.07
500.095	9534.32
500.298	9810.79
500.501	9753.45
500.705	10017.64
500.908	10038.12
501.111	10236.77
501.314	10408.8
501.517	10455.9
501.72	10480.48
501.923	10527.58
502.126	10728.28
502.329	10877.79
502.532	10795.87
502.735	11297.62
502.938	11344.72
503.141	11586.38
503.344	11588.43
503.547	11477.84
503.75	11696.97
503.953	11762.51
504.156	12129.09
504.359	11961.16
504.562	12342.08
504.765	12571.46
504.968	12528.45
505.17	12694.33
505.373	12870.46
505.576	13069.11
505.779	13138.74
505.982	13380.4
506.185	13511.47
506.387	13341.49
506.59	13720.37
506.793	13712.17
506.996	13763.37
507.198	14496.55
507.401	14390.05
507.604	14261.03
507.807	14856.99
508.009	14908.19
508.212	14920.48
508.415	15186.71
508.617	15276.82
508.82	15581.97
509.022	15508.24
509.225	15801.1
509.428	15848.21
509.63	16198.41
509.833	15999.76
510.035	16511.75
510.238	16536.32
510.44	16663.3
510.643	16941.82
510.845	17181.43
511.048	17119.99
511.25	17427.19
511.453	17644.27
511.655	18176.75
511.858	17955.57
512.06	18291.43
512.262	18410.22
512.465	18627.3
512.667	18934.5
512.87	19370.71
513.072	19090.14
513.274	19716.82
513.477	19806.93
513.679	19905.23
513.881	19876.56
514.084	20237
514.286	20685.51
514.488	20597.45
514.69	21455.54
514.893	21183.16
515.095	21105.34
515.297	21762.74
515.499	21787.32
515.701	22119.09
515.904	22561.45
516.106	22719.14
516.308	22938.27
516.51	23292.57
516.712	23147.17
516.914	23368.35
517.116	23786.13
517.318	24029.84
517.52	24255.12
517.722	24404.62
517.925	24885.89
518.127	25086.59
518.329	25053.83
518.531	25141.89
518.733	25830.01
518.935	26108.53
519.136	26362.48
519.338	26995.3
519.54	26823.27
519.742	26909.29
519.944	27109.99
520.146	27865.69
520.348	28105.3
520.55	28320.34
520.752	28478.03
520.954	28824.14
521.155	28899.91
521.357	29571.64
521.559	29502.01
521.761	30163.51
521.963	30007.86
522.164	30640.68
522.366	30732.84
522.568	31433.25
522.77	31330.85
522.971	32094.74
523.173	31423.01
523.375	31916.57
523.576	32252.44
523.778	32635.41
523.98	32791.05
524.181	33436.16
524.383	33430.02
524.584	33421.83
524.786	33890.81
524.988	33989.11
525.189	34257.4
525.391	34531.83
525.592	34628.08
525.794	35408.36
525.995	35144.17
526.197	35598.82
526.398	35949.02
526.6	35723.74
526.801	36291.03
527.003	36356.57
527.204	36465.11
527.406	36970.96
527.607	36938.19
527.808	37573.06
528.01	36848.08
528.211	37614.02
528.412	38326.71
528.614	38087.1
528.815	37982.65
529.016	38640.05
529.218	38439.35
529.419	38519.22
529.62	38887.85
529.822	39016.88
530.023	38756.78
530.224	39154.09
530.425	39551.4
530.626	39369.13
530.828	39322.02
531.029	40149.4
531.23	39520.68
531.431	39723.43
531.632	39960.99
531.833	40034.72
532.035	40497.56
532.236	40444.31
532.437	40669.59
532.638	40552.85
532.839	40714.64
533.04	40952.21
533.241	40645.01
533.442	41517.45
533.643	40968.59
533.844	40833.42
534.045	41036.17
534.246	40980.88
534.447	41558.41
534.648	41265.55
534.849	41243.02
535.05	41369.99
535.251	41630.08
535.451	41249.16
535.652	42131.84
535.853	41621.89
536.054	41757.06
536.255	41879.94
536.456	41601.41
536.657	42287.48
536.857	41732.48
537.058	42176.89
537.259	42101.12
537.46	41970.05
537.66	41980.29
537.861	42049.92
538.062	41980.29
538.263	41968
538.463	42082.69
538.664	41984.38
538.865	42236.28
539.065	42551.67
539.266	41910.66
539.466	42733.94
539.667	41935.23
539.868	42576.25
540.068	42520.95
540.269	42316.15
540.469	42428.79
540.67	41957.76
540.87	42158.46
541.071	41849.22
541.271	42238.33
541.472	42228.09
541.672	42174.84
541.873	42498.42
542.073	41648.52
542.274	42635.64
542.474	42217.85
542.675	41937.28
542.875	42561.91
543.075	42369.4
543.276	41804.16
543.476	42629.49
543.676	41859.46
543.877	42363.26
544.077	42422.65
544.277	42162.56
544.478	42221.95
544.678	42291.58
544.878	42363.26
545.078	42541.43
545.279	41853.31
545.479	42213.76
545.679	42516.86
545.879	42246.52
546.079	42539.38
546.28	42275.19
546.48	41912.7
546.68	42453.37
546.88	42127.74
547.08	41953.66
547.28	41992.58
547.48	41904.51
547.68	42318.2
547.88	42285.43
548.081	42348.92
548.281	42246.52
548.481	41755.01
548.681	42439.03
548.881	42025.34
549.081	42107.26
549.28	41998.72
549.48	42021.25
549.68	41953.66
549.88	42482.04
550.08	42207.61
550.28	42365.31
550.48	41853.31
550.68	42365.31
550.88	42092.93
551.08	41980.29
551.279	41865.6
551.479	42033.53
551.679	42254.72
551.879	41783.68
552.079	42070.4
552.278	41724.29
552.478	41988.48
552.678	41898.37
552.878	41953.66
553.077	41912.7
553.277	41599.37
553.477	42123.65
553.676	42011.01
553.876	41814.4
554.076	41683.33
554.275	41691.52
554.475	41361.8
554.674	41935.23
554.874	41656.71
555.074	41302.41
555.273	41597.32
555.473	41828.74
555.672	40905.1
555.872	41277.83
556.071	41433.48
556.271	41607.56
556.47	41021.84
556.67	40423.83
556.869	41073.04
557.068	41038.22
557.268	40567.19
557.467	40993.17
557.667	40675.73
557.866	40794.51
558.065	40595.86
558.265	40579.48
558.464	40335.77
558.663	40415.64
558.863	39905.7
559.062	40468.89
559.261	39836.06
559.461	40276.38
559.66	39866.78
559.859	39907.74
560.058	39256.49
560.258	39823.78
560.457	39250.35
560.656	39682.47
560.855	39496.1
561.054	39287.21
561.253	38769.07
561.453	39424.42
561.652	39149.99
561.851	38937.01
562.05	38439.35
562.249	38336.95
562.448	38644.15
562.647	38576.56
562.846	38169.02
563.045	38179.26
563.244	37898.69
563.443	38617.52
563.642	37474.76
563.841	37661.12
564.04	37118.41
564.239	37712.32
564.438	37667.27
564.637	37519.81
564.836	37161.42
565.035	36628.95
565.234	36649.42
565.432	36927.95
565.631	36356.57
565.83	36930
566.029	36415.96
566.228	36215.26
566.427	36194.78
566.625	36030.94
566.824	35570.15
567.023	35877.34
567.222	35103.21
567.42	35729.89
567.619	35391.97
567.818	35009
568.016	34949.61
568.215	34894.32
568.414	34652.66
568.612	34669.04
568.811	34458.1
569.01	34675.18
569.208	33845.76
569.407	34245.11
569.605	33882.62
569.804	33954.3
570.002	33350.15
570.201	33563.14
570.4	33305.09
570.598	32891.4
570.797	32899.59
570.995	33245.7
571.193	32580.11
571.392	32627.21
571.59	32158.23
571.789	32780.81
571.987	32330.26
572.186	32045.59
572.384	32025.11
572.582	31975.96
572.781	31834.65
572.979	31617.57
573.177	31449.63
573.376	31668.76
573.574	31509.02
573.772	31384.1
573.971	31070.76
574.169	30515.76
574.367	30409.26
574.565	30667.31
574.763	30593.58
574.962	30466.61
575.16	29884.98
575.358	30231.09
575.556	29715
575.754	30016.05
575.952	29672
576.151	29723.19
576.349	29438.53
576.547	29493.82
576.745	29227.59
576.943	29278.79
577.141	29020.74
577.339	29235.78
577.537	28889.67
577.735	28547.66
577.933	28793.42
578.131	28627.53
578.329	28375.63
578.527	28291.66
578.725	28058.2
578.923	28119.63
579.121	28129.87
579.319	27947.61
579.516	28115.54
579.714	27769.43
579.912	27656.79
580.11	27335.26
580.308	27652.7
580.506	27447.9
580.704	26858.09
580.901	27419.23
581.099	27159.14
581.297	26786.41
581.495	27048.55
581.692	26823.27
581.89	26407.53
582.088	26620.52
582.285	26303.09
582.483	26466.92
582.681	26309.23
582.878	26096.24
583.076	25819.77
583.274	25963.12
583.471	25922.16
583.669	25684.6
583.866	25516.67
584.064	25668.22
584.262	25465.47
584.459	25739.9
584.657	25410.17
584.854	25635.45
585.052	24881.8
585.249	25150.08
585.447	24980.1
585.644	24760.97
585.841	24752.77
586.039	25277.05
586.236	24447.63
586.434	24863.36
586.631	24560.27
586.828	24455.82
587.026	24228.49
587.223	24308.37
587.42	24064.66
587.618	24203.92
587.815	23775.89
588.012	23736.98
588.21	24001.17
588.407	24240.78
588.604	23700.12
588.801	23745.17
588.999	23364.25
589.196	23595.67
589.393	23349.92
589.59	23159.45
589.787	23036.58
589.984	22727.33
590.182	22985.38
590.379	23067.3
590.576	22710.95
590.773	22717.09
590.97	22452.91
591.167	22518.44
591.364	22465.19
591.561	22512.3
591.758	22565.54
591.955	22354.6
592.152	22563.5
592.349	22469.29
592.546	22346.41
592.743	22149.81
592.94	21834.42
593.137	21949.11
593.334	22008.5
593.531	21723.83
593.727	21902
593.924	21422.78
594.121	21355.19
594.318	21654.2
594.515	21189.31
594.712	21424.83
594.908	21185.21
595.105	21228.22
595.302	21131.97
595.499	21252.8
595.696	21160.64
595.892	20835.01
596.089	20781.76
596.286	20955.84
596.482	20847.3
596.679	20585.16
596.876	20806.34
597.072	20587.21
597.269	20480.71
597.466	20175.56
597.662	20296.39
597.859	20222.67
598.055	20298.44
598.252	20187.85
598.448	20212.43
598.645	19757.78
598.841	19929.81
599.038	19761.87
599.234	19925.71
599.431	19542.74
599.627	19526.36
599.824	19960.53
600.02	19299.03
600.217	19362.52
600.413	19366.62
600.609	19372.76
600.806	19356.38
601.002	19344.09
601.198	19260.12
601.395	18729.7
601.591	18647.78
601.787	19108.57
601.984	18576.1
602.18	19053.28
602.376	18709.22
602.572	18655.97
602.769	18709.22
602.965	18436.84
603.161	18549.48
603.357	18479.85
603.553	18248.43
603.75	18461.41
603.946	18242.28
604.142	18303.72
604.338	17715.95
604.534	18100.97
604.73	18137.84
604.926	17693.43
605.122	17947.37
605.318	17806.06
605.514	17615.6
605.71	17529.59
605.906	17672.95
606.102	17351.42
606.298	17519.35
606.494	17306.36
606.69	17713.91
606.886	17527.54
607.082	17038.08
607.278	17232.63
607.474	17087.23
607.67	17115.9
607.866	16808.7
608.062	17347.32
608.257	16798.46
608.453	16804.61
608.649	16802.56
608.845	16759.55
609.041	16806.66
609.236	16704.26
609.432	16743.17
609.628	16636.67
609.824	16767.74
610.019	16278.28
610.215	16511.75
610.411	16505.6
610.606	16360.2
610.802	16329.48
610.998	16337.67
611.193	16341.77
611.389	16243.46
611.584	16153.35
611.78	15893.26
611.976	16263.94
612.171	16118.54
612.367	16096.01
612.562	15952.65
612.758	15649.55
612.953	15723.28
613.149	15923.98
613.344	15352.6
613.539	15643.41
613.735	15770.38
613.93	15954.7
614.126	15371.03
614.321	15713.04
614.517	15573.78
614.712	15450.9
614.907	15407.89
615.103	15432.47
615.298	15526.68
615.493	15354.65
615.688	15096.6
615.884	15260.44
616.079	15117.08
616.274	15303.45
616.47	15160.09
616.665	15014.68
616.86	14955.29
617.055	14998.3
617.25	14736.16
617.445	15049.5
617.641	14498.59
617.836	14859.04
618.031	14648.1
618.226	14687.01
618.421	14539.55
618.616	14551.84
618.811	14496.55
619.006	14644
619.201	14201.64
619.396	14388
619.591	14187.3
619.786	14353.19
619.981	13873.96
620.176	14238.5
620.371	14148.39
620.566	14191.4
620.761	13718.32
620.956	13945.64
621.151	13679.41
621.346	13998.89
621.541	13456.18
621.735	13699.89
621.93	13202.23
622.125	13534
622.32	13263.67
622.515	13245.24
622.709	13103.93
622.904	13230.9
623.099	13030.2
623.294	12913.47
623.488	12983.1
623.683	13026.11
623.878	12602.18
624.072	12817.21
624.267	12725.05
624.462	12495.68
624.656	12309.32
624.851	12407.62
625.046	12409.67
625.24	12565.31
625.435	12038.98
625.629	12223.3
625.824	11995.98
626.018	12143.43
626.213	11983.69
626.407	12047.18
626.602	11813.71
626.796	11987.79
626.991	11760.46
627.185	11553.62
627.38	11735.88
627.574	11660.11
627.768	11326.29
627.963	11506.51
628.157	11271
628.352	11361.11
628.546	11109.21
628.74	11232.08
628.935	11246.42
629.129	11201.37
629.323	10931.03
629.517	11004.76
629.712	10871.64
629.906	10955.61
630.1	10767.2
630.294	10619.74
630.489	10640.22
630.683	10513.25
630.877	10394.47
631.071	10328.93
631.265	10384.23
631.459	10531.68
631.653	10265.44
631.848	10351.46
632.042	10158.95
632.236	10330.98
632.43	9974.63
632.624	9958.25
632.818	10023.78
633.012	9759.6
633.206	9964.39
633.4	10101.61
633.594	9890.67
633.788	9816.94
633.982	9685.87
634.176	9544.56
634.369	9597.81
634.563	9440.11
634.757	9343.86
634.951	9476.98
635.145	9280.37
635.339	9497.46
635.533	9239.41
635.726	9042.81
635.92	9091.96
636.114	8942.46
636.308	9130.87
636.501	8973.18
636.695	8977.27
636.889	8846.2
637.083	8811.39
637.276	8776.57
637.47	8844.15
637.664	8729.47
637.857	8727.42
638.051	8622.97
638.244	8508.29
638.438	8696.7
638.632	8399.74
638.825	8336.26
639.019	8309.63
639.212	8366.98
639.406	8276.87
639.599	8289.15
639.793	8108.93
639.986	7936.9
640.18	7984.01
640.373	8024.97
640.567	8039.3
640.76	7811.98
640.954	7973.77
641.147	7945.09
641.34	7744.39
641.534	7777.16
641.727	7865.22
641.92	7740.3
642.114	7580.56
642.307	7486.35
642.5	7383.95
642.694	7398.29
642.887	7306.13
643.08	7541.64
643.273	7304.08
643.467	7158.67
643.66	7175.06
643.853	7226.26
644.046	7048.08
644.239	7093.14
644.432	7023.51
644.626	6998.93
644.819	7070.61
645.012	6994.84
645.205	7093.14
645.398	6953.88
645.591	6886.29
645.784	6820.76
645.977	6560.67
646.17	6947.73
646.363	6751.13
646.556	6628.25
646.749	6638.49
646.942	6568.86
647.135	6675.35
647.328	6581.15
647.521	6562.72
647.714	6405.02
647.907	6298.53
648.099	6284.19
648.292	6433.69
648.485	6276
648.678	6402.97
648.871	6247.33
649.064	5989.28
649.256	6132.64
649.449	6347.68
649.642	5958.57
649.835	6149.03
650.027	5991.33
650.22	6118.31
650.413	5960.61
650.605	5936.04
650.798	5815.21
650.991	5684.14
651.183	5880.74
651.376	5802.92
651.568	5815.21
651.761	5700.52
651.954	5641.13
652.146	5862.31
652.339	5651.37
652.531	5606.31
652.724	5536.68
652.916	5483.44
653.109	5614.51
653.301	5639.08
653.494	5569.45
653.686	5397.42
653.879	5479.34
654.071	5448.62
654.263	5422
654.456	5397.42
654.648	5485.48
654.84	5307.31
655.033	5323.69
655.225	5426.09
655.417	5264.3
655.61	5311.41
655.802	5340.08
655.994	5178.29
656.186	5135.28
656.379	5133.23
656.571	5004.21
656.763	4998.07
656.955	5032.88
657.148	4989.88
657.34	4993.97
657.532	4979.64
657.724	5032.88
657.916	4936.63
658.108	5012.4
658.3	4899.77
658.492	4889.53
658.684	4686.78
658.876	4987.83
659.068	4856.76
659.26	4705.21
659.452	4830.13
659.644	4701.11
659.836	4701.11
660.028	4821.94
660.22	4633.53
660.412	4555.71
660.604	4674.49
660.796	4617.15
660.988	4557.75
661.18	4541.37
661.372	4510.65
661.563	4488.12
661.755	4565.95
661.947	4496.32
662.139	4447.16
662.331	4590.52
662.522	4449.21
662.714	4545.47
662.906	4295.61
663.097	4447.16
663.289	4484.03
663.481	4346.81
663.673	4373.44
663.864	4318.14
664.056	4381.63
664.247	4266.94
664.439	4340.67
664.631	4402.11
664.822	4303.81
665.014	4346.81
665.205	4287.42
665.397	4174.78
665.588	4277.18
665.78	4070.34
665.971	4346.81
666.163	4344.77
666.354	4103.11
666.546	4289.47
666.737	4156.35
666.929	4156.35
667.12	4199.36
667.311	4144.06
667.503	4062.15
667.694	4160.45
667.885	4010.95
668.077	4180.93
668.268	4088.77
668.459	4025.28
668.651	4115.39
668.842	4176.83
669.033	4037.57
669.224	4103.11
669.416	4107.2
669.607	4070.34
669.798	4152.26
669.989	4123.59
670.18	4174.78
670.371	4002.75
670.563	4058.05
670.754	4035.52
670.945	4162.5
671.136	4076.48
671.327	3951.56
671.518	4033.47
671.709	4086.72
671.9	4199.36
672.091	4076.48
672.282	4154.3
672.473	4103.11
672.664	4160.45
672.855	4162.5
673.046	4058.05
673.237	4225.98
673.428	3924.93
673.619	4070.34
673.809	4051.91
674	4041.67
674.191	4090.82
674.382	4047.81
674.573	4035.52
674.764	4123.59
674.954	4117.44
675.145	4117.44
675.336	4152.26
675.527	4109.25
675.717	4107.2
675.908	4168.64
676.099	4201.41
676.289	4168.64
676.48	4234.18
676.671	4168.64
676.861	4223.94
677.052	4172.74
677.243	4324.29
677.433	4131.78
677.624	4264.89
677.814	4256.7
678.005	4242.37
678.195	4348.86
678.386	4301.76
678.576	4223.94
678.767	4316.09
678.957	4357.05
679.148	4287.42
679.338	4418.49
679.529	4463.55
679.719	4297.66
679.909	4400.06
680.1	4359.1
680.29	4486.08
680.481	4420.54
680.671	4463.55
680.861	4352.96
681.052	4500.41
681.242	4342.72
681.432	4574.14
681.622	4410.3
681.813	4533.18
682.003	4445.12
682.193	4441.02
682.383	4690.87
682.573	4549.56
682.764	4498.36
682.954	4631.48
683.144	4611
683.334	4516.8
683.524	4676.54
683.714	4694.97
683.904	4567.99
684.094	4885.43
684.284	4797.37
684.474	4717.5
684.664	4737.98
684.854	4543.42
685.044	4672.44
685.234	4619.19
685.424	4520.89
685.614	4465.6
685.804	4641.72
685.994	4676.54
686.184	4551.61
686.374	4611
686.564	4635.58
686.753	4629.43
686.943	4522.94
687.133	4578.23
687.323	4594.62
687.513	4713.4
687.702	4496.32
687.892	4518.84
688.082	4510.65
688.272	4629.43
688.461	4512.7
688.651	4424.64
688.841	4529.08
689.03	4283.33
689.22	4438.97
689.41	4449.21
689.599	4338.62
689.789	4346.81
689.979	4361.15
690.168	4381.63
690.358	4170.69
690.547	4281.28
690.737	4312
690.926	4174.78
691.116	4017.09
691.305	4238.27
691.495	4205.5
691.684	4240.32
691.874	4268.99
692.063	4139.97
692.252	4096.96
692.442	4117.44
692.631	4094.91
692.82	4187.07
693.01	3955.65
693.199	4129.73
693.388	3949.51
693.578	3935.17
693.767	4035.52
693.956	3742.66
694.146	3906.5
694.335	3914.69
694.524	3947.46
694.713	3847.11
694.902	3791.81
695.092	3931.08
695.281	3894.21
695.47	3834.82
695.659	3961.8
695.848	3740.61
696.037	3828.68
696.226	3832.77
696.415	3863.49
696.604	3937.22
696.793	3906.5
696.982	3804.1
697.171	3914.69
697.36	3890.12
697.549	3845.06
697.738	3775.43
697.927	3955.65
698.116	3906.5
698.305	3863.49
698.494	3918.79
698.683	3832.77
698.872	3718.09
699.061	3867.59
699.25	3752.9
699.438	3681.22
699.627	3961.8
699.816	3935.17
700.005	3871.68
700.193	3734.47
700.382	3898.31
700.571	3808.2
700.76	4045.76
700.948	3937.22
701.137	3947.46
701.326	3931.08
701.514	3886.02
701.703	3918.79
701.892	3869.64
702.08	3877.83
702.269	3881.92
702.457	3906.5
702.646	3986.37
702.834	4035.52
703.023	3898.31
703.212	4021.19
703.4	3935.17
703.589	3955.65
703.777	4103.11
703.965	3816.39
704.154	3888.07
704.342	4002.75
704.531	3939.27
704.719	3992.52
704.907	4045.76
705.096	4027.33
705.284	4090.82
705.472	4068.29
705.661	4103.11
705.849	4027.33
706.037	4170.69
706.226	4103.11
706.414	4182.98
706.602	4137.92
706.79	4262.85
706.979	4166.59
707.167	4000.71
707.355	4019.14
707.543	4205.5
707.731	4266.94
707.919	4217.79
708.107	4223.94
708.296	4283.33
708.484	4152.26
708.672	4328.38
708.86	4242.37
709.048	4328.38
709.236	4277.18
709.424	4264.89
709.612	4430.78
709.8	4316.09
709.988	4395.96
710.176	4402.11
710.364	4346.81
710.551	4291.52
710.739	4357.05
710.927	4463.55
711.115	4365.25
711.303	4418.49
711.491	4398.01
711.679	4447.16
711.866	4500.41
712.054	4561.85
712.242	4592.57
712.43	4641.72
712.617	4563.9
712.805	4494.27
712.993	4531.13
713.181	4467.64
713.368	4549.56
713.556	4576.19
713.744	4694.97
713.931	4731.83
714.119	4563.9
714.306	4543.42
714.494	4707.26
714.682	4611
714.869	4731.83
715.057	4711.35
715.244	4627.39
715.432	4959.16
715.619	4869.05
715.807	4783.03
715.994	4877.24
716.182	4799.41
716.369	4844.47
716.556	4731.83
716.744	4785.08
716.931	4758.46
717.119	4889.53
717.306	4971.44
717.493	4881.33
717.681	4881.33
717.868	4852.66
718.055	5102.51
718.242	5065.65
718.43	4957.11
718.617	5088.18
718.804	4920.24
718.991	5006.26
719.179	5127.09
719.366	5057.46
719.553	5170.1
719.74	4953.01
719.927	5176.24
720.114	5008.31
720.301	4998.07
720.488	5045.17
720.676	5137.33
720.863	5155.76
721.05	5249.97
721.237	5211.06
721.424	5315.5
721.611	5176.24
721.798	5125.04
721.985	5338.03
722.172	5376.94
722.358	5243.82
722.545	5280.69
722.732	5252.02
722.919	5346.22
723.106	5411.76
723.293	5409.71
723.48	5280.69
723.667	5241.78
723.853	5329.84
724.04	5317.55
724.227	5409.71
724.414	5321.65
724.6	5342.13
724.787	5338.03
724.974	5356.46
725.161	5305.26
725.347	5460.91
725.534	5403.57
725.72	5405.61
725.907	5268.4
726.094	5501.87
726.28	5542.83
726.467	5467.05
726.653	5491.63
726.84	5520.3
727.027	5632.94
727.213	5368.75
727.4	5585.83
727.586	5487.53
727.773	5602.22
727.959	5694.38
728.145	5581.74
728.332	5542.83
728.518	5491.63
728.705	5577.64
728.891	5505.96
729.077	5700.52
729.264	5630.89
729.45	5622.7
729.636	5712.81
729.823	5651.37
730.009	5581.74
730.195	5675.95
730.382	5688.23
730.568	5594.03
730.754	5766.06
730.94	5655.47
731.126	5589.93
731.313	5843.88
731.499	5667.75
731.685	5864.36
731.871	5852.07
732.057	5708.71
732.243	5856.17
732.429	5839.78
732.615	5825.45
732.801	5854.12
732.987	5798.82
733.173	5796.78
733.359	5684.14
733.545	5727.14
733.731	5780.39
733.917	5827.5
734.103	5641.13
734.289	5776.3
734.475	5798.82
734.661	5809.06
734.847	5700.52
735.033	5813.16
735.219	5782.44
735.404	5837.73
735.59	5888.93
735.776	5671.85
735.962	5880.74
736.148	5899.17
736.333	5872.55
736.519	5673.9
736.705	5673.9
736.89	5766.06
737.076	5733.29
737.262	5786.54
737.447	5671.85
737.633	5764.01
737.819	5626.79
738.004	5712.81
738.19	5741.48
738.375	5557.16
738.561	5675.95
738.747	5645.23
738.932	5725.1
739.118	5587.88
739.303	5596.07
739.489	5573.55
739.674	5495.72
739.859	5487.53
740.045	5614.51
740.23	5573.55
740.416	5452.72
740.601	5608.36
740.786	5606.31
740.972	5444.52
741.157	5626.79
741.342	5452.72
741.528	5405.61
741.713	5567.4
741.898	5436.33
742.084	5319.6
742.269	5477.29
742.454	5436.33
742.639	5389.23
742.824	5358.51
743.01	5385.13
743.195	5356.46
743.38	5225.39
743.565	5407.66
743.75	5239.73
743.935	5297.07
744.12	5327.79
744.305	5143.47
744.49	5223.34
744.675	5094.32
744.86	5288.88
745.045	5041.08
745.23	5100.47
745.415	5120.95
745.6	5063.6
745.785	5041.08
745.97	4926.39
746.155	5020.6
746.34	4996.02
746.525	4934.58
746.71	5053.36
746.895	4748.22
747.079	4893.62
747.264	4877.24
747.449	4897.72
747.634	4813.75
747.819	4774.84
748.003	4619.19
748.188	4766.65
748.373	4611
748.557	4674.49
748.742	4660.15
748.927	4455.36
749.111	4586.43
749.296	4500.41
749.481	4453.31
749.665	4357.05
749.85	4438.97
750.034	4383.68
750.219	4357.05
750.404	4459.45
750.588	4287.42
750.773	4193.22
750.957	4312
751.141	4193.22
751.326	4256.7
751.51	4232.13
751.695	4154.3
751.879	4189.12
752.064	4225.98
752.248	4076.48
752.432	4000.71
752.617	4015.04
752.801	3920.84
752.985	3914.69
753.17	3943.36
753.354	3886.02
753.538	3978.18
753.722	3775.43
753.907	3697.61
754.091	3605.45
754.275	3677.13
754.459	3619.78
754.643	3703.75
754.828	3656.65
755.012	3664.84
755.196	3554.25
755.38	3445.71
755.564	3359.69
755.748	3662.79
755.932	3509.19
756.116	3605.45
756.3	3419.08
756.484	3472.33
756.668	3355.6
756.852	3322.83
757.036	3251.15
757.22	3281.87
757.404	3226.57
757.588	3242.96
757.772	3314.64
757.956	3181.52
758.14	3242.96
758.323	3138.51
758.507	3298.25
758.691	3169.23
758.875	3089.36
759.059	3234.77
759.242	2984.91
759.426	2997.2
759.61	3046.35
759.794	3072.98
759.977	3023.83
760.161	3013.59
760.345	3140.56
760.528	2964.43
760.712	2800.6
760.895	2843.6
761.079	2890.71
761.263	2866.13
761.446	2710.49
761.63	2712.53
761.813	2841.56
761.997	2651.1
762.18	2755.54
762.364	2751.45
762.547	2726.87
762.731	2603.99
762.914	2663.38
763.098	2585.56
763.281	2681.82
763.464	2702.29
763.648	2733.01
763.831	2634.71
764.015	2651.1
764.198	2673.62
764.381	2513.88
764.564	2503.64
764.748	2583.51
764.931	2608.09
765.114	2497.5
765.297	2558.94
765.481	2491.35
765.664	2560.98
765.847	2493.4
766.03	2431.96
766.213	2575.32
766.397	2448.35
766.58	2339.8
766.763	2407.39
766.946	2466.78
767.129	2212.83
767.312	2401.24
767.495	2270.17
767.678	2333.66
767.861	2399.2
768.044	2386.91
768.227	2354.14
768.41	2391
768.593	2284.51
768.776	2255.84
768.959	2210.78
769.142	2327.52
769.324	2235.36
769.507	2178.01
769.69	2171.87
769.873	2241.5
770.056	2227.17
770.239	2216.93
770.421	2237.41
770.604	2147.3
770.787	2067.42
770.97	2202.59
771.152	2116.58
771.335	2089.95
771.518	2016.23
771.7	2118.62
771.883	2126.82
772.066	1965.03
772.248	1979.36
772.431	1991.65
772.613	2036.7
772.796	1948.64
772.978	1981.41
773.161	2022.37
773.343	1932.26
773.526	1926.11
773.708	1874.92
773.891	1833.96
774.073	1823.72
774.256	1924.07
774.438	1958.88
774.621	1801.19
774.803	1883.11
774.985	1749.99
775.168	1807.33
775.35	1850.34
775.532	1682.41
775.715	1706.98
775.897	1717.22
776.079	1670.12
776.261	1620.97
776.444	1680.36
776.626	1674.21
776.808	1571.82
776.99	1553.38
777.173	1670.12
777.355	1539.05
777.537	1543.14
777.719	1596.39
777.901	1524.71
778.083	1563.62
778.265	1518.57
778.447	1618.92
778.629	1481.71
778.811	1534.95
778.993	1502.19
779.175	1534.95
779.357	1481.71
779.539	1426.41
779.721	1436.65
779.903	1444.84
780.085	1493.99
780.267	1487.85
780.449	1422.31
780.631	1383.4
780.812	1326.06
780.994	1305.58
781.176	1291.24
781.358	1264.62
781.54	1307.63
781.721	1397.74
781.903	1381.35
782.085	1287.15
782.267	1244.14
782.448	1137.65
782.63	1246.19
782.812	1215.47
782.993	1205.23
783.175	1209.33
783.357	1186.8
783.538	1260.52
783.72	1080.3
783.901	1240.05
784.083	1225.71
784.264	1006.58
784.446	1094.64
784.627	1123.31
784.809	1168.37
784.99	1174.51
785.172	1143.79
785.353	1012.72
785.535	1090.54
785.716	1029.1
785.897	1045.49
786.079	961.52
786.26	1039.34
786.441	1072.11
786.623	998.38
786.804	982
786.985	961.52
787.167	1016.82
787.348	1088.5
787.529	1008.62
787.71	1080.3
787.891	1012.72
788.073	938.99
788.254	969.71
788.435	1074.16
788.616	955.38
788.797	922.61
788.978	879.6
789.159	912.37
789.34	881.65
789.522	846.84
789.703	977.91
789.884	846.84
790.065	883.7
790.246	949.23
790.427	887.79
790.607	908.27
790.788	912.37
790.969	791.54
791.15	832.5
791.331	822.26
791.512	769.01
791.693	773.11
791.874	773.11
792.054	846.84
792.235	719.86
792.416	777.2
792.597	785.4
792.778	842.74
792.958	799.73
793.139	801.78
793.32	736.24
793.5	687.09
793.681	760.82
793.862	701.43
794.042	740.34
794.223	756.72
794.404	738.29
794.584	637.94
794.765	660.47
794.945	687.09
795.126	734.2
795.306	687.09
795.487	717.81
795.667	676.85
795.848	660.47
796.028	658.42
796.209	742.39
796.389	648.18
796.57	592.89
796.75	631.8
796.93	611.32
797.111	683
797.291	642.04
797.471	621.56
797.652	603.13
797.832	556.02
798.012	670.71
798.192	605.17
798.373	615.41
798.553	603.13
798.733	574.46
798.913	580.6
799.093	617.46
799.274	566.26
799.454	635.89
799.634	592.89
799.814	605.17
799.994	580.6
800.174	580.6
800.354	596.98
800.534	490.49
800.714	566.26
800.894	527.35
801.074	570.36
801.254	568.31
801.434	523.26
801.614	521.21
801.794	439.29
801.974	1364.97
802.154	506.87
802.334	560.12
802.514	553.98
802.693	508.92
802.873	510.97
803.053	527.35
803.233	527.35
803.413	461.82
803.592	404.47
803.772	465.91
803.952	537.59
804.131	515.06
804.311	486.39
804.491	506.87
804.67	564.22
804.85	474.1
805.03	510.97
805.209	498.68
805.389	439.29
805.568	470.01
805.748	433.15
805.928	441.34
806.107	474.1
806.287	498.68
806.466	496.63
806.646	416.76
806.825	441.34
807.004	455.67
807.184	375.8
807.363	406.52
807.543	383.99
807.722	424.95
807.901	508.92
808.081	529.4
808.26	349.18
808.439	379.9
808.619	383.99
808.798	383.99
808.977	439.29
809.156	406.52
809.336	392.19
809.515	461.82
809.694	355.32
809.873	373.75
810.052	498.68
810.231	455.67
810.411	480.25
810.59	392.19
810.769	355.32
810.948	357.37
811.127	310.27
811.306	424.95
811.485	351.23
811.664	424.95
811.843	414.71
812.022	343.03
812.201	347.13
812.38	353.27
812.559	379.9
812.737	408.57
812.916	312.32
813.095	252.92
813.274	402.43
813.453	293.88
813.632	363.51
813.811	355.32
813.989	420.86
814.168	435.19
814.347	297.98
814.526	373.75
814.704	383.99
814.883	431.1
815.062	297.98
815.24	343.03
815.419	316.41
815.598	300.03
815.776	361.47
815.955	308.22
816.133	310.27
816.312	351.23
816.49	269.31
816.669	320.51
816.847	271.36
817.026	302.08
817.204	287.74
817.383	336.89
817.561	293.88
817.74	343.03
817.918	248.83
818.097	297.98
818.275	275.45
818.453	293.88
818.632	261.12
818.81	234.49
818.988	244.73
819.167	257.02
819.345	338.94
819.523	236.54
819.701	259.07
819.879	289.79
820.058	285.69
820.236	257.02
820.414	273.4
820.592	269.31
820.77	257.02
820.948	275.45
821.127	226.3
821.305	246.78
821.483	285.69
821.661	248.83
821.839	238.59
822.017	205.82
822.195	201.72
822.373	185.34
822.551	306.17
822.729	228.35
822.907	152.57
823.085	285.69
823.262	265.21
823.44	244.73
823.618	209.92
823.796	236.54
823.974	211.96
824.152	273.4
824.329	177.15
824.507	236.54
824.685	175.1
824.863	201.72
825.04	138.24
825.218	226.3
825.396	132.09
825.574	257.02
825.751	119.81
825.929	211.96
826.107	154.62
826.284	289.79
826.462	201.72
826.639	244.73
826.817	136.19
826.994	193.53
827.172	142.33
827.349	326.65
827.527	252.92
827.704	244.73
827.882	283.64
828.059	209.92
828.237	179.2
828.414	228.35
828.591	113.66
828.769	171.01
828.946	199.68
829.124	242.68
829.301	228.35
829.478	214.01
829.655	248.83
829.833	216.06
830.01	119.81
830.187	242.68
830.364	144.38
830.542	166.91
830.719	209.92
830.896	117.76
831.073	193.53
831.25	259.07
831.427	193.53
831.604	166.91
831.782	154.62
831.959	187.39
832.136	209.92
832.313	181.25
832.49	211.96
832.667	171.01
832.844	203.77
833.021	203.77
833.198	175.1
833.374	156.67
833.551	128
833.728	80.89
833.905	150.53
834.082	136.19
834.259	185.34
834.436	199.68
834.612	93.18
834.789	252.92
834.966	138.24
835.143	181.25
835.319	138.24
835.496	232.44
835.673	119.81
835.85	226.3
836.026	117.76
836.203	128
836.38	177.15
836.556	148.48
836.733	130.05
836.909	220.16
837.086	132.09
837.262	134.14
837.439	64.51
837.616	93.18
837.792	154.62
837.968	117.76
838.145	105.47
838.321	158.72
838.498	136.19
838.674	224.25
838.851	152.57
839.027	164.86
839.203	117.76
839.38	109.57
839.556	144.38
839.732	150.53
839.909	113.66
840.085	171.01
840.261	72.7
840.437	37.89
840.614	76.8
840.79	168.96
840.966	160.77
841.142	130.05
841.318	222.2
841.494	113.66
841.671	195.58
841.847	103.42
842.023	138.24
842.199	99.33
842.375	166.91
842.551	121.85
842.727	101.37
842.903	154.62
843.079	111.61
843.255	142.33
843.431	144.38
843.607	74.75
843.783	-9.22
843.959	103.42
844.134	105.47
844.31	138.24
844.486	13.31
844.662	109.57
844.838	-9.22
845.013	119.81
845.189	84.99
845.365	93.18
845.541	91.13
845.716	76.8
845.892	78.85
846.068	60.42
846.244	78.85
846.419	80.89
846.595	76.8
846.77	66.56
846.946	50.18
847.122	148.48
847.297	50.18
847.473	130.05
847.648	-21.5
847.824	60.42
847.999	103.42
848.175	99.33
848.35	31.74
848.526	105.47
848.701	80.89
848.876	138.24
849.052	150.53
849.227	105.47
849.403	121.85
849.578	48.13
849.753	134.14
849.929	152.57
850.104	-3.07
850.279	46.08
850.454	78.85
850.63	89.09
850.805	60.42
850.98	93.18
851.155	78.85
851.33	68.61
851.505	109.57
851.681	175.1
851.856	76.8
852.031	89.09
852.206	66.56
852.381	99.33
852.556	64.51
852.731	105.47
852.906	62.46
853.081	91.13
853.256	62.46
853.431	39.94
853.606	52.22
853.781	113.66
853.956	-11.26
854.131	64.51
854.305	-19.46
854.48	58.37
854.655	78.85
854.83	39.94
855.005	80.89
855.18	31.74
855.354	35.84
855.529	56.32
855.704	99.33
855.879	93.18
856.053	46.08
856.228	9.22
856.403	48.13
856.577	150.53
856.752	29.7
856.926	-9.22
857.101	39.94
857.276	80.89
857.45	29.7
857.625	119.81
857.799	-52.22
857.974	142.33
858.148	-52.22
858.323	99.33
858.497	70.65
858.672	97.28
858.846	11.26
859.02	72.7
859.195	60.42
859.369	-46.08
859.543	-9.22
859.718	52.22
859.892	56.32
860.066	89.09
860.241	21.5
860.415	7.17
860.589	91.13
860.763	27.65
860.938	-76.8
861.112	52.22
861.286	15.36
861.46	87.04
861.634	-13.31
861.808	97.28
861.982	87.04
862.157	54.27
862.331	27.65
862.505	-25.6
862.679	39.94
862.853	44.03
863.027	68.61
863.201	107.52
863.375	80.89
863.549	31.74
863.722	29.7
863.896	-29.7
864.07	-56.32
864.244	-46.08
864.418	84.99
864.592	111.61
864.766	-15.36
864.939	-1.02
865.113	-1.02
865.287	115.71
865.461	76.8
865.634	52.22
865.808	11.26
865.982	-9.22
866.156	-9.22
866.329	-19.46
866.503	76.8
866.676	76.8
866.85	7.17
867.024	-25.6
867.197	15.36
867.371	54.27
867.544	-41.98
867.718	-25.6
867.891	82.94
868.065	-37.89
868.238	-17.41
868.412	89.09
868.585	46.08
868.759	-3.07
868.932	-82.94
869.105	62.46
869.279	64.51
869.452	23.55
869.625	27.65
869.799	56.32
869.972	78.85
870.145	-11.26
870.319	48.13
870.492	-17.41
870.665	-5.12
870.838	35.84
871.011	-11.26
871.185	-9.22
871.358	1.02
871.531	23.55
871.704	-31.74
871.877	19.46
872.05	-17.41
872.223	-9.22
872.396	31.74
872.569	35.84
872.742	-46.08
872.915	68.61
873.088	-39.94
873.261	-29.7
873.434	37.89
873.607	64.51
873.78	21.5
873.953	5.12
874.126	-19.46
874.299	115.71
874.471	-52.22
874.644	35.84
874.817	64.51
874.99	125.95
875.163	-1.02
875.335	72.7
875.508	-13.31
875.681	39.94
875.853	-25.6
876.026	21.5
876.199	44.03
876.371	7.17
876.544	74.75
876.717	48.13
876.889	3.07
877.062	41.98
877.234	19.46
877.407	-9.22
877.579	39.94
877.752	-87.04
877.924	89.09
878.097	31.74
878.269	13.31
878.442	21.5
878.614	-21.5
878.786	7.17
878.959	15.36
879.131	25.6
879.303	-46.08
879.476	-13.31
879.648	37.89
879.82	9.22
879.993	-13.31
880.165	19.46
880.337	37.89
880.509	-15.36
880.681	-80.89
880.854	-56.32
881.026	82.94
881.198	68.61
881.37	19.46
881.542	27.65
881.714	31.74
881.886	11.26
882.058	11.26
882.23	52.22
882.402	-17.41
882.574	21.5
882.746	-25.6
882.918	64.51
883.09	-1.02
883.262	80.89
883.434	13.31
883.606	39.94
883.778	56.32
883.95	84.99
884.122	17.41
884.293	23.55
884.465	9.22
884.637	74.75
884.809	-3.07
884.98	78.85
885.152	70.65
885.324	-33.79
885.496	-29.7
885.667	13.31
885.839	17.41
886.011	60.42
886.182	37.89
886.354	-5.12
886.525	27.65
886.697	-50.18
886.869	-58.37
887.04	31.74
887.212	54.27
887.383	27.65
887.555	11.26
887.726	19.46
887.897	29.7
888.069	27.65
888.24	48.13
888.412	-27.65
888.583	15.36
888.754	-25.6
888.926	31.74
889.097	91.13
889.268	-27.65
889.44	23.55
889.611	-58.37
889.782	-68.61
889.953	-1.02
890.125	50.18
890.296	-62.46
890.467	46.08
890.638	-41.98
890.809	50.18
890.98	1.02
891.151	46.08
891.323	46.08
891.494	23.55
891.665	33.79
891.836	-1.02
892.007	-3.07
892.178	7.17
892.349	9.22
892.52	3.07
892.691	3.07
892.862	3.07
893.032	21.5
893.203	-7.17
893.374	44.03
893.545	76.8
893.716	-3.07
893.887	-1.02
894.057	-56.32
894.228	7.17
894.399	76.8
894.57	-21.5
894.74	-25.6
894.911	66.56
895.082	82.94
895.253	-76.8
895.423	-44.03
895.594	5.12
895.764	60.42
895.935	7.17
896.106	50.18
896.276	-1.02
896.447	29.7
896.617	-29.7
896.788	-17.41
896.958	-11.26
897.129	-23.55
897.299	31.74
897.47	103.42
897.64	-1.02
897.81	33.79
897.981	-5.12
898.151	-37.89
898.322	-25.6
898.492	31.74
898.662	-5.12
898.832	-17.41
899.003	5.12
899.173	19.46
899.343	-74.75
899.513	-82.94
