Data from USB4F104151__64__11-31-00-159.txt Node

Date: Fri Mar 14 11:31:00 EDT 2025
User: louis
Spectrometer: USB4F10415
Trigger mode: 4
Integration Time (sec): 5.000000E-2
Scans to average: 1
Electric dark correction enabled: true
Nonlinearity correction enabled: false
Boxcar width: 0
XAxis mode: Wavelengths
Number of Pixels in Spectrum: 3648
>>>>>Begin Spectral Data<<<<<
178.204	-136.7
178.424	-136.7
178.644	-136.7
178.864	-163.33
179.084	-146.94
179.304	-54.78
179.524	-13.82
179.744	31.23
179.964	41.47
180.184	43.52
180.404	33.28
180.624	16.9
180.844	8.7
181.064	-62.98
181.283	-36.35
181.503	-34.3
181.723	27.14
181.943	-62.98
182.163	137.73
182.383	51.71
182.602	51.71
182.822	109.05
183.042	68.09
183.262	12.8
183.482	14.85
183.701	14.85
183.921	-9.73
184.141	43.52
184.361	41.47
184.58	51.71
184.8	59.9
185.02	74.24
185.239	129.53
185.459	-22.02
185.679	4.61
185.898	-32.26
186.118	23.04
186.338	-13.82
186.557	98.81
186.777	37.38
186.997	-54.78
187.216	23.04
187.436	92.67
187.655	-22.02
187.875	55.81
188.095	20.99
188.314	76.29
188.534	141.82
188.753	-13.82
188.973	-13.82
189.192	133.63
189.412	4.61
189.631	74.24
189.851	-30.21
190.07	82.43
190.29	70.14
190.509	-3.58
190.729	20.99
190.948	88.57
191.168	150.01
191.387	35.33
191.607	-15.87
191.826	-3.58
192.045	-11.78
192.265	92.67
192.484	68.09
192.704	123.39
192.923	-1.54
193.142	150.01
193.362	27.14
193.581	-28.16
193.8	125.44
194.02	-26.11
194.239	-30.21
194.458	-9.73
194.678	41.47
194.897	-38.4
195.116	2.56
195.335	64
195.555	12.8
195.774	25.09
195.993	64
196.212	-32.26
196.432	10.75
196.651	35.33
196.87	-26.11
197.089	61.95
197.308	92.67
197.528	59.9
197.747	-32.26
197.966	-9.73
198.185	84.48
198.404	-5.63
198.623	66.05
198.842	18.94
199.062	14.85
199.281	104.96
199.5	25.09
199.719	82.43
199.938	74.24
200.157	84.48
200.376	20.99
200.595	31.23
200.814	39.42
201.033	-24.06
201.252	84.48
201.471	33.28
201.69	111.1
201.909	10.75
202.128	84.48
202.347	-1.54
202.566	-1.54
202.785	-24.06
203.004	12.8
203.223	174.59
203.442	-9.73
203.661	-73.21
203.879	-5.63
204.098	66.05
204.317	20.99
204.536	100.86
204.755	98.81
204.974	35.33
205.193	51.71
205.411	80.38
205.63	76.29
205.849	10.75
206.068	57.86
206.287	12.8
206.505	61.95
206.724	-34.3
206.943	68.09
207.162	72.19
207.381	57.86
207.599	-17.92
207.818	35.33
208.037	-30.21
208.255	10.75
208.474	16.9
208.693	113.15
208.911	2.56
209.13	39.42
209.349	14.85
209.567	25.09
209.786	64
210.005	47.62
210.223	72.19
210.442	-1.54
210.661	55.81
210.879	-40.45
211.098	10.75
211.316	49.66
211.535	115.2
211.753	55.81
211.972	68.09
212.191	16.9
212.409	-62.98
212.628	27.14
212.846	64
213.065	68.09
213.283	104.96
213.502	43.52
213.72	43.52
213.938	-26.11
214.157	4.61
214.375	51.71
214.594	45.57
214.812	55.81
215.031	-38.4
215.249	70.14
215.467	-54.78
215.686	14.85
215.904	66.05
216.122	49.66
216.341	59.9
216.559	20.99
216.778	33.28
216.996	-9.73
217.214	-22.02
217.432	-15.87
217.651	2.56
217.869	2.56
218.087	98.81
218.306	-15.87
218.524	82.43
218.742	37.38
218.96	23.04
219.179	-34.3
219.397	27.14
219.615	47.62
219.833	37.38
220.051	-7.68
220.27	43.52
220.488	-11.78
220.706	29.18
220.924	4.61
221.142	2.56
221.36	-9.73
221.578	33.28
221.796	45.57
222.015	23.04
222.233	10.75
222.451	57.86
222.669	16.9
222.887	76.29
223.105	-11.78
223.323	68.09
223.541	-11.78
223.759	31.23
223.977	-9.73
224.195	57.86
224.413	-36.35
224.631	33.28
224.849	49.66
225.067	76.29
225.285	29.18
225.503	14.85
225.721	64
225.939	10.75
226.157	57.86
226.375	53.76
226.592	45.57
226.81	57.86
227.028	100.86
227.246	64
227.464	16.9
227.682	45.57
227.9	82.43
228.117	12.8
228.335	82.43
228.553	-13.82
228.771	51.71
228.989	37.38
229.206	53.76
229.424	10.75
229.642	10.75
229.86	2.56
230.077	102.91
230.295	70.14
230.513	66.05
230.731	16.9
230.948	57.86
231.166	25.09
231.384	2.56
231.601	-13.82
231.819	2.56
232.037	6.66
232.254	-13.82
232.472	-7.68
232.689	76.29
232.907	29.18
233.125	10.75
233.342	-17.92
233.56	-13.82
233.777	14.85
233.995	18.94
234.213	72.19
234.43	27.14
234.648	12.8
234.865	-65.02
235.083	64
235.3	92.67
235.518	43.52
235.735	43.52
235.953	84.48
236.17	18.94
236.388	72.19
236.605	39.42
236.822	-7.68
237.04	64
237.257	2.56
237.475	-7.68
237.692	47.62
237.909	109.05
238.127	-1.54
238.344	33.28
238.562	6.66
238.779	14.85
238.996	64
239.214	18.94
239.431	66.05
239.648	74.24
239.865	64
240.083	59.9
240.3	-42.5
240.517	-15.87
240.735	10.75
240.952	104.96
241.169	100.86
241.386	68.09
241.603	16.9
241.821	16.9
242.038	6.66
242.255	57.86
242.472	-1.54
242.689	23.04
242.907	88.57
243.124	59.9
243.341	-30.21
243.558	-26.11
243.775	25.09
243.992	-17.92
244.209	49.66
244.426	141.82
244.643	-9.73
244.86	18.94
245.078	43.52
245.295	20.99
245.512	66.05
245.729	8.7
245.946	6.66
246.163	39.42
246.38	10.75
246.597	-79.36
246.814	66.05
247.031	-11.78
247.248	74.24
247.464	33.28
247.681	18.94
247.898	33.28
248.115	76.29
248.332	23.04
248.549	49.66
248.766	84.48
248.983	43.52
249.2	123.39
249.417	6.66
249.633	-11.78
249.85	64
250.067	35.33
250.284	10.75
250.501	51.71
250.717	76.29
250.934	68.09
251.151	33.28
251.368	66.05
251.585	76.29
251.801	51.71
252.018	0.51
252.235	35.33
252.451	14.85
252.668	68.09
252.885	18.94
253.102	23.04
253.318	-22.02
253.535	8.7
253.752	18.94
253.968	35.33
254.185	-22.02
254.401	-7.68
254.618	6.66
254.835	6.66
255.051	98.81
255.268	49.66
255.484	-1.54
255.701	55.81
255.917	92.67
256.134	39.42
256.351	64
256.567	0.51
256.784	-79.36
257	23.04
257.217	109.05
257.433	51.71
257.65	-9.73
257.866	74.24
258.082	-7.68
258.299	-9.73
258.515	82.43
258.732	-67.07
258.948	10.75
259.165	23.04
259.381	35.33
259.597	41.47
259.814	2.56
260.03	29.18
260.246	4.61
260.463	-19.97
260.679	64
260.895	18.94
261.112	6.66
261.328	35.33
261.544	14.85
261.761	107.01
261.977	27.14
262.193	35.33
262.409	-3.58
262.626	74.24
262.842	-13.82
263.058	18.94
263.274	18.94
263.49	23.04
263.707	57.86
263.923	35.33
264.139	51.71
264.355	76.29
264.571	90.62
264.787	76.29
265.004	76.29
265.22	-11.78
265.436	92.67
265.652	39.42
265.868	47.62
266.084	-17.92
266.3	45.57
266.516	0.51
266.732	39.42
266.948	41.47
267.164	37.38
267.38	-7.68
267.596	51.71
267.812	96.77
268.028	51.71
268.244	-17.92
268.46	0.51
268.676	18.94
268.892	41.47
269.108	-75.26
269.324	-32.26
269.54	-22.02
269.756	14.85
269.972	51.71
270.188	-44.54
270.403	-22.02
270.619	61.95
270.835	-15.87
271.051	82.43
271.267	-13.82
271.483	88.57
271.698	0.51
271.914	6.66
272.13	70.14
272.346	64
272.562	49.66
272.777	96.77
272.993	31.23
273.209	-28.16
273.425	0.51
273.64	31.23
273.856	104.96
274.072	59.9
274.287	-17.92
274.503	31.23
274.719	64
274.934	29.18
275.15	0.51
275.366	-40.45
275.581	27.14
275.797	90.62
276.012	8.7
276.228	14.85
276.444	96.77
276.659	68.09
276.875	-48.64
277.09	66.05
277.306	37.38
277.521	-5.63
277.737	-34.3
277.952	-1.54
278.168	35.33
278.383	23.04
278.599	27.14
278.814	84.48
279.03	10.75
279.245	39.42
279.461	76.29
279.676	158.21
279.892	-24.06
280.107	-22.02
280.322	72.19
280.538	92.67
280.753	-17.92
280.969	98.81
281.184	64
281.399	76.29
281.615	33.28
281.83	49.66
282.045	-13.82
282.26	43.52
282.476	51.71
282.691	102.91
282.906	27.14
283.122	43.52
283.337	-50.69
283.552	-13.82
283.767	23.04
283.983	31.23
284.198	51.71
284.413	90.62
284.628	31.23
284.843	-46.59
285.058	-17.92
285.274	41.47
285.489	-11.78
285.704	25.09
285.919	-38.4
286.134	-32.26
286.349	35.33
286.564	76.29
286.779	113.15
286.995	64
287.21	2.56
287.425	-7.68
287.64	31.23
287.855	29.18
288.07	20.99
288.285	68.09
288.5	-22.02
288.715	35.33
288.93	61.95
289.145	-38.4
289.36	68.09
289.575	72.19
289.79	41.47
290.004	14.85
290.219	23.04
290.434	35.33
290.649	12.8
290.864	0.51
291.079	43.52
291.294	-56.83
291.509	64
291.724	16.9
291.938	-13.82
292.153	6.66
292.368	35.33
292.583	72.19
292.798	109.05
293.012	74.24
293.227	76.29
293.442	-5.63
293.657	35.33
293.871	27.14
294.086	-50.69
294.301	59.9
294.516	125.44
294.73	-13.82
294.945	-38.4
295.16	2.56
295.374	27.14
295.589	74.24
295.804	12.8
296.018	25.09
296.233	49.66
296.447	55.81
296.662	31.23
296.877	70.14
297.091	20.99
297.306	55.81
297.52	27.14
297.735	84.48
297.949	53.76
298.164	47.62
298.378	68.09
298.593	0.51
298.807	74.24
299.022	76.29
299.236	61.95
299.451	29.18
299.665	0.51
299.88	33.28
300.094	76.29
300.309	49.66
300.523	25.09
300.737	-22.02
300.952	43.52
301.166	61.95
301.381	18.94
301.595	16.9
301.809	41.47
302.024	102.91
302.238	43.52
302.452	-9.73
302.667	84.48
302.881	70.14
303.095	2.56
303.309	170.49
303.524	23.04
303.738	-32.26
303.952	-24.06
304.166	12.8
304.381	-40.45
304.595	68.09
304.809	-13.82
305.023	41.47
305.237	16.9
305.452	-19.97
305.666	41.47
305.88	33.28
306.094	74.24
306.308	25.09
306.522	18.94
306.736	113.15
306.95	-11.78
307.164	-22.02
307.379	-54.78
307.593	43.52
307.807	53.76
308.021	57.86
308.235	57.86
308.449	51.71
308.663	57.86
308.877	141.82
309.091	-17.92
309.305	0.51
309.519	-15.87
309.733	68.09
309.947	31.23
310.161	-17.92
310.374	64
310.588	98.81
310.802	-22.02
311.016	43.52
311.23	76.29
311.444	35.33
311.658	35.33
311.872	117.25
312.085	84.48
312.299	94.72
312.513	55.81
312.727	-13.82
312.941	-30.21
313.154	47.62
313.368	-5.63
313.582	59.9
313.796	49.66
314.009	-38.4
314.223	35.33
314.437	59.9
314.651	-9.73
314.864	64
315.078	-24.06
315.292	-1.54
315.505	0.51
315.719	35.33
315.933	76.29
316.146	80.38
316.36	27.14
316.573	127.49
316.787	51.71
317.001	53.76
317.214	-83.45
317.428	39.42
317.641	-79.36
317.855	64
318.068	8.7
318.282	8.7
318.495	164.35
318.709	-19.97
318.922	47.62
319.136	64
319.349	0.51
319.563	51.71
319.776	68.09
319.99	-38.4
320.203	53.76
320.417	-11.78
320.63	51.71
320.843	29.18
321.057	84.48
321.27	49.66
321.483	88.57
321.697	18.94
321.91	18.94
322.124	57.86
322.337	16.9
322.55	-13.82
322.763	-9.73
322.977	41.47
323.19	-22.02
323.403	82.43
323.617	72.19
323.83	92.67
324.043	43.52
324.256	33.28
324.469	-19.97
324.683	2.56
324.896	123.39
325.109	14.85
325.322	8.7
325.535	84.48
325.748	47.62
325.962	-79.36
326.175	6.66
326.388	70.14
326.601	53.76
326.814	-17.92
327.027	-17.92
327.24	64
327.453	-17.92
327.666	29.18
327.879	47.62
328.092	115.2
328.305	-1.54
328.518	23.04
328.731	18.94
328.944	25.09
329.157	-11.78
329.37	47.62
329.583	115.2
329.796	86.53
330.009	47.62
330.222	18.94
330.435	35.33
330.648	92.67
330.861	90.62
331.073	18.94
331.286	59.9
331.499	39.42
331.712	6.66
331.925	8.7
332.138	14.85
332.35	100.86
332.563	35.33
332.776	20.99
332.989	47.62
333.202	4.61
333.414	-5.63
333.627	66.05
333.84	6.66
334.053	68.09
334.265	-15.87
334.478	27.14
334.691	0.51
334.903	51.71
335.116	-7.68
335.329	39.42
335.541	-62.98
335.754	68.09
335.966	64
336.179	76.29
336.392	51.71
336.604	29.18
336.817	27.14
337.029	43.52
337.242	59.9
337.454	59.9
337.667	35.33
337.88	94.72
338.092	47.62
338.305	25.09
338.517	-1.54
338.729	76.29
338.942	-5.63
339.154	47.62
339.367	-75.26
339.579	74.24
339.792	59.9
340.004	16.9
340.217	0.51
340.429	-30.21
340.641	8.7
340.854	6.66
341.066	109.05
341.278	49.66
341.491	125.44
341.703	41.47
341.915	-19.97
342.128	88.57
342.34	-19.97
342.552	33.28
342.764	-36.35
342.977	72.19
343.189	31.23
343.401	115.2
343.613	-5.63
343.826	23.04
344.038	31.23
344.25	6.66
344.462	45.57
344.674	74.24
344.886	-17.92
345.099	6.66
345.311	18.94
345.523	64
345.735	8.7
345.947	92.67
346.159	2.56
346.371	23.04
346.583	59.9
346.795	80.38
347.007	39.42
347.219	49.66
347.431	31.23
347.643	88.57
347.855	-7.68
348.067	94.72
348.279	27.14
348.491	35.33
348.703	41.47
348.915	6.66
349.127	-13.82
349.339	12.8
349.551	4.61
349.763	41.47
349.975	6.66
350.187	49.66
350.399	109.05
350.61	27.14
350.822	109.05
351.034	2.56
351.246	23.04
351.458	117.25
351.669	90.62
351.881	57.86
352.093	35.33
352.305	121.34
352.517	80.38
352.728	68.09
352.94	70.14
353.152	-11.78
353.363	29.18
353.575	51.71
353.787	86.53
353.999	-17.92
354.21	176.64
354.422	-1.54
354.633	18.94
354.845	55.81
355.057	59.9
355.268	-3.58
355.48	35.33
355.692	49.66
355.903	76.29
356.115	-7.68
356.326	-79.36
356.538	33.28
356.749	-32.26
356.961	72.19
357.172	51.71
357.384	41.47
357.595	51.71
357.807	43.52
358.018	49.66
358.23	-19.97
358.441	100.86
358.653	78.33
358.864	29.18
359.075	39.42
359.287	96.77
359.498	72.19
359.709	2.56
359.921	18.94
360.132	8.7
360.344	6.66
360.555	-17.92
360.766	39.42
360.977	8.7
361.189	107.01
361.4	-24.06
361.611	123.39
361.823	72.19
362.034	33.28
362.245	43.52
362.456	14.85
362.667	18.94
362.879	51.71
363.09	92.67
363.301	33.28
363.512	76.29
363.723	23.04
363.935	-13.82
364.146	-44.54
364.357	10.75
364.568	109.05
364.779	51.71
364.99	92.67
365.201	92.67
365.412	64
365.623	-7.68
365.834	64
366.045	-5.63
366.256	68.09
366.467	131.58
366.678	47.62
366.889	6.66
367.1	8.7
367.311	86.53
367.522	-19.97
367.733	47.62
367.944	88.57
368.155	53.76
368.366	43.52
368.577	66.05
368.788	-11.78
368.999	25.09
369.209	2.56
369.42	12.8
369.631	57.86
369.842	76.29
370.053	39.42
370.264	31.23
370.474	10.75
370.685	25.09
370.896	4.61
371.107	147.97
371.317	33.28
371.528	-30.21
371.739	76.29
371.95	59.9
372.16	80.38
372.371	45.57
372.582	14.85
372.792	27.14
373.003	12.8
373.214	43.52
373.424	-15.87
373.635	-71.17
373.846	119.29
374.056	-22.02
374.267	100.86
374.477	6.66
374.688	33.28
374.898	82.43
375.109	59.9
375.319	35.33
375.53	96.77
375.74	119.29
375.951	23.04
376.161	45.57
376.372	92.67
376.582	16.9
376.793	109.05
377.003	-38.4
377.214	25.09
377.424	12.8
377.635	51.71
377.845	-22.02
378.055	129.53
378.266	-62.98
378.476	-22.02
378.686	18.94
378.897	80.38
379.107	6.66
379.317	96.77
379.528	76.29
379.738	49.66
379.948	-26.11
380.158	143.87
380.369	39.42
380.579	2.56
380.789	104.96
380.999	88.57
381.21	59.9
381.42	84.48
381.63	94.72
381.84	133.63
382.05	33.28
382.261	35.33
382.471	-1.54
382.681	20.99
382.891	129.53
383.101	37.38
383.311	27.14
383.521	-7.68
383.731	107.01
383.941	39.42
384.151	16.9
384.361	23.04
384.571	66.05
384.781	27.14
384.991	125.44
385.201	72.19
385.411	41.47
385.621	25.09
385.831	-15.87
386.041	31.23
386.251	25.09
386.461	166.4
386.671	45.57
386.881	94.72
387.091	94.72
387.301	68.09
387.511	51.71
387.72	39.42
387.93	49.66
388.14	10.75
388.35	80.38
388.56	51.71
388.769	70.14
388.979	133.63
389.189	-30.21
389.399	72.19
389.609	55.81
389.818	72.19
390.028	55.81
390.238	107.01
390.447	43.52
390.657	-19.97
390.867	152.06
391.076	23.04
391.286	139.77
391.496	84.48
391.705	64
391.915	164.35
392.125	121.34
392.334	39.42
392.544	8.7
392.753	98.81
392.963	59.9
393.172	84.48
393.382	35.33
393.591	59.9
393.801	59.9
394.01	150.01
394.22	98.81
394.429	55.81
394.639	51.71
394.848	82.43
395.058	166.4
395.267	23.04
395.477	47.62
395.686	61.95
395.895	199.16
396.105	129.53
396.314	135.68
396.524	49.66
396.733	94.72
396.942	90.62
397.152	150.01
397.361	113.15
397.57	57.86
397.78	92.67
397.989	37.38
398.198	33.28
398.407	10.75
398.617	70.14
398.826	127.49
399.035	100.86
399.244	90.62
399.453	70.14
399.663	135.68
399.872	88.57
400.081	129.53
400.29	113.15
400.499	141.82
400.708	133.63
400.917	82.43
401.127	96.77
401.336	109.05
401.545	141.82
401.754	158.21
401.963	84.48
402.172	133.63
402.381	47.62
402.59	117.25
402.799	104.96
403.008	107.01
403.217	92.67
403.426	125.44
403.635	57.86
403.844	125.44
404.053	98.81
404.262	115.2
404.471	152.06
404.68	125.44
404.888	92.67
405.097	84.48
405.306	92.67
405.515	162.3
405.724	119.29
405.933	109.05
406.142	160.25
406.35	174.59
406.559	147.97
406.768	201.21
406.977	236.03
407.185	141.82
407.394	119.29
407.603	131.58
407.812	150.01
408.02	264.7
408.229	236.03
408.438	64
408.646	184.83
408.855	170.49
409.064	221.69
409.272	164.35
409.481	260.6
409.69	248.32
409.898	199.16
410.107	178.69
410.315	360.95
410.524	289.28
410.733	381.43
410.941	320
411.15	322.04
411.358	387.58
411.567	313.85
411.775	334.33
411.984	363
412.192	363
412.401	354.81
412.609	354.81
412.818	455.16
413.026	354.81
413.234	410.11
413.443	377.34
413.651	346.62
413.86	424.44
414.068	483.83
414.276	510.46
414.485	442.87
414.693	539.13
414.901	600.57
415.11	479.74
415.318	522.74
415.526	543.22
415.734	567.8
415.943	623.09
416.151	561.66
416.359	600.57
416.567	664.05
416.776	766.45
416.984	778.74
417.192	850.42
417.4	727.54
417.608	811.51
417.817	834.04
418.025	936.43
418.233	958.96
418.441	883.19
418.649	956.91
418.857	881.14
419.065	1071.6
419.273	1022.45
419.481	1034.74
419.689	1171.95
419.897	1126.89
420.105	1057.26
420.313	1208.81
420.521	1182.19
420.729	1290.73
420.937	1268.2
421.145	1352.17
421.353	1407.47
421.561	1513.96
421.769	1513.96
421.977	1530.34
422.185	1575.4
422.393	1645.03
422.601	1767.91
422.809	1767.91
423.017	1696.23
423.224	1892.84
423.432	1956.32
423.64	1964.51
423.848	2095.58
424.056	1931.75
424.263	2181.6
424.471	2148.83
424.679	2218.46
424.887	2341.34
425.094	2433.5
425.302	2349.53
425.51	2505.18
425.718	2656.73
425.925	2673.11
426.133	2671.06
426.341	3025.36
426.548	2943.44
426.756	2982.35
426.964	2992.59
427.171	3129.81
427.379	3238.35
427.586	3367.37
427.794	3400.14
428.001	3719.62
428.209	3652.04
428.417	3797.45
428.624	4018.63
428.832	3961.28
429.039	3985.86
429.247	3836.36
429.454	4170.18
429.662	4614.59
429.869	4319.68
430.076	4684.22
430.284	4573.63
430.491	4598.2
430.699	5052.85
430.906	4907.45
431.114	5040.56
431.321	5196.21
431.528	5300.66
431.736	5552.56
431.943	5892.52
432.15	5745.06
432.358	5769.64
432.565	6082.98
432.772	6013.35
432.979	6396.32
433.187	6539.68
433.394	6506.91
433.601	6758.81
433.808	7076.24
434.016	6990.23
434.223	7322
434.43	7610.76
434.637	7451.02
434.844	7971.21
435.052	8204.67
435.259	8053.13
435.466	8106.37
435.673	8210.82
435.88	8571.26
436.087	9161.08
436.294	8952.18
436.501	8878.46
436.708	9179.51
436.915	9402.74
437.122	9832.81
437.329	9838.95
437.537	9984.36
437.743	10352.99
437.95	10287.46
438.157	10738.01
438.364	10877.27
438.571	11034.97
438.778	11184.47
438.985	12181.83
439.192	11571.54
439.399	12022.09
439.606	11854.16
439.813	12329.28
440.02	13199.67
440.227	13060.41
440.433	12640.58
440.64	13224.25
440.847	13232.44
441.054	13488.43
441.261	14315.81
441.467	14131.5
441.674	14324.01
441.881	15171.86
442.088	15028.51
442.294	14874.91
442.501	15270.17
442.708	15507.73
442.914	16042.25
443.121	16845.05
443.328	16374.02
443.534	17408.25
443.741	17201.4
443.948	16681.22
444.154	18034.92
444.361	17768.69
444.568	18288.87
444.774	17975.53
444.981	18333.93
445.187	19130.59
445.394	19585.24
445.6	19517.65
445.807	21166.27
446.013	20365.51
446.22	20701.38
446.426	21676.21
446.633	21485.75
446.839	22134.96
447.046	21403.83
447.252	22558.89
447.459	22640.81
447.665	22403.24
447.871	23492.76
448.078	24668.3
448.284	23171.23
448.491	23845.01
448.697	25139.33
448.903	25335.93
449.11	25403.52
449.316	24889.48
449.522	25561.21
449.728	25962.61
449.935	26318.96
450.141	26409.07
450.347	26775.66
450.553	25897.08
450.76	26349.68
450.966	27101.28
451.172	27156.58
451.378	27420.77
451.584	27050.08
451.791	27758.68
451.997	27603.03
452.203	27787.35
452.409	28080.21
452.615	27824.22
452.821	26884.2
453.027	26667.11
453.233	27684.95
453.44	26816.61
453.646	26892.39
453.852	27185.25
454.058	27615.32
454.264	26703.98
454.47	27342.94
454.676	26595.43
454.882	27621.47
455.088	25075.84
455.294	25481.34
455.5	25729.14
455.705	26216.56
455.911	24995.97
456.117	24465.55
456.323	24285.33
456.529	22929.57
456.735	23789.72
456.941	23079.07
457.147	22636.71
457.352	22114.48
457.558	21999.79
457.764	21815.48
457.97	21647.54
458.176	21002.43
458.381	21084.35
458.587	19949.78
458.793	20336.84
458.999	18786.53
459.204	20222.16
459.41	19542.23
459.616	18444.52
459.821	18290.92
460.027	18415.85
460.233	18112.75
460.438	17021.18
460.644	17293.56
460.85	16652.55
461.055	16269.58
461.261	16193.8
461.466	14928.16
461.672	14479.65
461.878	15730.96
462.083	14270.76
462.289	14149.93
462.494	14057.77
462.7	13476.15
462.905	13140.28
463.111	13463.86
463.316	13599.02
463.522	13412.66
463.727	13363.51
463.932	13365.56
464.138	12970.3
464.343	13162.81
464.549	12878.14
464.754	13166.9
464.959	13099.32
465.165	12982.59
465.37	12558.66
465.575	12273.99
465.781	12673.34
465.986	12736.83
466.191	12542.27
466.397	11972.94
466.602	11432.27
466.807	12003.66
467.012	11841.87
467.218	11991.37
467.423	11772.24
467.628	11735.37
467.833	11999.56
468.038	11897.16
468.244	11569.49
468.449	11931.98
468.654	11651.41
468.859	11399.51
469.064	11413.84
469.269	11071.83
469.474	11037.02
469.679	11225.43
469.885	10852.7
470.09	11045.21
470.295	11010.39
470.5	10764.64
470.705	10819.93
470.91	10643.81
471.115	10385.76
471.32	10654.05
471.525	10232.16
471.73	10307.94
471.935	10277.22
472.139	9896.3
472.344	10140.01
472.549	9841
472.754	9812.33
472.959	9611.63
473.164	9435.5
473.369	9298.29
473.574	9587.05
473.778	9472.37
473.983	9453.94
474.188	9466.22
474.393	9048.44
474.598	9218.42
474.802	8829.31
475.007	8706.43
475.212	9212.28
475.417	8663.42
475.621	8669.56
475.826	8507.77
476.031	8472.96
476.235	8206.72
476.44	8264.07
476.645	8063.36
476.849	8053.13
477.054	8100.23
477.259	8006.02
477.463	7956.87
477.668	7750.03
477.872	8059.27
478.077	7768.46
478.282	7653.77
478.486	7487.89
478.691	7504.27
478.895	7448.97
479.1	7465.36
479.304	7424.4
479.509	7219.6
479.713	7459.21
479.918	7121.3
480.122	7029.14
480.326	7053.72
480.531	7246.23
480.735	7121.3
480.94	7238.03
481.144	7285.14
481.348	7016.85
481.553	6928.79
481.757	6850.97
481.961	7111.06
482.166	7045.52
482.37	7113.11
482.574	6834.58
482.778	6812.06
482.983	7053.72
483.187	6904.21
483.391	6953.37
483.595	6873.5
483.8	6832.54
484.004	6979.99
484.208	6992.28
484.412	6881.69
484.616	6941.08
484.821	6924.69
485.025	6834.58
485.229	6957.46
485.433	7031.19
485.637	6908.31
485.841	6734.23
486.045	6777.24
486.249	6908.31
486.453	6787.48
486.657	6896.02
486.861	6713.75
487.065	6723.99
487.269	6863.26
487.473	6816.15
487.677	7168.4
487.881	7037.33
488.085	6805.91
488.289	7063.96
488.493	6697.37
488.697	6898.07
488.901	6924.69
489.105	6916.5
489.309	6947.22
489.512	7016.85
489.716	6932.89
489.92	6994.33
490.124	6973.85
490.328	7184.79
490.531	7055.76
490.735	7168.4
490.939	7014.8
491.143	7033.24
491.346	7125.4
491.55	7133.59
491.754	7010.71
491.958	7094.68
492.161	7244.18
492.365	7281.04
492.569	7186.83
492.772	7367.06
492.976	7287.18
493.18	7481.74
493.383	7319.95
493.587	7448.97
493.79	7453.07
493.994	7575.95
494.197	7530.89
494.401	7696.78
494.605	7563.66
494.808	7786.89
495.012	7815.56
495.215	7842.18
495.419	7903.62
495.622	7868.81
495.825	8038.79
496.029	7877
496.232	8249.73
496.436	8116.61
496.639	8503.68
496.843	8313.22
497.046	8339.84
497.249	8382.85
497.453	8487.29
497.656	8579.45
497.859	8767.87
498.063	8755.58
498.266	8976.76
498.469	8829.31
498.673	9283.95
498.876	9081.21
499.079	9343.35
499.282	9290.1
499.485	9714.03
499.689	9482.61
499.892	9685.36
500.095	9673.07
500.298	9931.11
500.501	9746.8
500.705	9920.87
500.908	10144.1
501.111	10324.32
501.314	10393.95
501.517	10365.28
501.72	10520.93
501.923	10537.31
502.126	10721.63
502.329	10959.19
502.532	10858.84
502.735	11176.28
502.938	11340.11
503.141	11446.61
503.344	11594.06
503.547	11364.69
503.75	11639.12
503.953	11770.19
504.156	12073.29
504.359	12020.04
504.562	12134.73
504.765	12331.33
504.968	12656.96
505.17	12777.79
505.373	12695.87
505.576	13023.55
505.779	13105.46
505.982	13101.37
506.185	13386.04
506.387	13343.03
506.59	13642.03
506.793	13816.11
506.996	13656.37
507.198	14197.03
507.401	14154.02
507.604	14098.73
507.807	14387.49
508.009	14817.57
508.212	14854.43
508.415	14905.63
508.617	14919.96
508.82	15048.99
509.022	15098.14
509.225	15620.37
509.428	15726.86
509.63	15905.04
509.833	15724.82
510.035	16216.33
510.238	16144.65
510.44	16314.63
510.643	16808.19
510.845	16761.09
511.048	16847.1
511.25	16920.83
511.453	17074.43
511.655	17668.34
511.858	17606.9
512.06	17684.72
512.262	18075.88
512.465	17873.14
512.667	18143.47
512.87	18653.41
513.072	18338.02
513.274	18503.91
513.477	18919.65
513.679	19202.27
513.881	19275.99
514.084	19611.86
514.286	19531.99
514.488	19939.54
514.69	20052.17
514.893	20285.64
515.095	20216.01
515.297	20820.16
515.499	20771.01
515.701	21004.48
515.904	21289.15
516.106	21622.97
516.308	21827.76
516.51	22012.08
516.712	21946.55
516.914	22251.69
517.116	22403.24
517.318	22560.94
517.52	22841.51
517.722	22935.71
517.925	23079.07
518.127	23773.33
518.329	23785.62
518.531	23271.58
518.733	24354.96
518.935	24531.08
519.136	24631.43
519.338	24979.59
519.54	25268.35
519.742	24909.96
519.944	25335.93
520.146	25974.9
520.348	26124.4
520.55	26138.74
520.752	26445.93
520.954	26902.63
521.155	27099.23
521.357	27359.33
521.559	27336.8
521.761	27730.01
521.963	27979.86
522.164	28016.72
522.366	28258.38
522.568	28639.31
522.77	28780.62
522.971	29571.13
523.173	29188.16
523.375	29306.94
523.576	29603.9
523.778	29544.51
523.98	30148.66
524.181	30355.5
524.383	30644.27
524.584	30941.22
524.786	30941.22
524.988	31039.53
525.189	31465.5
525.391	31844.38
525.592	31528.99
525.794	32161.81
525.995	32358.42
526.197	32247.83
526.398	32868.36
526.6	33075.21
526.801	33120.26
527.003	33165.32
527.204	33175.56
527.406	33269.76
527.607	33511.42
527.808	34023.42
528.01	33306.63
528.211	33808.38
528.412	34865.13
528.614	34220.02
528.815	34478.07
529.016	35157.99
529.218	34680.81
529.419	35262.44
529.62	35213.29
529.822	35315.69
530.023	35110.89
530.224	35434.47
530.425	35684.32
530.626	35536.87
530.828	35454.95
531.029	36564.95
531.23	35936.22
531.431	36138.97
531.632	35874.78
531.833	36335.57
532.035	36411.35
532.236	36663.25
532.437	36960.2
532.638	36564.95
532.839	36626.39
533.04	37187.53
533.241	36569.04
533.442	37531.59
533.643	37111.75
533.844	37078.99
534.045	37326.79
534.246	36755.41
534.447	37177.29
534.648	37152.71
534.849	37289.93
535.05	37048.27
535.251	37328.84
535.451	37208.01
535.652	37664.71
535.853	37459.91
536.054	37509.06
536.255	37636.03
536.456	37162.95
536.657	38236.09
536.857	37580.74
537.058	37568.45
537.259	37947.32
537.46	37851.07
537.66	37519.3
537.861	37853.12
538.062	37539.78
538.263	37846.97
538.463	37453.76
538.664	37924.8
538.865	37885.89
539.065	38211.51
539.266	37746.62
539.466	38154.17
539.667	37388.23
539.868	38340.53
540.068	38129.59
540.269	37814.21
540.469	38129.59
540.67	38051.77
540.87	38006.72
541.071	37879.74
541.271	37982.14
541.472	38047.68
541.672	38002.62
541.873	37904.32
542.073	37400.52
542.274	38123.45
542.474	38096.83
542.675	37455.81
542.875	38373.3
543.075	37926.85
543.276	37345.22
543.476	38254.52
543.676	37701.57
543.877	38031.29
544.077	37937.09
544.277	37861.31
544.478	37816.25
544.678	38145.98
544.878	38031.29
545.078	37976
545.279	37742.53
545.479	37820.35
545.679	38127.55
545.879	37828.54
546.079	37826.49
546.28	37961.66
546.48	37543.88
546.68	38055.87
546.88	38057.92
547.08	37992.38
547.28	37889.98
547.48	37652.42
547.68	37793.73
547.88	37511.11
548.081	37924.8
548.281	38287.29
548.481	37990.33
548.681	38172.6
548.881	37810.11
549.081	38043.58
549.28	37605.31
549.48	38494.13
549.68	37914.56
549.88	38303.67
550.08	37703.62
550.28	38006.72
550.48	37877.69
550.68	37924.8
550.88	37433.28
551.08	37490.63
551.279	37760.96
551.479	37466.05
551.679	37826.49
551.879	37404.61
552.079	38119.35
552.278	37646.27
552.478	37922.75
552.678	37511.11
552.878	37687.23
553.077	37191.62
553.277	37275.59
553.477	37969.85
553.676	37939.13
553.876	37793.73
554.076	37287.88
554.275	37396.42
554.475	37064.65
554.674	37707.71
554.874	37621.7
555.074	37584.83
555.273	37488.58
555.473	37459.91
555.672	36909
555.872	37156.81
556.071	36622.29
556.271	37408.71
556.47	36837.33
556.67	36599.76
556.869	36816.85
557.068	37140.43
557.268	36466.64
557.467	36736.98
557.667	36642.77
557.866	36630.48
558.065	36282.33
558.265	36521.94
558.464	36747.22
558.663	36736.98
558.863	36106.2
559.062	36317.14
559.261	35827.68
559.461	36392.92
559.66	35690.46
559.859	35862.49
560.058	35659.74
560.258	36057.05
560.457	35227.62
560.656	35739.61
560.855	34977.77
561.054	35780.57
561.253	35106.79
561.453	35364.84
561.652	35389.41
561.851	34963.43
562.05	34791.41
562.249	34525.17
562.448	34906.09
562.647	34519.03
562.846	34844.65
563.045	34498.55
563.244	33865.72
563.443	34512.88
563.642	33937.4
563.841	33927.16
564.04	33710.08
564.239	33673.21
564.438	33361.92
564.637	34185.21
564.836	33839.1
565.035	33431.55
565.234	33177.61
565.432	33097.73
565.631	32993.29
565.83	33107.97
566.029	32509.97
566.228	32610.32
566.427	32499.73
566.625	32215.06
566.824	32129.05
567.023	32563.22
567.222	31619.1
567.42	32002.07
567.619	32131.09
567.818	31848.47
568.016	31537.18
568.215	31741.98
568.414	31285.28
568.612	31483.94
568.811	31242.28
569.01	31537.18
569.208	30402.61
569.407	31111.21
569.605	30605.36
569.804	30689.32
570.002	30580.78
570.201	30918.7
570.4	30646.32
570.598	30148.66
570.797	30101.56
570.995	29651
571.193	29347.9
571.392	29925.43
571.59	29300.8
571.789	29401.15
571.987	29450.3
572.186	29417.54
572.384	28809.29
572.582	29274.18
572.781	29241.41
572.979	28825.67
573.177	28819.53
573.376	28969.03
573.574	28336.21
573.772	28401.74
573.971	28381.26
574.169	28170.32
574.367	27828.31
574.565	28186.71
574.763	27912.28
574.962	27691.1
575.16	27639.9
575.358	27785.3
575.556	27064.42
575.754	27717.72
575.952	26789.99
576.151	27261.02
576.349	26992.74
576.547	26937.44
576.745	27043.94
576.943	27054.18
577.141	26712.17
577.339	26718.31
577.537	26531.95
577.735	26294.38
577.933	26173.55
578.131	26613.87
578.329	26015.86
578.527	25770.1
578.725	26007.67
578.923	25837.69
579.121	25989.24
579.319	25516.15
579.516	25954.42
579.714	25868.41
579.912	25583.74
580.11	25270.4
580.308	25272.45
580.506	25178.24
580.704	24848.52
580.901	24950.92
581.099	25059.46
581.297	24930.44
581.495	24678.54
581.692	24918.15
581.89	24385.68
582.088	24920.2
582.285	24502.41
582.483	24561.8
582.681	24322.19
582.878	24293.52
583.076	23842.96
583.274	24322.19
583.471	23847.06
583.669	23785.62
583.866	23756.95
584.064	24006.8
584.262	23488.67
584.459	24025.23
584.657	23689.37
584.854	23845.01
585.052	23222.43
585.249	23451.8
585.447	23287.96
585.644	23253.15
585.841	23077.02
586.039	23517.34
586.236	22689.96
586.434	22812.84
586.631	22726.82
586.828	22948
587.026	22888.61
587.223	22352.04
587.42	22460.59
587.618	22499.5
587.815	22196.4
588.012	22180.01
588.21	22149.29
588.407	22300.84
588.604	21999.79
588.801	22012.08
588.999	22130.86
589.196	21860.53
589.393	21708.98
589.59	21649.59
589.787	21770.42
589.984	21665.97
590.182	21371.07
590.379	21627.06
590.576	21436.6
590.773	21526.71
590.97	21235.9
591.167	21340.35
591.364	21018.82
591.561	21141.69
591.758	21092.54
591.955	20777.15
592.152	20723.91
592.349	20764.87
592.546	20842.69
592.743	20531.4
592.94	20541.64
593.137	20467.91
593.334	20693.19
593.531	20086.99
593.727	20338.89
593.924	20353.23
594.121	20279.5
594.318	20416.71
594.515	20127.95
594.712	20551.88
594.908	19968.21
595.105	19986.64
595.302	19826.9
595.499	19808.47
595.696	19824.85
595.892	19601.62
596.089	19708.12
596.286	19941.58
596.482	19628.24
596.679	19398.87
596.876	19417.3
597.072	19273.95
597.269	19034.33
597.466	18847.97
597.662	19241.18
597.859	18811.1
598.055	19007.71
598.252	18882.78
598.448	19044.57
598.645	18854.11
598.841	18768.1
599.038	18647.27
599.234	18649.32
599.431	18252.01
599.627	18589.92
599.824	18798.82
600.02	18680.03
600.217	18528.49
600.413	18569.44
600.609	18401.51
600.806	18104.56
601.002	18096.36
601.198	18184.43
601.395	18002.16
601.591	17996.01
601.787	18122.99
601.984	17934.57
602.18	17987.82
602.376	17729.78
602.572	17823.98
602.769	17670.39
602.965	17416.44
603.161	17531.12
603.357	17367.29
603.553	17518.84
603.75	17148.15
603.946	17205.5
604.142	17400.05
604.338	17158.39
604.534	17279.22
604.73	16883.97
604.926	17000.7
605.122	16754.94
605.318	16666.88
605.514	16558.34
605.71	16341.25
605.906	16922.88
606.102	16541.96
606.298	16810.24
606.494	16648.45
606.69	16576.77
606.886	16654.59
607.082	16414.98
607.278	16732.42
607.474	16230.66
607.67	16369.93
607.866	16140.55
608.062	16285.96
608.257	16283.91
608.453	15954.19
608.649	16173.32
608.845	16050.44
609.041	16105.74
609.236	16099.59
609.432	15913.23
609.628	16013.58
609.824	15984.91
610.019	15706.38
610.215	15745.3
610.411	15954.19
610.606	15710.48
610.802	15429.91
610.998	15700.24
611.193	15606.03
611.389	15493.4
611.584	15526.16
611.78	15171.86
611.976	15388.95
612.171	15321.37
612.367	15296.79
612.562	15225.11
612.758	15145.24
612.953	15137.05
613.149	15157.53
613.344	15120.67
613.539	15663.38
613.735	15124.76
613.93	15405.33
614.126	15034.65
614.321	15108.38
614.517	14946.59
614.712	14983.45
614.907	14821.66
615.103	14924.06
615.298	14979.36
615.493	14807.33
615.688	14502.18
615.884	15188.25
616.079	14465.32
616.274	14756.13
616.47	14752.03
616.665	14754.08
616.86	14461.22
617.055	14577.95
617.25	14637.34
617.445	14418.21
617.641	14156.07
617.836	14381.35
618.031	14190.89
618.226	14473.51
618.421	14113.06
618.616	14260.52
618.811	14061.87
619.006	14274.85
619.201	13781.29
619.396	13926.7
619.591	13805.87
619.786	14121.26
619.981	13510.96
620.176	13873.45
620.371	13248.82
620.566	13533.49
620.761	13447.47
620.956	13592.88
621.151	13265.21
621.346	13496.63
621.541	13220.15
621.735	13330.74
621.93	12949.82
622.125	13183.29
622.32	12937.53
622.515	13078.84
622.709	13017.4
622.904	13003.07
623.099	12773.69
623.294	12818.75
623.488	12788.03
623.683	12605.76
623.878	12335.43
624.072	12607.81
624.267	12355.91
624.462	12308.8
624.656	12230.98
624.851	12212.55
625.046	12118.34
625.24	12159.3
625.435	12138.82
625.629	12089.67
625.824	11671.89
626.018	11649.36
626.213	11569.49
626.407	11706.7
626.602	11516.24
626.796	11602.25
626.991	11589.97
627.185	11260.24
627.38	11411.79
627.574	11264.34
627.768	11319.64
627.963	11198.81
628.157	10981.72
628.352	11155.8
628.546	10955.1
628.74	10895.71
628.935	10748.25
629.129	10801.5
629.323	10824.03
629.517	10731.87
629.712	10494.3
629.906	10641.76
630.1	10563.93
630.294	10506.59
630.489	10389.86
630.683	10633.57
630.877	10320.23
631.071	10180.96
631.265	10230.12
631.459	10281.32
631.653	10201.44
631.848	10088.81
632.042	9980.26
632.236	10074.47
632.43	9779.56
632.624	9916.78
632.818	9793.9
633.012	9757.04
633.206	9453.94
633.4	9654.64
633.594	9728.36
633.788	9599.34
633.982	9640.3
634.176	9488.75
634.369	9406.83
634.563	9474.42
634.757	9218.42
634.951	9255.28
635.145	9222.52
635.339	9142.64
635.533	9140.6
635.726	9202.04
635.92	8878.46
636.114	9027.96
636.308	8974.71
636.501	8956.28
636.695	8724.86
636.889	8823.16
637.083	8774.01
637.276	8755.58
637.47	8569.21
637.664	8581.5
637.857	8565.12
638.051	8427.9
638.244	8421.76
638.438	8530.3
638.632	8411.52
638.825	8470.91
639.019	8178.05
639.212	8098.18
639.406	8219.01
639.599	8225.15
639.793	8116.61
639.986	8071.56
640.18	8094.08
640.373	7897.48
640.567	7850.38
640.76	7872.9
640.954	7973.25
641.147	7735.69
641.34	7850.38
641.534	7825.8
641.727	7776.65
641.92	7666.06
642.114	7600.52
642.307	7682.44
642.5	7526.8
642.694	7494.03
642.887	7438.73
643.08	7522.7
643.273	7444.88
643.467	7192.98
643.66	7365.01
643.853	7336.34
644.046	7246.23
644.239	7307.66
644.432	7127.44
644.626	7039.38
644.819	6891.93
645.012	7059.86
645.205	7074.2
645.398	7012.76
645.591	6920.6
645.784	6801.82
645.977	6764.95
646.17	6785.43
646.363	6799.77
646.556	6666.65
646.749	6646.17
646.942	6822.3
647.135	6672.79
647.328	6470.05
647.521	6568.35
647.714	6607.26
647.907	6568.35
648.099	6482.33
648.292	6394.27
648.485	6529.44
648.678	6420.89
648.871	6351.26
649.064	6371.74
649.256	6267.3
649.449	6416.8
649.642	6085.03
649.835	6097.31
650.027	6134.18
650.22	5996.96
650.413	6037.92
650.605	5941.67
650.798	6113.7
650.991	5921.19
651.183	6023.59
651.376	6066.6
651.568	5933.48
651.761	5890.47
651.954	5865.89
652.146	5902.76
652.339	5833.13
652.531	5751.21
652.724	5753.26
652.916	5687.72
653.109	5783.98
653.301	5659.05
653.494	5845.41
653.686	5618.09
653.879	5667.24
654.071	5634.47
654.263	5499.31
654.456	5562.8
654.648	5546.41
654.84	5427.63
655.033	5409.2
655.225	5380.53
655.417	5343.66
655.61	5458.35
655.802	5282.22
655.994	5405.1
656.186	5087.67
656.379	5331.37
656.571	5194.16
656.763	5226.93
656.955	5122.48
657.148	5065.14
657.34	5153.2
657.532	5204.4
657.724	5165.49
657.916	5065.14
658.108	5065.14
658.3	5067.19
658.492	4940.21
658.684	4858.29
658.876	5003.7
659.068	4764.09
659.26	4784.57
659.452	4858.29
659.644	5007.8
659.836	4925.88
660.028	4993.46
660.22	4743.61
660.412	4788.66
660.604	4813.24
660.796	4749.75
660.988	4868.53
661.18	4753.85
661.372	4630.97
661.563	4762.04
661.755	4764.09
661.947	4704.7
662.139	4483.52
662.331	4676.02
662.522	4483.52
662.714	4618.68
662.906	4549.05
663.097	4590.01
663.289	4473.28
663.481	4379.07
663.673	4479.42
663.864	4508.09
664.056	4417.98
664.247	4434.36
664.439	4587.96
664.631	4571.58
664.822	4432.32
665.014	4311.49
665.205	4426.17
665.397	4286.91
665.588	4475.32
665.78	4336.06
665.971	4221.38
666.163	4239.81
666.354	4356.54
666.546	4270.53
666.737	4188.61
666.929	4356.54
667.12	4159.94
667.311	4401.6
667.503	4411.84
667.694	4200.9
667.885	4295.1
668.077	4110.79
668.268	4063.68
668.459	4207.04
668.651	4252.1
668.842	4239.81
669.033	4278.72
669.224	4227.52
669.416	4344.25
669.607	4118.98
669.798	4270.53
669.989	4350.4
670.18	4157.89
670.371	4274.62
670.563	4139.46
670.754	4155.84
670.945	4217.28
671.136	4352.45
671.327	4270.53
671.518	4106.69
671.709	4135.36
671.9	4254.14
672.091	4278.72
672.282	4327.87
672.473	4080.07
672.664	4166.08
672.855	4086.21
673.046	4217.28
673.237	4145.6
673.428	4260.29
673.619	4198.85
673.809	4245.95
674	4338.11
674.191	4131.26
674.382	4170.18
674.573	4309.44
674.764	4204.99
674.954	4381.12
675.145	4164.03
675.336	4213.18
675.527	4166.08
675.717	4221.38
675.908	4405.69
676.099	4180.42
676.289	4291.01
676.48	4258.24
676.671	4321.73
676.861	4401.6
677.052	4358.59
677.243	4374.97
677.433	4309.44
677.624	4467.13
677.814	4252.1
678.005	4325.82
678.195	4407.74
678.386	4364.73
678.576	4428.22
678.767	4460.99
678.957	4360.64
679.148	4446.65
679.338	4516.28
679.529	4450.75
679.719	4460.99
679.909	4665.78
680.1	4475.32
680.29	4559.29
680.481	4456.89
680.671	4610.49
680.861	4547
681.052	4714.94
681.242	4659.64
681.432	4630.97
681.622	4540.86
681.813	4719.03
682.003	4712.89
682.193	4610.49
682.383	4651.45
682.573	4700.6
682.764	4739.51
682.954	4780.47
683.144	4884.92
683.334	4680.12
683.524	4868.53
683.714	4770.23
683.904	4721.08
684.094	4968.88
684.284	4803
684.474	4817.33
684.664	4901.3
684.854	4739.51
685.044	4809.14
685.234	4651.45
685.424	4827.57
685.614	4770.23
685.804	4792.76
685.994	4870.58
686.184	4800.95
686.374	4741.56
686.564	4655.54
686.753	4813.24
686.943	4653.5
687.133	4768.18
687.323	4614.59
687.513	4688.31
687.702	4792.76
687.892	4544.95
688.082	4659.64
688.272	4553.15
688.461	4473.28
688.651	4596.15
688.841	4377.02
689.03	4520.38
689.22	4342.21
689.41	4393.4
689.599	4389.31
689.789	4360.64
689.979	4381.12
690.168	4434.36
690.358	4245.95
690.547	4276.67
690.737	4284.86
690.926	4370.88
691.116	4211.14
691.305	4143.55
691.495	4284.86
691.684	4041.15
691.874	4151.74
692.063	4116.93
692.252	4125.12
692.442	4096.45
692.631	4004.29
692.82	4053.44
693.01	4086.21
693.199	3998.15
693.388	4043.2
693.578	4135.36
693.767	3965.38
693.956	3967.43
694.146	3938.76
694.335	3848.65
694.524	3901.89
694.713	3891.65
694.902	3901.89
695.092	3752.39
695.281	3738.05
695.47	3869.12
695.659	3717.58
695.848	3750.34
696.037	3795.4
696.226	3783.11
696.415	3901.89
696.604	3889.6
696.793	3645.9
696.982	3766.73
697.171	3719.62
697.36	3684.81
697.549	3703.24
697.738	3705.29
697.927	3693
698.116	3697.1
698.305	3688.9
698.494	3746.25
698.683	3713.48
698.872	3748.29
699.061	3557.83
699.25	3629.51
699.438	3643.85
699.627	3647.94
699.816	3682.76
700.005	3717.58
700.193	3670.47
700.382	3666.38
700.571	3701.19
700.76	3627.46
700.948	3561.93
701.137	3668.42
701.326	3637.7
701.514	3621.32
701.703	3779.01
701.892	3631.56
702.08	3856.84
702.269	3752.39
702.457	3719.62
702.646	3688.9
702.834	3559.88
703.023	3690.95
703.212	3805.64
703.4	3637.7
703.589	3719.62
703.777	3719.62
703.965	3652.04
704.154	3731.91
704.342	3572.17
704.531	3842.5
704.719	3727.82
704.907	3830.21
705.096	3647.94
705.284	3828.17
705.472	3795.4
705.661	3824.07
705.849	3881.41
706.037	3916.23
706.226	3795.4
706.414	3848.65
706.602	3877.32
706.79	3963.33
706.979	3836.36
707.167	3975.62
707.355	3895.75
707.543	3891.65
707.731	3899.84
707.919	3955.14
708.107	3850.69
708.296	3852.74
708.484	3936.71
708.672	4014.53
708.86	4000.19
709.048	4231.62
709.236	4049.35
709.424	4030.91
709.612	3981.76
709.8	3983.81
709.988	4012.48
710.176	4069.83
710.364	4047.3
710.551	4141.5
710.739	4262.33
710.927	4268.48
711.115	4202.94
711.303	4305.34
711.491	4305.34
711.679	4178.37
711.866	4245.95
712.054	4409.79
712.242	4311.49
712.43	4356.54
712.617	4200.9
712.805	4389.31
712.993	4321.73
713.181	4311.49
713.368	4446.65
713.556	4485.56
713.744	4329.92
713.931	4469.18
714.119	4516.28
714.306	4512.19
714.494	4620.73
714.682	4504
714.869	4415.93
715.057	4491.71
715.244	4520.38
715.432	4590.01
715.619	4643.26
715.807	4475.32
715.994	4680.12
716.182	4708.79
716.369	4688.31
716.556	4725.18
716.744	4794.81
716.931	4577.72
717.119	4729.27
717.306	4897.21
717.493	5065.14
717.681	4841.91
717.868	4825.53
718.055	5011.89
718.242	4921.78
718.43	4932.02
718.617	4991.41
718.804	4821.43
718.991	4901.3
719.179	4925.88
719.366	4903.35
719.553	5114.29
719.74	4995.51
719.927	5026.23
720.114	5110.19
720.301	5097.91
720.488	5003.7
720.676	5155.25
720.863	5192.11
721.05	5355.95
721.237	5360.05
721.424	5368.24
721.611	5327.28
721.798	5278.13
721.985	5306.8
722.172	5241.26
722.358	5257.65
722.545	5206.45
722.732	5302.7
722.919	5355.95
723.106	5298.61
723.293	5401.01
723.48	5388.72
723.667	5343.66
723.853	5351.85
724.04	5521.84
724.227	5456.3
724.414	5401.01
724.6	5462.44
724.787	5417.39
724.974	5714.34
725.161	5575.08
725.347	5439.92
725.534	5570.99
725.72	5538.22
725.907	5671.34
726.094	5519.79
726.28	5652.91
726.467	5568.94
726.653	5775.78
726.84	5724.58
727.027	5677.48
727.213	5685.67
727.4	5708.2
727.586	5806.5
727.773	5779.88
727.959	5710.25
728.145	5847.46
728.332	5769.64
728.518	5851.56
728.705	5826.98
728.891	5691.82
729.077	5851.56
729.264	5941.67
729.45	5882.28
729.636	6029.73
729.823	5790.12
730.009	5923.24
730.195	5896.61
730.382	5939.62
730.568	5917.09
730.754	5906.85
730.94	5990.82
731.126	6039.97
731.313	6046.12
731.499	5882.28
731.685	5872.04
731.871	6060.45
732.057	6078.88
732.243	6099.36
732.429	6005.16
732.615	6130.08
732.801	6130.08
732.987	5925.29
733.173	6082.98
733.359	6179.23
733.545	6046.12
733.731	6042.02
733.917	6093.22
734.103	6109.6
734.289	5992.87
734.475	6209.95
734.661	6242.72
734.847	6054.31
735.033	6089.12
735.219	6203.81
735.404	6201.76
735.59	6085.03
735.776	6195.62
735.962	6201.76
736.148	6171.04
736.333	6228.38
736.519	6070.69
736.705	6185.38
736.89	6171.04
737.076	6203.81
737.262	6064.55
737.447	6164.9
737.633	6162.85
737.819	6005.16
738.004	6199.71
738.19	5972.39
738.375	6121.89
738.561	6123.94
738.747	6177.19
738.932	6070.69
739.118	6265.25
739.303	6226.34
739.489	6042.02
739.674	6207.91
739.859	6103.46
740.045	5939.62
740.23	5982.63
740.416	5935.53
740.601	6001.06
740.786	6091.17
740.972	5900.71
741.157	6037.92
741.342	5712.3
741.528	5915.05
741.713	5863.85
741.898	5941.67
742.084	5839.27
742.269	6013.35
742.454	5855.65
742.639	5900.71
742.824	5769.64
743.01	6035.88
743.195	5880.23
743.38	5872.04
743.565	5657
743.75	5876.13
743.935	5454.25
744.12	5941.67
744.305	5724.58
744.49	5654.95
744.675	5691.82
744.86	5712.3
745.045	5671.34
745.23	5534.12
745.415	5568.94
745.6	5728.68
745.785	5495.21
745.97	5538.22
746.155	5360.05
746.34	5546.41
746.525	5360.05
746.71	5364.14
746.895	5196.21
747.079	5151.15
747.264	5257.65
747.449	5161.39
747.634	5161.39
747.819	5253.55
748.003	5085.62
748.188	5253.55
748.373	5061.04
748.557	5130.67
748.742	5024.18
748.927	5093.81
749.111	4975.03
749.296	4803
749.481	4995.51
749.665	4882.87
749.85	4663.74
750.034	4759.99
750.219	4778.42
750.404	4868.53
750.588	4702.65
750.773	4692.41
750.957	4757.94
751.141	4614.59
751.326	4684.22
751.51	4585.91
751.695	4518.33
751.879	4495.8
752.064	4475.32
752.248	4372.93
752.432	4282.81
752.617	4524.47
752.801	4426.17
752.985	4395.45
753.17	4358.59
753.354	4315.58
753.538	4161.98
753.722	4170.18
753.907	4229.57
754.091	4112.83
754.275	4194.75
754.459	4075.97
754.643	3957.19
754.828	3969.48
755.012	3979.72
755.196	4090.31
755.38	3951.04
755.564	4053.44
755.748	3746.25
755.932	3695.05
756.116	3758.53
756.3	3901.89
756.484	3762.63
756.668	3787.21
756.852	3645.9
757.036	3525.07
757.22	3541.45
757.404	3527.11
757.588	3582.41
757.772	3627.46
757.956	3439.05
758.14	3381.71
758.323	3502.54
758.507	3520.97
758.691	3420.62
758.875	3443.15
759.059	3449.29
759.242	3350.99
759.426	3363.28
759.61	3244.49
759.794	3082.7
759.977	3244.49
760.161	3262.93
760.345	3271.12
760.528	3336.65
760.712	3156.43
760.895	3144.14
761.079	3178.96
761.263	2927.06
761.446	3088.85
761.63	3045.84
761.813	3111.38
761.997	3105.23
762.18	3017.17
762.364	3068.37
762.547	2972.11
762.731	2910.68
762.914	2939.35
763.098	2929.11
763.281	2918.87
763.464	2828.76
763.648	2843.09
763.831	2771.41
764.015	2886.1
764.198	2882
764.381	2888.15
764.564	2822.61
764.748	2703.83
764.931	2882
765.114	2664.92
765.297	2843.09
765.481	2712.02
765.664	2701.78
765.847	2728.41
766.03	2689.49
766.213	2660.82
766.397	2664.92
766.58	2583
766.763	2656.73
766.946	2638.3
767.129	2574.81
767.312	2542.04
767.495	2660.82
767.678	2589.14
767.861	2529.75
768.044	2515.42
768.227	2523.61
768.41	2556.38
768.593	2507.23
768.776	2496.99
768.959	2599.38
769.142	2574.81
769.324	2367.96
769.507	2470.36
769.69	2449.88
769.873	2458.07
770.056	2666.97
770.239	2439.64
770.421	2419.16
770.604	2320.86
770.787	2302.43
770.97	2408.92
771.152	2255.33
771.335	2277.85
771.518	2265.57
771.7	2331.1
771.883	2294.24
772.066	2316.76
772.248	2179.55
772.431	2310.62
772.613	2181.6
772.796	2187.74
772.978	2216.41
773.161	2189.79
773.343	2154.98
773.526	2064.86
773.708	2042.34
773.891	2091.49
774.073	1972.71
774.256	2103.78
774.438	2130.4
774.621	1917.41
774.803	1896.93
774.985	1929.7
775.168	1937.89
775.35	1927.65
775.532	1923.55
775.715	1931.75
775.897	1872.36
776.079	1870.31
776.261	1841.64
776.444	1878.5
776.626	1798.63
776.808	1788.39
776.99	1782.24
777.173	1853.92
777.355	1794.53
777.537	1804.77
777.719	1710.57
777.901	1739.24
778.083	1747.43
778.265	1788.39
778.447	1731.05
778.629	1632.74
778.811	1694.18
778.993	1657.32
779.175	1671.65
779.357	1649.13
779.539	1585.64
779.721	1630.7
779.903	1669.61
780.085	1501.67
780.267	1610.22
780.449	1497.58
780.631	1575.4
780.812	1526.25
780.994	1511.91
781.176	1473
781.358	1460.71
781.54	1434.09
781.721	1429.99
781.903	1495.53
782.085	1405.42
782.267	1534.44
782.448	1481.19
782.63	1403.37
782.812	1401.32
782.993	1419.75
783.175	1421.8
783.357	1288.68
783.538	1370.6
783.72	1321.45
783.901	1368.56
784.083	1313.26
784.264	1272.3
784.446	1360.36
784.627	1102.32
784.809	1227.25
784.99	1221.1
785.172	1229.29
785.353	1153.52
785.535	1204.72
785.716	1294.83
785.897	1180.14
786.079	1094.13
786.26	1096.18
786.441	1118.7
786.623	985.58
786.804	1079.79
786.985	1139.18
787.167	1092.08
787.348	1073.65
787.529	1071.6
787.71	1149.42
787.891	1090.03
788.073	1092.08
788.254	1079.79
788.435	1108.46
788.616	1100.27
788.797	1006.06
788.978	1040.88
789.159	1001.97
789.34	909.81
789.522	1012.21
789.703	942.58
789.884	934.39
790.065	920.05
790.246	1020.4
790.427	969.2
790.607	977.39
790.788	895.47
790.969	952.82
791.15	934.39
791.331	905.71
791.512	924.15
791.693	934.39
791.874	877.04
792.054	954.87
792.235	944.63
792.416	915.95
792.597	772.6
792.778	903.67
792.958	879.09
793.139	846.32
793.32	907.76
793.5	803.32
793.681	905.71
793.862	797.17
794.042	762.36
794.223	813.56
794.404	776.69
794.584	690.68
794.765	729.59
794.945	821.75
795.126	750.07
795.306	864.75
795.487	821.75
795.667	754.16
795.848	690.68
796.028	762.36
796.209	739.83
796.389	764.4
796.57	698.87
796.75	713.21
796.93	772.6
797.111	696.82
797.291	700.92
797.471	776.69
797.652	643.57
797.832	662.01
798.012	647.67
798.192	518.65
798.373	711.16
798.553	784.88
798.733	676.34
798.913	686.58
799.093	643.57
799.274	686.58
799.454	692.73
799.634	639.48
799.814	768.5
799.994	598.52
800.174	631.29
800.354	682.49
800.534	602.61
800.714	707.06
800.894	668.15
801.074	537.08
801.254	551.42
801.434	633.33
801.614	590.33
801.794	592.37
801.974	1233.39
802.154	557.56
802.334	584.18
802.514	512.5
802.693	526.84
802.873	604.66
803.053	590.33
803.233	575.99
803.413	518.65
803.592	567.8
803.772	463.35
803.952	514.55
804.131	553.46
804.311	524.79
804.491	545.27
804.67	453.11
804.85	573.94
805.03	590.33
805.209	616.95
805.389	485.88
805.568	502.26
805.748	498.17
805.928	561.66
806.107	545.27
806.287	475.64
806.466	539.13
806.646	389.63
806.825	500.22
807.004	469.5
807.184	494.07
807.363	516.6
807.543	449.02
807.722	483.83
807.901	518.65
808.081	518.65
808.26	453.11
808.439	471.54
808.619	496.12
808.798	500.22
808.977	485.88
809.156	489.98
809.336	430.59
809.515	383.48
809.694	420.35
809.873	457.21
810.052	420.35
810.231	401.91
810.411	485.88
810.59	457.21
810.769	473.59
810.948	467.45
811.127	363
811.306	354.81
811.485	387.58
811.664	477.69
811.843	444.92
812.022	379.39
812.201	414.2
812.38	387.58
812.559	383.48
812.737	420.35
812.916	385.53
813.095	330.23
813.274	401.91
813.453	391.67
813.632	434.68
813.811	406.01
813.989	363
814.168	363
814.347	393.72
814.526	426.49
814.704	377.34
814.883	422.39
815.062	444.92
815.24	416.25
815.419	322.04
815.598	346.62
815.776	381.43
815.955	360.95
816.133	336.38
816.312	354.81
816.49	240.12
816.669	367.1
816.847	375.29
817.026	328.19
817.204	338.43
817.383	346.62
817.561	293.37
817.74	399.87
817.918	367.1
818.097	305.66
818.275	320
818.453	305.66
818.632	379.39
818.81	348.67
818.988	281.08
819.167	301.56
819.345	354.81
819.523	387.58
819.701	281.08
819.879	313.85
820.058	293.37
820.236	281.08
820.414	313.85
820.592	379.39
820.77	344.57
820.948	342.52
821.127	379.39
821.305	270.84
821.483	256.51
821.661	301.56
821.839	317.95
822.017	305.66
822.195	354.81
822.373	283.13
822.551	221.69
822.729	297.47
822.907	240.12
823.085	309.76
823.262	258.56
823.44	246.27
823.618	256.51
823.796	279.04
823.974	356.86
824.152	238.08
824.329	260.6
824.507	317.95
824.685	254.46
824.863	264.7
825.04	199.16
825.218	260.6
825.396	213.5
825.574	195.07
825.751	311.8
825.929	295.42
826.107	147.97
826.284	289.28
826.462	207.36
826.639	240.12
826.817	211.45
826.994	174.59
827.172	207.36
827.349	303.61
827.527	256.51
827.704	254.46
827.882	279.04
828.059	227.84
828.237	190.97
828.414	184.83
828.591	156.16
828.769	231.93
828.946	272.89
829.124	315.9
829.301	262.65
829.478	129.53
829.655	268.8
829.833	174.59
830.01	233.98
830.187	164.35
830.364	244.22
830.542	197.12
830.719	246.27
830.896	254.46
831.073	223.74
831.25	190.97
831.427	256.51
831.604	178.69
831.782	203.26
831.959	240.12
832.136	199.16
832.313	207.36
832.49	190.97
832.667	287.23
832.844	199.16
833.021	223.74
833.198	168.45
833.374	227.84
833.551	170.49
833.728	147.97
833.905	199.16
834.082	141.82
834.259	186.88
834.436	289.28
834.612	104.96
834.789	244.22
834.966	233.98
835.143	178.69
835.319	135.68
835.496	150.01
835.673	166.4
835.85	154.11
836.026	197.12
836.203	174.59
836.38	188.93
836.556	186.88
836.733	182.78
836.909	217.6
837.086	84.48
837.262	113.15
837.439	152.06
837.616	197.12
837.792	158.21
837.968	88.57
838.145	104.96
838.321	207.36
838.498	147.97
838.674	150.01
838.851	102.91
839.027	115.2
839.203	104.96
839.38	209.4
839.556	139.77
839.732	236.03
839.909	82.43
840.085	156.16
840.261	90.62
840.437	190.97
840.614	88.57
840.79	197.12
840.966	170.49
841.142	164.35
841.318	188.93
841.494	115.2
841.671	172.54
841.847	121.34
842.023	147.97
842.199	141.82
842.375	213.5
842.551	176.64
842.727	84.48
842.903	268.8
843.079	92.67
843.255	129.53
843.431	141.82
843.607	104.96
843.783	137.73
843.959	145.92
844.134	80.38
844.31	182.78
844.486	33.28
844.662	59.9
844.838	111.1
845.013	92.67
845.189	117.25
845.365	109.05
845.541	125.44
845.716	123.39
845.892	98.81
846.068	78.33
846.244	90.62
846.419	137.73
846.595	90.62
846.77	107.01
846.946	150.01
847.122	80.38
847.297	10.75
847.473	147.97
847.648	109.05
847.824	100.86
847.999	25.09
848.175	82.43
848.35	123.39
848.526	92.67
848.701	125.44
848.876	121.34
849.052	176.64
849.227	127.49
849.403	53.76
849.578	57.86
849.753	139.77
849.929	166.4
850.104	16.9
850.279	98.81
850.454	35.33
850.63	102.91
850.805	164.35
850.98	35.33
851.155	92.67
851.33	53.76
851.505	35.33
851.681	123.39
851.856	27.14
852.031	115.2
852.206	59.9
852.381	84.48
852.556	113.15
852.731	182.78
852.906	43.52
853.081	76.29
853.256	117.25
853.431	84.48
853.606	123.39
853.781	31.23
853.956	27.14
854.131	27.14
854.305	51.71
854.48	133.63
854.655	92.67
854.83	14.85
855.005	68.09
855.18	31.23
855.354	20.99
855.529	70.14
855.704	125.44
855.879	102.91
856.053	41.47
856.228	45.57
856.403	2.56
856.577	76.29
856.752	0.51
856.926	16.9
857.101	154.11
857.276	-32.26
857.45	123.39
857.625	102.91
857.799	109.05
857.974	109.05
858.148	43.52
858.323	123.39
858.497	68.09
858.672	76.29
858.846	33.28
859.02	113.15
859.195	-9.73
859.369	49.66
859.543	109.05
859.718	59.9
859.892	43.52
860.066	121.34
860.241	111.1
860.415	59.9
860.589	10.75
860.763	100.86
860.938	84.48
861.112	43.52
861.286	-40.45
861.46	18.94
861.634	70.14
861.808	6.66
861.982	61.95
862.157	-38.4
862.331	68.09
862.505	2.56
862.679	31.23
862.853	113.15
863.027	-22.02
863.201	129.53
863.375	0.51
863.549	43.52
863.722	35.33
863.896	100.86
864.07	76.29
864.244	51.71
864.418	43.52
864.592	121.34
864.766	18.94
864.939	59.9
865.113	-7.68
865.287	92.67
865.461	8.7
865.634	74.24
865.808	125.44
865.982	-1.54
866.156	-50.69
866.329	43.52
866.503	98.81
866.676	0.51
866.85	82.43
867.024	47.62
867.197	107.01
867.371	133.63
867.544	61.95
867.718	-26.11
867.891	104.96
868.065	16.9
868.238	92.67
868.412	18.94
868.585	25.09
868.759	84.48
868.932	59.9
869.105	47.62
869.279	27.14
869.452	33.28
869.625	-11.78
869.799	25.09
869.972	10.75
870.145	31.23
870.319	88.57
870.492	74.24
870.665	76.29
870.838	92.67
871.011	-48.64
871.185	10.75
871.358	82.43
871.531	109.05
871.704	61.95
871.877	80.38
872.05	-17.92
872.223	-19.97
872.396	59.9
872.569	33.28
872.742	-9.73
872.915	-17.92
873.088	33.28
873.261	-34.3
873.434	33.28
873.607	16.9
873.78	57.86
873.953	41.47
874.126	80.38
874.299	20.99
874.471	-17.92
874.644	2.56
874.817	-9.73
874.99	66.05
875.163	-30.21
875.335	117.25
875.508	2.56
875.681	66.05
875.853	-89.6
876.026	41.47
876.199	10.75
876.371	80.38
876.544	-52.74
876.717	33.28
876.889	64
877.062	43.52
877.234	2.56
877.407	41.47
877.579	55.81
877.752	27.14
877.924	39.42
878.097	72.19
878.269	-17.92
878.442	33.28
878.614	51.71
878.786	6.66
878.959	-7.68
879.131	-1.54
879.303	20.99
879.476	37.38
879.648	53.76
879.82	80.38
879.993	-13.82
880.165	23.04
880.337	-13.82
880.509	10.75
880.681	-58.88
880.854	-32.26
881.026	127.49
881.198	90.62
881.37	-48.64
881.542	8.7
881.714	64
881.886	2.56
882.058	51.71
882.23	41.47
882.402	33.28
882.574	14.85
882.746	86.53
882.918	61.95
883.09	80.38
883.262	-40.45
883.434	10.75
883.606	-65.02
883.778	51.71
883.95	10.75
884.122	-26.11
884.293	33.28
884.465	59.9
884.637	78.33
884.809	-13.82
884.98	20.99
885.152	68.09
885.324	35.33
885.496	18.94
885.667	78.33
885.839	0.51
886.011	57.86
886.182	-24.06
886.354	-3.58
886.525	14.85
886.697	59.9
886.869	-15.87
887.04	0.51
887.212	2.56
887.383	76.29
887.555	-13.82
887.726	55.81
887.897	41.47
888.069	-22.02
888.24	4.61
888.412	-22.02
888.583	-71.17
888.754	68.09
888.926	-95.74
889.097	0.51
889.268	14.85
889.44	18.94
889.611	47.62
889.782	-50.69
889.953	59.9
890.125	23.04
890.296	-7.68
890.467	-50.69
890.638	-22.02
890.809	-28.16
890.98	59.9
891.151	33.28
891.323	35.33
891.494	55.81
891.665	-52.74
891.836	6.66
892.007	-1.54
892.178	86.53
892.349	6.66
892.52	-7.68
892.691	33.28
892.862	51.71
893.032	-62.98
893.203	-11.78
893.374	82.43
893.545	66.05
893.716	47.62
893.887	82.43
894.057	55.81
894.228	25.09
894.399	27.14
894.57	96.77
894.74	-71.17
894.911	12.8
895.082	57.86
895.253	-13.82
895.423	35.33
895.594	10.75
895.764	59.9
895.935	4.61
896.106	6.66
896.276	43.52
896.447	-13.82
896.617	-11.78
896.788	64
896.958	8.7
897.129	23.04
897.299	64
897.47	-24.06
897.64	74.24
897.81	-19.97
897.981	23.04
898.151	-34.3
898.322	-15.87
898.492	8.7
898.662	-26.11
898.832	-15.87
899.003	-17.92
899.173	-56.83
899.343	-22.02
899.513	-69.12
