Data from USB4F104151__35__11-30-11-464.txt Node

Date: Fri Mar 14 11:30:11 EDT 2025
User: louis
Spectrometer: USB4F10415
Trigger mode: 4
Integration Time (sec): 5.000000E-2
Scans to average: 1
Electric dark correction enabled: true
Nonlinearity correction enabled: false
Boxcar width: 0
XAxis mode: Wavelengths
Number of Pixels in Spectrum: 3648
>>>>>Begin Spectral Data<<<<<
178.204	-104.96
178.424	-104.96
178.644	-104.96
178.864	-162.3
179.084	-113.15
179.304	-33.28
179.524	-14.85
179.744	-41.47
179.964	5.63
180.184	-2.56
180.404	24.06
180.624	13.82
180.844	56.83
181.064	-39.42
181.283	-0.51
181.503	30.21
181.723	1.54
181.943	-88.57
182.163	83.45
182.383	9.73
182.602	34.3
182.822	62.98
183.042	9.73
183.262	52.74
183.482	97.79
183.701	69.12
183.921	36.35
184.141	32.26
184.361	34.3
184.58	75.26
184.8	-64
185.02	34.3
185.239	34.3
185.459	30.21
185.679	-14.85
185.898	-88.57
186.118	40.45
186.338	42.5
186.557	50.69
186.777	15.87
186.997	58.88
187.216	42.5
187.436	108.03
187.655	130.56
187.875	32.26
188.095	26.11
188.314	52.74
188.534	17.92
188.753	-16.9
188.973	67.07
189.192	19.97
189.412	34.3
189.631	-29.18
189.851	-33.28
190.07	142.85
190.29	-29.18
190.509	24.06
190.729	9.73
190.948	54.78
191.168	91.65
191.387	34.3
191.607	7.68
191.826	50.69
192.045	7.68
192.265	-31.23
192.484	38.4
192.704	9.73
192.923	24.06
193.142	77.31
193.362	22.02
193.581	58.88
193.8	103.93
194.02	48.64
194.239	-8.7
194.458	22.02
194.678	1.54
194.897	151.04
195.116	-10.75
195.335	30.21
195.555	-12.8
195.774	42.5
195.993	75.26
196.212	28.16
196.432	40.45
196.651	-25.09
196.87	56.83
197.089	116.22
197.308	91.65
197.528	9.73
197.747	71.17
197.966	58.88
198.185	48.64
198.404	28.16
198.623	13.82
198.842	73.21
199.062	30.21
199.281	77.31
199.5	-35.33
199.719	11.78
199.938	79.36
200.157	40.45
200.376	46.59
200.595	34.3
200.814	26.11
201.033	83.45
201.252	36.35
201.471	22.02
201.69	22.02
201.909	56.83
202.128	17.92
202.347	38.4
202.566	42.5
202.785	24.06
203.004	-47.62
203.223	167.42
203.442	-6.66
203.661	-31.23
203.879	62.98
204.098	40.45
204.317	-23.04
204.536	124.41
204.755	40.45
204.974	-10.75
205.193	26.11
205.411	73.21
205.63	24.06
205.849	58.88
206.068	48.64
206.287	-49.66
206.505	99.84
206.724	5.63
206.943	36.35
207.162	46.59
207.381	1.54
207.599	-18.94
207.818	-6.66
208.037	-25.09
208.255	34.3
208.474	65.02
208.693	58.88
208.911	9.73
209.13	42.5
209.349	42.5
209.567	28.16
209.786	60.93
210.005	50.69
210.223	-16.9
210.442	15.87
210.661	22.02
210.879	48.64
211.098	24.06
211.316	5.63
211.535	56.83
211.753	38.4
211.972	1.54
212.191	38.4
212.409	-76.29
212.628	17.92
212.846	71.17
213.065	73.21
213.283	32.26
213.502	17.92
213.72	-37.38
213.938	-33.28
214.157	5.63
214.375	-0.51
214.594	-41.47
214.812	11.78
215.031	42.5
215.249	22.02
215.467	130.56
215.686	-72.19
215.904	44.54
216.122	58.88
216.341	91.65
216.559	30.21
216.778	11.78
216.996	40.45
217.214	-31.23
217.432	9.73
217.651	-49.66
217.869	-23.04
218.087	22.02
218.306	24.06
218.524	7.68
218.742	46.59
218.96	17.92
219.179	50.69
219.397	52.74
219.615	1.54
219.833	26.11
220.051	-27.14
220.27	112.13
220.488	38.4
220.706	-0.51
220.924	-68.09
221.142	17.92
221.36	75.26
221.578	17.92
221.796	24.06
222.015	50.69
222.233	67.07
222.451	15.87
222.669	26.11
222.887	11.78
223.105	-0.51
223.323	-80.38
223.541	-0.51
223.759	9.73
223.977	-8.7
224.195	48.64
224.413	9.73
224.631	58.88
224.849	32.26
225.067	38.4
225.285	-4.61
225.503	67.07
225.721	-27.14
225.939	132.61
226.157	-8.7
226.375	73.21
226.592	34.3
226.81	1.54
227.028	-14.85
227.246	75.26
227.464	-8.7
227.682	-31.23
227.9	44.54
228.117	22.02
228.335	-4.61
228.553	50.69
228.771	-14.85
228.989	22.02
229.206	9.73
229.424	48.64
229.642	79.36
229.86	24.06
230.077	112.13
230.295	28.16
230.513	62.98
230.731	26.11
230.948	19.97
231.166	5.63
231.384	38.4
231.601	9.73
231.819	9.73
232.037	-12.8
232.254	-72.19
232.472	38.4
232.689	-14.85
232.907	114.17
233.125	44.54
233.342	11.78
233.56	42.5
233.777	34.3
233.995	75.26
234.213	67.07
234.43	-27.14
234.648	50.69
234.865	15.87
235.083	32.26
235.3	50.69
235.518	48.64
235.735	89.6
235.953	24.06
236.17	65.02
236.388	32.26
236.605	32.26
236.822	73.21
237.04	87.55
237.257	-6.66
237.475	24.06
237.692	-0.51
237.909	26.11
238.127	9.73
238.344	40.45
238.562	-31.23
238.779	-16.9
238.996	7.68
239.214	38.4
239.431	-47.62
239.648	42.5
239.865	-10.75
240.083	120.32
240.3	34.3
240.517	-2.56
240.735	-2.56
240.952	-2.56
241.169	89.6
241.386	30.21
241.603	48.64
241.821	5.63
242.038	83.45
242.255	-14.85
242.472	11.78
242.689	79.36
242.907	67.07
243.124	9.73
243.341	-10.75
243.558	-14.85
243.775	67.07
243.992	-57.86
244.209	83.45
244.426	105.98
244.643	153.09
244.86	24.06
245.078	24.06
245.295	28.16
245.512	89.6
245.729	56.83
245.946	26.11
246.163	42.5
246.38	26.11
246.597	15.87
246.814	38.4
247.031	26.11
247.248	67.07
247.464	30.21
247.681	-25.09
247.898	-0.51
248.115	77.31
248.332	-8.7
248.549	22.02
248.766	77.31
248.983	50.69
249.2	15.87
249.417	89.6
249.633	34.3
249.85	11.78
250.067	17.92
250.284	62.98
250.501	58.88
250.717	-14.85
250.934	-55.81
251.151	42.5
251.368	17.92
251.585	83.45
251.801	42.5
252.018	17.92
252.235	26.11
252.451	30.21
252.668	17.92
252.885	54.78
253.102	22.02
253.318	-8.7
253.535	1.54
253.752	-41.47
253.968	38.4
254.185	-37.38
254.401	44.54
254.618	26.11
254.835	-10.75
255.051	146.94
255.268	40.45
255.484	54.78
255.701	-4.61
255.917	67.07
256.134	-51.71
256.351	-14.85
256.567	7.68
256.784	148.99
257	-4.61
257.217	50.69
257.433	-43.52
257.65	40.45
257.866	17.92
258.082	-31.23
258.299	-31.23
258.515	89.6
258.732	17.92
258.948	-18.94
259.165	36.35
259.381	9.73
259.597	22.02
259.814	-41.47
260.03	54.78
260.246	38.4
260.463	50.69
260.679	91.65
260.895	9.73
261.112	13.82
261.328	-8.7
261.544	30.21
261.761	56.83
261.977	-33.28
262.193	-0.51
262.409	48.64
262.626	-2.56
262.842	-14.85
263.058	50.69
263.274	-8.7
263.49	-27.14
263.707	56.83
263.923	50.69
264.139	-2.56
264.355	15.87
264.571	30.21
264.787	-4.61
265.004	19.97
265.22	77.31
265.436	36.35
265.652	-47.62
265.868	15.87
266.084	13.82
266.3	-31.23
266.516	38.4
266.732	11.78
266.948	36.35
267.164	-55.81
267.38	99.84
267.596	56.83
267.812	124.41
268.028	7.68
268.244	26.11
268.46	15.87
268.676	81.41
268.892	114.17
269.108	26.11
269.324	67.07
269.54	-12.8
269.756	81.41
269.972	7.68
270.188	-61.95
270.403	7.68
270.619	91.65
270.835	-8.7
271.051	-33.28
271.267	83.45
271.483	30.21
271.698	7.68
271.914	116.22
272.13	124.41
272.346	-6.66
272.562	60.93
272.777	71.17
272.993	7.68
273.209	130.56
273.425	24.06
273.64	22.02
273.856	7.68
274.072	-25.09
274.287	-74.24
274.503	83.45
274.719	54.78
274.934	-20.99
275.15	-2.56
275.366	22.02
275.581	108.03
275.797	5.63
276.012	-33.28
276.228	44.54
276.444	-10.75
276.659	28.16
276.875	-49.66
277.09	42.5
277.306	22.02
277.521	30.21
277.737	-23.04
277.952	75.26
278.168	19.97
278.383	67.07
278.599	-14.85
278.814	124.41
279.03	87.55
279.245	134.65
279.461	38.4
279.676	89.6
279.892	-14.85
280.107	-33.28
280.322	11.78
280.538	34.3
280.753	95.74
280.969	1.54
281.184	-27.14
281.399	34.3
281.615	-39.42
281.83	81.41
282.045	-74.24
282.26	-25.09
282.476	34.3
282.691	77.31
282.906	46.59
283.122	101.89
283.337	19.97
283.552	7.68
283.767	24.06
283.983	-16.9
284.198	17.92
284.413	75.26
284.628	62.98
284.843	67.07
285.058	48.64
285.274	71.17
285.489	42.5
285.704	67.07
285.919	-4.61
286.134	-37.38
286.349	-6.66
286.564	5.63
286.779	65.02
286.995	58.88
287.21	-39.42
287.425	28.16
287.64	-39.42
287.855	44.54
288.07	24.06
288.285	75.26
288.5	114.17
288.715	5.63
288.93	-80.38
289.145	58.88
289.36	42.5
289.575	56.83
289.79	112.13
290.004	-27.14
290.219	54.78
290.434	-57.86
290.649	15.87
290.864	58.88
291.079	-12.8
291.294	120.32
291.509	32.26
291.724	38.4
291.938	65.02
292.153	3.58
292.368	42.5
292.583	-12.8
292.798	50.69
293.012	44.54
293.227	54.78
293.442	-39.42
293.657	-6.66
293.871	83.45
294.086	69.12
294.301	58.88
294.516	30.21
294.73	91.65
294.945	-72.19
295.16	42.5
295.374	81.41
295.589	42.5
295.804	46.59
296.018	34.3
296.233	40.45
296.447	161.28
296.662	13.82
296.877	-16.9
297.091	85.5
297.306	48.64
297.52	-27.14
297.735	22.02
297.949	77.31
298.164	38.4
298.378	62.98
298.593	73.21
298.807	19.97
299.022	42.5
299.236	60.93
299.451	7.68
299.665	22.02
299.88	48.64
300.094	42.5
300.309	26.11
300.523	9.73
300.737	1.54
300.952	24.06
301.166	26.11
301.381	50.69
301.595	58.88
301.809	50.69
302.024	9.73
302.238	34.3
302.452	60.93
302.667	34.3
302.881	22.02
303.095	112.13
303.309	26.11
303.524	-10.75
303.738	46.59
303.952	54.78
304.166	38.4
304.381	-43.52
304.595	60.93
304.809	30.21
305.023	54.78
305.237	1.54
305.452	71.17
305.666	58.88
305.88	30.21
306.094	73.21
306.308	71.17
306.522	126.46
306.736	42.5
306.95	97.79
307.164	42.5
307.379	114.17
307.593	24.06
307.807	34.3
308.021	58.88
308.235	62.98
308.449	67.07
308.663	-14.85
308.877	69.12
309.091	67.07
309.305	34.3
309.519	26.11
309.733	62.98
309.947	-14.85
310.161	62.98
310.374	140.8
310.588	42.5
310.802	13.82
311.016	-55.81
311.23	58.88
311.444	67.07
311.658	81.41
311.872	73.21
312.085	81.41
312.299	93.69
312.513	124.41
312.727	26.11
312.941	32.26
313.154	79.36
313.368	54.78
313.582	105.98
313.796	-23.04
314.009	26.11
314.223	44.54
314.437	-10.75
314.651	65.02
314.864	26.11
315.078	42.5
315.292	-0.51
315.505	50.69
315.719	19.97
315.933	38.4
316.146	50.69
316.36	54.78
316.573	132.61
316.787	22.02
317.001	-8.7
317.214	-20.99
317.428	62.98
317.641	65.02
317.855	-18.94
318.068	26.11
318.282	62.98
318.495	83.45
318.709	34.3
318.922	46.59
319.136	9.73
319.349	15.87
319.563	67.07
319.776	22.02
319.99	-43.52
320.203	89.6
320.417	7.68
320.63	89.6
320.843	67.07
321.057	42.5
321.27	24.06
321.483	42.5
321.697	65.02
321.91	36.35
322.124	83.45
322.337	75.26
322.55	36.35
322.763	120.32
322.977	28.16
323.19	-18.94
323.403	32.26
323.617	83.45
323.83	50.69
324.043	-39.42
324.256	34.3
324.469	56.83
324.683	112.13
324.896	54.78
325.109	75.26
325.322	24.06
325.535	44.54
325.748	136.7
325.962	42.5
326.175	44.54
326.388	87.55
326.601	-6.66
326.814	24.06
327.027	58.88
327.24	95.74
327.453	-20.99
327.666	97.79
327.879	38.4
328.092	-14.85
328.305	54.78
328.518	1.54
328.731	48.64
328.944	116.22
329.157	1.54
329.37	26.11
329.583	65.02
329.796	124.41
330.009	40.45
330.222	24.06
330.435	71.17
330.648	75.26
330.861	13.82
331.073	-20.99
331.286	99.84
331.499	-12.8
331.712	58.88
331.925	108.03
332.138	30.21
332.35	120.32
332.563	24.06
332.776	54.78
332.989	42.5
333.202	38.4
333.414	62.98
333.627	40.45
333.84	1.54
334.053	-6.66
334.265	67.07
334.478	42.5
334.691	17.92
334.903	13.82
335.116	50.69
335.329	75.26
335.541	34.3
335.754	89.6
335.966	5.63
336.179	30.21
336.392	58.88
336.604	-18.94
336.817	93.69
337.029	71.17
337.242	52.74
337.454	50.69
337.667	48.64
337.88	116.22
338.092	-20.99
338.305	42.5
338.517	-33.28
338.729	26.11
338.942	50.69
339.154	48.64
339.367	13.82
339.579	30.21
339.792	58.88
340.004	97.79
340.217	50.69
340.429	71.17
340.641	-27.14
340.854	-6.66
341.066	-43.52
341.278	38.4
341.491	79.36
341.703	56.83
341.915	3.58
342.128	32.26
342.34	17.92
342.552	56.83
342.764	9.73
342.977	48.64
343.189	26.11
343.401	87.55
343.613	9.73
343.826	26.11
344.038	26.11
344.25	32.26
344.462	34.3
344.674	5.63
344.886	38.4
345.099	38.4
345.311	9.73
345.523	-74.24
345.735	-68.09
345.947	42.5
346.159	34.3
346.371	-27.14
346.583	22.02
346.795	99.84
347.007	34.3
347.219	81.41
347.431	5.63
347.643	83.45
347.855	67.07
348.067	48.64
348.279	11.78
348.491	87.55
348.703	62.98
348.915	-57.86
349.127	9.73
349.339	56.83
349.551	-6.66
349.763	126.46
349.975	58.88
350.187	19.97
350.399	99.84
350.61	114.17
350.822	24.06
351.034	30.21
351.246	-23.04
351.458	73.21
351.669	-4.61
351.881	50.69
352.093	71.17
352.305	36.35
352.517	-6.66
352.728	65.02
352.94	128.51
353.152	36.35
353.363	30.21
353.575	26.11
353.787	48.64
353.999	-31.23
354.21	69.12
354.422	-37.38
354.633	87.55
354.845	-16.9
355.057	42.5
355.268	91.65
355.48	11.78
355.692	65.02
355.903	40.45
356.115	38.4
356.326	42.5
356.538	54.78
356.749	58.88
356.961	67.07
357.172	34.3
357.384	50.69
357.595	161.28
357.807	32.26
358.018	34.3
358.23	42.5
358.441	99.84
358.653	116.22
358.864	-6.66
359.075	-2.56
359.287	9.73
359.498	75.26
359.709	26.11
359.921	105.98
360.132	73.21
360.344	9.73
360.555	-107.01
360.766	30.21
360.977	89.6
361.189	42.5
361.4	50.69
361.611	77.31
361.823	130.56
362.034	26.11
362.245	-39.42
362.456	77.31
362.667	73.21
362.879	38.4
363.09	38.4
363.301	58.88
363.512	71.17
363.723	75.26
363.935	7.68
364.146	7.68
364.357	22.02
364.568	48.64
364.779	-35.33
364.99	56.83
365.201	46.59
365.412	101.89
365.623	73.21
365.834	-14.85
366.045	34.3
366.256	83.45
366.467	17.92
366.678	30.21
366.889	-18.94
367.1	67.07
367.311	50.69
367.522	62.98
367.733	32.26
367.944	62.98
368.155	-10.75
368.366	116.22
368.577	32.26
368.788	116.22
368.999	15.87
369.209	91.65
369.42	112.13
369.631	114.17
369.842	-16.9
370.053	-4.61
370.264	132.61
370.474	99.84
370.685	17.92
370.896	17.92
371.107	87.55
371.317	103.93
371.528	24.06
371.739	91.65
371.95	116.22
372.16	83.45
372.371	-10.75
372.582	30.21
372.792	62.98
373.003	34.3
373.214	22.02
373.424	46.59
373.635	15.87
373.846	101.89
374.056	67.07
374.267	52.74
374.477	67.07
374.688	32.26
374.898	40.45
375.109	54.78
375.319	79.36
375.53	60.93
375.74	5.63
375.951	7.68
376.161	-6.66
376.372	97.79
376.582	1.54
376.793	95.74
377.003	-66.05
377.214	85.5
377.424	91.65
377.635	-0.51
377.845	73.21
378.055	44.54
378.266	60.93
378.476	58.88
378.686	95.74
378.897	75.26
379.107	17.92
379.317	9.73
379.528	24.06
379.738	79.36
379.948	17.92
380.158	24.06
380.369	65.02
380.579	30.21
380.789	75.26
380.999	73.21
381.21	3.58
381.42	89.6
381.63	-18.94
381.84	46.59
382.05	77.31
382.261	62.98
382.471	34.3
382.681	112.13
382.891	26.11
383.101	120.32
383.311	-35.33
383.521	52.74
383.731	26.11
383.941	91.65
384.151	75.26
384.361	17.92
384.571	58.88
384.781	89.6
384.991	116.22
385.201	136.7
385.411	9.73
385.621	46.59
385.831	24.06
386.041	40.45
386.251	67.07
386.461	79.36
386.671	62.98
386.881	116.22
387.091	124.41
387.301	60.93
387.511	3.58
387.72	42.5
387.93	58.88
388.14	-14.85
388.35	62.98
388.56	79.36
388.769	58.88
388.979	-8.7
389.189	83.45
389.399	-12.8
389.609	79.36
389.818	-6.66
390.028	-6.66
390.238	36.35
390.447	30.21
390.657	126.46
390.867	67.07
391.076	65.02
391.286	30.21
391.496	69.12
391.705	77.31
391.915	67.07
392.125	87.55
392.334	44.54
392.544	148.99
392.753	114.17
392.963	17.92
393.172	87.55
393.382	26.11
393.591	185.85
393.801	103.93
394.01	120.32
394.22	89.6
394.429	38.4
394.639	54.78
394.848	19.97
395.058	202.24
395.267	126.46
395.477	89.6
395.686	75.26
395.895	101.89
396.105	228.86
396.314	112.13
396.524	122.37
396.733	75.26
396.942	83.45
397.152	89.6
397.361	97.79
397.57	58.88
397.78	97.79
397.989	130.56
398.198	110.08
398.407	62.98
398.617	91.65
398.826	79.36
399.035	124.41
399.244	126.46
399.453	142.85
399.663	187.9
399.872	173.57
400.081	157.18
400.29	173.57
400.499	42.5
400.708	124.41
400.917	151.04
401.127	30.21
401.336	58.88
401.545	140.8
401.754	163.33
401.963	69.12
402.172	126.46
402.381	116.22
402.59	148.99
402.799	126.46
403.008	235
403.217	116.22
403.426	194.05
403.635	95.74
403.844	189.95
404.053	165.37
404.262	42.5
404.471	124.41
404.68	187.9
404.888	179.71
405.097	91.65
405.306	97.79
405.515	222.72
405.724	140.8
405.933	214.52
406.142	216.57
406.35	163.33
406.559	173.57
406.768	177.66
406.977	296.44
407.185	235
407.394	237.05
407.603	155.13
407.812	179.71
408.02	247.29
408.229	214.52
408.438	212.48
408.646	245.24
408.855	292.35
409.064	206.33
409.272	251.39
409.481	296.44
409.69	263.68
409.898	261.63
410.107	312.83
410.315	380.41
410.524	327.16
410.733	341.5
410.941	394.75
411.15	388.6
411.358	427.51
411.567	476.66
411.775	407.03
411.984	404.99
412.192	470.52
412.401	441.85
412.609	531.96
412.818	587.26
413.026	542.2
413.234	515.58
413.443	482.81
413.651	562.68
413.86	546.3
414.068	693.75
414.276	757.24
414.485	609.78
414.693	714.23
414.901	820.72
415.11	835.06
415.318	796.15
415.526	898.55
415.734	888.31
415.943	787.96
416.151	910.83
416.359	976.37
416.567	955.89
416.776	902.64
416.984	1000.94
417.192	1091.06
417.4	1037.81
417.608	1062.38
417.817	1072.62
418.025	1132.01
418.233	1224.17
418.441	1050.1
418.649	1349.1
418.857	1437.16
419.065	1371.63
419.273	1312.24
419.481	1502.7
419.689	1590.76
419.897	1619.43
420.105	1695.21
420.313	1742.31
420.521	1773.03
420.729	1719.78
420.937	1758.69
421.145	1879.52
421.353	1891.81
421.561	2018.79
421.769	2063.84
421.977	2246.11
422.185	2260.45
422.393	2342.36
422.601	2518.49
422.809	2457.05
423.017	2500.06
423.224	2639.32
423.432	2733.53
423.64	2672.09
423.848	2913.75
424.056	2885.08
424.263	3155.41
424.471	3069.39
424.679	3245.52
424.887	3478.99
425.094	3571.15
425.302	3423.69
425.51	3614.15
425.718	3833.29
425.925	3784.13
426.133	3835.33
426.341	4089.28
426.548	4218.3
426.756	4292.03
426.964	4396.48
427.171	4617.66
427.379	4701.62
427.586	4611.51
427.794	4949.43
428.001	4996.53
428.209	5330.35
428.417	5346.73
428.624	5787.05
428.832	5660.07
429.039	5633.45
429.247	5733.8
429.454	6268.32
429.662	6589.85
429.869	6194.59
430.076	6634.91
430.284	6340
430.491	6784.41
430.699	7054.74
430.906	7038.36
431.114	7157.14
431.321	7601.55
431.528	7439.76
431.736	7998.85
431.943	8289.67
432.15	8289.67
432.358	8322.43
432.565	8805.75
432.772	8781.18
432.979	9256.31
433.187	9338.23
433.394	9454.96
433.601	10065.25
433.808	9850.22
434.016	10118.5
434.223	10421.6
434.43	10972.5
434.637	10837.34
434.844	11507.02
435.052	11754.83
435.259	11486.54
435.466	11601.23
435.673	11781.45
435.88	12533.06
436.087	13012.28
436.294	12903.74
436.501	12551.49
436.708	13061.43
436.915	13391.16
437.122	14136.62
437.329	13995.31
437.537	14359.84
437.743	14775.58
437.95	14544.16
438.157	15367.45
438.364	15871.25
438.571	15908.11
438.778	16004.36
438.985	17491.19
439.192	16706.82
439.399	17218.81
439.606	16913.66
439.813	17704.18
440.02	18666.72
440.227	18543.85
440.433	18314.47
440.64	19186.91
440.847	19221.72
441.054	19408.09
441.261	20507.85
441.467	20350.15
441.674	20763.84
441.881	21568.69
442.088	21714.1
442.294	21189.82
442.501	21834.93
442.708	22426.79
442.914	23272.6
443.121	24061.07
443.328	23553.18
443.534	25369.72
443.741	24722.57
443.948	23921.81
444.154	25857.14
444.361	25730.17
444.568	26242.16
444.774	25957.49
444.981	26133.62
445.187	27071.59
445.394	28111.96
445.6	28191.83
445.807	30317.62
446.013	29004.87
446.22	29852.73
446.426	30829.61
446.633	31185.96
446.839	32414.74
447.046	30716.97
447.252	32525.33
447.459	32623.63
447.665	32670.73
447.871	33805.31
448.078	35382.24
448.284	33555.46
448.491	34450.42
448.697	35986.39
448.903	36412.37
449.11	36277.21
449.316	35759.07
449.522	37016.52
449.728	37415.88
449.935	38005.69
450.141	37860.29
450.347	38448.05
450.553	37202.89
450.76	38190.01
450.966	39095.21
451.172	38615.99
451.378	39439.27
451.584	38798.26
451.791	39463.85
451.997	39521.19
452.203	40289.18
452.409	39895.97
452.615	39693.22
452.821	38491.06
453.027	37632.96
453.233	40123.29
453.44	38478.77
453.646	38677.43
453.852	38710.19
454.058	39144.36
454.264	38050.75
454.47	39246.76
454.676	37784.51
454.882	38972.33
455.088	35718.11
455.294	36465.62
455.5	36932.56
455.705	37362.63
455.911	35294.18
456.117	34989.03
456.323	34354.16
456.529	32756.75
456.735	33979.39
456.941	33393.67
457.147	32635.92
457.352	31745.05
457.558	31198.24
457.764	31349.79
457.97	30512.17
458.176	30067.77
458.381	29893.69
458.587	28107.86
458.793	28388.43
458.999	26868.84
459.204	28697.67
459.41	28077.14
459.616	26502.25
459.821	26424.43
460.027	26229.87
460.233	25441.4
460.438	24360.08
460.644	24605.83
460.85	23405.72
461.055	23112.86
461.261	23139.49
461.466	21296.32
461.672	20518.09
461.878	21886.13
462.083	20858.05
462.289	20251.85
462.494	19963.09
462.7	19119.32
462.905	18613.48
463.111	19213.53
463.316	19393.75
463.522	19029.21
463.727	19154.14
463.932	19113.18
464.138	18838.75
464.343	18859.23
464.549	18756.83
464.754	18554.08
464.959	18744.55
465.165	18525.41
465.37	17816.82
465.575	17306.87
465.781	18019.57
465.986	18130.16
466.191	17444.09
466.397	17067.26
466.602	16608.51
466.807	17073.4
467.012	17069.31
467.218	17028.35
467.423	16596.23
467.628	16860.41
467.833	17575.16
468.038	16897.28
468.244	16323.85
468.449	16876.8
468.654	16272.65
468.859	16362.76
469.064	16100.62
469.269	15566.1
469.474	15842.57
469.679	15826.19
469.885	15488.28
470.09	15719.7
470.295	15660.31
470.5	15263
470.705	15308.05
470.91	15095.07
471.115	14751.01
471.32	15088.92
471.525	15164.7
471.73	14681.38
471.935	14564.64
472.139	13978.92
472.344	14312.74
472.549	14077.23
472.754	13788.46
472.959	13704.49
473.164	13323.57
473.369	13153.59
473.574	13624.62
473.778	13550.9
473.983	13268.28
474.188	13460.79
474.393	12625.22
474.598	12832.06
474.802	12625.22
475.007	12492.1
475.212	12461.38
475.417	11980.11
475.621	12152.13
475.826	12236.1
476.031	11875.66
476.235	11781.45
476.44	11937.1
476.645	11650.38
476.849	11689.29
477.054	11402.58
477.259	11144.53
477.463	11320.66
477.668	11216.21
477.872	11015.51
478.077	10978.65
478.282	10659.17
478.486	10831.19
478.691	10913.11
478.895	10579.29
479.1	10706.27
479.304	10683.74
479.509	10141.03
479.713	10392.93
479.918	10237.28
480.122	9917.8
480.326	10128.74
480.531	10253.67
480.735	9921.9
480.94	9895.27
481.144	10411.36
481.348	9872.75
481.553	9891.18
481.757	9602.41
481.961	10083.69
482.166	10044.77
482.37	9966.95
482.574	9661.8
482.778	9747.82
482.983	9809.26
483.187	9672.04
483.391	9735.53
483.595	9737.58
483.8	9622.89
484.004	9737.58
484.208	9874.79
484.412	9674.09
484.616	9708.91
484.821	9641.32
485.025	9547.12
485.229	9876.84
485.433	9454.96
485.637	9842.03
485.841	9534.83
486.045	9702.76
486.249	9586.03
486.453	9651.56
486.657	9850.22
486.861	9688.43
487.065	9414
487.269	9547.12
487.473	9596.27
487.677	9784.68
487.881	9831.79
488.085	9829.74
488.289	9770.35
488.493	9731.44
488.697	9909.61
488.901	9801.07
489.105	9839.98
489.309	9878.89
489.512	9917.8
489.716	9887.08
489.92	9823.59
490.124	9694.57
490.328	9987.43
490.531	9850.22
490.735	9878.89
490.939	9966.95
491.143	9954.66
491.346	9979.24
491.55	10036.58
491.754	9989.48
491.958	9971.05
492.161	10177.89
492.365	10220.9
492.569	10100.07
492.772	10177.89
492.976	10388.83
493.18	10280.29
493.383	10415.46
493.587	10487.14
493.79	10700.12
493.994	10507.62
494.197	10704.22
494.401	10829.15
494.605	10769.76
494.808	10730.84
495.012	11081.05
495.215	10892.63
495.419	11109.72
495.622	11070.81
495.825	11240.79
496.029	11224.4
496.232	11498.83
496.436	11617.61
496.639	11607.37
496.843	11490.64
497.046	11957.58
497.249	12084.55
497.453	12215.62
497.656	12162.37
497.859	12289.35
498.063	12324.16
498.266	12655.93
498.469	12612.93
498.673	12756.29
498.876	13047.1
499.079	13016.38
499.282	12973.37
499.485	13563.19
499.689	13557.04
499.892	13739.31
500.095	13784.37
500.298	13993.26
500.501	13905.2
500.705	14376.23
500.908	14480.68
501.111	14523.68
501.314	14822.69
501.517	14927.13
501.72	14939.42
501.923	14894.36
502.126	14941.47
502.329	15469.84
502.532	15566.1
502.735	15682.83
502.938	15926.54
503.141	16092.43
503.344	16129.29
503.547	16446.73
503.75	16219.4
503.953	16833.79
504.156	16772.35
504.359	16925.95
504.562	17083.64
504.765	17556.72
504.968	17708.27
505.17	17820.91
505.373	17904.88
505.576	18216.17
505.779	18619.62
505.982	18607.33
506.185	18832.61
506.387	18795.75
506.59	18941.15
506.793	19395.8
506.996	19277.02
507.198	19875.02
507.401	19711.19
507.604	20243.66
507.807	20698.31
508.009	20618.44
508.212	20841.67
508.415	21030.08
508.617	21263.55
508.82	21351.61
509.022	21542.07
509.225	21820.6
509.428	21941.43
509.63	22019.25
509.833	22138.03
510.035	23073.95
510.238	22459.56
510.44	23065.76
510.643	23317.66
510.845	23391.39
511.048	23553.18
511.25	23610.52
511.453	23850.13
511.655	24759.43
511.858	24585.35
512.06	24663.18
512.262	24960.13
512.465	25031.81
512.667	25621.63
512.87	25611.39
513.072	25638.01
513.274	26276.98
513.477	26342.51
513.679	26719.34
513.881	27020.39
514.084	27339.87
514.286	27331.68
514.488	27548.76
514.69	28013.65
514.893	28091.48
515.095	28392.53
515.297	28947.53
515.499	28877.9
515.701	29070.4
515.904	29318.21
516.106	29674.56
516.308	30166.07
516.51	30606.38
516.712	30553.13
516.914	30624.81
517.116	31011.88
517.318	31163.43
517.52	31654.94
517.722	31536.16
517.925	32140.31
518.127	32621.58
518.329	32633.87
518.531	32691.21
518.733	33420.29
518.935	33758.2
519.136	33344.52
519.338	34081.78
519.54	34472.95
519.742	34444.27
519.944	34780.14
520.146	35073
520.348	35587.04
520.55	35478.5
520.752	35687.39
520.954	36561.87
521.155	36207.58
521.357	36723.66
521.559	37311.43
521.761	37491.65
521.963	37604.29
522.164	38298.55
522.366	38112.19
522.568	38079.42
522.77	38405.05
522.971	39211.95
523.173	39148.46
523.375	39351.21
523.576	39785.38
523.778	39410.6
523.98	40203.16
524.181	40698.77
524.383	40670.1
524.584	41112.46
524.786	41175.95
524.988	40670.1
525.189	41479.05
525.391	42101.63
525.592	42249.08
525.794	42611.57
525.995	42212.22
526.197	42822.51
526.398	42681.2
526.6	42810.23
526.801	43187.05
527.003	43563.88
527.204	43477.86
527.406	43735.91
527.607	43881.31
527.808	44589.91
528.01	43936.61
528.211	44235.61
528.412	45247.31
528.614	45167.44
528.815	44903.25
529.016	45296.46
529.218	45452.11
529.419	45517.64
529.62	45601.61
529.822	45622.09
530.023	45716.29
530.224	45935.43
530.425	46254.91
530.626	46058.31
530.828	45527.88
531.029	46779.19
531.23	46172.99
531.431	46287.68
531.632	46578.49
531.833	46859.06
532.035	46871.35
532.236	46891.83
532.437	47082.29
532.638	46713.66
532.839	47553.32
533.04	47543.08
533.241	46639.93
533.442	47960.87
533.643	47766.31
533.844	47231.79
534.045	47495.98
534.246	47016.75
534.447	47737.64
534.648	47754.02
534.849	48030.5
535.05	47532.84
535.251	47862.57
535.451	47469.36
535.652	47891.24
535.853	47940.39
536.054	47885.09
536.255	47805.22
536.456	47692.58
536.657	48519.96
536.857	47786.79
537.058	47635.24
537.259	48048.93
537.46	48036.64
537.66	48046.88
537.861	48147.23
538.062	48096.03
538.263	48114.47
538.463	47797.03
538.664	47813.41
538.865	48261.92
539.065	48182.05
539.266	47590.19
539.466	48421.66
539.667	47688.49
539.868	48347.93
540.068	48159.52
540.269	47516.46
540.469	48143.14
540.67	47803.17
540.87	47909.67
541.071	47745.83
541.271	48012.07
541.472	48118.56
541.672	47805.22
541.873	47831.85
542.073	47614.76
542.274	48583.45
542.474	47741.74
542.675	47463.21
542.875	48214.82
543.075	47837.99
543.276	47123.25
543.476	47801.13
543.676	47799.08
543.877	48284.45
544.077	47954.72
544.277	47831.85
544.478	47495.98
544.678	47770.41
544.878	47659.82
545.078	48114.47
545.279	47786.79
545.479	47917.86
545.679	47743.78
545.879	47778.6
546.079	47747.88
546.28	47803.17
546.48	47573.8
546.68	48323.36
546.88	47977.25
547.08	47913.76
547.28	47668.01
547.48	47504.17
547.68	47719.21
547.88	47336.24
548.081	48306.97
548.281	47573.8
548.481	47520.55
548.681	48325.41
548.881	47858.47
549.081	47639.34
549.28	47518.51
549.48	47581.99
549.68	47436.59
549.88	48294.69
550.08	47581.99
550.28	47924
550.48	46998.32
550.68	47758.12
550.88	46936.88
551.08	47196.98
551.279	47772.46
551.479	47233.84
551.679	47239.98
551.879	47311.66
552.079	47319.85
552.278	47442.73
552.478	47424.3
552.678	47731.5
552.878	47407.92
553.077	47188.78
553.277	47004.47
553.477	47901.48
553.676	47450.92
553.876	47354.67
554.076	47110.96
554.275	47307.57
554.475	46340.92
554.674	47323.95
554.874	46633.78
555.074	46979.89
555.273	47106.87
555.473	46807.86
555.672	46152.51
555.872	47012.66
556.071	46787.38
556.271	46922.55
556.47	46504.76
556.67	46287.68
556.869	46111.55
557.068	46551.87
557.268	46508.86
557.467	46175.04
557.667	45984.58
557.866	46121.79
558.065	45968.19
558.265	45869.89
558.464	45798.21
558.663	46246.72
558.863	45505.35
559.062	45796.17
559.261	45114.19
559.461	45761.35
559.66	44745.56
559.859	45103.95
560.058	44385.11
560.258	45232.97
560.457	44637.01
560.656	45353.8
560.855	44616.54
561.054	45126.48
561.253	44477.27
561.453	44325.72
561.652	44837.72
561.851	44847.96
562.05	44178.27
562.249	44145.5
562.448	44452.7
562.647	43987.81
562.846	44374.87
563.045	44004.19
563.244	43455.34
563.443	43993.95
563.642	43094.89
563.841	43383.66
564.04	43289.45
564.239	43201.39
564.438	43092.85
564.637	43326.31
564.836	43164.53
565.035	42476.41
565.234	42810.23
565.432	42486.65
565.631	42380.15
565.83	42376.06
566.029	42158.97
566.228	42015.61
566.427	41945.98
566.625	41995.14
566.824	41259.91
567.023	41667.46
567.222	41003.92
567.42	41438.09
567.619	41153.42
567.818	41221
568.016	40891.28
568.215	40786.83
568.414	40676.24
568.612	40819.6
568.811	40567.7
569.01	40686.48
569.208	40297.37
569.407	40348.57
569.605	39828.38
569.804	40516.5
570.002	39459.75
570.201	40147.87
570.4	39193.51
570.598	39531.43
570.797	39627.68
570.995	39078.83
571.193	38849.46
571.392	39228.33
571.59	38751.15
571.789	39033.77
571.987	39062.44
572.186	38747.06
572.384	38114.23
572.582	38562.74
572.781	38579.12
572.979	37708.74
573.177	37870.53
573.376	38120.38
573.574	37450.69
573.772	37671.87
573.971	37551.04
574.169	37399.49
574.367	37155.79
574.565	37557.19
574.763	36891.6
574.962	37090.25
575.16	36983.76
575.358	37010.38
575.556	36359.13
575.754	36500.44
575.952	36197.34
576.151	36301.78
576.349	35945.44
576.547	36113.37
576.745	35886.04
576.943	36025.31
577.141	35613.66
577.339	35699.68
577.537	35429.35
577.735	35451.88
577.933	35091.43
578.131	35285.99
578.329	34984.94
578.527	34903.02
578.725	35066.86
578.923	35263.46
579.121	34540.53
579.319	34472.95
579.516	34880.49
579.714	34626.54
579.912	34323.44
580.11	34155.51
580.308	33915.9
580.506	33692.67
580.704	33487.87
580.901	33860.6
581.099	33817.6
581.297	33438.72
581.495	33233.92
581.692	33561.6
581.89	33020.94
582.088	33356.8
582.285	32947.21
582.483	33246.21
582.681	32887.82
582.878	32732.17
583.076	32386.07
583.274	32824.33
583.471	32119.83
583.669	32908.3
583.866	32381.97
584.064	32721.93
584.262	31763.48
584.459	32168.98
584.657	31982.62
584.854	31618.08
585.052	31697.95
585.249	31656.99
585.447	31683.61
585.644	31349.79
585.841	31456.29
586.039	31656.99
586.236	31355.94
586.434	31198.24
586.631	30610.48
586.828	31177.76
587.026	30530.61
587.223	30921.77
587.42	30899.24
587.618	30600.24
587.815	30364.72
588.012	30411.82
588.21	30182.45
588.407	30579.76
588.604	29887.54
588.801	30293.04
588.999	29838.39
589.196	29832.25
589.393	29545.53
589.59	29459.52
589.787	29631.55
589.984	29525.05
590.182	29316.16
590.379	29346.88
590.576	29355.07
590.773	29015.11
590.97	28714.06
591.167	29088.84
591.364	28671.05
591.561	28699.72
591.758	28374.1
591.955	28685.39
592.152	28769.35
592.349	28142.67
592.546	28718.15
592.743	28484.69
592.94	27888.73
593.137	28286.03
593.334	28507.21
593.531	27651.16
593.727	27980.89
593.924	27774.04
594.121	27505.76
594.318	27855.96
594.515	27372.64
594.712	27454.56
594.908	27100.26
595.105	27429.98
595.302	26719.34
595.499	27503.71
595.696	26870.89
595.892	26741.86
596.089	27169.89
596.286	26924.13
596.482	26772.58
596.679	26870.89
596.876	26469.48
597.072	26569.83
597.269	26348.65
597.466	26387.57
597.662	25977.97
597.859	25971.83
598.055	26158.19
598.252	25988.21
598.448	26145.91
598.645	25912.44
598.841	25767.03
599.038	25896.05
599.234	25779.32
599.431	25547.9
599.627	25156.74
599.824	25367.68
600.02	25187.46
600.217	25214.08
600.413	25367.68
600.609	25097.35
600.806	24691.85
601.002	25093.25
601.198	24446.09
601.395	24607.88
601.591	24548.49
601.787	24511.63
601.984	24341.64
602.18	24814.73
602.376	24304.78
602.572	24192.14
602.769	24417.42
602.965	23919.76
603.161	24136.85
603.357	23919.76
603.553	23952.53
603.75	23796.88
603.946	23770.26
604.142	23852.18
604.338	23407.77
604.534	23477.4
604.73	23229.6
604.926	23174.3
605.122	23391.39
605.318	23243.93
605.514	22965.41
605.71	22867.11
605.906	22774.95
606.102	22865.06
606.298	23059.62
606.494	22817.96
606.69	22928.55
606.886	22668.45
607.082	22324.4
607.278	22547.62
607.474	22226.09
607.67	22486.18
607.866	21839.03
608.062	22525.1
608.257	22185.13
608.453	21974.19
608.649	22271.15
608.845	21830.83
609.041	21968.05
609.236	21937.33
609.432	21671.09
609.628	21814.45
609.824	21761.2
610.019	21804.21
610.215	21716.15
610.411	21826.74
610.606	21785.78
610.802	21667
610.998	21673.14
611.193	21443.77
611.389	21494.97
611.584	21255.36
611.78	21275.84
611.976	21437.62
612.171	21228.73
612.367	21181.63
612.562	20831.43
612.758	20833.47
612.953	20958.4
613.149	21163.2
613.344	21028.03
613.539	20796.61
613.735	20915.39
613.93	20995.26
614.126	20524.23
614.321	20915.39
614.517	20704.45
614.712	20557
614.907	20331.72
615.103	20487.37
615.298	20483.27
615.493	20559.05
615.688	20257.99
615.884	20710.6
616.079	20161.74
616.274	20458.7
616.47	20333.77
616.665	20180.17
616.86	20157.64
617.055	19891.41
617.25	19823.83
617.445	20036.81
617.641	19674.32
617.836	20126.92
618.031	19635.41
618.226	19995.85
618.421	19756.24
618.616	20018.38
618.811	19313.88
619.006	19768.53
619.201	19203.29
619.396	19291.35
619.591	18969.82
619.786	19037.41
619.981	19000.54
620.176	19225.82
620.371	18818.27
620.566	18971.87
620.761	18685.15
620.956	18717.92
621.151	18279.66
621.346	18892
621.541	18029.8
621.735	18474.21
621.93	18089.2
622.125	18250.99
622.32	18072.81
622.515	17933.55
622.709	17728.75
622.904	17612.02
623.099	17900.78
623.294	17454.33
623.488	17403.13
623.683	17394.93
623.878	17181.95
624.072	17224.95
624.267	16985.34
624.462	17282.3
624.656	17001.72
624.851	16973.05
625.046	16899.33
625.24	16737.54
625.435	16639.23
625.629	16608.51
625.824	16674.05
626.018	16162.06
626.213	15983.88
626.407	16266.5
626.602	15838.48
626.796	16086.28
626.991	15969.55
627.185	15965.45
627.38	15699.22
627.574	15637.78
627.768	15543.57
627.963	15334.68
628.157	15265.05
628.352	15408.4
628.546	14976.28
628.74	15316.25
628.935	15187.22
629.129	15168.79
629.323	14935.32
629.517	14859.55
629.712	14554.4
629.906	14705.95
630.1	14517.54
630.294	14691.62
630.489	14458.15
630.683	14771.49
630.877	14423.33
631.071	14265.64
631.265	14286.12
631.459	14279.97
631.653	14019.88
631.848	14093.61
632.042	13632.82
632.236	13700.4
632.43	13692.21
632.624	13620.53
632.818	13602.1
633.012	13153.59
633.206	13466.93
633.4	13743.41
633.594	13079.86
633.788	13436.21
633.982	13411.64
634.176	13116.73
634.369	12959.03
634.563	13116.73
634.757	12805.44
634.951	12731.71
635.145	12889.4
635.339	12846.4
635.533	12555.58
635.726	12559.68
635.92	12305.73
636.114	12502.34
636.308	12320.07
636.501	12137.8
636.695	12238.15
636.889	12043.59
637.083	12264.77
637.276	11965.77
637.47	12019.02
637.664	11883.85
637.857	11828.56
638.051	11969.87
638.244	12006.73
638.438	11601.23
638.632	11535.7
638.825	11517.26
639.019	11470.16
639.212	11312.47
639.406	11468.11
639.599	11396.43
639.793	11265.36
639.986	11085.14
640.18	11134.29
640.373	11085.14
640.567	10823
640.76	11083.09
640.954	10792.28
641.147	10884.44
641.34	10739.04
641.534	10517.86
641.727	10528.1
641.92	10407.27
642.114	10308.96
642.307	10575.2
642.5	10419.55
642.694	10110.31
642.887	10417.51
643.08	10173.8
643.273	10134.89
643.467	10118.5
643.66	10114.41
643.853	9870.7
644.046	9813.35
644.239	9983.34
644.432	9921.9
644.626	9788.78
644.819	9854.31
645.012	9923.94
645.205	9753.96
645.398	9616.75
645.591	9362.8
645.784	9454.96
645.977	9414
646.17	9403.76
646.363	9338.23
646.556	9284.98
646.749	9366.9
646.942	9307.51
647.135	9188.72
647.328	9338.23
647.521	8971.64
647.714	9059.7
647.907	9026.93
648.099	8926.58
648.292	8932.73
648.485	8799.61
648.678	8766.84
648.871	8516.99
649.064	8754.55
649.256	8848.76
649.449	8691.07
649.642	8455.55
649.835	8516.99
650.027	8543.61
650.22	8457.6
650.413	8367.49
650.605	8353.15
650.798	8244.61
650.991	8267.14
651.183	8240.51
651.376	8191.36
651.568	8088.96
651.761	8054.15
651.954	8033.67
652.146	8043.91
652.339	8172.93
652.531	7861.64
652.724	7853.45
652.916	7728.52
653.109	8035.72
653.301	7826.82
653.494	7871.88
653.686	7533.97
653.879	7888.26
654.071	7486.86
654.263	7746.95
654.456	7433.61
654.648	7474.57
654.84	7228.82
655.033	7546.25
655.225	7495.05
655.417	7382.42
655.61	7437.71
655.802	7406.99
655.994	7253.39
656.186	7140.76
656.379	7280.02
656.571	7232.91
656.763	7165.33
656.955	7161.23
657.148	7050.64
657.34	7073.17
657.532	6985.11
657.724	6915.48
657.916	7021.97
658.108	7036.31
658.3	6831.51
658.492	6944.15
658.684	6718.87
658.876	6657.43
659.068	6821.27
659.26	6759.83
659.452	6854.04
659.644	6745.5
659.836	6561.18
660.028	6669.72
660.22	6368.67
660.412	6485.41
660.604	6454.69
660.796	6440.35
660.988	6389.15
661.18	6518.17
661.372	6493.6
661.563	6421.92
661.755	6372.77
661.947	6223.27
662.139	6247.84
662.331	6368.67
662.522	6155.68
662.714	6243.74
662.906	6129.06
663.097	6047.14
663.289	6342.05
663.481	6069.67
663.673	6094.24
663.864	6004.13
664.056	5819.82
664.247	6004.13
664.439	5934.5
664.631	5948.84
664.822	5930.41
665.014	5776.81
665.205	5967.27
665.397	5983.65
665.588	5930.41
665.78	5842.34
665.971	5572.01
666.163	5885.35
666.354	5846.44
666.546	5733.8
666.737	5770.66
666.929	5832.1
667.12	5776.81
667.311	5791.14
667.503	5539.24
667.694	5594.54
667.885	5662.12
668.077	5658.03
668.268	5612.97
668.459	5631.4
668.651	5569.96
668.842	5621.16
669.033	5604.78
669.224	5465.52
669.416	5572.01
669.607	5477.8
669.798	5449.13
669.989	5453.23
670.18	5424.56
670.371	5572.01
670.563	5350.83
670.754	5420.46
670.945	5279.15
671.136	5449.13
671.327	5402.03
671.518	5445.04
671.709	5514.67
671.9	5404.08
672.091	5488.04
672.282	5481.9
672.473	5424.56
672.664	5295.54
672.855	5424.56
673.046	5326.25
673.237	5371.31
673.428	5442.99
673.619	5379.5
673.809	5375.41
674	5438.89
674.191	5270.96
674.382	5399.98
674.573	5318.06
674.764	5445.04
674.954	5346.73
675.145	5279.15
675.336	5307.82
675.527	5238.19
675.717	5342.64
675.908	5191.09
676.099	5514.67
676.289	5230
676.48	5451.18
676.671	5322.16
676.861	5457.32
677.052	5273.01
677.243	5408.17
677.433	5451.18
677.624	5383.6
677.814	5449.13
678.005	5453.23
678.195	5371.31
678.386	5379.5
678.576	5236.14
678.767	5387.69
678.957	5404.08
679.148	5473.71
679.338	5457.32
679.529	5512.62
679.719	5539.24
679.909	5481.9
680.1	5410.22
680.29	5447.08
680.481	5529
680.671	5488.04
680.861	5473.71
681.052	5629.35
681.242	5524.91
681.432	5563.82
681.622	5471.66
681.813	5424.56
682.003	5539.24
682.193	5604.78
682.383	5709.22
682.573	5526.96
682.764	5617.07
682.954	5662.12
683.144	5578.15
683.334	5649.83
683.524	5586.35
683.714	5635.5
683.904	5619.11
684.094	5510.57
684.284	5615.02
684.474	5756.33
684.664	5627.31
684.854	5602.73
685.044	5563.82
685.234	5551.53
685.424	5561.77
685.614	5643.69
685.804	5596.59
685.994	5416.37
686.184	5565.87
686.374	5565.87
686.564	5584.3
686.753	5610.92
686.943	5283.25
687.133	5461.42
687.323	5440.94
687.513	5602.73
687.702	5463.47
687.892	5268.91
688.082	5359.02
688.272	5383.6
688.461	5242.29
688.651	5275.06
688.841	5234.1
689.03	5168.56
689.22	5242.29
689.41	5172.66
689.599	5053.87
689.789	5217.71
689.979	5100.98
690.168	4947.38
690.358	5100.98
690.547	5023.16
690.737	4818.36
690.926	5029.3
691.116	4769.21
691.305	4953.52
691.495	4793.78
691.684	4859.32
691.874	4785.59
692.063	4662.71
692.252	4711.86
692.442	4810.17
692.631	4681.14
692.82	4687.29
693.01	4638.14
693.199	4591.03
693.388	4466.11
693.578	4570.55
693.767	4507.07
693.956	4631.99
694.146	4533.69
694.335	4453.82
694.524	4343.23
694.713	4478.4
694.902	4380.09
695.092	4322.75
695.281	4376
695.47	4449.72
695.659	4322.75
695.848	4404.67
696.037	4138.43
696.226	4328.89
696.415	4388.29
696.604	4390.33
696.793	4351.42
696.982	4330.94
697.171	4285.89
697.36	4283.84
697.549	4330.94
697.738	4226.5
697.927	4218.3
698.116	4267.45
698.305	4310.46
698.494	4222.4
698.683	4306.37
698.872	4232.64
699.061	4212.16
699.25	4244.93
699.438	4076.99
699.627	4074.95
699.816	4220.35
700.005	4109.76
700.193	4126.15
700.382	4201.92
700.571	4244.93
700.76	4171.2
700.948	4113.86
701.137	4126.15
701.326	4130.24
701.514	4040.13
701.703	4146.62
701.892	4242.88
702.08	4240.83
702.269	4132.29
702.457	4171.2
702.646	4074.95
702.834	4218.3
703.023	4244.93
703.212	4187.58
703.4	4255.17
703.589	4130.24
703.777	4185.54
703.965	4013.51
704.154	4212.16
704.342	4085.19
704.531	4199.87
704.719	4183.49
704.907	4259.26
705.096	4132.29
705.284	4214.21
705.472	4257.22
705.661	4109.76
705.849	4230.59
706.037	4408.76
706.226	4226.5
706.414	4240.83
706.602	4130.24
706.79	4361.66
706.979	4173.25
707.167	4181.44
707.355	4261.31
707.543	4251.07
707.731	4251.07
707.919	4357.57
708.107	4363.71
708.296	4120
708.484	4296.13
708.672	4167.1
708.86	4507.07
709.048	4236.74
709.236	4382.14
709.424	4462.01
709.612	4449.72
709.8	4306.37
709.988	4466.11
710.176	4326.85
710.364	4400.57
710.551	4339.13
710.739	4400.57
710.927	4464.06
711.115	4376
711.303	4498.88
711.491	4550.07
711.679	4412.86
711.866	4562.36
712.054	4629.95
712.242	4629.95
712.43	4709.82
712.617	4584.89
712.805	4511.16
712.993	4574.65
713.181	4527.55
713.368	4652.47
713.556	4572.6
713.744	4453.82
713.931	4789.69
714.119	4685.24
714.306	4660.66
714.494	4701.62
714.682	4752.82
714.869	4664.76
715.057	4920.76
715.244	4666.81
715.432	4931
715.619	4834.74
715.807	4744.63
715.994	4806.07
716.182	4849.08
716.369	4765.11
716.556	5072.31
716.744	4761.02
716.931	5047.73
717.119	5176.75
717.306	5160.37
717.493	4996.53
717.681	4941.24
717.868	5060.02
718.055	5055.92
718.242	5064.11
718.43	5066.16
718.617	5084.59
718.804	5051.83
718.991	5039.54
719.179	5107.12
719.366	4996.53
719.553	5252.53
719.74	5010.87
719.927	5193.14
720.114	5148.08
720.301	5184.94
720.488	5162.42
720.676	5277.1
720.863	5234.1
721.05	5301.68
721.237	5324.21
721.424	5322.16
721.611	5447.08
721.798	5242.29
721.985	5467.56
722.172	5266.86
722.358	5301.68
722.545	5449.13
722.732	5303.73
722.919	5469.61
723.106	5184.94
723.293	5526.96
723.48	5545.39
723.667	5430.7
723.853	5539.24
724.04	5488.04
724.227	5619.11
724.414	5686.7
724.6	5584.3
724.787	5510.57
724.974	5690.79
725.161	5572.01
725.347	5535.15
725.534	5739.94
725.72	5465.52
725.907	5881.25
726.094	5805.48
726.28	5619.11
726.467	5641.64
726.653	5725.61
726.84	5649.83
727.027	5916.07
727.213	5819.82
727.4	5813.67
727.586	5848.49
727.773	5701.03
727.959	5770.66
728.145	5903.78
728.332	5774.76
728.518	5989.8
728.705	5948.84
728.891	5819.82
729.077	5934.5
729.264	5897.64
729.45	5899.69
729.636	5922.21
729.823	5997.99
730.009	5989.8
730.195	5991.84
730.382	6032.8
730.568	5854.63
730.754	5981.6
730.94	5944.74
731.126	6081.96
731.313	6051.24
731.499	6086.05
731.685	5957.03
731.871	5924.26
732.057	6124.96
732.243	6049.19
732.429	5946.79
732.615	5916.07
732.801	6073.76
732.987	6010.28
733.173	6133.15
733.359	6190.5
733.545	6129.06
733.731	6182.31
733.917	6108.58
734.103	6208.93
734.289	6053.28
734.475	6075.81
734.661	6190.5
734.847	5985.7
735.033	6170.02
735.219	6079.91
735.404	6194.59
735.59	6268.32
735.776	6120.87
735.962	6380.96
736.148	6161.83
736.333	6202.79
736.519	6167.97
736.705	6260.13
736.89	6276.51
737.076	6143.39
737.262	6145.44
737.447	6170.02
737.633	5985.7
737.819	6100.39
738.004	6104.48
738.19	6180.26
738.375	6190.5
738.561	6383.01
738.747	6335.9
738.932	6133.15
739.118	6251.94
739.303	6120.87
739.489	6290.85
739.674	6090.15
739.859	6053.28
740.045	6020.52
740.23	6030.76
740.416	5936.55
740.601	6102.43
740.786	6075.81
740.972	5952.93
741.157	6061.48
741.342	5985.7
741.528	5991.84
741.713	5963.17
741.898	6016.42
742.084	5823.91
742.269	5846.44
742.454	5756.33
742.639	5954.98
742.824	5752.23
743.01	5840.29
743.195	5903.78
743.38	5692.84
743.565	5760.42
743.75	5817.77
743.935	5789.1
744.12	5717.42
744.305	5766.57
744.49	5864.87
744.675	5588.39
744.86	5580.2
745.045	5655.98
745.23	5690.79
745.415	5582.25
745.6	5463.47
745.785	5629.35
745.97	5318.06
746.155	5600.68
746.34	5590.44
746.525	5381.55
746.71	5473.71
746.895	5299.63
747.079	5367.21
747.264	5293.49
747.449	5379.5
747.634	5084.59
747.819	5131.7
748.003	5105.07
748.188	5049.78
748.373	5047.73
748.557	5189.04
748.742	5010.87
748.927	5006.77
749.111	4963.76
749.296	5051.83
749.481	4836.79
749.665	4904.37
749.85	4902.33
750.034	4963.76
750.219	4713.91
750.404	4791.73
750.588	4689.34
750.773	4611.51
750.957	4660.66
751.141	4679.1
751.326	4550.07
751.51	4402.62
751.695	4564.41
751.879	4621.75
752.064	4527.55
752.248	4445.63
752.432	4527.55
752.617	4457.92
752.801	4502.97
752.985	4371.9
753.17	4322.75
753.354	4308.41
753.538	4216.26
753.722	4138.43
753.907	4134.34
754.091	4128.19
754.275	4144.58
754.459	4154.82
754.643	4105.67
754.828	3970.5
755.012	4023.75
755.196	3999.17
755.38	3904.96
755.564	3843.53
755.748	3900.87
755.932	3909.06
756.116	3771.85
756.3	3728.84
756.484	3712.46
756.668	3933.64
756.852	3753.41
757.036	3679.69
757.22	3706.31
757.404	3548.62
757.588	3497.42
757.772	3585.48
757.956	3378.64
758.14	3483.08
758.323	3601.87
758.507	3386.83
758.691	3431.88
758.875	3536.33
759.059	3470.8
759.242	3358.16
759.426	3222.99
759.61	3325.39
759.794	3329.49
759.977	3352.01
760.161	3399.12
760.345	3188.18
760.528	3235.28
760.712	3349.96
760.895	3120.59
761.079	3163.6
761.263	3175.89
761.446	3106.26
761.63	3089.87
761.813	3122.64
761.997	3028.43
762.18	3022.29
762.364	2966.99
762.547	3057.11
762.731	3085.78
762.914	3036.63
763.098	2999.76
763.281	2923.99
763.464	2952.66
763.648	2934.23
763.831	2883.03
764.015	2907.6
764.198	2794.97
764.381	2883.03
764.564	2915.8
764.748	2870.74
764.931	2729.43
765.114	2684.38
765.297	2747.86
765.481	2725.33
765.664	2678.23
765.847	2719.19
766.03	2633.18
766.213	2696.66
766.397	2553.31
766.58	2680.28
766.763	2704.85
766.946	2676.18
767.129	2667.99
767.312	2670.04
767.495	2631.13
767.678	2547.16
767.861	2541.02
768.044	2500.06
768.227	2522.59
768.41	2418.14
768.593	2532.83
768.776	2516.44
768.959	2592.22
769.142	2524.63
769.324	2426.33
769.507	2438.62
769.69	2358.75
769.873	2360.8
770.056	2399.71
770.239	2323.93
770.421	2356.7
770.604	2381.28
770.787	2274.78
770.97	2344.41
771.152	2194.91
771.335	2383.32
771.518	2274.78
771.7	2237.92
771.883	2268.64
772.066	2282.97
772.248	2203.1
772.431	2362.84
772.613	2221.53
772.796	2205.15
772.978	2053.6
773.161	2168.29
773.343	2156
773.526	2102.75
773.708	1975.78
773.891	2053.6
774.073	2049.5
774.256	2090.46
774.438	2119.14
774.621	1926.63
774.803	2004.45
774.985	1959.39
775.168	1996.26
775.35	1842.66
775.532	2016.74
775.715	1965.54
775.897	1918.43
776.079	1897.96
776.261	1803.75
776.444	1832.42
776.626	1807.84
776.808	1779.17
776.99	1754.6
777.173	1906.15
777.355	1754.6
777.537	1826.28
777.719	1725.93
777.901	1768.93
778.083	1777.12
778.265	1619.43
778.447	1676.77
778.629	1566.18
778.811	1670.63
778.993	1703.4
779.175	1670.63
779.357	1678.82
779.539	1578.47
779.721	1578.47
779.903	1621.48
780.085	1541.61
780.267	1498.6
780.449	1484.27
780.631	1474.03
780.812	1547.75
780.994	1480.17
781.176	1514.98
781.358	1447.4
781.54	1523.18
781.721	1379.82
781.903	1508.84
782.085	1424.87
782.267	1394.15
782.448	1269.23
782.63	1441.26
782.812	1412.59
782.993	1394.15
783.175	1392.11
783.357	1312.24
783.538	1439.21
783.72	1287.66
783.901	1381.87
784.083	1197.55
784.264	1328.62
784.446	1279.47
784.627	1205.74
784.809	1265.13
784.99	1263.08
785.172	1234.41
785.353	1175.02
785.535	1168.88
785.716	1162.73
785.897	1099.25
786.079	1082.86
786.26	1209.84
786.441	1132.01
786.623	1107.44
786.804	1117.68
786.985	1170.93
787.167	1082.86
787.348	1103.34
787.529	1179.12
787.71	1009.14
787.891	955.89
788.073	1056.24
788.254	982.51
788.435	1043.95
788.616	984.56
788.797	1000.94
788.978	992.75
789.159	1041.9
789.34	927.22
789.522	1054.19
789.703	972.27
789.884	1011.18
790.065	1043.95
790.246	978.42
790.427	927.22
790.607	1033.71
790.788	925.17
790.969	826.87
791.15	953.84
791.331	925.17
791.512	974.32
791.693	845.3
791.874	906.74
792.054	894.45
792.235	884.21
792.416	892.4
792.597	861.68
792.778	894.45
792.958	759.28
793.139	966.13
793.32	812.53
793.5	843.25
793.681	859.63
793.862	845.3
794.042	841.2
794.223	722.42
794.404	747
794.584	775.67
794.765	845.3
794.945	771.57
795.126	847.35
795.306	859.63
795.487	751.09
795.667	824.82
795.848	804.34
796.028	703.99
796.209	853.49
796.389	714.23
796.57	687.61
796.75	599.54
796.93	753.14
797.111	579.06
797.291	710.13
797.471	773.62
797.652	638.45
797.832	787.96
798.012	726.52
798.192	630.26
798.373	660.98
798.553	615.93
798.733	706.04
798.913	611.83
799.093	650.74
799.274	656.89
799.454	644.6
799.634	644.6
799.814	599.54
799.994	683.51
800.174	636.41
800.354	730.61
800.534	626.17
800.714	663.03
800.894	601.59
801.074	624.12
801.254	660.98
801.434	734.71
801.614	574.97
801.794	601.59
801.974	1302
802.154	591.35
802.334	505.34
802.514	529.91
802.693	515.58
802.873	497.14
803.053	740.85
803.233	591.35
803.413	581.11
803.592	591.35
803.772	548.34
803.952	564.73
804.131	509.43
804.311	566.78
804.491	560.63
804.67	534.01
804.85	566.78
805.03	568.82
805.209	480.76
805.389	507.38
805.568	521.72
805.748	583.16
805.928	577.02
806.107	550.39
806.287	501.24
806.466	529.91
806.646	484.86
806.825	464.38
807.004	529.91
807.184	531.96
807.363	511.48
807.543	564.73
807.722	480.76
807.901	497.14
808.081	560.63
808.26	441.85
808.439	398.84
808.619	423.42
808.798	468.47
808.977	456.19
809.156	450.04
809.336	470.52
809.515	486.9
809.694	329.21
809.873	466.42
810.052	482.81
810.231	519.67
810.411	493.05
810.59	421.37
810.769	452.09
810.948	429.56
811.127	351.74
811.306	447.99
811.485	445.95
811.664	499.19
811.843	411.13
812.022	452.09
812.201	384.51
812.38	394.75
812.559	460.28
812.737	441.85
812.916	337.4
813.095	304.64
813.274	409.08
813.453	439.8
813.632	361.98
813.811	337.4
813.989	345.59
814.168	454.14
814.347	392.7
814.526	331.26
814.704	390.65
814.883	443.9
815.062	345.59
815.24	443.9
815.419	347.64
815.598	396.79
815.776	296.44
815.955	355.83
816.133	345.59
816.312	374.27
816.49	384.51
816.669	333.31
816.847	312.83
817.026	353.79
817.204	398.84
817.383	343.55
817.561	384.51
817.74	337.4
817.918	372.22
818.097	321.02
818.275	294.4
818.453	376.31
818.632	310.78
818.81	337.4
818.988	335.35
819.167	351.74
819.345	318.97
819.523	292.35
819.701	353.79
819.879	376.31
820.058	337.4
820.236	284.16
820.414	316.92
820.592	224.76
820.77	247.29
820.948	235
821.127	237.05
821.305	351.74
821.483	239.1
821.661	255.48
821.839	292.35
822.017	351.74
822.195	288.25
822.373	335.35
822.551	280.06
822.729	376.31
822.907	337.4
823.085	300.54
823.262	284.16
823.44	275.96
823.618	316.92
823.796	255.48
823.974	351.74
824.152	263.68
824.329	251.39
824.507	304.64
824.685	269.82
824.863	294.4
825.04	198.14
825.218	259.58
825.396	271.87
825.574	239.1
825.751	275.96
825.929	282.11
826.107	261.63
826.284	245.24
826.462	181.76
826.639	192
826.817	165.37
826.994	232.96
827.172	202.24
827.349	198.14
827.527	181.76
827.704	366.07
827.882	230.91
828.059	247.29
828.237	181.76
828.414	275.96
828.591	171.52
828.769	292.35
828.946	169.47
829.124	202.24
829.301	157.18
829.478	267.77
829.655	251.39
829.833	230.91
830.01	214.52
830.187	220.67
830.364	288.25
830.542	157.18
830.719	300.54
830.896	243.2
831.073	171.52
831.25	255.48
831.427	226.81
831.604	226.81
831.782	196.09
831.959	132.61
832.136	179.71
832.313	189.95
832.49	165.37
832.667	128.51
832.844	165.37
833.021	239.1
833.198	153.09
833.374	163.33
833.551	165.37
833.728	140.8
833.905	177.66
834.082	120.32
834.259	155.13
834.436	220.67
834.612	148.99
834.789	198.14
834.966	173.57
835.143	198.14
835.319	103.93
835.496	99.84
835.673	173.57
835.85	212.48
836.026	189.95
836.203	222.72
836.38	116.22
836.556	144.89
836.733	192
836.909	216.57
837.086	157.18
837.262	151.04
837.439	128.51
837.616	146.94
837.792	148.99
837.968	177.66
838.145	120.32
838.321	216.57
838.498	194.05
838.674	144.89
838.851	212.48
839.027	136.7
839.203	200.19
839.38	202.24
839.556	183.81
839.732	138.75
839.909	151.04
840.085	163.33
840.261	77.31
840.437	181.76
840.614	97.79
840.79	198.14
840.966	75.26
841.142	202.24
841.318	169.47
841.494	136.7
841.671	171.52
841.847	126.46
842.023	122.37
842.199	132.61
842.375	239.1
842.551	128.51
842.727	105.98
842.903	241.15
843.079	93.69
843.255	130.56
843.431	75.26
843.607	153.09
843.783	34.3
843.959	157.18
844.134	146.94
844.31	239.1
844.486	181.76
844.662	58.88
844.838	112.13
845.013	128.51
845.189	120.32
845.365	108.03
845.541	99.84
845.716	75.26
845.892	24.06
846.068	116.22
846.244	89.6
846.419	122.37
846.595	105.98
846.77	79.36
846.946	32.26
847.122	136.7
847.297	124.41
847.473	122.37
847.648	54.78
847.824	148.99
847.999	32.26
848.175	95.74
848.35	108.03
848.526	116.22
848.701	103.93
848.876	95.74
849.052	87.55
849.227	130.56
849.403	153.09
849.578	83.45
849.753	67.07
849.929	194.05
850.104	99.84
850.279	153.09
850.454	77.31
850.63	116.22
850.805	85.5
850.98	73.21
851.155	-0.51
851.33	116.22
851.505	7.68
851.681	134.65
851.856	22.02
852.031	77.31
852.206	62.98
852.381	79.36
852.556	91.65
852.731	157.18
852.906	75.26
853.081	62.98
853.256	130.56
853.431	105.98
853.606	58.88
853.781	71.17
853.956	42.5
854.131	34.3
854.305	50.69
854.48	124.41
854.655	87.55
854.83	99.84
855.005	89.6
855.18	87.55
855.354	173.57
855.529	114.17
855.704	3.58
855.879	124.41
856.053	81.41
856.228	52.74
856.403	50.69
856.577	48.64
856.752	19.97
856.926	42.5
857.101	79.36
857.276	13.82
857.45	79.36
857.625	91.65
857.799	116.22
857.974	11.78
858.148	44.54
858.323	58.88
858.497	9.73
858.672	42.5
858.846	58.88
859.02	71.17
859.195	9.73
859.369	54.78
859.543	67.07
859.718	5.63
859.892	48.64
860.066	83.45
860.241	116.22
860.415	7.68
860.589	114.17
860.763	71.17
860.938	50.69
861.112	124.41
861.286	67.07
861.46	83.45
861.634	65.02
861.808	130.56
861.982	15.87
862.157	5.63
862.331	26.11
862.505	67.07
862.679	5.63
862.853	116.22
863.027	44.54
863.201	75.26
863.375	32.26
863.549	93.69
863.722	-10.75
863.896	108.03
864.07	26.11
864.244	54.78
864.418	105.98
864.592	-14.85
864.766	-10.75
864.939	83.45
865.113	34.3
865.287	-8.7
865.461	54.78
865.634	67.07
865.808	-18.94
865.982	7.68
866.156	50.69
866.329	-23.04
866.503	38.4
866.676	65.02
866.85	91.65
867.024	30.21
867.197	22.02
867.371	24.06
867.544	-4.61
867.718	73.21
867.891	-18.94
868.065	46.59
868.238	-31.23
868.412	89.6
868.585	99.84
868.759	62.98
868.932	-20.99
869.105	22.02
869.279	7.68
869.452	34.3
869.625	46.59
869.799	-10.75
869.972	81.41
870.145	108.03
870.319	34.3
870.492	38.4
870.665	24.06
870.838	-49.66
871.011	-6.66
871.185	15.87
871.358	42.5
871.531	97.79
871.704	32.26
871.877	17.92
872.05	-18.94
872.223	-51.71
872.396	89.6
872.569	48.64
872.742	1.54
872.915	30.21
873.088	-8.7
873.261	17.92
873.434	32.26
873.607	-37.38
873.78	9.73
873.953	-10.75
874.126	38.4
874.299	67.07
874.471	-18.94
874.644	54.78
874.817	67.07
874.99	108.03
875.163	-2.56
875.335	13.82
875.508	54.78
875.681	50.69
875.853	24.06
876.026	-4.61
876.199	32.26
876.371	122.37
876.544	-2.56
876.717	91.65
876.889	44.54
877.062	42.5
877.234	-31.23
877.407	17.92
877.579	73.21
877.752	65.02
877.924	30.21
878.097	17.92
878.269	9.73
878.442	67.07
878.614	24.06
878.786	95.74
878.959	50.69
879.131	-18.94
879.303	-41.47
879.476	-14.85
879.648	67.07
879.82	56.83
879.993	-18.94
880.165	15.87
880.337	75.26
880.509	-35.33
880.681	5.63
880.854	-57.86
881.026	81.41
881.198	34.3
881.37	15.87
881.542	34.3
881.714	32.26
881.886	81.41
882.058	-0.51
882.23	56.83
882.402	9.73
882.574	32.26
882.746	15.87
882.918	95.74
883.09	-2.56
883.262	58.88
883.434	-2.56
883.606	9.73
883.778	1.54
883.95	65.02
884.122	-31.23
884.293	73.21
884.465	50.69
884.637	11.78
884.809	5.63
884.98	17.92
885.152	-14.85
885.324	67.07
885.496	24.06
885.667	69.12
885.839	9.73
886.011	22.02
886.182	-2.56
886.354	56.83
886.525	-6.66
886.697	24.06
886.869	-31.23
887.04	42.5
887.212	44.54
887.383	114.17
887.555	9.73
887.726	34.3
887.897	40.45
888.069	-53.76
888.24	9.73
888.412	7.68
888.583	-80.38
888.754	17.92
888.926	-70.14
889.097	-88.57
889.268	24.06
889.44	36.35
889.611	-2.56
889.782	-76.29
889.953	26.11
890.125	81.41
890.296	-20.99
890.467	-41.47
890.638	9.73
890.809	73.21
890.98	-18.94
891.151	54.78
891.323	124.41
891.494	73.21
891.665	-2.56
891.836	-14.85
892.007	26.11
892.178	87.55
892.349	40.45
892.52	-41.47
892.691	40.45
892.862	7.68
893.032	-2.56
893.203	83.45
893.374	40.45
893.545	42.5
893.716	54.78
893.887	95.74
894.057	-23.04
894.228	-47.62
894.399	-18.94
894.57	50.69
894.74	32.26
894.911	81.41
895.082	32.26
895.253	-12.8
895.423	1.54
895.594	81.41
895.764	1.54
895.935	38.4
896.106	46.59
896.276	19.97
896.447	-23.04
896.617	15.87
896.788	26.11
896.958	-43.52
897.129	17.92
897.299	3.58
897.47	26.11
897.64	44.54
897.81	-33.28
897.981	-6.66
898.151	1.54
898.322	22.02
898.492	-14.85
898.662	-41.47
898.832	-33.28
899.003	5.63
899.173	56.83
899.343	22.02
899.513	-31.23
