Data from USB4F104151__28__11-30-05-015.txt Node

Date: Fri Mar 14 11:30:05 EDT 2025
User: louis
Spectrometer: USB4F10415
Trigger mode: 4
Integration Time (sec): 5.000000E-2
Scans to average: 1
Electric dark correction enabled: true
Nonlinearity correction enabled: false
Boxcar width: 0
XAxis mode: Wavelengths
Number of Pixels in Spectrum: 3648
>>>>>Begin Spectral Data<<<<<
178.204	-150.87
178.424	-150.87
178.644	-150.87
178.864	-126.29
179.084	-97.62
179.304	-75.09
179.524	31.4
179.744	12.97
179.964	-13.65
180.184	23.21
180.404	68.27
180.624	-3.41
180.844	6.83
181.064	-9.56
181.283	-9.56
181.503	-15.7
181.723	-15.7
181.943	-15.7
182.163	82.6
182.383	-1.37
182.602	119.46
182.822	62.12
183.042	31.4
183.262	6.83
183.482	17.07
183.701	-7.51
183.921	4.78
184.141	-13.65
184.361	133.8
184.58	17.07
184.8	47.79
185.02	58.03
185.239	60.07
185.459	55.98
185.679	47.79
185.898	17.07
186.118	74.41
186.338	6.83
186.557	-38.23
186.777	45.74
186.997	37.55
187.216	4.78
187.436	49.83
187.655	-5.46
187.875	53.93
188.095	25.26
188.314	135.85
188.534	78.51
188.753	-40.28
188.973	92.84
189.192	82.6
189.412	64.17
189.631	80.55
189.851	25.26
190.07	58.03
190.29	-40.28
190.509	-64.85
190.729	78.51
190.948	-7.51
191.168	201.38
191.387	80.55
191.607	-7.51
191.826	-7.51
192.045	74.41
192.265	23.21
192.484	98.99
192.704	39.59
192.923	41.64
193.142	113.32
193.362	78.51
193.581	12.97
193.8	49.83
194.02	105.13
194.239	49.83
194.458	80.55
194.678	10.92
194.897	-7.51
195.116	31.4
195.335	107.18
195.555	80.55
195.774	84.65
195.993	125.61
196.212	37.55
196.432	31.4
196.651	74.41
196.87	33.45
197.089	94.89
197.308	25.26
197.528	74.41
197.747	-17.75
197.966	37.55
198.185	58.03
198.404	60.07
198.623	129.7
198.842	103.08
199.062	90.79
199.281	62.12
199.5	23.21
199.719	-17.75
199.938	98.99
200.157	139.94
200.376	2.73
200.595	72.36
200.814	72.36
201.033	23.21
201.252	90.79
201.471	29.35
201.69	74.41
201.909	96.94
202.128	58.03
202.347	86.7
202.566	25.26
202.785	39.59
203.004	37.55
203.223	90.79
203.442	-11.61
203.661	10.92
203.879	29.35
204.098	39.59
204.317	-34.13
204.536	111.27
204.755	25.26
204.974	66.22
205.193	12.97
205.411	68.27
205.63	10.92
205.849	76.46
206.068	6.83
206.287	-1.37
206.505	58.03
206.724	66.22
206.943	-17.75
207.162	58.03
207.381	51.88
207.599	4.78
207.818	8.87
208.037	-23.89
208.255	82.6
208.474	62.12
208.693	45.74
208.911	53.93
209.13	90.79
209.349	39.59
209.567	25.26
209.786	64.17
210.005	29.35
210.223	41.64
210.442	-60.76
210.661	31.4
210.879	6.83
211.098	21.16
211.316	74.41
211.535	12.97
211.753	-15.7
211.972	62.12
212.191	98.99
212.409	-1.37
212.628	27.31
212.846	49.83
213.065	105.13
213.283	80.55
213.502	-3.41
213.72	58.03
213.938	31.4
214.157	-46.42
214.375	33.45
214.594	-56.66
214.812	-7.51
215.031	-25.94
215.249	82.6
215.467	74.41
215.686	-44.37
215.904	107.18
216.122	72.36
216.341	49.83
216.559	39.59
216.778	33.45
216.996	47.79
217.214	-3.41
217.432	-17.75
217.651	-27.99
217.869	-15.7
218.087	49.83
218.306	4.78
218.524	70.31
218.742	31.4
218.96	101.03
219.179	80.55
219.397	15.02
219.615	135.85
219.833	21.16
220.051	74.41
220.27	80.55
220.488	86.7
220.706	45.74
220.924	25.26
221.142	-7.51
221.36	103.08
221.578	23.21
221.796	-77.14
222.015	8.87
222.233	15.02
222.451	74.41
222.669	-3.41
222.887	58.03
223.105	8.87
223.323	70.31
223.541	31.4
223.759	43.69
223.977	-44.37
224.195	139.94
224.413	12.97
224.631	78.51
224.849	49.83
225.067	203.43
225.285	27.31
225.503	29.35
225.721	-60.76
225.939	35.5
226.157	62.12
226.375	74.41
226.592	0.68
226.81	76.46
227.028	53.93
227.246	119.46
227.464	0.68
227.682	41.64
227.9	60.07
228.117	74.41
228.335	64.17
228.553	-7.51
228.771	98.99
228.989	68.27
229.206	-7.51
229.424	58.03
229.642	-36.18
229.86	-15.7
230.077	62.12
230.295	45.74
230.513	72.36
230.731	47.79
230.948	51.88
231.166	148.14
231.384	39.59
231.601	33.45
231.819	101.03
232.037	6.83
232.254	-15.7
232.472	15.02
232.689	-58.71
232.907	66.22
233.125	23.21
233.342	68.27
233.56	17.07
233.777	35.5
233.995	37.55
234.213	82.6
234.43	47.79
234.648	49.83
234.865	47.79
235.083	0.68
235.3	39.59
235.518	133.8
235.735	107.18
235.953	51.88
236.17	88.75
236.388	21.16
236.605	49.83
236.822	62.12
237.04	31.4
237.257	4.78
237.475	25.26
237.692	29.35
237.909	55.98
238.127	23.21
238.344	41.64
238.562	41.64
238.779	-34.13
238.996	-1.37
239.214	55.98
239.431	90.79
239.648	2.73
239.865	80.55
240.083	109.22
240.3	25.26
240.517	74.41
240.735	6.83
240.952	39.59
241.169	74.41
241.386	33.45
241.603	39.59
241.821	-56.66
242.038	49.83
242.255	96.94
242.472	33.45
242.689	180.9
242.907	119.46
243.124	31.4
243.341	-44.37
243.558	-7.51
243.775	-30.04
243.992	-93.52
244.209	47.79
244.426	62.12
244.643	27.31
244.86	25.26
245.078	51.88
245.295	33.45
245.512	17.07
245.729	15.02
245.946	64.17
246.163	62.12
246.38	84.65
246.597	47.79
246.814	88.75
247.031	33.45
247.248	66.22
247.464	17.07
247.681	45.74
247.898	4.78
248.115	51.88
248.332	-7.51
248.549	107.18
248.766	98.99
248.983	58.03
249.2	90.79
249.417	92.84
249.633	0.68
249.85	41.64
250.067	94.89
250.284	55.98
250.501	33.45
250.717	8.87
250.934	0.68
251.151	90.79
251.368	47.79
251.585	8.87
251.801	80.55
252.018	-11.61
252.235	17.07
252.451	-3.41
252.668	17.07
252.885	64.17
253.102	90.79
253.318	45.74
253.535	41.64
253.752	39.59
253.968	23.21
254.185	-15.7
254.401	23.21
254.618	127.66
254.835	90.79
255.051	78.51
255.268	12.97
255.484	107.18
255.701	78.51
255.917	66.22
256.134	105.13
256.351	55.98
256.567	55.98
256.784	25.26
257	0.68
257.217	0.68
257.433	64.17
257.65	27.31
257.866	111.27
258.082	-27.99
258.299	6.83
258.515	90.79
258.732	55.98
258.948	53.93
259.165	96.94
259.381	53.93
259.597	39.59
259.814	33.45
260.03	-15.7
260.246	148.14
260.463	49.83
260.679	107.18
260.895	-7.51
261.112	103.08
261.328	25.26
261.544	27.31
261.761	98.99
261.977	-48.47
262.193	-15.7
262.409	80.55
262.626	74.41
262.842	47.79
263.058	17.07
263.274	49.83
263.49	-7.51
263.707	53.93
263.923	-15.7
264.139	-40.28
264.355	-27.99
264.571	98.99
264.787	41.64
265.004	98.99
265.22	45.74
265.436	86.7
265.652	21.16
265.868	164.52
266.084	17.07
266.3	43.69
266.516	33.45
266.732	21.16
266.948	64.17
267.164	70.31
267.38	-7.51
267.596	25.26
267.812	115.37
268.028	4.78
268.244	31.4
268.46	64.17
268.676	4.78
268.892	80.55
269.108	-32.08
269.324	58.03
269.54	33.45
269.756	96.94
269.972	45.74
270.188	55.98
270.403	-23.89
270.619	0.68
270.835	23.21
271.051	35.5
271.267	23.21
271.483	49.83
271.698	90.79
271.914	66.22
272.13	41.64
272.346	-40.28
272.562	84.65
272.777	117.42
272.993	39.59
273.209	39.59
273.425	15.02
273.64	25.26
273.856	96.94
274.072	64.17
274.287	74.41
274.503	92.84
274.719	33.45
274.934	21.16
275.15	-73.04
275.366	23.21
275.581	23.21
275.797	-7.51
276.012	-17.75
276.228	15.02
276.444	109.22
276.659	70.31
276.875	-1.37
277.09	70.31
277.306	25.26
277.521	43.69
277.737	15.02
277.952	72.36
278.168	78.51
278.383	62.12
278.599	76.46
278.814	37.55
279.03	60.07
279.245	37.55
279.461	60.07
279.676	35.5
279.892	-19.8
280.107	-1.37
280.322	-25.94
280.538	55.98
280.753	17.07
280.969	66.22
281.184	74.41
281.399	31.4
281.615	8.87
281.83	37.55
282.045	45.74
282.26	72.36
282.476	25.26
282.691	64.17
282.906	-48.47
283.122	45.74
283.337	33.45
283.552	12.97
283.767	35.5
283.983	111.27
284.198	-11.61
284.413	-1.37
284.628	74.41
284.843	80.55
285.058	74.41
285.274	55.98
285.489	-23.89
285.704	90.79
285.919	-1.37
286.134	25.26
286.349	-1.37
286.564	49.83
286.779	76.46
286.995	49.83
287.21	-3.41
287.425	66.22
287.64	0.68
287.855	45.74
288.07	53.93
288.285	98.99
288.5	-17.75
288.715	94.89
288.93	45.74
289.145	98.99
289.36	80.55
289.575	-15.7
289.79	23.21
290.004	82.6
290.219	105.13
290.434	31.4
290.649	-1.37
290.864	21.16
291.079	66.22
291.294	10.92
291.509	47.79
291.724	-36.18
291.938	62.12
292.153	80.55
292.368	-9.56
292.583	39.59
292.798	121.51
293.012	33.45
293.227	0.68
293.442	-34.13
293.657	96.94
293.871	144.04
294.086	35.5
294.301	86.7
294.516	41.64
294.73	53.93
294.945	-15.7
295.16	82.6
295.374	47.79
295.589	107.18
295.804	6.83
296.018	72.36
296.233	94.89
296.447	58.03
296.662	12.97
296.877	121.51
297.091	74.41
297.306	49.83
297.52	-36.18
297.735	66.22
297.949	37.55
298.164	103.08
298.378	49.83
298.593	-9.56
298.807	86.7
299.022	4.78
299.236	158.38
299.451	51.88
299.665	-25.94
299.88	117.42
300.094	0.68
300.309	4.78
300.523	41.64
300.737	33.45
300.952	78.51
301.166	70.31
301.381	23.21
301.595	21.16
301.809	0.68
302.024	82.6
302.238	12.97
302.452	58.03
302.667	64.17
302.881	103.08
303.095	162.47
303.309	-40.28
303.524	-23.89
303.738	49.83
303.952	66.22
304.166	31.4
304.381	-68.95
304.595	51.88
304.809	-13.65
305.023	119.46
305.237	49.83
305.452	27.31
305.666	39.59
305.88	-54.61
306.094	68.27
306.308	60.07
306.522	23.21
306.736	72.36
306.95	6.83
307.164	-7.51
307.379	68.27
307.593	119.46
307.807	29.35
308.021	33.45
308.235	41.64
308.449	70.31
308.663	98.99
308.877	137.9
309.091	139.94
309.305	-1.37
309.519	15.02
309.733	37.55
309.947	4.78
310.161	80.55
310.374	53.93
310.588	51.88
310.802	-75.09
311.016	23.21
311.23	15.02
311.444	49.83
311.658	66.22
311.872	70.31
312.085	62.12
312.299	78.51
312.513	35.5
312.727	66.22
312.941	41.64
313.154	27.31
313.368	125.61
313.582	70.31
313.796	70.31
314.009	58.03
314.223	60.07
314.437	37.55
314.651	-52.56
314.864	53.93
315.078	8.87
315.292	-56.66
315.505	137.9
315.719	80.55
315.933	6.83
316.146	-11.61
316.36	17.07
316.573	66.22
316.787	25.26
317.001	27.31
317.214	-25.94
317.428	55.98
317.641	58.03
317.855	19.11
318.068	8.87
318.282	107.18
318.495	41.64
318.709	-11.61
318.922	96.94
319.136	127.66
319.349	115.37
319.563	113.32
319.776	43.69
319.99	82.6
320.203	131.75
320.417	41.64
320.63	29.35
320.843	33.45
321.057	74.41
321.27	58.03
321.483	6.83
321.697	33.45
321.91	45.74
322.124	19.11
322.337	0.68
322.55	-56.66
322.763	8.87
322.977	23.21
323.19	72.36
323.403	21.16
323.617	21.16
323.83	105.13
324.043	55.98
324.256	-19.8
324.469	-3.41
324.683	103.08
324.896	80.55
325.109	33.45
325.322	39.59
325.535	107.18
325.748	105.13
325.962	-21.85
326.175	-1.37
326.388	103.08
326.601	70.31
326.814	-1.37
327.027	25.26
327.24	70.31
327.453	-32.08
327.666	51.88
327.879	41.64
328.092	-11.61
328.305	60.07
328.518	8.87
328.731	4.78
328.944	-52.56
329.157	53.93
329.37	45.74
329.583	88.75
329.796	66.22
330.009	-66.9
330.222	88.75
330.435	78.51
330.648	98.99
330.861	-23.89
331.073	47.79
331.286	66.22
331.499	0.68
331.712	53.93
331.925	131.75
332.138	41.64
332.35	70.31
332.563	41.64
332.776	111.27
332.989	53.93
333.202	15.02
333.414	33.45
333.627	64.17
333.84	78.51
334.053	33.45
334.265	78.51
334.478	-3.41
334.691	35.5
334.903	27.31
335.116	-15.7
335.329	60.07
335.541	29.35
335.754	53.93
335.966	25.26
336.179	74.41
336.392	-9.56
336.604	74.41
336.817	82.6
337.029	4.78
337.242	15.02
337.454	55.98
337.667	15.02
337.88	82.6
338.092	33.45
338.305	0.68
338.517	21.16
338.729	72.36
338.942	39.59
339.154	-17.75
339.367	25.26
339.579	96.94
339.792	25.26
340.004	94.89
340.217	-75.09
340.429	8.87
340.641	-36.18
340.854	-64.85
341.066	47.79
341.278	94.89
341.491	170.66
341.703	86.7
341.915	-27.99
342.128	51.88
342.34	51.88
342.552	66.22
342.764	66.22
342.977	55.98
343.189	111.27
343.401	27.31
343.613	-40.28
343.826	84.65
344.038	15.02
344.25	94.89
344.462	8.87
344.674	98.99
344.886	70.31
345.099	-5.46
345.311	101.03
345.523	41.64
345.735	-48.47
345.947	74.41
346.159	55.98
346.371	33.45
346.583	29.35
346.795	144.04
347.007	-40.28
347.219	33.45
347.431	-15.7
347.643	109.22
347.855	47.79
348.067	115.37
348.279	8.87
348.491	12.97
348.703	41.64
348.915	8.87
349.127	-11.61
349.339	60.07
349.551	25.26
349.763	17.07
349.975	39.59
350.187	10.92
350.399	115.37
350.61	90.79
350.822	115.37
351.034	45.74
351.246	94.89
351.458	82.6
351.669	103.08
351.881	23.21
352.093	103.08
352.305	21.16
352.517	60.07
352.728	76.46
352.94	33.45
353.152	47.79
353.363	33.45
353.575	31.4
353.787	17.07
353.999	55.98
354.21	72.36
354.422	4.78
354.633	12.97
354.845	10.92
355.057	49.83
355.268	45.74
355.48	66.22
355.692	-32.08
355.903	41.64
356.115	-48.47
356.326	-27.99
356.538	49.83
356.749	25.26
356.961	82.6
357.172	51.88
357.384	58.03
357.595	82.6
357.807	78.51
358.018	53.93
358.23	-3.41
358.441	-3.41
358.653	74.41
358.864	146.09
359.075	10.92
359.287	123.56
359.498	15.02
359.709	-9.56
359.921	45.74
360.132	21.16
360.344	31.4
360.555	45.74
360.766	90.79
360.977	41.64
361.189	84.65
361.4	80.55
361.611	58.03
361.823	33.45
362.034	41.64
362.245	82.6
362.456	-1.37
362.667	15.02
362.879	-11.61
363.09	58.03
363.301	131.75
363.512	90.79
363.723	88.75
363.935	-19.8
364.146	70.31
364.357	115.37
364.568	39.59
364.779	0.68
364.99	25.26
365.201	-7.51
365.412	78.51
365.623	-40.28
365.834	90.79
366.045	21.16
366.256	41.64
366.467	-21.85
366.678	29.35
366.889	80.55
367.1	-34.13
367.311	21.16
367.522	0.68
367.733	41.64
367.944	27.31
368.155	129.7
368.366	64.17
368.577	119.46
368.788	17.07
368.999	8.87
369.209	98.99
369.42	82.6
369.631	197.29
369.842	105.13
370.053	33.45
370.264	41.64
370.474	23.21
370.685	111.27
370.896	78.51
371.107	82.6
371.317	62.12
371.528	35.5
371.739	101.03
371.95	82.6
372.16	82.6
372.371	10.92
372.582	49.83
372.792	55.98
373.003	25.26
373.214	74.41
373.424	98.99
373.635	31.4
373.846	127.66
374.056	66.22
374.267	41.64
374.477	74.41
374.688	-3.41
374.898	82.6
375.109	78.51
375.319	15.02
375.53	74.41
375.74	82.6
375.951	55.98
376.161	88.75
376.372	135.85
376.582	12.97
376.793	25.26
377.003	53.93
377.214	123.56
377.424	129.7
377.635	68.27
377.845	-23.89
378.055	180.9
378.266	-40.28
378.476	25.26
378.686	6.83
378.897	84.65
379.107	141.99
379.317	-5.46
379.528	8.87
379.738	109.22
379.948	-15.7
380.158	43.69
380.369	47.79
380.579	107.18
380.789	131.75
380.999	37.55
381.21	55.98
381.42	113.32
381.63	-17.75
381.84	58.03
382.05	123.56
382.261	109.22
382.471	80.55
382.681	86.7
382.891	94.89
383.101	98.99
383.311	25.26
383.521	29.35
383.731	0.68
383.941	105.13
384.151	72.36
384.361	41.64
384.571	47.79
384.781	66.22
384.991	98.99
385.201	123.56
385.411	19.11
385.621	150.18
385.831	-15.7
386.041	123.56
386.251	17.07
386.461	25.26
386.671	58.03
386.881	15.02
387.091	31.4
387.301	123.56
387.511	29.35
387.72	103.08
387.93	82.6
388.14	-15.7
388.35	8.87
388.56	105.13
388.769	107.18
388.979	55.98
389.189	15.02
389.399	113.32
389.609	51.88
389.818	37.55
390.028	90.79
390.238	84.65
390.447	25.26
390.657	82.6
390.867	82.6
391.076	70.31
391.286	139.94
391.496	8.87
391.705	82.6
391.915	60.07
392.125	41.64
392.334	66.22
392.544	119.46
392.753	74.41
392.963	90.79
393.172	98.99
393.382	115.37
393.591	70.31
393.801	2.73
394.01	82.6
394.22	80.55
394.429	107.18
394.639	72.36
394.848	66.22
395.058	88.75
395.267	113.32
395.477	62.12
395.686	88.75
395.895	86.7
396.105	115.37
396.314	68.27
396.524	103.08
396.733	131.75
396.942	127.66
397.152	70.31
397.361	103.08
397.57	127.66
397.78	115.37
397.989	123.56
398.198	154.28
398.407	121.51
398.617	92.84
398.826	49.83
399.035	156.33
399.244	113.32
399.453	53.93
399.663	23.21
399.872	113.32
400.081	76.46
400.29	148.14
400.499	10.92
400.708	162.47
400.917	29.35
401.127	105.13
401.336	98.99
401.545	178.86
401.754	84.65
401.963	148.14
402.172	90.79
402.381	113.32
402.59	64.17
402.799	64.17
403.008	105.13
403.217	164.52
403.426	98.99
403.635	96.94
403.844	113.32
404.053	45.74
404.262	86.7
404.471	162.47
404.68	111.27
404.888	107.18
405.097	185
405.306	107.18
405.515	123.56
405.724	191.14
405.933	115.37
406.142	115.37
406.35	205.48
406.559	185
406.768	119.46
406.977	250.53
407.185	185
407.394	162.47
407.603	152.23
407.812	246.44
408.02	283.3
408.229	119.46
408.438	205.48
408.646	168.62
408.855	203.43
409.064	219.82
409.272	189.1
409.481	305.83
409.69	232.1
409.898	264.87
410.107	281.25
410.315	332.45
410.524	254.63
410.733	232.1
410.941	262.82
411.15	416.42
411.358	332.45
411.567	332.45
411.775	332.45
411.984	359.08
412.192	377.51
412.401	410.28
412.609	418.47
412.818	369.32
413.026	410.28
413.234	367.27
413.443	457.38
413.651	475.81
413.86	441
414.068	533.15
414.276	506.53
414.485	508.58
414.693	565.92
414.901	588.45
415.11	541.35
415.318	606.88
415.526	570.02
415.734	580.26
415.943	623.27
416.151	737.95
416.359	713.38
416.567	684.7
416.776	729.76
416.984	864.93
417.192	889.5
417.4	860.83
417.608	789.15
417.817	811.68
418.025	1008.28
418.233	1047.19
418.441	940.7
418.649	1024.67
418.857	1102.49
419.065	1084.06
419.273	1039
419.481	1106.59
419.689	1303.19
419.897	1202.84
420.105	1321.62
420.313	1225.37
420.521	1251.99
420.729	1426.07
420.937	1311.38
421.145	1442.45
421.353	1655.44
421.561	1677.97
421.769	1573.52
421.977	1682.06
422.185	1653.39
422.393	1706.64
422.601	1827.47
422.809	1925.77
423.017	1899.15
423.224	1981.07
423.432	2040.46
423.64	2105.99
423.848	2306.7
424.056	2206.35
424.263	2351.75
424.471	2374.28
424.679	2392.71
424.887	2566.79
425.094	2648.71
425.302	2656.9
425.51	2749.06
425.718	2908.8
425.925	2876.03
426.133	2998.91
426.341	2996.86
426.548	3193.47
426.756	3256.95
426.964	3316.34
427.171	3422.84
427.379	3580.53
427.586	3555.96
427.794	3744.37
428.001	3838.58
428.209	4141.68
428.417	4037.23
428.624	4272.75
428.832	4285.03
429.039	4383.34
429.247	4401.77
429.454	4723.3
429.662	4905.57
429.869	4600.42
430.076	5022.3
430.284	4770.4
430.491	5028.45
430.699	5263.96
430.906	5358.17
431.114	5399.13
431.321	5732.95
431.528	5782.1
431.736	6144.59
431.943	6414.92
432.15	6181.45
432.358	6259.28
432.565	6470.22
432.772	6529.61
432.979	6783.56
433.187	7000.64
433.394	7170.62
433.601	7615.03
433.808	7557.69
434.016	7576.12
434.223	7840.31
434.43	8419.88
434.637	8344.11
434.844	8706.6
435.052	8710.69
435.259	9013.79
435.466	8917.54
435.673	8821.28
435.88	9331.23
436.087	9988.63
436.294	9906.71
436.501	9712.15
436.708	9658.9
436.915	10187.28
437.122	10789.38
437.329	10680.84
437.537	10748.42
437.743	11043.33
437.95	11076.1
438.157	11469.31
438.364	11942.39
438.571	11991.54
438.778	11950.58
438.985	13132.26
439.192	12278.26
439.399	13023.72
439.606	13017.57
439.813	13371.87
440.02	14234.07
440.227	14002.64
440.433	13890.01
440.64	14426.57
440.847	14328.27
441.054	14592.46
441.261	15821.24
441.467	15290.82
441.674	15835.58
441.881	16296.37
442.088	16392.62
442.294	16173.49
442.501	16753.07
442.708	16826.79
442.914	17643.93
443.121	18215.32
443.328	17709.47
443.534	19085.7
443.741	18385.3
443.948	18221.46
444.154	19503.49
444.361	19552.64
444.568	19888.51
444.774	19794.3
444.981	19769.73
445.187	20449.65
445.394	21442.92
445.6	21119.34
445.807	23079.24
446.013	22258.01
446.22	22511.96
446.426	23525.7
446.633	23744.83
446.839	23978.3
447.046	23355.72
447.252	24588.6
447.459	24674.61
447.665	24389.94
447.871	25440.55
448.078	26513.69
448.284	25293.1
448.491	26372.38
448.697	27101.45
448.903	27570.44
449.11	27490.57
449.316	27185.42
449.522	27853.06
449.728	28504.31
449.935	28752.12
450.141	28555.51
450.347	29341.93
450.553	28221.69
450.76	28600.57
450.966	29866.21
451.172	29155.57
451.378	29700.33
451.584	28936.43
451.791	30273.76
451.997	29849.83
452.203	30206.17
452.409	30525.66
452.615	30185.69
452.821	28844.27
453.027	28889.33
453.233	30257.37
453.44	29059.31
453.646	29362.41
453.852	29593.83
454.058	29937.89
454.264	29087.98
454.47	29393.13
454.676	28705.01
454.882	29874.4
455.088	27236.62
455.294	27732.23
455.5	27867.39
455.705	28532.98
455.911	27244.81
456.117	26521.88
456.323	26380.57
456.529	24871.22
456.735	25907.49
456.941	25264.43
457.147	25016.62
457.352	24107.32
457.558	23742.78
457.764	23728.45
457.97	23263.56
458.176	22534.48
458.381	22659.41
458.587	21451.11
458.793	21520.74
458.999	20302.2
459.204	21862.75
459.41	21223.78
459.616	20083.06
459.821	19943.8
460.027	19650.94
460.233	19503.49
460.438	18491.79
460.644	18692.49
460.85	17746.33
461.055	17834.39
461.261	17502.62
461.466	16249.27
461.672	15798.71
461.878	16755.12
462.083	15864.25
462.289	15569.34
462.494	15126.98
462.7	14578.12
462.905	14090.71
463.111	14731.72
463.316	14647.76
463.522	14318.03
463.727	14225.87
463.932	14522.83
464.138	14301.65
464.343	14389.71
464.549	13851.1
464.754	14389.71
464.959	14324.18
465.165	14107.09
465.37	13486.56
465.575	13205.99
465.781	13531.61
465.986	13591
466.191	13130.21
466.397	13025.76
466.602	12419.57
466.807	12718.57
467.012	13046.24
467.218	12876.26
467.423	12603.88
467.628	12800.49
467.833	13281.76
468.038	12782.06
468.244	12599.79
468.449	12798.44
468.654	12450.28
468.859	12505.58
469.064	12253.68
469.269	11741.69
469.474	12063.22
469.679	11964.92
469.885	11794.93
470.09	12048.88
470.295	11807.22
470.5	11442.68
470.705	11723.26
470.91	11444.73
471.115	11123.2
471.32	11342.33
471.525	11409.92
471.73	11248.13
471.935	11080.19
472.139	10797.57
472.344	10832.39
472.549	10705.42
472.754	10555.91
472.959	10371.6
473.164	10146.32
473.369	9953.81
473.574	10312.21
473.778	10289.68
473.983	10299.92
474.188	10166.8
474.393	9722.39
474.598	9691.67
474.802	9380.38
475.007	9388.57
475.212	9480.73
475.417	9228.83
475.621	9337.37
475.826	9191.97
476.031	9060.9
476.235	8952.35
476.44	8892.96
476.645	8632.87
476.849	8852
477.054	8794.66
477.259	8675.88
477.463	8759.84
477.668	8497.7
477.872	8458.79
478.077	8383.02
478.282	8249.9
478.486	8081.97
478.691	8180.27
478.895	8077.87
479.1	8002.1
479.304	8108.59
479.509	7651.89
479.713	8034.86
479.918	7819.83
480.122	7529.02
480.326	7772.72
480.531	7553.59
480.735	7610.93
480.94	7672.37
481.144	7889.46
481.348	7406.14
481.553	7438.91
481.757	7660.09
481.961	7512.63
482.166	7655.99
482.37	7449.14
482.574	7393.85
482.778	7395.9
482.983	7483.96
483.187	7406.14
483.391	7426.62
483.595	7328.31
483.8	7248.44
484.004	7510.58
484.208	7363.13
484.412	7529.02
484.616	7471.67
484.821	7309.88
485.025	7348.79
485.229	7635.51
485.433	7453.24
485.637	7443
485.841	7457.34
486.045	7496.25
486.249	7371.32
486.453	7350.84
486.657	7397.95
486.861	7447.1
487.065	7332.41
487.269	7283.26
487.473	7268.92
487.677	7418.43
487.881	7420.47
488.085	7305.79
488.289	7463.48
488.493	7266.88
488.697	7404.09
488.901	7373.37
489.105	7369.27
489.309	7592.5
489.512	7459.38
489.716	7545.4
489.92	7504.44
490.124	7576.12
490.328	7631.41
490.531	7344.7
490.735	7617.08
490.939	7631.41
491.143	7399.99
491.346	7582.26
491.55	7713.33
491.754	7658.04
491.958	7686.71
492.161	7584.31
492.365	7809.59
492.569	7742
492.772	7651.89
492.976	7791.16
493.18	7959.09
493.383	8051.25
493.587	7995.95
493.79	8057.39
493.994	8071.73
494.197	8208.94
494.401	8176.17
494.605	8135.21
494.808	8270.38
495.012	8245.8
495.215	8479.27
495.419	8481.32
495.622	8358.44
495.825	8503.85
496.029	8452.65
496.232	8806.95
496.436	8725.03
496.639	9062.94
496.843	8909.35
497.046	8946.21
497.249	9234.97
497.453	9003.55
497.656	9226.78
497.859	9148.96
498.063	9495.07
498.266	9566.74
498.469	9468.44
498.673	9648.66
498.876	9726.49
499.079	9742.87
499.282	9863.7
499.485	10082.83
499.689	10111.5
499.892	10359.31
500.095	10336.78
500.298	10625.54
500.501	10574.35
500.705	10725.89
500.908	10838.53
501.111	10865.16
501.314	11033.09
501.517	11180.54
501.72	11244.03
501.923	11307.52
502.126	11506.17
502.329	11657.72
502.532	11667.96
502.735	11876.85
502.938	11948.53
503.141	12130.8
503.344	12392.94
503.547	12206.58
503.75	12419.57
503.953	12657.13
504.156	12851.69
504.359	13103.59
504.562	13105.63
504.765	13128.16
504.968	13382.11
505.17	13656.54
505.373	13599.2
505.576	13887.96
505.779	14014.93
505.982	13906.39
506.185	14084.56
506.387	14377.42
506.59	14535.12
506.793	14768.59
506.996	14621.13
507.198	14959.05
507.401	15051.2
507.604	15159.75
507.807	15395.26
508.009	15630.78
508.212	15598.01
508.415	15933.88
508.617	16148.92
508.82	16128.44
509.022	15976.89
509.225	16433.58
509.428	17084.84
509.63	16603.57
509.833	16781.74
510.035	17007.02
510.238	17195.43
510.44	17101.22
510.643	17709.47
510.845	17826.2
511.048	17568.16
511.25	17924.51
511.453	18026.9
511.655	18715.02
511.858	18381.2
512.06	18407.83
512.262	18741.64
512.465	19077.51
512.667	18962.83
512.87	19134.85
513.072	19335.56
513.274	19798.4
513.477	19929.47
513.679	20341.11
513.881	20463.99
514.084	20631.92
514.286	20447.6
514.488	20670.83
514.69	21322.09
514.893	21571.94
515.095	21299.56
515.297	21633.38
515.499	21440.87
515.701	21817.69
515.904	22229.34
516.106	22432.08
516.308	22415.7
516.51	22966.6
516.712	22757.71
516.914	23236.94
517.116	23304.52
517.318	23337.29
517.52	23597.38
517.722	23677.25
517.925	24068.41
518.127	24492.34
518.329	24574.26
518.531	24504.63
518.733	24924.46
518.935	25231.66
519.136	25065.77
519.338	25651.49
519.54	25659.68
519.742	25493.8
519.944	25973.02
520.146	26589.46
520.348	26501.4
520.55	26808.59
520.752	26620.18
520.954	27265.29
521.155	27320.59
521.357	27468.04
521.559	27429.13
521.761	28442.87
521.963	28094.72
522.164	28125.44
522.366	28129.53
522.568	28524.79
522.77	28770.55
522.971	29470.95
523.173	28881.14
523.375	29571.3
523.576	29331.69
523.778	29520.1
523.98	29944.03
524.181	30152.93
524.383	30261.47
524.584	30890.2
524.786	30738.65
524.988	30669.01
525.189	31301.84
525.391	31377.61
525.592	31572.17
525.794	31473.87
525.995	31951.04
526.197	31494.35
526.398	31949
526.6	32483.52
526.801	32581.82
527.003	32436.41
527.204	32448.7
527.406	32860.34
527.607	33091.76
527.808	33542.31
528.01	32989.36
528.211	32921.78
528.412	33702.06
528.614	33570.99
528.815	33867.94
529.016	34050.21
529.218	33796.26
529.419	33829.03
529.62	34109.6
529.822	34459.8
530.023	34381.98
530.224	34195.62
530.425	34705.56
530.626	34175.14
530.828	34306.21
531.029	34947.22
531.23	34388.13
531.431	34556.06
531.632	34979.99
531.833	34977.94
532.035	35348.62
532.236	35399.82
532.437	35563.66
532.638	34932.89
532.839	35764.36
533.04	35307.66
533.241	35291.28
533.442	36133
533.643	35448.97
533.844	35453.07
534.045	35694.73
534.246	35387.53
534.447	35864.71
534.648	35571.85
534.849	36096.13
535.05	35997.83
535.251	35504.27
535.451	35790.98
535.652	36262.02
535.853	35866.76
536.054	36059.27
536.255	36100.23
536.456	35897.48
536.657	36255.87
536.857	35819.66
537.058	35915.91
537.259	36116.61
537.46	36292.74
537.66	36223.11
537.861	36350.08
538.062	35805.32
538.263	36278.4
538.463	36419.71
538.664	36391.04
538.865	36194.43
539.065	36331.65
539.266	35956.87
539.466	36522.11
539.667	36087.94
539.868	36249.73
540.068	36278.4
540.269	36102.28
540.469	36382.85
540.67	35991.69
540.87	36423.81
541.071	36225.15
541.271	36327.55
541.472	36599.93
541.672	35932.29
541.873	35895.43
542.073	35637.39
542.274	36464.77
542.474	35954.82
542.675	35825.8
542.875	36075.65
543.075	36231.3
543.276	35797.13
543.476	36358.27
543.676	36200.58
543.877	36051.08
544.077	36071.56
544.277	35917.96
544.478	36034.69
544.678	35917.96
544.878	35999.88
545.078	36155.52
545.279	35922.05
545.479	36010.12
545.679	36176
545.879	36014.21
546.079	36020.36
546.28	36311.17
546.48	35661.96
546.68	36104.32
546.88	35827.85
547.08	35604.62
547.28	36057.22
547.48	35399.82
547.68	36018.31
547.88	36165.76
548.081	36108.42
548.281	36124.8
548.481	35733.64
548.681	36069.51
548.881	36063.36
549.081	35903.62
549.28	35907.72
549.48	35842.18
549.68	36073.6
549.88	36419.71
550.08	35686.54
550.28	36169.86
550.48	35678.35
550.68	35940.49
550.88	35631.24
551.08	35637.39
551.279	35879.05
551.479	35639.43
551.679	35967.11
551.879	35530.89
552.079	36073.6
552.278	35379.34
552.478	36008.07
552.678	35604.62
552.878	35852.42
553.077	35584.14
553.277	35385.49
553.477	35860.62
553.676	35506.32
553.876	35899.53
554.076	35360.91
554.275	35512.46
554.475	35178.64
554.674	35737.74
554.874	35704.97
555.074	35571.85
555.273	35625.1
555.473	35405.97
555.672	35033.24
555.872	35254.42
556.071	35117.2
556.271	35268.75
556.47	34900.12
556.67	34760.86
556.869	34695.32
557.068	34832.54
557.268	34717.85
557.467	34740.38
557.667	34728.09
557.866	34357.41
558.065	34676.89
558.265	34429.09
558.464	34099.36
558.663	34539.68
558.863	34222.24
559.062	34427.04
559.261	34019.49
559.461	34601.11
559.66	33728.68
559.859	33990.82
560.058	33851.56
560.258	33566.89
560.457	33564.84
560.656	33831.08
560.855	33401
561.054	33605.8
561.253	33358
561.453	33339.57
561.652	33525.93
561.851	33609.9
562.05	33233.07
562.249	33097.91
562.448	33251.5
562.647	32934.07
562.846	32925.88
563.045	33009.84
563.244	32551.1
563.443	32932.02
563.642	32278.72
563.841	32682.17
564.04	32291.01
564.239	32594.11
564.438	32131.26
564.637	32628.92
564.836	32161.98
565.035	31858.88
565.234	31934.66
565.432	31973.57
565.631	31252.69
565.83	31592.65
566.029	31404.24
566.228	31455.43
566.427	31414.48
566.625	31121.62
566.824	30755.03
567.023	30955.73
567.222	30689.49
567.42	31156.43
567.619	30591.19
567.818	30775.51
568.016	30707.93
568.215	30740.69
568.414	30470.36
568.612	30511.32
568.811	30298.33
569.01	29970.66
569.208	29589.74
569.407	30140.64
569.605	29722.85
569.804	29812.96
570.002	29604.07
570.201	29503.72
570.4	29446.38
570.598	29305.07
570.797	28772.6
570.995	29264.11
571.193	28592.37
571.392	28874.99
571.59	28475.64
571.789	28733.68
571.987	28770.55
572.186	28954.86
572.384	28455.16
572.582	28852.47
572.781	28612.85
572.979	28285.18
573.177	28610.81
573.376	28317.95
573.574	28012.8
573.772	27971.84
573.971	27709.7
574.169	27855.11
574.367	27490.57
574.565	27832.58
574.763	27439.37
574.962	27326.73
575.16	27019.53
575.358	27306.25
575.556	26843.41
575.754	27605.25
575.952	26908.94
576.151	27132.17
576.349	26505.49
576.547	26601.75
576.745	26702.1
576.943	26575.13
577.141	26589.46
577.339	26616.08
577.537	26315.03
577.735	26343.7
577.933	25966.88
578.131	26110.24
578.329	26153.24
578.527	26147.1
578.725	25839.9
578.923	25798.94
579.121	25776.42
579.319	25512.23
579.516	25717.03
579.714	25344.3
579.912	25559.33
580.11	25389.35
580.308	25385.26
580.506	25313.58
580.704	24777.01
580.901	25037.1
581.099	25248.04
581.297	24836.4
581.495	25090.35
581.692	25112.88
581.89	24473.91
582.088	24553.78
582.285	24449.33
582.483	24895.79
582.681	24533.3
582.878	24467.77
583.076	24381.75
583.274	24320.31
583.471	24037.69
583.669	23906.62
583.866	23564.61
584.064	23818.56
584.262	23863.61
584.459	24086.84
584.657	23652.67
584.854	23918.91
585.052	23294.28
585.249	23415.11
585.447	23472.45
585.644	23259.46
585.841	23609.67
586.039	23281.99
586.236	23234.89
586.434	23464.26
586.631	22982.99
586.828	22927.69
587.026	22956.36
587.223	23185.74
587.42	22903.12
587.618	22878.54
587.815	22552.91
588.012	22464.85
588.21	22030.68
588.407	22952.27
588.604	22155.61
588.801	22346.07
588.999	22225.24
589.196	22352.21
589.393	22151.51
589.59	22171.99
589.787	22065.5
589.984	21700.96
590.182	21567.84
590.379	21862.75
590.576	21623.14
590.773	21840.22
590.97	21692.77
591.167	22036.83
591.364	21500.26
591.561	21215.59
591.758	21356.9
591.955	21186.92
592.152	21283.17
592.349	21117.29
592.546	21041.51
592.743	20875.63
592.94	20709.74
593.137	21182.82
593.334	21090.66
593.531	20517.23
593.727	20857.2
593.924	20697.45
594.121	20480.37
594.318	20560.24
594.515	20361.59
594.712	20865.39
594.908	20359.54
595.105	20269.43
595.302	20134.26
595.499	20087.16
595.696	19990.91
595.892	19704.19
596.089	20060.54
596.286	19796.35
596.482	20078.97
596.679	19908.99
596.876	19734.91
597.072	19806.59
597.269	19765.63
597.466	19538.3
597.662	19421.57
597.859	19386.75
598.055	19431.81
598.252	19143.05
598.448	19212.68
598.645	19353.99
598.841	19036.55
599.038	19065.22
599.234	19014.02
599.431	19319.17
599.627	18905.48
599.824	19235.21
600.02	18727.31
600.217	18497.94
600.413	18620.81
600.609	18645.39
600.806	18735.5
601.002	18373.01
601.198	18606.48
601.395	18274.71
601.591	18172.31
601.787	18485.65
601.984	18121.11
602.18	18354.58
602.376	17879.45
602.572	18114.97
602.769	18039.19
602.965	17838.49
603.161	17940.89
603.357	17734.04
603.553	17885.59
603.75	18016.66
603.946	17387.94
604.142	17488.29
604.338	17230.24
604.534	17516.96
604.73	17486.24
604.926	17127.85
605.122	17529.25
605.318	17396.13
605.514	16998.82
605.71	17068.45
605.906	17211.81
606.102	17232.29
606.298	17041.83
606.494	17097.13
606.69	17220
606.886	17060.26
607.082	16611.76
607.278	16900.52
607.474	16732.59
607.67	16660.91
607.866	16648.62
608.062	16742.83
608.257	16683.44
608.453	16593.33
608.649	16677.29
608.845	16409.01
609.041	16396.72
609.236	16449.97
609.432	16380.34
609.628	16267.7
609.824	16445.87
610.019	16165.3
610.215	16251.31
610.411	16458.16
610.606	16138.68
610.802	16101.81
610.998	16202.16
611.193	16183.73
611.389	15950.26
611.584	16210.36
611.78	15878.58
611.976	15923.64
612.171	15811
612.367	15989.17
612.562	15911.35
612.758	15542.72
612.953	15456.7
613.149	15704.51
613.344	15593.92
613.539	15677.88
613.735	15473.09
613.93	15516.09
614.126	15344.06
614.321	15284.67
614.517	15333.82
614.712	15385.02
614.907	15200.71
615.103	15352.26
615.298	15440.32
615.493	15446.46
615.688	15188.42
615.884	15387.07
616.079	15067.59
616.274	15169.99
616.47	15174.08
616.665	15077.83
616.86	14877.13
617.055	15307.2
617.25	14944.71
617.445	15161.8
617.641	14780.87
617.836	14922.18
618.031	14641.61
618.226	14924.23
618.421	14989.77
618.616	14848.46
618.811	14504.4
619.006	14340.56
619.201	14438.86
619.396	14856.65
619.591	14307.79
619.786	14164.43
619.981	14315.98
620.176	14283.22
620.371	14186.96
620.566	13965.78
620.761	14092.76
620.956	14299.6
621.151	14068.18
621.346	14014.93
621.541	13728.22
621.735	13836.76
621.93	13439.45
622.125	13631.96
622.32	13484.51
622.515	13402.59
622.709	13339.1
622.904	13461.98
623.099	13173.22
623.294	13097.44
623.488	13062.63
623.683	13279.71
623.878	12866.02
624.072	12962.28
624.267	12808.68
624.462	12689.9
624.656	12730.86
624.851	12845.54
625.046	12685.8
625.24	12714.47
625.435	12542.44
625.629	12427.76
625.824	12462.57
626.018	12374.51
626.213	11952.63
626.407	12212.72
626.602	12335.6
626.796	12016.12
626.991	12016.12
627.185	12083.7
627.38	11739.64
627.574	11522.55
627.768	11696.63
627.963	11549.18
628.157	11770.36
628.352	11581.95
628.546	11340.29
628.74	11502.08
628.935	11141.63
629.129	11186.69
629.323	11145.73
629.517	11186.69
629.712	11104.77
629.906	11059.71
630.1	10996.23
630.294	10975.75
630.489	10617.35
630.683	10977.8
630.877	10773
631.071	10854.92
631.265	10641.93
631.459	10529.29
631.653	10502.67
631.848	10603.02
632.042	10390.03
632.236	10543.63
632.43	10293.77
632.624	10314.25
632.818	10201.61
633.012	10123.79
633.206	10037.78
633.4	10013.2
633.594	9818.64
633.788	9794.07
633.982	10009.11
634.176	9912.85
634.369	9878.04
634.563	9759.25
634.757	9654.81
634.951	9683.48
635.145	9605.66
635.339	9677.33
635.533	9611.8
635.726	9536.03
635.92	9323.04
636.114	9138.72
636.308	9159.2
636.501	9331.23
636.695	9146.91
636.889	9249.31
637.083	9206.3
637.276	8903.2
637.47	8968.74
637.664	8874.53
637.857	8880.68
638.051	8921.63
638.244	8782.37
638.438	8890.91
638.632	8636.97
638.825	8784.42
639.019	8725.03
639.212	8569.38
639.406	8585.77
639.599	8528.42
639.793	8743.46
639.986	8323.63
640.18	8604.2
640.373	8258.09
640.567	8061.49
640.76	8176.17
640.954	8393.26
641.147	8176.17
641.34	8061.49
641.534	8184.37
641.727	7911.99
641.92	8184.37
642.114	7946.8
642.307	8049.2
642.5	7836.21
642.694	7664.18
642.887	7854.64
643.08	7782.96
643.273	7696.95
643.467	7877.17
643.66	7455.29
643.853	7512.63
644.046	7598.65
644.239	7686.71
644.432	7500.34
644.626	7307.84
644.819	7340.6
645.012	7498.3
645.205	7557.69
645.398	7416.38
645.591	7209.53
645.784	7250.49
645.977	7135.81
646.17	7166.53
646.363	7053.89
646.556	6808.13
646.749	6953.54
646.942	7080.51
647.135	6939.2
647.328	6935.1
647.521	6959.68
647.714	6810.18
647.907	6988.35
648.099	6677.06
648.292	6822.47
648.485	6787.65
648.678	6761.03
648.871	6685.25
649.064	6744.64
649.256	6677.06
649.449	6431.3
649.642	6464.07
649.835	6582.85
650.027	6580.81
650.22	6595.14
650.413	6347.34
650.605	6488.65
650.798	6308.43
650.991	6236.75
651.183	6201.93
651.376	6324.81
651.568	6333
651.761	6167.12
651.954	6056.53
652.146	6251.08
652.339	6193.74
652.531	6093.39
652.724	6038.09
652.916	5870.16
653.109	6007.37
653.301	6087.25
653.494	5849.68
653.686	5886.54
653.879	6066.77
654.071	5995.09
654.263	5716.56
654.456	5685.84
654.648	5956.18
654.84	5763.67
655.033	5696.08
655.225	5755.47
655.417	5667.41
655.61	5694.04
655.802	5614.16
655.994	5726.8
656.186	5577.3
656.379	5530.2
656.571	5622.36
656.763	5401.18
656.955	5489.24
657.148	5462.62
657.34	5233.24
657.532	5374.55
657.724	5333.59
657.916	5325.4
658.108	5454.42
658.3	5290.59
658.492	5360.22
658.684	5161.56
658.876	5239.39
659.068	5304.92
659.26	5270.11
659.452	5145.18
659.644	5239.39
659.836	5130.84
660.028	5106.27
660.22	5003.87
660.412	5132.89
660.604	4997.73
660.796	5034.59
660.988	5210.72
661.18	4928.1
661.372	5157.47
661.563	4973.15
661.755	5012.06
661.947	4921.95
662.139	4948.58
662.331	4891.23
662.522	4768.35
662.714	4891.23
662.906	4874.85
663.097	4809.31
663.289	4774.5
663.481	4735.59
663.673	4842.08
663.864	4727.39
664.056	4538.98
664.247	4928.1
664.439	4872.8
664.631	4751.97
664.822	4727.39
665.014	4766.31
665.205	4643.43
665.397	4547.17
665.588	4754.02
665.78	4768.35
665.971	4530.79
666.163	4696.67
666.354	4661.86
666.546	4600.42
666.737	4569.7
666.929	4514.41
667.12	4543.08
667.311	4708.96
667.503	4448.87
667.694	4637.28
667.885	4534.89
668.077	4489.83
668.268	4424.3
668.459	4487.78
668.651	4426.34
668.842	4590.18
669.033	4506.21
669.224	4536.93
669.416	4651.62
669.607	4467.3
669.798	4561.51
669.989	4579.94
670.18	4391.53
670.371	4442.73
670.563	4481.64
670.754	4563.56
670.945	4444.77
671.136	4491.88
671.327	4530.79
671.518	4471.4
671.709	4563.56
671.9	4512.36
672.091	4489.83
672.282	4493.93
672.473	4479.59
672.664	4504.17
672.855	4446.82
673.046	4622.95
673.237	4602.47
673.428	4553.32
673.619	4498.02
673.809	4414.06
674	4455.01
674.191	4473.45
674.382	4627.04
674.573	4600.42
674.764	4547.17
674.954	4534.89
675.145	4629.09
675.336	4440.68
675.527	4588.13
675.717	4651.62
675.908	4526.69
676.099	4592.23
676.289	4678.24
676.48	4668
676.671	4743.78
676.861	4637.28
677.052	4596.32
677.243	4612.71
677.433	4575.84
677.624	4737.63
677.814	4651.62
678.005	4854.37
678.195	4708.96
678.386	4784.74
678.576	4608.61
678.767	4969.05
678.957	4862.56
679.148	4809.31
679.338	4784.74
679.529	4831.84
679.719	4887.14
679.909	4913.76
680.1	4797.03
680.29	5124.7
680.481	4813.41
680.671	5032.54
680.861	5003.87
681.052	5044.83
681.242	4891.23
681.432	5149.28
681.622	4942.43
681.813	4997.73
682.003	5136.99
682.193	5046.88
682.383	5081.69
682.573	5065.31
682.764	5145.18
682.954	5161.56
683.144	5059.17
683.334	5057.12
683.524	4971.1
683.714	5153.37
683.904	5110.36
684.094	5276.25
684.284	5046.88
684.474	5235.29
684.664	5153.37
684.854	5055.07
685.044	5104.22
685.234	5194.33
685.424	5067.36
685.614	5112.41
685.804	5231.19
685.994	5071.45
686.184	5001.82
686.374	4899.42
686.564	5122.65
686.753	5104.22
686.943	4979.29
687.133	5044.83
687.323	5102.17
687.513	5151.32
687.702	4993.63
687.892	4913.76
688.082	4864.61
688.272	4956.77
688.461	4829.79
688.651	4930.14
688.841	4772.45
689.03	4792.93
689.22	4661.86
689.41	4768.35
689.599	4637.28
689.789	4678.24
689.979	4471.4
690.168	4719.2
690.358	4602.47
690.547	4612.71
690.737	4647.52
690.926	4446.82
691.116	4446.82
691.305	4586.08
691.495	4438.63
691.684	4383.34
691.874	4344.42
692.063	4340.33
692.252	4315.75
692.442	4350.57
692.631	4246.12
692.82	4227.69
693.01	4276.84
693.199	4047.47
693.388	4117.1
693.578	4186.73
693.767	4176.49
693.956	4149.87
694.146	4070
694.335	4117.1
694.524	4104.81
694.713	4012.65
694.902	3994.22
695.092	3932.78
695.281	4035.18
695.47	3996.27
695.659	3957.36
695.848	3871.34
696.037	3895.92
696.226	3840.62
696.415	3897.97
696.604	3832.43
696.793	3924.59
696.982	3826.29
697.171	3842.67
697.36	3783.28
697.549	3691.12
697.738	3609.2
697.927	3742.32
698.116	3727.99
698.305	3818.1
698.494	3740.27
698.683	3646.07
698.872	3779.18
699.061	3811.95
699.25	3625.59
699.438	3711.6
699.627	3547.76
699.816	3783.28
700.005	3744.37
700.193	3590.77
700.382	3666.55
700.571	3670.64
700.76	3695.22
700.948	3635.83
701.137	3598.96
701.326	3695.22
701.514	3666.55
701.703	3732.08
701.892	3736.18
702.08	3791.47
702.269	3768.95
702.457	3578.48
702.646	3656.31
702.834	3547.76
703.023	3646.07
703.212	3603.06
703.4	3603.06
703.589	3576.44
703.777	3629.68
703.965	3545.72
704.154	3703.41
704.342	3601.01
704.531	3678.83
704.719	3580.53
704.907	3652.21
705.096	3572.34
705.284	3613.3
705.472	3748.47
705.661	3795.57
705.849	3713.65
706.037	3801.71
706.226	3668.59
706.414	3701.36
706.602	3684.98
706.79	3828.34
706.979	3709.55
707.167	3836.53
707.355	3754.61
707.543	3871.34
707.731	3775.09
707.919	3809.9
708.107	3730.03
708.296	3904.11
708.484	3768.95
708.672	3928.69
708.86	3906.16
709.048	4010.61
709.236	3801.71
709.424	3969.65
709.612	3940.97
709.8	3840.62
709.988	3918.45
710.176	3998.32
710.364	4018.8
710.551	3957.36
710.739	4084.33
710.927	4110.96
711.115	4024.94
711.303	3922.54
711.491	4096.62
711.679	3955.31
711.866	4055.66
712.054	4113
712.242	4076.14
712.43	4285.03
712.617	4233.83
712.805	4199.02
712.993	4194.92
713.181	4153.96
713.368	4201.07
713.556	4239.98
713.744	4117.1
713.931	4342.38
714.119	4225.64
714.306	4332.14
714.494	4379.24
714.682	4297.32
714.869	4364.9
715.057	4395.62
715.244	4596.32
715.432	4495.97
715.619	4559.46
715.807	4399.72
715.994	4530.79
716.182	4543.08
716.369	4577.89
716.556	4459.11
716.744	4532.84
716.931	4723.3
717.119	4756.07
717.306	4702.82
717.493	4665.96
717.681	4698.72
717.868	4723.3
718.055	4702.82
718.242	4764.26
718.43	4674.15
718.617	4792.93
718.804	4725.35
718.991	4719.2
719.179	4776.55
719.366	4944.48
719.553	4924
719.74	4878.94
719.927	5032.54
720.114	4799.07
720.301	4979.29
720.488	4960.86
720.676	4842.08
720.863	4967.01
721.05	4989.53
721.237	5014.11
721.424	5151.32
721.611	5083.74
721.798	5075.55
721.985	5030.49
722.172	5079.65
722.358	5116.51
722.545	5175.9
722.732	5241.43
722.919	5268.06
723.106	5288.54
723.293	5188.19
723.48	5288.54
723.667	5261.91
723.853	5235.29
724.04	5411.42
724.227	5292.63
724.414	5456.47
724.6	5435.99
724.787	5423.7
724.974	5462.62
725.161	5530.2
725.347	5470.81
725.534	5579.35
725.72	5593.69
725.907	5601.88
726.094	5585.49
726.28	5536.34
726.467	5499.48
726.653	5526.1
726.84	5644.88
727.027	5782.1
727.213	5687.89
727.4	5700.18
727.586	5902.93
727.773	5757.52
727.959	5876.3
728.145	5880.4
728.332	5788.24
728.518	5661.27
728.705	5724.76
728.891	5757.52
729.077	6079.05
729.264	5825.11
729.45	5956.18
729.636	6077.01
729.823	5919.31
730.009	6003.28
730.195	6042.19
730.382	6216.27
730.568	6052.43
730.754	5980.75
730.94	6165.07
731.126	6060.62
731.313	6142.54
731.499	6195.79
731.685	6040.14
731.871	6111.82
732.057	6201.93
732.243	6285.9
732.429	6050.38
732.615	6218.32
732.801	6150.73
732.987	6132.3
733.173	6160.97
733.359	6353.48
733.545	6181.45
733.731	6230.6
733.917	6244.94
734.103	6316.62
734.289	6216.27
734.475	6181.45
734.661	6455.88
734.847	6363.72
735.033	6310.47
735.219	6232.65
735.404	6337.1
735.59	6328.91
735.776	6328.91
735.962	6476.36
736.148	6345.29
736.333	6263.37
736.519	6267.47
736.705	6445.64
736.89	6406.73
737.076	6431.3
737.262	6457.93
737.447	6562.37
737.633	6244.94
737.819	6355.53
738.004	6328.91
738.19	6343.24
738.375	6373.96
738.561	6333
738.747	6455.88
738.932	6312.52
739.118	6257.23
739.303	6222.41
739.489	6369.87
739.674	6390.35
739.859	6189.64
740.045	6435.4
740.23	6259.28
740.416	6269.51
740.601	6269.51
740.786	6052.43
740.972	6177.36
741.157	6062.67
741.342	6021.71
741.528	6259.28
741.713	6062.67
741.898	6222.41
742.084	6097.49
742.269	6185.55
742.454	6271.56
742.639	6265.42
742.824	6271.56
743.01	6146.64
743.195	6175.31
743.38	6015.57
743.565	6040.14
743.75	6054.48
743.935	5884.5
744.12	5933.65
744.305	5980.75
744.49	5962.32
744.675	6058.57
744.86	6019.66
745.045	5898.83
745.23	5872.21
745.415	5632.6
745.6	5749.33
745.785	5669.46
745.97	5823.06
746.155	5624.4
746.34	5741.14
746.525	5448.28
746.71	5726.8
746.895	5673.56
747.079	5472.86
747.264	5616.21
747.449	5577.3
747.634	5485.14
747.819	5395.03
748.003	5427.8
748.188	5472.86
748.373	5315.16
748.557	5317.21
748.742	5227.1
748.927	5225.05
749.111	5110.36
749.296	5175.9
749.481	5202.52
749.665	5214.81
749.85	5106.27
750.034	4991.58
750.219	5067.36
750.404	4932.19
750.588	4940.38
750.773	4891.23
750.957	4971.1
751.141	4782.69
751.326	4799.07
751.51	4868.7
751.695	4768.35
751.879	4711.01
752.064	4799.07
752.248	4719.2
752.432	4735.59
752.617	4586.08
752.801	4512.36
752.985	4430.44
753.17	4448.87
753.354	4538.98
753.538	4395.62
753.722	4369
753.907	4416.1
754.091	4242.03
754.275	4287.08
754.459	4278.89
754.643	4272.75
754.828	4323.94
755.012	4104.81
755.196	4088.43
755.38	4137.58
755.564	4067.95
755.748	4041.32
755.932	3965.55
756.116	3930.73
756.3	3906.16
756.484	3897.97
756.668	3938.93
756.852	3787.38
757.036	3850.86
757.22	3959.41
757.404	3840.62
757.588	3793.52
757.772	3801.71
757.956	3717.75
758.14	3676.79
758.323	3676.79
758.507	3748.47
758.691	3529.33
758.875	3721.84
759.059	3605.11
759.242	3572.34
759.426	3555.96
759.61	3515
759.794	3515
759.977	3512.95
760.161	3502.71
760.345	3428.98
760.528	3359.35
760.712	3291.77
760.895	3306.1
761.079	3349.11
761.263	3215.99
761.446	3277.43
761.63	3170.94
761.813	3246.71
761.997	3211.9
762.18	3193.47
762.364	3134.07
762.547	3072.64
762.731	3146.36
762.914	3150.46
763.098	3060.35
763.281	3089.02
763.464	3103.36
763.648	3152.51
763.831	3068.54
764.015	3041.92
764.198	3072.64
764.381	2904.7
764.564	3029.63
764.748	2966.14
764.931	2849.41
765.114	2878.08
765.297	2912.89
765.481	3027.58
765.664	2880.13
765.847	2976.38
766.03	2839.17
766.213	2828.93
766.397	2892.41
766.58	2704
766.763	2851.46
766.946	2704
767.129	2704
767.312	2665.09
767.495	2753.15
767.678	2628.23
767.861	2759.3
768.044	2630.27
768.227	2697.86
768.41	2695.81
768.593	2683.52
768.776	2693.76
768.959	2450.05
769.142	2540.16
769.324	2620.03
769.507	2560.64
769.69	2589.32
769.873	2544.26
770.056	2556.55
770.239	2433.67
770.421	2476.68
770.604	2409.09
770.787	2423.43
770.97	2529.92
771.152	2310.79
771.335	2445.96
771.518	2376.33
771.7	2456.2
771.883	2286.22
772.066	2286.22
772.248	2364.04
772.431	2405
772.613	2368.13
772.796	2335.37
772.978	2124.43
773.161	2241.16
773.343	2132.62
773.526	2167.43
773.708	2118.28
773.891	2155.15
774.073	2273.93
774.256	2110.09
774.438	2265.74
774.621	2097.8
774.803	2093.71
774.985	2073.23
775.168	2038.41
775.35	2126.47
775.532	1989.26
775.715	1983.12
775.897	1979.02
776.079	2046.6
776.261	1983.12
776.444	1948.3
776.626	1989.26
776.808	1899.15
776.99	1831.57
777.173	1774.22
777.355	1884.81
777.537	1804.94
777.719	1835.66
777.901	1778.32
778.083	1743.5
778.265	1763.98
778.447	1868.43
778.629	1753.74
778.811	1729.17
778.993	1714.83
779.175	1729.17
779.357	1581.71
779.539	1680.02
779.721	1610.39
779.903	1632.91
780.085	1598.1
780.267	1518.23
780.449	1610.39
780.631	1557.14
780.812	1604.24
780.994	1643.15
781.176	1507.99
781.358	1364.63
781.54	1612.43
781.721	1491.6
781.903	1469.08
782.085	1462.93
782.267	1458.84
782.448	1335.96
782.63	1383.06
782.812	1516.18
782.993	1440.4
783.175	1512.08
783.357	1432.21
783.538	1368.73
783.72	1415.83
783.901	1370.77
784.083	1309.33
784.264	1395.35
784.446	1254.04
784.627	1233.56
784.809	1327.77
784.99	1213.08
785.172	1208.98
785.353	1233.56
785.535	1268.38
785.716	1204.89
785.897	1315.48
786.079	1286.81
786.26	1131.16
786.441	1229.46
786.623	1202.84
786.804	1098.39
786.985	1131.16
787.167	1090.2
787.348	1096.35
787.529	1061.53
787.71	1161.88
787.891	1147.55
788.073	1065.63
788.254	1069.72
788.435	1180.31
788.616	1137.31
788.797	1004.19
788.978	1036.95
789.159	1034.91
789.34	1075.87
789.522	967.32
789.703	1016.48
789.884	1067.67
790.065	1041.05
790.246	959.13
790.427	1000.09
790.607	977.56
790.788	1008.28
790.969	901.79
791.15	985.76
791.331	998.04
791.512	877.21
791.693	877.21
791.874	899.74
792.054	987.8
792.235	975.52
792.416	836.25
792.597	879.26
792.778	881.31
792.958	862.88
793.139	950.94
793.32	856.73
793.5	881.31
793.681	844.45
793.862	883.36
794.042	891.55
794.223	795.29
794.404	893.6
794.584	772.77
794.765	852.64
794.945	701.09
795.126	832.16
795.306	733.86
795.487	729.76
795.667	764.58
795.848	819.87
796.028	821.92
796.209	727.71
796.389	750.24
796.57	770.72
796.75	744.1
796.93	725.66
797.111	744.1
797.291	735.9
797.471	645.79
797.652	725.66
797.832	647.84
798.012	754.34
798.192	625.31
798.373	653.98
798.553	729.76
798.733	641.7
798.913	653.98
799.093	676.51
799.274	727.71
799.454	684.7
799.634	635.55
799.814	686.75
799.994	623.27
800.174	701.09
800.354	705.18
800.534	649.89
800.714	682.66
800.894	658.08
801.074	551.59
801.254	621.22
801.434	649.89
801.614	600.74
801.794	565.92
801.974	1383.06
802.154	572.07
802.334	633.5
802.514	615.07
802.693	576.16
802.873	604.83
803.053	610.98
803.233	594.59
803.413	582.31
803.592	578.21
803.772	565.92
803.952	606.88
804.131	551.59
804.311	547.49
804.491	549.54
804.67	475.81
804.85	590.5
805.03	565.92
805.209	586.4
805.389	447.14
805.568	502.43
805.748	533.15
805.928	522.91
806.107	539.3
806.287	563.87
806.466	559.78
806.646	477.86
806.825	610.98
807.004	492.2
807.184	514.72
807.363	549.54
807.543	438.95
807.722	547.49
807.901	576.16
808.081	496.29
808.26	508.58
808.439	484
808.619	457.38
808.798	516.77
808.977	430.76
809.156	500.39
809.336	414.37
809.515	580.26
809.694	488.1
809.873	445.09
810.052	459.43
810.231	459.43
810.411	492.2
810.59	477.86
810.769	430.76
810.948	441
811.127	406.18
811.306	408.23
811.485	406.18
811.664	404.13
811.843	488.1
812.022	424.61
812.201	412.32
812.38	455.33
812.559	443.04
812.737	443.04
812.916	410.28
813.095	426.66
813.274	383.65
813.453	461.48
813.632	397.99
813.811	424.61
813.989	381.6
814.168	459.43
814.347	383.65
814.526	461.48
814.704	494.24
814.883	420.52
815.062	393.89
815.24	443.04
815.419	385.7
815.598	504.48
815.776	375.46
815.955	348.84
816.133	418.47
816.312	350.89
816.49	408.23
816.669	311.97
816.847	387.75
817.026	393.89
817.204	365.22
817.383	418.47
817.561	324.26
817.74	408.23
817.918	342.69
818.097	324.26
818.275	393.89
818.453	375.46
818.632	418.47
818.81	385.7
818.988	367.27
819.167	281.25
819.345	393.89
819.523	279.21
819.701	244.39
819.879	309.93
820.058	279.21
820.236	328.36
820.414	324.26
820.592	367.27
820.77	279.21
820.948	449.19
821.127	295.59
821.305	361.13
821.483	293.54
821.661	344.74
821.839	320.17
822.017	238.25
822.195	266.92
822.373	348.84
822.551	279.21
822.729	393.89
822.907	271.01
823.085	238.25
823.262	361.13
823.44	268.97
823.618	303.78
823.796	342.69
823.974	342.69
824.152	230.06
824.329	209.58
824.507	250.53
824.685	330.41
824.863	305.83
825.04	262.82
825.218	271.01
825.396	287.4
825.574	246.44
825.751	324.26
825.929	236.2
826.107	176.81
826.284	289.45
826.462	301.73
826.639	279.21
826.817	199.34
826.994	350.89
827.172	256.68
827.349	268.97
827.527	322.21
827.704	262.82
827.882	271.01
828.059	311.97
828.237	156.33
828.414	318.12
828.591	162.47
828.769	197.29
828.946	205.48
829.124	213.67
829.301	252.58
829.478	215.72
829.655	357.03
829.833	309.93
830.01	178.86
830.187	262.82
830.364	168.62
830.542	221.86
830.719	228.01
830.896	293.54
831.073	254.63
831.25	246.44
831.427	187.05
831.604	266.92
831.782	164.52
831.959	213.67
832.136	219.82
832.313	252.58
832.49	207.53
832.667	264.87
832.844	209.58
833.021	260.77
833.198	221.86
833.374	250.53
833.551	191.14
833.728	250.53
833.905	152.23
834.082	205.48
834.259	262.82
834.436	279.21
834.612	230.06
834.789	217.77
834.966	228.01
835.143	180.9
835.319	121.51
835.496	96.94
835.673	162.47
835.85	232.1
836.026	189.1
836.203	144.04
836.38	123.56
836.556	166.57
836.733	119.46
836.909	238.25
837.086	141.99
837.262	88.75
837.439	170.66
837.616	197.29
837.792	207.53
837.968	176.81
838.145	137.9
838.321	121.51
838.498	201.38
838.674	187.05
838.851	182.95
839.027	162.47
839.203	125.61
839.38	195.24
839.556	113.32
839.732	242.34
839.909	162.47
840.085	199.34
840.261	123.56
840.437	254.63
840.614	139.94
840.79	164.52
840.966	174.76
841.142	182.95
841.318	168.62
841.494	137.9
841.671	139.94
841.847	197.29
842.023	123.56
842.199	129.7
842.375	160.42
842.551	21.16
842.727	88.75
842.903	230.06
843.079	90.79
843.255	162.47
843.431	152.23
843.607	156.33
843.783	113.32
843.959	176.81
844.134	137.9
844.31	148.14
844.486	131.75
844.662	195.24
844.838	158.38
845.013	148.14
845.189	133.8
845.365	152.23
845.541	176.81
845.716	115.37
845.892	187.05
846.068	78.51
846.244	107.18
846.419	164.52
846.595	144.04
846.77	74.41
846.946	129.7
847.122	160.42
847.297	148.14
847.473	164.52
847.648	98.99
847.824	152.23
847.999	70.31
848.175	105.13
848.35	135.85
848.526	96.94
848.701	121.51
848.876	78.51
849.052	68.27
849.227	139.94
849.403	146.09
849.578	146.09
849.753	90.79
849.929	135.85
850.104	139.94
850.279	101.03
850.454	96.94
850.63	154.28
850.805	62.12
850.98	117.42
851.155	88.75
851.33	86.7
851.505	39.59
851.681	121.51
851.856	39.59
852.031	45.74
852.206	74.41
852.381	90.79
852.556	45.74
852.731	127.66
852.906	88.75
853.081	74.41
853.256	172.71
853.431	92.84
853.606	119.46
853.781	62.12
853.956	137.9
854.131	66.22
854.305	82.6
854.48	123.56
854.655	55.98
854.83	86.7
855.005	113.32
855.18	51.88
855.354	23.21
855.529	94.89
855.704	60.07
855.879	129.7
856.053	-9.56
856.228	92.84
856.403	17.07
856.577	98.99
856.752	98.99
856.926	74.41
857.101	41.64
857.276	6.83
857.45	19.11
857.625	53.93
857.799	88.75
857.974	82.6
858.148	35.5
858.323	62.12
858.497	29.35
858.672	62.12
858.846	47.79
859.02	105.13
859.195	123.56
859.369	103.08
859.543	-15.7
859.718	107.18
859.892	107.18
860.066	88.75
860.241	72.36
860.415	49.83
860.589	29.35
860.763	105.13
860.938	29.35
861.112	133.8
861.286	17.07
861.46	94.89
861.634	78.51
861.808	80.55
861.982	49.83
862.157	51.88
862.331	25.26
862.505	37.55
862.679	72.36
862.853	45.74
863.027	49.83
863.201	121.51
863.375	-3.41
863.549	98.99
863.722	72.36
863.896	111.27
864.07	62.12
864.244	86.7
864.418	37.55
864.592	23.21
864.766	117.42
864.939	-23.89
865.113	70.31
865.287	39.59
865.461	90.79
865.634	78.51
865.808	49.83
865.982	-17.75
866.156	58.03
866.329	74.41
866.503	55.98
866.676	33.45
866.85	8.87
867.024	103.08
867.197	74.41
867.371	0.68
867.544	33.45
867.718	49.83
867.891	105.13
868.065	0.68
868.238	49.83
868.412	41.64
868.585	-48.47
868.759	49.83
868.932	96.94
869.105	-3.41
869.279	37.55
869.452	33.45
869.625	15.02
869.799	8.87
869.972	41.64
870.145	33.45
870.319	66.22
870.492	70.31
870.665	-17.75
870.838	33.45
871.011	-17.75
871.185	68.27
871.358	-9.56
871.531	70.31
871.704	47.79
871.877	49.83
872.05	31.4
872.223	0.68
872.396	37.55
872.569	74.41
872.742	41.64
872.915	4.78
873.088	70.31
873.261	0.68
873.434	47.79
873.607	51.88
873.78	98.99
873.953	12.97
874.126	27.31
874.299	23.21
874.471	33.45
874.644	15.02
874.817	29.35
874.99	172.71
875.163	-30.04
875.335	74.41
875.508	31.4
875.681	53.93
875.853	115.37
876.026	31.4
876.199	37.55
876.371	53.93
876.544	-23.89
876.717	33.45
876.889	0.68
877.062	84.65
877.234	-1.37
877.407	58.03
877.579	25.26
877.752	25.26
877.924	53.93
878.097	37.55
878.269	62.12
878.442	-7.51
878.614	47.79
878.786	-3.41
878.959	74.41
879.131	53.93
879.303	-32.08
879.476	-3.41
879.648	8.87
879.82	-85.33
879.993	-3.41
880.165	111.27
880.337	0.68
880.509	70.31
880.681	-42.32
880.854	80.55
881.026	58.03
881.198	131.75
881.37	-15.7
881.542	23.21
881.714	-1.37
881.886	0.68
882.058	12.97
882.23	10.92
882.402	8.87
882.574	66.22
882.746	41.64
882.918	-5.46
883.09	10.92
883.262	12.97
883.434	-7.51
883.606	0.68
883.778	39.59
883.95	82.6
884.122	98.99
884.293	25.26
884.465	33.45
884.637	41.64
884.809	60.07
884.98	74.41
885.152	4.78
885.324	64.17
885.496	-30.04
885.667	31.4
885.839	-19.8
886.011	121.51
886.182	74.41
886.354	66.22
886.525	74.41
886.697	17.07
886.869	-25.94
887.04	41.64
887.212	66.22
887.383	164.52
887.555	45.74
887.726	-34.13
887.897	39.59
888.069	2.73
888.24	12.97
888.412	58.03
888.583	98.99
888.754	-3.41
888.926	12.97
889.097	-17.75
889.268	58.03
889.44	-5.46
889.611	-34.13
889.782	-89.43
889.953	0.68
890.125	111.27
890.296	17.07
890.467	53.93
890.638	-7.51
890.809	-7.51
890.98	25.26
891.151	-23.89
891.323	72.36
891.494	64.17
891.665	10.92
891.836	66.22
892.007	-64.85
892.178	115.37
892.349	86.7
892.52	-19.8
892.691	41.64
892.862	41.64
893.032	6.83
893.203	51.88
893.374	51.88
893.545	86.7
893.716	25.26
893.887	78.51
894.057	-17.75
894.228	60.07
894.399	37.55
894.57	-7.51
894.74	6.83
894.911	41.64
895.082	45.74
895.253	17.07
895.423	6.83
895.594	6.83
895.764	6.83
895.935	-34.13
896.106	74.41
896.276	19.11
896.447	15.02
896.617	8.87
896.788	8.87
896.958	27.31
897.129	-15.7
897.299	8.87
897.47	-1.37
897.64	25.26
897.81	-36.18
897.981	-7.51
898.151	-21.85
898.322	125.61
898.492	33.45
898.662	-38.23
898.832	0.68
899.003	15.02
899.173	21.16
899.343	2.73
899.513	-19.8
