Data from USB4F104151__34__11-30-10-852.txt Node

Date: Fri Mar 14 11:30:10 EDT 2025
User: louis
Spectrometer: USB4F10415
Trigger mode: 4
Integration Time (sec): 5.000000E-2
Scans to average: 1
Electric dark correction enabled: true
Nonlinearity correction enabled: false
Boxcar width: 0
XAxis mode: Wavelengths
Number of Pixels in Spectrum: 3648
>>>>>Begin Spectral Data<<<<<
178.204	-141.65
178.424	-141.65
178.644	-141.65
178.864	-131.41
179.084	-63.83
179.304	46.76
179.524	-20.82
179.744	57
179.964	22.19
180.184	1.71
180.404	-26.96
180.624	32.43
180.844	30.38
181.064	-26.96
181.283	-18.77
181.503	-69.97
181.723	-26.96
181.943	1.71
182.163	1.71
182.383	71.34
182.602	1.71
182.822	-8.53
183.042	9.9
183.262	36.52
183.482	-2.39
183.701	46.76
183.921	-0.34
184.141	-2.39
184.361	38.57
184.58	91.82
184.8	38.57
185.02	3.75
185.239	77.48
185.459	30.38
185.679	77.48
185.898	13.99
186.118	38.57
186.338	42.67
186.557	7.85
186.777	-22.87
186.997	7.85
187.216	13.99
187.436	-2.39
187.655	75.43
187.875	67.24
188.095	91.82
188.314	61.1
188.534	61.1
188.753	7.85
188.973	11.95
189.192	89.77
189.412	-10.58
189.631	28.33
189.851	30.38
190.07	87.72
190.29	1.71
190.509	20.14
190.729	32.43
190.948	-4.44
191.168	188.07
191.387	-8.53
191.607	26.28
191.826	24.23
192.045	-18.77
192.265	3.75
192.484	38.57
192.704	-10.58
192.923	-43.35
193.142	85.67
193.362	77.48
193.581	34.47
193.8	11.95
194.02	36.52
194.239	13.99
194.458	-6.49
194.678	46.76
194.897	26.28
195.116	22.19
195.335	61.1
195.555	30.38
195.774	-16.73
195.993	71.34
196.212	13.99
196.432	110.25
196.651	97.96
196.87	-39.25
197.089	75.43
197.308	67.24
197.528	-2.39
197.747	-84.31
197.966	34.47
198.185	30.38
198.404	5.8
198.623	-2.39
198.842	108.2
199.062	153.26
199.281	11.95
199.5	69.29
199.719	3.75
199.938	83.63
200.157	32.43
200.376	-12.63
200.595	95.91
200.814	44.71
201.033	32.43
201.252	75.43
201.471	13.99
201.69	87.72
201.909	11.95
202.128	11.95
202.347	-33.11
202.566	22.19
202.785	11.95
203.004	-45.4
203.223	75.43
203.442	11.95
203.661	5.8
203.879	18.09
204.098	26.28
204.317	-45.4
204.536	108.2
204.755	46.76
204.974	38.57
205.193	69.29
205.411	81.58
205.63	18.09
205.849	71.34
206.068	100.01
206.287	36.52
206.505	52.91
206.724	36.52
206.943	85.67
207.162	95.91
207.381	100.01
207.599	52.91
207.818	34.47
208.037	20.14
208.255	5.8
208.474	36.52
208.693	-0.34
208.911	11.95
209.13	36.52
209.349	52.91
209.567	54.95
209.786	73.39
210.005	38.57
210.223	22.19
210.442	69.29
210.661	100.01
210.879	22.19
211.098	-22.87
211.316	-51.54
211.535	83.63
211.753	44.71
211.972	28.33
212.191	1.71
212.409	-55.64
212.628	18.09
212.846	-26.96
213.065	13.99
213.283	95.91
213.502	26.28
213.72	13.99
213.938	-45.4
214.157	26.28
214.375	48.81
214.594	-6.49
214.812	30.38
215.031	-4.44
215.249	110.25
215.467	38.57
215.686	63.15
215.904	50.86
216.122	50.86
216.341	38.57
216.559	26.28
216.778	95.91
216.996	79.53
217.214	71.34
217.432	-35.16
217.651	46.76
217.869	63.15
218.087	71.34
218.306	-67.92
218.524	9.9
218.742	-2.39
218.96	-29.01
219.179	67.24
219.397	54.95
219.615	106.15
219.833	5.8
220.051	11.95
220.27	85.67
220.488	36.52
220.706	73.39
220.924	13.99
221.142	16.04
221.36	18.09
221.578	34.47
221.796	83.63
222.015	69.29
222.233	151.21
222.451	52.91
222.669	-16.73
222.887	13.99
223.105	38.57
223.323	50.86
223.541	36.52
223.759	-6.49
223.977	-43.35
224.195	42.67
224.413	-29.01
224.631	5.8
224.849	54.95
225.067	38.57
225.285	36.52
225.503	42.67
225.721	1.71
225.939	87.72
226.157	59.05
226.375	61.1
226.592	11.95
226.81	-6.49
227.028	73.39
227.246	95.91
227.464	-18.77
227.682	83.63
227.9	-4.44
228.117	67.24
228.335	32.43
228.553	20.14
228.771	-2.39
228.989	67.24
229.206	38.57
229.424	-82.26
229.642	54.95
229.86	9.9
230.077	61.1
230.295	63.15
230.513	77.48
230.731	159.4
230.948	77.48
231.166	65.19
231.384	-12.63
231.601	36.52
231.819	85.67
232.037	-2.39
232.254	-37.2
232.472	83.63
232.689	30.38
232.907	85.67
233.125	36.52
233.342	36.52
233.56	42.67
233.777	-8.53
233.995	-18.77
234.213	87.72
234.43	-6.49
234.648	13.99
234.865	1.71
235.083	-18.77
235.3	85.67
235.518	34.47
235.735	108.2
235.953	63.15
236.17	59.05
236.388	54.95
236.605	79.53
236.822	36.52
237.04	61.1
237.257	52.91
237.475	24.23
237.692	20.14
237.909	79.53
238.127	22.19
238.344	100.01
238.562	-4.44
238.779	22.19
238.996	85.67
239.214	26.28
239.431	-4.44
239.648	-18.77
239.865	77.48
240.083	28.33
240.3	87.72
240.517	5.8
240.735	26.28
240.952	44.71
241.169	28.33
241.386	50.86
241.603	9.9
241.821	3.75
242.038	91.82
242.255	30.38
242.472	3.75
242.689	71.34
242.907	26.28
243.124	32.43
243.341	71.34
243.558	-10.58
243.775	-51.54
243.992	1.71
244.209	38.57
244.426	136.87
244.643	11.95
244.86	-72.02
245.078	65.19
245.295	18.09
245.512	36.52
245.729	54.95
245.946	44.71
246.163	28.33
246.38	22.19
246.597	34.47
246.814	52.91
247.031	26.28
247.248	69.29
247.464	77.48
247.681	46.76
247.898	-22.87
248.115	61.1
248.332	54.95
248.549	124.58
248.766	110.25
248.983	48.81
249.2	44.71
249.417	95.91
249.633	22.19
249.85	48.81
250.067	11.95
250.284	36.52
250.501	5.8
250.717	22.19
250.934	30.38
251.151	13.99
251.368	-37.2
251.585	52.91
251.801	13.99
252.018	63.15
252.235	30.38
252.451	-22.87
252.668	48.81
252.885	-10.58
253.102	30.38
253.318	54.95
253.535	5.8
253.752	-45.4
253.968	79.53
254.185	28.33
254.401	9.9
254.618	73.39
254.835	63.15
255.051	69.29
255.268	57
255.484	50.86
255.701	83.63
255.917	34.47
256.134	-37.2
256.351	38.57
256.567	-61.78
256.784	87.72
257	46.76
257.217	-24.92
257.433	1.71
257.65	-18.77
257.866	28.33
258.082	-43.35
258.299	-10.58
258.515	26.28
258.732	36.52
258.948	-2.39
259.165	30.38
259.381	40.62
259.597	79.53
259.814	-10.58
260.03	22.19
260.246	20.14
260.463	87.72
260.679	3.75
260.895	40.62
261.112	75.43
261.328	9.9
261.544	13.99
261.761	136.87
261.977	30.38
262.193	30.38
262.409	120.49
262.626	-2.39
262.842	-26.96
263.058	46.76
263.274	128.68
263.49	-6.49
263.707	38.57
263.923	79.53
264.139	18.09
264.355	71.34
264.571	87.72
264.787	18.09
265.004	124.58
265.22	-12.63
265.436	67.24
265.652	30.38
265.868	30.38
266.084	59.05
266.3	42.67
266.516	-10.58
266.732	114.34
266.948	54.95
267.164	5.8
267.38	54.95
267.596	30.38
267.812	59.05
268.028	3.75
268.244	9.9
268.46	54.95
268.676	-2.39
268.892	30.38
269.108	69.29
269.324	38.57
269.54	-18.77
269.756	13.99
269.972	-12.63
270.188	81.58
270.403	30.38
270.619	46.76
270.835	3.75
271.051	69.29
271.267	-37.2
271.483	-61.78
271.698	93.87
271.914	91.82
272.13	22.19
272.346	11.95
272.562	79.53
272.777	104.11
272.993	38.57
273.209	83.63
273.425	18.09
273.64	-41.3
273.856	26.28
274.072	38.57
274.287	-10.58
274.503	-8.53
274.719	48.81
274.934	61.1
275.15	13.99
275.366	36.52
275.581	34.47
275.797	28.33
276.012	63.15
276.228	71.34
276.444	20.14
276.659	46.76
276.875	5.8
277.09	40.62
277.306	54.95
277.521	40.62
277.737	9.9
277.952	18.09
278.168	50.86
278.383	46.76
278.599	-10.58
278.814	79.53
279.03	-16.73
279.245	95.91
279.461	18.09
279.676	61.1
279.892	9.9
280.107	73.39
280.322	-20.82
280.538	63.15
280.753	-6.49
280.969	52.91
281.184	22.19
281.399	110.25
281.615	57
281.83	-86.36
282.045	-18.77
282.26	38.57
282.476	67.24
282.691	13.99
282.906	54.95
283.122	48.81
283.337	22.19
283.552	71.34
283.767	73.39
283.983	46.76
284.198	-4.44
284.413	44.71
284.628	-24.92
284.843	38.57
285.058	69.29
285.274	61.1
285.489	-14.68
285.704	52.91
285.919	34.47
286.134	95.91
286.349	34.47
286.564	50.86
286.779	20.14
286.995	-2.39
287.21	-26.96
287.425	22.19
287.64	13.99
287.855	69.29
288.07	-35.16
288.285	104.11
288.5	108.2
288.715	-22.87
288.93	-31.06
289.145	34.47
289.36	30.38
289.575	38.57
289.79	13.99
290.004	26.28
290.219	79.53
290.434	7.85
290.649	34.47
290.864	30.38
291.079	16.04
291.294	65.19
291.509	34.47
291.724	28.33
291.938	26.28
292.153	112.3
292.368	5.8
292.583	34.47
292.798	83.63
293.012	65.19
293.227	69.29
293.442	38.57
293.657	44.71
293.871	83.63
294.086	5.8
294.301	118.44
294.516	63.15
294.73	89.77
294.945	1.71
295.16	1.71
295.374	120.49
295.589	132.78
295.804	13.99
296.018	13.99
296.233	130.73
296.447	75.43
296.662	30.38
296.877	97.96
297.091	18.09
297.306	63.15
297.52	-26.96
297.735	69.29
297.949	9.9
298.164	112.3
298.378	28.33
298.593	69.29
298.807	83.63
299.022	30.38
299.236	100.01
299.451	91.82
299.665	-8.53
299.88	28.33
300.094	104.11
300.309	-4.44
300.523	13.99
300.737	89.77
300.952	79.53
301.166	91.82
301.381	-6.49
301.595	22.19
301.809	50.86
302.024	18.09
302.238	5.8
302.452	67.24
302.667	32.43
302.881	38.57
303.095	61.1
303.309	36.52
303.524	63.15
303.738	5.8
303.952	-29.01
304.166	69.29
304.381	-29.01
304.595	112.3
304.809	85.67
305.023	120.49
305.237	57
305.452	1.71
305.666	34.47
305.88	61.1
306.094	97.96
306.308	44.71
306.522	75.43
306.736	79.53
306.95	100.01
307.164	34.47
307.379	77.48
307.593	38.57
307.807	75.43
308.021	110.25
308.235	50.86
308.449	-37.2
308.663	69.29
308.877	87.72
309.091	63.15
309.305	63.15
309.519	22.19
309.733	83.63
309.947	20.14
310.161	63.15
310.374	97.96
310.588	120.49
310.802	20.14
311.016	52.91
311.23	61.1
311.444	54.95
311.658	30.38
311.872	89.77
312.085	52.91
312.299	93.87
312.513	61.1
312.727	91.82
312.941	13.99
313.154	-22.87
313.368	83.63
313.582	44.71
313.796	46.76
314.009	-2.39
314.223	120.49
314.437	67.24
314.651	-20.82
314.864	52.91
315.078	13.99
315.292	-29.01
315.505	28.33
315.719	50.86
315.933	54.95
316.146	-10.58
316.36	-53.59
316.573	38.57
316.787	-22.87
317.001	77.48
317.214	-26.96
317.428	5.8
317.641	34.47
317.855	67.24
318.068	122.54
318.282	-14.68
318.495	75.43
318.709	140.97
318.922	71.34
319.136	120.49
319.349	102.06
319.563	1.71
319.776	102.06
319.99	102.06
320.203	157.35
320.417	13.99
320.63	11.95
320.843	118.44
321.057	11.95
321.27	-0.34
321.483	69.29
321.697	89.77
321.91	69.29
322.124	20.14
322.337	63.15
322.55	40.62
322.763	59.05
322.977	13.99
323.19	22.19
323.403	20.14
323.617	91.82
323.83	34.47
324.043	22.19
324.256	54.95
324.469	-55.64
324.683	83.63
324.896	-18.77
325.109	67.24
325.322	13.99
325.535	7.85
325.748	77.48
325.962	26.28
326.175	30.38
326.388	104.11
326.601	102.06
326.814	18.09
327.027	91.82
327.24	169.64
327.453	61.1
327.666	114.34
327.879	87.72
328.092	71.34
328.305	77.48
328.518	75.43
328.731	3.75
328.944	46.76
329.157	91.82
329.37	16.04
329.583	36.52
329.796	75.43
330.009	13.99
330.222	9.9
330.435	100.01
330.648	44.71
330.861	38.57
331.073	54.95
331.286	26.28
331.499	118.44
331.712	22.19
331.925	-33.11
332.138	104.11
332.35	-29.01
332.563	44.71
332.776	71.34
332.989	38.57
333.202	-6.49
333.414	95.91
333.627	3.75
333.84	95.91
334.053	40.62
334.265	-39.25
334.478	-6.49
334.691	20.14
334.903	46.76
335.116	61.1
335.329	65.19
335.541	5.8
335.754	116.39
335.966	13.99
336.179	57
336.392	11.95
336.604	63.15
336.817	97.96
337.029	42.67
337.242	83.63
337.454	124.58
337.667	63.15
337.88	65.19
338.092	50.86
338.305	69.29
338.517	46.76
338.729	18.09
338.942	112.3
339.154	-20.82
339.367	28.33
339.579	140.97
339.792	69.29
340.004	77.48
340.217	46.76
340.429	102.06
340.641	3.75
340.854	9.9
341.066	77.48
341.278	114.34
341.491	67.24
341.703	85.67
341.915	3.75
342.128	16.04
342.34	46.76
342.552	-12.63
342.764	38.57
342.977	46.76
343.189	73.39
343.401	13.99
343.613	-14.68
343.826	1.71
344.038	-2.39
344.25	75.43
344.462	54.95
344.674	22.19
344.886	38.57
345.099	83.63
345.311	100.01
345.523	97.96
345.735	48.81
345.947	46.76
346.159	11.95
346.371	5.8
346.583	22.19
346.795	112.3
347.007	3.75
347.219	102.06
347.431	38.57
347.643	28.33
347.855	40.62
348.067	128.68
348.279	32.43
348.491	40.62
348.703	7.85
348.915	42.67
349.127	40.62
349.339	87.72
349.551	67.24
349.763	42.67
349.975	20.14
350.187	61.1
350.399	118.44
350.61	-12.63
350.822	30.38
351.034	7.85
351.246	16.04
351.458	85.67
351.669	20.14
351.881	5.8
352.093	73.39
352.305	71.34
352.517	71.34
352.728	95.91
352.94	30.38
353.152	71.34
353.363	1.71
353.575	83.63
353.787	136.87
353.999	69.29
354.21	28.33
354.422	-51.54
354.633	93.87
354.845	-24.92
355.057	3.75
355.268	108.2
355.48	81.58
355.692	3.75
355.903	112.3
356.115	20.14
356.326	46.76
356.538	112.3
356.749	28.33
356.961	114.34
357.172	67.24
357.384	-20.82
357.595	81.58
357.807	22.19
358.018	20.14
358.23	28.33
358.441	54.95
358.653	85.67
358.864	71.34
359.075	-6.49
359.287	-16.73
359.498	67.24
359.709	77.48
359.921	-18.77
360.132	-10.58
360.344	69.29
360.555	32.43
360.766	100.01
360.977	73.39
361.189	130.73
361.4	-2.39
361.611	95.91
361.823	59.05
362.034	-10.58
362.245	48.81
362.456	77.48
362.667	104.11
362.879	-6.49
363.09	38.57
363.301	79.53
363.512	95.91
363.723	-10.58
363.935	108.2
364.146	61.1
364.357	-18.77
364.568	106.15
364.779	54.95
364.99	140.97
365.201	-18.77
365.412	79.53
365.623	42.67
365.834	110.25
366.045	36.52
366.256	83.63
366.467	38.57
366.678	38.57
366.889	95.91
367.1	9.9
367.311	-4.44
367.522	36.52
367.733	87.72
367.944	1.71
368.155	140.97
368.366	48.81
368.577	54.95
368.788	71.34
368.999	11.95
369.209	38.57
369.42	175.78
369.631	110.25
369.842	75.43
370.053	110.25
370.264	132.78
370.474	38.57
370.685	42.67
370.896	30.38
371.107	112.3
371.317	97.96
371.528	5.8
371.739	110.25
371.95	91.82
372.16	71.34
372.371	16.04
372.582	134.82
372.792	71.34
373.003	118.44
373.214	63.15
373.424	97.96
373.635	44.71
373.846	69.29
374.056	63.15
374.267	22.19
374.477	26.28
374.688	63.15
374.898	42.67
375.109	54.95
375.319	79.53
375.53	85.67
375.74	83.63
375.951	38.57
376.161	120.49
376.372	61.1
376.582	-26.96
376.793	50.86
377.003	24.23
377.214	38.57
377.424	50.86
377.635	63.15
377.845	69.29
378.055	112.3
378.266	52.91
378.476	67.24
378.686	34.47
378.897	32.43
379.107	16.04
379.317	7.85
379.528	79.53
379.738	61.1
379.948	46.76
380.158	145.06
380.369	87.72
380.579	42.67
380.789	71.34
380.999	69.29
381.21	52.91
381.42	177.83
381.63	38.57
381.84	79.53
382.05	85.67
382.261	106.15
382.471	63.15
382.681	11.95
382.891	114.34
383.101	118.44
383.311	9.9
383.521	95.91
383.731	69.29
383.941	149.16
384.151	91.82
384.361	46.76
384.571	46.76
384.781	42.67
384.991	102.06
385.201	120.49
385.411	87.72
385.621	83.63
385.831	102.06
386.041	61.1
386.251	73.39
386.461	143.02
386.671	50.86
386.881	13.99
387.091	11.95
387.301	128.68
387.511	18.09
387.72	69.29
387.93	95.91
388.14	40.62
388.35	59.05
388.56	-22.87
388.769	13.99
388.979	52.91
389.189	1.71
389.399	73.39
389.609	106.15
389.818	11.95
390.028	34.47
390.238	110.25
390.447	85.67
390.657	73.39
390.867	54.95
391.076	28.33
391.286	61.1
391.496	95.91
391.705	50.86
391.915	89.77
392.125	71.34
392.334	79.53
392.544	100.01
392.753	87.72
392.963	20.14
393.172	50.86
393.382	-10.58
393.591	155.3
393.801	59.05
394.01	112.3
394.22	52.91
394.429	52.91
394.639	9.9
394.848	46.76
395.058	104.11
395.267	108.2
395.477	87.72
395.686	81.58
395.895	183.98
396.105	112.3
396.314	118.44
396.524	151.21
396.733	104.11
396.942	147.11
397.152	134.82
397.361	79.53
397.57	108.2
397.78	91.82
397.989	140.97
398.198	200.36
398.407	87.72
398.617	130.73
398.826	79.53
399.035	77.48
399.244	165.54
399.453	102.06
399.663	91.82
399.872	112.3
400.081	110.25
400.29	190.12
400.499	67.24
400.708	143.02
400.917	165.54
401.127	151.21
401.336	159.4
401.545	177.83
401.754	71.34
401.963	183.98
402.172	108.2
402.381	122.54
402.59	190.12
402.799	161.45
403.008	130.73
403.217	126.63
403.426	153.26
403.635	69.29
403.844	79.53
404.053	124.58
404.262	102.06
404.471	255.65
404.68	194.22
404.888	145.06
405.097	226.98
405.306	161.45
405.515	145.06
405.724	173.74
405.933	249.51
406.142	161.45
406.35	210.6
406.559	163.5
406.768	200.36
406.977	308.9
407.185	218.79
407.394	243.37
407.603	122.54
407.812	181.93
408.02	296.61
408.229	226.98
408.438	255.65
408.646	198.31
408.855	249.51
409.064	353.96
409.272	343.72
409.481	325.29
409.69	272.04
409.898	325.29
410.107	353.96
410.315	308.9
410.524	362.15
410.733	392.87
410.941	403.11
411.15	343.72
411.358	413.35
411.567	452.26
411.775	437.92
411.984	480.93
412.192	474.79
412.401	497.32
412.609	589.47
412.818	597.67
413.026	534.18
413.234	538.27
413.443	544.42
413.651	675.49
413.86	562.85
414.068	708.26
414.276	601.76
414.485	689.82
414.693	712.35
414.901	769.69
415.11	722.59
415.318	695.97
415.526	722.59
415.734	849.57
415.943	884.38
416.151	884.38
416.359	913.05
416.567	937.63
416.776	911
416.984	1037.98
417.192	1076.89
417.4	1046.17
417.608	1070.75
417.817	1107.61
418.025	1185.43
418.233	1283.74
418.441	1107.61
418.649	1236.63
418.857	1455.76
419.065	1445.52
419.273	1414.81
419.481	1476.24
419.689	1570.45
419.897	1609.36
420.105	1683.09
420.313	1820.3
420.521	1750.67
420.729	1922.7
420.937	1959.56
421.145	1930.89
421.353	2027.15
421.561	2133.64
421.769	2100.87
421.977	2303.62
422.185	2297.48
422.393	2352.77
422.601	2426.5
422.809	2385.54
423.017	2438.79
423.224	2657.92
423.432	2700.93
423.64	2635.39
423.848	3151.48
424.056	2780.8
424.263	3204.73
424.471	3149.43
424.679	3319.42
424.887	3319.42
425.094	3599.99
425.302	3509.88
425.51	3589.75
425.718	3761.78
425.925	3769.97
426.133	3843.7
426.341	4167.28
426.548	4339.3
426.756	4361.83
426.964	4216.43
427.171	4634.21
427.379	4675.17
427.586	4822.63
427.794	4886.11
428.001	5203.55
428.209	5396.06
428.417	5371.48
428.624	5832.27
428.832	5666.39
429.039	5580.37
429.247	5645.91
429.454	6198.86
429.662	6714.95
429.869	6127.18
430.076	6821.44
430.284	6440.52
430.491	6567.49
430.699	7116.35
430.906	7091.77
431.114	7153.21
431.321	7497.27
431.528	7630.39
431.736	8146.48
431.943	8443.43
432.15	8410.67
432.358	8255.02
432.565	8828.45
432.772	8828.45
432.979	9143.84
433.187	9387.55
433.394	9508.38
433.601	10188.3
433.808	10102.29
434.016	10096.14
434.223	10477.07
434.43	10980.87
434.637	10915.33
434.844	11392.51
435.052	11867.64
435.259	11597.31
435.466	12060.15
435.673	11773.43
435.88	12277.23
436.087	13151.71
436.294	13043.17
436.501	12785.13
436.708	13037.03
436.915	13616.6
437.122	14097.88
437.329	14011.86
437.537	14798.28
437.743	14785.99
437.95	15037.89
438.157	15386.05
438.364	16092.6
438.571	15676.86
438.778	16129.46
438.985	17345.95
439.192	16706.99
439.399	17302.95
439.606	16856.49
439.813	17825.18
440.02	18951.56
440.227	18541.97
440.433	18531.73
440.64	19090.82
440.847	18978.19
441.054	19262.85
441.261	20800.88
441.467	20632.94
441.674	20979.05
441.881	21595.49
442.088	21620.06
442.294	21189.99
442.501	21945.69
442.708	22594.9
442.914	23457.09
443.121	24159.55
443.328	23958.85
443.534	25273.64
443.741	24630.58
443.948	24192.31
444.154	26152.22
444.361	25845.02
444.568	26158.36
444.774	26277.15
444.981	26469.65
445.187	27342.09
445.394	28173.56
445.6	28241.15
445.807	30868.69
446.013	29349.1
446.22	29568.23
446.426	31112.4
446.633	31278.29
446.839	32210.11
447.046	30817.49
447.252	32570.55
447.459	32853.17
447.665	32763.06
447.871	33846.44
448.078	35359.89
448.284	33572.01
448.491	34426.01
448.697	35964.04
448.903	36717.69
449.11	36791.42
449.316	36156.55
449.522	36668.54
449.728	37559.41
449.935	37815.4
450.141	37786.73
450.347	38689.88
450.553	37487.73
450.76	37989.48
450.966	39083.09
451.172	38886.49
451.378	39846.99
451.584	38839.39
451.791	39439.44
451.997	39617.61
452.203	40356.93
452.409	40201.29
452.615	39752.78
452.821	39017.56
453.027	37885.03
453.233	40184.9
453.44	38253.67
453.646	38837.34
453.852	38909.02
454.058	39640.14
454.264	38493.28
454.47	39062.61
454.676	38124.64
454.882	39582.8
455.088	35896.45
455.294	36682.87
455.5	36707.45
455.705	37223.54
455.911	35521.68
456.117	34593.95
456.323	34526.36
456.529	33023.15
456.735	34010.28
456.941	33375.41
457.147	32388.28
457.352	31689.93
457.558	31407.31
457.764	31294.67
457.97	30651.61
458.176	29953.25
458.381	30381.28
458.587	28751.09
458.793	28439.8
458.999	26449.18
459.204	29238.51
459.41	28103.93
459.616	26289.43
459.821	26318.11
460.027	26008.86
460.233	25769.25
460.438	24704.31
460.644	24888.62
460.85	23117.13
461.055	23086.41
461.261	22865.23
461.466	21341.54
461.672	20755.82
461.878	22381.91
462.083	20610.42
462.289	20393.33
462.494	19963.26
462.7	19322.24
462.905	18969.99
463.111	19660.16
463.316	19557.76
463.522	19000.71
463.727	19123.59
463.932	19072.39
464.138	18791.82
464.343	18986.38
464.549	18271.64
464.754	19234.18
464.959	18652.56
465.165	18638.22
465.37	17819.03
465.575	17311.14
465.781	18277.78
465.986	18318.74
466.191	17501.6
466.397	17423.78
466.602	16326.07
466.807	16983.46
467.012	17089.96
467.218	16911.78
467.423	16764.33
467.628	16776.62
467.833	17526.18
468.038	16887.21
468.244	16311.73
468.449	17135.01
468.654	16479.66
468.859	16252.34
469.064	16182.71
469.269	15521.21
469.474	15793.59
469.679	16053.69
469.885	15687.1
470.09	15803.83
470.295	15607.23
470.5	15269.31
470.705	15484.35
470.91	14855.62
471.115	14683.59
471.32	15119.81
471.525	14955.97
471.73	14579.15
471.935	14491.09
472.139	14118.36
472.344	14026.2
472.549	13852.12
472.754	14298.58
472.959	13716.95
473.164	13348.32
473.369	13317.6
473.574	13700.57
473.778	13495.77
473.983	13403.61
474.188	13284.83
474.393	12809.7
474.598	12762.6
474.802	12729.83
475.007	12670.44
475.212	12682.73
475.417	11814.39
475.621	12054
475.826	12219.89
476.031	11914.74
476.235	11611.64
476.44	11927.03
476.645	11578.87
476.849	11728.38
477.054	11507.2
477.259	11333.12
477.463	11431.42
477.668	10958.34
477.872	11290.11
478.077	11015.68
478.282	10651.14
478.486	10739.21
478.691	10712.58
478.895	10561.03
479.1	10444.3
479.304	10515.98
479.509	10071.57
479.713	10567.18
479.918	10102.29
480.122	10020.37
480.326	10196.5
480.531	10055.19
480.735	10323.47
480.94	9807.38
481.144	10268.17
481.348	9721.37
481.553	9872.92
481.757	9899.54
481.961	9817.62
482.166	10276.37
482.37	9858.58
482.574	9799.19
482.778	9815.57
482.983	10163.73
483.187	9842.2
483.391	9786.9
483.595	9680.41
483.8	9627.16
484.004	9807.38
484.208	9729.56
484.412	9754.13
484.616	9829.91
484.821	9889.3
485.025	9397.79
485.229	9827.86
485.433	9610.78
485.637	9666.07
485.841	9661.98
486.045	9602.58
486.249	9764.37
486.453	9635.35
486.657	9844.24
486.861	9571.86
487.065	9352.73
487.269	9762.33
487.473	9524.76
487.677	9817.62
487.881	9973.27
488.085	9791
488.289	9870.87
488.493	9784.85
488.697	9877.01
488.901	9866.77
489.105	9637.4
489.309	9829.91
489.512	9655.83
489.716	9930.26
489.92	9745.94
490.124	9719.32
490.328	10044.95
490.531	9958.93
490.735	9958.93
490.939	9856.53
491.143	9842.2
491.346	9997.84
491.55	10139.15
491.754	10044.95
491.958	10335.76
492.161	10198.54
492.365	10292.75
492.569	10302.99
492.772	10405.39
492.976	10442.25
493.18	10329.61
493.383	10694.15
493.587	10446.35
493.79	10765.83
493.994	10446.35
494.197	10747.4
494.401	10814.98
494.605	10505.74
494.808	10843.65
495.012	11040.26
495.215	11030.02
495.419	11103.75
495.622	11011.59
495.825	11304.45
496.029	11240.96
496.232	11476.48
496.436	11273.73
496.639	11767.29
496.843	11515.39
497.046	11664.89
497.249	12230.13
497.453	12170.74
497.656	12338.67
497.859	12375.53
498.063	12334.57
498.266	12594.67
498.469	12654.06
498.673	12817.9
498.876	12830.18
499.079	13114.85
499.282	13299.17
499.485	13448.67
499.689	13630.94
499.892	13575.64
500.095	13690.33
500.298	13884.89
500.501	13809.11
500.705	14239.19
500.908	14396.88
501.111	14220.75
501.314	14851.53
501.517	14792.14
501.72	15080.9
501.923	14964.17
502.126	15166.92
502.329	15508.93
502.532	15611.32
502.735	15836.6
502.938	15760.83
503.141	16039.35
503.344	16350.64
503.547	16367.02
503.75	16692.65
503.953	16952.74
504.156	17012.14
504.359	17190.31
504.562	17321.38
504.765	17560.99
504.968	17687.96
505.17	17616.29
505.373	17915.29
505.576	18345.36
505.779	18285.97
505.982	18320.79
506.185	18589.07
506.387	18898.31
506.59	19182.98
506.793	19662.21
506.996	19256.71
507.198	20120.95
507.401	19647.87
507.604	20071.8
507.807	20344.18
508.009	20653.42
508.212	20620.66
508.415	21046.63
508.617	21435.75
508.82	21505.38
509.022	21509.47
509.225	21921.12
509.428	21820.77
509.63	22377.81
509.833	22467.92
510.035	23002.44
510.238	22627.67
510.44	23262.54
510.643	23387.46
510.845	23506.24
511.048	23399.75
511.25	24044.86
511.453	24194.36
511.655	24827.18
511.858	24302.9
512.06	24767.79
512.262	25034.03
512.465	25122.09
512.667	25591.08
512.87	25492.77
513.072	25607.46
513.274	26103.07
513.477	26649.88
513.679	26774.8
513.881	27241.74
514.084	27024.65
514.286	27804.93
514.488	27630.85
514.69	28783.86
514.893	28077.31
515.095	28632.31
515.297	28765.43
515.499	28843.25
515.701	29273.32
515.904	29813.99
516.106	29721.83
516.308	29797.6
516.51	30815.44
516.712	30553.3
516.914	30319.84
517.116	31585.48
517.318	31603.91
517.52	31673.54
517.722	31784.13
517.925	32300.22
518.127	32494.78
518.329	32609.47
518.531	32695.48
518.733	33170.61
518.935	33586.35
519.136	33975.46
519.338	34129.06
519.54	34184.35
519.742	34598.04
519.944	34790.55
520.146	35228.82
520.348	35839.11
520.55	35953.8
520.752	35667.08
520.954	36471.93
521.155	36560
521.357	36863.1
521.559	37305.46
521.761	37637.23
521.963	37792.87
522.164	38009.96
522.366	37762.15
522.568	38362.21
522.77	38493.28
522.971	39423.06
523.173	38683.74
523.375	39226.45
523.576	39431.25
523.778	39943.24
523.98	40483.9
524.181	40416.32
524.383	40565.82
524.584	40887.35
524.786	41630.77
524.988	41129.02
525.189	41733.17
525.391	41847.85
525.592	42533.92
525.794	42423.33
525.995	42730.53
526.197	42619.94
526.398	42785.82
526.6	42785.82
526.801	43713.55
527.003	43453.46
527.204	43826.19
527.406	44012.56
527.607	44534.79
527.808	44424.2
528.01	43858.96
528.211	44399.62
528.412	45411.32
528.614	45224.95
528.815	44923.9
529.016	45861.87
529.218	45321.21
529.419	45763.57
529.62	45595.63
529.822	45333.49
530.023	45695.99
530.224	45992.94
530.425	46033.9
530.626	45603.83
530.828	46001.13
531.029	47330.26
531.23	46445.54
531.431	46730.21
531.632	47064.03
531.833	46797.79
532.035	47029.21
532.236	47127.52
532.437	47471.57
532.638	47117.28
532.839	47352.79
533.04	47848.4
533.241	47031.26
533.442	47750.1
533.643	47363.03
533.844	47838.16
534.045	47610.84
534.246	47231.96
534.447	47901.65
534.648	47340.5
534.849	47895.5
535.05	47326.17
535.251	47930.32
535.451	47627.22
535.652	48163.79
535.853	47905.74
536.054	48217.03
536.255	47995.85
536.456	47809.49
536.657	48331.72
536.857	48120.78
537.058	48012.24
537.259	48380.87
537.46	48249.8
537.66	47809.49
537.861	48178.12
538.062	48077.77
538.263	48309.19
538.463	47799.25
538.664	48141.26
538.865	48333.77
539.065	48593.86
539.266	47582.16
539.466	48765.89
539.667	47705.04
539.868	48681.92
540.068	48159.69
540.269	48128.97
540.469	48708.55
540.67	47887.31
540.87	48145.36
541.071	48083.92
541.271	48057.29
541.472	47776.72
541.672	48180.17
541.873	47995.85
542.073	46973.92
542.274	48442.31
542.474	48153.55
542.675	47557.59
542.875	48108.49
543.075	47791.06
543.276	47506.39
543.476	48325.58
543.676	47924.18
543.877	48491.46
544.077	47809.49
544.277	48045.01
544.478	47508.44
544.678	48045.01
544.878	48139.21
545.078	47383.51
545.279	47430.61
545.479	47578.07
545.679	48012.24
545.879	47782.87
546.079	47905.74
546.28	47651.8
546.48	47326.17
546.68	47844.3
546.88	47977.42
547.08	48257.99
547.28	47811.54
547.48	47205.34
547.68	48049.1
547.88	47557.59
548.081	47623.12
548.281	47606.74
548.481	47637.46
548.681	48131.02
548.881	47909.84
549.081	47545.3
549.28	47582.16
549.48	47891.41
549.68	47958.99
549.88	48227.27
550.08	47891.41
550.28	47702.99
550.48	47569.88
550.68	48024.53
550.88	47533.01
551.08	47600.6
551.279	47459.29
551.479	47246.3
551.679	47864.78
551.879	47209.43
552.079	47842.26
552.278	47242.2
552.478	47332.31
552.678	47068.12
552.878	47743.95
553.077	47307.74
553.277	46810.08
553.477	47725.52
553.676	47375.32
553.876	47440.85
554.076	46730.21
554.275	46951.39
554.475	46554.08
554.674	47324.12
554.874	47119.32
555.074	46834.66
555.273	47115.23
555.473	47061.98
555.672	46453.73
555.872	46756.83
556.071	47051.74
556.271	47383.51
556.47	46406.63
556.67	46195.69
556.869	46332.9
557.068	46883.81
557.268	46062.57
557.467	46312.42
557.667	46502.89
557.866	46203.88
558.065	46023.66
558.265	45710.32
558.464	45620.21
558.663	46423.01
558.863	45476.85
559.062	46267.37
559.261	45124.6
559.461	46062.57
559.66	44985.34
559.859	45603.83
560.058	44942.33
560.258	45126.65
560.457	44661.76
560.656	45050.88
560.855	44585.99
561.054	45198.33
561.253	44762.11
561.453	44669.95
561.652	44870.65
561.851	44973.05
562.05	44198.92
562.249	44215.3
562.448	44645.38
562.647	44485.64
562.846	44033.03
563.045	44080.14
563.244	43752.46
563.443	44401.67
563.642	43336.73
563.841	43740.18
564.04	43244.57
564.239	43834.38
564.438	43181.08
564.637	43047.96
564.836	42916.89
565.035	42802.21
565.234	42984.47
565.432	42595.36
565.631	42271.78
565.83	42773.53
566.029	42220.58
566.228	42228.77
566.427	42103.85
566.625	41786.41
566.824	41657.39
567.023	41761.84
567.222	40909.88
567.42	41858.09
567.619	41346.1
567.818	40862.78
568.016	41032.76
568.215	41452.59
568.414	41008.18
568.612	41202.74
568.811	40553.54
569.01	40565.82
569.208	40184.9
569.407	40266.82
569.605	40055.88
569.804	40328.26
570.002	39550.03
570.201	40213.57
570.4	39398.48
570.598	39308.37
570.797	39543.89
570.995	39525.46
571.193	39005.27
571.392	39357.52
571.59	39095.38
571.789	38931.54
571.987	38790.23
572.186	38358.11
572.384	38210.66
572.582	38491.23
572.781	38798.43
572.979	37987.43
573.177	38128.74
573.376	38122.6
573.574	37885.03
573.772	38177.89
573.971	37833.83
574.169	37813.35
574.367	36906.1
574.565	37489.77
574.763	37399.66
574.962	37096.56
575.16	36648.06
575.358	36914.3
575.556	36328.58
575.754	36977.78
575.952	36150.4
576.151	36672.64
576.349	36240.51
576.547	36023.43
576.745	36054.15
576.943	35945.61
577.141	35775.62
577.339	36015.24
577.537	35499.15
577.735	35638.41
577.933	35112.08
578.131	35396.75
578.329	34976.92
578.527	34841.75
578.725	34618.52
578.923	34944.15
579.121	34682.01
579.319	34546.84
579.516	34753.69
579.714	34647.19
579.912	34333.85
580.11	34000.04
580.308	34520.22
580.506	34145.44
580.704	33551.53
580.901	34028.71
581.099	33815.72
581.297	33766.57
581.495	33741.99
581.692	33250.48
581.89	33578.15
582.088	33457.32
582.285	33164.46
582.483	33406.12
582.681	33035.44
582.878	32955.57
583.076	33019.06
583.274	33184.94
583.471	32181.44
583.669	32548.03
583.866	32355.52
584.064	32511.16
584.262	32111.81
584.459	32529.59
584.657	31962.31
584.854	32234.69
585.052	31349.96
585.249	31759.56
585.447	32021.7
585.644	31515.85
585.841	31669.45
586.039	31587.53
586.236	31055.06
586.434	31444.17
586.631	31053.01
586.828	31104.21
587.026	31108.3
587.223	31225.04
587.42	30932.18
587.618	30719.19
587.815	30553.3
588.012	30121.18
588.21	30231.77
588.407	30481.63
588.604	30125.28
588.801	29777.12
588.999	30098.66
589.196	30176.48
589.393	29680.87
589.59	29711.59
589.787	29461.74
589.984	29717.73
590.182	29674.73
590.379	29576.42
590.576	29179.12
590.773	29680.87
590.97	29054.19
591.167	29332.72
591.364	28611.83
591.561	28916.98
591.758	28753.14
591.955	28671.22
592.152	28726.52
592.349	28286.2
592.546	28357.88
592.743	28423.42
592.94	28261.63
593.137	28286.2
593.334	28173.56
593.531	27718.92
593.727	28226.81
593.924	28022.02
594.121	27309.32
594.318	27780.35
594.515	27313.42
594.712	27618.57
594.908	27614.47
595.105	27524.36
595.302	27284.75
595.499	27561.22
595.696	27217.16
595.892	27120.91
596.089	27200.78
596.286	27030.8
596.482	26678.55
596.679	26975.5
596.876	26719.51
597.072	26690.84
597.269	26758.42
597.466	26178.84
597.662	26483.99
597.859	26338.58
598.055	26150.17
598.252	26240.28
598.448	26096.92
598.645	26092.83
598.841	25541.92
599.038	26006.81
599.234	25879.84
599.431	25560.36
599.627	25277.74
599.824	25437.48
600.02	25177.39
600.217	25077.04
600.413	25031.98
600.609	25103.66
600.806	25138.48
601.002	25042.22
601.198	24573.24
601.395	24732.98
601.591	24714.55
601.787	24601.91
601.984	24421.69
602.18	24700.21
602.376	24446.26
602.572	24274.23
602.769	24425.78
602.965	23999.8
603.161	24126.78
603.357	23637.31
603.553	24018.24
603.75	23928.13
603.946	23780.67
604.142	24159.55
604.338	23600.45
604.534	23692.61
604.73	23608.64
604.926	23176.52
605.122	23424.33
605.318	23186.76
605.514	23137.61
605.71	23145.8
605.906	23326.02
606.102	22881.61
606.298	22912.33
606.494	22689.1
606.69	22822.22
606.886	22914.38
607.082	22431.06
607.278	22533.46
607.474	22242.65
607.67	22760.78
607.866	22594.9
608.062	22588.75
608.257	22205.78
608.453	22377.81
608.649	22353.24
608.845	22117.72
609.041	22197.59
609.236	21998.94
609.432	22068.57
609.628	22078.81
609.824	22074.71
610.019	21951.84
610.215	21480.8
610.411	21724.51
610.606	21732.7
610.802	21716.32
610.998	21794.14
611.193	21624.16
611.389	21294.44
611.584	21407.08
611.78	21419.36
611.976	21233
612.171	21255.53
612.367	21212.52
612.562	21204.33
612.758	21052.78
612.953	21112.17
613.149	21114.22
613.344	21032.3
613.539	21433.7
613.735	20809.07
613.93	21017.96
614.126	20827.5
614.321	20829.55
614.517	20821.36
614.712	20673.9
614.907	20497.78
615.103	20745.58
615.298	20387.19
615.493	20790.64
615.688	20391.28
615.884	20854.12
616.079	20141.43
616.274	20434.29
616.47	20387.19
616.665	20190.58
616.86	20036.98
617.055	19912.06
617.25	19985.79
617.445	20266.36
617.641	19604.86
617.836	19873.15
618.031	19758.46
618.226	19989.88
618.421	19660.16
618.616	19815.8
618.811	19766.65
619.006	19727.74
619.201	19326.34
619.396	19561.86
619.591	19121.54
619.786	19279.24
619.981	19060.1
620.176	19230.09
620.371	18738.57
620.566	18969.99
620.761	18904.46
620.956	18781.58
621.151	18591.12
621.346	18509.2
621.541	18349.46
621.735	18507.15
621.93	17986.97
622.125	18367.89
622.32	17827.23
622.515	18159
622.709	18021.78
622.904	18197.91
623.099	17966.49
623.294	17825.18
623.488	17620.38
623.683	17683.87
623.878	17333.67
624.072	17407.39
624.267	17104.29
624.462	17221.03
624.656	17143.21
624.851	16967.08
625.046	16784.81
625.24	16790.95
625.435	16709.04
625.629	16524.72
625.824	16301.49
626.018	16504.24
626.213	16016.82
626.407	16305.59
626.602	15861.18
626.796	16100.79
626.991	15812.03
627.185	16063.93
627.38	15701.44
627.574	15592.89
627.768	15633.85
627.963	15527.36
628.157	15240.64
628.352	15459.77
628.546	15291.84
628.74	15123.91
628.935	15128
629.129	15273.41
629.323	14798.28
629.517	14863.82
629.712	14915.02
629.906	14648.78
630.1	14611.92
630.294	14456.27
630.489	14616.01
630.683	14486.99
630.877	14124.5
631.071	14255.57
631.265	14202.32
631.459	14339.54
631.653	14083.54
631.848	14144.98
632.042	13964.76
632.236	14104.02
632.43	13731.29
632.624	13962.71
632.818	13589.98
633.012	13563.36
633.206	13428.19
633.4	13553.12
633.594	13235.68
633.788	13323.74
633.982	13434.33
634.176	13196.77
634.369	12811.75
634.563	12979.68
634.757	12905.96
634.951	13022.69
635.145	12983.78
635.339	12750.31
635.533	12705.26
635.726	12713.45
635.92	12334.57
636.114	12330.48
636.308	12189.17
636.501	12346.86
636.695	12334.57
636.889	12086.77
637.083	11922.93
637.276	12064.24
637.47	11767.29
637.664	12101.11
637.857	12070.39
638.051	11822.58
638.244	11738.62
638.438	11810.29
638.632	11673.08
638.825	11427.32
639.019	11468.28
639.212	11357.69
639.406	11521.53
639.599	11339.26
639.793	11267.58
639.986	11212.29
640.18	11214.34
640.373	11103.75
640.567	10733.06
640.76	10956.29
640.954	10927.62
641.147	10931.72
641.34	10913.28
641.534	10814.98
641.727	10614.28
641.92	10743.3
642.114	10499.59
642.307	10524.17
642.5	10542.6
642.694	10298.89
642.887	10397.2
643.08	10542.6
643.273	10247.69
643.467	10202.64
643.66	10028.56
643.853	10051.09
644.046	9731.61
644.239	9963.03
644.432	9983.51
644.626	9733.65
644.819	9668.12
645.012	9905.68
645.205	9934.36
645.398	9786.9
645.591	9762.33
645.784	9616.92
645.977	9322.01
646.17	9451.03
646.363	9385.5
646.556	9328.16
646.749	9143.84
646.942	9293.34
647.135	9082.4
647.328	9293.34
647.521	9283.1
647.714	8783.4
647.907	9020.96
648.099	9123.36
648.292	9113.12
648.485	8816.16
648.678	8779.3
648.871	8918.56
649.064	8754.73
649.256	8814.12
649.449	8590.89
649.642	8644.13
649.835	8721.96
650.027	8554.02
650.22	8562.22
650.413	8535.59
650.605	8459.82
650.798	8355.37
650.991	8087.09
651.183	8402.47
651.376	8097.33
651.568	8156.72
651.761	7931.44
651.954	8234.54
652.146	8103.47
652.339	7902.77
652.531	8091.18
652.724	7904.82
652.916	7845.43
653.109	7710.26
653.301	7896.63
653.494	7677.49
653.686	7648.82
653.879	7761.46
654.071	7654.97
654.263	7663.16
654.456	7556.66
654.648	7706.17
654.84	7444.03
655.033	7525.94
655.225	7530.04
655.417	7474.74
655.61	7650.87
655.802	7538.23
655.994	7243.32
656.186	7345.72
656.379	7161.41
656.571	7003.71
656.763	7116.35
656.955	7097.92
657.148	7169.6
657.34	7050.82
657.532	7001.66
657.724	6977.09
657.916	7108.16
658.108	6934.08
658.3	6964.8
658.492	6821.44
658.684	6700.61
658.876	6807.11
659.068	6800.96
659.26	6719.04
659.452	6649.41
659.644	6649.41
659.836	6604.36
660.028	6690.37
660.22	6608.45
660.412	6581.83
660.604	6559.3
660.796	6651.46
660.988	6385.23
661.18	6438.47
661.372	6477.38
661.563	6499.91
661.755	6401.61
661.947	6424.14
662.139	6248.01
662.331	6366.79
662.522	6223.44
662.714	6211.15
662.906	6237.77
663.097	6155.85
663.289	6149.71
663.481	5983.82
663.673	5965.39
663.864	5994.06
664.056	5846.61
664.247	6157.9
664.439	5932.62
664.631	6030.93
664.822	5930.58
665.014	5981.78
665.205	5987.92
665.397	5797.46
665.588	5826.13
665.78	5834.32
665.971	5922.38
666.163	5877.33
666.354	5852.75
666.546	5791.31
666.737	5713.49
666.929	5776.98
667.12	5756.5
667.311	5926.48
667.503	5658.2
667.694	5658.2
667.885	5596.76
668.077	5674.58
668.268	5658.2
668.459	5563.99
668.651	5690.96
668.842	5518.93
669.033	5576.28
669.224	5402.2
669.416	5594.71
669.607	5543.51
669.798	5469.78
669.989	5434.97
670.18	5645.91
670.371	5586.52
670.563	5412.44
670.754	5445.21
670.945	5447.26
671.136	5531.22
671.327	5465.69
671.518	5500.5
671.709	5568.09
671.9	5600.85
672.091	5387.86
672.282	5353.05
672.473	5295.71
672.664	5496.41
672.855	5340.76
673.046	5385.82
673.237	5400.15
673.428	5471.83
673.619	5506.65
673.809	5414.49
674	5418.58
674.191	5424.73
674.382	5258.84
674.573	5406.3
674.764	5418.58
674.954	5518.93
675.145	5559.89
675.336	5394.01
675.527	5340.76
675.717	5512.79
675.908	5408.34
676.099	5531.22
676.289	5336.67
676.48	5420.63
676.671	5330.52
676.861	5572.18
677.052	5373.53
677.243	5344.86
677.433	5488.21
677.624	5451.35
677.814	5377.62
678.005	5447.26
678.195	5353.05
678.386	5461.59
678.576	5453.4
678.767	5492.31
678.957	5447.26
679.148	5510.74
679.338	5385.82
679.529	5588.57
679.719	5514.84
679.909	5592.66
680.1	5439.06
680.29	5566.04
680.481	5572.18
680.671	5539.41
680.861	5508.69
681.052	5629.52
681.242	5498.45
681.432	5547.61
681.622	5623.38
681.813	5600.85
682.003	5451.35
682.193	5576.28
682.383	5561.94
682.573	5543.51
682.764	5514.84
682.954	5688.92
683.144	5539.41
683.334	5686.87
683.524	5549.65
683.714	5725.78
683.904	5793.36
684.094	5789.27
684.284	5602.9
684.474	5887.57
684.664	5695.06
684.854	5623.38
685.044	5625.43
685.234	5412.44
685.424	5621.33
685.614	5443.16
685.804	5557.85
685.994	5394.01
686.184	5781.07
686.374	5553.75
686.564	5363.29
686.753	5518.93
686.943	5480.02
687.133	5459.54
687.323	5498.45
687.513	5414.49
687.702	5445.21
687.892	5541.46
688.082	5215.84
688.272	5295.71
688.461	5238.36
688.651	5459.54
688.841	5178.97
689.03	5156.44
689.22	5090.91
689.41	5252.7
689.599	5064.29
689.789	5148.25
689.979	5221.98
690.168	5088.86
690.358	5029.47
690.547	5129.82
690.737	4943.46
690.926	5076.57
691.116	5008.99
691.305	5121.63
691.495	4886.11
691.684	4925.02
691.874	4771.43
692.063	4738.66
692.252	4728.42
692.442	4683.36
692.631	4732.51
692.82	4853.34
693.01	4736.61
693.199	4552.29
693.388	4583.01
693.578	4642.4
693.767	4679.27
693.956	4499.05
694.146	4642.4
694.335	4376.17
694.524	4402.79
694.713	4453.99
694.902	4441.7
695.092	4288.11
695.281	4327.02
695.47	4380.26
695.659	4413.03
695.848	4417.13
696.037	4339.3
696.226	4357.74
696.415	4361.83
696.604	4533.86
696.793	4275.82
696.982	4304.49
697.171	4318.82
697.36	4265.58
697.549	4355.69
697.738	4298.35
697.927	4116.08
698.116	4363.88
698.305	4210.28
698.494	4150.89
698.683	4189.8
698.872	4267.63
699.061	4212.33
699.25	4138.6
699.438	4142.7
699.627	4243.05
699.816	4339.3
700.005	4093.55
700.193	3966.57
700.382	4232.81
700.571	4165.23
700.76	4124.27
700.948	4257.39
701.137	4243.05
701.326	4167.28
701.514	4175.47
701.703	4150.89
701.892	4220.52
702.08	4171.37
702.269	4214.38
702.457	4099.69
702.646	4228.71
702.834	4038.25
703.023	4111.98
703.212	4154.99
703.4	4138.6
703.589	4105.84
703.777	4148.84
703.965	4169.32
704.154	4208.23
704.342	4195.95
704.531	4144.75
704.719	4175.47
704.907	4122.22
705.096	4154.99
705.284	4097.64
705.472	4265.58
705.661	4210.28
705.849	4269.67
706.037	4281.96
706.226	4167.28
706.414	4206.19
706.602	4163.18
706.79	4271.72
706.979	4193.9
707.167	4290.15
707.355	4392.55
707.543	4202.09
707.731	4372.07
707.919	4314.73
708.107	4263.53
708.296	4386.41
708.484	4259.43
708.672	4367.98
708.86	4345.45
709.048	4413.03
709.236	4349.54
709.424	4392.55
709.612	4535.91
709.8	4425.32
709.988	4396.65
710.176	4419.18
710.364	4316.78
710.551	4333.16
710.739	4478.57
710.927	4419.18
711.115	4443.75
711.303	4589.16
711.491	4519.53
711.679	4556.39
711.866	4564.58
712.054	4623.97
712.242	4570.72
712.43	4601.44
712.617	4789.86
712.805	4640.36
712.993	4679.27
713.181	4546.15
713.368	4660.84
713.556	4576.87
713.744	4664.93
713.931	4849.25
714.119	4779.62
714.306	4859.49
714.494	4734.56
714.682	4605.54
714.869	4691.56
715.057	4740.71
715.244	4802.15
715.432	4767.33
715.619	4777.57
715.807	4746.85
715.994	4953.7
716.182	4961.89
716.369	4773.47
716.556	5013.09
716.744	4990.56
716.931	4798.05
717.119	4972.13
717.306	5052
717.493	5054.05
717.681	5025.37
717.868	5058.14
718.055	5221.98
718.242	5002.85
718.43	4976.22
718.617	5205.6
718.804	5195.36
718.991	5111.39
719.179	5207.64
719.366	5142.11
719.553	5242.46
719.74	5146.2
719.927	5238.36
720.114	5150.3
720.301	5248.6
720.488	5138.01
720.676	5301.85
720.863	5445.21
721.05	5248.6
721.237	5244.51
721.424	5426.78
721.611	5369.43
721.798	5279.32
721.985	5273.18
722.172	5303.9
722.358	5539.41
722.545	5377.62
722.732	5404.25
722.919	5471.83
723.106	5412.44
723.293	5396.06
723.48	5404.25
723.667	5414.49
723.853	5502.55
724.04	5682.77
724.227	5650
724.414	5498.45
724.6	5551.7
724.787	5586.52
724.974	5631.57
725.161	5625.43
725.347	5408.34
725.534	5883.47
725.72	5647.96
725.907	5762.64
726.094	5817.94
726.28	5682.77
726.467	5656.15
726.653	5721.68
726.84	5633.62
727.027	5828.18
727.213	5570.13
727.4	5852.75
727.586	5731.92
727.773	5901.9
727.959	5803.6
728.145	5871.19
728.332	5813.84
728.518	5883.47
728.705	5977.68
728.891	5891.66
729.077	5916.24
729.264	6125.13
729.45	5842.51
729.636	6028.88
729.823	6016.59
730.009	6073.93
730.195	5961.3
730.382	6010.45
730.568	6024.78
730.754	6080.08
730.94	6002.26
731.126	6010.45
731.313	6268.49
731.499	6069.84
731.685	6305.35
731.871	6049.36
732.057	6006.35
732.243	6213.2
732.429	6075.98
732.615	6172.24
732.801	6092.37
732.987	6155.85
733.173	6157.9
733.359	6219.34
733.545	5942.86
733.731	6000.21
733.917	6075.98
734.103	6155.85
734.289	6217.29
734.475	5967.44
734.661	6248.01
734.847	6194.76
735.033	6374.99
735.219	6272.59
735.404	6145.61
735.59	6164.04
735.776	6032.97
735.962	6223.44
736.148	6155.85
736.333	6235.72
736.519	6194.76
736.705	6172.24
736.89	6166.09
737.076	6164.04
737.262	6231.63
737.447	6256.2
737.633	6266.44
737.819	6094.41
738.004	6139.47
738.19	6172.24
738.375	6143.56
738.561	6272.59
738.747	5924.43
738.932	6166.09
739.118	6198.86
739.303	6037.07
739.489	6196.81
739.674	6075.98
739.859	6075.98
740.045	6100.56
740.23	6067.79
740.416	5971.54
740.601	6329.93
740.786	5944.91
740.972	5973.58
741.157	6043.21
741.342	6133.33
741.528	6092.37
741.713	5961.3
741.898	6026.83
742.084	5922.38
742.269	5912.14
742.454	5836.37
742.639	6063.69
742.824	5822.03
743.01	5908.05
743.195	5901.9
743.38	5875.28
743.565	5643.86
743.75	5727.83
743.935	5791.31
744.12	5666.39
744.305	5846.61
744.49	5781.07
744.675	5652.05
744.86	5774.93
745.045	5658.2
745.23	5678.68
745.415	5592.66
745.6	5582.42
745.785	5424.73
745.97	5625.43
746.155	5400.15
746.34	5465.69
746.525	5324.38
746.71	5551.7
746.895	5346.91
747.079	5342.81
747.264	5344.86
747.449	5269.08
747.634	5330.52
747.819	5301.85
748.003	5191.26
748.188	5150.3
748.373	5076.57
748.557	5230.17
748.742	4931.17
748.927	4953.7
749.111	5097.05
749.296	4984.41
749.481	4877.92
749.665	4953.7
749.85	4763.23
750.034	4927.07
750.219	4845.15
750.404	4722.27
750.588	4642.4
750.773	4669.03
750.957	4621.92
751.141	4671.08
751.326	4593.25
751.51	4681.32
751.695	4603.49
751.879	4630.12
752.064	4542.05
752.248	4474.47
752.432	4548.2
752.617	4402.79
752.801	4435.56
752.985	4388.46
753.17	4365.93
753.354	4429.42
753.538	4308.58
753.722	4154.99
753.907	4050.54
754.091	4159.08
754.275	4048.49
754.459	4040.3
754.643	3978.86
754.828	4038.25
755.012	3999.34
755.196	3868.27
755.38	3882.61
755.564	3925.61
755.748	3919.47
755.932	3905.14
756.116	3921.52
756.3	3845.74
756.484	3745.39
756.668	3761.78
756.852	3690.1
757.036	3452.53
757.22	3606.13
757.404	3776.11
757.588	3690.1
757.772	3544.69
757.956	3413.62
758.14	3640.95
758.323	3470.97
758.507	3380.86
758.691	3456.63
758.875	3415.67
759.059	3319.42
759.242	3372.66
759.426	3331.7
759.61	3329.66
759.794	3374.71
759.977	3321.46
760.161	3296.89
760.345	3296.89
760.528	3284.6
760.712	3225.21
760.895	3161.72
761.079	3147.39
761.263	3077.76
761.446	3020.41
761.63	3110.52
761.813	3083.9
761.997	3196.54
762.18	2926.21
762.364	3180.15
762.547	3024.51
762.731	2881.15
762.914	3053.18
763.098	2854.53
763.281	2926.21
763.464	2991.74
763.648	2918.01
763.831	2795.14
764.015	2864.77
764.198	2879.1
764.381	2836.1
764.564	2825.86
764.748	2823.81
764.931	2864.77
765.114	2782.85
765.297	2762.37
765.481	2739.84
765.664	2643.59
765.847	2655.87
766.03	2709.12
766.213	2758.27
766.397	2698.88
766.58	2578.05
766.763	2664.07
766.946	2625.15
767.129	2590.34
767.312	2514.56
767.495	2588.29
767.678	2471.56
767.861	2506.37
768.044	2610.82
768.227	2586.24
768.41	2563.72
768.593	2553.48
768.776	2489.99
768.959	2455.17
769.142	2571.91
769.324	2401.93
769.507	2406.02
769.69	2471.56
769.873	2477.7
770.056	2498.18
770.239	2387.59
770.421	2324.1
770.604	2379.4
770.787	2369.16
770.97	2367.11
771.152	2348.68
771.335	2373.25
771.518	2291.34
771.7	2324.1
771.883	2307.72
772.066	2360.97
772.248	2258.57
772.431	2317.96
772.613	2215.56
772.796	2274.95
772.978	2254.47
773.161	2119.31
773.343	2066.06
773.526	2213.51
773.708	2133.64
773.891	2033.29
774.073	2041.48
774.256	2053.77
774.438	2180.75
774.621	2043.53
774.803	1930.89
774.985	1984.14
775.168	1984.14
775.35	1955.47
775.532	1953.42
775.715	1828.49
775.897	1865.36
776.079	1816.21
776.261	1986.19
776.444	1943.18
776.626	1920.65
776.808	1889.93
776.99	1799.82
777.173	1816.21
777.355	1771.15
777.537	1775.25
777.719	1691.28
777.901	1750.67
778.083	1781.39
778.265	1808.02
778.447	1713.81
778.629	1619.6
778.811	1627.79
778.993	1709.71
779.175	1631.89
779.357	1619.6
779.539	1613.46
779.721	1623.7
779.903	1545.88
780.085	1570.45
780.267	1533.59
780.449	1513.11
780.631	1543.83
780.812	1509.01
780.994	1392.28
781.176	1570.45
781.358	1468.05
781.54	1439.38
781.721	1431.19
781.903	1468.05
782.085	1363.61
782.267	1474.2
782.448	1369.75
782.63	1359.51
782.812	1355.41
782.993	1263.26
783.175	1306.26
783.357	1255.06
783.538	1287.83
783.72	1353.37
783.901	1345.17
784.083	1343.13
784.264	1228.44
784.446	1265.3
784.627	1201.82
784.809	1283.74
784.99	1216.15
785.172	1287.83
785.353	1181.34
785.535	1234.58
785.716	1187.48
785.897	1140.38
786.079	1201.82
786.26	1158.81
786.441	1136.28
786.623	1068.7
786.804	1023.64
786.985	1140.38
787.167	1060.51
787.348	1103.51
787.529	1068.7
787.71	1242.78
787.891	1017.5
788.073	1050.27
788.254	1058.46
788.435	1074.84
788.616	1050.27
788.797	1013.4
788.978	927.39
789.159	997.02
789.34	1017.5
789.522	1021.6
789.703	978.59
789.884	1011.36
790.065	931.48
790.246	1021.6
790.427	1005.21
790.607	1023.64
790.788	1017.5
790.969	843.42
791.15	865.95
791.331	943.77
791.512	923.29
791.693	843.42
791.874	898.72
792.054	861.85
792.235	888.48
792.416	790.17
792.597	824.99
792.778	886.43
792.958	929.44
793.139	781.98
793.32	796.32
793.5	784.03
793.681	859.81
793.862	833.18
794.042	962.2
794.223	775.84
794.404	663.2
794.584	767.65
794.765	765.6
794.945	808.61
795.126	779.93
795.306	814.75
795.487	829.09
795.667	741.02
795.848	786.08
796.028	734.88
796.209	734.88
796.389	743.07
796.57	710.3
796.75	712.35
796.93	732.83
797.111	657.06
797.291	640.67
797.471	679.58
797.652	693.92
797.832	702.11
798.012	716.45
798.192	659.1
798.373	710.3
798.553	700.06
798.733	677.54
798.913	640.67
799.093	661.15
799.274	640.67
799.454	681.63
799.634	679.58
799.814	712.35
799.994	659.1
800.174	605.86
800.354	738.98
800.534	577.19
800.714	612
800.894	642.72
801.074	609.95
801.254	575.14
801.434	669.34
801.614	624.29
801.794	593.57
801.974	1332.89
802.154	675.49
802.334	616.1
802.514	519.84
802.693	640.67
802.873	634.53
803.053	614.05
803.233	542.37
803.413	571.04
803.592	571.04
803.772	497.32
803.952	663.2
804.131	505.51
804.311	566.95
804.491	685.73
804.67	530.08
804.85	487.08
805.03	521.89
805.209	550.56
805.389	476.84
805.568	538.27
805.748	538.27
805.928	511.65
806.107	534.18
806.287	511.65
806.466	540.32
806.646	423.59
806.825	505.51
807.004	544.42
807.184	517.79
807.363	546.47
807.543	446.12
807.722	448.16
807.901	575.14
808.081	577.19
808.26	536.23
808.439	458.4
808.619	450.21
808.798	495.27
808.977	431.78
809.156	523.94
809.336	433.83
809.515	503.46
809.694	472.74
809.873	478.88
810.052	382.63
810.231	517.79
810.411	431.78
810.59	509.6
810.769	497.32
810.948	519.84
811.127	364.2
811.306	456.36
811.485	399.01
811.664	470.69
811.843	407.2
812.022	423.59
812.201	456.36
812.38	415.4
812.559	427.68
812.737	392.87
812.916	327.33
813.095	429.73
813.274	399.01
813.453	384.68
813.632	413.35
813.811	380.58
813.989	347.81
814.168	405.16
814.347	337.57
814.526	370.34
814.704	427.68
814.883	360.1
815.062	399.01
815.24	372.39
815.419	343.72
815.598	337.57
815.776	292.52
815.955	407.2
816.133	284.33
816.312	394.92
816.49	315.05
816.669	421.54
816.847	313
817.026	364.2
817.204	333.48
817.383	390.82
817.561	300.71
817.74	358.05
817.918	282.28
818.097	298.66
818.275	317.09
818.453	349.86
818.632	218.79
818.81	331.43
818.988	222.89
819.167	325.29
819.345	364.2
819.523	323.24
819.701	392.87
819.879	263.85
820.058	333.48
820.236	335.53
820.414	255.65
820.592	280.23
820.77	290.47
820.948	290.47
821.127	292.52
821.305	284.33
821.483	284.33
821.661	243.37
821.839	276.13
822.017	288.42
822.195	265.89
822.373	368.29
822.551	308.9
822.729	323.24
822.907	259.75
823.085	278.18
823.262	265.89
823.44	226.98
823.618	241.32
823.796	257.7
823.974	243.37
824.152	229.03
824.329	267.94
824.507	210.6
824.685	300.71
824.863	163.5
825.04	216.74
825.218	321.19
825.396	276.13
825.574	243.37
825.751	247.46
825.929	321.19
826.107	259.75
826.284	208.55
826.462	272.04
826.639	263.85
826.817	243.37
826.994	157.35
827.172	128.68
827.349	251.56
827.527	210.6
827.704	218.79
827.882	282.28
828.059	214.7
828.237	288.42
828.414	300.71
828.591	212.65
828.769	325.29
828.946	159.4
829.124	282.28
829.301	329.38
829.478	177.83
829.655	183.98
829.833	257.7
830.01	210.6
830.187	206.5
830.364	208.55
830.542	224.94
830.719	315.05
830.896	212.65
831.073	247.46
831.25	231.08
831.427	196.26
831.604	239.27
831.782	202.41
831.959	243.37
832.136	269.99
832.313	255.65
832.49	169.64
832.667	196.26
832.844	183.98
833.021	265.89
833.198	200.36
833.374	181.93
833.551	356.01
833.728	169.64
833.905	210.6
834.082	163.5
834.259	161.45
834.436	206.5
834.612	77.48
834.789	220.84
834.966	198.31
835.143	229.03
835.319	169.64
835.496	226.98
835.673	112.3
835.85	231.08
836.026	200.36
836.203	226.98
836.38	194.22
836.556	124.58
836.733	159.4
836.909	157.35
837.086	202.41
837.262	77.48
837.439	218.79
837.616	159.4
837.792	210.6
837.968	126.63
838.145	118.44
838.321	167.59
838.498	132.78
838.674	196.26
838.851	120.49
839.027	157.35
839.203	128.68
839.38	188.07
839.556	190.12
839.732	153.26
839.909	161.45
840.085	206.5
840.261	134.82
840.437	183.98
840.614	151.21
840.79	167.59
840.966	231.08
841.142	112.3
841.318	143.02
841.494	216.74
841.671	167.59
841.847	67.24
842.023	85.67
842.199	186.02
842.375	161.45
842.551	132.78
842.727	104.11
842.903	186.02
843.079	124.58
843.255	149.16
843.431	177.83
843.607	108.2
843.783	118.44
843.959	149.16
844.134	149.16
844.31	249.51
844.486	108.2
844.662	114.34
844.838	114.34
845.013	169.64
845.189	120.49
845.365	147.11
845.541	104.11
845.716	145.06
845.892	120.49
846.068	59.05
846.244	124.58
846.419	181.93
846.595	102.06
846.77	87.72
846.946	116.39
847.122	157.35
847.297	81.58
847.473	155.3
847.648	140.97
847.824	77.48
847.999	38.57
848.175	194.22
848.35	79.53
848.526	93.87
848.701	69.29
848.876	196.26
849.052	136.87
849.227	104.11
849.403	87.72
849.578	73.39
849.753	134.82
849.929	91.82
850.104	85.67
850.279	85.67
850.454	89.77
850.63	77.48
850.805	120.49
850.98	161.45
851.155	57
851.33	112.3
851.505	59.05
851.681	153.26
851.856	153.26
852.031	128.68
852.206	87.72
852.381	52.91
852.556	67.24
852.731	118.44
852.906	28.33
853.081	95.91
853.256	128.68
853.431	67.24
853.606	63.15
853.781	61.1
853.956	34.47
854.131	28.33
854.305	54.95
854.48	79.53
854.655	128.68
854.83	81.58
855.005	77.48
855.18	102.06
855.354	110.25
855.529	42.67
855.704	11.95
855.879	151.21
856.053	57
856.228	91.82
856.403	24.23
856.577	112.3
856.752	9.9
856.926	38.57
857.101	169.64
857.276	97.96
857.45	71.34
857.625	95.91
857.799	63.15
857.974	83.63
858.148	50.86
858.323	40.62
858.497	52.91
858.672	13.99
858.846	52.91
859.02	63.15
859.195	28.33
859.369	85.67
859.543	32.43
859.718	52.91
859.892	18.09
860.066	112.3
860.241	93.87
860.415	54.95
860.589	57
860.763	-10.58
860.938	124.58
861.112	83.63
861.286	87.72
861.46	95.91
861.634	120.49
861.808	50.86
861.982	54.95
862.157	83.63
862.331	75.43
862.505	59.05
862.679	54.95
862.853	30.38
863.027	30.38
863.201	52.91
863.375	30.38
863.549	50.86
863.722	102.06
863.896	40.62
864.07	22.19
864.244	32.43
864.418	104.11
864.592	-31.06
864.766	120.49
864.939	36.52
865.113	122.54
865.287	83.63
865.461	42.67
865.634	112.3
865.808	22.19
865.982	-41.3
866.156	-4.44
866.329	-16.73
866.503	71.34
866.676	65.19
866.85	46.76
867.024	95.91
867.197	61.1
867.371	87.72
867.544	50.86
867.718	-49.49
867.891	46.76
868.065	3.75
868.238	59.05
868.412	91.82
868.585	143.02
868.759	46.76
868.932	9.9
869.105	7.85
869.279	30.38
869.452	79.53
869.625	42.67
869.799	-47.44
869.972	69.29
870.145	28.33
870.319	50.86
870.492	28.33
870.665	46.76
870.838	13.99
871.011	-10.58
871.185	67.24
871.358	59.05
871.531	95.91
871.704	-18.77
871.877	-29.01
872.05	-33.11
872.223	-26.96
872.396	28.33
872.569	65.19
872.742	-14.68
872.915	18.09
873.088	5.8
873.261	-98.64
873.434	100.01
873.607	81.58
873.78	67.24
873.953	-26.96
874.126	71.34
874.299	28.33
874.471	30.38
874.644	30.38
874.817	50.86
874.99	48.81
875.163	-80.21
875.335	-10.58
875.508	-43.35
875.681	108.2
875.853	-6.49
876.026	69.29
876.199	83.63
876.371	61.1
876.544	40.62
876.717	91.82
876.889	-29.01
877.062	116.39
877.234	-2.39
877.407	1.71
877.579	42.67
877.752	3.75
877.924	67.24
878.097	7.85
878.269	79.53
878.442	46.76
878.614	124.58
878.786	28.33
878.959	52.91
879.131	77.48
879.303	-10.58
879.476	-26.96
879.648	-10.58
879.82	38.57
879.993	50.86
880.165	-51.54
880.337	3.75
880.509	26.28
880.681	34.47
880.854	22.19
881.026	20.14
881.198	97.96
881.37	-10.58
881.542	32.43
881.714	28.33
881.886	24.23
882.058	11.95
882.23	104.11
882.402	-12.63
882.574	5.8
882.746	20.14
882.918	54.95
883.09	71.34
883.262	-69.97
883.434	-14.68
883.606	-53.59
883.778	-26.96
883.95	151.21
884.122	46.76
884.293	71.34
884.465	30.38
884.637	-16.73
884.809	-20.82
884.98	-6.49
885.152	26.28
885.324	-59.73
885.496	18.09
885.667	22.19
885.839	-39.25
886.011	59.05
886.182	-35.16
886.354	9.9
886.525	11.95
886.697	69.29
886.869	77.48
887.04	38.57
887.212	40.62
887.383	22.19
887.555	-6.49
887.726	42.67
887.897	-37.2
888.069	-39.25
888.24	24.23
888.412	30.38
888.583	-12.63
888.754	26.28
888.926	-84.31
889.097	54.95
889.268	22.19
889.44	-14.68
889.611	-45.4
889.782	-96.6
889.953	9.9
890.125	77.48
890.296	-8.53
890.467	102.06
890.638	-14.68
890.809	36.52
890.98	-26.96
891.151	87.72
891.323	24.23
891.494	48.81
891.665	-2.39
891.836	-18.77
892.007	54.95
892.178	-16.73
892.349	9.9
892.52	-39.25
892.691	-20.82
892.862	-8.53
893.032	26.28
893.203	-8.53
893.374	-4.44
893.545	118.44
893.716	32.43
893.887	44.71
894.057	-2.39
894.228	-37.2
894.399	30.38
894.57	69.29
894.74	46.76
894.911	-2.39
895.082	3.75
895.253	-51.54
895.423	30.38
895.594	5.8
895.764	77.48
895.935	3.75
896.106	22.19
896.276	-39.25
896.447	-59.73
896.617	28.33
896.788	1.71
896.958	-63.83
897.129	69.29
897.299	63.15
897.47	46.76
897.64	52.91
897.81	-26.96
897.981	-39.25
898.151	5.8
898.322	-45.4
898.492	44.71
898.662	-51.54
898.832	-26.96
899.003	-4.44
899.173	48.81
899.343	5.8
899.513	3.75
