Data from USB4F104151__21__11-29-54-116.txt Node

Date: Fri Mar 14 11:29:54 EDT 2025
User: louis
Spectrometer: USB4F10415
Trigger mode: 4
Integration Time (sec): 5.000000E-2
Scans to average: 1
Electric dark correction enabled: true
Nonlinearity correction enabled: false
Boxcar width: 0
XAxis mode: Wavelengths
Number of Pixels in Spectrum: 3648
>>>>>Begin Spectral Data<<<<<
178.204	-58.88
178.424	-58.88
178.644	-58.88
178.864	-132.61
179.084	-224.76
179.304	14.85
179.524	-36.35
179.744	-9.73
179.964	64
180.184	-46.59
180.404	-22.02
180.624	23.04
180.844	18.94
181.064	4.61
181.283	18.94
181.503	-11.78
181.723	-17.92
181.943	-124.41
182.163	109.05
182.383	-17.92
182.602	27.14
182.822	59.9
183.042	14.85
183.262	6.66
183.482	80.38
183.701	-7.68
183.921	43.52
184.141	-17.92
184.361	78.33
184.58	55.81
184.8	12.8
185.02	39.42
185.239	96.77
185.459	53.76
185.679	111.1
185.898	-5.63
186.118	109.05
186.338	-9.73
186.557	-13.82
186.777	-19.97
186.997	31.23
187.216	16.9
187.436	70.14
187.655	37.38
187.875	141.82
188.095	37.38
188.314	76.29
188.534	18.94
188.753	41.47
188.973	96.77
189.192	94.72
189.412	27.14
189.631	37.38
189.851	-26.11
190.07	70.14
190.29	-7.68
190.509	61.95
190.729	-67.07
190.948	39.42
191.168	158.21
191.387	59.9
191.607	-44.54
191.826	12.8
192.045	-30.21
192.265	8.7
192.484	-9.73
192.704	16.9
192.923	-60.93
193.142	135.68
193.362	14.85
193.581	109.05
193.8	135.68
194.02	57.86
194.239	-58.88
194.458	35.33
194.678	31.23
194.897	12.8
195.116	31.23
195.335	-11.78
195.555	41.47
195.774	35.33
195.993	27.14
196.212	-22.02
196.432	49.66
196.651	-34.3
196.87	29.18
197.089	162.3
197.308	133.63
197.528	-3.58
197.747	27.14
197.966	43.52
198.185	64
198.404	-36.35
198.623	92.67
198.842	31.23
199.062	-17.92
199.281	12.8
199.5	102.91
199.719	-28.16
199.938	92.67
200.157	55.81
200.376	72.19
200.595	27.14
200.814	64
201.033	18.94
201.252	35.33
201.471	-9.73
201.69	72.19
201.909	18.94
202.128	61.95
202.347	80.38
202.566	-1.54
202.785	18.94
203.004	-1.54
203.223	121.34
203.442	51.71
203.661	-30.21
203.879	82.43
204.098	-9.73
204.317	23.04
204.536	82.43
204.755	-30.21
204.974	51.71
205.193	76.29
205.411	154.11
205.63	6.66
205.849	0.51
206.068	31.23
206.287	47.62
206.505	12.8
206.724	-9.73
206.943	45.57
207.162	33.28
207.381	35.33
207.599	-22.02
207.818	-1.54
208.037	16.9
208.255	80.38
208.474	61.95
208.693	111.1
208.911	47.62
209.13	14.85
209.349	45.57
209.567	70.14
209.786	61.95
210.005	86.53
210.223	10.75
210.442	-44.54
210.661	-3.58
210.879	92.67
211.098	35.33
211.316	-9.73
211.535	-13.82
211.753	6.66
211.972	39.42
212.191	88.57
212.409	113.15
212.628	39.42
212.846	47.62
213.065	-1.54
213.283	76.29
213.502	-7.68
213.72	57.86
213.938	72.19
214.157	6.66
214.375	104.96
214.594	-34.3
214.812	131.58
215.031	20.99
215.249	53.76
215.467	27.14
215.686	20.99
215.904	45.57
216.122	23.04
216.341	61.95
216.559	39.42
216.778	92.67
216.996	29.18
217.214	20.99
217.432	12.8
217.651	47.62
217.869	31.23
218.087	55.81
218.306	6.66
218.524	102.91
218.742	-5.63
218.96	39.42
219.179	27.14
219.397	18.94
219.615	109.05
219.833	64
220.051	-1.54
220.27	137.73
220.488	-17.92
220.706	104.96
220.924	18.94
221.142	8.7
221.36	6.66
221.578	10.75
221.796	2.56
222.015	55.81
222.233	-13.82
222.451	37.38
222.669	33.28
222.887	45.57
223.105	64
223.323	20.99
223.541	31.23
223.759	37.38
223.977	39.42
224.195	141.82
224.413	18.94
224.631	37.38
224.849	51.71
225.067	96.77
225.285	-48.64
225.503	47.62
225.721	-17.92
225.939	31.23
226.157	10.75
226.375	145.92
226.592	80.38
226.81	43.52
227.028	152.06
227.246	137.73
227.464	39.42
227.682	23.04
227.9	4.61
228.117	61.95
228.335	55.81
228.553	14.85
228.771	80.38
228.989	-9.73
229.206	37.38
229.424	80.38
229.642	29.18
229.86	23.04
230.077	113.15
230.295	2.56
230.513	123.39
230.731	72.19
230.948	113.15
231.166	59.9
231.384	47.62
231.601	-60.93
231.819	27.14
232.037	-11.78
232.254	-83.45
232.472	39.42
232.689	-1.54
232.907	68.09
233.125	76.29
233.342	57.86
233.56	10.75
233.777	55.81
233.995	-5.63
234.213	68.09
234.43	31.23
234.648	70.14
234.865	-26.11
235.083	53.76
235.3	-1.54
235.518	100.86
235.735	27.14
235.953	68.09
236.17	-1.54
236.388	113.15
236.605	23.04
236.822	-50.69
237.04	117.25
237.257	31.23
237.475	29.18
237.692	14.85
237.909	64
238.127	55.81
238.344	6.66
238.562	61.95
238.779	-46.59
238.996	-1.54
239.214	16.9
239.431	92.67
239.648	-1.54
239.865	-3.58
240.083	39.42
240.3	61.95
240.517	6.66
240.735	68.09
240.952	6.66
241.169	64
241.386	47.62
241.603	31.23
241.821	23.04
242.038	55.81
242.255	80.38
242.472	23.04
242.689	76.29
242.907	8.7
243.124	-3.58
243.341	66.05
243.558	47.62
243.775	14.85
243.992	-24.06
244.209	74.24
244.426	104.96
244.643	109.05
244.86	-28.16
245.078	-17.92
245.295	70.14
245.512	135.68
245.729	-9.73
245.946	-1.54
246.163	35.33
246.38	23.04
246.597	78.33
246.814	-24.06
247.031	23.04
247.248	47.62
247.464	59.9
247.681	55.81
247.898	23.04
248.115	94.72
248.332	47.62
248.549	154.11
248.766	39.42
248.983	35.33
249.2	49.66
249.417	88.57
249.633	0.51
249.85	45.57
250.067	64
250.284	47.62
250.501	-19.97
250.717	31.23
250.934	14.85
251.151	43.52
251.368	27.14
251.585	18.94
251.801	41.47
252.018	-15.87
252.235	94.72
252.451	-3.58
252.668	57.86
252.885	68.09
253.102	64
253.318	-9.73
253.535	47.62
253.752	-38.4
253.968	0.51
254.185	47.62
254.401	111.1
254.618	47.62
254.835	10.75
255.051	88.57
255.268	70.14
255.484	51.71
255.701	53.76
255.917	59.9
256.134	37.38
256.351	-44.54
256.567	39.42
256.784	31.23
257	53.76
257.217	80.38
257.433	84.48
257.65	23.04
257.866	39.42
258.082	31.23
258.299	6.66
258.515	18.94
258.732	-5.63
258.948	29.18
259.165	78.33
259.381	6.66
259.597	23.04
259.814	51.71
260.03	96.77
260.246	74.24
260.463	86.53
260.679	45.57
260.895	-13.82
261.112	100.86
261.328	31.23
261.544	12.8
261.761	180.73
261.977	16.9
262.193	45.57
262.409	104.96
262.626	31.23
262.842	31.23
263.058	88.57
263.274	57.86
263.49	133.63
263.707	23.04
263.923	88.57
264.139	16.9
264.355	20.99
264.571	72.19
264.787	23.04
265.004	96.77
265.22	4.61
265.436	8.7
265.652	80.38
265.868	47.62
266.084	-48.64
266.3	23.04
266.516	49.66
266.732	70.14
266.948	39.42
267.164	-7.68
267.38	47.62
267.596	57.86
267.812	80.38
268.028	-1.54
268.244	-46.59
268.46	-26.11
268.676	29.18
268.892	33.28
269.108	33.28
269.324	4.61
269.54	-44.54
269.756	41.47
269.972	-26.11
270.188	51.71
270.403	10.75
270.619	78.33
270.835	23.04
271.051	41.47
271.267	51.71
271.483	-52.74
271.698	25.09
271.914	55.81
272.13	12.8
272.346	27.14
272.562	23.04
272.777	51.71
272.993	-22.02
273.209	-24.06
273.425	59.9
273.64	-75.26
273.856	31.23
274.072	59.9
274.287	31.23
274.503	47.62
274.719	82.43
274.934	80.38
275.15	-1.54
275.366	55.81
275.581	31.23
275.797	23.04
276.012	31.23
276.228	72.19
276.444	33.28
276.659	113.15
276.875	-34.3
277.09	8.7
277.306	51.71
277.521	-1.54
277.737	8.7
277.952	-60.93
278.168	6.66
278.383	-24.06
278.599	86.53
278.814	68.09
279.03	-1.54
279.245	74.24
279.461	55.81
279.676	51.71
279.892	2.56
280.107	-1.54
280.322	18.94
280.538	96.77
280.753	-11.78
280.969	31.23
281.184	31.23
281.399	55.81
281.615	31.23
281.83	72.19
282.045	55.81
282.26	2.56
282.476	80.38
282.691	64
282.906	6.66
283.122	-19.97
283.337	31.23
283.552	90.62
283.767	39.42
283.983	64
284.198	64
284.413	68.09
284.628	-9.73
284.843	45.57
285.058	39.42
285.274	4.61
285.489	20.99
285.704	0.51
285.919	47.62
286.134	72.19
286.349	20.99
286.564	-19.97
286.779	158.21
286.995	53.76
287.21	-22.02
287.425	104.96
287.64	57.86
287.855	102.91
288.07	31.23
288.285	64
288.5	51.71
288.715	39.42
288.93	45.57
289.145	-7.68
289.36	72.19
289.575	45.57
289.79	31.23
290.004	31.23
290.219	59.9
290.434	27.14
290.649	53.76
290.864	-1.54
291.079	31.23
291.294	-1.54
291.509	-17.92
291.724	88.57
291.938	59.9
292.153	14.85
292.368	8.7
292.583	-9.73
292.798	10.75
293.012	43.52
293.227	23.04
293.442	41.47
293.657	55.81
293.871	-13.82
294.086	-11.78
294.301	129.53
294.516	61.95
294.73	55.81
294.945	-7.68
295.16	84.48
295.374	111.1
295.589	45.57
295.804	-26.11
296.018	61.95
296.233	84.48
296.447	18.94
296.662	-3.58
296.877	27.14
297.091	-3.58
297.306	39.42
297.52	23.04
297.735	51.71
297.949	84.48
298.164	55.81
298.378	86.53
298.593	47.62
298.807	29.18
299.022	102.91
299.236	104.96
299.451	80.38
299.665	-30.21
299.88	-42.5
300.094	-56.83
300.309	8.7
300.523	-5.63
300.737	27.14
300.952	8.7
301.166	55.81
301.381	-11.78
301.595	39.42
301.809	6.66
302.024	16.9
302.238	-22.02
302.452	23.04
302.667	12.8
302.881	80.38
303.095	84.48
303.309	109.05
303.524	111.1
303.738	-36.35
303.952	16.9
304.166	55.81
304.381	-17.92
304.595	72.19
304.809	43.52
305.023	33.28
305.237	51.71
305.452	-9.73
305.666	109.05
305.88	94.72
306.094	-11.78
306.308	86.53
306.522	6.66
306.736	35.33
306.95	92.67
307.164	53.76
307.379	23.04
307.593	59.9
307.807	-24.06
308.021	88.57
308.235	-38.4
308.449	4.61
308.663	98.81
308.877	129.53
309.091	39.42
309.305	96.77
309.519	-28.16
309.733	33.28
309.947	-1.54
310.161	80.38
310.374	23.04
310.588	109.05
310.802	33.28
311.016	72.19
311.23	12.8
311.444	-19.97
311.658	-17.92
311.872	119.29
312.085	4.61
312.299	80.38
312.513	86.53
312.727	68.09
312.941	0.51
313.154	45.57
313.368	111.1
313.582	8.7
313.796	6.66
314.009	47.62
314.223	53.76
314.437	68.09
314.651	45.57
314.864	4.61
315.078	-28.16
315.292	29.18
315.505	51.71
315.719	61.95
315.933	64
316.146	16.9
316.36	-58.88
316.573	72.19
316.787	23.04
317.001	20.99
317.214	6.66
317.428	64
317.641	-13.82
317.855	94.72
318.068	35.33
318.282	64
318.495	64
318.709	96.77
318.922	78.33
319.136	145.92
319.349	107.01
319.563	18.94
319.776	72.19
319.99	-5.63
320.203	68.09
320.417	29.18
320.63	102.91
320.843	82.43
321.057	72.19
321.27	43.52
321.483	78.33
321.697	104.96
321.91	23.04
322.124	-15.87
322.337	-1.54
322.55	20.99
322.763	92.67
322.977	6.66
323.19	-15.87
323.403	-26.11
323.617	14.85
323.83	88.57
324.043	23.04
324.256	55.81
324.469	29.18
324.683	147.97
324.896	25.09
325.109	55.81
325.322	37.38
325.535	55.81
325.748	131.58
325.962	-15.87
326.175	31.23
326.388	31.23
326.601	78.33
326.814	57.86
327.027	78.33
327.24	78.33
327.453	-34.3
327.666	25.09
327.879	72.19
328.092	29.18
328.305	49.66
328.518	37.38
328.731	59.9
328.944	-13.82
329.157	-5.63
329.37	39.42
329.583	86.53
329.796	70.14
330.009	47.62
330.222	82.43
330.435	78.33
330.648	61.95
330.861	-1.54
331.073	-9.73
331.286	84.48
331.499	-9.73
331.712	12.8
331.925	55.81
332.138	61.95
332.35	96.77
332.563	-9.73
332.776	68.09
332.989	6.66
333.202	47.62
333.414	6.66
333.627	113.15
333.84	25.09
334.053	31.23
334.265	102.91
334.478	59.9
334.691	37.38
334.903	59.9
335.116	25.09
335.329	37.38
335.541	10.75
335.754	47.62
335.966	29.18
336.179	0.51
336.392	20.99
336.604	-34.3
336.817	80.38
337.029	88.57
337.242	129.53
337.454	39.42
337.667	47.62
337.88	64
338.092	31.23
338.305	78.33
338.517	23.04
338.729	53.76
338.942	82.43
339.154	-83.45
339.367	-22.02
339.579	43.52
339.792	-9.73
340.004	145.92
340.217	55.81
340.429	78.33
340.641	-26.11
340.854	53.76
341.066	-34.3
341.278	84.48
341.491	53.76
341.703	66.05
341.915	37.38
342.128	37.38
342.34	23.04
342.552	64
342.764	96.77
342.977	119.29
343.189	80.38
343.401	86.53
343.613	-26.11
343.826	43.52
344.038	-13.82
344.25	43.52
344.462	29.18
344.674	76.29
344.886	31.23
345.099	57.86
345.311	49.66
345.523	31.23
345.735	35.33
345.947	-13.82
346.159	14.85
346.371	12.8
346.583	20.99
346.795	121.34
347.007	14.85
347.219	117.25
347.431	23.04
347.643	102.91
347.855	10.75
348.067	55.81
348.279	-58.88
348.491	72.19
348.703	72.19
348.915	74.24
349.127	10.75
349.339	84.48
349.551	6.66
349.763	115.2
349.975	14.85
350.187	59.9
350.399	100.86
350.61	70.14
350.822	-3.58
351.034	23.04
351.246	23.04
351.458	6.66
351.669	113.15
351.881	80.38
352.093	92.67
352.305	109.05
352.517	-9.73
352.728	96.77
352.94	59.9
353.152	64
353.363	14.85
353.575	72.19
353.787	80.38
353.999	88.57
354.21	16.9
354.422	23.04
354.633	-17.92
354.845	70.14
355.057	-17.92
355.268	12.8
355.48	55.81
355.692	18.94
355.903	6.66
356.115	-38.4
356.326	-36.35
356.538	104.96
356.749	14.85
356.961	45.57
357.172	47.62
357.384	39.42
357.595	178.69
357.807	23.04
358.018	64
358.23	76.29
358.441	152.06
358.653	18.94
358.864	109.05
359.075	-17.92
359.287	119.29
359.498	78.33
359.709	-11.78
359.921	29.18
360.132	-42.5
360.344	61.95
360.555	53.76
360.766	35.33
360.977	-19.97
361.189	35.33
361.4	37.38
361.611	90.62
361.823	72.19
362.034	49.66
362.245	-58.88
362.456	-3.58
362.667	55.81
362.879	59.9
363.09	23.04
363.301	39.42
363.512	104.96
363.723	31.23
363.935	-1.54
364.146	102.91
364.357	10.75
364.568	29.18
364.779	-13.82
364.99	59.9
365.201	-22.02
365.412	64
365.623	-52.74
365.834	2.56
366.045	-34.3
366.256	109.05
366.467	47.62
366.678	-9.73
366.889	98.81
367.1	27.14
367.311	41.47
367.522	25.09
367.733	121.34
367.944	-19.97
368.155	18.94
368.366	66.05
368.577	84.48
368.788	111.1
368.999	64
369.209	-5.63
369.42	156.16
369.631	109.05
369.842	88.57
370.053	53.76
370.264	68.09
370.474	66.05
370.685	-5.63
370.896	-1.54
371.107	86.53
371.317	66.05
371.528	55.81
371.739	133.63
371.95	129.53
372.16	111.1
372.371	29.18
372.582	78.33
372.792	96.77
373.003	6.66
373.214	23.04
373.424	27.14
373.635	70.14
373.846	115.2
374.056	45.57
374.267	41.47
374.477	2.56
374.688	31.23
374.898	49.66
375.109	57.86
375.319	78.33
375.53	119.29
375.74	47.62
375.951	43.52
376.161	96.77
376.372	35.33
376.582	80.38
376.793	43.52
377.003	-3.58
377.214	88.57
377.424	121.34
377.635	-1.54
377.845	-34.3
378.055	133.63
378.266	80.38
378.476	51.71
378.686	-13.82
378.897	43.52
379.107	80.38
379.317	143.87
379.528	18.94
379.738	96.77
379.948	43.52
380.158	88.57
380.369	61.95
380.579	115.2
380.789	12.8
380.999	20.99
381.21	72.19
381.42	125.44
381.63	39.42
381.84	51.71
382.05	94.72
382.261	92.67
382.471	131.58
382.681	92.67
382.891	113.15
383.101	49.66
383.311	27.14
383.521	80.38
383.731	55.81
383.941	115.2
384.151	68.09
384.361	27.14
384.571	68.09
384.781	39.42
384.991	70.14
385.201	41.47
385.411	64
385.621	39.42
385.831	47.62
386.041	80.38
386.251	64
386.461	119.29
386.671	61.95
386.881	68.09
387.091	33.28
387.301	109.05
387.511	2.56
387.72	59.9
387.93	113.15
388.14	43.52
388.35	39.42
388.56	137.73
388.769	51.71
388.979	86.53
389.189	-1.54
389.399	39.42
389.609	-34.3
389.818	141.82
390.028	-3.58
390.238	154.11
390.447	0.51
390.657	39.42
390.867	23.04
391.076	37.38
391.286	113.15
391.496	80.38
391.705	12.8
391.915	125.44
392.125	121.34
392.334	47.62
392.544	121.34
392.753	137.73
392.963	102.91
393.172	2.56
393.382	131.58
393.591	121.34
393.801	59.9
394.01	152.06
394.22	119.29
394.429	96.77
394.639	86.53
394.848	129.53
395.058	37.38
395.267	84.48
395.477	64
395.686	72.19
395.895	80.38
396.105	170.49
396.314	72.19
396.524	143.87
396.733	20.99
396.942	119.29
397.152	129.53
397.361	152.06
397.57	94.72
397.78	119.29
397.989	96.77
398.198	203.26
398.407	90.62
398.617	131.58
398.826	102.91
399.035	152.06
399.244	137.73
399.453	170.49
399.663	104.96
399.872	133.63
400.081	80.38
400.29	127.49
400.499	43.52
400.708	152.06
400.917	145.92
401.127	76.29
401.336	123.39
401.545	190.97
401.754	166.4
401.963	180.73
402.172	113.15
402.381	64
402.59	166.4
402.799	145.92
403.008	119.29
403.217	113.15
403.426	133.63
403.635	102.91
403.844	154.11
404.053	176.64
404.262	141.82
404.471	190.97
404.68	135.68
404.888	160.25
405.097	145.92
405.306	158.21
405.515	211.45
405.724	147.97
405.933	219.64
406.142	135.68
406.35	227.84
406.559	195.07
406.768	176.64
406.977	270.84
407.185	240.12
407.394	227.84
407.603	233.98
407.812	252.41
408.02	301.56
408.229	262.65
408.438	205.31
408.646	260.6
408.855	145.92
409.064	276.99
409.272	283.13
409.481	250.36
409.69	358.91
409.898	209.4
410.107	248.32
410.315	242.17
410.524	270.84
410.733	363
410.941	293.37
411.15	313.85
411.358	440.83
411.567	393.72
411.775	389.63
411.984	385.53
412.192	449.02
412.401	436.73
412.609	524.79
412.818	496.12
413.026	483.83
413.234	532.98
413.443	465.4
413.651	496.12
413.86	575.99
414.068	674.29
414.276	629.24
414.485	604.66
414.693	596.47
414.901	653.81
415.11	719.35
415.318	612.85
415.526	702.97
415.734	805.36
415.943	795.12
416.151	829.94
416.359	834.04
416.567	807.41
416.776	864.75
416.984	889.33
417.192	1010.16
417.4	1022.45
417.608	905.71
417.817	1130.99
418.025	1106.42
418.233	1194.48
418.441	1049.07
418.649	1194.48
418.857	1260.01
419.065	1358.32
419.273	1274.35
419.481	1206.77
419.689	1434.09
419.897	1452.52
420.105	1516.01
420.313	1583.59
420.521	1626.6
420.729	1577.45
420.937	1669.61
421.145	1710.57
421.353	1772
421.561	1905.12
421.769	1939.94
421.977	1991.14
422.185	2021.86
422.393	2206.17
422.601	2345.44
422.809	2279.9
423.017	2261.47
423.224	2279.9
423.432	2527.71
423.64	2488.79
423.848	2628.06
424.056	2583
424.263	2742.74
424.471	2806.23
424.679	2902.48
424.887	2992.59
425.094	3047.89
425.302	3070.42
425.51	3295.69
425.718	3336.65
425.925	3414.48
426.133	3391.95
426.341	3623.37
426.548	3891.65
426.756	3746.25
426.964	3854.79
427.171	4020.67
427.379	4194.75
427.586	4395.45
427.794	4579.77
428.001	4569.53
428.209	4794.81
428.417	4876.73
428.624	4946.36
428.832	5061.04
429.039	5085.62
429.247	5259.7
429.454	5622.19
429.662	5886.37
429.869	5509.55
430.076	5929.38
430.284	5759.4
430.491	6054.31
430.699	6220.19
430.906	6318.5
431.114	6445.47
431.321	6631.83
431.528	6855.06
431.736	7182.74
431.943	7598.48
432.15	7432.59
432.358	7444.88
432.565	7891.34
432.772	7872.9
432.979	8259.97
433.187	8489.34
433.394	8331.65
433.601	8898.94
433.808	9019.77
434.016	8874.36
434.223	9529.71
434.43	9802.09
434.637	9795.95
434.844	10207.59
435.052	10359.14
435.259	10414.43
435.466	10713.44
435.673	10531.17
435.88	10907.99
436.087	11622.73
436.294	11694.41
436.501	11460.95
436.708	11786.57
436.915	12112.2
437.122	12726.59
437.329	12583.23
437.537	12970.3
437.743	13381.94
437.95	13093.18
438.157	13838.64
438.364	14326.05
438.571	14235.94
438.778	14461.22
438.985	15491.35
439.192	15261.98
439.399	15778.06
439.606	15188.25
439.813	16222.47
440.02	16918.78
440.227	16834.82
440.433	16820.48
440.64	17162.49
440.847	17287.42
441.054	17371.38
441.261	18569.44
441.467	18688.23
441.674	18753.76
441.881	19427.54
442.088	19220.7
442.294	19173.6
442.501	20074.7
442.708	20359.37
442.914	21018.82
443.121	21954.74
443.328	21231.8
443.534	22950.05
443.741	22362.28
443.948	21534.9
444.154	23672.98
444.361	23046.3
444.568	23591.06
444.774	23591.06
444.981	23554.2
445.187	24346.76
445.394	25366.65
445.6	25071.75
445.807	27633.75
446.013	26337.39
446.22	26966.12
446.426	28035.16
446.633	27912.28
446.839	28936.26
447.046	27781.21
447.252	29499.45
447.459	29182.02
447.665	29216.83
447.871	30339.12
448.078	31737.88
448.284	30148.66
448.491	30896.17
448.697	32221.2
448.903	32804.88
449.11	32976.9
449.316	32417.81
449.522	33030.15
449.728	33781.76
449.935	34119.67
450.141	34047.99
450.347	34865.13
450.553	33738.75
450.76	34263.03
450.966	35153.9
451.172	34750.45
451.378	35547.11
451.584	35037.16
451.791	35893.21
451.997	35540.96
452.203	36317.14
452.409	36433.88
452.615	36114.39
452.821	34695.15
453.027	34129.91
453.233	36335.57
453.44	34308.08
453.646	34834.41
453.852	34873.32
454.058	35669.98
454.264	34285.56
454.47	35082.22
454.676	34224.12
454.882	35418.08
455.088	32245.78
455.294	33013.77
455.5	33280
455.705	33722.37
455.911	32186.39
456.117	31567.9
456.323	31248.42
456.529	29360.19
456.735	30683.18
456.941	29935.67
457.147	29532.22
457.352	28698.7
457.558	28137.55
457.764	28428.37
457.97	27689.05
458.176	27123.81
458.381	27031.65
458.587	25751.67
458.793	25477.24
458.999	24422.54
459.204	26153.07
459.41	25403.52
459.616	23808.15
459.821	23670.93
460.027	23525.53
460.233	23138.46
460.438	21682.36
460.644	22292.65
460.85	21180.6
461.055	20863.17
461.261	20840.64
461.466	19177.69
461.672	18542.82
461.878	19912.91
462.083	18673.89
462.289	18534.63
462.494	18114.8
462.7	17273.08
462.905	16943.36
463.111	17604.85
463.316	17697.01
463.522	17142.01
463.727	17217.79
463.932	17193.21
464.138	16910.59
464.343	17078.52
464.549	16576.77
464.754	17170.68
464.959	16974.08
465.165	16726.27
465.37	16226.57
465.575	15737.1
465.781	16193.8
465.986	16328.97
466.191	15845.65
466.397	15462.68
466.602	14741.79
466.807	15354.13
467.012	15489.3
467.218	15485.2
467.423	15114.52
467.628	14952.73
467.833	15864.08
468.038	15114.52
468.244	14600.48
468.449	15456.53
468.654	14743.84
468.859	14864.67
469.064	14686.5
469.269	14061.87
469.474	14213.42
469.679	14594.34
469.885	14113.06
470.09	14397.73
470.295	14088.49
470.5	13642.03
470.705	13938.99
470.91	13500.72
471.115	13336.88
471.32	13615.41
471.525	13498.67
471.73	13334.84
471.935	13269.3
472.139	12777.79
472.344	12915
472.549	12656.96
472.754	12466.5
472.959	12263.75
473.164	12128.58
473.369	11974.99
473.574	12241.22
473.778	12204.36
473.983	11964.75
474.188	12187.97
474.393	11338.07
474.598	11553.1
474.802	11372.88
475.007	11110.74
475.212	11204.95
475.417	11037.02
475.621	10795.36
475.826	10932.57
476.031	10639.71
476.235	10604.89
476.44	10824.03
476.645	10500.45
476.849	10549.6
477.054	10328.42
477.259	10180.96
477.463	10279.27
477.668	10068.33
477.872	10082.66
478.077	10070.37
478.282	9546.09
478.486	9630.06
478.691	9505.13
478.895	9539.95
479.1	9406.83
479.304	9587.05
479.509	9310.58
479.713	9443.7
479.918	9175.41
480.122	9062.77
480.326	9261.43
480.531	9064.82
480.735	8993.14
480.94	8892.79
481.144	9283.95
481.348	8669.56
481.553	9173.36
481.757	8726.91
481.961	8888.7
482.166	9122.16
482.37	8866.17
482.574	8694.14
482.778	8878.46
482.983	8946.04
483.187	8681.85
483.391	8745.34
483.595	8833.4
483.8	8665.47
484.004	8722.81
484.208	8753.53
484.412	8878.46
484.616	8880.5
484.821	8917.37
485.025	8493.44
485.229	8851.83
485.433	8679.8
485.637	8731
485.841	8665.47
486.045	8753.53
486.249	8692.09
486.453	8663.42
486.657	8747.39
486.861	8792.44
487.065	8532.35
487.269	8860.02
487.473	8604.03
487.677	8825.21
487.881	8759.67
488.085	8792.44
488.289	8642.94
488.493	8819.07
488.697	9066.87
488.901	8814.97
489.105	8882.55
489.309	8755.58
489.512	8909.18
489.716	9034.1
489.92	8825.21
490.124	8927.61
490.328	9036.15
490.531	9066.87
490.735	9150.84
490.939	8997.24
491.143	9062.77
491.346	9159.03
491.55	8894.84
491.754	9238.9
491.958	9154.93
492.161	8968.57
492.365	9152.88
492.569	9030.01
492.772	9245.04
492.976	9263.47
493.18	9286
493.383	9363.83
493.587	9501.04
493.79	9765.23
493.994	9599.34
494.197	9613.68
494.401	9853.29
494.605	9648.49
494.808	9912.68
495.012	9828.71
495.215	9879.91
495.419	9992.55
495.622	10045.8
495.825	9955.69
496.029	10123.62
496.232	10469.73
496.436	10250.6
496.639	10627.42
496.843	10533.22
497.046	10834.27
497.249	10813.79
497.453	10830.17
497.656	10723.68
497.859	11112.79
498.063	11250
498.266	11571.54
498.469	11530.58
498.673	11471.18
498.876	11422.03
499.079	11960.65
499.282	11706.7
499.485	11934.03
499.689	11960.65
499.892	12398.91
500.095	12257.6
500.298	12740.93
500.501	12632.38
500.705	12880.19
500.908	12861.76
501.111	13211.96
501.314	13130.04
501.517	13345.08
501.72	13711.66
501.923	13420.85
502.126	13885.74
502.329	13797.68
502.532	14041.39
502.735	14199.08
502.938	14383.4
503.141	14530.85
503.344	14612.77
503.547	14618.91
503.75	14911.77
503.953	15055.13
504.156	15397.14
504.359	15472.92
504.562	15634.71
504.765	15548.69
504.968	15911.18
505.17	16060.68
505.373	16195.85
505.576	16306.44
505.779	16517.38
505.982	16787.71
506.185	17029.37
506.387	16924.93
506.59	17150.2
506.793	17547.51
506.996	17447.16
507.198	17873.14
507.401	17844.46
507.604	18198.76
507.807	18479.33
508.009	18417.89
508.212	18696.42
508.415	18927.84
508.617	18899.17
508.82	19163.36
509.022	18899.17
509.225	19656.92
509.428	19822.8
509.63	19865.81
509.833	19929.3
510.035	20291.79
510.238	20058.32
510.44	20818.11
510.643	21266.62
510.845	20992.19
511.048	21123.26
511.25	21457.08
511.453	21297.34
511.655	22087.85
511.858	22081.71
512.06	22225.07
512.262	22210.73
512.465	22778.02
512.667	22837.41
512.87	23070.88
513.072	23124.13
513.274	23687.32
513.477	23847.06
513.679	23715.99
513.881	24287.37
514.084	24440.97
514.286	24459.4
514.488	24455.31
514.69	25331.84
514.893	25434.24
515.095	25051.27
515.297	25395.32
515.499	25917.56
515.701	25829.49
515.904	26341.49
516.106	26441.84
516.308	26861.67
516.51	26804.33
516.712	27041.89
516.914	27320.42
517.116	27338.85
517.318	27893.85
517.52	28031.06
517.722	28235.86
517.925	28541
518.127	29016.13
518.329	28817.48
518.531	28862.54
518.733	29503.55
518.935	29784.12
519.136	29595.71
519.338	30603.31
519.54	30464.05
519.742	30703.66
519.944	30726.19
520.146	31301.67
520.348	31647.77
520.55	31387.68
520.752	31686.68
520.954	32489.49
521.155	31893.53
521.357	32395.28
521.559	32792.59
521.761	33400.83
521.963	33200.13
522.164	33337.35
522.366	33697.79
522.568	33601.54
522.77	34193.4
522.971	34721.77
523.173	34801.64
523.375	35033.07
523.576	34766.83
523.778	34836.46
523.98	35586.02
524.181	35839.97
524.383	35536.87
524.584	35880.92
524.786	36020.19
524.988	36276.18
525.189	36818.89
525.391	36831.18
525.592	37171.14
525.794	37300.17
525.995	37291.97
526.197	37726.14
526.398	37388.23
526.6	38098.87
526.801	38250.42
527.003	38268.86
527.204	38328.25
527.406	38799.28
527.607	38881.2
527.808	38547.38
528.01	38555.57
528.211	39280.55
528.412	39673.76
528.614	39724.96
528.815	39751.59
529.016	40183.71
529.218	39894.94
529.419	39968.67
529.62	40257.43
529.822	39864.22
530.023	40353.69
530.224	40069.02
530.425	40601.49
530.626	40288.15
530.828	40144.8
531.029	41531.27
531.23	40816.53
531.431	40634.26
531.632	41052.05
531.833	41312.14
532.035	41166.73
532.236	41410.44
532.437	41428.87
532.638	41486.21
532.839	41430.92
533.04	41738.12
533.241	41074.57
533.442	42315.64
533.643	41992.06
533.844	41623.43
534.045	42061.69
534.246	41711.49
534.447	42002.3
534.648	42102.65
534.849	42280.83
535.05	41860.99
535.251	42067.84
535.451	41762.69
535.652	42323.83
535.853	42231.68
536.054	42155.9
536.255	42319.74
536.456	42295.16
536.657	42653.56
536.857	42352.51
537.058	42223.48
537.259	42762.1
537.46	42549.11
537.66	42231.68
537.861	42221.44
538.062	42033.02
538.263	42336.12
538.463	42114.94
538.664	42604.41
538.865	42856.31
539.065	42704.76
539.266	42076.03
539.466	42694.52
539.667	42295.16
539.868	42692.47
540.068	42311.55
540.269	42389.37
540.469	42876.79
540.67	42098.56
540.87	42243.96
541.071	42278.78
541.271	42698.61
541.472	42356.6
541.672	42235.77
541.873	42162.04
542.073	41838.47
542.274	42692.47
542.474	42549.11
542.675	42137.47
542.875	42751.86
543.075	42268.54
543.276	41936.77
543.476	42518.39
543.676	42209.15
543.877	42205.05
544.077	42387.32
544.277	42370.94
544.478	42313.59
544.678	42266.49
544.878	42172.28
545.078	42467.19
545.279	41725.83
545.479	42407.8
545.679	42215.29
545.879	42137.47
546.079	42188.67
546.28	42286.97
546.48	42045.31
546.68	42297.21
546.88	42674.04
547.08	41879.42
547.28	42254.2
547.48	42008.45
547.68	42051.45
547.88	41832.32
548.081	41918.34
548.281	41987.97
548.481	42096.51
548.681	42184.57
548.881	42041.21
549.081	41869.19
549.28	42336.12
549.48	41951.1
549.68	42114.94
549.88	42913.65
550.08	41668.48
550.28	41914.24
550.48	42282.87
550.68	42375.03
550.88	41832.32
551.08	41969.54
551.279	41977.73
551.479	41781.12
551.679	42239.87
551.879	41478.02
552.079	41697.16
552.278	41860.99
552.478	42039.17
552.678	41873.28
552.878	42061.69
553.077	41547.65
553.277	41475.98
553.477	42102.65
553.676	41840.51
553.876	41498.5
554.076	41281.42
554.275	41537.41
554.475	40937.36
554.674	41746.31
554.874	41484.17
555.074	41561.99
555.273	41551.75
555.473	41613.19
555.672	41054.09
555.872	41033.61
556.071	41279.37
556.271	41334.67
556.47	40972.17
556.67	40783.76
556.869	41131.92
557.068	41164.68
557.268	40585.11
557.467	40769.43
557.667	40992.65
557.866	40464.28
558.065	40746.9
558.265	40558.49
558.464	40148.89
558.663	40701.84
558.863	39954.33
559.062	40538.01
559.261	39837.6
559.461	40230.81
559.66	39534.5
559.859	39937.95
560.058	39716.77
560.258	40105.88
560.457	39317.42
560.656	39962.53
560.855	39688.1
561.054	39616.42
561.253	39215.02
561.453	39466.92
561.652	39401.38
561.851	39516.07
562.05	39104.43
562.249	38660.02
562.448	39233.45
562.647	39051.18
562.846	38868.91
563.045	38651.83
563.244	38549.43
563.443	38807.47
563.642	37883.84
563.841	38338.49
564.04	38121.4
564.239	38623.15
564.438	37871.55
564.637	38043.58
564.836	38152.12
565.035	37441.48
565.234	37914.56
565.432	37851.07
565.631	37242.82
565.83	37423.04
566.029	37392.33
566.228	36995.02
566.427	37078.99
566.625	36552.66
566.824	36169.69
567.023	37072.84
567.222	36276.18
567.42	36653.01
567.619	36581.33
567.818	36218.84
568.016	36311
568.215	36341.72
568.414	35856.35
568.612	36261.85
568.811	35577.83
569.01	36040.67
569.208	35307.49
569.407	35588.06
569.605	34926.57
569.804	35504.1
570.002	35045.35
570.201	35155.94
570.4	34820.08
570.598	34678.77
570.797	34625.52
570.995	34326.52
571.193	34527.22
571.392	34641.9
571.59	34271.22
571.789	34258.93
571.987	34125.82
572.186	34052.09
572.384	33652.73
572.582	33851.39
572.781	33851.39
572.979	33273.86
573.177	33368.07
573.376	33814.52
573.574	33269.76
573.772	33419.27
573.971	32966.66
574.169	32497.68
574.367	32847.88
574.565	32989.19
574.763	32559.12
574.962	32524.3
575.16	32112.66
575.358	32550.93
575.556	32020.5
575.754	32364.56
575.952	31885.34
576.151	32518.16
576.349	31780.89
576.547	31827.99
576.745	32002.07
576.943	32006.17
577.141	31514.66
577.339	31551.52
577.537	31158.31
577.735	31422.5
577.933	31141.92
578.131	31307.81
578.329	30965.8
578.527	30793.77
578.725	30804.01
578.923	30881.83
579.121	30642.22
579.319	30767.15
579.516	30490.67
579.714	30728.24
579.912	30183.48
580.11	30369.84
580.308	29976.63
580.506	30363.7
580.704	29687.87
580.901	29999.16
581.099	30062.65
581.297	29792.31
581.495	29524.03
581.692	29952.05
581.89	29278.27
582.088	29911.1
582.285	29452.35
582.483	29294.66
582.681	29229.12
582.878	29102.15
583.076	28655.69
583.274	29106.24
583.471	28614.73
583.669	28889.16
583.866	28532.81
584.064	28784.71
584.262	28330.06
584.459	28799.05
584.657	28493.9
584.854	28452.94
585.052	27981.91
585.249	28248.14
585.447	28209.23
585.644	27578.46
585.841	27920.47
586.039	28299.34
586.236	27637.85
586.434	27672.67
586.631	27709.53
586.828	27365.47
587.026	27242.59
587.223	27250.78
587.42	27381.85
587.618	27324.51
587.815	27011.17
588.012	26957.92
588.21	26695.78
588.407	27263.07
588.604	26812.52
588.801	26392.69
588.999	26648.68
589.196	26804.33
589.393	26607.72
589.59	26257.52
589.787	26095.73
589.984	26091.63
590.182	25821.3
590.379	26069.11
590.576	25815.16
590.773	25952.37
590.97	25923.7
591.167	25997.43
591.364	25542.78
591.561	25772.15
591.758	25299.07
591.955	25233.53
592.152	25469.05
592.349	25014.4
592.546	25450.62
592.743	25190.53
592.94	24893.57
593.137	25198.72
593.334	25104.51
593.531	24594.57
593.727	24707.21
593.924	24578.18
594.121	24561.8
594.318	24762.5
594.515	24363.15
594.712	24291.47
594.908	24316.04
595.105	24318.09
595.302	24066.19
595.499	24076.43
595.696	24213.65
595.892	23892.12
596.089	23824.53
596.286	23918.74
596.482	23752.85
596.679	23748.76
596.876	23603.35
597.072	23351.45
597.269	23703.7
597.466	23302.3
597.662	23173.28
597.859	23441.56
598.055	23357.6
598.252	23169.18
598.448	23355.55
598.645	23107.74
598.841	22489.26
599.038	22997.15
599.234	22964.39
599.431	22722.73
599.627	22562.98
599.824	22806.69
600.02	22206.64
600.217	22655.14
600.413	22177.97
600.609	22247.6
600.806	22304.94
601.002	22374.57
601.198	22053.04
601.395	21983.41
601.591	21725.36
601.787	21805.24
601.984	21760.18
602.18	21702.84
602.376	21711.03
602.572	21831.86
602.769	21751.99
602.965	21379.26
603.161	21473.46
603.357	21362.87
603.553	21405.88
603.75	21307.58
603.946	21012.67
604.142	21162.17
604.338	21133.5
604.534	20940.99
604.73	20816.07
604.926	20648.13
605.122	20715.72
605.318	20764.87
605.514	20850.88
605.71	20547.78
605.906	20502.73
606.102	20447.43
606.298	20504.78
606.494	20357.32
606.69	20549.83
606.886	20187.34
607.082	20086.99
607.278	20299.98
607.474	19908.82
607.67	20173
607.866	19919.06
608.062	20195.53
608.257	19816.66
608.453	19663.06
608.649	19806.42
608.845	19894.48
609.041	19372.25
609.236	19353.82
609.432	19777.75
609.628	19515.61
609.824	19392.73
610.019	19366.1
610.215	19263.71
610.411	19458.26
610.606	19407.06
610.802	19431.64
610.998	19296.47
611.193	19226.84
611.389	18790.63
611.584	19060.96
611.78	18940.13
611.976	18964.7
612.171	18997.47
612.367	18899.17
612.562	18720.99
612.758	18680.03
612.953	18503.91
613.149	19087.58
613.344	18718.95
613.539	18880.74
613.735	18548.96
613.93	18520.29
614.126	18323.69
614.321	18530.53
614.517	18667.75
614.712	18819.3
614.907	18536.68
615.103	18204.91
615.298	18430.18
615.493	18387.18
615.688	18157.8
615.884	18495.72
616.079	18098.41
616.274	18194.67
616.47	18106.6
616.665	18112.75
616.86	17809.65
617.055	17936.62
617.25	17643.76
617.445	18186.47
617.641	17735.92
617.836	17893.61
618.031	17563.89
618.226	17676.53
618.421	17590.52
618.616	17725.68
618.811	17479.93
619.006	17705.2
619.201	17197.31
619.396	17271.03
619.591	17056
619.786	17590.52
619.981	16849.15
620.176	16978.17
620.371	16969.98
620.566	16914.69
620.761	17099
620.956	16967.93
621.151	16513.28
621.346	16660.74
621.541	16517.38
621.735	16773.38
621.93	16185.61
622.125	16404.74
622.32	16204.04
622.515	16085.26
622.709	16187.66
622.904	16152.84
623.099	16136.46
623.294	16185.61
623.488	15733.01
623.683	15966.48
623.878	15526.16
624.072	15667.47
624.267	15501.59
624.462	15587.6
624.656	15188.25
624.851	15257.88
625.046	15079.71
625.24	15005.98
625.435	15018.27
625.629	14795.04
625.824	14682.4
626.018	14790.94
626.213	14678.3
626.407	14262.57
626.602	14469.41
626.796	14580
626.991	14397.73
627.185	14264.61
627.38	14194.98
627.574	14070.06
627.768	14168.36
627.963	14168.36
628.157	14084.39
628.352	13840.68
628.546	13592.88
628.74	13828.4
628.935	13470
629.129	13644.08
629.323	13443.38
629.517	13480.24
629.712	13246.77
629.906	13357.36
630.1	13123.9
630.294	13422.9
630.489	12964.15
630.683	13080.89
630.877	13041.98
631.071	12779.84
631.265	13095.22
631.459	12822.84
631.653	12540.22
631.848	12628.29
632.042	12388.67
632.236	12642.62
632.43	12165.45
632.624	12357.96
632.818	12294.47
633.012	12015.94
633.206	11936.07
633.4	12099.91
633.594	11833.68
633.788	11950.41
633.982	11880.78
634.176	11848.01
634.369	11661.65
634.563	11837.77
634.757	11520.34
634.951	11561.3
635.145	11569.49
635.339	11522.38
635.533	11305.3
635.726	11606.35
635.92	11229.52
636.114	11104.6
636.308	11045.21
636.501	11055.45
636.695	11073.88
636.889	10805.6
637.083	10885.47
637.276	10801.5
637.47	10709.34
637.664	10875.23
637.857	10742.11
638.051	10838.36
638.244	10692.96
638.438	10604.89
638.632	10582.37
638.825	10375.52
639.019	10459.49
639.212	10275.17
639.406	10307.94
639.599	10033.51
639.793	10152.29
639.986	10219.88
640.18	9929.06
640.373	10119.53
640.567	9861.48
640.76	10066.28
640.954	9853.29
641.147	9814.38
641.34	9789.8
641.534	9879.91
641.727	9585.01
641.92	9726.32
642.114	9730.41
642.307	9445.74
642.5	9537.9
642.694	9378.16
642.887	9376.11
643.08	9351.54
643.273	9222.52
643.467	9183.6
643.66	9214.32
643.853	8896.89
644.046	8964.47
644.239	8937.85
644.432	9064.82
644.626	8794.49
644.819	8917.37
645.012	8798.59
645.205	8862.07
645.398	8706.43
645.591	8800.63
645.784	8819.07
645.977	8593.79
646.17	8745.34
646.363	8395.14
646.556	8556.93
646.749	8622.46
646.942	8374.66
647.135	8354.18
647.328	8352.13
647.521	8227.2
647.714	8280.45
647.907	8221.06
648.099	8192.39
648.292	8128.9
648.485	8124.8
648.678	7825.8
648.871	8155.52
649.064	7981.45
649.256	7909.77
649.449	7891.34
649.642	7752.07
649.835	7776.65
650.027	7899.53
650.22	7625.1
650.413	7657.87
650.605	7809.42
650.798	7641.48
650.991	7457.17
651.183	7616.91
651.376	7455.12
651.568	7590.28
651.761	7485.84
651.954	7229.84
652.146	7330.19
652.339	7326.1
652.531	7371.15
652.724	7125.4
652.916	7285.14
653.109	7090.58
653.301	6947.22
653.494	7080.34
653.686	7031.19
653.879	7186.83
654.071	7100.82
654.263	6818.2
654.456	6936.98
654.648	7004.57
654.84	6797.72
655.033	6797.72
655.225	6695.32
655.417	6654.36
655.61	6891.93
655.802	6629.79
655.994	6662.55
656.186	6732.19
656.379	6525.34
656.571	6715.8
656.763	6670.75
656.955	6484.38
657.148	6574.49
657.34	6363.55
657.532	6468
657.724	6371.74
657.916	6470.05
658.108	6304.16
658.3	6357.41
658.492	6298.02
658.684	6154.66
658.876	6265.25
659.068	6365.6
659.26	6312.35
659.452	6085.03
659.644	6357.41
659.836	5937.57
660.028	6166.95
660.22	6140.32
660.412	6205.86
660.604	6025.64
660.796	6085.03
660.988	5972.39
661.18	5886.37
661.372	5857.7
661.563	6109.6
661.755	6019.49
661.947	5878.18
662.139	5804.46
662.331	5714.34
662.522	5913
662.714	5878.18
662.906	5562.8
663.097	5700.01
663.289	5695.91
663.481	5503.4
663.673	5642.67
663.864	5429.68
664.056	5566.89
664.247	5769.64
664.439	5501.36
664.631	5589.42
664.822	5530.03
665.014	5538.22
665.205	5540.27
665.397	5388.72
665.588	5450.16
665.78	5405.1
665.971	5380.53
666.163	5431.73
666.354	5378.48
666.546	5333.42
666.737	5419.44
666.929	5466.54
667.12	5364.14
667.311	5429.68
667.503	5239.22
667.694	5214.64
667.885	5276.08
668.077	5325.23
668.268	5319.09
668.459	5319.09
668.651	5362.09
668.842	5294.51
669.033	5163.44
669.224	5134.77
669.416	5188.02
669.607	5194.16
669.798	5263.79
669.989	5378.48
670.18	5175.73
670.371	5274.03
670.563	5138.87
670.754	5171.63
670.945	5126.58
671.136	5403.05
671.327	5261.74
671.518	5241.26
671.709	5259.7
671.9	5376.43
672.091	5200.3
672.282	5218.74
672.473	5222.83
672.664	5110.19
672.855	5013.94
673.046	5245.36
673.237	5181.87
673.428	5058.99
673.619	5192.11
673.809	5097.91
674	5167.54
674.191	5196.21
674.382	5214.64
674.573	5282.22
674.764	5208.5
674.954	5204.4
675.145	5274.03
675.336	5347.76
675.527	5290.42
675.717	5353.9
675.908	5175.73
676.099	5314.99
676.289	5175.73
676.48	5347.76
676.671	5159.35
676.861	5151.15
677.052	5075.38
677.243	5251.5
677.433	5319.09
677.624	5243.31
677.814	5255.6
678.005	5263.79
678.195	5329.33
678.386	5317.04
678.576	5355.95
678.767	5353.9
678.957	5226.93
679.148	5499.31
679.338	5679.53
679.529	5452.2
679.719	5423.53
679.909	5468.59
680.1	5435.82
680.29	5487.02
680.481	5507.5
680.671	5495.21
680.861	5331.37
681.052	5708.2
681.242	5618.09
681.432	5724.58
681.622	5620.14
681.813	5507.5
682.003	5513.64
682.193	5536.17
682.383	5472.68
682.573	5716.39
682.764	5446.06
682.954	5681.58
683.144	5663.15
683.334	5532.08
683.524	5484.97
683.714	5865.89
683.904	5620.14
684.094	5624.23
684.284	5650.86
684.474	5708.2
684.664	5519.79
684.854	5665.19
685.044	5515.69
685.234	5724.58
685.424	5722.54
685.614	5734.82
685.804	5585.32
685.994	5609.9
686.184	5753.26
686.374	5779.88
686.564	5566.89
686.753	5517.74
686.943	5450.16
687.133	5607.85
687.323	5419.44
687.513	5312.94
687.702	5425.58
687.892	5269.94
688.082	5384.62
688.272	5460.4
688.461	5401.01
688.651	5265.84
688.841	5288.37
689.03	5124.53
689.22	5425.58
689.41	5257.65
689.599	5212.59
689.789	5331.37
689.979	5073.33
690.168	5157.3
690.358	4891.06
690.547	5042.61
690.737	5056.95
690.926	4946.36
691.116	4936.12
691.305	4952.5
691.495	4794.81
691.684	4747.7
691.874	4862.39
692.063	4852.15
692.252	4807.09
692.442	4725.18
692.631	4645.31
692.82	4616.63
693.01	4489.66
693.199	4614.59
693.388	4569.53
693.578	4573.63
693.767	4626.87
693.956	4495.8
694.146	4463.04
694.335	4348.35
694.524	4506.04
694.713	4540.86
694.902	4458.94
695.092	4565.43
695.281	4397.5
695.47	4442.56
695.659	4176.32
695.848	4305.34
696.037	4250.05
696.226	4405.69
696.415	4217.28
696.604	4143.55
696.793	4211.14
696.982	4178.37
697.171	4198.85
697.36	4196.8
697.549	4153.79
697.738	4135.36
697.927	4342.21
698.116	4221.38
698.305	4237.76
698.494	4225.47
698.683	4043.2
698.872	4225.47
699.061	3965.38
699.25	4012.48
699.438	4121.03
699.627	4168.13
699.816	4075.97
700.005	4164.03
700.193	4127.17
700.382	4131.26
700.571	3996.1
700.76	4061.63
700.948	4053.44
701.137	3971.52
701.326	4102.59
701.514	4065.73
701.703	4075.97
701.892	3996.1
702.08	4026.82
702.269	4078.02
702.457	3953.09
702.646	4172.22
702.834	4006.34
703.023	4078.02
703.212	4096.45
703.4	4151.74
703.589	4045.25
703.777	4184.51
703.965	4028.87
704.154	4159.94
704.342	4114.88
704.531	3953.09
704.719	3987.91
704.907	4116.93
705.096	4037.06
705.284	4200.9
705.472	4049.35
705.661	4002.24
705.849	4086.21
706.037	4078.02
706.226	4155.84
706.414	4202.94
706.602	4168.13
706.79	4135.36
706.979	4125.12
707.167	4184.51
707.355	4159.94
707.543	4149.7
707.731	4323.77
707.919	4176.32
708.107	4178.37
708.296	4297.15
708.484	4243.9
708.672	4319.68
708.86	4336.06
709.048	4303.29
709.236	4258.24
709.424	4389.31
709.612	4237.76
709.8	4245.95
709.988	4256.19
710.176	4309.44
710.364	4366.78
710.551	4483.52
710.739	4270.53
710.927	4356.54
711.115	4323.77
711.303	4430.27
711.491	4428.22
711.679	4356.54
711.866	4403.64
712.054	4495.8
712.242	4481.47
712.43	4520.38
712.617	4504
712.805	4307.39
712.993	4452.8
713.181	4583.87
713.368	4549.05
713.556	4673.98
713.744	4594.11
713.931	4602.3
714.119	4600.25
714.306	4698.55
714.494	4764.09
714.682	4667.83
714.869	4723.13
715.057	4719.03
715.244	4694.46
715.432	4831.67
715.619	4872.63
715.807	4749.75
715.994	4782.52
716.182	4864.44
716.369	4958.64
716.556	5077.43
716.744	4977.08
716.931	4880.82
717.119	4864.44
717.306	5003.7
717.493	4927.92
717.681	4993.46
717.868	5099.95
718.055	4997.56
718.242	4962.74
718.43	5102
718.617	5114.29
718.804	4946.36
718.991	5151.15
719.179	5065.14
719.366	5136.82
719.553	5038.52
719.74	5151.15
719.927	5251.5
720.114	5124.53
720.301	5153.2
720.488	5317.04
720.676	5282.22
720.863	5183.92
721.05	5423.53
721.237	5257.65
721.424	5478.83
721.611	5249.46
721.798	5339.57
721.985	5380.53
722.172	5239.22
722.358	5507.5
722.545	5556.65
722.732	5417.39
722.919	5538.22
723.106	5435.82
723.293	5468.59
723.48	5689.77
723.667	5462.44
723.853	5630.38
724.04	5497.26
724.227	5503.4
724.414	5622.19
724.6	5550.51
724.787	5704.1
724.974	5857.7
725.161	5648.81
725.347	5495.21
725.534	5706.15
725.72	5728.68
725.907	5888.42
726.094	5859.75
726.28	5525.93
726.467	5716.39
726.653	5802.41
726.84	5896.61
727.027	5970.34
727.213	5712.3
727.4	5941.67
727.586	5847.46
727.773	5921.19
727.959	5829.03
728.145	5923.24
728.332	5845.41
728.518	5900.71
728.705	5960.1
728.891	5913
729.077	5953.96
729.264	6003.11
729.45	6111.65
729.636	6117.79
729.823	5931.43
730.009	6064.55
730.195	6009.25
730.382	6011.3
730.568	6095.27
730.754	6021.54
730.94	6080.93
731.126	6142.37
731.313	6132.13
731.499	6101.41
731.685	6271.39
731.871	6177.19
732.057	6209.95
732.243	6187.43
732.429	6085.03
732.615	6228.38
732.801	6388.13
732.987	6205.86
733.173	6095.27
733.359	6076.84
733.545	6162.85
733.731	6289.82
733.917	6345.12
734.103	6525.34
734.289	6420.89
734.475	6183.33
734.661	6191.52
734.847	6287.78
735.033	6429.09
735.219	6273.44
735.404	6275.49
735.59	6400.41
735.776	6449.57
735.962	6445.47
736.148	6384.03
736.333	6361.5
736.519	6476.19
736.705	6484.38
736.89	6328.74
737.076	6394.27
737.262	6298.02
737.447	6310.3
737.633	6361.5
737.819	6330.78
738.004	6402.46
738.19	6197.67
738.375	6244.77
738.561	6406.56
738.747	6330.78
738.932	6240.67
739.118	6412.7
739.303	6392.22
739.489	6255.01
739.674	6359.45
739.859	6199.71
740.045	6257.06
740.23	6275.49
740.416	6240.67
740.601	6273.44
740.786	6171.04
740.972	6158.75
741.157	6140.32
741.342	6224.29
741.528	6240.67
741.713	6013.35
741.898	6197.67
742.084	6095.27
742.269	6242.72
742.454	6224.29
742.639	6185.38
742.824	6044.07
743.01	6015.4
743.195	6054.31
743.38	5892.52
743.565	5968.29
743.75	5933.48
743.935	5939.62
744.12	5966.24
744.305	5826.98
744.49	5847.46
744.675	5714.34
744.86	5798.31
745.045	5790.12
745.23	5892.52
745.415	5788.07
745.6	5855.65
745.785	5585.32
745.97	5732.78
746.155	5706.15
746.34	5671.34
746.525	5577.13
746.71	5642.67
746.895	5345.71
747.079	5489.07
747.264	5345.71
747.449	5302.7
747.634	5462.44
747.819	5401.01
748.003	5362.09
748.188	5290.42
748.373	5222.83
748.557	5409.2
748.742	5235.12
748.927	5294.51
749.111	5237.17
749.296	5231.02
749.481	5026.23
749.665	5102
749.85	4964.79
750.034	5065.14
750.219	5005.75
750.404	4938.16
750.588	4880.82
750.773	4821.43
750.957	4729.27
751.141	4833.72
751.326	4708.79
751.51	4749.75
751.695	4704.7
751.879	4688.31
752.064	4686.26
752.248	4741.56
752.432	4663.74
752.617	4667.83
752.801	4526.52
752.985	4467.13
753.17	4356.54
753.354	4401.6
753.538	4504
753.722	4411.84
753.907	4460.99
754.091	4280.77
754.275	4338.11
754.459	4356.54
754.643	4125.12
754.828	4215.23
755.012	4108.74
755.196	4239.81
755.38	3975.62
755.564	4045.25
755.748	4090.31
755.932	3932.61
756.116	3977.67
756.3	4016.58
756.484	3912.13
756.668	3826.12
756.852	3750.34
757.036	3914.18
757.22	3805.64
757.404	3783.11
757.588	3672.52
757.772	3793.35
757.956	3754.44
758.14	3684.81
758.323	3643.85
758.507	3754.44
758.691	3518.92
758.875	3398.09
759.059	3594.7
759.242	3570.12
759.426	3369.42
759.61	3420.62
759.794	3412.43
759.977	3439.05
760.161	3537.35
760.345	3332.56
760.528	3287.5
760.712	3328.46
760.895	3324.37
761.079	3307.98
761.263	3312.08
761.446	3209.68
761.63	3246.54
761.813	3162.58
761.997	3105.23
762.18	3094.99
762.364	3197.39
762.547	3004.88
762.731	3011.03
762.914	3033.55
763.098	3097.04
763.281	3101.14
763.464	2951.63
763.648	3037.65
763.831	2957.78
764.015	2896.34
764.198	2898.39
764.381	2968.02
764.564	2877.91
764.748	2918.87
764.931	2755.03
765.114	2871.76
765.297	2789.85
765.481	2845.14
765.664	2849.24
765.847	2728.41
766.03	2869.72
766.213	2853.33
766.397	2765.27
766.58	2626.01
766.763	2779.61
766.946	2673.11
767.129	2828.76
767.312	2578.9
767.495	2720.21
767.678	2578.9
767.861	2607.58
768.044	2628.06
768.227	2597.34
768.41	2552.28
768.593	2570.71
768.776	2638.3
768.959	2505.18
769.142	2611.67
769.324	2394.59
769.507	2599.38
769.69	2470.36
769.873	2480.6
770.056	2496.99
770.239	2451.93
770.421	2605.53
770.604	2456.03
770.787	2361.82
770.97	2396.64
771.152	2232.8
771.335	2458.07
771.518	2339.29
771.7	2335.2
771.883	2329.05
772.066	2210.27
772.248	2191.84
772.431	2290.14
772.613	2341.34
772.796	2181.6
772.978	2281.95
773.161	2234.85
773.343	2224.61
773.526	2148.83
773.708	2114.02
773.891	2075.1
774.073	2202.08
774.256	2136.54
774.438	2159.07
774.621	2058.72
774.803	2157.02
774.985	1958.37
775.168	2021.86
775.35	2009.57
775.532	2050.53
775.715	1999.33
775.897	1948.13
776.079	1935.84
776.261	1941.99
776.444	1976.8
776.626	1880.55
776.808	1833.44
776.99	1898.98
777.173	1839.59
777.355	1716.71
777.537	1823.2
777.719	1763.81
777.901	1821.16
778.083	1673.7
778.265	1806.82
778.447	1792.48
778.629	1634.79
778.811	1767.91
778.993	1692.13
779.175	1718.76
779.357	1653.22
779.539	1657.32
779.721	1653.22
779.903	1585.64
780.085	1536.49
780.267	1509.86
780.449	1608.17
780.631	1440.23
780.812	1530.34
780.994	1526.25
781.176	1493.48
781.358	1507.82
781.54	1526.25
781.721	1456.62
781.903	1458.67
782.085	1391.08
782.267	1466.86
782.448	1366.51
782.63	1374.7
782.812	1458.67
782.993	1423.85
783.175	1317.36
783.357	1448.43
783.538	1382.89
783.72	1317.36
783.901	1307.12
784.083	1292.78
784.264	1264.11
784.446	1276.4
784.627	1374.7
784.809	1266.16
784.99	1247.72
785.172	1325.55
785.353	1202.67
785.535	1233.39
785.716	1202.67
785.897	1245.68
786.079	1167.85
786.26	1235.44
786.441	1239.53
786.623	1139.18
786.804	1087.98
786.985	1137.13
787.167	1171.95
787.348	1188.33
787.529	1124.85
787.71	1219.05
787.891	1186.29
788.073	981.49
788.254	1028.59
788.435	1096.18
788.616	1061.36
788.797	1083.89
788.978	1038.83
789.159	928.24
789.34	1053.17
789.522	1049.07
789.703	981.49
789.884	981.49
790.065	1047.02
790.246	1049.07
790.427	907.76
790.607	981.49
790.788	1016.3
790.969	893.43
791.15	905.71
791.331	948.72
791.512	848.37
791.693	874.99
791.874	879.09
792.054	983.54
792.235	946.67
792.416	879.09
792.597	920.05
792.778	918
792.958	928.24
793.139	842.23
793.32	850.42
793.5	823.8
793.681	813.56
793.862	825.84
794.042	784.88
794.223	782.84
794.404	694.77
794.584	772.6
794.765	725.49
794.945	776.69
795.126	815.6
795.306	850.42
795.487	750.07
795.667	791.03
795.848	733.68
796.028	717.3
796.209	707.06
796.389	768.5
796.57	813.56
796.75	688.63
796.93	727.54
797.111	735.73
797.291	766.45
797.471	840.18
797.652	725.49
797.832	739.83
798.012	741.88
798.192	694.77
798.373	700.92
798.553	702.97
798.733	764.4
798.913	733.68
799.093	698.87
799.274	578.04
799.454	641.53
799.634	723.44
799.814	662.01
799.994	768.5
800.174	711.16
800.354	621.05
800.534	573.94
800.714	670.2
800.894	502.26
801.074	606.71
801.254	641.53
801.434	727.54
801.614	645.62
801.794	588.28
801.974	1339.88
802.154	530.94
802.334	657.91
802.514	528.89
802.693	578.04
802.873	655.86
803.053	510.46
803.233	575.99
803.413	557.56
803.592	479.74
803.772	545.27
803.952	569.85
804.131	606.71
804.311	614.9
804.491	561.66
804.67	463.35
804.85	543.22
805.03	631.29
805.209	645.62
805.389	571.9
805.568	563.7
805.748	518.65
805.928	467.45
806.107	539.13
806.287	432.63
806.466	514.55
806.646	446.97
806.825	436.73
807.004	453.11
807.184	629.24
807.363	571.9
807.543	467.45
807.722	473.59
807.901	541.18
808.081	430.59
808.26	510.46
808.439	494.07
808.619	453.11
808.798	440.83
808.977	543.22
809.156	481.78
809.336	397.82
809.515	498.17
809.694	428.54
809.873	465.4
810.052	367.1
810.231	522.74
810.411	455.16
810.59	461.3
810.769	406.01
810.948	524.79
811.127	477.69
811.306	432.63
811.485	428.54
811.664	487.93
811.843	504.31
812.022	399.87
812.201	412.15
812.38	367.1
812.559	381.43
812.737	471.54
812.916	363
813.095	436.73
813.274	455.16
813.453	422.39
813.632	399.87
813.811	367.1
813.989	358.91
814.168	424.44
814.347	373.24
814.526	426.49
814.704	465.4
814.883	422.39
815.062	383.48
815.24	391.67
815.419	414.2
815.598	326.14
815.776	391.67
815.955	299.52
816.133	293.37
816.312	309.76
816.49	385.53
816.669	410.11
816.847	328.19
817.026	356.86
817.204	371.19
817.383	315.9
817.561	324.09
817.74	365.05
817.918	287.23
818.097	311.8
818.275	307.71
818.453	381.43
818.632	381.43
818.81	334.33
818.988	313.85
819.167	342.52
819.345	326.14
819.523	330.23
819.701	346.62
819.879	254.46
820.058	264.7
820.236	354.81
820.414	354.81
820.592	358.91
820.77	315.9
820.948	309.76
821.127	272.89
821.305	324.09
821.483	342.52
821.661	309.76
821.839	258.56
822.017	340.47
822.195	322.04
822.373	334.33
822.551	305.66
822.729	289.28
822.907	250.36
823.085	320
823.262	233.98
823.44	283.13
823.618	225.79
823.796	334.33
823.974	260.6
824.152	285.18
824.329	248.32
824.507	211.45
824.685	207.36
824.863	324.09
825.04	248.32
825.218	326.14
825.396	244.22
825.574	299.52
825.751	334.33
825.929	203.26
826.107	195.07
826.284	215.55
826.462	242.17
826.639	295.42
826.817	219.64
826.994	242.17
827.172	227.84
827.349	297.47
827.527	242.17
827.704	242.17
827.882	178.69
828.059	289.28
828.237	176.64
828.414	260.6
828.591	199.16
828.769	276.99
828.946	248.32
829.124	246.27
829.301	240.12
829.478	272.89
829.655	272.89
829.833	209.4
830.01	184.83
830.187	207.36
830.364	170.49
830.542	162.3
830.719	264.7
830.896	264.7
831.073	211.45
831.25	166.4
831.427	162.3
831.604	276.99
831.782	227.84
831.959	203.26
832.136	268.8
832.313	252.41
832.49	186.88
832.667	254.46
832.844	135.68
833.021	199.16
833.198	229.88
833.374	186.88
833.551	195.07
833.728	190.97
833.905	236.03
834.082	193.02
834.259	219.64
834.436	274.94
834.612	162.3
834.789	236.03
834.966	137.73
835.143	299.52
835.319	152.06
835.496	240.12
835.673	215.55
835.85	174.59
836.026	129.53
836.203	162.3
836.38	170.49
836.556	166.4
836.733	96.77
836.909	240.12
837.086	145.92
837.262	133.63
837.439	225.79
837.616	152.06
837.792	125.44
837.968	225.79
838.145	84.48
838.321	184.83
838.498	203.26
838.674	182.78
838.851	203.26
839.027	174.59
839.203	90.62
839.38	213.5
839.556	156.16
839.732	193.02
839.909	141.82
840.085	215.55
840.261	104.96
840.437	119.29
840.614	145.92
840.79	162.3
840.966	125.44
841.142	188.93
841.318	158.21
841.494	139.77
841.671	268.8
841.847	137.73
842.023	139.77
842.199	162.3
842.375	199.16
842.551	82.43
842.727	162.3
842.903	227.84
843.079	76.29
843.255	209.4
843.431	119.29
843.607	96.77
843.783	35.33
843.959	113.15
844.134	92.67
844.31	141.82
844.486	100.86
844.662	98.81
844.838	104.96
845.013	178.69
845.189	68.09
845.365	104.96
845.541	137.73
845.716	102.91
845.892	178.69
846.068	-9.73
846.244	94.72
846.419	111.1
846.595	88.57
846.77	92.67
846.946	133.63
847.122	39.42
847.297	90.62
847.473	184.83
847.648	64
847.824	111.1
847.999	117.25
848.175	70.14
848.35	92.67
848.526	186.88
848.701	162.3
848.876	135.68
849.052	137.73
849.227	152.06
849.403	96.77
849.578	72.19
849.753	80.38
849.929	82.43
850.104	-11.78
850.279	160.25
850.454	80.38
850.63	156.16
850.805	80.38
850.98	109.05
851.155	129.53
851.33	98.81
851.505	47.62
851.681	86.53
851.856	102.91
852.031	129.53
852.206	98.81
852.381	96.77
852.556	109.05
852.731	45.57
852.906	78.33
853.081	109.05
853.256	117.25
853.431	84.48
853.606	39.42
853.781	31.23
853.956	113.15
854.131	104.96
854.305	45.57
854.48	72.19
854.655	64
854.83	51.71
855.005	111.1
855.18	82.43
855.354	80.38
855.529	55.81
855.704	51.71
855.879	74.24
856.053	104.96
856.228	137.73
856.403	61.95
856.577	86.53
856.752	-15.87
856.926	84.48
857.101	31.23
857.276	-13.82
857.45	135.68
857.625	121.34
857.799	76.29
857.974	184.83
858.148	-19.97
858.323	59.9
858.497	82.43
858.672	86.53
858.846	14.85
859.02	68.09
859.195	18.94
859.369	64
859.543	33.28
859.718	164.35
859.892	92.67
860.066	86.53
860.241	51.71
860.415	41.47
860.589	72.19
860.763	80.38
860.938	84.48
861.112	135.68
861.286	49.66
861.46	68.09
861.634	141.82
861.808	37.38
861.982	111.1
862.157	43.52
862.331	64
862.505	25.09
862.679	-1.54
862.853	12.8
863.027	-34.3
863.201	133.63
863.375	25.09
863.549	178.69
863.722	10.75
863.896	78.33
864.07	55.81
864.244	94.72
864.418	88.57
864.592	84.48
864.766	92.67
864.939	100.86
865.113	55.81
865.287	137.73
865.461	14.85
865.634	12.8
865.808	72.19
865.982	59.9
866.156	4.61
866.329	-7.68
866.503	55.81
866.676	68.09
866.85	59.9
867.024	10.75
867.197	72.19
867.371	27.14
867.544	29.18
867.718	-17.92
867.891	94.72
868.065	35.33
868.238	96.77
868.412	121.34
868.585	74.24
868.759	57.86
868.932	25.09
869.105	53.76
869.279	76.29
869.452	-7.68
869.625	68.09
869.799	117.25
869.972	18.94
870.145	-9.73
870.319	76.29
870.492	35.33
870.665	59.9
870.838	64
871.011	23.04
871.185	96.77
871.358	-62.98
871.531	139.77
871.704	16.9
871.877	49.66
872.05	-19.97
872.223	-54.78
872.396	18.94
872.569	12.8
872.742	43.52
872.915	-11.78
873.088	53.76
873.261	10.75
873.434	88.57
873.607	90.62
873.78	61.95
873.953	18.94
874.126	64
874.299	33.28
874.471	47.62
874.644	96.77
874.817	-13.82
874.99	100.86
875.163	10.75
875.335	-3.58
875.508	55.81
875.681	102.91
875.853	8.7
876.026	39.42
876.199	31.23
876.371	0.51
876.544	47.62
876.717	72.19
876.889	2.56
877.062	-34.3
877.234	-17.92
877.407	-36.35
877.579	43.52
877.752	37.38
877.924	113.15
878.097	70.14
878.269	109.05
878.442	90.62
878.614	61.95
878.786	2.56
878.959	-26.11
879.131	59.9
879.303	-52.74
879.476	6.66
879.648	109.05
879.82	-11.78
879.993	-19.97
880.165	-11.78
880.337	31.23
880.509	76.29
880.681	-50.69
880.854	35.33
881.026	61.95
881.198	31.23
881.37	18.94
881.542	64
881.714	61.95
881.886	10.75
882.058	76.29
882.23	45.57
882.402	64
882.574	35.33
882.746	94.72
882.918	96.77
883.09	35.33
883.262	-7.68
883.434	29.18
883.606	6.66
883.778	47.62
883.95	84.48
884.122	74.24
884.293	33.28
884.465	-3.58
884.637	64
884.809	-11.78
884.98	80.38
885.152	29.18
885.324	39.42
885.496	-9.73
885.667	-46.59
885.839	39.42
886.011	82.43
886.182	20.99
886.354	31.23
886.525	53.76
886.697	70.14
886.869	14.85
887.04	-5.63
887.212	96.77
887.383	84.48
887.555	31.23
887.726	12.8
887.897	29.18
888.069	2.56
888.24	41.47
888.412	-11.78
888.583	53.76
888.754	80.38
888.926	57.86
889.097	-42.5
889.268	-60.93
889.44	-13.82
889.611	-3.58
889.782	-1.54
889.953	12.8
890.125	111.1
890.296	14.85
890.467	12.8
890.638	6.66
890.809	68.09
890.98	23.04
891.151	53.76
891.323	145.92
891.494	47.62
891.665	6.66
891.836	51.71
892.007	64
892.178	49.66
892.349	-50.69
892.52	8.7
892.691	29.18
892.862	2.56
893.032	0.51
893.203	55.81
893.374	6.66
893.545	18.94
893.716	-24.06
893.887	80.38
894.057	43.52
894.228	6.66
894.399	37.38
894.57	23.04
894.74	61.95
894.911	6.66
895.082	-50.69
895.253	-9.73
895.423	-11.78
895.594	39.42
895.764	-1.54
895.935	68.09
896.106	51.71
896.276	-56.83
896.447	20.99
896.617	-3.58
896.788	2.56
896.958	-15.87
897.129	-13.82
897.299	6.66
897.47	37.38
897.64	-17.92
897.81	6.66
897.981	-75.26
898.151	6.66
898.322	59.9
898.492	61.95
898.662	-22.02
898.832	31.23
899.003	10.75
899.173	43.52
899.343	-7.68
899.513	25.09
