Data from USB4F104151__10__11-29-37-907.txt Node

Date: Fri Mar 14 11:29:37 EDT 2025
User: louis
Spectrometer: USB4F10415
Trigger mode: 4
Integration Time (sec): 5.000000E-2
Scans to average: 1
Electric dark correction enabled: true
Nonlinearity correction enabled: false
Boxcar width: 0
XAxis mode: Wavelengths
Number of Pixels in Spectrum: 3648
>>>>>Begin Spectral Data<<<<<
178.204	-150.87
178.424	-150.87
178.644	-150.87
178.864	-159.06
179.084	-171.35
179.304	-36.18
179.524	45.74
179.744	-46.42
179.964	-25.94
180.184	4.78
180.404	8.87
180.624	-27.99
180.844	101.03
181.064	-36.18
181.283	15.02
181.503	41.64
181.723	-44.37
181.943	-101.72
182.163	29.35
182.383	10.92
182.602	86.7
182.822	55.98
183.042	60.07
183.262	53.93
183.482	-83.28
183.701	-30.04
183.921	37.55
184.141	55.98
184.361	8.87
184.58	2.73
184.8	33.45
185.02	4.78
185.239	45.74
185.459	29.35
185.679	109.22
185.898	4.78
186.118	-7.51
186.338	72.36
186.557	55.98
186.777	-32.08
186.997	8.87
187.216	33.45
187.436	141.99
187.655	111.27
187.875	70.31
188.095	-5.46
188.314	119.46
188.534	115.37
188.753	-11.61
188.973	115.37
189.192	27.31
189.412	141.99
189.631	25.26
189.851	51.88
190.07	117.42
190.29	41.64
190.509	19.11
190.729	27.31
190.948	109.22
191.168	137.9
191.387	117.42
191.607	-44.37
191.826	66.22
192.045	12.97
192.265	-19.8
192.484	60.07
192.704	53.93
192.923	-68.95
193.142	123.56
193.362	74.41
193.581	58.03
193.8	51.88
194.02	17.07
194.239	-3.41
194.458	21.16
194.678	2.73
194.897	19.11
195.116	37.55
195.335	82.6
195.555	131.75
195.774	-36.18
195.993	62.12
196.212	-19.8
196.432	21.16
196.651	-87.38
196.87	4.78
197.089	182.95
197.308	127.66
197.528	-48.47
197.747	4.78
197.966	33.45
198.185	109.22
198.404	19.11
198.623	66.22
198.842	53.93
199.062	72.36
199.281	98.99
199.5	-46.42
199.719	-5.46
199.938	119.46
200.157	66.22
200.376	33.45
200.595	78.51
200.814	45.74
201.033	-19.8
201.252	43.69
201.471	21.16
201.69	37.55
201.909	60.07
202.128	45.74
202.347	33.45
202.566	-17.75
202.785	-21.85
203.004	70.31
203.223	139.94
203.442	82.6
203.661	58.03
203.879	66.22
204.098	70.31
204.317	4.78
204.536	70.31
204.755	-44.37
204.974	94.89
205.193	0.68
205.411	74.41
205.63	-44.37
205.849	45.74
206.068	78.51
206.287	15.02
206.505	21.16
206.724	60.07
206.943	51.88
207.162	51.88
207.381	-11.61
207.599	27.31
207.818	29.35
208.037	43.69
208.255	21.16
208.474	80.55
208.693	35.5
208.911	27.31
209.13	-7.51
209.349	82.6
209.567	53.93
209.786	103.08
210.005	35.5
210.223	12.97
210.442	21.16
210.661	35.5
210.879	49.83
211.098	66.22
211.316	-13.65
211.535	41.64
211.753	101.03
211.972	82.6
212.191	-48.47
212.409	29.35
212.628	-5.46
212.846	-1.37
213.065	64.17
213.283	68.27
213.502	31.4
213.72	6.83
213.938	70.31
214.157	-32.08
214.375	84.65
214.594	-38.23
214.812	66.22
215.031	29.35
215.249	37.55
215.467	78.51
215.686	17.07
215.904	127.66
216.122	-11.61
216.341	98.99
216.559	45.74
216.778	-3.41
216.996	53.93
217.214	37.55
217.432	37.55
217.651	45.74
217.869	-27.99
218.087	-13.65
218.306	0.68
218.524	53.93
218.742	-46.42
218.96	53.93
219.179	62.12
219.397	-7.51
219.615	70.31
219.833	25.26
220.051	0.68
220.27	117.42
220.488	103.08
220.706	4.78
220.924	-15.7
221.142	-5.46
221.36	45.74
221.578	-11.61
221.796	53.93
222.015	45.74
222.233	39.59
222.451	0.68
222.669	70.31
222.887	113.32
223.105	-5.46
223.323	0.68
223.541	21.16
223.759	70.31
223.977	27.31
224.195	96.94
224.413	74.41
224.631	-7.51
224.849	4.78
225.067	37.55
225.285	10.92
225.503	80.55
225.721	-27.99
225.939	-3.41
226.157	-3.41
226.375	78.51
226.592	-3.41
226.81	0.68
227.028	86.7
227.246	105.13
227.464	-11.61
227.682	84.65
227.9	4.78
228.117	55.98
228.335	35.5
228.553	4.78
228.771	64.17
228.989	-56.66
229.206	84.65
229.424	37.55
229.642	25.26
229.86	35.5
230.077	31.4
230.295	53.93
230.513	37.55
230.731	72.36
230.948	125.61
231.166	37.55
231.384	-23.89
231.601	10.92
231.819	76.46
232.037	0.68
232.254	-21.85
232.472	2.73
232.689	-3.41
232.907	49.83
233.125	-60.76
233.342	94.89
233.56	0.68
233.777	10.92
233.995	27.31
234.213	49.83
234.43	94.89
234.648	41.64
234.865	0.68
235.083	53.93
235.3	66.22
235.518	0.68
235.735	-5.46
235.953	27.31
236.17	35.5
236.388	33.45
236.605	55.98
236.822	70.31
237.04	92.84
237.257	66.22
237.475	-36.18
237.692	43.69
237.909	62.12
238.127	51.88
238.344	49.83
238.562	60.07
238.779	4.78
238.996	-75.09
239.214	2.73
239.431	121.51
239.648	4.78
239.865	29.35
240.083	68.27
240.3	-3.41
240.517	-36.18
240.735	-7.51
240.952	94.89
241.169	96.94
241.386	43.69
241.603	-23.89
241.821	94.89
242.038	123.56
242.255	41.64
242.472	43.69
242.689	-40.28
242.907	12.97
243.124	23.21
243.341	47.79
243.558	8.87
243.775	-15.7
243.992	-85.33
244.209	55.98
244.426	-3.41
244.643	51.88
244.86	8.87
245.078	78.51
245.295	62.12
245.512	25.26
245.729	-52.56
245.946	53.93
246.163	-15.7
246.38	-9.56
246.597	76.46
246.814	80.55
247.031	35.5
247.248	23.21
247.464	139.94
247.681	53.93
247.898	-13.65
248.115	45.74
248.332	27.31
248.549	21.16
248.766	58.03
248.983	133.8
249.2	72.36
249.417	53.93
249.633	4.78
249.85	17.07
250.067	37.55
250.284	33.45
250.501	12.97
250.717	74.41
250.934	4.78
251.151	70.31
251.368	2.73
251.585	41.64
251.801	0.68
252.018	29.35
252.235	115.37
252.451	49.83
252.668	45.74
252.885	41.64
253.102	92.84
253.318	6.83
253.535	17.07
253.752	25.26
253.968	17.07
254.185	25.26
254.401	0.68
254.618	31.4
254.835	4.78
255.051	66.22
255.268	25.26
255.484	64.17
255.701	-5.46
255.917	53.93
256.134	53.93
256.351	21.16
256.567	53.93
256.784	-9.56
257	-17.75
257.217	47.79
257.433	29.35
257.65	35.5
257.866	4.78
258.082	-32.08
258.299	4.78
258.515	109.22
258.732	74.41
258.948	-13.65
259.165	72.36
259.381	66.22
259.597	68.27
259.814	-36.18
260.03	-11.61
260.246	4.78
260.463	-19.8
260.679	64.17
260.895	60.07
261.112	96.94
261.328	4.78
261.544	74.41
261.761	125.61
261.977	-36.18
262.193	58.03
262.409	60.07
262.626	19.11
262.842	78.51
263.058	35.5
263.274	12.97
263.49	29.35
263.707	109.22
263.923	45.74
264.139	-27.99
264.355	-5.46
264.571	27.31
264.787	43.69
265.004	49.83
265.22	66.22
265.436	23.21
265.652	117.42
265.868	90.79
266.084	-15.7
266.3	33.45
266.516	31.4
266.732	82.6
266.948	35.5
267.164	70.31
267.38	37.55
267.596	-30.04
267.812	86.7
268.028	74.41
268.244	-3.41
268.46	58.03
268.676	15.02
268.892	-11.61
269.108	-13.65
269.324	-62.8
269.54	-15.7
269.756	70.31
269.972	2.73
270.188	12.97
270.403	-40.28
270.619	53.93
270.835	45.74
271.051	62.12
271.267	58.03
271.483	23.21
271.698	53.93
271.914	17.07
272.13	2.73
272.346	21.16
272.562	4.78
272.777	8.87
272.993	-34.13
273.209	37.55
273.425	90.79
273.64	27.31
273.856	49.83
274.072	4.78
274.287	-3.41
274.503	84.65
274.719	-60.76
274.934	21.16
275.15	-19.8
275.366	66.22
275.581	0.68
275.797	-46.42
276.012	29.35
276.228	78.51
276.444	-3.41
276.659	66.22
276.875	-44.37
277.09	58.03
277.306	72.36
277.521	80.55
277.737	33.45
277.952	33.45
278.168	51.88
278.383	141.99
278.599	78.51
278.814	76.46
279.03	35.5
279.245	101.03
279.461	35.5
279.676	88.75
279.892	-15.7
280.107	62.12
280.322	58.03
280.538	78.51
280.753	45.74
280.969	-13.65
281.184	12.97
281.399	21.16
281.615	86.7
281.83	41.64
282.045	0.68
282.26	0.68
282.476	-25.94
282.691	74.41
282.906	55.98
283.122	47.79
283.337	21.16
283.552	49.83
283.767	45.74
283.983	70.31
284.198	62.12
284.413	-5.46
284.628	-11.61
284.843	4.78
285.058	82.6
285.274	4.78
285.489	-13.65
285.704	58.03
285.919	-42.32
286.134	51.88
286.349	19.11
286.564	27.31
286.779	74.41
286.995	-42.32
287.21	-40.28
287.425	62.12
287.64	10.92
287.855	55.98
288.07	-25.94
288.285	66.22
288.5	23.21
288.715	12.97
288.93	2.73
289.145	76.46
289.36	74.41
289.575	17.07
289.79	66.22
290.004	62.12
290.219	35.5
290.434	68.27
290.649	-9.56
290.864	21.16
291.079	-3.41
291.294	15.02
291.509	68.27
291.724	94.89
291.938	62.12
292.153	51.88
292.368	23.21
292.583	109.22
292.798	4.78
293.012	92.84
293.227	96.94
293.442	35.5
293.657	47.79
293.871	119.46
294.086	125.61
294.301	70.31
294.516	62.12
294.73	8.87
294.945	60.07
295.16	17.07
295.374	37.55
295.589	33.45
295.804	49.83
296.018	84.65
296.233	62.12
296.447	66.22
296.662	2.73
296.877	111.27
297.091	119.46
297.306	60.07
297.52	-66.9
297.735	51.88
297.949	101.03
298.164	39.59
298.378	29.35
298.593	8.87
298.807	17.07
299.022	68.27
299.236	58.03
299.451	68.27
299.665	58.03
299.88	41.64
300.094	35.5
300.309	55.98
300.523	15.02
300.737	35.5
300.952	70.31
301.166	29.35
301.381	-46.42
301.595	-46.42
301.809	4.78
302.024	-5.46
302.238	0.68
302.452	33.45
302.667	64.17
302.881	98.99
303.095	117.42
303.309	-9.56
303.524	-54.61
303.738	45.74
303.952	47.79
304.166	58.03
304.381	-38.23
304.595	33.45
304.809	68.27
305.023	-11.61
305.237	-44.37
305.452	51.88
305.666	33.45
305.88	111.27
306.094	49.83
306.308	27.31
306.522	21.16
306.736	19.11
306.95	109.22
307.164	72.36
307.379	60.07
307.593	-23.89
307.807	49.83
308.021	53.93
308.235	-40.28
308.449	39.59
308.663	21.16
308.877	33.45
309.091	49.83
309.305	41.64
309.519	-13.65
309.733	88.75
309.947	-21.85
310.161	0.68
310.374	70.31
310.588	29.35
310.802	31.4
311.016	25.26
311.23	53.93
311.444	-23.89
311.658	66.22
311.872	98.99
312.085	41.64
312.299	94.89
312.513	62.12
312.727	78.51
312.941	-19.8
313.154	-19.8
313.368	53.93
313.582	84.65
313.796	101.03
314.009	60.07
314.223	76.46
314.437	23.21
314.651	53.93
314.864	78.51
315.078	19.11
315.292	-7.51
315.505	-36.18
315.719	51.88
315.933	47.79
316.146	12.97
316.36	27.31
316.573	105.13
316.787	27.31
317.001	21.16
317.214	6.83
317.428	10.92
317.641	-36.18
317.855	53.93
318.068	74.41
318.282	84.65
318.495	78.51
318.709	82.6
318.922	-19.8
319.136	98.99
319.349	70.31
319.563	37.55
319.776	37.55
319.99	43.69
320.203	-5.46
320.417	31.4
320.63	45.74
320.843	94.89
321.057	53.93
321.27	64.17
321.483	-9.56
321.697	133.8
321.91	21.16
322.124	35.5
322.337	107.18
322.55	47.79
322.763	41.64
322.977	58.03
323.19	45.74
323.403	90.79
323.617	19.11
323.83	94.89
324.043	12.97
324.256	23.21
324.469	-32.08
324.683	90.79
324.896	76.46
325.109	74.41
325.322	21.16
325.535	74.41
325.748	41.64
325.962	17.07
326.175	94.89
326.388	62.12
326.601	25.26
326.814	-56.66
327.027	27.31
327.24	107.18
327.453	21.16
327.666	45.74
327.879	49.83
328.092	-17.75
328.305	-38.23
328.518	-46.42
328.731	45.74
328.944	37.55
329.157	8.87
329.37	19.11
329.583	131.75
329.796	117.42
330.009	-5.46
330.222	49.83
330.435	58.03
330.648	0.68
330.861	90.79
331.073	37.55
331.286	-7.51
331.499	86.7
331.712	0.68
331.925	8.87
332.138	-7.51
332.35	98.99
332.563	23.21
332.776	117.42
332.989	15.02
333.202	19.11
333.414	41.64
333.627	62.12
333.84	84.65
334.053	86.7
334.265	-32.08
334.478	-5.46
334.691	-5.46
334.903	45.74
335.116	60.07
335.329	37.55
335.541	-11.61
335.754	70.31
335.966	-52.56
336.179	41.64
336.392	78.51
336.604	53.93
336.817	92.84
337.029	-13.65
337.242	86.7
337.454	53.93
337.667	70.31
337.88	41.64
338.092	43.69
338.305	43.69
338.517	4.78
338.729	109.22
338.942	133.8
339.154	53.93
339.367	58.03
339.579	51.88
339.792	45.74
340.004	76.46
340.217	27.31
340.429	92.84
340.641	21.16
340.854	10.92
341.066	86.7
341.278	80.55
341.491	43.69
341.703	70.31
341.915	-11.61
342.128	103.08
342.34	131.75
342.552	72.36
342.764	12.97
342.977	23.21
343.189	86.7
343.401	-9.56
343.613	12.97
343.826	10.92
344.038	-19.8
344.25	29.35
344.462	92.84
344.674	35.5
344.886	64.17
345.099	12.97
345.311	129.7
345.523	29.35
345.735	-19.8
345.947	41.64
346.159	4.78
346.371	-32.08
346.583	39.59
346.795	103.08
347.007	53.93
347.219	127.66
347.431	-13.65
347.643	82.6
347.855	33.45
348.067	72.36
348.279	10.92
348.491	23.21
348.703	66.22
348.915	53.93
349.127	37.55
349.339	45.74
349.551	12.97
349.763	47.79
349.975	45.74
350.187	94.89
350.399	68.27
350.61	70.31
350.822	17.07
351.034	94.89
351.246	45.74
351.458	33.45
351.669	53.93
351.881	86.7
352.093	74.41
352.305	37.55
352.517	66.22
352.728	98.99
352.94	90.79
353.152	21.16
353.363	49.83
353.575	105.13
353.787	96.94
353.999	66.22
354.21	109.22
354.422	76.46
354.633	-5.46
354.845	-27.99
355.057	53.93
355.268	-11.61
355.48	86.7
355.692	70.31
355.903	45.74
356.115	8.87
356.326	-23.89
356.538	121.51
356.749	-52.56
356.961	107.18
357.172	84.65
357.384	-15.7
357.595	141.99
357.807	51.88
358.018	-9.56
358.23	21.16
358.441	105.13
358.653	74.41
358.864	74.41
359.075	10.92
359.287	55.98
359.498	94.89
359.709	37.55
359.921	2.73
360.132	62.12
360.344	107.18
360.555	-11.61
360.766	10.92
360.977	-30.04
361.189	4.78
361.4	92.84
361.611	53.93
361.823	49.83
362.034	41.64
362.245	49.83
362.456	19.11
362.667	12.97
362.879	-23.89
363.09	60.07
363.301	4.78
363.512	62.12
363.723	43.69
363.935	53.93
364.146	66.22
364.357	76.46
364.568	25.26
364.779	-11.61
364.99	51.88
365.201	37.55
365.412	53.93
365.623	-23.89
365.834	41.64
366.045	82.6
366.256	62.12
366.467	86.7
366.678	-27.99
366.889	12.97
367.1	21.16
367.311	139.94
367.522	51.88
367.733	78.51
367.944	78.51
368.155	8.87
368.366	117.42
368.577	-3.41
368.788	119.46
368.999	4.78
369.209	23.21
369.42	101.03
369.631	82.6
369.842	51.88
370.053	-40.28
370.264	103.08
370.474	58.03
370.685	68.27
370.896	29.35
371.107	25.26
371.317	12.97
371.528	49.83
371.739	137.9
371.95	103.08
372.16	76.46
372.371	64.17
372.582	-15.7
372.792	45.74
373.003	23.21
373.214	62.12
373.424	37.55
373.635	37.55
373.846	66.22
374.056	72.36
374.267	10.92
374.477	53.93
374.688	90.79
374.898	27.31
375.109	4.78
375.319	27.31
375.53	158.38
375.74	51.88
375.951	29.35
376.161	88.75
376.372	84.65
376.582	0.68
376.793	94.89
377.003	35.5
377.214	0.68
377.424	94.89
377.635	29.35
377.845	-15.7
378.055	94.89
378.266	-36.18
378.476	92.84
378.686	-32.08
378.897	45.74
379.107	170.66
379.317	115.37
379.528	68.27
379.738	68.27
379.948	-15.7
380.158	98.99
380.369	66.22
380.579	-32.08
380.789	31.4
380.999	21.16
381.21	37.55
381.42	111.27
381.63	103.08
381.84	82.6
382.05	62.12
382.261	47.79
382.471	76.46
382.681	76.46
382.891	98.99
383.101	78.51
383.311	-13.65
383.521	62.12
383.731	144.04
383.941	80.55
384.151	12.97
384.361	58.03
384.571	119.46
384.781	-17.75
384.991	-3.41
385.201	53.93
385.411	66.22
385.621	156.33
385.831	74.41
386.041	10.92
386.251	-54.61
386.461	41.64
386.671	78.51
386.881	70.31
387.091	70.31
387.301	29.35
387.511	51.88
387.72	23.21
387.93	78.51
388.14	98.99
388.35	103.08
388.56	78.51
388.769	60.07
388.979	64.17
389.189	49.83
389.399	70.31
389.609	133.8
389.818	125.61
390.028	68.27
390.238	29.35
390.447	84.65
390.657	55.98
390.867	-21.85
391.076	-19.8
391.286	49.83
391.496	41.64
391.705	53.93
391.915	29.35
392.125	84.65
392.334	98.99
392.544	94.89
392.753	117.42
392.963	80.55
393.172	141.99
393.382	84.65
393.591	58.03
393.801	29.35
394.01	144.04
394.22	78.51
394.429	68.27
394.639	-3.41
394.848	107.18
395.058	55.98
395.267	51.88
395.477	76.46
395.686	74.41
395.895	148.14
396.105	43.69
396.314	150.18
396.524	43.69
396.733	125.61
396.942	115.37
397.152	70.31
397.361	70.31
397.57	4.78
397.78	101.03
397.989	156.33
398.198	94.89
398.407	-11.61
398.617	84.65
398.826	90.79
399.035	78.51
399.244	62.12
399.453	80.55
399.663	76.46
399.872	158.38
400.081	70.31
400.29	107.18
400.499	94.89
400.708	133.8
400.917	133.8
401.127	62.12
401.336	45.74
401.545	199.34
401.754	105.13
401.963	58.03
402.172	25.26
402.381	125.61
402.59	113.32
402.799	86.7
403.008	78.51
403.217	68.27
403.426	121.51
403.635	47.79
403.844	160.42
404.053	62.12
404.262	168.62
404.471	139.94
404.68	127.66
404.888	139.94
405.097	103.08
405.306	115.37
405.515	211.62
405.724	154.28
405.933	217.77
406.142	172.71
406.35	137.9
406.559	162.47
406.768	135.85
406.977	158.38
407.185	258.73
407.394	119.46
407.603	199.34
407.812	105.13
408.02	254.63
408.229	199.34
408.438	180.9
408.646	248.49
408.855	250.53
409.064	275.11
409.272	225.96
409.481	248.49
409.69	236.2
409.898	242.34
410.107	359.08
410.315	303.78
410.524	324.26
410.733	365.22
410.941	322.21
411.15	311.97
411.358	363.17
411.567	422.56
411.775	438.95
411.984	334.5
412.192	463.52
412.401	436.9
412.609	447.14
412.818	512.67
413.026	434.85
413.234	512.67
413.443	504.48
413.651	467.62
413.86	463.52
414.068	529.06
414.276	602.79
414.485	479.91
414.693	651.94
414.901	660.13
415.11	606.88
415.318	598.69
415.526	623.27
415.734	766.62
415.943	701.09
416.151	823.97
416.359	717.47
416.567	862.88
416.776	813.73
416.984	803.49
417.192	971.42
417.4	991.9
417.608	848.54
417.817	836.25
418.025	967.32
418.233	1024.67
418.441	1077.91
418.649	1069.72
418.857	1198.74
419.065	1208.98
419.273	1184.41
419.481	1188.5
419.689	1254.04
419.897	1282.71
420.105	1417.88
420.313	1424.02
420.521	1446.55
420.729	1477.27
420.937	1548.95
421.145	1573.52
421.353	1725.07
421.561	1823.37
421.769	1806.99
421.977	1835.66
422.185	1823.37
422.393	1948.3
422.601	2001.55
422.809	2058.89
423.017	2187.91
423.224	2216.58
423.432	2214.54
423.64	2261.64
423.848	2503.3
424.056	2433.67
424.263	2626.18
424.471	2560.64
424.679	2742.91
424.887	2736.77
425.094	2757.25
425.302	2824.83
425.51	3013.24
425.718	2992.76
425.925	3107.45
426.133	3267.19
426.341	3437.17
426.548	3502.71
426.756	3560.05
426.964	3617.4
427.171	3928.69
427.379	4010.61
427.586	3977.84
427.794	4151.92
428.001	4377.19
428.209	4416.1
428.417	4475.49
428.624	4762.21
428.832	4780.64
429.039	4573.8
429.247	4811.36
429.454	5059.17
429.662	5464.66
429.869	5180
430.076	5567.06
430.284	5288.54
430.491	5589.59
430.699	5923.41
430.906	5941.84
431.114	5964.37
431.321	6230.6
431.528	6216.27
431.736	6773.32
431.943	7025.22
432.15	6894.15
432.358	7094.85
432.565	7426.62
432.772	7096.89
432.979	7725.62
433.187	7709.24
433.394	7844.4
433.601	8495.66
433.808	8475.18
434.016	8327.72
434.223	8600.1
434.43	9325.08
434.637	9134.62
434.844	9781.78
435.052	9718.29
435.259	9701.91
435.466	9830.93
435.673	9626.14
435.88	10543.63
436.087	10875.4
436.294	10998.27
436.501	10668.55
436.708	11125.25
436.915	11459.07
437.122	11981.3
437.329	11772.41
437.537	12257.78
437.743	12349.93
437.95	12257.78
438.157	12929.51
438.364	13177.31
438.571	13232.61
438.778	13398.49
438.985	14467.53
439.192	14090.71
439.399	14528.97
439.606	14285.26
439.813	14961.09
440.02	15741.37
440.227	15546.81
440.433	15389.12
440.64	16015.8
440.847	15864.25
441.054	15999.41
441.261	17469.86
441.467	17097.13
441.674	17619.36
441.881	18121.11
442.088	18010.52
442.294	18033.05
442.501	18260.37
442.708	19042.7
442.914	19472.77
443.121	20230.52
443.328	19855.74
443.534	21193.06
443.741	20633.97
443.948	20162.93
444.154	21782.88
444.361	21961.05
444.568	21723.49
444.774	21967.2
444.981	22094.17
445.187	22892.88
445.394	23970.11
445.6	23705.92
445.807	25536.81
446.013	24582.45
446.22	25069.87
446.426	25467.17
446.633	26224.92
446.839	26636.56
447.046	26118.43
447.252	27656.45
447.459	27621.64
447.665	27199.76
447.871	28487.93
448.078	29651.17
448.284	28418.3
448.491	29077.74
448.697	30200.03
448.903	30744.79
449.11	30832.85
449.316	30322.91
449.522	30853.33
449.728	31973.57
449.935	31920.32
450.141	31508.68
450.347	32624.82
450.553	31695.05
450.76	32090.31
450.966	33052.85
451.172	32762.04
451.378	33630.38
451.584	32800.95
451.791	33593.51
451.997	33210.54
452.203	33833.13
452.409	33902.76
452.615	33820.84
452.821	32450.75
453.027	32063.68
453.233	33231.02
453.44	32200.9
453.646	32673.98
453.852	32735.42
454.058	33061.04
454.264	32164.03
454.47	32925.88
454.676	31693
454.882	33294.51
455.088	30351.58
455.294	30484.7
455.5	30824.66
455.705	31199.44
455.911	29794.53
456.117	29335.79
456.323	28946.67
456.529	27275.53
456.735	28432.63
456.941	27803.91
457.147	27556.1
457.352	26581.27
457.558	26548.5
457.764	26173.72
457.97	25633.06
458.176	25229.61
458.381	25053.48
458.587	23769.41
458.793	23550.28
458.999	22745.42
459.204	24117.56
459.41	23359.81
459.616	21879.13
459.821	21862.75
460.027	21907.8
460.233	21533.03
460.438	20478.32
460.644	20726.13
460.85	19661.18
461.055	19280.26
461.261	19095.94
461.466	17682.84
461.672	17326.5
461.878	18493.84
462.083	17295.78
462.289	16896.42
462.494	16808.36
462.7	16347.57
462.905	15458.75
463.111	16288.18
463.316	16312.75
463.522	16026.04
463.727	16085.43
463.932	16140.72
464.138	15860.15
464.343	15819.19
464.549	15301.06
464.754	15890.87
464.959	15634.88
465.165	15389.12
465.37	15169.99
465.575	14500.3
465.781	15180.23
465.986	15335.87
466.191	14565.84
466.397	14141.91
466.602	13603.29
466.807	14559.69
467.012	14119.38
467.218	14207.44
467.423	13947.35
467.628	14123.48
467.833	14662.09
468.038	14094.8
468.244	13701.59
468.449	14313.94
468.654	13816.28
468.859	13820.38
469.064	13558.24
469.269	13060.58
469.474	13119.97
469.679	13400.54
469.885	13273.57
470.09	13234.66
470.295	13177.31
470.5	12626.41
470.705	12892.65
470.91	12685.8
471.115	12259.82
471.32	12577.26
471.525	12663.27
471.73	12222.96
471.935	12194.29
472.139	12022.26
472.344	12014.07
472.549	11831.8
472.754	11751.93
472.959	11526.65
473.164	11403.77
473.369	10996.23
473.574	11454.97
473.778	11463.16
473.983	11368.96
474.188	11192.83
474.393	10699.27
474.598	10689.03
474.802	10609.16
475.007	10492.43
475.212	10560.01
475.417	10248.72
475.621	10234.38
475.826	10224.14
476.031	10138.13
476.235	9994.77
476.44	9873.94
476.645	9818.64
476.849	9880.08
477.054	9531.93
477.259	9462.3
477.463	9482.78
477.668	9292.32
477.872	9366.04
478.077	9048.61
478.282	8987.17
478.486	8884.77
478.691	8825.38
478.895	8917.54
479.1	8827.43
479.304	8915.49
479.509	8475.18
479.713	8806.95
479.918	8645.16
480.122	8346.16
480.326	8354.35
480.531	8569.38
480.735	8489.51
480.94	8280.62
481.144	8573.48
481.348	8352.3
481.553	8280.62
481.757	8065.58
481.961	8530.47
482.166	8409.64
482.37	8299.05
482.574	8180.27
482.778	8145.45
482.983	8327.72
483.187	8249.9
483.391	8399.4
483.595	8180.27
483.8	8090.16
484.004	8208.94
484.208	8360.49
484.412	8077.87
484.616	8141.36
484.821	8278.57
485.025	8053.3
485.229	8198.7
485.433	8079.92
485.637	8159.79
485.841	8229.42
486.045	8280.62
486.249	8063.54
486.453	8186.41
486.657	8155.69
486.861	8256.04
487.065	8022.58
487.269	8245.8
487.473	7844.4
487.677	8262.19
487.881	8303.15
488.085	8235.56
488.289	8213.04
488.493	8237.61
488.697	8372.78
488.901	8247.85
489.105	8028.72
489.309	8213.04
489.512	8213.04
489.716	8282.67
489.92	8309.29
490.124	8219.18
490.328	8368.68
490.531	8204.85
490.735	8313.39
490.939	8475.18
491.143	8405.55
491.346	8653.35
491.55	8401.45
491.754	8471.08
491.958	8471.08
492.161	8761.89
492.365	8561.19
492.569	8579.62
492.772	8614.44
492.976	8614.44
493.18	8661.54
493.383	8833.57
493.587	8923.68
493.79	8849.96
493.994	8753.7
494.197	9007.65
494.401	9097.76
494.605	9028.13
494.808	9228.83
495.012	9085.47
495.215	9237.02
495.419	9441.82
495.622	9314.84
495.825	9318.94
496.029	9398.81
496.232	9716.25
496.436	9652.76
496.639	9955.86
496.843	9722.39
497.046	9869.84
497.249	10138.13
497.453	10295.82
497.656	10301.97
497.859	10224.14
498.063	10379.79
498.266	10510.86
498.469	10445.32
498.673	10555.91
498.876	10775.05
499.079	10998.27
499.282	11028.99
499.485	11205.12
499.689	11194.88
499.892	11346.43
500.095	11540.99
500.298	11452.92
500.501	11583.99
500.705	11827.7
500.908	12198.38
501.111	11854.33
501.314	12227.06
501.517	12607.98
501.72	12794.34
501.923	12542.44
502.126	12755.43
502.329	12833.25
502.532	12984.8
502.735	12931.56
502.938	13476.32
503.141	13476.32
503.344	13658.59
503.547	13818.33
503.75	13539.8
503.953	14242.26
504.156	14260.69
504.359	14285.26
504.562	14561.74
504.765	14979.53
504.968	14911.94
505.17	14942.66
505.373	14993.86
505.576	15088.07
505.779	15116.74
505.982	15354.3
506.185	15921.59
506.387	16036.28
506.59	15991.22
506.793	16372.14
506.996	16161.2
507.198	16947.62
507.401	16642.48
507.604	16888.23
507.807	17064.36
508.009	17136.04
508.212	17459.62
508.415	17703.32
508.617	17912.22
508.82	17828.25
509.022	17836.44
509.225	18282.9
509.428	18471.31
509.63	18807.18
509.833	18657.68
510.035	19184.01
510.238	18889.1
510.44	19093.9
510.643	19669.37
510.845	19706.24
511.048	19364.23
511.25	19935.61
511.453	20033.91
511.655	20769.13
511.858	20746.61
512.06	20541.81
512.262	20801.9
512.465	20656.5
512.667	21332.33
512.87	21449.06
513.072	21451.11
513.274	22253.91
513.477	22153.56
513.679	22182.23
513.881	22640.98
514.084	22802.77
514.286	23089.48
514.488	23091.53
514.69	23615.81
514.893	23685.44
515.095	23685.44
515.297	23918.91
515.499	24170.81
515.701	24400.18
515.904	24455.48
516.106	24953.13
516.308	25018.67
516.51	25346.34
516.712	25338.15
516.914	25501.99
517.116	26089.76
517.318	26151.2
517.52	26581.27
517.722	26087.71
517.925	26646.8
518.127	27042.06
518.329	27107.6
518.531	27113.74
518.733	27707.65
518.935	27906.3
519.136	28012.8
519.338	28434.68
519.54	28731.64
519.742	28721.4
519.944	28924.15
520.146	29257.96
520.348	29423.85
520.55	29798.63
520.752	29858.02
520.954	30247.13
521.155	30197.98
521.357	30339.29
521.559	30593.24
521.761	31406.28
521.963	31242.45
522.164	31721.67
522.366	31561.93
522.568	31961.28
522.77	32157.89
522.971	33042.61
523.173	32708.79
523.375	32952.5
523.576	32688.31
523.778	33073.33
523.98	33521.84
524.181	33398.96
524.383	33927.33
524.584	34142.37
524.786	34267.3
524.988	34044.07
525.189	34691.23
525.391	35041.43
525.592	35379.34
525.794	35526.8
525.995	35412.11
526.197	35932.29
526.398	35623.05
526.6	35987.59
526.801	36089.99
527.003	36235.39
527.204	36399.23
527.406	36984.95
527.607	36755.58
527.808	37021.81
528.01	36872.31
528.211	36821.11
528.412	37320.82
528.614	37625.96
528.815	37496.94
529.016	38105.19
529.218	37773.42
529.419	37957.74
529.62	38228.07
529.822	38080.61
530.023	38244.45
530.224	38426.72
530.425	38262.88
530.626	38350.95
530.828	38658.14
531.029	39022.68
531.23	38508.64
531.431	38488.16
531.632	38907.99
531.833	39110.74
532.035	39176.28
532.236	39303.25
532.437	39284.82
532.638	39131.22
532.839	39493.71
533.04	40009.8
533.241	39307.35
533.442	40046.66
533.643	39901.26
533.844	39524.43
534.045	39784.52
534.246	39723.08
534.447	39925.83
534.648	39972.94
534.849	40183.88
535.05	39831.63
535.251	40083.53
535.451	40044.62
535.652	40224.84
535.853	39927.88
536.054	40108.1
536.255	40355.91
536.456	39897.16
536.657	40572.99
536.857	40417.35
537.058	40153.16
537.259	40659.01
537.46	39784.52
537.66	40331.33
537.861	40167.49
538.062	39893.07
538.263	40087.62
538.463	40106.05
538.664	40245.32
538.865	40079.43
539.065	40613.95
539.266	40247.36
539.466	40452.16
539.667	40044.62
539.868	40740.92
540.068	40603.71
540.269	40345.67
540.469	40712.25
540.67	39966.79
540.87	40089.67
541.071	40337.48
541.271	40368.19
541.472	40521.79
541.672	40028.23
541.873	40179.78
542.073	39387.22
542.274	40839.23
542.474	40046.66
542.675	39768.14
542.875	40734.78
543.075	40263.75
543.276	40132.68
543.476	40441.92
543.676	40069.19
543.877	40368.19
544.077	40134.73
544.277	40544.32
544.478	40296.52
544.678	39974.98
544.878	40151.11
545.078	39911.5
545.279	40013.9
545.479	39893.07
545.679	39790.67
545.879	40241.22
546.079	40171.59
546.28	40173.64
546.48	39981.13
546.68	40329.28
546.88	40351.81
547.08	39708.75
547.28	40065.1
547.48	39817.29
547.68	40128.58
547.88	39757.9
548.081	40249.41
548.281	39876.68
548.481	40011.85
548.681	40435.78
548.881	40110.15
549.081	39954.5
549.28	40167.49
549.48	40347.71
549.68	39843.91
549.88	40196.17
550.08	40120.39
550.28	40065.1
550.48	39700.56
550.68	40323.14
550.88	39868.49
551.08	40212.55
551.279	39934.03
551.479	39682.13
551.679	39798.86
551.879	39600.21
552.079	40089.67
552.278	39753.8
552.478	39532.62
552.678	39620.69
552.878	40058.95
553.077	39639.12
553.277	39204.95
553.477	40073.29
553.676	39485.52
553.876	39608.4
554.076	39514.19
554.275	39632.97
554.475	39020.63
554.674	39506
554.874	39401.55
555.074	39299.15
555.273	39635.02
555.473	39372.88
555.672	38905.94
555.872	38819.93
556.071	38998.1
556.271	39344.21
556.47	38965.34
556.67	38625.37
556.869	38563.93
557.068	38729.82
557.268	38647.9
557.467	38469.73
557.667	38606.94
557.866	38811.74
558.065	38692.96
558.265	38115.43
558.464	37896.3
558.663	38541.41
558.863	38000.74
559.062	38717.53
559.261	38160.48
559.461	38238.31
559.66	37562.48
559.859	37914.73
560.058	37511.28
560.258	38109.29
560.457	37222.51
560.656	37912.68
560.855	37503.09
561.054	37984.36
561.253	37265.52
561.453	37474.41
561.652	37175.41
561.851	37628.01
562.05	36874.36
562.249	36886.65
562.448	37165.17
562.647	36964.47
562.846	36690.04
563.045	36876.41
563.244	36395.14
563.443	36726.91
563.642	36118.66
563.841	36083.84
564.04	36094.08
564.239	36145.28
564.438	35586.19
564.637	36247.68
564.836	35860.62
565.035	35457.17
565.234	35809.42
565.432	35747.98
565.631	35393.68
565.83	35467.41
566.029	35117.2
566.228	34713.75
566.427	35004.56
566.625	35051.67
566.824	34324.64
567.023	34887.83
567.222	33958.05
567.42	34654.36
567.619	34500.76
567.818	34277.54
568.016	33980.58
568.215	34388.13
568.414	33945.76
568.612	34527.39
568.811	33753.26
569.01	33876.13
569.208	33439.92
569.407	33550.51
569.605	32981.17
569.804	33239.22
570.002	32960.69
570.201	33155.25
570.4	32987.32
570.598	32698.55
570.797	32354.49
570.995	32420.03
571.193	32342.21
571.392	32575.67
571.59	31774.92
571.789	31928.52
571.987	31797.45
572.186	31957.19
572.384	31836.36
572.582	32118.98
572.781	31656.14
572.979	30998.74
573.177	31713.48
573.376	31281.36
573.574	31199.44
573.772	31453.39
573.971	30900.44
574.169	31086.8
574.367	30691.54
574.565	30714.07
574.763	30638.3
574.962	30486.75
575.16	30349.53
575.358	30548.18
575.556	30093.54
575.754	30519.51
575.952	30095.58
576.151	30062.82
576.349	29790.44
576.547	29657.32
576.745	30097.63
576.943	29688.04
577.141	29653.22
577.339	29638.89
577.537	29210.86
577.735	29343.98
577.933	29176.05
578.131	29315.31
578.329	29096.17
578.527	28938.48
578.725	28868.85
578.923	29174
579.121	28434.68
579.319	28834.03
579.516	28881.14
579.714	28629.24
579.912	28365.05
580.11	28125.44
580.308	28342.52
580.506	28031.23
580.704	27599.11
580.901	27863.3
581.099	28416.25
581.297	27498.76
581.495	27797.76
581.692	27912.45
581.89	27535.62
582.088	27547.91
582.285	27359.5
582.483	27844.87
582.681	27195.66
582.878	27470.09
583.076	27105.55
583.274	27545.86
583.471	26800.4
583.669	27037.97
583.866	26767.63
584.064	26759.44
584.262	26515.73
584.459	26611.99
584.657	26513.69
584.854	26657.04
585.052	26042.65
585.249	26425.62
585.447	26530.07
585.644	26093.85
585.841	26138.91
586.039	26231.07
586.236	25706.79
586.434	25643.3
586.631	25465.13
586.828	25696.55
587.026	25729.31
587.223	25485.61
587.42	25428.26
587.618	25532.71
587.815	25090.35
588.012	25125.16
588.21	25104.68
588.407	25155.88
588.604	24789.3
588.801	24856.88
588.999	25000.24
589.196	25069.87
589.393	24764.72
589.59	24723.76
589.787	24570.16
589.984	24516.92
590.182	24281.4
590.379	24459.57
590.576	24422.71
590.773	24416.57
590.97	24107.32
591.167	24105.27
591.364	23585.09
591.561	23963.97
591.758	23806.27
591.955	23710.02
592.152	23615.81
592.349	23710.02
592.546	23640.39
592.743	23787.84
592.94	22964.56
593.137	23345.48
593.334	23492.93
593.531	22927.69
593.727	23089.48
593.924	23130.44
594.121	22919.5
594.318	22884.69
594.515	22677.84
594.712	23069
594.908	23048.52
595.105	22653.26
595.302	22462.8
595.499	22649.17
595.696	22661.46
595.892	22112.6
596.089	22524.24
596.286	22409.56
596.482	22049.11
596.679	21897.56
596.876	22112.6
597.072	22184.28
597.269	22141.27
597.466	21870.94
597.662	21717.34
597.859	21649.76
598.055	21725.54
598.252	21449.06
598.448	21510.5
598.645	21614.94
598.841	21518.69
599.038	21252.45
599.234	21483.87
599.431	20961.64
599.627	20996.46
599.824	21184.87
600.02	20830.57
600.217	21035.37
600.413	20926.83
600.609	20713.84
600.806	20738.41
601.002	20818.28
601.198	20607.34
601.395	20326.77
601.591	20588.91
601.787	20287.86
601.984	20457.84
602.18	20625.78
602.376	20318.58
602.572	20203.89
602.769	20367.73
602.965	19794.3
603.161	20181.37
603.357	19775.87
603.553	19716.48
603.75	19863.93
603.946	19730.81
604.142	19734.91
604.338	19308.93
604.534	19872.12
604.73	19302.79
604.926	19571.07
605.122	19546.5
605.318	19380.61
605.514	18954.63
605.71	19288.45
605.906	19224.97
606.102	19009.93
606.298	19149.19
606.494	19188.1
606.69	18893.19
606.886	18993.54
607.082	18575.76
607.278	18971.02
607.474	18436.5
607.67	18747.79
607.866	18254.23
608.062	18538.9
608.257	18512.27
608.453	18610.57
608.649	18495.89
608.845	18272.66
609.041	18622.86
609.236	18313.62
609.432	18282.9
609.628	18303.38
609.824	17940.89
610.019	18190.74
610.215	18149.78
610.411	18205.08
610.606	18301.33
610.802	17985.94
610.998	17734.04
611.193	18229.65
611.389	17785.24
611.584	17863.07
611.78	17578.4
611.976	17670.56
612.171	17781.15
612.367	17635.74
612.562	17459.62
612.758	17154.47
612.953	17385.89
613.149	17547.68
613.344	17363.36
613.539	17570.21
613.735	17557.92
613.93	17396.13
614.126	17117.61
614.321	17375.65
614.517	17131.94
614.712	17371.55
614.907	17326.5
615.103	17420.7
615.298	17471.9
615.493	17162.66
615.688	16888.23
615.884	17187.24
616.079	16662.96
616.274	17113.51
616.47	17019.3
616.665	16779.69
616.86	16923.05
617.055	16794.03
617.25	16652.72
617.445	16603.57
617.641	16499.12
617.836	16570.8
618.031	16540.08
618.226	16499.12
618.421	16382.38
618.616	16292.27
618.811	16042.42
619.006	16505.26
619.201	15897.02
619.396	16028.09
619.591	15577.53
619.786	16110
619.981	15788.47
620.176	16032.18
620.371	15907.26
620.566	15849.91
620.761	15993.27
620.956	15552.96
621.151	15548.86
621.346	15681.98
621.541	15249.86
621.735	15641.02
621.93	15229.38
622.125	15266.24
622.32	15135.17
622.515	15059.4
622.709	15057.35
622.904	14789.06
623.099	14893.51
623.294	14930.37
623.488	14973.38
623.683	14840.26
623.878	14545.36
624.072	14467.53
624.267	14303.7
624.462	14412.24
624.656	14356.94
624.851	14123.48
625.046	14154.19
625.24	13947.35
625.435	14006.74
625.629	14027.22
625.824	13709.79
626.018	13859.29
626.213	13455.84
626.407	13857.24
626.602	13257.18
626.796	13521.37
626.991	13541.85
627.185	13330.91
627.38	13119.97
627.574	13119.97
627.768	13134.31
627.963	13027.81
628.157	12988.9
628.352	12792.3
628.546	12777.96
628.74	12765.67
628.935	12466.67
629.129	12650.99
629.323	12214.77
629.517	12308.97
629.712	12372.46
629.906	12184.05
630.1	12110.32
630.294	12372.46
630.489	12083.7
630.683	12229.1
630.877	11751.93
631.071	11971.06
631.265	11878.9
631.459	11815.41
631.653	11815.41
631.848	11821.56
632.042	11514.36
632.236	11452.92
632.43	11543.03
632.624	11618.81
632.818	11465.21
633.012	11325.95
633.206	11319.81
633.4	11366.91
633.594	11020.8
633.788	11008.51
633.982	11115.01
634.176	10975.75
634.369	11094.53
634.563	10875.4
634.757	10906.12
634.951	10947.08
635.145	10809.86
635.339	10711.56
635.533	10656.26
635.726	10658.31
635.92	10539.53
636.114	10228.24
636.308	10344.97
636.501	10314.25
636.695	10291.73
636.889	10144.27
637.083	10048.02
637.276	10013.2
637.47	10326.54
637.664	10045.97
637.857	10035.73
638.051	9957.91
638.244	9818.64
638.438	9835.03
638.632	9765.4
638.825	9638.42
639.019	9775.64
639.212	9404.96
639.406	9480.73
639.599	9370.14
639.793	9529.88
639.986	9429.53
640.18	9056.8
640.373	9558.55
640.567	9171.49
640.76	9228.83
640.954	9290.27
641.147	9085.47
641.34	9064.99
641.534	9114.14
641.727	9032.22
641.92	8946.21
642.114	9003.55
642.307	8909.35
642.5	8593.96
642.694	8684.07
642.887	8778.28
643.08	8630.82
643.273	8548.9
643.467	8376.87
643.66	8479.27
643.853	8553
644.046	8325.68
644.239	8419.88
644.432	8315.44
644.626	8282.67
644.819	8186.41
645.012	8120.88
645.205	8270.38
645.398	8196.65
645.591	8036.91
645.784	8036.91
645.977	7959.09
646.17	8063.54
646.363	8038.96
646.556	7899.7
646.749	7803.44
646.942	7791.16
647.135	7825.97
647.328	7649.85
647.521	7803.44
647.714	7623.22
647.907	7504.44
648.099	7647.8
648.292	7555.64
648.485	7488.06
648.678	7590.45
648.871	7391.8
649.064	7244.35
649.256	7473.72
649.449	7303.74
649.642	7211.58
649.835	7313.98
650.027	7184.96
650.22	7172.67
650.413	7158.33
650.605	7205.44
650.798	6953.54
650.991	6892.1
651.183	6967.87
651.376	6933.06
651.568	6933.06
651.761	6730.31
651.954	6935.1
652.146	6728.26
652.339	6795.84
652.531	6609.48
652.724	6611.53
652.916	6740.55
653.109	6777.41
653.301	6738.5
653.494	6736.45
653.686	6523.46
653.879	6562.37
654.071	6419.02
654.263	6416.97
654.456	6328.91
654.648	6410.82
654.84	6185.55
655.033	6064.72
655.225	6410.82
655.417	6197.84
655.61	6287.95
655.802	6128.21
655.994	6154.83
656.186	6113.87
656.379	6185.55
656.571	6011.47
656.763	6113.87
656.955	5845.59
657.148	5964.37
657.34	6023.76
657.532	5972.56
657.724	6046.29
657.916	5935.7
658.108	6017.61
658.3	5759.57
658.492	5902.93
658.684	5876.3
658.876	5794.39
659.068	5667.41
659.26	5681.75
659.452	5700.18
659.644	5753.43
659.836	5589.59
660.028	5661.27
660.22	5634.64
660.412	5628.5
660.604	5579.35
660.796	5548.63
660.988	5493.33
661.18	5562.97
661.372	5429.85
661.563	5603.93
661.755	5386.84
661.947	5427.8
662.139	5358.17
662.331	5309.02
662.522	5329.5
662.714	5229.15
662.906	5196.38
663.097	5042.78
663.289	5173.85
663.481	5231.19
663.673	5233.24
663.864	5108.32
664.056	5143.13
664.247	5093.98
664.439	5079.65
664.631	5116.51
664.822	5220.95
665.014	5116.51
665.205	5210.72
665.397	5163.61
665.588	5034.59
665.78	5010.01
665.971	4917.86
666.163	4905.57
666.354	4846.18
666.546	4987.49
666.737	4854.37
666.929	5018.21
667.12	4915.81
667.311	4944.48
667.503	4895.33
667.694	4864.61
667.885	4825.7
668.077	4950.62
668.268	4821.6
668.459	4854.37
668.651	4702.82
668.842	4883.04
669.033	4924
669.224	4788.83
669.416	4905.57
669.607	4915.81
669.798	4776.55
669.989	4862.56
670.18	4821.6
670.371	4813.41
670.563	4731.49
670.754	4696.67
670.945	4702.82
671.136	4735.59
671.327	4749.92
671.518	4794.98
671.709	4670.05
671.9	4942.43
672.091	4799.07
672.282	4672.1
672.473	4698.72
672.664	4792.93
672.855	4612.71
673.046	4668
673.237	4739.68
673.428	4745.83
673.619	4772.45
673.809	4901.47
674	4524.65
674.191	4811.36
674.382	4713.06
674.573	4637.28
674.764	4786.79
674.954	4754.02
675.145	4559.46
675.336	4794.98
675.527	4729.44
675.717	4731.49
675.908	4694.63
676.099	4573.8
676.289	4606.56
676.48	4952.67
676.671	4641.38
676.861	4764.26
677.052	4727.39
677.243	4665.96
677.433	4708.96
677.624	5079.65
677.814	4739.68
678.005	4780.64
678.195	4870.75
678.386	4854.37
678.576	4909.66
678.767	4762.21
678.957	4788.83
679.148	4880.99
679.338	4684.39
679.529	4909.66
679.719	4817.51
679.909	4928.1
680.1	4780.64
680.29	4967.01
680.481	4842.08
680.671	4942.43
680.861	4942.43
681.052	4928.1
681.242	4913.76
681.432	5098.08
681.622	4846.18
681.813	5075.55
682.003	5075.55
682.193	4975.2
682.383	4981.34
682.573	4979.29
682.764	5198.43
682.954	5089.88
683.144	5067.36
683.334	5007.97
683.524	5059.17
683.714	4989.53
683.904	4934.24
684.094	5126.75
684.284	5069.41
684.474	5198.43
684.664	5016.16
684.854	5030.49
685.044	5001.82
685.234	5032.54
685.424	4928.1
685.614	5016.16
685.804	5007.97
685.994	5073.5
686.184	5007.97
686.374	4967.01
686.564	4956.77
686.753	4934.24
686.943	4889.18
687.133	4883.04
687.323	4801.12
687.513	4899.42
687.702	4831.84
687.892	4797.03
688.082	4823.65
688.272	4797.03
688.461	4825.7
688.651	4872.8
688.841	4659.81
689.03	4805.22
689.22	4676.2
689.41	4594.28
689.599	4657.76
689.789	4665.96
689.979	4747.87
690.168	4559.46
690.358	4518.5
690.547	4614.76
690.737	4510.31
690.926	4563.56
691.116	4450.92
691.305	4467.3
691.495	4098.67
691.684	4428.39
691.874	4409.96
692.063	4311.66
692.252	4377.19
692.442	4356.71
692.631	4145.77
692.82	4098.67
693.01	4186.73
693.199	4123.24
693.388	4149.87
693.578	4160.11
693.767	4018.8
693.956	4108.91
694.146	4074.09
694.335	4192.87
694.524	3934.83
694.713	4133.48
694.902	4012.65
695.092	4004.46
695.281	3869.3
695.47	3879.54
695.659	3750.51
695.848	3918.45
696.037	3756.66
696.226	3953.26
696.415	4057.71
696.604	3863.15
696.793	3852.91
696.982	3934.83
697.171	3926.64
697.36	3779.18
697.549	3805.81
697.738	3816.05
697.927	3766.9
698.116	3826.29
698.305	3742.32
698.494	3705.46
698.683	3707.51
698.872	3820.14
699.061	3756.66
699.25	3568.24
699.438	3807.86
699.627	3719.79
699.816	3721.84
700.005	3601.01
700.193	3687.03
700.382	3793.52
700.571	3615.35
700.76	3789.42
700.948	3801.71
701.137	3779.18
701.326	3768.95
701.514	3529.33
701.703	3816.05
701.892	3738.23
702.08	3680.88
702.269	3695.22
702.457	3641.97
702.646	3760.75
702.834	3678.83
703.023	3754.61
703.212	3732.08
703.4	3721.84
703.589	3691.12
703.777	3773.04
703.965	3697.27
704.154	3770.99
704.342	3576.44
704.531	3721.84
704.719	3713.65
704.907	3762.8
705.096	3746.42
705.284	3723.89
705.472	3809.9
705.661	3662.45
705.849	3844.72
706.037	3879.54
706.226	3781.23
706.414	3826.29
706.602	3846.77
706.79	3750.51
706.979	3791.47
707.167	3822.19
707.355	3789.42
707.543	3928.69
707.731	3834.48
707.919	3914.35
708.107	3803.76
708.296	3830.38
708.484	3902.06
708.672	3943.02
708.86	3723.89
709.048	4000.37
709.236	4065.9
709.424	4121.2
709.612	4057.71
709.8	3816.05
709.988	3922.54
710.176	3945.07
710.364	4106.86
710.551	4037.23
710.739	3969.65
710.927	4133.48
711.115	4059.76
711.303	4141.68
711.491	4188.78
711.679	4096.62
711.866	4049.52
712.054	4047.47
712.242	4151.92
712.43	4190.83
712.617	4125.29
712.805	4338.28
712.993	4166.25
713.181	4276.84
713.368	4258.41
713.556	4223.59
713.744	4156.01
713.931	4375.14
714.119	4266.6
714.306	4317.8
714.494	4346.47
714.682	4407.91
714.869	4383.34
715.057	4526.69
715.244	4401.77
715.432	4516.45
715.619	4491.88
715.807	4575.84
715.994	4543.08
716.182	4518.5
716.369	4643.43
716.556	4663.91
716.744	4569.7
716.931	4510.31
717.119	4604.52
717.306	4682.34
717.493	4786.79
717.681	4672.1
717.868	4649.57
718.055	4721.25
718.242	4635.24
718.43	4754.02
718.617	4797.03
718.804	4702.82
718.991	4772.45
719.179	4956.77
719.366	4686.44
719.553	4936.29
719.74	4895.33
719.927	5057.12
720.114	4870.75
720.301	4805.22
720.488	4901.47
720.676	4954.72
720.863	5196.38
721.05	5050.97
721.237	5106.27
721.424	5134.94
721.611	4969.05
721.798	5132.89
721.985	5050.97
722.172	5065.31
722.358	5079.65
722.545	5255.77
722.732	4952.67
722.919	5218.91
723.106	5223
723.293	5216.86
723.48	5247.58
723.667	5147.23
723.853	5343.83
724.04	5442.14
724.227	5151.32
724.414	5347.93
724.6	5268.06
724.787	5341.79
724.974	5386.84
725.161	5341.79
725.347	5489.24
725.534	5366.36
725.72	5456.47
725.907	5476.95
726.094	5239.39
726.28	5419.61
726.467	5374.55
726.653	5556.82
726.84	5468.76
727.027	5503.57
727.213	5343.83
727.4	5581.4
727.586	5540.44
727.773	5679.7
727.959	5552.73
728.145	5614.16
728.332	5648.98
728.518	5587.54
728.705	5640.79
728.891	5540.44
729.077	5761.62
729.264	5761.62
729.45	5847.63
729.636	5929.55
729.823	5739.09
730.009	5804.63
730.195	5835.35
730.382	5655.12
730.568	5771.86
730.754	5679.7
730.94	5821.01
731.126	5995.09
731.313	5747.28
731.499	5956.18
731.685	5925.46
731.871	5993.04
732.057	5868.11
732.243	5939.79
732.429	6013.52
732.615	5845.59
732.801	6077.01
732.987	5853.78
733.173	5818.96
733.359	5978.7
733.545	5947.98
733.731	5861.97
733.917	5995.09
734.103	5935.7
734.289	6038.09
734.475	5857.87
734.661	6005.33
734.847	6017.61
735.033	6177.36
735.219	5954.13
735.404	5984.85
735.59	5974.61
735.776	5978.7
735.962	6167.12
736.148	6021.71
736.333	5861.97
736.519	6074.96
736.705	5978.7
736.89	5993.04
737.076	6046.29
737.262	5968.46
737.447	5898.83
737.633	6120.01
737.819	5902.93
738.004	6017.61
738.19	6079.05
738.375	5886.54
738.561	6136.4
738.747	5902.93
738.932	5947.98
739.118	6113.87
739.303	5974.61
739.489	5988.94
739.674	6009.42
739.859	5974.61
740.045	5939.79
740.23	6083.15
740.416	5902.93
740.601	5947.98
740.786	5904.98
740.972	5911.12
741.157	5886.54
741.342	5902.93
741.528	5845.59
741.713	5737.04
741.898	5816.91
742.084	5855.83
742.269	5925.46
742.454	5780.05
742.639	5966.42
742.824	5720.66
743.01	5808.72
743.195	5880.4
743.38	5827.15
743.565	5630.55
743.75	5722.71
743.935	5651.03
744.12	5683.8
744.305	5540.44
744.49	5536.34
744.675	5466.71
744.86	5493.33
745.045	5509.72
745.23	5550.68
745.415	5458.52
745.6	5468.76
745.785	5542.49
745.97	5538.39
746.155	5419.61
746.34	5194.33
746.525	5317.21
746.71	5382.74
746.895	5290.59
747.079	5208.67
747.264	5188.19
747.449	5286.49
747.634	5134.94
747.819	5184.09
748.003	5120.6
748.188	5149.28
748.373	5165.66
748.557	4946.53
748.742	4981.34
748.927	4862.56
749.111	4891.23
749.296	4911.71
749.481	4768.35
749.665	4895.33
749.85	4598.37
750.034	4794.98
750.219	4655.72
750.404	4780.64
750.588	4690.53
750.773	4637.28
750.957	4592.23
751.141	4448.87
751.326	4635.24
751.51	4500.07
751.695	4584.04
751.879	4426.34
752.064	4592.23
752.248	4303.47
752.432	4325.99
752.617	4305.51
752.801	4317.8
752.985	4289.13
753.17	4170.35
753.354	4278.89
753.538	4248.17
753.722	4115.05
753.907	4201.07
754.091	4246.12
754.275	4026.99
754.459	4010.61
754.643	4059.76
754.828	4010.61
755.012	4035.18
755.196	3871.34
755.38	3920.49
755.564	3992.17
755.748	3799.66
755.932	3850.86
756.116	3846.77
756.3	3814
756.484	3678.83
756.668	3748.47
756.852	3625.59
757.036	3594.87
757.22	3611.25
757.404	3549.81
757.588	3476.09
757.772	3588.72
757.956	3437.17
758.14	3533.43
758.323	3408.5
758.507	3445.37
758.691	3404.41
758.875	3535.48
759.059	3365.5
759.242	3377.78
759.426	3228.28
759.61	3359.35
759.794	3302.01
759.977	3369.59
760.161	3215.99
760.345	3271.29
760.528	3328.63
760.712	3215.99
760.895	3136.12
761.079	3156.6
761.263	3148.41
761.446	3078.78
761.63	3191.42
761.813	3117.69
761.997	3140.22
762.18	2992.76
762.364	3019.39
762.547	3060.35
762.731	2962.05
762.914	2898.56
763.098	2783.87
763.281	2851.46
763.464	2894.46
763.648	2744.96
763.831	2830.98
764.015	2773.63
764.198	2830.98
764.381	2806.4
764.564	2894.46
764.748	2904.7
764.931	2839.17
765.114	2794.11
765.297	2665.09
765.481	2620.03
765.664	2753.15
765.847	2693.76
766.03	2777.73
766.213	2615.94
766.397	2591.36
766.58	2562.69
766.763	2605.7
766.946	2497.16
767.129	2499.2
767.312	2564.74
767.495	2634.37
767.678	2593.41
767.861	2511.49
768.044	2577.03
768.227	2515.59
768.41	2454.15
768.593	2574.98
768.776	2460.29
768.959	2409.09
769.142	2589.32
769.324	2372.23
769.507	2501.25
769.69	2402.95
769.873	2357.89
770.056	2476.68
770.239	2425.48
770.421	2398.85
770.604	2345.61
770.787	2282.12
770.97	2329.22
771.152	2204.3
771.335	2245.26
771.518	2181.77
771.7	2280.07
771.883	2282.12
772.066	2230.92
772.248	2220.68
772.431	2214.54
772.613	2210.44
772.796	2087.56
772.978	2194.06
773.161	2048.65
773.343	2073.23
773.526	2077.32
773.708	2124.43
773.891	2034.32
774.073	1999.5
774.256	2101.9
774.438	2089.61
774.621	1952.4
774.803	1995.4
774.985	2015.88
775.168	1888.91
775.35	1835.66
775.532	1976.97
775.715	1913.49
775.897	1966.73
776.079	1790.61
776.261	1913.49
776.444	1772.18
776.626	1727.12
776.808	1806.99
776.99	1905.29
777.173	1804.94
777.355	1766.03
777.537	1829.52
777.719	1774.22
777.901	1774.22
778.083	1725.07
778.265	1757.84
778.447	1725.07
778.629	1569.43
778.811	1585.81
778.993	1671.83
779.175	1673.87
779.357	1659.54
779.539	1458.84
779.721	1561.23
779.903	1598.1
780.085	1514.13
780.267	1473.17
780.449	1534.61
780.631	1446.55
780.812	1598.1
780.994	1421.97
781.176	1434.26
781.358	1479.32
781.54	1407.64
781.721	1479.32
781.903	1454.74
782.085	1426.07
782.267	1430.16
782.448	1391.25
782.63	1389.21
782.812	1346.2
782.993	1411.73
783.175	1303.19
783.357	1305.24
783.538	1274.52
783.72	1366.68
783.901	1270.42
784.083	1241.75
784.264	1211.03
784.446	1256.09
784.627	1116.83
784.809	1344.15
784.99	1090.2
785.172	1249.94
785.353	1149.59
785.535	1192.6
785.716	1168.02
785.897	1168.02
786.079	1059.48
786.26	1184.41
786.441	1137.31
786.623	1118.87
786.804	1122.97
786.985	1065.63
787.167	1098.39
787.348	1118.87
787.529	1110.68
787.71	1036.95
787.891	1096.35
788.073	989.85
788.254	1051.29
788.435	1102.49
788.616	936.6
788.797	1088.15
788.978	918.17
789.159	979.61
789.34	1020.57
789.522	1028.76
789.703	936.6
789.884	930.46
790.065	930.46
790.246	987.8
790.427	936.6
790.607	963.23
790.788	893.6
790.969	969.37
791.15	877.21
791.331	795.29
791.512	807.58
791.693	869.02
791.874	801.44
792.054	936.6
792.235	955.04
792.416	815.77
792.597	774.81
792.778	1028.76
792.958	770.72
793.139	805.53
793.32	864.93
793.5	785.05
793.681	789.15
793.862	844.45
794.042	789.15
794.223	721.57
794.404	877.21
794.584	758.43
794.765	696.99
794.945	764.57
795.126	840.35
795.306	787.1
795.487	660.13
795.667	717.47
795.848	690.85
796.028	754.34
796.209	733.86
796.389	709.28
796.57	666.27
796.75	772.77
796.93	705.18
797.111	676.51
797.291	545.44
797.471	727.71
797.652	608.93
797.832	719.52
798.012	758.43
798.192	592.55
798.373	598.69
798.553	737.95
798.733	701.09
798.913	676.51
799.093	647.84
799.274	666.27
799.454	682.66
799.634	637.6
799.814	594.59
799.994	656.03
800.174	639.65
800.354	553.63
800.534	539.3
800.714	594.59
800.894	570.02
801.074	520.87
801.254	529.06
801.434	613.03
801.614	610.98
801.794	584.35
801.974	1340.05
802.154	553.63
802.334	608.93
802.514	610.98
802.693	578.21
802.873	461.48
803.053	635.55
803.233	527.01
803.413	522.91
803.592	582.31
803.772	518.82
803.952	545.44
804.131	547.49
804.311	471.72
804.491	549.54
804.67	492.2
804.85	570.02
805.03	586.4
805.209	553.63
805.389	533.15
805.568	574.11
805.748	527.01
805.928	594.59
806.107	531.11
806.287	527.01
806.466	475.81
806.646	457.38
806.825	518.82
807.004	551.59
807.184	510.63
807.363	516.77
807.543	340.65
807.722	488.1
807.901	518.82
808.081	488.1
808.26	463.52
808.439	387.75
808.619	473.76
808.798	387.75
808.977	418.47
809.156	539.3
809.336	455.33
809.515	471.72
809.694	373.41
809.873	520.87
810.052	510.63
810.231	443.04
810.411	430.76
810.59	484
810.769	381.6
810.948	492.2
811.127	381.6
811.306	467.62
811.485	375.46
811.664	488.1
811.843	510.63
812.022	443.04
812.201	469.67
812.38	453.28
812.559	320.17
812.737	498.34
812.916	297.64
813.095	402.08
813.274	416.42
813.453	381.6
813.632	357.03
813.811	373.41
813.989	330.41
814.168	434.85
814.347	324.26
814.526	363.17
814.704	387.75
814.883	365.22
815.062	373.41
815.24	352.93
815.419	389.8
815.598	426.66
815.776	242.34
815.955	402.08
816.133	328.36
816.312	260.77
816.49	363.17
816.669	420.52
816.847	314.02
817.026	359.08
817.204	324.26
817.383	334.5
817.561	307.88
817.74	377.51
817.918	320.17
818.097	344.74
818.275	357.03
818.453	299.69
818.632	352.93
818.81	365.22
818.988	389.8
819.167	328.36
819.345	365.22
819.523	309.93
819.701	246.44
819.879	338.6
820.058	359.08
820.236	326.31
820.414	371.37
820.592	324.26
820.77	283.3
820.948	277.16
821.127	314.02
821.305	307.88
821.483	236.2
821.661	338.6
821.839	322.21
822.017	299.69
822.195	197.29
822.373	379.56
822.551	297.64
822.729	328.36
822.907	311.97
823.085	283.3
823.262	287.4
823.44	254.63
823.618	314.02
823.796	322.21
823.974	316.07
824.152	225.96
824.329	236.2
824.507	209.58
824.685	176.81
824.863	168.62
825.04	242.34
825.218	266.92
825.396	322.21
825.574	316.07
825.751	268.97
825.929	316.07
826.107	234.15
826.284	258.73
826.462	322.21
826.639	248.49
826.817	148.14
826.994	283.3
827.172	281.25
827.349	305.83
827.527	209.58
827.704	225.96
827.882	268.97
828.059	232.1
828.237	209.58
828.414	250.53
828.591	152.23
828.769	260.77
828.946	203.43
829.124	225.96
829.301	258.73
829.478	205.48
829.655	242.34
829.833	234.15
830.01	193.19
830.187	258.73
830.364	199.34
830.542	205.48
830.719	160.42
830.896	217.77
831.073	176.81
831.25	189.1
831.427	221.86
831.604	211.62
831.782	144.04
831.959	246.44
832.136	193.19
832.313	193.19
832.49	158.38
832.667	197.29
832.844	174.76
833.021	256.68
833.198	172.71
833.374	203.43
833.551	127.66
833.728	238.25
833.905	271.01
834.082	123.56
834.259	215.72
834.436	162.47
834.612	203.43
834.789	172.71
834.966	160.42
835.143	150.18
835.319	121.51
835.496	250.53
835.673	236.2
835.85	219.82
836.026	219.82
836.203	213.67
836.38	131.75
836.556	60.07
836.733	146.09
836.909	193.19
837.086	176.81
837.262	168.62
837.439	103.08
837.616	154.28
837.792	191.14
837.968	176.81
838.145	154.28
838.321	150.18
838.498	215.72
838.674	221.86
838.851	141.99
839.027	92.84
839.203	119.46
839.38	215.72
839.556	162.47
839.732	80.55
839.909	111.27
840.085	144.04
840.261	127.66
840.437	107.18
840.614	94.89
840.79	135.85
840.966	160.42
841.142	119.46
841.318	119.46
841.494	148.14
841.671	234.15
841.847	113.32
842.023	103.08
842.199	217.77
842.375	207.53
842.551	133.8
842.727	123.56
842.903	182.95
843.079	125.61
843.255	94.89
843.431	111.27
843.607	148.14
843.783	78.51
843.959	86.7
844.134	131.75
844.31	172.71
844.486	154.28
844.662	115.37
844.838	98.99
845.013	182.95
845.189	115.37
845.365	182.95
845.541	166.57
845.716	182.95
845.892	115.37
846.068	107.18
846.244	111.27
846.419	119.46
846.595	86.7
846.77	94.89
846.946	141.99
847.122	68.27
847.297	101.03
847.473	68.27
847.648	135.85
847.824	31.4
847.999	72.36
848.175	-3.41
848.35	90.79
848.526	160.42
848.701	113.32
848.876	123.56
849.052	123.56
849.227	139.94
849.403	62.12
849.578	43.69
849.753	98.99
849.929	127.66
850.104	121.51
850.279	78.51
850.454	123.56
850.63	133.8
850.805	133.8
850.98	90.79
851.155	101.03
851.33	141.99
851.505	113.32
851.681	94.89
851.856	86.7
852.031	62.12
852.206	96.94
852.381	27.31
852.556	0.68
852.731	123.56
852.906	96.94
853.081	86.7
853.256	170.66
853.431	125.61
853.606	37.55
853.781	78.51
853.956	35.5
854.131	86.7
854.305	8.87
854.48	115.37
854.655	49.83
854.83	82.6
855.005	66.22
855.18	92.84
855.354	49.83
855.529	31.4
855.704	4.78
855.879	125.61
856.053	86.7
856.228	86.7
856.403	82.6
856.577	45.74
856.752	94.89
856.926	154.28
857.101	-9.56
857.276	19.11
857.45	27.31
857.625	133.8
857.799	107.18
857.974	33.45
858.148	74.41
858.323	12.97
858.497	-21.85
858.672	84.65
858.846	15.02
859.02	86.7
859.195	33.45
859.369	51.88
859.543	74.41
859.718	31.4
859.892	19.11
860.066	135.85
860.241	119.46
860.415	101.03
860.589	29.35
860.763	12.97
860.938	117.42
861.112	141.99
861.286	45.74
861.46	123.56
861.634	109.22
861.808	37.55
861.982	-38.23
862.157	12.97
862.331	45.74
862.505	49.83
862.679	-3.41
862.853	76.46
863.027	111.27
863.201	84.65
863.375	60.07
863.549	135.85
863.722	96.94
863.896	19.11
864.07	78.51
864.244	-27.99
864.418	117.42
864.592	51.88
864.766	12.97
864.939	58.03
865.113	21.16
865.287	98.99
865.461	15.02
865.634	10.92
865.808	115.37
865.982	94.89
866.156	29.35
866.329	6.83
866.503	62.12
866.676	62.12
866.85	21.16
867.024	21.16
867.197	96.94
867.371	62.12
867.544	92.84
867.718	84.65
867.891	55.98
868.065	92.84
868.238	58.03
868.412	98.99
868.585	35.5
868.759	49.83
868.932	-1.37
869.105	-13.65
869.279	82.6
869.452	27.31
869.625	127.66
869.799	68.27
869.972	-1.37
870.145	4.78
870.319	72.36
870.492	33.45
870.665	70.31
870.838	21.16
871.011	12.97
871.185	62.12
871.358	27.31
871.531	109.22
871.704	39.59
871.877	78.51
872.05	53.93
872.223	25.26
872.396	27.31
872.569	41.64
872.742	-19.8
872.915	45.74
873.088	23.21
873.261	33.45
873.434	78.51
873.607	-44.37
873.78	-36.18
873.953	37.55
874.126	66.22
874.299	92.84
874.471	35.5
874.644	25.26
874.817	60.07
874.99	111.27
875.163	51.88
875.335	-7.51
875.508	-21.85
875.681	131.75
875.853	19.11
876.026	27.31
876.199	25.26
876.371	4.78
876.544	19.11
876.717	72.36
876.889	-56.66
877.062	86.7
877.234	4.78
877.407	12.97
877.579	53.93
877.752	21.16
877.924	45.74
878.097	60.07
878.269	17.07
878.442	-11.61
878.614	53.93
878.786	68.27
878.959	45.74
879.131	15.02
879.303	-23.89
879.476	-40.28
879.648	94.89
879.82	29.35
879.993	-3.41
880.165	-3.41
880.337	4.78
880.509	0.68
880.681	-40.28
880.854	31.4
881.026	45.74
881.198	111.27
881.37	58.03
881.542	10.92
881.714	94.89
881.886	103.08
882.058	37.55
882.23	29.35
882.402	29.35
882.574	21.16
882.746	-9.56
882.918	43.69
883.09	21.16
883.262	-5.46
883.434	-1.37
883.606	35.5
883.778	53.93
883.95	119.46
884.122	27.31
884.293	19.11
884.465	21.16
884.637	66.22
884.809	-9.56
884.98	84.65
885.152	4.78
885.324	37.55
885.496	-71
885.667	66.22
885.839	49.83
886.011	4.78
886.182	86.7
886.354	17.07
886.525	-77.14
886.697	4.78
886.869	47.79
887.04	-13.65
887.212	-30.04
887.383	8.87
887.555	29.35
887.726	-93.52
887.897	-25.94
888.069	70.31
888.24	27.31
888.412	60.07
888.583	-3.41
888.754	62.12
888.926	-75.09
889.097	45.74
889.268	21.16
889.44	21.16
889.611	-32.08
889.782	49.83
889.953	4.78
890.125	45.74
890.296	-15.7
890.467	17.07
890.638	10.92
890.809	0.68
890.98	51.88
891.151	49.83
891.323	37.55
891.494	43.69
891.665	6.83
891.836	107.18
892.007	21.16
892.178	29.35
892.349	-7.51
892.52	33.45
892.691	43.69
892.862	-32.08
893.032	12.97
893.203	-56.66
893.374	19.11
893.545	15.02
893.716	17.07
893.887	86.7
894.057	-38.23
894.228	-25.94
894.399	-64.85
894.57	58.03
894.74	31.4
894.911	19.11
895.082	15.02
895.253	-32.08
895.423	33.45
895.594	-1.37
895.764	45.74
895.935	-79.19
896.106	12.97
896.276	10.92
896.447	10.92
896.617	-32.08
896.788	70.31
896.958	-7.51
897.129	-54.61
897.299	-30.04
897.47	98.99
897.64	33.45
897.81	-7.51
897.981	25.26
898.151	62.12
898.322	107.18
898.492	12.97
898.662	-7.51
898.832	4.78
899.003	33.45
899.173	21.16
899.343	-27.99
899.513	68.27
